400.0745	4445
402.597	4411
405.1208	4574
407.6419	4549
410.1623	4491
412.6819	4514
415.201	4505
417.7172	4533
420.2369	4624
422.7538	4659
425.2701	4650
427.7856	4618
430.3005	4744
432.8147	4841
435.3282	4741
437.841	4703
440.3511	4754
442.8625	4885
445.3753	4707
447.8854	4778
450.3927	4740
452.9014	4840
455.4073	4751
457.9146	4851
460.4233	4843
462.9272	4698
465.4325	4870
467.935	4740
470.4389	4884
472.9421	4827
475.4446	4835
477.9444	4800
480.4456	4880
482.944	4940
485.4417	4933
487.9429	4863
490.4393	4934
492.935	4939
495.4321	5019
497.9264	4859
500.4221	5009
502.9171	4958
505.4094	5007
507.9011	4934
510.392	5145
512.8864	5014
515.3759	5022
517.8649	5041
520.3531	5128
522.8406	4959
525.3275	5071
527.8178	5067
530.3033	5026
532.7881	4980
535.2723	5053
537.7558	5112
540.2407	5052
542.7228	5091
545.2043	4982
547.6851	5061
550.1652	5100
552.6467	5185
555.1255	4966
557.6016	5088
560.079	5155
562.5557	5036
565.0318	5048
567.5092	5155
569.984	5154
572.456	5231
574.9294	5146
577.4022	5209
579.8762	5179
582.3456	5279
584.8163	5293
587.2863	5255
589.7557	5180
592.2224	5322
594.6924	5283
597.1578	5283
599.6245	5154
602.0905	5266
604.5538	5324
607.0206	5282
609.4825	5282
611.9459	5208
614.4066	5243
616.8686	5226
619.33	5203
621.7906	5203
624.2487	5258
626.708	5210
629.1647	5233
631.6207	5248
634.0801	5208
636.5348	5172
638.9888	5128
641.4442	5282
643.8969	5301
646.3509	5273
648.8022	5245
651.255	5277
653.705	5352
656.1544	5359
658.6031	5258
661.0532	5379
663.5026	5352
665.9493	5274
668.3954	5405
670.8409	5359
673.2877	5306
675.7318	5492
678.1752	5408
680.618	5443
683.0601	5444
685.5035	5379
687.9444	5452
690.3845	5485
692.824	5437
695.2628	5364
697.701	5433
700.1406	5429
702.5774	5451
705.0116	5494
707.4472	5353
709.8821	5388
712.3183	5540
714.7519	5556
717.1829	5587
719.6151	5577
722.0468	5530
724.4777	5439
726.908	5673
729.3377	5577
731.7667	5621
734.1931	5673
736.6208	5636
739.0498	5587
741.4742	5719
743.9	5621
746.3231	5770
748.7476	5768
751.1713	5766
753.5945	5674
756.015	5770
758.4368	5846
760.856	5841
763.2766	5678
765.6965	5756
768.1157	5814
770.5323	5795
772.9483	5932
775.3656	5825
777.7822	5796
780.1963	5828
782.6116	5781
785.0244	5861
787.4365	5847
789.8499	5870
792.2626	5844
794.6728	5880
797.0823	5857
799.4911	5801
801.8994	5897
804.3109	5833
806.7178	5839
809.124	5832
811.5297	5841
813.9347	5910
816.341	5881
818.7447	5889
821.1478	5998
823.5502	5887
825.952	5935
828.3531	5915
830.7556	5898
833.1554	6001
835.5546	5873
837.9532	5935
840.3511	5919
842.7504	5964
845.1451	6125
847.5411	6060
849.9365	6026
852.3312	6082
854.7272	6071
857.1187	6142
859.5115	6032
861.9037	5955
864.2952	5996
866.6842	5974
869.0764	6035
871.4661	5941
873.8531	5903
876.2415	5941
878.6272	5986
881.0162	6048
883.4026	6023
885.7866	6003
888.1717	5954
890.5543	5879
892.9382	5911
895.3215	6022
897.7041	6008
900.0842	5985
902.4655	5960
904.8443	6019
907.2244	6001
909.6039	6073
911.9808	6005
914.357	6171
916.7346	6081
919.1115	6024
921.4859	6337
923.8616	6213
926.2347	6084
928.6071	6276
930.979	6238
933.3541	6211
935.7247	6281
938.0946	6402
940.4639	6421
942.8326	6423
945.2026	6384
947.5701	6380
949.9369	6508
952.305	6655
954.6705	6851
957.0355	6993
959.4017	7116
961.7654	7261
964.1284	7214
966.4908	7193
968.8527	6903
971.2138	6657
973.5743	6520
975.9343	6463
978.2936	6281
980.6522	6367
983.0122	6192
985.3696	6236
987.7245	6238
990.0807	6180
992.4362	6062
994.7911	6215
997.1474	6191
999.4991	6219
1001.852	6235
1004.205	6219
1006.555	6281
1008.908	6275
1011.258	6280
1013.606	6177
1015.956	6230
1018.302	6119
1020.652	6327
1022.998	6257
1025.345	6219
1027.691	6282
1030.035	6302
1032.378	6243
1034.724	6240
1037.066	6295
1039.409	6250
1041.75	6413
1044.092	6265
1046.433	6287
1048.771	6259
1051.112	6377
1053.449	6319
1055.786	6298
1058.124	6269
1060.462	6280
1062.797	6339
1065.131	6478
1067.467	6337
1069.8	6377
1072.135	6463
1074.467	6395
1076.798	6481
1079.129	6358
1081.459	6373
1083.792	6421
1086.121	6372
1088.449	6447
1090.777	6404
1093.104	6279
1095.431	6313
1097.759	6371
1100.084	6407
1102.408	6315
1104.732	6373
1107.056	6344
1109.379	6349
1111.701	6384
1114.022	6460
1116.343	6224
1118.664	6379
1120.983	6450
1123.303	6268
1125.621	6359
1127.939	6359
1130.256	6442
1132.573	6446
1134.889	6364
1137.205	6422
1139.52	6293
1141.832	6437
1144.146	6297
1146.461	6442
1148.771	6300
1151.083	6327
1153.392	6429
1155.703	6378
1158.011	6357
1160.323	6336
1162.629	6462
1164.938	6435
1167.243	6515
1169.55	6471
1171.857	6259
1174.163	6475
1176.466	6435
1178.769	6441
1181.073	6422
1183.374	6410
1185.677	6519
1187.979	6460
1190.279	6319
1192.578	6301
1194.878	6386
1197.178	6316
1199.476	6344
1201.772	6424
1204.068	6359
1206.366	6401
1208.663	6438
1210.957	6389
1213.251	6484
1215.544	6261
1217.836	6388
1220.128	6432
1222.421	6402
1224.712	6503
1227.002	6388
1229.292	6492
1231.581	6607
1233.871	6445
1236.159	6567
1238.446	6570
1240.732	6551
1243.018	6744
1245.304	6702
1247.59	6643
1249.874	6428
1252.156	6721
1254.439	6653
1256.721	6666
1259.005	6603
1261.286	6592
1263.565	6560
1265.845	6644
1268.125	6573
1270.403	6556
1272.682	6590
1274.959	6504
1277.234	6680
1279.511	6596
1281.787	6564
1284.062	6694
1286.337	6659
1288.609	6461
1290.882	6535
1293.153	6538
1295.428	6500
1297.698	6466
1299.969	6508
1302.237	6524
1304.507	6442
1306.777	6581
1309.044	6522
1311.312	6517
1313.578	6570
1315.844	6486
1318.109	6454
1320.375	6573
1322.638	6665
1324.903	6538
1327.165	6584
1329.427	6600
1331.69	6563
1333.952	6592
1336.212	6614
1338.471	6570
1340.73	6484
1342.988	6502
1345.248	6586
1347.505	6483
1349.763	6509
1352.019	6448
1354.274	6544
1356.53	6556
1358.784	6471
1361.038	6516
1363.291	6596
1365.543	6503
1367.797	6565
1370.048	6580
1372.296	6525
1374.546	6591
1376.796	6517
1379.045	6683
1381.295	6596
1383.542	6594
1385.787	6521
1388.034	6692
1390.28	6630
1392.527	6683
1394.772	6575
1397.014	6642
1399.258	6618
1401.501	6655
1403.741	6662
1405.985	6609
1408.226	6672
1410.465	6595
1412.705	6709
1414.943	6642
1417.184	6743
1419.42	6743
1421.658	6667
1423.894	6638
1426.13	6744
1428.366	6689
1430.602	6755
1432.835	6725
1435.069	6710
1437.301	6823
1439.535	6662
1441.767	6782
1443.997	6810
1446.229	6890
1448.458	6704
1450.687	6803
1452.916	6702
1455.146	6738
1457.372	6800
1459.599	6764
1461.824	6797
1464.051	6797
1466.277	6825
1468.501	6769
1470.725	6811
1472.948	6586
1475.17	6677
1477.393	6768
1479.614	6669
1481.837	6738
1484.057	6613
1486.276	6607
1488.497	6492
1490.715	6536
1492.932	6624
1495.148	6495
1497.364	6541
1499.58	6492
1501.798	6508
1504.012	6624
1506.227	6517
1508.44	6536
1510.653	6583
1512.866	6522
1515.078	6397
1517.289	6530
1519.5	6413
1521.711	6402
1523.92	6494
1526.13	6550
1528.338	6526
1530.544	6493
1532.752	6554
1534.959	6518
1537.165	6569
1539.371	6548
1541.574	6460
1543.779	6615
1545.983	6552
1548.187	6552
1550.39	6626
1552.59	6516
1554.792	6637
1556.991	6561
1559.19	6572
1561.392	6638
1563.59	6520
1565.789	6521
1567.986	6769
1570.182	6697
1572.381	6669
1574.576	6694
1576.771	6763
1578.966	6589
1581.16	6742
1583.354	6706
1585.546	6703
1587.74	6725
1589.931	6676
1592.121	6649
1594.311	6742
1596.502	6637
1598.693	6664
1600.881	6691
1603.069	6757
1605.256	6783
1607.445	6722
1609.631	6826
1611.816	6692
1614.001	6684
1616.186	6672
1618.37	6785
1620.555	6603
1622.737	6739
1624.919	6811
1627.101	6721
1629.282	6753
1631.463	6842
1633.643	6783
1635.822	6842
1638.001	6778
1640.179	6670
1642.359	6853
1644.534	6805
1646.711	6838
1648.887	6715
1651.062	6941
1653.235	6870
1655.412	6859
1657.586	6874
1659.757	6877
1661.93	6776
1664.1	6794
1666.274	6845
1668.445	6952
1670.614	6827
1672.784	6917
1674.951	6800
1677.12	6797
1679.289	6814
1681.457	6817
1683.622	6920
1685.789	6919
1687.953	6779
1690.121	6759
1692.284	6794
1694.447	6811
1696.611	6807
1698.772	6782
1700.935	6735
1703.098	6819
1705.258	6669
1707.417	6764
1709.576	6703
1711.736	6698
1713.896	6730
1716.053	6749
1718.21	6664
1720.366	6660
1722.522	6789
1724.68	6781
1726.835	6765
1728.989	6586
1731.142	6762
1733.295	6706
1735.449	6553
1737.601	6646
1739.753	6639
1741.903	6792
1744.054	6701
1746.203	6736
1748.354	6665
1750.503	6747
1752.651	6670
1754.798	6603
1756.944	6712
1759.092	6648
1761.238	6702
1763.383	6702
1765.528	6722
1767.672	6725
1769.814	6711
1771.959	6746
1774.102	6689
1776.242	6741
1778.384	6760
1780.525	6817
1782.665	6703
1784.805	6768
1786.945	6705
1789.082	6771
1791.22	6841
1793.36	6798
1795.495	6749
1797.632	6781
1799.766	6804
1801.902	6815
1804.035	6735
1806.172	6810
1808.304	6784
1810.436	6711
1812.569	6699
1814.699	6741
1816.833	6718
1818.963	6762
1821.092	6807
1823.222	6695
1825.35	6712
1827.478	6797
1829.608	6622
1831.734	6692
1833.86	6826
1835.986	6660
1838.11	6730
1840.238	6678
1842.362	6724
1844.485	6764
1846.608	6695
1848.73	6709
1850.853	6735
1852.974	6665
1855.097	6634
1857.217	6703
1859.336	6742
1861.455	6596
1863.576	6637
1865.693	6670
1867.811	6694
1869.926	6620
1872.042	6747
1874.16	6615
1876.275	6646
1878.39	6681
1880.504	6664
1882.618	6630
1884.731	6668
1886.843	6695
1888.956	6687
1891.067	6696
1893.178	6683
1895.287	6764
1897.399	6739
1899.508	6707
1901.617	6745
1903.724	6679
1905.832	6628
1907.941	6710
1910.046	6714
1912.152	6690
1914.256	6763
1916.361	6789
1918.464	6833
1920.57	6759
1922.672	6804
1924.775	6737
1926.876	6778
1928.978	6823
1931.08	6774
1933.181	6663
1935.28	6844
1937.38	6858
1939.478	6785
1941.577	6799
1943.675	6713
1945.771	6627
1947.867	6813
1949.964	6856
1952.058	6914
1954.154	6854
1956.248	6734
1958.343	6779
1960.435	6716
1962.527	6784
1964.62	6680
1966.711	6816
1968.802	6762
1970.892	6773
1972.983	6706
1975.072	6726
1977.162	6683
1979.25	6735
1981.337	6732
1983.424	6787
1985.51	6553
1987.598	6719
1989.683	6679
1991.768	6672
1993.852	6603
1995.934	6626
1998.019	6799
2000.102	6622
2002.184	6718
2004.266	6666
2006.347	6670
2008.427	6686
2010.508	6739
2012.587	6690
2014.666	6765
2016.745	6637
2018.821	6635
2020.9	6629
2022.977	6581
2025.052	6623
2027.128	6644
2029.204	6624
2031.277	6709
2033.353	6674
2035.425	6736
2037.499	6737
2039.57	6681
2041.642	6623
2043.714	6696
2045.786	6696
2047.855	6713
2049.925	6581
2051.993	6586
2054.064	6742
2056.132	6639
2058.2	6737
2060.266	6677
2062.332	6650
2064.398	6684
2066.465	6614
2068.529	6609
2070.592	6548
2072.657	6720
2074.719	6760
2076.783	6723
2078.845	6671
2080.907	6624
2082.968	6621
2085.028	6693
2087.087	6698
2089.148	6761
2091.207	6679
2093.264	6648
2095.322	6661
2097.379	6727
2099.439	6593
2101.495	6682
2103.55	6687
2105.605	6740
2107.658	6628
2109.713	6643
2111.767	6652
2113.82	6702
2115.872	6754
2117.924	6651
2119.975	6694
2122.028	6686
2124.078	6619
2126.126	6605
2128.176	6563
2130.225	6676
2132.275	6687
2134.321	6593
2136.368	6632
2138.415	6680
2140.461	6606
2142.505	6541
2144.552	6632
2146.597	6643
2148.64	6693
2150.684	6645
2152.725	6602
2154.77	6629
2156.811	6579
2158.852	6662
2160.894	6648
2162.933	6602
2164.973	6549
2167.013	6612
2169.051	6609
2171.089	6625
2173.126	6525
2175.164	6618
2177.201	6623
2179.236	6505
2181.273	6539
2183.307	6515
2185.341	6511
2187.377	6473
2189.41	6498
2191.442	6471
2193.473	6650
2195.506	6419
2197.539	6573
2199.569	6466
2201.598	6415
2203.628	6492
2205.656	6480
2207.686	6446
2209.716	6463
2211.743	6490
2213.769	6444
2215.796	6481
2217.821	6457
2219.848	6442
2221.873	6492
2223.897	6496
2225.921	6325
2227.944	6482
2229.967	6395
2231.991	6406
2234.011	6589
2236.032	6455
2238.053	6518
2240.073	6506
2242.094	6396
2244.114	6510
2246.131	6540
2248.149	6490
2250.167	6431
2252.186	6464
2254.201	6427
2256.218	6414
2258.233	6355
2260.247	6327
2262.262	6485
2264.278	6392
2266.29	6360
2268.303	6455
2270.315	6399
2272.327	6402
2274.341	6474
2276.35	6421
2278.361	6344
2280.37	6472
2282.38	6491
2284.388	6370
2286.397	6403
2288.405	6453
2290.412	6340
2292.419	6498
2294.425	6459
2296.431	6207
2298.437	6442
2300.441	6355
2302.445	6481
2304.449	6341
2306.453	6363
2308.455	6402
2310.457	6439
2312.459	6426
2314.46	6393
2316.46	6302
2318.461	6390
2320.46	6437
2322.458	6357
2324.458	6381
2326.456	6364
2328.455	6356
2330.451	6376
2332.447	6349
2334.443	6333
2336.438	6453
2338.433	6326
2340.429	6343
2342.422	6216
2344.416	6268
2346.408	6337
2348.399	6333
2350.393	6217
2352.384	6308
2354.375	6285
2356.365	6293
2358.355	6166
2360.344	6313
2362.333	6150
2364.322	6274
2366.309	6237
2368.295	6252
2370.282	6244
2372.27	6282
2374.256	6168
2376.24	6299
2378.225	6295
2380.208	6389
2382.194	6306
2384.177	6287
2386.159	6215
2388.142	6193
2390.122	6246
2392.105	6191
2394.085	6186
2396.066	6207
2398.044	6175
2400.024	6145
2402.002	6152
2403.982	6064
2405.959	6196
2407.935	6163
2409.913	6150
2411.888	6232
2413.865	6225
2415.84	6095
2417.814	6081
2419.788	6118
2421.762	6153
2423.735	6097
2425.708	6159
2427.68	6168
2429.651	6149
2431.623	6145
2433.593	6165
2435.564	6250
2437.533	6230
2439.502	6074
2441.47	6100
2443.438	6276
2445.406	6217
2447.373	6107
2449.34	6137
2451.305	6153
2453.271	6094
2455.235	6096
2457.201	6139
2459.165	6016
2461.129	6206
2463.092	6222
2465.054	6076
2467.018	6026
2468.978	6202
2470.939	6110
2472.899	6139
2474.86	6209
2476.819	6018
2478.778	6154
2480.737	6142
2482.695	6012
2484.653	6230
2486.609	6046
2488.567	5968
2490.524	6072
2492.478	6008
2494.433	6032
2496.387	6151
2498.343	6120
2500.297	5947
2502.249	6030
2504.202	6054
2506.153	5999
2508.105	6072
2510.057	5982
2512.008	6056
2513.957	6137
2515.906	5905
2517.855	6022
2519.805	6031
2521.754	6105
2523.7	6083
2525.647	6013
2527.594	5966
2529.54	5990
2531.486	6014
2533.431	6038
2535.376	6066
2537.32	5976
2539.263	5998
2541.207	6101
2543.151	5940
2545.093	5958
2547.034	5956
2548.975	5962
2550.917	5986
2552.856	6099
2554.796	5986
2556.735	5951
2558.673	6054
2560.611	5963
2562.55	6043
2564.487	6115
2566.424	6001
2568.36	5915
2570.296	6006
2572.232	6052
2574.167	6039
2576.101	6034
2578.035	5939
2579.969	5954
2581.902	6116
2583.834	6051
2585.766	6076
2587.698	5958
2589.628	6029
2591.557	5995
2593.489	6044
2595.419	5988
2597.348	6014
2599.275	6079
2601.204	6006
2603.131	5925
2605.059	5977
2606.986	5987
2608.911	5952
2610.837	6016
2612.76	5913
2614.687	5981
2616.61	6005
2618.534	5976
2620.457	6021
2622.38	6058
2624.302	5993
2626.225	6028
2628.145	5995
2630.067	5921
2631.986	5966
2633.906	6020
2635.827	6020
2637.745	5974
2639.662	6088
2641.581	5975
2643.498	6034
2645.415	6015
2647.331	6007
2649.248	5961
2651.163	5879
2653.077	6026
2654.993	6007
2656.906	5969
2658.821	6050
2660.733	6016
2662.646	5904
2664.557	5932
2666.47	5986
2668.381	5911
2670.291	5959
2672.201	5947
2674.11	6104
2676.021	5902
2677.929	6087
2679.837	5972
2681.745	5929
2683.652	5881
2685.56	5996
2687.466	5954
2689.371	5991
2691.276	5967
2693.181	5850
2695.085	5923
2696.991	5875
2698.893	5972
2700.796	5951
2702.698	5895
2704.601	5930
2706.502	5858
2708.404	5920
2710.304	5911
2712.203	5878
2714.103	5864
2716.003	5979
2717.902	6011
2719.8	5779
2721.697	5809
2723.594	5881
2725.49	5887
2727.389	5823
2729.283	5792
2731.179	5825
2733.073	5802
2734.968	5839
2736.863	5711
2738.757	5851
2740.649	5859
2742.541	5852
2744.433	5947
2746.324	5825
2748.216	5776
2750.107	5739
2751.997	5803
2753.886	5712
2755.776	5741
2757.666	5950
2759.553	5786
2761.44	5778
2763.327	5791
2765.215	5778
2767.102	5673
2768.988	5732
2770.873	5838
2772.757	5734
2774.641	5778
2776.525	5930
2778.41	5761
2780.292	5760
2782.175	5705
2784.057	5826
2785.938	5809
2787.821	5741
2789.701	5678
2791.581	5731
2793.461	5742
2795.34	5698
2797.219	5748
2799.099	5663
2800.975	5716
2802.853	5608
2804.73	5670
2806.606	5656
2808.484	5692
2810.358	5728
2812.233	5785
2814.108	5547
2815.981	5818
2817.857	5692
2819.73	5758
2821.602	5747
2823.474	5757
2825.346	5777
2827.217	5571
2829.089	5776
2830.959	5640
2832.829	5678
2834.698	5697
2836.567	5733
2838.436	5730
2840.305	5756
2842.172	5726
2844.04	5694
2845.905	5776
2847.772	5727
2849.639	5839
2851.503	5707
2853.369	5776
2855.232	5800
2857.096	5829
2858.961	5756
2860.824	5902
2862.686	5824
2864.547	5788
2866.41	5822
2868.272	5798
2870.132	5988
2871.992	5899
2873.851	5986
2875.711	5981
2877.57	6031
2879.429	6047
2881.287	6043
2883.144	6117
2885.001	6108
2886.857	6147
2888.714	5996
2890.57	6200
2892.425	5972
2894.279	5987
2896.133	6075
2897.987	6054
2899.842	6122
2901.694	6010
2903.547	6089
2905.397	6054
2907.249	6089
2909.101	6087
2910.952	6137
2912.802	6108
2914.652	6021
2916.5	6170
2918.35	6229
2920.198	6250
2922.045	6318
2923.893	6365
2925.74	6464
2927.585	6269
2929.433	6414
2931.279	6432
2933.123	6374
2934.968	6488
2936.811	6547
2938.656	6720
2940.5	6698
2942.342	6716
2944.185	6569
2946.026	6780
2947.87	6876
2949.71	6618
2951.549	6559
2953.39	6664
2955.229	6464
2957.069	6402
2958.908	6506
2960.746	6474
2962.584	6418
2964.421	6360
2966.257	6277
2968.094	6248
2969.931	6332
2971.766	6237
2973.601	6144
2975.435	6141
2977.27	6064
2979.105	6083
2980.938	6103
2982.77	6015
2984.602	6028
2986.434	6025
2988.267	6099
2990.097	5997
2991.927	5953
2993.757	5892
2995.587	5944
2997.417	5885
2999.246	5915
3001.074	5706
3002.902	5751
3004.729	5682
3006.556	5634
3008.384	5559
3010.21	5622
3012.036	5579
3013.861	5570
3015.684	5531
3017.51	5461
3019.334	5520
3021.157	5510
3022.981	5508
3024.802	5525
3026.624	5372
3028.448	5374
3030.267	5447
3032.088	5455
3033.909	5449
3035.728	5374
3037.549	5370
3039.368	5321
3041.186	5269
3043.004	5371
3044.821	5411
3046.64	5257
3048.455	5394
3050.272	5246
3052.087	5331
3053.903	5315
3055.717	5278
3057.534	5285
3059.347	5292
3061.16	5323
3062.974	5321
3064.785	5350
3066.598	5218
3068.411	5395
3070.222	5346
3072.032	5323
3073.844	5322
3075.653	5220
3077.463	5343
3079.272	5201
3081.08	5116
3082.889	5213
3084.697	5207
3086.505	5256
3088.312	5186
3090.118	5258
3091.924	5134
3093.729	5162
3095.535	5214
3097.34	5187
3099.144	5186
3100.947	5247
3102.75	5207
3104.553	5145
3106.357	5116
3108.159	5040
3109.961	5084
3111.762	5231
3113.562	5198
3115.365	5186
3117.164	5107
3118.964	5224
3120.761	5154
3122.56	5081
3124.36	5024
3126.158	5109
3127.954	5028
3129.75	4963
3131.547	5055
3133.343	5094
3135.139	5074
3136.934	5101
3138.729	5009
3140.522	4977
3142.317	5081
3144.11	5010
3145.904	5073
3147.695	5117
3149.488	5027
3151.28	4993
3153.07	5014
3154.863	5013
3156.652	5048
3158.441	5044
3160.231	4976
3162.019	4987
3163.81	5034
3165.597	4969
3167.384	5036
3169.172	4888
3170.958	5053
3172.745	4981
3174.532	4947
3176.317	5058
3178.101	4961
3179.885	4980
3181.67	4907
3183.455	4934
3185.238	4932
3187.02	4901
3188.802	4959
3190.585	4946
3192.368	4992
3194.149	4909
3195.929	4990
3197.709	4915
3199.489	4892
3201.268	4995
3203.048	4926
3204.826	4870
3206.604	4951
3208.382	4955
3210.159	4857
3211.937	4884
3213.713	4924
3215.489	4893
3217.263	4870
3219.038	4823
3220.815	4896
3222.589	4956
3224.363	4861
3226.136	4969
3227.908	4905
3229.681	4902
3231.454	4830
3233.226	4900
3234.996	4891
3236.767	5008
3238.538	4846
3240.308	4877
3242.078	4940
3243.847	4918
3245.615	4926
3247.384	4769
3249.15	4879
3250.92	4927
3252.686	4850
3254.453	4895
3256.218	4887
3257.984	4808
3259.75	4910
3261.515	4804
3263.279	4894
3265.044	4738
3266.806	4894
3268.57	4901
3270.334	4889
3272.095	4843
3273.856	4768
3275.619	4903
3277.379	4830
3279.14	4917
3280.9	4838
3282.661	4767
3284.419	4939
3286.178	4811
3287.937	4748
3289.695	4805
3291.453	4943
3293.21	4874
3294.967	4913
3296.723	4864
3298.48	4827
3300.235	4890
3301.99	4854
3303.744	4837
3305.498	4916
3307.253	4776
3309.006	4846
3310.759	4880
3312.511	4680
3314.263	4855
3316.017	4923
3317.768	4865
3319.519	4827
3321.268	4841
3323.018	4822
3324.767	4837
3326.518	4782
3328.267	4870
3330.014	4882
3331.762	4804
3333.509	4825
3335.258	4827
3337.003	4761
3338.75	4855
3340.496	4769
3342.24	4761
3343.987	4828
3345.732	4774
3347.475	4758
3349.219	4872
3350.961	4789
3352.705	4718
3354.448	4821
3356.19	4772
3357.931	4837
3359.672	4810
3361.412	4809
3363.155	4697
3364.894	4783
3366.633	4639
3368.372	4739
3370.11	4632
3371.849	4761
3373.588	4740
3375.325	4713
3377.061	4663
3378.799	4661
3380.534	4727
3382.271	4643
3384.006	4703
3385.741	4636
3387.475	4608
3389.209	4734
3390.944	4595
3392.677	4758
3394.409	4620
3396.143	4638
3397.874	4671
3399.606	4554
3401.338	4706
3403.069	4686
3404.799	4640
3406.528	4659
3408.258	4560
3409.988	4614
3411.717	4666
3413.445	4570
3415.173	4696
3416.899	4572
3418.626	4557
3420.354	4612
3422.08	4628
3423.806	4633
3425.531	4590
3427.255	4645
3428.981	4593
3430.705	4588
3432.429	4584
3434.151	4571
3435.875	4558
3437.599	4470
3439.321	4563
3441.042	4606
3442.763	4537
3444.483	4485
3446.204	4558
3447.926	4556
3449.645	4586
3451.364	4602
3453.082	4509
3454.801	4548
3456.52	4494
3458.238	4476
3459.954	4454
3461.671	4464
3463.387	4467
3465.104	4501
3466.82	4488
3468.534	4402
3470.25	4518
3471.963	4480
3473.676	4357
3475.392	4415
3477.104	4396
3478.817	4437
3480.528	4333
3482.241	4425
3483.954	4341
3485.664	4371
3487.374	4349
3489.084	4351
3490.795	4445
3492.504	4391
3494.214	4328
3495.922	4402
3497.63	4484
3499.338	4383
3501.045	4266
3502.753	4285
3504.459	4301
3506.166	4289
3507.871	4470
3509.576	4359
3511.283	4340
3512.987	4340
3514.691	4278
3516.395	4271
3518.098	4258
3519.8	4373
3521.504	4223
3523.206	4290
3524.908	4319
3526.609	4208
3528.309	4262
3530.011	4338
3531.711	4290
3533.411	4211
3535.109	4288
3536.808	4282
3538.507	4280
3540.206	4277
3541.904	4225
3543.601	4153
3545.297	4256
3546.994	4247
3548.69	4139
3550.387	4220
3552.081	4239
3553.776	4176
3555.47	4270
3557.166	4195
3558.859	4123
3560.553	4180
3562.245	4150
3563.938	4137
3565.629	4114
3567.322	4171
3569.014	4171
3570.704	4116
3572.394	4107
3574.084	4166
3575.775	4214
3577.464	4151
3579.152	4078
3580.842	4092
3582.529	4119
3584.216	4096
3585.905	4175
3587.591	4058
3589.279	4137
3590.964	4033
3592.649	4087
3594.336	4107
3596.021	4100
3597.705	4032
3599.388	4129
3601.072	4065
3602.757	4030
3604.439	4020
3606.122	4043
3607.803	4076
3609.485	4027
3611.167	3964
3612.849	4063
3614.529	3979
3616.208	4114
3617.888	4092
3619.567	3974
3621.247	3975
3622.926	4013
3624.603	3959
3626.281	3944
3627.958	3920
3629.635	4017
3631.312	3930
3632.989	3925
3634.665	3878
3636.339	3937
3638.014	3948
3639.691	3870
3641.364	3887
3643.038	3813
3644.71	3888
3646.384	3901
3648.058	3876
3649.729	3920
3651.402	3869
3653.073	3872
3654.744	3976
3656.414	3842
3658.085	3894
3659.755	3926
3661.424	3898
3663.094	3873
3664.762	3950
3666.431	3855
3668.099	3923
3669.766	3784
3671.433	3846
3673.099	3806
3674.768	3775
3676.433	3841
3678.098	3887
3679.763	3831
3681.428	3851
3683.093	3832
3684.757	3849
3686.421	3761
3688.083	3776
3689.746	3748
3691.408	3746
3693.071	3776
3694.733	3633
3696.394	3844
3698.054	3750
3699.715	3831
3701.375	3844
3703.036	3720
3704.695	3757
3706.354	3789
3708.012	3761
3709.67	3788
3711.329	3772
3712.987	3787
3714.644	3796
3716.299	3752
3717.955	3790
3719.613	3821
3721.268	3794
3722.923	3752
3724.577	3787
3726.231	3777
3727.885	3639
3729.539	3816
3731.192	3786
3732.845	3721
3734.497	3804
3736.149	3617
3737.802	3698
3739.453	3712
3741.104	3672
3742.753	3748
3744.404	3756
3746.052	3788
3747.704	3688
3749.352	3663
3751	3787
3752.648	3761
3754.296	3658
3755.944	3607
3757.59	3593
3759.238	3677
3760.883	3636
3762.528	3720
3764.176	3748
3765.82	3669
3767.464	3655
3769.109	3659
3770.753	3613
3772.396	3631
3774.04	3690
3775.683	3636
3777.325	3587
3778.967	3638
3780.608	3654
3782.25	3597
3783.89	3586
3785.531	3627
3787.17	3626
3788.81	3649
3790.45	3632
3792.09	3608
3793.729	3565
3795.366	3615
3797.003	3482
3798.64	3585
3800.278	3563
3801.915	3628
3803.551	3534
3805.187	3559
3806.822	3574
3808.458	3579
3810.093	3509
3811.726	3555
3813.36	3539
3814.994	3565
3816.627	3566
3818.262	3498
3819.893	3520
3821.525	3458
3823.157	3539
3824.787	3493
3826.42	3495
3828.051	3476
3829.68	3489
3831.31	3496
3832.938	3472
3834.569	3570
3836.198	3515
3837.825	3482
3839.454	3519
3841.08	3381
3842.708	3462
3844.335	3527
3845.962	3437
3847.587	3506
3849.212	3427
3850.838	3471
3852.463	3513
3854.089	3430
3855.712	3507
3857.335	3461
3858.959	3494
3860.582	3449
3862.205	3471
3863.827	3448
3865.449	3429
3867.07	3438
3868.691	3426
3870.312	3452
3871.933	3474
3873.553	3402
3875.173	3442
3876.792	3406
3878.411	3323
3880.03	3414
3881.647	3430
3883.265	3365
3884.882	3362
3886.499	3406
3888.116	3414
3889.732	3456
3891.348	3408
3892.964	3406
3894.579	3442
3896.195	3388
3897.809	3356
3899.423	3363
3901.036	3383
3902.648	3455
3904.261	3412
3905.875	3387
3907.487	3435
3909.099	3380
3910.709	3399
3912.321	3333
3913.933	3408
3915.542	3414
3917.152	3303
3918.762	3337
3920.37	3371
3921.98	3344
3923.589	3303
3925.196	3352
3926.804	3357
3928.41	3380
3930.018	3302
3931.626	3306
3933.231	3333
3934.838	3312
3936.442	3378
3938.046	3262
3939.653	3299
3941.257	3287
3942.861	3369
3944.464	3295
3946.068	3328
3947.67	3212
3949.273	3268
3950.876	3339
3952.477	3275
3954.078	3295
3955.678	3332
3957.281	3323
3958.881	3340
3960.48	3339
3962.079	3268
3963.678	3241
3965.279	3271
3966.877	3283
3968.475	3224
3970.072	3211
3971.669	3214
3973.266	3268
3974.864	3283
3976.459	3162
3978.055	3310
3979.65	3153
3981.245	3250
3982.841	3237
3984.436	3237
3986.03	3199
3987.623	3141
3989.216	3186
3990.809	3280
3992.403	3211
3993.995	3205
3995.586	3144
3997.177	3262
3998.768	3186
4000.361	3221
4001.951	3209
4003.54	3125
4005.13	3155
4006.719	3165
4008.31	3166
4009.897	3171
4011.485	3121
4013.073	3174
4014.66	3196
4016.247	3135
4017.834	3082
4019.421	3167
4021.006	3091
4022.592	3092
4024.178	3118
4025.763	3104
4027.348	3035
4028.932	3162
4030.515	3098
4032.099	3028
4033.682	3091
4035.266	3181
4036.847	3109
4038.429	3097
4040.011	3122
4041.592	3072
4043.173	3074
4044.755	3103
4046.334	3043
4047.913	3098
4049.494	3102
4051.074	3044
4052.652	3027
4054.23	3132
4055.807	3122
4057.385	3072
4058.963	3121
4060.541	3001
4062.117	3069
4063.693	3080
4065.269	3064
4066.844	2995
4068.42	2991
4069.995	3036
4071.569	3042
4073.143	2995
4074.716	3001
4076.291	3020
4077.864	2997
4079.436	2999
4081.009	3012
4082.58	3035
4084.152	2989
4085.723	3014
4087.294	3021
4088.865	2964
4090.435	3037
4092.005	2984
4093.574	3004
4095.143	2998
4096.712	2988
4098.279	2959
4099.848	2965
4101.416	2925
4102.984	2968
4104.55	2967
4106.117	3002
4107.682	2942
4109.248	2968
4110.815	2896
4112.379	2945
4113.945	2874
4115.508	2867
4117.073	2895
4118.637	2914
4120.201	2873
4121.763	2916
4123.325	2909
4124.888	2881
4126.449	2921
4128.013	2854
4129.573	2958
4131.133	2882
4132.694	2863
4134.254	2935
4135.814	2919
4137.374	2908
4138.933	2907
4140.491	2911
4142.049	2898
4143.607	2865
4145.167	2889
4146.724	2913
4148.28	2875
4149.836	2861
4151.392	2913
4152.949	2911
4154.504	2849
4156.059	2820
4157.614	2868
4159.168	2793
4160.723	2891
4162.277	2787
4163.83	2830
4165.383	2847
4166.936	2798
4168.488	2814
4170.041	2882
4171.593	2881
4173.144	2780
4174.695	2827
4176.246	2813
4177.796	2756
4179.346	2764
4180.896	2824
4182.445	2778
4183.994	2850
4185.542	2748
4187.091	2813
4188.639	2740
4190.185	2754
4191.732	2777
4193.279	2829
4194.826	2775
4196.373	2780
4197.918	2745
4199.463	2691
4201.008	2877
4202.553	2761
4204.098	2730
4205.641	2762
4207.185	2713
4208.728	2726
4210.271	2761
4211.814	2812
4213.357	2716
4214.898	2709
4216.439	2715
4217.98	2741
4219.522	2749
4221.062	2691
4222.603	2756
4224.142	2801
4225.681	2765
4227.222	2759
4228.76	2715
4230.298	2680
4231.835	2746
4233.373	2684
4234.911	2732
4236.449	2690
4237.985	2681
4239.521	2763
4241.057	2669
4242.592	2637
4244.128	2698
4245.663	2694
4247.197	2717
4248.731	2692
4250.265	2726
4251.798	2675
4253.333	2693
4254.865	2700
4256.397	2665
4257.93	2714
4259.461	2699
4260.994	2620
4262.525	2676
4264.056	2617
4265.586	2669
4267.115	2674
4268.646	2599
4270.176	2707
4271.705	2712
4273.232	2663
4274.761	2709
4276.289	2600
4277.818	2619
4279.345	2650
4280.872	2660
4282.399	2662
4283.924	2653
4285.452	2653
4286.976	2617
4288.502	2668
4290.026	2626
4291.551	2651
4293.074	2560
4294.6	2642
4296.123	2587
4297.646	2663
4299.168	2604
4300.691	2572
4302.214	2570
4303.736	2616
4305.257	2600
4306.778	2555
4308.299	2547
4309.82	2548
4311.34	2551
4312.86	2503
4314.379	2555
