400.0745	6028
402.597	6149
405.1208	6047
407.6419	6084
410.1623	6059
412.6819	6110
415.201	6159
417.7172	6189
420.2369	6245
422.7538	6394
425.2701	6455
427.7856	6431
430.3005	6406
432.8147	6630
435.3282	6602
437.841	6531
440.3511	6514
442.8625	6582
445.3753	6548
447.8854	6366
450.3927	6533
452.9014	6535
455.4073	6458
457.9146	6542
460.4233	6501
462.9272	6517
465.4325	6567
467.935	6461
470.4389	6597
472.9421	6453
475.4446	6649
477.9444	6496
480.4456	6551
482.944	6541
485.4417	6619
487.9429	6633
490.4393	6527
492.935	6702
495.4321	6579
497.9264	6667
500.4221	6667
502.9171	6604
505.4094	6742
507.9011	6658
510.392	6834
512.8864	6699
515.3759	6672
517.8649	6688
520.3531	6809
522.8406	6842
525.3275	6698
527.8178	6740
530.3033	6738
532.7881	6930
535.2723	6719
537.7558	6833
540.2407	6677
542.7228	6824
545.2043	6694
547.6851	6793
550.1652	6769
552.6467	6890
555.1255	6915
557.6016	6884
560.079	6919
562.5557	6853
565.0318	6874
567.5092	6955
569.984	6940
572.456	7014
574.9294	7018
577.4022	7039
579.8762	7144
582.3456	7061
584.8163	7233
587.2863	7102
589.7557	7062
592.2224	7192
594.6924	7128
597.1578	7130
599.6245	7067
602.0905	7023
604.5538	7045
607.0206	7209
609.4825	7046
611.9459	7101
614.4066	7004
616.8686	7057
619.33	7063
621.7906	7049
624.2487	7018
626.708	7002
629.1647	7057
631.6207	6971
634.0801	7016
636.5348	7039
638.9888	6989
641.4442	7028
643.8969	7038
646.3509	6950
648.8022	7105
651.255	7123
653.705	7124
656.1544	7233
658.6031	7038
661.0532	7122
663.5026	7196
665.9493	7109
668.3954	7178
670.8409	7181
673.2877	7058
675.7318	7259
678.1752	7214
680.618	7217
683.0601	7349
685.5035	7420
687.9444	7134
690.3845	7279
692.824	7432
695.2628	7194
697.701	7374
700.1406	7276
702.5774	7380
705.0116	7509
707.4472	7339
709.8821	7328
712.3183	7507
714.7519	7515
717.1829	7514
719.6151	7455
722.0468	7483
724.4777	7422
726.908	7591
729.3377	7526
731.7667	7531
734.1931	7633
736.6208	7497
739.0498	7639
741.4742	7624
743.9	7616
746.3231	7636
748.7476	7725
751.1713	7716
753.5945	7790
756.015	7662
758.4368	7825
760.856	7938
763.2766	7808
765.6965	7737
768.1157	7832
770.5323	7798
772.9483	7996
775.3656	7910
777.7822	7816
780.1963	7867
782.6116	7869
785.0244	7974
787.4365	7852
789.8499	7817
792.2626	7749
794.6728	7845
797.0823	7828
799.4911	7988
801.8994	7958
804.3109	7806
806.7178	7956
809.124	7908
811.5297	8039
813.9347	7889
816.341	8074
818.7447	7950
821.1478	8031
823.5502	7985
825.952	7976
828.3531	7887
830.7556	7912
833.1554	8097
835.5546	7988
837.9532	8061
840.3511	8021
842.7504	8074
845.1451	8232
847.5411	8078
849.9365	8182
852.3312	8154
854.7272	8228
857.1187	8149
859.5115	8328
861.9037	7967
864.2952	8123
866.6842	8184
869.0764	8225
871.4661	8196
873.8531	8153
876.2415	8110
878.6272	8152
881.0162	8055
883.4026	8137
885.7866	8103
888.1717	8112
890.5543	8152
892.9382	8082
895.3215	8144
897.7041	8107
900.0842	8090
902.4655	8206
904.8443	8174
907.2244	8149
909.6039	8334
911.9808	8237
914.357	8231
916.7346	8412
919.1115	8502
921.4859	8558
923.8616	8530
926.2347	8593
928.6071	8551
930.979	8460
933.3541	8574
935.7247	8586
938.0946	8672
940.4639	8534
942.8326	8687
945.2026	8892
947.5701	9026
949.9369	9113
952.305	9313
954.6705	9636
957.0355	9867
959.4017	10235
961.7654	10447
964.1284	10410
966.4908	10069
968.8527	9823
971.2138	9256
973.5743	8963
975.9343	8737
978.2936	8686
980.6522	8483
983.0122	8472
985.3696	8455
987.7245	8438
990.0807	8251
992.4362	8330
994.7911	8324
997.1474	8465
999.4991	8496
1001.852	8547
1004.205	8562
1006.555	8454
1008.908	8563
1011.258	8576
1013.606	8392
1015.956	8346
1018.302	8396
1020.652	8429
1022.998	8447
1025.345	8610
1027.691	8401
1030.035	8526
1032.378	8627
1034.724	8644
1037.066	8549
1039.409	8533
1041.75	8666
1044.092	8541
1046.433	8480
1048.771	8634
1051.112	8629
1053.449	8405
1055.786	8598
1058.124	8598
1060.462	8491
1062.797	8624
1065.131	8749
1067.467	8820
1069.8	8749
1072.135	8699
1074.467	8716
1076.798	8797
1079.129	8795
1081.459	8705
1083.792	8645
1086.121	8651
1088.449	8654
1090.777	8524
1093.104	8601
1095.431	8679
1097.759	8584
1100.084	8635
1102.408	8571
1104.732	8406
1107.056	8467
1109.379	8676
1111.701	8592
1114.022	8618
1116.343	8646
1118.664	8704
1120.983	8624
1123.303	8585
1125.621	8579
1127.939	8598
1130.256	8611
1132.573	8611
1134.889	8629
1137.205	8519
1139.52	8448
1141.832	8635
1144.146	8607
1146.461	8639
1148.771	8457
1151.083	8670
1153.392	8585
1155.703	8614
1158.011	8611
1160.323	8643
1162.629	8659
1164.938	8598
1167.243	8588
1169.55	8561
1171.857	8642
1174.163	8629
1176.466	8566
1178.769	8611
1181.073	8752
1183.374	8755
1185.677	8566
1187.979	8749
1190.279	8694
1192.578	8549
1194.878	8525
1197.178	8628
1199.476	8595
1201.772	8682
1204.068	8561
1206.366	8754
1208.663	8776
1210.957	8579
1213.251	8646
1215.544	8649
1217.836	8573
1220.128	8696
1222.421	8607
1224.712	8702
1227.002	8709
1229.292	8684
1231.581	8887
1233.871	8860
1236.159	8873
1238.446	8919
1240.732	8977
1243.018	8960
1245.304	9097
1247.59	9169
1249.874	9042
1252.156	8933
1254.439	9118
1256.721	8997
1259.005	8941
1261.286	9030
1263.565	9131
1265.845	9082
1268.125	8933
1270.403	9182
1272.682	8947
1274.959	8839
1277.234	9049
1279.511	8942
1281.787	8962
1284.062	8947
1286.337	8864
1288.609	8944
1290.882	8798
1293.153	8907
1295.428	8876
1297.698	8820
1299.969	8685
1302.237	8842
1304.507	8719
1306.777	8934
1309.044	8895
1311.312	8782
1313.578	8686
1315.844	8672
1318.109	8816
1320.375	8847
1322.638	8818
1324.903	8871
1327.165	8686
1329.427	8792
1331.69	8850
1333.952	8798
1336.212	8764
1338.471	8905
1340.73	8846
1342.988	8887
1345.248	8969
1347.505	8771
1349.763	9006
1352.019	8733
1354.274	8843
1356.53	8923
1358.784	8869
1361.038	8753
1363.291	8816
1365.543	8870
1367.797	8723
1370.048	8891
1372.296	8916
1374.546	8934
1376.796	8949
1379.045	9006
1381.295	8872
1383.542	8803
1385.787	8845
1388.034	8960
1390.28	8917
1392.527	9000
1394.772	8991
1397.014	9005
1399.258	9047
1401.501	9027
1403.741	8983
1405.985	9051
1408.226	9011
1410.465	9005
1412.705	8961
1414.943	9127
1417.184	9168
1419.42	9023
1421.658	9012
1423.894	9183
1426.13	9204
1428.366	9269
1430.602	9202
1432.835	9182
1435.069	9126
1437.301	9270
1439.535	9207
1441.767	9356
1443.997	9158
1446.229	9262
1448.458	9166
1450.687	9289
1452.916	9492
1455.146	9403
1457.372	9465
1459.599	9353
1461.824	9307
1464.051	9268
1466.277	9144
1468.501	9417
1470.725	9132
1472.948	9202
1475.17	9071
1477.393	9101
1479.614	9071
1481.837	9108
1484.057	8966
1486.276	8993
1488.497	8939
1490.715	8993
1492.932	8884
1495.148	8841
1497.364	8867
1499.58	8894
1501.798	8728
1504.012	8843
1506.227	8896
1508.44	8807
1510.653	8718
1512.866	8746
1515.078	8852
1517.289	8801
1519.5	8760
1521.711	8841
1523.92	8772
1526.13	8757
1528.338	8858
1530.544	8771
1532.752	8732
1534.959	8779
1537.165	8811
1539.371	8784
1541.574	8870
1543.779	8844
1545.983	8799
1548.187	8891
1550.39	8973
1552.59	8948
1554.792	8894
1556.991	8988
1559.19	8898
1561.392	9061
1563.59	8948
1565.789	8994
1567.986	9037
1570.182	9023
1572.381	8965
1574.576	9048
1576.771	8972
1578.966	8941
1581.16	9039
1583.354	9052
1585.546	9169
1587.74	9092
1589.931	8939
1592.121	9228
1594.311	9040
1596.502	9121
1598.693	9107
1600.881	8928
1603.069	9140
1605.256	9219
1607.445	9128
1609.631	9117
1611.816	9033
1614.001	9124
1616.186	9057
1618.37	9095
1620.555	9115
1622.737	9184
1624.919	9181
1627.101	9102
1629.282	9064
1631.463	9319
1633.643	9315
1635.822	9156
1638.001	9281
1640.179	9243
1642.359	9211
1644.534	9370
1646.711	9340
1648.887	9228
1651.062	9320
1653.235	9148
1655.412	9202
1657.586	9271
1659.757	9350
1661.93	9311
1664.1	9360
1666.274	9285
1668.445	9421
1670.614	9489
1672.784	9396
1674.951	9329
1677.12	9312
1679.289	9454
1681.457	9296
1683.622	9359
1685.789	9304
1687.953	9341
1690.121	9224
1692.284	9186
1694.447	9260
1696.611	9331
1698.772	9221
1700.935	9180
1703.098	9121
1705.258	9131
1707.417	9114
1709.576	9019
1711.736	8911
1713.896	9006
1716.053	8960
1718.21	9001
1720.366	9038
1722.522	8867
1724.68	9036
1726.835	8974
1728.989	9074
1731.142	8982
1733.295	9114
1735.449	9058
1737.601	8824
1739.753	8950
1741.903	9095
1744.054	9006
1746.203	8960
1748.354	8947
1750.503	9145
1752.651	8873
1754.798	9099
1756.944	9049
1759.092	9048
1761.238	9160
1763.383	9058
1765.528	9047
1767.672	8938
1769.814	8912
1771.959	8926
1774.102	9054
1776.242	8997
1778.384	8989
1780.525	9115
1782.665	9084
1784.805	9047
1786.945	9141
1789.082	9093
1791.22	9068
1793.36	9091
1795.495	9177
1797.632	9215
1799.766	9028
1801.902	9108
1804.035	9006
1806.172	8994
1808.304	9092
1810.436	9154
1812.569	9148
1814.699	9061
1816.833	8974
1818.963	9119
1821.092	9035
1823.222	8952
1825.35	8973
1827.478	9067
1829.608	9016
1831.734	9057
1833.86	9152
1835.986	8880
1838.11	8974
1840.238	9087
1842.362	9073
1844.485	9024
1846.608	8975
1848.73	8981
1850.853	9094
1852.974	8996
1855.097	8920
1857.217	9029
1859.336	8885
1861.455	8883
1863.576	8862
1865.693	8923
1867.811	9009
1869.926	8979
1872.042	8891
1874.16	8907
1876.275	9006
1878.39	8906
1880.504	9029
1882.618	9056
1884.731	8932
1886.843	9060
1888.956	9045
1891.067	8986
1893.178	8916
1895.287	9015
1897.399	9115
1899.508	9067
1901.617	8982
1903.724	8937
1905.832	8935
1907.941	8987
1910.046	9000
1912.152	9021
1914.256	9061
1916.361	9000
1918.464	9003
1920.57	9163
1922.672	9005
1924.775	9005
1926.876	9178
1928.978	9007
1931.08	9088
1933.181	9164
1935.28	9067
1937.38	9064
1939.478	8989
1941.577	9026
1943.675	9114
1945.771	9062
1947.867	9087
1949.964	8906
1952.058	9004
1954.154	8975
1956.248	9149
1958.343	9056
1960.435	9100
1962.527	9107
1964.62	9181
1966.711	9116
1968.802	9067
1970.892	9042
1972.983	9075
1975.072	8963
1977.162	8940
1979.25	9112
1981.337	9000
1983.424	9060
1985.51	8883
1987.598	9046
1989.683	8954
1991.768	9016
1993.852	8939
1995.934	9020
1998.019	8900
2000.102	8939
2002.184	8938
2004.266	8986
2006.347	8934
2008.427	8959
2010.508	8841
2012.587	9017
2014.666	8971
2016.745	8976
2018.821	8838
2020.9	9015
2022.977	8942
2025.052	8914
2027.128	8913
2029.204	9014
2031.277	9014
2033.353	9023
2035.425	8830
2037.499	8820
2039.57	9078
2041.642	8950
2043.714	8881
2045.786	8956
2047.855	8997
2049.925	8930
2051.993	8868
2054.064	8840
2056.132	8844
2058.2	8949
2060.266	8941
2062.332	9011
2064.398	8978
2066.465	8920
2068.529	9087
2070.592	9173
2072.657	8999
2074.719	8871
2076.783	8949
2078.845	9020
2080.907	8952
2082.968	9084
2085.028	9065
2087.087	9070
2089.148	9065
2091.207	8834
2093.264	8957
2095.322	8889
2097.379	9147
2099.439	9047
2101.495	8900
2103.55	9012
2105.605	8875
2107.658	8958
2109.713	9045
2111.767	9074
2113.82	8963
2115.872	8939
2117.924	9041
2119.975	8917
2122.028	9125
2124.078	9026
2126.126	8964
2128.176	8887
2130.225	8945
2132.275	8886
2134.321	8871
2136.368	9004
2138.415	8987
2140.461	9130
2142.505	8890
2144.552	8890
2146.597	8925
2148.64	9013
2150.684	8795
2152.725	9046
2154.77	8978
2156.811	8823
2158.852	8920
2160.894	9089
2162.933	8965
2164.973	8775
2167.013	9022
2169.051	9010
2171.089	8908
2173.126	8839
2175.164	8887
2177.201	8849
2179.236	8895
2181.273	9022
2183.307	8876
2185.341	9016
2187.377	8730
2189.41	8893
2191.442	8775
2193.473	8838
2195.506	8901
2197.539	8791
2199.569	8892
2201.598	8748
2203.628	8732
2205.656	8696
2207.686	8860
2209.716	8768
2211.743	8700
2213.769	8802
2215.796	8883
2217.821	8807
2219.848	8924
2221.873	8792
2223.897	8855
2225.921	8687
2227.944	8758
2229.967	8659
2231.991	8751
2234.011	8858
2236.032	8704
2238.053	8730
2240.073	8702
2242.094	8784
2244.114	8774
2246.131	8804
2248.149	8652
2250.167	8660
2252.186	8712
2254.201	8753
2256.218	8865
2258.233	8699
2260.247	8791
2262.262	8713
2264.278	8785
2266.29	8832
2268.303	8803
2270.315	8712
2272.327	8895
2274.341	8834
2276.35	8847
2278.361	8679
2280.37	8710
2282.38	8711
2284.388	8887
2286.397	8608
2288.405	8804
2290.412	8729
2292.419	8774
2294.425	8725
2296.431	8657
2298.437	8837
2300.441	8643
2302.445	8788
2304.449	8707
2306.453	8730
2308.455	8685
2310.457	8731
2312.459	8799
2314.46	8731
2316.46	8661
2318.461	8588
2320.46	8667
2322.458	8626
2324.458	8696
2326.456	8552
2328.455	8630
2330.451	8678
2332.447	8636
2334.443	8710
2336.438	8661
2338.433	8655
2340.429	8608
2342.422	8667
2344.416	8619
2346.408	8657
2348.399	8563
2350.393	8613
2352.384	8675
2354.375	8621
2356.365	8577
2358.355	8529
2360.344	8479
2362.333	8522
2364.322	8540
2366.309	8620
2368.295	8478
2370.282	8444
2372.27	8504
2374.256	8490
2376.24	8654
2378.225	8487
2380.208	8544
2382.194	8507
2384.177	8453
2386.159	8451
2388.142	8484
2390.122	8449
2392.105	8547
2394.085	8321
2396.066	8283
2398.044	8455
2400.024	8454
2402.002	8439
2403.982	8316
2405.959	8369
2407.935	8360
2409.913	8375
2411.888	8376
2413.865	8372
2415.84	8400
2417.814	8468
2419.788	8462
2421.762	8375
2423.735	8381
2425.708	8356
2427.68	8396
2429.651	8318
2431.623	8411
2433.593	8501
2435.564	8398
2437.533	8290
2439.502	8325
2441.47	8355
2443.438	8417
2445.406	8387
2447.373	8392
2449.34	8406
2451.305	8388
2453.271	8259
2455.235	8195
2457.201	8322
2459.165	8263
2461.129	8236
2463.092	8236
2465.054	8137
2467.018	8213
2468.978	8256
2470.939	8262
2472.899	8237
2474.86	8254
2476.819	8185
2478.778	8211
2480.737	8194
2482.695	8269
2484.653	8269
2486.609	8295
2488.567	8219
2490.524	8159
2492.478	8206
2494.433	8355
2496.387	8143
2498.343	8130
2500.297	8138
2502.249	8005
2504.202	8198
2506.153	8320
2508.105	8124
2510.057	8013
2512.008	8153
2513.957	8119
2515.906	8109
2517.855	8057
2519.805	8073
2521.754	8118
2523.7	8067
2525.647	8120
2527.594	8128
2529.54	8135
2531.486	8162
2533.431	8205
2535.376	8178
2537.32	8093
2539.263	8148
2541.207	8231
2543.151	8024
2545.093	7997
2547.034	8170
2548.975	7981
2550.917	8109
2552.856	8260
2554.796	8061
2556.735	8138
2558.673	8177
2560.611	8051
2562.55	7987
2564.487	7980
2566.424	8165
2568.36	8014
2570.296	7960
2572.232	7999
2574.167	8017
2576.101	7982
2578.035	8208
2579.969	8109
2581.902	8043
2583.834	8072
2585.766	8054
2587.698	7980
2589.628	8022
2591.557	7937
2593.489	8217
2595.419	7972
2597.348	8016
2599.275	8141
2601.204	8035
2603.131	7959
2605.059	8076
2606.986	7985
2608.911	7953
2610.837	8109
2612.76	7993
2614.687	8091
2616.61	8055
2618.534	8093
2620.457	8126
2622.38	8031
2624.302	8113
2626.225	8027
2628.145	8086
2630.067	8093
2631.986	8066
2633.906	7989
2635.827	8066
2637.745	8012
2639.662	8058
2641.581	7948
2643.498	8021
2645.415	8115
2647.331	8168
2649.248	8140
2651.163	8155
2653.077	8001
2654.993	7842
2656.906	8008
2658.821	7949
2660.733	8028
2662.646	8078
2664.557	7958
2666.47	8100
2668.381	8000
2670.291	8076
2672.201	7923
2674.11	8084
2676.021	8168
2677.929	7894
2679.837	7846
2681.745	7943
2683.652	7952
2685.56	7988
2687.466	7933
2689.371	7994
2691.276	7930
2693.181	7893
2695.085	7910
2696.991	7919
2698.893	7912
2700.796	7717
2702.698	7909
2704.601	7851
2706.502	7806
2708.404	7832
2710.304	7945
2712.203	7911
2714.103	7872
2716.003	7835
2717.902	7866
2719.8	7778
2721.697	7784
2723.594	7832
2725.49	7858
2727.389	7940
2729.283	7821
2731.179	7727
2733.073	7956
2734.968	7861
2736.863	7842
2738.757	7849
2740.649	7849
2742.541	7806
2744.433	7837
2746.324	7777
2748.216	7862
2750.107	7831
2751.997	7886
2753.886	7842
2755.776	7872
2757.666	7706
2759.553	7681
2761.44	7769
2763.327	7743
2765.215	7790
2767.102	7834
2768.988	7621
2770.873	7804
2772.757	7778
2774.641	7725
2776.525	7760
2778.41	7658
2780.292	7801
2782.175	7854
2784.057	7699
2785.938	7797
2787.821	7771
2789.701	7674
2791.581	7788
2793.461	7639
2795.34	7766
2797.219	7842
2799.099	7668
2800.975	7745
2802.853	7789
2804.73	7704
2806.606	7605
2808.484	7660
2810.358	7669
2812.233	7692
2814.108	7716
2815.981	7690
2817.857	7683
2819.73	7518
2821.602	7668
2823.474	7596
2825.346	7747
2827.217	7602
2829.089	7691
2830.959	7649
2832.829	7602
2834.698	7769
2836.567	7612
2838.436	7568
2840.305	7625
2842.172	7696
2844.04	7696
2845.905	7733
2847.772	7751
2849.639	7723
2851.503	7700
2853.369	7674
2855.232	7850
2857.096	7816
2858.961	7682
2860.824	7807
2862.686	7889
2864.547	7890
2866.41	8011
2868.272	7894
2870.132	8036
2871.992	8225
2873.851	8175
2875.711	8193
2877.57	8171
2879.429	8420
2881.287	8397
2883.144	8454
2885.001	8372
2886.857	8515
2888.714	8454
2890.57	8428
2892.425	8481
2894.279	8466
2896.133	8455
2897.987	8403
2899.842	8397
2901.694	8398
2903.547	8387
2905.397	8476
2907.249	8410
2909.101	8390
2910.952	8406
2912.802	8530
2914.652	8602
2916.5	8581
2918.35	8630
2920.198	8687
2922.045	8767
2923.893	8795
2925.74	8840
2927.585	9015
2929.433	9152
2931.279	9155
2933.123	9263
2934.968	9318
2936.811	9428
2938.656	9530
2940.5	9469
2942.342	9691
2944.185	9708
2946.026	9814
2947.87	9680
2949.71	9569
2951.549	9556
2953.39	9661
2955.229	9393
2957.069	9320
2958.908	9142
2960.746	9153
2962.584	9104
2964.421	8980
2966.257	8953
2968.094	8933
2969.931	8793
2971.766	8718
2973.601	8579
2975.435	8719
2977.27	8632
2979.105	8792
2980.938	8561
2982.77	8308
2984.602	8421
2986.434	8457
2988.267	8596
2990.097	8275
2991.927	8303
2993.757	8198
2995.587	8184
2997.417	8140
2999.246	8003
3001.074	7847
3002.902	7906
3004.729	7886
3006.556	7775
3008.384	7703
3010.21	7659
3012.036	7523
3013.861	7431
3015.684	7595
3017.51	7461
3019.334	7370
3021.157	7294
3022.981	7333
3024.802	7292
3026.624	7261
3028.448	7132
3030.267	7191
3032.088	7138
3033.909	7299
3035.728	7177
3037.549	7146
3039.368	7186
3041.186	7170
3043.004	7157
3044.821	7193
3046.64	7038
3048.455	7178
3050.272	7000
3052.087	7049
3053.903	7150
3055.717	7077
3057.534	7094
3059.347	7092
3061.16	7088
3062.974	7064
3064.785	7123
3066.598	7096
3068.411	7119
3070.222	7028
3072.032	7025
3073.844	7077
3075.653	7035
3077.463	6976
3079.272	6982
3081.08	6934
3082.889	6853
3084.697	6822
3086.505	6986
3088.312	6858
3090.118	6834
3091.924	6896
3093.729	6905
3095.535	6907
3097.34	6868
3099.144	6843
3100.947	6793
3102.75	6810
3104.553	6828
3106.357	6803
3108.159	6803
3109.961	6863
3111.762	6763
3113.562	6802
3115.365	6671
3117.164	6720
3118.964	6658
3120.761	6777
3122.56	6746
3124.36	6806
3126.158	6669
3127.954	6621
3129.75	6725
3131.547	6750
3133.343	6664
3135.139	6642
3136.934	6768
3138.729	6707
3140.522	6640
3142.317	6678
3144.11	6659
3145.904	6673
3147.695	6610
3149.488	6565
3151.28	6726
3153.07	6690
3154.863	6543
3156.652	6536
3158.441	6598
3160.231	6540
3162.019	6644
3163.81	6636
3165.597	6496
3167.384	6670
3169.172	6666
3170.958	6619
3172.745	6608
3174.532	6697
3176.317	6574
3178.101	6567
3179.885	6602
3181.67	6581
3183.455	6506
3185.238	6602
3187.02	6547
3188.802	6622
3190.585	6600
3192.368	6480
3194.149	6454
3195.929	6562
3197.709	6539
3199.489	6419
3201.268	6483
3203.048	6573
3204.826	6594
3206.604	6546
3208.382	6576
3210.159	6493
3211.937	6510
3213.713	6529
3215.489	6400
3217.263	6424
3219.038	6454
3220.815	6631
3222.589	6441
3224.363	6523
3226.136	6452
3227.908	6403
3229.681	6406
3231.454	6523
3233.226	6495
3234.996	6433
3236.767	6569
3238.538	6605
3240.308	6369
3242.078	6327
3243.847	6336
3245.615	6468
3247.384	6431
3249.15	6530
3250.92	6373
3252.686	6420
3254.453	6453
3256.218	6439
3257.984	6498
3259.75	6522
3261.515	6607
3263.279	6447
3265.044	6499
3266.806	6436
3268.57	6410
3270.334	6521
3272.095	6415
3273.856	6421
3275.619	6498
3277.379	6396
3279.14	6519
3280.9	6443
3282.661	6417
3284.419	6606
3286.178	6517
3287.937	6454
3289.695	6478
3291.453	6425
3293.21	6492
3294.967	6448
3296.723	6515
3298.48	6511
3300.235	6515
3301.99	6575
3303.744	6495
3305.498	6567
3307.253	6527
3309.006	6439
3310.759	6568
3312.511	6556
3314.263	6613
3316.017	6371
3317.768	6495
3319.519	6481
3321.268	6413
3323.018	6452
3324.767	6345
3326.518	6454
3328.267	6404
3330.014	6453
3331.762	6396
3333.509	6443
3335.258	6404
3337.003	6441
3338.75	6404
3340.496	6383
3342.24	6345
3343.987	6396
3345.732	6440
3347.475	6445
3349.219	6391
3350.961	6320
3352.705	6403
3354.448	6392
3356.19	6420
3357.931	6382
3359.672	6306
3361.412	6431
3363.155	6333
3364.894	6324
3366.633	6337
3368.372	6336
3370.11	6385
3371.849	6160
3373.588	6288
3375.325	6314
3377.061	6271
3378.799	6237
3380.534	6263
3382.271	6315
3384.006	6285
3385.741	6291
3387.475	6068
3389.209	6196
3390.944	6286
3392.677	6203
3394.409	6283
3396.143	6213
3397.874	6262
3399.606	6217
3401.338	6029
3403.069	6178
3404.799	6150
3406.528	6110
3408.258	6054
3409.988	6118
3411.717	6267
3413.445	6156
3415.173	6040
3416.899	6095
3418.626	6131
3420.354	6097
3422.08	6082
3423.806	6094
3425.531	6045
3427.255	6124
3428.981	6053
3430.705	6004
3432.429	6089
3434.151	6120
3435.875	6031
3437.599	6035
3439.321	6089
3441.042	6004
3442.763	6010
3444.483	5978
3446.204	6035
3447.926	6046
3449.645	5920
3451.364	6131
3453.082	5993
3454.801	5976
3456.52	5953
3458.238	5927
3459.954	5906
3461.671	5942
3463.387	5879
3465.104	5848
3466.82	5767
3468.534	5883
3470.25	5860
3471.963	5890
3473.676	5824
3475.392	5921
3477.104	5854
3478.817	5831
3480.528	5830
3482.241	5759
3483.954	5829
3485.664	5778
3487.374	5820
3489.084	5746
3490.795	5757
3492.504	5756
3494.214	5705
3495.922	5714
3497.63	5738
3499.338	5699
3501.045	5739
3502.753	5736
3504.459	5727
3506.166	5684
3507.871	5691
3509.576	5596
3511.283	5718
3512.987	5643
3514.691	5662
3516.395	5674
3518.098	5717
3519.8	5605
3521.504	5582
3523.206	5540
3524.908	5566
3526.609	5672
3528.309	5588
3530.011	5572
3531.711	5661
3533.411	5664
3535.109	5507
3536.808	5444
3538.507	5566
3540.206	5604
3541.904	5545
3543.601	5610
3545.297	5540
3546.994	5640
3548.69	5490
3550.387	5555
3552.081	5524
3553.776	5586
3555.47	5492
3557.166	5434
3558.859	5410
3560.553	5530
3562.245	5536
3563.938	5499
3565.629	5444
3567.322	5454
3569.014	5361
3570.704	5475
3572.394	5412
3574.084	5440
3575.775	5410
3577.464	5337
3579.152	5380
3580.842	5448
3582.529	5429
3584.216	5323
3585.905	5391
3587.591	5504
3589.279	5339
3590.964	5335
3592.649	5349
3594.336	5303
3596.021	5313
3597.705	5367
3599.388	5316
3601.072	5344
3602.757	5294
3604.439	5185
3606.122	5214
3607.803	5179
3609.485	5265
3611.167	5198
3612.849	5215
3614.529	5360
3616.208	5304
3617.888	5181
3619.567	5207
3621.247	5249
3622.926	5236
3624.603	5223
3626.281	5131
3627.958	5109
3629.635	5188
3631.312	5072
3632.989	5171
3634.665	5150
3636.339	5250
3638.014	5084
3639.691	5124
3641.364	5228
3643.038	5127
3644.71	5048
3646.384	5041
3648.058	5198
3649.729	5017
3651.402	5182
3653.073	5048
3654.744	5094
3656.414	5029
3658.085	5014
3659.755	5009
3661.424	5016
3663.094	4950
3664.762	5125
3666.431	5049
3668.099	4997
3669.766	5023
3671.433	4974
3673.099	5062
3674.768	4980
3676.433	5058
3678.098	5035
3679.763	4916
3681.428	4968
3683.093	4948
3684.757	4921
3686.421	4949
3688.083	5030
3689.746	4943
3691.408	4966
3693.071	4844
3694.733	4974
3696.394	4915
3698.054	4874
3699.715	4914
3701.375	4940
3703.036	4947
3704.695	5013
3706.354	4949
3708.012	4945
3709.67	4856
3711.329	4823
3712.987	4959
3714.644	4879
3716.299	4881
3717.955	4785
3719.613	4877
3721.268	4900
3722.923	4829
3724.577	4767
3726.231	4874
3727.885	4864
3729.539	4818
3731.192	4791
3732.845	4873
3734.497	4880
3736.149	4824
3737.802	4866
3739.453	4858
3741.104	4741
3742.753	4767
3744.404	4792
3746.052	4780
3747.704	4741
3749.352	4835
3751	4817
3752.648	4748
3754.296	4783
3755.944	4855
3757.59	4671
3759.238	4702
3760.883	4666
3762.528	4737
3764.176	4694
3765.82	4690
3767.464	4696
3769.109	4694
3770.753	4628
3772.396	4628
3774.04	4651
3775.683	4689
3777.325	4657
3778.967	4688
3780.608	4679
3782.25	4688
3783.89	4677
3785.531	4629
3787.17	4649
3788.81	4620
3790.45	4707
3792.09	4655
3793.729	4632
3795.366	4622
3797.003	4600
3798.64	4712
3800.278	4671
3801.915	4621
3803.551	4716
3805.187	4630
3806.822	4646
3808.458	4604
3810.093	4613
3811.726	4594
3813.36	4565
3814.994	4482
3816.627	4541
3818.262	4645
3819.893	4571
3821.525	4502
3823.157	4594
3824.787	4590
3826.42	4554
3828.051	4551
3829.68	4533
3831.31	4456
3832.938	4468
3834.569	4473
3836.198	4473
3837.825	4507
3839.454	4538
3841.08	4407
3842.708	4465
3844.335	4426
3845.962	4341
3847.587	4336
3849.212	4545
3850.838	4509
3852.463	4439
3854.089	4482
3855.712	4436
3857.335	4424
3858.959	4477
3860.582	4434
3862.205	4483
3863.827	4358
3865.449	4373
3867.07	4313
3868.691	4402
3870.312	4310
3871.933	4379
3873.553	4414
3875.173	4415
3876.792	4458
3878.411	4415
3880.03	4341
3881.647	4368
3883.265	4328
3884.882	4387
3886.499	4312
3888.116	4318
3889.732	4334
3891.348	4481
3892.964	4362
3894.579	4341
3896.195	4394
3897.809	4382
3899.423	4338
3901.036	4251
3902.648	4362
3904.261	4264
3905.875	4332
3907.487	4309
3909.099	4248
3910.709	4411
3912.321	4298
3913.933	4283
3915.542	4371
3917.152	4374
3918.762	4285
3920.37	4272
3921.98	4316
3923.589	4342
3925.196	4266
3926.804	4272
3928.41	4395
3930.018	4247
3931.626	4173
3933.231	4230
3934.838	4210
3936.442	4288
3938.046	4206
3939.653	4246
3941.257	4187
3942.861	4220
3944.464	4201
3946.068	4220
3947.67	4147
3949.273	4238
3950.876	4286
3952.477	4200
3954.078	4290
3955.678	4136
3957.281	4238
3958.881	4196
3960.48	4176
3962.079	4214
3963.678	4148
3965.279	4209
3966.877	4202
3968.475	4207
3970.072	4169
3971.669	4114
3973.266	4083
3974.864	4125
3976.459	4078
3978.055	4091
3979.65	4111
3981.245	4093
3982.841	4067
3984.436	4199
3986.03	4123
3987.623	4096
3989.216	4036
3990.809	4126
3992.403	4014
3993.995	4114
3995.586	4164
3997.177	4103
3998.768	4076
4000.361	3999
4001.951	4054
4003.54	4042
4005.13	4008
4006.719	3953
4008.31	3966
4009.897	3936
4011.485	4047
4013.073	3972
4014.66	3982
4016.247	4015
4017.834	3952
4019.421	3962
4021.006	4021
4022.592	3933
4024.178	3981
4025.763	3849
4027.348	3944
4028.932	4038
4030.515	3856
4032.099	3861
4033.682	3810
4035.266	3936
4036.847	3931
4038.429	3940
4040.011	3891
4041.592	3891
4043.173	3874
4044.755	3957
4046.334	3871
4047.913	3867
4049.494	3853
4051.074	3908
4052.652	3873
4054.23	3946
4055.807	3782
4057.385	3871
4058.963	3686
4060.541	3886
4062.117	3882
4063.693	3886
4065.269	3791
4066.844	3802
4068.42	3845
4069.995	3861
4071.569	3878
4073.143	3766
4074.716	3862
4076.291	3815
4077.864	3815
4079.436	3892
4081.009	3795
4082.58	3846
4084.152	3757
4085.723	3749
4087.294	3755
4088.865	3778
4090.435	3644
4092.005	3853
4093.574	3696
4095.143	3828
4096.712	3771
4098.279	3859
4099.848	3710
4101.416	3774
4102.984	3747
4104.55	3755
4106.117	3700
4107.682	3858
4109.248	3720
4110.815	3725
4112.379	3749
4113.945	3660
4115.508	3770
4117.073	3625
4118.637	3712
4120.201	3693
4121.763	3699
4123.325	3724
4124.888	3730
4126.449	3678
4128.013	3698
4129.573	3588
4131.133	3632
4132.694	3605
4134.254	3740
4135.814	3601
4137.374	3633
4138.933	3610
4140.491	3676
4142.049	3620
4143.607	3647
4145.167	3590
4146.724	3649
4148.28	3603
4149.836	3546
4151.392	3639
4152.949	3587
4154.504	3541
4156.059	3571
4157.614	3620
4159.168	3590
4160.723	3545
4162.277	3604
4163.83	3540
4165.383	3614
4166.936	3627
4168.488	3554
4170.041	3575
4171.593	3555
4173.144	3544
4174.695	3507
4176.246	3531
4177.796	3508
4179.346	3525
4180.896	3505
4182.445	3524
4183.994	3527
4185.542	3514
4187.091	3539
4188.639	3429
4190.185	3506
4191.732	3404
4193.279	3441
4194.826	3447
4196.373	3459
4197.918	3466
4199.463	3389
4201.008	3458
4202.553	3533
4204.098	3367
4205.641	3421
4207.185	3451
4208.728	3405
4210.271	3472
4211.814	3427
4213.357	3505
4214.898	3334
4216.439	3428
4217.98	3393
4219.522	3364
4221.062	3327
4222.603	3387
4224.142	3393
4225.681	3302
4227.222	3407
4228.76	3414
4230.298	3351
4231.835	3341
4233.373	3421
4234.911	3407
4236.449	3334
4237.985	3311
4239.521	3382
4241.057	3451
4242.592	3380
4244.128	3399
4245.663	3317
4247.197	3340
4248.731	3418
4250.265	3395
4251.798	3271
4253.333	3324
4254.865	3329
4256.397	3353
4257.93	3309
4259.461	3301
4260.994	3293
4262.525	3340
4264.056	3236
4265.586	3306
4267.115	3300
4268.646	3315
4270.176	3323
4271.705	3252
4273.232	3299
4274.761	3276
4276.289	3358
4277.818	3290
4279.345	3311
4280.872	3274
4282.399	3220
4283.924	3327
4285.452	3292
4286.976	3284
4288.502	3254
4290.026	3271
4291.551	3262
4293.074	3307
4294.6	3258
4296.123	3295
4297.646	3247
4299.168	3255
4300.691	3235
4302.214	3216
4303.736	3227
4305.257	3242
4306.778	3211
4308.299	3237
4309.82	3171
4311.34	3268
4312.86	3142
4314.379	3206
