400.0745	5092
402.597	4917
405.1208	5066
407.6419	5019
410.1623	5008
412.6819	5112
415.201	5013
417.7172	5002
420.2369	5159
422.7538	5193
425.2701	5252
427.7856	5259
430.3005	5188
432.8147	5337
435.3282	5233
437.841	5288
440.3511	5318
442.8625	5305
445.3753	5303
447.8854	5385
450.3927	5328
452.9014	5401
455.4073	5343
457.9146	5367
460.4233	5426
462.9272	5406
465.4325	5366
467.935	5260
470.4389	5388
472.9421	5372
475.4446	5485
477.9444	5470
480.4456	5331
482.944	5464
485.4417	5401
487.9429	5349
490.4393	5425
492.935	5503
495.4321	5477
497.9264	5449
500.4221	5448
502.9171	5551
505.4094	5619
507.9011	5602
510.392	5551
512.8864	5624
515.3759	5617
517.8649	5565
520.3531	5485
522.8406	5534
525.3275	5601
527.8178	5667
530.3033	5673
532.7881	5477
535.2723	5596
537.7558	5609
540.2407	5695
542.7228	5671
545.2043	5577
547.6851	5669
550.1652	5654
552.6467	5684
555.1255	5619
557.6016	5640
560.079	5768
562.5557	5631
565.0318	5723
567.5092	5773
569.984	5874
572.456	5713
574.9294	5756
577.4022	5771
579.8762	5848
582.3456	5786
584.8163	5890
587.2863	5817
589.7557	5845
592.2224	5828
594.6924	5769
597.1578	5860
599.6245	5847
602.0905	5833
604.5538	5821
607.0206	5875
609.4825	5823
611.9459	5852
614.4066	5820
616.8686	5914
619.33	5866
621.7906	5788
624.2487	5856
626.708	5753
629.1647	5866
631.6207	5929
634.0801	5838
636.5348	5863
638.9888	5828
641.4442	5808
643.8969	5922
646.3509	5777
648.8022	5835
651.255	5854
653.705	5886
656.1544	5949
658.6031	5872
661.0532	5920
663.5026	5961
665.9493	5930
668.3954	5975
670.8409	6015
673.2877	5989
675.7318	6009
678.1752	5958
680.618	6026
683.0601	5988
685.5035	5954
687.9444	6069
690.3845	6069
692.824	5938
695.2628	6067
697.701	6036
700.1406	6056
702.5774	6077
705.0116	5980
707.4472	6190
709.8821	6173
712.3183	6122
714.7519	6075
717.1829	6035
719.6151	6230
722.0468	6094
724.4777	6229
726.908	6178
729.3377	6243
731.7667	6215
734.1931	6322
736.6208	6208
739.0498	6213
741.4742	6188
743.9	6152
746.3231	6405
748.7476	6441
751.1713	6375
753.5945	6437
756.015	6289
758.4368	6432
760.856	6414
763.2766	6510
765.6965	6449
768.1157	6439
770.5323	6487
772.9483	6448
775.3656	6484
777.7822	6555
780.1963	6523
782.6116	6571
785.0244	6441
787.4365	6606
789.8499	6525
792.2626	6505
794.6728	6527
797.0823	6453
799.4911	6558
801.8994	6480
804.3109	6511
806.7178	6596
809.124	6549
811.5297	6631
813.9347	6668
816.341	6507
818.7447	6580
821.1478	6545
823.5502	6556
825.952	6631
828.3531	6557
830.7556	6595
833.1554	6555
835.5546	6625
837.9532	6611
840.3511	6614
842.7504	6787
845.1451	6702
847.5411	6716
849.9365	6733
852.3312	6735
854.7272	6710
857.1187	6667
859.5115	6734
861.9037	6747
864.2952	6676
866.6842	6704
869.0764	6730
871.4661	6676
873.8531	6699
876.2415	6631
878.6272	6691
881.0162	6699
883.4026	6688
885.7866	6648
888.1717	6686
890.5543	6712
892.9382	6640
895.3215	6759
897.7041	6723
900.0842	6661
902.4655	6616
904.8443	6751
907.2244	6735
909.6039	6655
911.9808	6717
914.357	6776
916.7346	6930
919.1115	6886
921.4859	6884
923.8616	6865
926.2347	6927
928.6071	6927
930.979	6971
933.3541	7039
935.7247	6888
938.0946	7013
940.4639	7132
942.8326	7191
945.2026	7247
947.5701	7223
949.9369	7383
952.305	7438
954.6705	7616
957.0355	7763
959.4017	8057
961.7654	8089
964.1284	8030
966.4908	7887
968.8527	7658
971.2138	7335
973.5743	7359
975.9343	7215
978.2936	6951
980.6522	6892
983.0122	7050
985.3696	6851
987.7245	6919
990.0807	6783
992.4362	6783
994.7911	6892
997.1474	6877
999.4991	6901
1001.852	7034
1004.205	6943
1006.555	6900
1008.908	6950
1011.258	6947
1013.606	6992
1015.956	6947
1018.302	6982
1020.652	6933
1022.998	7024
1025.345	6982
1027.691	6974
1030.035	7049
1032.378	7038
1034.724	7093
1037.066	6998
1039.409	7000
1041.75	7045
1044.092	6967
1046.433	7085
1048.771	7105
1051.112	7140
1053.449	7186
1055.786	7066
1058.124	7154
1060.462	7061
1062.797	7069
1065.131	7142
1067.467	7191
1069.8	7079
1072.135	7243
1074.467	7284
1076.798	7239
1079.129	7115
1081.459	7023
1083.792	7114
1086.121	6875
1088.449	7153
1090.777	7171
1093.104	6974
1095.431	7109
1097.759	6868
1100.084	7151
1102.408	7077
1104.732	7063
1107.056	7064
1109.379	7034
1111.701	6976
1114.022	6986
1116.343	7128
1118.664	7154
1120.983	7158
1123.303	7164
1125.621	7210
1127.939	7259
1130.256	7114
1132.573	7112
1134.889	7031
1137.205	7202
1139.52	7123
1141.832	7149
1144.146	7115
1146.461	7068
1148.771	7011
1151.083	6986
1153.392	7221
1155.703	7117
1158.011	7043
1160.323	7135
1162.629	6995
1164.938	7053
1167.243	7155
1169.55	7152
1171.857	7109
1174.163	7205
1176.466	7017
1178.769	7239
1181.073	7212
1183.374	7224
1185.677	7175
1187.979	7120
1190.279	7091
1192.578	7054
1194.878	7109
1197.178	7062
1199.476	7060
1201.772	7132
1204.068	7193
1206.366	7146
1208.663	7080
1210.957	7272
1213.251	7150
1215.544	7164
1217.836	7162
1220.128	7304
1222.421	7305
1224.712	7165
1227.002	7202
1229.292	7222
1231.581	7293
1233.871	7200
1236.159	7349
1238.446	7364
1240.732	7348
1243.018	7496
1245.304	7230
1247.59	7449
1249.874	7374
1252.156	7349
1254.439	7377
1256.721	7413
1259.005	7388
1261.286	7325
1263.565	7269
1265.845	7311
1268.125	7346
1270.403	7422
1272.682	7416
1274.959	7320
1277.234	7322
1279.511	7289
1281.787	7348
1284.062	7284
1286.337	7274
1288.609	7288
1290.882	7212
1293.153	7220
1295.428	7279
1297.698	7283
1299.969	7395
1302.237	7319
1304.507	7208
1306.777	7343
1309.044	7262
1311.312	7311
1313.578	7200
1315.844	7409
1318.109	7242
1320.375	7282
1322.638	7374
1324.903	7265
1327.165	7236
1329.427	7258
1331.69	7328
1333.952	7221
1336.212	7428
1338.471	7279
1340.73	7344
1342.988	7329
1345.248	7417
1347.505	7350
1349.763	7242
1352.019	7220
1354.274	7318
1356.53	7323
1358.784	7405
1361.038	7291
1363.291	7347
1365.543	7164
1367.797	7263
1370.048	7323
1372.296	7282
1374.546	7343
1376.796	7341
1379.045	7376
1381.295	7182
1383.542	7340
1385.787	7185
1388.034	7318
1390.28	7240
1392.527	7340
1394.772	7429
1397.014	7457
1399.258	7349
1401.501	7493
1403.741	7422
1405.985	7415
1408.226	7364
1410.465	7386
1412.705	7415
1414.943	7407
1417.184	7453
1419.42	7571
1421.658	7417
1423.894	7500
1426.13	7520
1428.366	7427
1430.602	7469
1432.835	7478
1435.069	7464
1437.301	7655
1439.535	7440
1441.767	7404
1443.997	7506
1446.229	7479
1448.458	7674
1450.687	7678
1452.916	7466
1455.146	7552
1457.372	7543
1459.599	7527
1461.824	7625
1464.051	7502
1466.277	7567
1468.501	7522
1470.725	7474
1472.948	7531
1475.17	7267
1477.393	7588
1479.614	7330
1481.837	7384
1484.057	7476
1486.276	7424
1488.497	7362
1490.715	7373
1492.932	7251
1495.148	7244
1497.364	7348
1499.58	7297
1501.798	7257
1504.012	7353
1506.227	7160
1508.44	7260
1510.653	7347
1512.866	7274
1515.078	7257
1517.289	7311
1519.5	7250
1521.711	7226
1523.92	7230
1526.13	7308
1528.338	7322
1530.544	7294
1532.752	7265
1534.959	7304
1537.165	7172
1539.371	7452
1541.574	7283
1543.779	7402
1545.983	7188
1548.187	7408
1550.39	7390
1552.59	7292
1554.792	7388
1556.991	7327
1559.19	7373
1561.392	7494
1563.59	7475
1565.789	7461
1567.986	7379
1570.182	7503
1572.381	7537
1574.576	7373
1576.771	7517
1578.966	7514
1581.16	7551
1583.354	7495
1585.546	7556
1587.74	7531
1589.931	7455
1592.121	7469
1594.311	7461
1596.502	7554
1598.693	7408
1600.881	7451
1603.069	7373
1605.256	7507
1607.445	7506
1609.631	7523
1611.816	7413
1614.001	7574
1616.186	7501
1618.37	7562
1620.555	7517
1622.737	7515
1624.919	7531
1627.101	7598
1629.282	7444
1631.463	7558
1633.643	7501
1635.822	7639
1638.001	7593
1640.179	7670
1642.359	7509
1644.534	7618
1646.711	7727
1648.887	7510
1651.062	7604
1653.235	7642
1655.412	7494
1657.586	7514
1659.757	7675
1661.93	7574
1664.1	7752
1666.274	7676
1668.445	7635
1670.614	7482
1672.784	7556
1674.951	7617
1677.12	7680
1679.289	7601
1681.457	7505
1683.622	7567
1685.789	7553
1687.953	7538
1690.121	7684
1692.284	7526
1694.447	7604
1696.611	7489
1698.772	7578
1700.935	7485
1703.098	7458
1705.258	7473
1707.417	7428
1709.576	7655
1711.736	7455
1713.896	7402
1716.053	7494
1718.21	7405
1720.366	7462
1722.522	7476
1724.68	7503
1726.835	7540
1728.989	7510
1731.142	7562
1733.295	7586
1735.449	7582
1737.601	7416
1739.753	7483
1741.903	7463
1744.054	7460
1746.203	7438
1748.354	7304
1750.503	7461
1752.651	7486
1754.798	7578
1756.944	7468
1759.092	7528
1761.238	7447
1763.383	7581
1765.528	7507
1767.672	7486
1769.814	7715
1771.959	7559
1774.102	7550
1776.242	7491
1778.384	7558
1780.525	7542
1782.665	7425
1784.805	7567
1786.945	7551
1789.082	7448
1791.22	7598
1793.36	7520
1795.495	7573
1797.632	7542
1799.766	7453
1801.902	7607
1804.035	7517
1806.172	7413
1808.304	7568
1810.436	7569
1812.569	7495
1814.699	7483
1816.833	7435
1818.963	7537
1821.092	7550
1823.222	7439
1825.35	7535
1827.478	7528
1829.608	7512
1831.734	7488
1833.86	7480
1835.986	7555
1838.11	7451
1840.238	7530
1842.362	7494
1844.485	7444
1846.608	7521
1848.73	7482
1850.853	7524
1852.974	7394
1855.097	7537
1857.217	7521
1859.336	7400
1861.455	7414
1863.576	7449
1865.693	7342
1867.811	7535
1869.926	7404
1872.042	7496
1874.16	7541
1876.275	7389
1878.39	7417
1880.504	7517
1882.618	7426
1884.731	7351
1886.843	7504
1888.956	7548
1891.067	7426
1893.178	7438
1895.287	7502
1897.399	7506
1899.508	7537
1901.617	7422
1903.724	7456
1905.832	7453
1907.941	7450
1910.046	7496
1912.152	7587
1914.256	7568
1916.361	7355
1918.464	7578
1920.57	7542
1922.672	7491
1924.775	7707
1926.876	7569
1928.978	7561
1931.08	7584
1933.181	7650
1935.28	7578
1937.38	7494
1939.478	7688
1941.577	7713
1943.675	7514
1945.771	7436
1947.867	7544
1949.964	7609
1952.058	7631
1954.154	7580
1956.248	7480
1958.343	7525
1960.435	7465
1962.527	7630
1964.62	7552
1966.711	7624
1968.802	7503
1970.892	7661
1972.983	7486
1975.072	7614
1977.162	7475
1979.25	7472
1981.337	7581
1983.424	7463
1985.51	7602
1987.598	7511
1989.683	7427
1991.768	7381
1993.852	7492
1995.934	7525
1998.019	7499
2000.102	7404
2002.184	7577
2004.266	7612
2006.347	7498
2008.427	7457
2010.508	7430
2012.587	7613
2014.666	7512
2016.745	7392
2018.821	7355
2020.9	7477
2022.977	7460
2025.052	7460
2027.128	7486
2029.204	7439
2031.277	7467
2033.353	7427
2035.425	7603
2037.499	7401
2039.57	7478
2041.642	7385
2043.714	7417
2045.786	7478
2047.855	7366
2049.925	7496
2051.993	7475
2054.064	7476
2056.132	7425
2058.2	7424
2060.266	7451
2062.332	7394
2064.398	7507
2066.465	7386
2068.529	7583
2070.592	7418
2072.657	7561
2074.719	7486
2076.783	7436
2078.845	7374
2080.907	7486
2082.968	7377
2085.028	7482
2087.087	7481
2089.148	7445
2091.207	7432
2093.264	7507
2095.322	7446
2097.379	7393
2099.439	7488
2101.495	7466
2103.55	7467
2105.605	7473
2107.658	7533
2109.713	7429
2111.767	7444
2113.82	7344
2115.872	7428
2117.924	7470
2119.975	7284
2122.028	7477
2124.078	7459
2126.126	7439
2128.176	7484
2130.225	7460
2132.275	7373
2134.321	7421
2136.368	7294
2138.415	7340
2140.461	7318
2142.505	7351
2144.552	7403
2146.597	7411
2148.64	7466
2150.684	7390
2152.725	7444
2154.77	7369
2156.811	7391
2158.852	7429
2160.894	7322
2162.933	7399
2164.973	7266
2167.013	7448
2169.051	7315
2171.089	7398
2173.126	7256
2175.164	7437
2177.201	7435
2179.236	7278
2181.273	7346
2183.307	7393
2185.341	7293
2187.377	7287
2189.41	7167
2191.442	7300
2193.473	7294
2195.506	7290
2197.539	7311
2199.569	7292
2201.598	7382
2203.628	7284
2205.656	7299
2207.686	7181
2209.716	7186
2211.743	7210
2213.769	7202
2215.796	7241
2217.821	7129
2219.848	7197
2221.873	7179
2223.897	7171
2225.921	7192
2227.944	7367
2229.967	7202
2231.991	7173
2234.011	7219
2236.032	7236
2238.053	7201
2240.073	7136
2242.094	7216
2244.114	7208
2246.131	7151
2248.149	7253
2250.167	7060
2252.186	7142
2254.201	7170
2256.218	7209
2258.233	7149
2260.247	7035
2262.262	7181
2264.278	7226
2266.29	7229
2268.303	7159
2270.315	7261
2272.327	7162
2274.341	7246
2276.35	7318
2278.361	7165
2280.37	7200
2282.38	7261
2284.388	7165
2286.397	7169
2288.405	7110
2290.412	7137
2292.419	7315
2294.425	7136
2296.431	7084
2298.437	7191
2300.441	7288
2302.445	7191
2304.449	7126
2306.453	7136
2308.455	7065
2310.457	7173
2312.459	7154
2314.46	7149
2316.46	7048
2318.461	7159
2320.46	7086
2322.458	7153
2324.458	7119
2326.456	7167
2328.455	7064
2330.451	7142
2332.447	7177
2334.443	7085
2336.438	7083
2338.433	7039
2340.429	7119
2342.422	7162
2344.416	7048
2346.408	7118
2348.399	7080
2350.393	7151
2352.384	7047
2354.375	7008
2356.365	7094
2358.355	6871
2360.344	7005
2362.333	6991
2364.322	6993
2366.309	6915
2368.295	6929
2370.282	6966
2372.27	6987
2374.256	6896
2376.24	7155
2378.225	6958
2380.208	6858
2382.194	6987
2384.177	6919
2386.159	6953
2388.142	7002
2390.122	6947
2392.105	7026
2394.085	6845
2396.066	6915
2398.044	6784
2400.024	6865
2402.002	6904
2403.982	7044
2405.959	6755
2407.935	7038
2409.913	6941
2411.888	6878
2413.865	6875
2415.84	6879
2417.814	6794
2419.788	6952
2421.762	6879
2423.735	6891
2425.708	6829
2427.68	6899
2429.651	6910
2431.623	6968
2433.593	6971
2435.564	6746
2437.533	6860
2439.502	6922
2441.47	6865
2443.438	6843
2445.406	6897
2447.373	6875
2449.34	6901
2451.305	6829
2453.271	6929
2455.235	6820
2457.201	6867
2459.165	6880
2461.129	6813
2463.092	6875
2465.054	6910
2467.018	6830
2468.978	6904
2470.939	6794
2472.899	6820
2474.86	6815
2476.819	6716
2478.778	6841
2480.737	6790
2482.695	6750
2484.653	6734
2486.609	6731
2488.567	6829
2490.524	6668
2492.478	6802
2494.433	6786
2496.387	6900
2498.343	6776
2500.297	6846
2502.249	6703
2504.202	6771
2506.153	6844
2508.105	6693
2510.057	6705
2512.008	6817
2513.957	6779
2515.906	6640
2517.855	6841
2519.805	6761
2521.754	6733
2523.7	6683
2525.647	6663
2527.594	6787
2529.54	6745
2531.486	6704
2533.431	6645
2535.376	6713
2537.32	6535
2539.263	6758
2541.207	6638
2543.151	6697
2545.093	6714
2547.034	6643
2548.975	6592
2550.917	6661
2552.856	6682
2554.796	6641
2556.735	6699
2558.673	6725
2560.611	6653
2562.55	6604
2564.487	6726
2566.424	6641
2568.36	6668
2570.296	6583
2572.232	6739
2574.167	6754
2576.101	6544
2578.035	6714
2579.969	6740
2581.902	6671
2583.834	6658
2585.766	6840
2587.698	6705
2589.628	6715
2591.557	6678
2593.489	6657
2595.419	6760
2597.348	6696
2599.275	6691
2601.204	6633
2603.131	6594
2605.059	6812
2606.986	6709
2608.911	6562
2610.837	6685
2612.76	6641
2614.687	6680
2616.61	6660
2618.534	6563
2620.457	6556
2622.38	6627
2624.302	6742
2626.225	6544
2628.145	6739
2630.067	6754
2631.986	6715
2633.906	6684
2635.827	6748
2637.745	6634
2639.662	6741
2641.581	6598
2643.498	6670
2645.415	6631
2647.331	6592
2649.248	6644
2651.163	6584
2653.077	6759
2654.993	6738
2656.906	6691
2658.821	6664
2660.733	6645
2662.646	6657
2664.557	6527
2666.47	6689
2668.381	6746
2670.291	6653
2672.201	6658
2674.11	6569
2676.021	6724
2677.929	6626
2679.837	6754
2681.745	6639
2683.652	6643
2685.56	6634
2687.466	6506
2689.371	6561
2691.276	6618
2693.181	6557
2695.085	6553
2696.991	6657
2698.893	6632
2700.796	6498
2702.698	6558
2704.601	6608
2706.502	6566
2708.404	6611
2710.304	6601
2712.203	6488
2714.103	6474
2716.003	6428
2717.902	6679
2719.8	6592
2721.697	6484
2723.594	6463
2725.49	6319
2727.389	6536
2729.283	6578
2731.179	6483
2733.073	6533
2734.968	6543
2736.863	6554
2738.757	6543
2740.649	6483
2742.541	6483
2744.433	6509
2746.324	6463
2748.216	6500
2750.107	6411
2751.997	6551
2753.886	6397
2755.776	6418
2757.666	6357
2759.553	6422
2761.44	6539
2763.327	6349
2765.215	6372
2767.102	6413
2768.988	6458
2770.873	6425
2772.757	6435
2774.641	6514
2776.525	6421
2778.41	6356
2780.292	6411
2782.175	6484
2784.057	6352
2785.938	6322
2787.821	6550
2789.701	6421
2791.581	6445
2793.461	6435
2795.34	6292
2797.219	6433
2799.099	6318
2800.975	6366
2802.853	6418
2804.73	6299
2806.606	6280
2808.484	6347
2810.358	6374
2812.233	6418
2814.108	6391
2815.981	6362
2817.857	6399
2819.73	6275
2821.602	6371
2823.474	6304
2825.346	6424
2827.217	6333
2829.089	6363
2830.959	6321
2832.829	6293
2834.698	6337
2836.567	6246
2838.436	6372
2840.305	6235
2842.172	6395
2844.04	6383
2845.905	6407
2847.772	6176
2849.639	6374
2851.503	6386
2853.369	6258
2855.232	6286
2857.096	6369
2858.961	6475
2860.824	6391
2862.686	6349
2864.547	6365
2866.41	6459
2868.272	6351
2870.132	6533
2871.992	6422
2873.851	6467
2875.711	6562
2877.57	6592
2879.429	6654
2881.287	6672
2883.144	6696
2885.001	6780
2886.857	6643
2888.714	6513
2890.57	6786
2892.425	6627
2894.279	6534
2896.133	6662
2897.987	6711
2899.842	6601
2901.694	6562
2903.547	6525
2905.397	6622
2907.249	6657
2909.101	6564
2910.952	6557
2912.802	6592
2914.652	6666
2916.5	6672
2918.35	6814
2920.198	6790
2922.045	6733
2923.893	6913
2925.74	6959
2927.585	6956
2929.433	7084
2931.279	7018
2933.123	6949
2934.968	7112
2936.811	7172
2938.656	7219
2940.5	7189
2942.342	7268
2944.185	7280
2946.026	7309
2947.87	7328
2949.71	7187
2951.549	7224
2953.39	7068
2955.229	7199
2957.069	7168
2958.908	7025
2960.746	7107
2962.584	6907
2964.421	6960
2966.257	6935
2968.094	6847
2969.931	6823
2971.766	6786
2973.601	6744
2975.435	6842
2977.27	6765
2979.105	6765
2980.938	6735
2982.77	6734
2984.602	6567
2986.434	6521
2988.267	6534
2990.097	6445
2991.927	6635
2993.757	6598
2995.587	6470
2997.417	6268
2999.246	6373
3001.074	6343
3002.902	6432
3004.729	6365
3006.556	6164
3008.384	6306
3010.21	6302
3012.036	6138
3013.861	6202
3015.684	6053
3017.51	6093
3019.334	6112
3021.157	6074
3022.981	6086
3024.802	6001
3026.624	5965
3028.448	5933
3030.267	6001
3032.088	5880
3033.909	6142
3035.728	5830
3037.549	5885
3039.368	5888
3041.186	5943
3043.004	6036
3044.821	5914
3046.64	5905
3048.455	5897
3050.272	5891
3052.087	5802
3053.903	5941
3055.717	5899
3057.534	5880
3059.347	5969
3061.16	5918
3062.974	5911
3064.785	5945
3066.598	5798
3068.411	5913
3070.222	5819
3072.032	5946
3073.844	5786
3075.653	5866
3077.463	5791
3079.272	5709
3081.08	5711
3082.889	5716
3084.697	5898
3086.505	5769
3088.312	5724
3090.118	5781
3091.924	5898
3093.729	5668
3095.535	5638
3097.34	5679
3099.144	5797
3100.947	5703
3102.75	5782
3104.553	5704
3106.357	5642
3108.159	5773
3109.961	5741
3111.762	5599
3113.562	5683
3115.365	5614
3117.164	5606
3118.964	5692
3120.761	5638
3122.56	5592
3124.36	5632
3126.158	5631
3127.954	5571
3129.75	5574
3131.547	5634
3133.343	5594
3135.139	5569
3136.934	5628
3138.729	5584
3140.522	5554
3142.317	5536
3144.11	5546
3145.904	5616
3147.695	5537
3149.488	5523
3151.28	5558
3153.07	5534
3154.863	5490
3156.652	5469
3158.441	5524
3160.231	5523
3162.019	5439
3163.81	5475
3165.597	5447
3167.384	5511
3169.172	5555
3170.958	5474
3172.745	5484
3174.532	5469
3176.317	5500
3178.101	5495
3179.885	5491
3181.67	5432
3183.455	5563
3185.238	5489
3187.02	5402
3188.802	5466
3190.585	5451
3192.368	5398
3194.149	5474
3195.929	5398
3197.709	5411
3199.489	5389
3201.268	5384
3203.048	5363
3204.826	5370
3206.604	5398
3208.382	5525
3210.159	5406
3211.937	5442
3213.713	5410
3215.489	5435
3217.263	5407
3219.038	5437
3220.815	5421
3222.589	5427
3224.363	5291
3226.136	5431
3227.908	5374
3229.681	5463
3231.454	5443
3233.226	5469
3234.996	5411
3236.767	5350
3238.538	5389
3240.308	5304
3242.078	5303
3243.847	5486
3245.615	5408
3247.384	5398
3249.15	5366
3250.92	5439
3252.686	5434
3254.453	5368
3256.218	5397
3257.984	5304
3259.75	5316
3261.515	5423
3263.279	5363
3265.044	5406
3266.806	5421
3268.57	5356
3270.334	5303
3272.095	5183
3273.856	5399
3275.619	5404
3277.379	5370
3279.14	5326
3280.9	5347
3282.661	5437
3284.419	5349
3286.178	5426
3287.937	5397
3289.695	5298
3291.453	5382
3293.21	5373
3294.967	5376
3296.723	5345
3298.48	5398
3300.235	5387
3301.99	5362
3303.744	5332
3305.498	5335
3307.253	5338
3309.006	5234
3310.759	5340
3312.511	5371
3314.263	5287
3316.017	5311
3317.768	5302
3319.519	5231
3321.268	5285
3323.018	5304
3324.767	5291
3326.518	5313
3328.267	5355
3330.014	5329
3331.762	5266
3333.509	5306
3335.258	5294
3337.003	5207
3338.75	5225
3340.496	5278
3342.24	5213
3343.987	5240
3345.732	5279
3347.475	5271
3349.219	5176
3350.961	5275
3352.705	5292
3354.448	5105
3356.19	5145
3357.931	5157
3359.672	5257
3361.412	5224
3363.155	5275
3364.894	5249
3366.633	5151
3368.372	5127
3370.11	5136
3371.849	5155
3373.588	5092
3375.325	5190
3377.061	5226
3378.799	5094
3380.534	5213
3382.271	5130
3384.006	5176
3385.741	5186
3387.475	5186
3389.209	5186
3390.944	5143
3392.677	5165
3394.409	5143
3396.143	5146
3397.874	5208
3399.606	5125
3401.338	5063
3403.069	5193
3404.799	5127
3406.528	5122
3408.258	4994
3409.988	5063
3411.717	5073
3413.445	4971
3415.173	5047
3416.899	5056
3418.626	5000
3420.354	5053
3422.08	4988
3423.806	5034
3425.531	5110
3427.255	5020
3428.981	5060
3430.705	5035
3432.429	5028
3434.151	5061
3435.875	5002
3437.599	4962
3439.321	4993
3441.042	4993
3442.763	4942
3444.483	4897
3446.204	4938
3447.926	5009
3449.645	4963
3451.364	4975
3453.082	4926
3454.801	5011
3456.52	4890
3458.238	4869
3459.954	4979
3461.671	4914
3463.387	4942
3465.104	4935
3466.82	4832
3468.534	4922
3470.25	4944
3471.963	4929
3473.676	4893
3475.392	4907
3477.104	4795
3478.817	4829
3480.528	4803
3482.241	4762
3483.954	4697
3485.664	4928
3487.374	4837
3489.084	4788
3490.795	4853
3492.504	4753
3494.214	4854
3495.922	4883
3497.63	4843
3499.338	4785
3501.045	4809
3502.753	4861
3504.459	4923
3506.166	4711
3507.871	4822
3509.576	4819
3511.283	4714
3512.987	4797
3514.691	4765
3516.395	4757
3518.098	4729
3519.8	4756
3521.504	4719
3523.206	4709
3524.908	4737
3526.609	4621
3528.309	4691
3530.011	4734
3531.711	4714
3533.411	4732
3535.109	4653
3536.808	4611
3538.507	4648
3540.206	4649
3541.904	4667
3543.601	4585
3545.297	4698
3546.994	4625
3548.69	4689
3550.387	4632
3552.081	4620
3553.776	4493
3555.47	4609
3557.166	4666
3558.859	4546
3560.553	4651
3562.245	4630
3563.938	4607
3565.629	4542
3567.322	4631
3569.014	4620
3570.704	4537
3572.394	4676
3574.084	4561
3575.775	4560
3577.464	4586
3579.152	4591
3580.842	4424
3582.529	4583
3584.216	4536
3585.905	4532
3587.591	4560
3589.279	4506
3590.964	4472
3592.649	4551
3594.336	4412
3596.021	4541
3597.705	4494
3599.388	4454
3601.072	4546
3602.757	4511
3604.439	4546
3606.122	4413
3607.803	4436
3609.485	4469
3611.167	4432
3612.849	4435
3614.529	4400
3616.208	4482
3617.888	4308
3619.567	4384
3621.247	4367
3622.926	4442
3624.603	4383
3626.281	4340
3627.958	4292
3629.635	4340
3631.312	4331
3632.989	4364
3634.665	4399
3636.339	4386
3638.014	4335
3639.691	4442
3641.364	4198
3643.038	4293
3644.71	4264
3646.384	4308
3648.058	4195
3649.729	4303
3651.402	4284
3653.073	4332
3654.744	4319
3656.414	4229
3658.085	4261
3659.755	4306
3661.424	4266
3663.094	4240
3664.762	4236
3666.431	4279
3668.099	4319
3669.766	4298
3671.433	4258
3673.099	4177
3674.768	4230
3676.433	4172
3678.098	4177
3679.763	4288
3681.428	4201
3683.093	4234
3684.757	4279
3686.421	4228
3688.083	4088
3689.746	4198
3691.408	4216
3693.071	4171
3694.733	4161
3696.394	4203
3698.054	4259
3699.715	4294
3701.375	4153
3703.036	4111
3704.695	4171
3706.354	4210
3708.012	4171
3709.67	4188
3711.329	4236
3712.987	4175
3714.644	4141
3716.299	4153
3717.955	4164
3719.613	4147
3721.268	4144
3722.923	4126
3724.577	4092
3726.231	4082
3727.885	4120
3729.539	4102
3731.192	4089
3732.845	4044
3734.497	4118
3736.149	4120
3737.802	4093
3739.453	4171
3741.104	4060
3742.753	4118
3744.404	4047
3746.052	4115
3747.704	3994
3749.352	4024
3751	4031
3752.648	3999
3754.296	4063
3755.944	4091
3757.59	4060
3759.238	3985
3760.883	4068
3762.528	4067
3764.176	3982
3765.82	3980
3767.464	4032
3769.109	4030
3770.753	3941
3772.396	4014
3774.04	4037
3775.683	3946
3777.325	3918
3778.967	4027
3780.608	3931
3782.25	3954
3783.89	3940
3785.531	3965
3787.17	3927
3788.81	4027
3790.45	3885
3792.09	3887
3793.729	3943
3795.366	4010
3797.003	3887
3798.64	3902
3800.278	3928
3801.915	3868
3803.551	3890
3805.187	3839
3806.822	3868
3808.458	3908
3810.093	3921
3811.726	3911
3813.36	3863
3814.994	3845
3816.627	3934
3818.262	3961
3819.893	3891
3821.525	3948
3823.157	3900
3824.787	3798
3826.42	3861
3828.051	3891
3829.68	3826
3831.31	3935
3832.938	3917
3834.569	3850
3836.198	3899
3837.825	3771
3839.454	3899
3841.08	3890
3842.708	3872
3844.335	3829
3845.962	3784
3847.587	3867
3849.212	3888
3850.838	3803
3852.463	3831
3854.089	3770
3855.712	3812
3857.335	3812
3858.959	3758
3860.582	3808
3862.205	3810
3863.827	3803
3865.449	3827
3867.07	3703
3868.691	3789
3870.312	3798
3871.933	3801
3873.553	3756
3875.173	3730
3876.792	3730
3878.411	3775
3880.03	3722
3881.647	3734
3883.265	3754
3884.882	3679
3886.499	3695
3888.116	3702
3889.732	3777
3891.348	3787
3892.964	3776
3894.579	3723
3896.195	3740
3897.809	3684
3899.423	3732
3901.036	3740
3902.648	3651
3904.261	3729
3905.875	3659
3907.487	3776
3909.099	3721
3910.709	3639
3912.321	3750
3913.933	3667
3915.542	3704
3917.152	3630
3918.762	3679
3920.37	3688
3921.98	3646
3923.589	3741
3925.196	3681
3926.804	3645
3928.41	3727
3930.018	3721
3931.626	3715
3933.231	3659
3934.838	3589
3936.442	3627
3938.046	3605
3939.653	3725
3941.257	3570
3942.861	3672
3944.464	3624
3946.068	3685
3947.67	3691
3949.273	3603
3950.876	3559
3952.477	3660
3954.078	3555
3955.678	3623
3957.281	3538
3958.881	3582
3960.48	3564
3962.079	3605
3963.678	3541
3965.279	3570
3966.877	3544
3968.475	3693
3970.072	3618
3971.669	3553
3973.266	3532
3974.864	3566
3976.459	3539
3978.055	3613
3979.65	3467
3981.245	3561
3982.841	3601
3984.436	3574
3986.03	3478
3987.623	3518
3989.216	3543
3990.809	3403
3992.403	3479
3993.995	3490
3995.586	3533
3997.177	3486
3998.768	3480
4000.361	3510
4001.951	3514
4003.54	3439
4005.13	3470
4006.719	3519
4008.31	3527
4009.897	3480
4011.485	3444
4013.073	3450
4014.66	3477
4016.247	3405
4017.834	3387
4019.421	3306
4021.006	3415
4022.592	3324
4024.178	3387
4025.763	3362
4027.348	3461
4028.932	3458
4030.515	3419
4032.099	3394
4033.682	3407
4035.266	3438
4036.847	3326
4038.429	3439
4040.011	3358
4041.592	3372
4043.173	3409
4044.755	3398
4046.334	3330
4047.913	3384
4049.494	3325
4051.074	3392
4052.652	3371
4054.23	3313
4055.807	3228
4057.385	3325
4058.963	3299
4060.541	3429
4062.117	3354
4063.693	3322
4065.269	3309
4066.844	3261
4068.42	3282
4069.995	3418
4071.569	3258
4073.143	3326
4074.716	3338
4076.291	3377
4077.864	3349
4079.436	3365
4081.009	3280
4082.58	3322
4084.152	3296
4085.723	3282
4087.294	3331
4088.865	3275
4090.435	3263
4092.005	3299
4093.574	3227
4095.143	3270
4096.712	3270
4098.279	3223
4099.848	3223
4101.416	3286
4102.984	3240
4104.55	3317
4106.117	3239
4107.682	3251
4109.248	3196
4110.815	3295
4112.379	3289
4113.945	3272
4115.508	3232
4117.073	3216
4118.637	3277
4120.201	3166
4121.763	3181
4123.325	3211
4124.888	3196
4126.449	3220
4128.013	3176
4129.573	3188
4131.133	3186
4132.694	3227
4134.254	3109
4135.814	3147
4137.374	3193
4138.933	3139
4140.491	3171
4142.049	3135
4143.607	3130
4145.167	3168
4146.724	3169
4148.28	3154
4149.836	3111
4151.392	3079
4152.949	3192
4154.504	3083
4156.059	3071
4157.614	3157
4159.168	3108
4160.723	3088
4162.277	3049
4163.83	3053
4165.383	3082
4166.936	3097
4168.488	3033
4170.041	3105
4171.593	3108
4173.144	3137
4174.695	3038
4176.246	3009
4177.796	3118
4179.346	3037
4180.896	3042
4182.445	3037
4183.994	3046
4185.542	3012
4187.091	3062
4188.639	3048
4190.185	3035
4191.732	3018
4193.279	3075
4194.826	2938
4196.373	2968
4197.918	2971
4199.463	3004
4201.008	2995
4202.553	2941
4204.098	3081
4205.641	2973
4207.185	3045
4208.728	2999
4210.271	3010
4211.814	2991
4213.357	2961
4214.898	2952
4216.439	3006
4217.98	3006
4219.522	2951
4221.062	2997
4222.603	2944
4224.142	3014
4225.681	3034
4227.222	2993
4228.76	2962
4230.298	3023
4231.835	3013
4233.373	2983
4234.911	2880
4236.449	2929
4237.985	2919
4239.521	2917
4241.057	2912
4242.592	2916
4244.128	2920
4245.663	2959
4247.197	2913
4248.731	2944
4250.265	2877
4251.798	2946
4253.333	2918
4254.865	2903
4256.397	2855
4257.93	2936
4259.461	2928
4260.994	2861
4262.525	2929
4264.056	2888
4265.586	2904
4267.115	2876
4268.646	2870
4270.176	2912
4271.705	2930
4273.232	2919
4274.761	2846
4276.289	2862
4277.818	2853
4279.345	2836
4280.872	2914
4282.399	2834
4283.924	2850
4285.452	2938
4286.976	2837
4288.502	2861
4290.026	2789
4291.551	2826
4293.074	2887
4294.6	2814
4296.123	2835
4297.646	2797
4299.168	2848
4300.691	2853
4302.214	2856
4303.736	2855
4305.257	2884
4306.778	2785
4308.299	2808
4309.82	2826
4311.34	2793
4312.86	2780
4314.379	2837
