400.0745	3901
402.597	3822
405.1208	3806
407.6419	3822
410.1623	3852
412.6819	3815
415.201	3822
417.7172	3858
420.2369	3811
422.7538	3950
425.2701	3918
427.7856	3941
430.3005	3965
432.8147	3910
435.3282	3911
437.841	3883
440.3511	3972
442.8625	4031
445.3753	4032
447.8854	4031
450.3927	3985
452.9014	3954
455.4073	4064
457.9146	4010
460.4233	3957
462.9272	3940
465.4325	4046
467.935	4035
470.4389	4046
472.9421	4022
475.4446	3995
477.9444	4025
480.4456	4034
482.944	4004
485.4417	4047
487.9429	4161
490.4393	4127
492.935	4125
495.4321	4146
497.9264	4080
500.4221	4202
502.9171	4148
505.4094	4083
507.9011	4137
510.392	4106
512.8864	4206
515.3759	4193
517.8649	4197
520.3531	4179
522.8406	4137
525.3275	4197
527.8178	4246
530.3033	4184
532.7881	4146
535.2723	4227
537.7558	4272
540.2407	4188
542.7228	4144
545.2043	4257
547.6851	4231
550.1652	4177
552.6467	4316
555.1255	4231
557.6016	4178
560.079	4278
562.5557	4248
565.0318	4219
567.5092	4299
569.984	4378
572.456	4348
574.9294	4269
577.4022	4350
579.8762	4258
582.3456	4305
584.8163	4313
587.2863	4271
589.7557	4341
592.2224	4303
594.6924	4383
597.1578	4331
599.6245	4300
602.0905	4305
604.5538	4281
607.0206	4400
609.4825	4322
611.9459	4465
614.4066	4298
616.8686	4426
619.33	4419
621.7906	4348
624.2487	4301
626.708	4310
629.1647	4452
631.6207	4379
634.0801	4326
636.5348	4334
638.9888	4291
641.4442	4409
643.8969	4352
646.3509	4392
648.8022	4388
651.255	4387
653.705	4340
656.1544	4355
658.6031	4374
661.0532	4409
663.5026	4418
665.9493	4490
668.3954	4481
670.8409	4483
673.2877	4423
675.7318	4511
678.1752	4417
680.618	4489
683.0601	4469
685.5035	4372
687.9444	4540
690.3845	4545
692.824	4466
695.2628	4447
697.701	4534
700.1406	4515
702.5774	4525
705.0116	4520
707.4472	4728
709.8821	4430
712.3183	4714
714.7519	4522
717.1829	4506
719.6151	4626
722.0468	4530
724.4777	4656
726.908	4628
729.3377	4688
731.7667	4649
734.1931	4633
736.6208	4718
739.0498	4739
741.4742	4666
743.9	4722
746.3231	4755
748.7476	4905
751.1713	4730
753.5945	4786
756.015	4656
758.4368	4785
760.856	4866
763.2766	4831
765.6965	4838
768.1157	4982
770.5323	4847
772.9483	4844
775.3656	4694
777.7822	4801
780.1963	4773
782.6116	4786
785.0244	4869
787.4365	4811
789.8499	4980
792.2626	4824
794.6728	4894
797.0823	4833
799.4911	4882
801.8994	4761
804.3109	4898
806.7178	4858
809.124	4872
811.5297	4797
813.9347	4951
816.341	4981
818.7447	4891
821.1478	4943
823.5502	5025
825.952	4771
828.3531	4892
830.7556	5065
833.1554	4832
835.5546	4969
837.9532	4853
840.3511	4937
842.7504	4968
845.1451	4954
847.5411	5006
849.9365	5069
852.3312	4997
854.7272	5044
857.1187	5017
859.5115	5113
861.9037	5047
864.2952	5077
866.6842	5077
869.0764	4968
871.4661	5059
873.8531	4949
876.2415	4937
878.6272	4990
881.0162	5069
883.4026	4972
885.7866	5057
888.1717	5034
890.5543	4986
892.9382	4999
895.3215	5093
897.7041	4842
900.0842	4976
902.4655	5017
904.8443	5020
907.2244	4986
909.6039	5087
911.9808	5160
914.357	4998
916.7346	5167
919.1115	5113
921.4859	5278
923.8616	5289
926.2347	5402
928.6071	5317
930.979	5346
933.3541	5245
935.7247	5306
938.0946	5209
940.4639	5264
942.8326	5227
945.2026	5248
947.5701	5334
949.9369	5424
952.305	5495
954.6705	5402
957.0355	5518
959.4017	5718
961.7654	5668
964.1284	5637
966.4908	5643
968.8527	5463
971.2138	5485
973.5743	5397
975.9343	5285
978.2936	5249
980.6522	5236
983.0122	5210
985.3696	5128
987.7245	5164
990.0807	5035
992.4362	5115
994.7911	5190
997.1474	5206
999.4991	5101
1001.852	5289
1004.205	5212
1006.555	5103
1008.908	5161
1011.258	5119
1013.606	5083
1015.956	5144
1018.302	5115
1020.652	5085
1022.998	5218
1025.345	5255
1027.691	5080
1030.035	5276
1032.378	5246
1034.724	5270
1037.066	5188
1039.409	5182
1041.75	5204
1044.092	5321
1046.433	5228
1048.771	5189
1051.112	5158
1053.449	5172
1055.786	5212
1058.124	5163
1060.462	5174
1062.797	5312
1065.131	5243
1067.467	5310
1069.8	5232
1072.135	5313
1074.467	5324
1076.798	5328
1079.129	5186
1081.459	5294
1083.792	5259
1086.121	5261
1088.449	5243
1090.777	5282
1093.104	5215
1095.431	5355
1097.759	5385
1100.084	5250
1102.408	5298
1104.732	5256
1107.056	5301
1109.379	5389
1111.701	5233
1114.022	5358
1116.343	5243
1118.664	5294
1120.983	5354
1123.303	5334
1125.621	5289
1127.939	5329
1130.256	5399
1132.573	5272
1134.889	5255
1137.205	5334
1139.52	5277
1141.832	5387
1144.146	5348
1146.461	5261
1148.771	5275
1151.083	5253
1153.392	5341
1155.703	5322
1158.011	5267
1160.323	5324
1162.629	5335
1164.938	5253
1167.243	5338
1169.55	5367
1171.857	5320
1174.163	5305
1176.466	5221
1178.769	5341
1181.073	5338
1183.374	5399
1185.677	5329
1187.979	5412
1190.279	5226
1192.578	5222
1194.878	5349
1197.178	5363
1199.476	5320
1201.772	5364
1204.068	5270
1206.366	5412
1208.663	5322
1210.957	5241
1213.251	5354
1215.544	5266
1217.836	5254
1220.128	5432
1222.421	5323
1224.712	5393
1227.002	5428
1229.292	5453
1231.581	5507
1233.871	5448
1236.159	5458
1238.446	5509
1240.732	5493
1243.018	5499
1245.304	5623
1247.59	5483
1249.874	5586
1252.156	5574
1254.439	5571
1256.721	5585
1259.005	5579
1261.286	5572
1263.565	5628
1265.845	5660
1268.125	5507
1270.403	5510
1272.682	5567
1274.959	5551
1277.234	5593
1279.511	5494
1281.787	5506
1284.062	5567
1286.337	5460
1288.609	5432
1290.882	5583
1293.153	5454
1295.428	5491
1297.698	5558
1299.969	5464
1302.237	5331
1304.507	5439
1306.777	5506
1309.044	5435
1311.312	5392
1313.578	5491
1315.844	5517
1318.109	5526
1320.375	5426
1322.638	5414
1324.903	5521
1327.165	5433
1329.427	5455
1331.69	5481
1333.952	5516
1336.212	5560
1338.471	5550
1340.73	5571
1342.988	5490
1345.248	5428
1347.505	5345
1349.763	5509
1352.019	5511
1354.274	5392
1356.53	5464
1358.784	5585
1361.038	5472
1363.291	5504
1365.543	5522
1367.797	5578
1370.048	5466
1372.296	5466
1374.546	5488
1376.796	5494
1379.045	5525
1381.295	5444
1383.542	5534
1385.787	5528
1388.034	5560
1390.28	5608
1392.527	5672
1394.772	5643
1397.014	5665
1399.258	5705
1401.501	5736
1403.741	5784
1405.985	5689
1408.226	5694
1410.465	5640
1412.705	5678
1414.943	5687
1417.184	5625
1419.42	5621
1421.658	5649
1423.894	5713
1426.13	5629
1428.366	5745
1430.602	5640
1432.835	5744
1435.069	5700
1437.301	5747
1439.535	5860
1441.767	5804
1443.997	5782
1446.229	5786
1448.458	5750
1450.687	5759
1452.916	5811
1455.146	5753
1457.372	5904
1459.599	5799
1461.824	5791
1464.051	5819
1466.277	5739
1468.501	5719
1470.725	5773
1472.948	5604
1475.17	5670
1477.393	5678
1479.614	5520
1481.837	5444
1484.057	5609
1486.276	5578
1488.497	5511
1490.715	5478
1492.932	5514
1495.148	5482
1497.364	5495
1499.58	5476
1501.798	5463
1504.012	5479
1506.227	5501
1508.44	5558
1510.653	5488
1512.866	5412
1515.078	5531
1517.289	5487
1519.5	5499
1521.711	5424
1523.92	5525
1526.13	5476
1528.338	5450
1530.544	5447
1532.752	5416
1534.959	5437
1537.165	5507
1539.371	5489
1541.574	5513
1543.779	5454
1545.983	5461
1548.187	5348
1550.39	5529
1552.59	5520
1554.792	5573
1556.991	5561
1559.19	5474
1561.392	5527
1563.59	5541
1565.789	5441
1567.986	5543
1570.182	5640
1572.381	5574
1574.576	5636
1576.771	5657
1578.966	5597
1581.16	5558
1583.354	5652
1585.546	5573
1587.74	5575
1589.931	5660
1592.121	5643
1594.311	5576
1596.502	5591
1598.693	5642
1600.881	5639
1603.069	5699
1605.256	5601
1607.445	5731
1609.631	5611
1611.816	5612
1614.001	5708
1616.186	5670
1618.37	5717
1620.555	5629
1622.737	5669
1624.919	5559
1627.101	5690
1629.282	5728
1631.463	5644
1633.643	5795
1635.822	5719
1638.001	5687
1640.179	5719
1642.359	5682
1644.534	5692
1646.711	5765
1648.887	5738
1651.062	5709
1653.235	5697
1655.412	5698
1657.586	5734
1659.757	5785
1661.93	5700
1664.1	5891
1666.274	5800
1668.445	5755
1670.614	5853
1672.784	5802
1674.951	5786
1677.12	5839
1679.289	5808
1681.457	5805
1683.622	5718
1685.789	5694
1687.953	5803
1690.121	5699
1692.284	5795
1694.447	5810
1696.611	5623
1698.772	5726
1700.935	5613
1703.098	5643
1705.258	5611
1707.417	5566
1709.576	5658
1711.736	5603
1713.896	5689
1716.053	5653
1718.21	5525
1720.366	5521
1722.522	5638
1724.68	5658
1726.835	5612
1728.989	5648
1731.142	5567
1733.295	5592
1735.449	5615
1737.601	5571
1739.753	5624
1741.903	5630
1744.054	5649
1746.203	5516
1748.354	5687
1750.503	5601
1752.651	5610
1754.798	5668
1756.944	5710
1759.092	5537
1761.238	5646
1763.383	5709
1765.528	5584
1767.672	5575
1769.814	5597
1771.959	5607
1774.102	5657
1776.242	5657
1778.384	5722
1780.525	5700
1782.665	5633
1784.805	5650
1786.945	5699
1789.082	5547
1791.22	5692
1793.36	5590
1795.495	5591
1797.632	5626
1799.766	5734
1801.902	5695
1804.035	5749
1806.172	5531
1808.304	5633
1810.436	5746
1812.569	5788
1814.699	5738
1816.833	5718
1818.963	5767
1821.092	5673
1823.222	5631
1825.35	5690
1827.478	5625
1829.608	5633
1831.734	5567
1833.86	5712
1835.986	5555
1838.11	5652
1840.238	5557
1842.362	5580
1844.485	5658
1846.608	5754
1848.73	5619
1850.853	5566
1852.974	5585
1855.097	5550
1857.217	5599
1859.336	5634
1861.455	5536
1863.576	5694
1865.693	5667
1867.811	5649
1869.926	5651
1872.042	5644
1874.16	5606
1876.275	5656
1878.39	5618
1880.504	5673
1882.618	5813
1884.731	5664
1886.843	5709
1888.956	5618
1891.067	5633
1893.178	5575
1895.287	5776
1897.399	5735
1899.508	5738
1901.617	5714
1903.724	5589
1905.832	5664
1907.941	5702
1910.046	5774
1912.152	5702
1914.256	5760
1916.361	5642
1918.464	5735
1920.57	5712
1922.672	5660
1924.775	5648
1926.876	5829
1928.978	5812
1931.08	5700
1933.181	5727
1935.28	5786
1937.38	5683
1939.478	5805
1941.577	5754
1943.675	5814
1945.771	5701
1947.867	5683
1949.964	5806
1952.058	5799
1954.154	5735
1956.248	5691
1958.343	5723
1960.435	5641
1962.527	5776
1964.62	5714
1966.711	5822
1968.802	5669
1970.892	5699
1972.983	5761
1975.072	5764
1977.162	5814
1979.25	5668
1981.337	5690
1983.424	5653
1985.51	5790
1987.598	5807
1989.683	5696
1991.768	5723
1993.852	5731
1995.934	5776
1998.019	5676
2000.102	5751
2002.184	5664
2004.266	5739
2006.347	5731
2008.427	5693
2010.508	5746
2012.587	5752
2014.666	5676
2016.745	5643
2018.821	5675
2020.9	5757
2022.977	5755
2025.052	5671
2027.128	5751
2029.204	5718
2031.277	5686
2033.353	5710
2035.425	5694
2037.499	5713
2039.57	5617
2041.642	5677
2043.714	5706
2045.786	5773
2047.855	5629
2049.925	5727
2051.993	5753
2054.064	5709
2056.132	5819
2058.2	5721
2060.266	5866
2062.332	5860
2064.398	5806
2066.465	5706
2068.529	5745
2070.592	5776
2072.657	5763
2074.719	5789
2076.783	5595
2078.845	5792
2080.907	5783
2082.968	5767
2085.028	5797
2087.087	5761
2089.148	5874
2091.207	5751
2093.264	5805
2095.322	5830
2097.379	5768
2099.439	5765
2101.495	5643
2103.55	5790
2105.605	5779
2107.658	5802
2109.713	5682
2111.767	5757
2113.82	5836
2115.872	5777
2117.924	5752
2119.975	5788
2122.028	5783
2124.078	5780
2126.126	5721
2128.176	5739
2130.225	5715
2132.275	5822
2134.321	5755
2136.368	5720
2138.415	5727
2140.461	5781
2142.505	5764
2144.552	5769
2146.597	5811
2148.64	5745
2150.684	5711
2152.725	5737
2154.77	5722
2156.811	5741
2158.852	5784
2160.894	5710
2162.933	5700
2164.973	5808
2167.013	5841
2169.051	5706
2171.089	5803
2173.126	5703
2175.164	5718
2177.201	5809
2179.236	5718
2181.273	5724
2183.307	5671
2185.341	5685
2187.377	5767
2189.41	5818
2191.442	5810
2193.473	5691
2195.506	5615
2197.539	5657
2199.569	5636
2201.598	5606
2203.628	5832
2205.656	5752
2207.686	5729
2209.716	5748
2211.743	5744
2213.769	5612
2215.796	5830
2217.821	5715
2219.848	5725
2221.873	5628
2223.897	5649
2225.921	5683
2227.944	5729
2229.967	5601
2231.991	5678
2234.011	5675
2236.032	5749
2238.053	5680
2240.073	5669
2242.094	5637
2244.114	5670
2246.131	5742
2248.149	5676
2250.167	5654
2252.186	5593
2254.201	5550
2256.218	5647
2258.233	5640
2260.247	5623
2262.262	5745
2264.278	5640
2266.29	5728
2268.303	5738
2270.315	5681
2272.327	5692
2274.341	5686
2276.35	5705
2278.361	5733
2280.37	5659
2282.38	5665
2284.388	5695
2286.397	5599
2288.405	5673
2290.412	5710
2292.419	5814
2294.425	5747
2296.431	5563
2298.437	5584
2300.441	5720
2302.445	5604
2304.449	5609
2306.453	5637
2308.455	5505
2310.457	5700
2312.459	5729
2314.46	5761
2316.46	5680
2318.461	5667
2320.46	5734
2322.458	5659
2324.458	5698
2326.456	5677
2328.455	5609
2330.451	5592
2332.447	5601
2334.443	5698
2336.438	5568
2338.433	5576
2340.429	5545
2342.422	5636
2344.416	5606
2346.408	5620
2348.399	5556
2350.393	5516
2352.384	5586
2354.375	5637
2356.365	5559
2358.355	5579
2360.344	5533
2362.333	5607
2364.322	5605
2366.309	5499
2368.295	5586
2370.282	5588
2372.27	5556
2374.256	5402
2376.24	5587
2378.225	5498
2380.208	5505
2382.194	5541
2384.177	5573
2386.159	5493
2388.142	5505
2390.122	5532
2392.105	5628
2394.085	5485
2396.066	5377
2398.044	5474
2400.024	5532
2402.002	5535
2403.982	5481
2405.959	5489
2407.935	5527
2409.913	5482
2411.888	5428
2413.865	5425
2415.84	5466
2417.814	5510
2419.788	5471
2421.762	5341
2423.735	5529
2425.708	5399
2427.68	5501
2429.651	5545
2431.623	5567
2433.593	5444
2435.564	5500
2437.533	5491
2439.502	5489
2441.47	5513
2443.438	5548
2445.406	5513
2447.373	5405
2449.34	5443
2451.305	5377
2453.271	5559
2455.235	5411
2457.201	5447
2459.165	5421
2461.129	5313
2463.092	5503
2465.054	5372
2467.018	5314
2468.978	5508
2470.939	5242
2472.899	5310
2474.86	5457
2476.819	5363
2478.778	5435
2480.737	5444
2482.695	5364
2484.653	5394
2486.609	5377
2488.567	5471
2490.524	5452
2492.478	5310
2494.433	5335
2496.387	5366
2498.343	5275
2500.297	5439
2502.249	5437
2504.202	5435
2506.153	5423
2508.105	5456
2510.057	5282
2512.008	5336
2513.957	5283
2515.906	5343
2517.855	5306
2519.805	5373
2521.754	5442
2523.7	5404
2525.647	5373
2527.594	5253
2529.54	5332
2531.486	5260
2533.431	5327
2535.376	5396
2537.32	5268
2539.263	5340
2541.207	5354
2543.151	5343
2545.093	5185
2547.034	5239
2548.975	5326
2550.917	5387
2552.856	5296
2554.796	5424
2556.735	5224
2558.673	5363
2560.611	5397
2562.55	5345
2564.487	5300
2566.424	5273
2568.36	5295
2570.296	5246
2572.232	5362
2574.167	5300
2576.101	5385
2578.035	5247
2579.969	5287
2581.902	5328
2583.834	5414
2585.766	5266
2587.698	5333
2589.628	5362
2591.557	5323
2593.489	5321
2595.419	5288
2597.348	5399
2599.275	5343
2601.204	5339
2603.131	5229
2605.059	5298
2606.986	5356
2608.911	5323
2610.837	5352
2612.76	5363
2614.687	5323
2616.61	5260
2618.534	5388
2620.457	5334
2622.38	5240
2624.302	5229
2626.225	5323
2628.145	5284
2630.067	5371
2631.986	5265
2633.906	5308
2635.827	5334
2637.745	5377
2639.662	5287
2641.581	5363
2643.498	5310
2645.415	5380
2647.331	5334
2649.248	5360
2651.163	5301
2653.077	5290
2654.993	5298
2656.906	5268
2658.821	5333
2660.733	5315
2662.646	5288
2664.557	5336
2666.47	5374
2668.381	5243
2670.291	5354
2672.201	5410
2674.11	5133
2676.021	5294
2677.929	5292
2679.837	5254
2681.745	5246
2683.652	5251
2685.56	5174
2687.466	5155
2689.371	5321
2691.276	5090
2693.181	5284
2695.085	5354
2696.991	5255
2698.893	5249
2700.796	5076
2702.698	5289
2704.601	5274
2706.502	5102
2708.404	5237
2710.304	5215
2712.203	5209
2714.103	5199
2716.003	5203
2717.902	5255
2719.8	5221
2721.697	5262
2723.594	5220
2725.49	5281
2727.389	5252
2729.283	5147
2731.179	5154
2733.073	5161
2734.968	5150
2736.863	5205
2738.757	5249
2740.649	5228
2742.541	5189
2744.433	5156
2746.324	5121
2748.216	5154
2750.107	5192
2751.997	5155
2753.886	5120
2755.776	5204
2757.666	5237
2759.553	5158
2761.44	5068
2763.327	5157
2765.215	5085
2767.102	5168
2768.988	5156
2770.873	5113
2772.757	5081
2774.641	5057
2776.525	5095
2778.41	5213
2780.292	5185
2782.175	5175
2784.057	5128
2785.938	5080
2787.821	5158
2789.701	5108
2791.581	5105
2793.461	4957
2795.34	5169
2797.219	5155
2799.099	5070
2800.975	5077
2802.853	5109
2804.73	5146
2806.606	5117
2808.484	5129
2810.358	5074
2812.233	5143
2814.108	5067
2815.981	5037
2817.857	5114
2819.73	5020
2821.602	5063
2823.474	5113
2825.346	5188
2827.217	5056
2829.089	5091
2830.959	5070
2832.829	5114
2834.698	5116
2836.567	5049
2838.436	5144
2840.305	5094
2842.172	5186
2844.04	5105
2845.905	5195
2847.772	5178
2849.639	5185
2851.503	5144
2853.369	5212
2855.232	5166
2857.096	5210
2858.961	5358
2860.824	5266
2862.686	5232
2864.547	5309
2866.41	5346
2868.272	5327
2870.132	5580
2871.992	5430
2873.851	5539
2875.711	5378
2877.57	5657
2879.429	5527
2881.287	5576
2883.144	5556
2885.001	5769
2886.857	5654
2888.714	5741
2890.57	5778
2892.425	5672
2894.279	5764
2896.133	5552
2897.987	5747
2899.842	5814
2901.694	5736
2903.547	5740
2905.397	5675
2907.249	5658
2909.101	5679
2910.952	5678
2912.802	5761
2914.652	5780
2916.5	5870
2918.35	5975
2920.198	5721
2922.045	5903
2923.893	6009
2925.74	6037
2927.585	5958
2929.433	6161
2931.279	6220
2933.123	6260
2934.968	6206
2936.811	6252
2938.656	6393
2940.5	6342
2942.342	6292
2944.185	6334
2946.026	6507
2947.87	6514
2949.71	6512
2951.549	6447
2953.39	6426
2955.229	6451
2957.069	6283
2958.908	6235
2960.746	6310
2962.584	6194
2964.421	6210
2966.257	6178
2968.094	6044
2969.931	6010
2971.766	6002
2973.601	5844
2975.435	5866
2977.27	5748
2979.105	5715
2980.938	5648
2982.77	5627
2984.602	5719
2986.434	5626
2988.267	5606
2990.097	5615
2991.927	5515
2993.757	5454
2995.587	5448
2997.417	5359
2999.246	5397
3001.074	5278
3002.902	5189
3004.729	5085
3006.556	5251
3008.384	5135
3010.21	5103
3012.036	5177
3013.861	5076
3015.684	4988
3017.51	5036
3019.334	5001
3021.157	4993
3022.981	4954
3024.802	4974
3026.624	4950
3028.448	4821
3030.267	4801
3032.088	4823
3033.909	4774
3035.728	4899
3037.549	4750
3039.368	4803
3041.186	4787
3043.004	4772
3044.821	4783
3046.64	4758
3048.455	4775
3050.272	4766
3052.087	4726
3053.903	4684
3055.717	4718
3057.534	4727
3059.347	4765
3061.16	4748
3062.974	4807
3064.785	4803
3066.598	4768
3068.411	4742
3070.222	4732
3072.032	4723
3073.844	4686
3075.653	4695
3077.463	4645
3079.272	4618
3081.08	4656
3082.889	4641
3084.697	4636
3086.505	4696
3088.312	4589
3090.118	4595
3091.924	4599
3093.729	4581
3095.535	4546
3097.34	4683
3099.144	4609
3100.947	4558
3102.75	4609
3104.553	4678
3106.357	4560
3108.159	4460
3109.961	4514
3111.762	4497
3113.562	4539
3115.365	4515
3117.164	4471
3118.964	4468
3120.761	4502
3122.56	4603
3124.36	4421
3126.158	4501
3127.954	4451
3129.75	4507
3131.547	4520
3133.343	4515
3135.139	4485
3136.934	4479
3138.729	4476
3140.522	4455
3142.317	4453
3144.11	4460
3145.904	4523
3147.695	4358
3149.488	4389
3151.28	4509
3153.07	4366
3154.863	4377
3156.652	4400
3158.441	4434
3160.231	4448
3162.019	4413
3163.81	4429
3165.597	4496
3167.384	4354
3169.172	4466
3170.958	4396
3172.745	4451
3174.532	4429
3176.317	4392
3178.101	4365
3179.885	4391
3181.67	4375
3183.455	4451
3185.238	4352
3187.02	4393
3188.802	4357
3190.585	4361
3192.368	4395
3194.149	4394
3195.929	4341
3197.709	4353
3199.489	4373
3201.268	4349
3203.048	4398
3204.826	4328
3206.604	4276
3208.382	4365
3210.159	4433
3211.937	4391
3213.713	4392
3215.489	4438
3217.263	4391
3219.038	4361
3220.815	4448
3222.589	4386
3224.363	4273
3226.136	4410
3227.908	4431
3229.681	4341
3231.454	4373
3233.226	4471
3234.996	4395
3236.767	4258
3238.538	4298
3240.308	4296
3242.078	4369
3243.847	4300
3245.615	4366
3247.384	4287
3249.15	4342
3250.92	4336
3252.686	4321
3254.453	4301
3256.218	4313
3257.984	4394
3259.75	4372
3261.515	4428
3263.279	4372
3265.044	4356
3266.806	4366
3268.57	4409
3270.334	4331
3272.095	4355
3273.856	4331
3275.619	4372
3277.379	4297
3279.14	4382
3280.9	4360
3282.661	4300
3284.419	4309
3286.178	4447
3287.937	4321
3289.695	4397
3291.453	4434
3293.21	4411
3294.967	4342
3296.723	4271
3298.48	4301
3300.235	4371
3301.99	4359
3303.744	4232
3305.498	4332
3307.253	4297
3309.006	4344
3310.759	4400
3312.511	4235
3314.263	4297
3316.017	4342
3317.768	4384
3319.519	4376
3321.268	4455
3323.018	4363
3324.767	4330
3326.518	4294
3328.267	4337
3330.014	4322
3331.762	4378
3333.509	4246
3335.258	4392
3337.003	4329
3338.75	4276
3340.496	4279
3342.24	4268
3343.987	4365
3345.732	4360
3347.475	4337
3349.219	4288
3350.961	4260
3352.705	4260
3354.448	4295
3356.19	4281
3357.931	4291
3359.672	4153
3361.412	4365
3363.155	4230
3364.894	4252
3366.633	4329
3368.372	4255
3370.11	4259
3371.849	4178
3373.588	4311
3375.325	4292
3377.061	4177
3378.799	4278
3380.534	4287
3382.271	4201
3384.006	4285
3385.741	4261
3387.475	4168
3389.209	4145
3390.944	4228
3392.677	4311
3394.409	4171
3396.143	4207
3397.874	4201
3399.606	4150
3401.338	4182
3403.069	4225
3404.799	4184
3406.528	4053
3408.258	4186
3409.988	4158
3411.717	4178
3413.445	4166
3415.173	4178
3416.899	4274
3418.626	4162
3420.354	4105
3422.08	4177
3423.806	4150
3425.531	4225
3427.255	4074
3428.981	4146
3430.705	4078
3432.429	4106
3434.151	4194
3435.875	4131
3437.599	4109
3439.321	4071
3441.042	4158
3442.763	4072
3444.483	4076
3446.204	4110
3447.926	4088
3449.645	3900
3451.364	4151
3453.082	4101
3454.801	4037
3456.52	4047
3458.238	4133
3459.954	3981
3461.671	4023
3463.387	4058
3465.104	4018
3466.82	3959
3468.534	3949
3470.25	4021
3471.963	4019
3473.676	4081
3475.392	4013
3477.104	3995
3478.817	3900
3480.528	3986
3482.241	3927
3483.954	4011
3485.664	3904
3487.374	3984
3489.084	3937
3490.795	3932
3492.504	3976
3494.214	3903
3495.922	3922
3497.63	3993
3499.338	3975
3501.045	3915
3502.753	3879
3504.459	3835
3506.166	3831
3507.871	3918
3509.576	3886
3511.283	3894
3512.987	3870
3514.691	3869
3516.395	3866
3518.098	3884
3519.8	3790
3521.504	3889
3523.206	3902
3524.908	3860
3526.609	3819
3528.309	3845
3530.011	3876
3531.711	3762
3533.411	3894
3535.109	3835
3536.808	3760
3538.507	3872
3540.206	3862
3541.904	3810
3543.601	3825
3545.297	3846
3546.994	3839
3548.69	3806
3550.387	3815
3552.081	3826
3553.776	3830
3555.47	3811
3557.166	3821
3558.859	3910
3560.553	3786
3562.245	3784
3563.938	3704
3565.629	3748
3567.322	3784
3569.014	3848
3570.704	3790
3572.394	3746
3574.084	3740
3575.775	3909
3577.464	3783
3579.152	3769
3580.842	3673
3582.529	3605
3584.216	3596
3585.905	3860
3587.591	3667
3589.279	3616
3590.964	3626
3592.649	3765
3594.336	3729
3596.021	3650
3597.705	3713
3599.388	3773
3601.072	3754
3602.757	3636
3604.439	3650
3606.122	3716
3607.803	3694
3609.485	3657
3611.167	3620
3612.849	3757
3614.529	3645
3616.208	3587
3617.888	3619
3619.567	3594
3621.247	3653
3622.926	3608
3624.603	3655
3626.281	3583
3627.958	3593
3629.635	3638
3631.312	3615
3632.989	3635
3634.665	3613
3636.339	3547
3638.014	3594
3639.691	3537
3641.364	3593
3643.038	3547
3644.71	3524
3646.384	3499
3648.058	3610
3649.729	3554
3651.402	3522
3653.073	3567
3654.744	3571
3656.414	3505
3658.085	3512
3659.755	3516
3661.424	3479
3663.094	3490
3664.762	3489
3666.431	3466
3668.099	3483
3669.766	3462
3671.433	3462
3673.099	3460
3674.768	3568
3676.433	3486
3678.098	3526
3679.763	3514
3681.428	3512
3683.093	3505
3684.757	3491
3686.421	3454
3688.083	3495
3689.746	3487
3691.408	3497
3693.071	3435
3694.733	3510
3696.394	3357
3698.054	3515
3699.715	3422
3701.375	3472
3703.036	3432
3704.695	3478
3706.354	3389
3708.012	3399
3709.67	3466
3711.329	3371
3712.987	3406
3714.644	3465
3716.299	3438
3717.955	3463
3719.613	3424
3721.268	3457
3722.923	3395
3724.577	3361
3726.231	3438
3727.885	3428
3729.539	3387
3731.192	3405
3732.845	3369
3734.497	3361
3736.149	3398
3737.802	3423
3739.453	3418
3741.104	3394
3742.753	3356
3744.404	3339
3746.052	3410
3747.704	3360
3749.352	3324
3751	3351
3752.648	3377
3754.296	3393
3755.944	3403
3757.59	3381
3759.238	3388
3760.883	3442
3762.528	3217
3764.176	3331
3765.82	3373
3767.464	3301
3769.109	3463
3770.753	3391
3772.396	3305
3774.04	3354
3775.683	3360
3777.325	3309
3778.967	3323
3780.608	3370
3782.25	3326
3783.89	3288
3785.531	3270
3787.17	3313
3788.81	3328
3790.45	3319
3792.09	3349
3793.729	3242
3795.366	3370
3797.003	3319
3798.64	3250
3800.278	3341
3801.915	3361
3803.551	3295
3805.187	3281
3806.822	3293
3808.458	3253
3810.093	3293
3811.726	3270
3813.36	3303
3814.994	3222
3816.627	3190
3818.262	3194
3819.893	3219
3821.525	3263
3823.157	3259
3824.787	3282
3826.42	3160
3828.051	3258
3829.68	3152
3831.31	3203
3832.938	3285
3834.569	3168
3836.198	3247
3837.825	3154
3839.454	3188
3841.08	3194
3842.708	3283
3844.335	3185
3845.962	3285
3847.587	3213
3849.212	3209
3850.838	3220
3852.463	3237
3854.089	3225
3855.712	3134
3857.335	3138
3858.959	3228
3860.582	3210
3862.205	3251
3863.827	3229
3865.449	3109
3867.07	3186
3868.691	3114
3870.312	3147
3871.933	3177
3873.553	3221
3875.173	3116
3876.792	3062
3878.411	3124
3880.03	3136
3881.647	3107
3883.265	3054
3884.882	3135
3886.499	3149
3888.116	3123
3889.732	3152
3891.348	3203
3892.964	3086
3894.579	3080
3896.195	3158
3897.809	3099
3899.423	3107
3901.036	3141
3902.648	3087
3904.261	3082
3905.875	3109
3907.487	3072
3909.099	3097
3910.709	3132
3912.321	3132
3913.933	3172
3915.542	3104
3917.152	3077
3918.762	3113
3920.37	3155
3921.98	3110
3923.589	3002
3925.196	3067
3926.804	3108
3928.41	3081
3930.018	3102
3931.626	3012
3933.231	3046
3934.838	3089
3936.442	3140
3938.046	3059
3939.653	3053
3941.257	3031
3942.861	3062
3944.464	3100
3946.068	3118
3947.67	3069
3949.273	3200
3950.876	3013
3952.477	3094
3954.078	3115
3955.678	3098
3957.281	3051
3958.881	3023
3960.48	3049
3962.079	3015
3963.678	3076
3965.279	3039
3966.877	3032
3968.475	3068
3970.072	2963
3971.669	3041
3973.266	3073
3974.864	3005
3976.459	2930
3978.055	3039
3979.65	3011
3981.245	2941
3982.841	2946
3984.436	2971
3986.03	2969
3987.623	2979
3989.216	2957
3990.809	2959
3992.403	2912
3993.995	2978
3995.586	2991
3997.177	2954
3998.768	2982
4000.361	2912
4001.951	2987
4003.54	2904
4005.13	2989
4006.719	2972
4008.31	2827
4009.897	2916
4011.485	2930
4013.073	2897
4014.66	2982
4016.247	2925
4017.834	2888
4019.421	2941
4021.006	2869
4022.592	2906
4024.178	2817
4025.763	2912
4027.348	2864
4028.932	2901
4030.515	2859
4032.099	2861
4033.682	2870
4035.266	2814
4036.847	2893
4038.429	2885
4040.011	2822
4041.592	2822
4043.173	2843
4044.755	2853
4046.334	2801
4047.913	2823
4049.494	2803
4051.074	2879
4052.652	2851
4054.23	2827
4055.807	2856
4057.385	2895
4058.963	2799
4060.541	2856
4062.117	2824
4063.693	2890
4065.269	2786
4066.844	2754
4068.42	2791
4069.995	2775
4071.569	2872
4073.143	2770
4074.716	2763
4076.291	2797
4077.864	2710
4079.436	2790
4081.009	2766
4082.58	2845
4084.152	2748
4085.723	2786
4087.294	2777
4088.865	2700
4090.435	2752
4092.005	2793
4093.574	2773
4095.143	2792
4096.712	2805
4098.279	2816
4099.848	2798
4101.416	2756
4102.984	2784
4104.55	2763
4106.117	2738
4107.682	2736
4109.248	2731
4110.815	2765
4112.379	2702
4113.945	2750
4115.508	2714
4117.073	2679
4118.637	2666
4120.201	2736
4121.763	2674
4123.325	2737
4124.888	2655
4126.449	2706
4128.013	2688
4129.573	2699
4131.133	2728
4132.694	2612
4134.254	2627
4135.814	2741
4137.374	2656
4138.933	2713
4140.491	2634
4142.049	2640
4143.607	2661
4145.167	2733
4146.724	2683
4148.28	2661
4149.836	2661
4151.392	2693
4152.949	2679
4154.504	2579
4156.059	2601
4157.614	2618
4159.168	2696
4160.723	2605
4162.277	2687
4163.83	2627
4165.383	2633
4166.936	2623
4168.488	2691
4170.041	2594
4171.593	2594
4173.144	2595
4174.695	2548
4176.246	2585
4177.796	2614
4179.346	2584
4180.896	2576
4182.445	2636
4183.994	2650
4185.542	2536
4187.091	2616
4188.639	2617
4190.185	2561
4191.732	2568
4193.279	2529
4194.826	2609
4196.373	2553
4197.918	2569
4199.463	2552
4201.008	2549
4202.553	2505
4204.098	2568
4205.641	2591
4207.185	2565
4208.728	2533
4210.271	2504
4211.814	2495
4213.357	2534
4214.898	2615
4216.439	2546
4217.98	2530
4219.522	2505
4221.062	2547
4222.603	2457
4224.142	2554
4225.681	2545
4227.222	2584
4228.76	2541
4230.298	2608
4231.835	2570
4233.373	2542
4234.911	2538
4236.449	2511
4237.985	2542
4239.521	2498
4241.057	2510
4242.592	2534
4244.128	2587
4245.663	2467
4247.197	2518
4248.731	2512
4250.265	2502
4251.798	2513
4253.333	2531
4254.865	2483
4256.397	2477
4257.93	2440
4259.461	2461
4260.994	2469
4262.525	2488
4264.056	2499
4265.586	2478
4267.115	2457
4268.646	2478
4270.176	2423
4271.705	2424
4273.232	2434
4274.761	2447
4276.289	2454
4277.818	2482
4279.345	2421
4280.872	2426
4282.399	2462
4283.924	2480
4285.452	2486
4286.976	2374
4288.502	2503
4290.026	2447
4291.551	2453
4293.074	2434
4294.6	2504
4296.123	2452
4297.646	2458
4299.168	2434
4300.691	2403
4302.214	2463
4303.736	2445
4305.257	2408
4306.778	2435
4308.299	2402
4309.82	2479
4311.34	2404
4312.86	2439
4314.379	2422
