400.0745	4265
402.597	4344
405.1208	4244
407.6419	4293
410.1623	4329
412.6819	4404
415.201	4402
417.7172	4426
420.2369	4467
422.7538	4418
425.2701	4503
427.7856	4471
430.3005	4567
432.8147	4611
435.3282	4578
437.841	4642
440.3511	4629
442.8625	4631
445.3753	4586
447.8854	4564
450.3927	4738
452.9014	4642
455.4073	4645
457.9146	4558
460.4233	4663
462.9272	4471
465.4325	4657
467.935	4675
470.4389	4602
472.9421	4581
475.4446	4571
477.9444	4579
480.4456	4647
482.944	4578
485.4417	4618
487.9429	4594
490.4393	4761
492.935	4741
495.4321	4652
497.9264	4731
500.4221	4670
502.9171	4768
505.4094	4786
507.9011	4720
510.392	4778
512.8864	4809
515.3759	4776
517.8649	4747
520.3531	4820
522.8406	4838
525.3275	4813
527.8178	4762
530.3033	4803
532.7881	4770
535.2723	4745
537.7558	4762
540.2407	4758
542.7228	4836
545.2043	4873
547.6851	4823
550.1652	4749
552.6467	4882
555.1255	4853
557.6016	4927
560.079	4897
562.5557	4926
565.0318	4888
567.5092	4867
569.984	4877
572.456	4949
574.9294	4898
577.4022	5030
579.8762	4978
582.3456	5029
584.8163	4909
587.2863	4990
589.7557	5130
592.2224	5089
594.6924	4899
597.1578	5074
599.6245	5063
602.0905	5042
604.5538	4899
607.0206	5128
609.4825	5048
611.9459	5044
614.4066	5016
616.8686	4958
619.33	5040
621.7906	5016
624.2487	4939
626.708	4995
629.1647	4932
631.6207	4976
634.0801	5060
636.5348	5027
638.9888	5120
641.4442	4995
643.8969	4971
646.3509	4940
648.8022	5040
651.255	5010
653.705	5087
656.1544	5057
658.6031	5106
661.0532	5139
663.5026	5105
665.9493	5072
668.3954	5143
670.8409	5249
673.2877	5151
675.7318	5185
678.1752	5182
680.618	5088
683.0601	5196
685.5035	5200
687.9444	5177
690.3845	5178
692.824	5133
695.2628	5232
697.701	5243
700.1406	5244
702.5774	5282
705.0116	5281
707.4472	5273
709.8821	5280
712.3183	5256
714.7519	5242
717.1829	5176
719.6151	5195
722.0468	5165
724.4777	5298
726.908	5336
729.3377	5358
731.7667	5433
734.1931	5326
736.6208	5413
739.0498	5343
741.4742	5459
743.9	5381
746.3231	5433
748.7476	5395
751.1713	5415
753.5945	5447
756.015	5495
758.4368	5600
760.856	5532
763.2766	5520
765.6965	5663
768.1157	5567
770.5323	5532
772.9483	5654
775.3656	5704
777.7822	5523
780.1963	5559
782.6116	5530
785.0244	5663
787.4365	5601
789.8499	5560
792.2626	5624
794.6728	5574
797.0823	5564
799.4911	5583
801.8994	5604
804.3109	5601
806.7178	5563
809.124	5469
811.5297	5684
813.9347	5689
816.341	5692
818.7447	5705
821.1478	5600
823.5502	5586
825.952	5733
828.3531	5621
830.7556	5632
833.1554	5639
835.5546	5657
837.9532	5647
840.3511	5663
842.7504	5654
845.1451	5693
847.5411	5769
849.9365	5660
852.3312	5790
854.7272	5692
857.1187	5677
859.5115	5772
861.9037	5678
864.2952	5817
866.6842	5801
869.0764	5709
871.4661	5734
873.8531	5724
876.2415	5752
878.6272	5798
881.0162	5755
883.4026	5633
885.7866	5705
888.1717	5712
890.5543	5671
892.9382	5634
895.3215	5700
897.7041	5677
900.0842	5711
902.4655	5704
904.8443	5753
907.2244	5732
909.6039	5794
911.9808	5752
914.357	5836
916.7346	5865
919.1115	5926
921.4859	5773
923.8616	5938
926.2347	5929
928.6071	5958
930.979	5955
933.3541	5933
935.7247	6034
938.0946	5945
940.4639	6110
942.8326	6084
945.2026	6208
947.5701	6306
949.9369	6319
952.305	6394
954.6705	6733
957.0355	6772
959.4017	7000
961.7654	7037
964.1284	7021
966.4908	6980
968.8527	6696
971.2138	6608
973.5743	6357
975.9343	6179
978.2936	6073
980.6522	6075
983.0122	5986
985.3696	5937
987.7245	5940
990.0807	5933
992.4362	5845
994.7911	5932
997.1474	5918
999.4991	5926
1001.852	6022
1004.205	6024
1006.555	5958
1008.908	6028
1011.258	5975
1013.606	5934
1015.956	5885
1018.302	6029
1020.652	5960
1022.998	5780
1025.345	5974
1027.691	5994
1030.035	5960
1032.378	6064
1034.724	6071
1037.066	5963
1039.409	6058
1041.75	5977
1044.092	6054
1046.433	6080
1048.771	5985
1051.112	6007
1053.449	5898
1055.786	6020
1058.124	6068
1060.462	6066
1062.797	6074
1065.131	6138
1067.467	6128
1069.8	6097
1072.135	6224
1074.467	6178
1076.798	6146
1079.129	6158
1081.459	6125
1083.792	6177
1086.121	6148
1088.449	6120
1090.777	6131
1093.104	6042
1095.431	6101
1097.759	6190
1100.084	6058
1102.408	5976
1104.732	6278
1107.056	6944
1109.379	6671
1111.701	6135
1114.022	6088
1116.343	6136
1118.664	5997
1120.983	6153
1123.303	6077
1125.621	6161
1127.939	6188
1130.256	6073
1132.573	6120
1134.889	5986
1137.205	6127
1139.52	6121
1141.832	6097
1144.146	6063
1146.461	6070
1148.771	6080
1151.083	6143
1153.392	6175
1155.703	6111
1158.011	6125
1160.323	6097
1162.629	6209
1164.938	6116
1167.243	6140
1169.55	6096
1171.857	6120
1174.163	6201
1176.466	6104
1178.769	6116
1181.073	6127
1183.374	6158
1185.677	6027
1187.979	6048
1190.279	6085
1192.578	6038
1194.878	6184
1197.178	6040
1199.476	6230
1201.772	6088
1204.068	6146
1206.366	6256
1208.663	6325
1210.957	5988
1213.251	6129
1215.544	6238
1217.836	6128
1220.128	6200
1222.421	6098
1224.712	6157
1227.002	6158
1229.292	6198
1231.581	6185
1233.871	6231
1236.159	6297
1238.446	6230
1240.732	6332
1243.018	6250
1245.304	6219
1247.59	6314
1249.874	6331
1252.156	6336
1254.439	6453
1256.721	6297
1259.005	6289
1261.286	6248
1263.565	6365
1265.845	6316
1268.125	6273
1270.403	6201
1272.682	6259
1274.959	6289
1277.234	6358
1279.511	6368
1281.787	6260
1284.062	6290
1286.337	6267
1288.609	6283
1290.882	6231
1293.153	6226
1295.428	6339
1297.698	6268
1299.969	6185
1302.237	6140
1304.507	6215
1306.777	6216
1309.044	6138
1311.312	6210
1313.578	6253
1315.844	6261
1318.109	6262
1320.375	6234
1322.638	6217
1324.903	6197
1327.165	6220
1329.427	6286
1331.69	6242
1333.952	6275
1336.212	6310
1338.471	6230
1340.73	6327
1342.988	6202
1345.248	6184
1347.505	6243
1349.763	6241
1352.019	6340
1354.274	6184
1356.53	6214
1358.784	6239
1361.038	6236
1363.291	6146
1365.543	6207
1367.797	6329
1370.048	6203
1372.296	6261
1374.546	6218
1376.796	6247
1379.045	6230
1381.295	6179
1383.542	6251
1385.787	6318
1388.034	6266
1390.28	6248
1392.527	6239
1394.772	6325
1397.014	6361
1399.258	6280
1401.501	6362
1403.741	6281
1405.985	6323
1408.226	6253
1410.465	6271
1412.705	6326
1414.943	6449
1417.184	6326
1419.42	6458
1421.658	6404
1423.894	6432
1426.13	6351
1428.366	6415
1430.602	6335
1432.835	6407
1435.069	6410
1437.301	6451
1439.535	6642
1441.767	6528
1443.997	6393
1446.229	6519
1448.458	6478
1450.687	6461
1452.916	6455
1455.146	6381
1457.372	6446
1459.599	6479
1461.824	6566
1464.051	6469
1466.277	6632
1468.501	6454
1470.725	6363
1472.948	6463
1475.17	6387
1477.393	6423
1479.614	6214
1481.837	6408
1484.057	6228
1486.276	6252
1488.497	6268
1490.715	6304
1492.932	6279
1495.148	6265
1497.364	6309
1499.58	6364
1501.798	6200
1504.012	6119
1506.227	6165
1508.44	6248
1510.653	6242
1512.866	6175
1515.078	6249
1517.289	6153
1519.5	6239
1521.711	6154
1523.92	6148
1526.13	6087
1528.338	6214
1530.544	6231
1532.752	6348
1534.959	6321
1537.165	6223
1539.371	6209
1541.574	6263
1543.779	6230
1545.983	6185
1548.187	6308
1550.39	6290
1552.59	6294
1554.792	6367
1556.991	6399
1559.19	6278
1561.392	6303
1563.59	6293
1565.789	6452
1567.986	6281
1570.182	6385
1572.381	6431
1574.576	6383
1576.771	6352
1578.966	6314
1581.16	6276
1583.354	6421
1585.546	6423
1587.74	6398
1589.931	6417
1592.121	6389
1594.311	6405
1596.502	6445
1598.693	6428
1600.881	6428
1603.069	6331
1605.256	6370
1607.445	6428
1609.631	6487
1611.816	6431
1614.001	6442
1616.186	6447
1618.37	6557
1620.555	6360
1622.737	6499
1624.919	6476
1627.101	6504
1629.282	6431
1631.463	6436
1633.643	6445
1635.822	6512
1638.001	6398
1640.179	6556
1642.359	6468
1644.534	6509
1646.711	6543
1648.887	6627
1651.062	6648
1653.235	6487
1655.412	6553
1657.586	6544
1659.757	6577
1661.93	6353
1664.1	6580
1666.274	6473
1668.445	6600
1670.614	6568
1672.784	6499
1674.951	6509
1677.12	6590
1679.289	6572
1681.457	6666
1683.622	6663
1685.789	6499
1687.953	6499
1690.121	6561
1692.284	6407
1694.447	6512
1696.611	6463
1698.772	6525
1700.935	6443
1703.098	6484
1705.258	6449
1707.417	6355
1709.576	6503
1711.736	6485
1713.896	6346
1716.053	6386
1718.21	6356
1720.366	6433
1722.522	6369
1724.68	6439
1726.835	6355
1728.989	6452
1731.142	6385
1733.295	6281
1735.449	6404
1737.601	6480
1739.753	6310
1741.903	6405
1744.054	6374
1746.203	6468
1748.354	6361
1750.503	6407
1752.651	6440
1754.798	6458
1756.944	6507
1759.092	6450
1761.238	6309
1763.383	6470
1765.528	6479
1767.672	6426
1769.814	6443
1771.959	6486
1774.102	6518
1776.242	6563
1778.384	6433
1780.525	6577
1782.665	6387
1784.805	6542
1786.945	6488
1789.082	6548
1791.22	6543
1793.36	6374
1795.495	6376
1797.632	6594
1799.766	6433
1801.902	6444
1804.035	6453
1806.172	6408
1808.304	6455
1810.436	6454
1812.569	6491
1814.699	6435
1816.833	6427
1818.963	6509
1821.092	6474
1823.222	6524
1825.35	6507
1827.478	6510
1829.608	6457
1831.734	6529
1833.86	6390
1835.986	6518
1838.11	6462
1840.238	6427
1842.362	6489
1844.485	6351
1846.608	6473
1848.73	6439
1850.853	6397
1852.974	6466
1855.097	6533
1857.217	6288
1859.336	6367
1861.455	6333
1863.576	6418
1865.693	6410
1867.811	6299
1869.926	6323
1872.042	6450
1874.16	6488
1876.275	6359
1878.39	6364
1880.504	6383
1882.618	6431
1884.731	6378
1886.843	6415
1888.956	6531
1891.067	6378
1893.178	6580
1895.287	6494
1897.399	6507
1899.508	6421
1901.617	6461
1903.724	6457
1905.832	6384
1907.941	6497
1910.046	6390
1912.152	6498
1914.256	6435
1916.361	6514
1918.464	6439
1920.57	6461
1922.672	6507
1924.775	6478
1926.876	6461
1928.978	6496
1931.08	6480
1933.181	6542
1935.28	6536
1937.38	6520
1939.478	6452
1941.577	6502
1943.675	6537
1945.771	6433
1947.867	6467
1949.964	6573
1952.058	6515
1954.154	6524
1956.248	6507
1958.343	6483
1960.435	6515
1962.527	6557
1964.62	6559
1966.711	6537
1968.802	6454
1970.892	6384
1972.983	6453
1975.072	6530
1977.162	6489
1979.25	6418
1981.337	6416
1983.424	6432
1985.51	6513
1987.598	6524
1989.683	6528
1991.768	6414
1993.852	6446
1995.934	6386
1998.019	6444
2000.102	6275
2002.184	6385
2004.266	6436
2006.347	6360
2008.427	6420
2010.508	6381
2012.587	6454
2014.666	6384
2016.745	6439
2018.821	6369
2020.9	6486
2022.977	6411
2025.052	6512
2027.128	6339
2029.204	6540
2031.277	6422
2033.353	6424
2035.425	6513
2037.499	6445
2039.57	6430
2041.642	6397
2043.714	6334
2045.786	6421
2047.855	6486
2049.925	6430
2051.993	6386
2054.064	6363
2056.132	6372
2058.2	6423
2060.266	6484
2062.332	6355
2064.398	6387
2066.465	6375
2068.529	6398
2070.592	6444
2072.657	6617
2074.719	6571
2076.783	6410
2078.845	6414
2080.907	6394
2082.968	6426
2085.028	6479
2087.087	6513
2089.148	6415
2091.207	6317
2093.264	6395
2095.322	6401
2097.379	6506
2099.439	6465
2101.495	6414
2103.55	6376
2105.605	6414
2107.658	6444
2109.713	6465
2111.767	6366
2113.82	6376
2115.872	6519
2117.924	6395
2119.975	6422
2122.028	6465
2124.078	6388
2126.126	6448
2128.176	6487
2130.225	6352
2132.275	6261
2134.321	6395
2136.368	6394
2138.415	6494
2140.461	6328
2142.505	6469
2144.552	6331
2146.597	6411
2148.64	6360
2150.684	6323
2152.725	6421
2154.77	6420
2156.811	6439
2158.852	6394
2160.894	6306
2162.933	6322
2164.973	6376
2167.013	6371
2169.051	6324
2171.089	6363
2173.126	6301
2175.164	6333
2177.201	6263
2179.236	6232
2181.273	6352
2183.307	6258
2185.341	6297
2187.377	6244
2189.41	6251
2191.442	6274
2193.473	6312
2195.506	6305
2197.539	6228
2199.569	6164
2201.598	6266
2203.628	6137
2205.656	6258
2207.686	6190
2209.716	6180
2211.743	6240
2213.769	6180
2215.796	6387
2217.821	6256
2219.848	6140
2221.873	6158
2223.897	6272
2225.921	6185
2227.944	6180
2229.967	6237
2231.991	6114
2234.011	6221
2236.032	6212
2238.053	6134
2240.073	6170
2242.094	6169
2244.114	6076
2246.131	6155
2248.149	6150
2250.167	6226
2252.186	6225
2254.201	6224
2256.218	6189
2258.233	6146
2260.247	6219
2262.262	6166
2264.278	6202
2266.29	6143
2268.303	6123
2270.315	6101
2272.327	6215
2274.341	6291
2276.35	6224
2278.361	6215
2280.37	6071
2282.38	6275
2284.388	6195
2286.397	6252
2288.405	6269
2290.412	6086
2292.419	6220
2294.425	6133
2296.431	6267
2298.437	6160
2300.441	6208
2302.445	6164
2304.449	6052
2306.453	6192
2308.455	6204
2310.457	6183
2312.459	6260
2314.46	6079
2316.46	6063
2318.461	6125
2320.46	6210
2322.458	6084
2324.458	6131
2326.456	6205
2328.455	5984
2330.451	6071
2332.447	6118
2334.443	6190
2336.438	6128
2338.433	6075
2340.429	6082
2342.422	6153
2344.416	6063
2346.408	6010
2348.399	6185
2350.393	6156
2352.384	5956
2354.375	6100
2356.365	6015
2358.355	6126
2360.344	6191
2362.333	6110
2364.322	6108
2366.309	6071
2368.295	6033
2370.282	5890
2372.27	6012
2374.256	6015
2376.24	6001
2378.225	6056
2380.208	6083
2382.194	5946
2384.177	5956
2386.159	6045
2388.142	5944
2390.122	5974
2392.105	5939
2394.085	5945
2396.066	5945
2398.044	5927
2400.024	5998
2402.002	5908
2403.982	6002
2405.959	6088
2407.935	6004
2409.913	5990
2411.888	5888
2413.865	6033
2415.84	5965
2417.814	5939
2419.788	5944
2421.762	6059
2423.735	6027
2425.708	5992
2427.68	5887
2429.651	5962
2431.623	5902
2433.593	5940
2435.564	5935
2437.533	5946
2439.502	5927
2441.47	5806
2443.438	5989
2445.406	5869
2447.373	5866
2449.34	5983
2451.305	6014
2453.271	5884
2455.235	5860
2457.201	5976
2459.165	5924
2461.129	5893
2463.092	5905
2465.054	5905
2467.018	5889
2468.978	5868
2470.939	5927
2472.899	5953
2474.86	5766
2476.819	5778
2478.778	5953
2480.737	5869
2482.695	5840
2484.653	5953
2486.609	5841
2488.567	5872
2490.524	5873
2492.478	5899
2494.433	5885
2496.387	5821
2498.343	5895
2500.297	5785
2502.249	5717
2504.202	5890
2506.153	5830
2508.105	5806
2510.057	5756
2512.008	5815
2513.957	5877
2515.906	5812
2517.855	5800
2519.805	5800
2521.754	5829
2523.7	5807
2525.647	5846
2527.594	5828
2529.54	5801
2531.486	5837
2533.431	5815
2535.376	5858
2537.32	5831
2539.263	5712
2541.207	5820
2543.151	5827
2545.093	5688
2547.034	5804
2548.975	5792
2550.917	5771
2552.856	5752
2554.796	5747
2556.735	5814
2558.673	5667
2560.611	5819
2562.55	5836
2564.487	5788
2566.424	5771
2568.36	5819
2570.296	5825
2572.232	5810
2574.167	5773
2576.101	5859
2578.035	5777
2579.969	5806
2581.902	5810
2583.834	5765
2585.766	5769
2587.698	5748
2589.628	5890
2591.557	5778
2593.489	5889
2595.419	5826
2597.348	5780
2599.275	5730
2601.204	5670
2603.131	5784
2605.059	5744
2606.986	5787
2608.911	5825
2610.837	5809
2612.76	5815
2614.687	5725
2616.61	5816
2618.534	5737
2620.457	5811
2622.38	5797
2624.302	5857
2626.225	5834
2628.145	5756
2630.067	5779
2631.986	5785
2633.906	5898
2635.827	5782
2637.745	5739
2639.662	5810
2641.581	5869
2643.498	5862
2645.415	5792
2647.331	5756
2649.248	5817
2651.163	5769
2653.077	5856
2654.993	5779
2656.906	5803
2658.821	5794
2660.733	5688
2662.646	5837
2664.557	5805
2666.47	5877
2668.381	5683
2670.291	5724
2672.201	5742
2674.11	5826
2676.021	5734
2677.929	5894
2679.837	5711
2681.745	5682
2683.652	5697
2685.56	5642
2687.466	5731
2689.371	5610
2691.276	5757
2693.181	5755
2695.085	5608
2696.991	5688
2698.893	5667
2700.796	5601
2702.698	5662
2704.601	5629
2706.502	5726
2708.404	5692
2710.304	5680
2712.203	5740
2714.103	5676
2716.003	5682
2717.902	5669
2719.8	5633
2721.697	5599
2723.594	5603
2725.49	5670
2727.389	5716
2729.283	5568
2731.179	5692
2733.073	5598
2734.968	5755
2736.863	5650
2738.757	5705
2740.649	5743
2742.541	5720
2744.433	5657
2746.324	5659
2748.216	5548
2750.107	5574
2751.997	5695
2753.886	5528
2755.776	5594
2757.666	5760
2759.553	5667
2761.44	5585
2763.327	5619
2765.215	5620
2767.102	5621
2768.988	5544
2770.873	5608
2772.757	5620
2774.641	5552
2776.525	5586
2778.41	5640
2780.292	5580
2782.175	5535
2784.057	5521
2785.938	5654
2787.821	5624
2789.701	5622
2791.581	5487
2793.461	5467
2795.34	5587
2797.219	5604
2799.099	5626
2800.975	5327
2802.853	5580
2804.73	5544
2806.606	5580
2808.484	5475
2810.358	5550
2812.233	5610
2814.108	5575
2815.981	5581
2817.857	5492
2819.73	5485
2821.602	5584
2823.474	5406
2825.346	5407
2827.217	5574
2829.089	5471
2830.959	5548
2832.829	5551
2834.698	5533
2836.567	5499
2838.436	5558
2840.305	5485
2842.172	5606
2844.04	5531
2845.905	5569
2847.772	5535
2849.639	5574
2851.503	5480
2853.369	5532
2855.232	5495
2857.096	5619
2858.961	5521
2860.824	5462
2862.686	5659
2864.547	5579
2866.41	5502
2868.272	5562
2870.132	5605
2871.992	5757
2873.851	5691
2875.711	5765
2877.57	5804
2879.429	5810
2881.287	5908
2883.144	5891
2885.001	5887
2886.857	5781
2888.714	5759
2890.57	5772
2892.425	5860
2894.279	5821
2896.133	5854
2897.987	5782
2899.842	5835
2901.694	5814
2903.547	5791
2905.397	5700
2907.249	5760
2909.101	5819
2910.952	5802
2912.802	5924
2914.652	5825
2916.5	5979
2918.35	5899
2920.198	6027
2922.045	5927
2923.893	6043
2925.74	6123
2927.585	6130
2929.433	6175
2931.279	6185
2933.123	6214
2934.968	6304
2936.811	6342
2938.656	6303
2940.5	6299
2942.342	6495
2944.185	6393
2946.026	6460
2947.87	6421
2949.71	6374
2951.549	6325
2953.39	6384
2955.229	6333
2957.069	6311
2958.908	6113
2960.746	6160
2962.584	6130
2964.421	6057
2966.257	6123
2968.094	6057
2969.931	5906
2971.766	5881
2973.601	5911
2975.435	5924
2977.27	5859
2979.105	5820
2980.938	5861
2982.77	5749
2984.602	5884
2986.434	5803
2988.267	5801
2990.097	5691
2991.927	5663
2993.757	5731
2995.587	5691
2997.417	5593
2999.246	5599
3001.074	5535
3002.902	5598
3004.729	5492
3006.556	5429
3008.384	5485
3010.21	5421
3012.036	5360
3013.861	5280
3015.684	5377
3017.51	5408
3019.334	5131
3021.157	5263
3022.981	5281
3024.802	5156
3026.624	5265
3028.448	5161
3030.267	5258
3032.088	5208
3033.909	5207
3035.728	5221
3037.549	5149
3039.368	5342
3041.186	5145
3043.004	5196
3044.821	5175
3046.64	5206
3048.455	5185
3050.272	5194
3052.087	5123
3053.903	5151
3055.717	5150
3057.534	5217
3059.347	5181
3061.16	5086
3062.974	5033
3064.785	5157
3066.598	5137
3068.411	5107
3070.222	5036
3072.032	5179
3073.844	5109
3075.653	5110
3077.463	5159
3079.272	5042
3081.08	5101
3082.889	4961
3084.697	4928
3086.505	5144
3088.312	5022
3090.118	4993
3091.924	5023
3093.729	4948
3095.535	4910
3097.34	5037
3099.144	5092
3100.947	5174
3102.75	4892
3104.553	4973
3106.357	4919
3108.159	4910
3109.961	4918
3111.762	4994
3113.562	5061
3115.365	5012
3117.164	4961
3118.964	4982
3120.761	4916
3122.56	4924
3124.36	4976
3126.158	5009
3127.954	4969
3129.75	4808
3131.547	4882
3133.343	4824
3135.139	5020
3136.934	4932
3138.729	4941
3140.522	4893
3142.317	4955
3144.11	4800
3145.904	4898
3147.695	4886
3149.488	4879
3151.28	4839
3153.07	4878
3154.863	4823
3156.652	4895
3158.441	4845
3160.231	4823
3162.019	4902
3163.81	4908
3165.597	4760
3167.384	4772
3169.172	4847
3170.958	4791
3172.745	4848
3174.532	4794
3176.317	4851
3178.101	4865
3179.885	4830
3181.67	4738
3183.455	4758
3185.238	4754
3187.02	4885
3188.802	4792
3190.585	4733
3192.368	4801
3194.149	4833
3195.929	4799
3197.709	4748
3199.489	4736
3201.268	4832
3203.048	4804
3204.826	4730
3206.604	4783
3208.382	4850
3210.159	4738
3211.937	4774
3213.713	4782
3215.489	4848
3217.263	4833
3219.038	4791
3220.815	4736
3222.589	4770
3224.363	4736
3226.136	4873
3227.908	4764
3229.681	4734
3231.454	4719
3233.226	4718
3234.996	4738
3236.767	4686
3238.538	4656
3240.308	4740
3242.078	4784
3243.847	4812
3245.615	4764
3247.384	4675
3249.15	4848
3250.92	4675
3252.686	4759
3254.453	4752
3256.218	4658
3257.984	4653
3259.75	4639
3261.515	4740
3263.279	4653
3265.044	4652
3266.806	4716
3268.57	4695
3270.334	4683
3272.095	4719
3273.856	4724
3275.619	4766
3277.379	4794
3279.14	4736
3280.9	4704
3282.661	4663
3284.419	4637
3286.178	4696
3287.937	4747
3289.695	4691
3291.453	4715
3293.21	4796
3294.967	4724
3296.723	4691
3298.48	4671
3300.235	4641
3301.99	4759
3303.744	4709
3305.498	4631
3307.253	4684
3309.006	4646
3310.759	4603
3312.511	4639
3314.263	4720
3316.017	4660
3317.768	4693
3319.519	4607
3321.268	4662
3323.018	4769
3324.767	4711
3326.518	4644
3328.267	4705
3330.014	4654
3331.762	4711
3333.509	4682
3335.258	4735
3337.003	4585
3338.75	4663
3340.496	4683
3342.24	4724
3343.987	4640
3345.732	4691
3347.475	4613
3349.219	4600
3350.961	4606
3352.705	4577
3354.448	4699
3356.19	4614
3357.931	4566
3359.672	4620
3361.412	4579
3363.155	4560
3364.894	4590
3366.633	4582
3368.372	4605
3370.11	4630
3371.849	4602
3373.588	4561
3375.325	4502
3377.061	4539
3378.799	4560
3380.534	4512
3382.271	4567
3384.006	4533
3385.741	4602
3387.475	4516
3389.209	4474
3390.944	4605
3392.677	4636
3394.409	4495
3396.143	4543
3397.874	4485
3399.606	4426
3401.338	4581
3403.069	4621
3404.799	4535
3406.528	4621
3408.258	4356
3409.988	4539
3411.717	4428
3413.445	4414
3415.173	4521
3416.899	4450
3418.626	4482
3420.354	4527
3422.08	4477
3423.806	4457
3425.531	4554
3427.255	4451
3428.981	4394
3430.705	4393
3432.429	4415
3434.151	4468
3435.875	4403
3437.599	4438
3439.321	4438
3441.042	4462
3442.763	4474
3444.483	4547
3446.204	4501
3447.926	4433
3449.645	4393
3451.364	4370
3453.082	4412
3454.801	4383
3456.52	4366
3458.238	4363
3459.954	4389
3461.671	4377
3463.387	4397
3465.104	4340
3466.82	4248
3468.534	4417
3470.25	4384
3471.963	4328
3473.676	4263
3475.392	4269
3477.104	4221
3478.817	4305
3480.528	4260
3482.241	4311
3483.954	4299
3485.664	4293
3487.374	4281
3489.084	4217
3490.795	4218
3492.504	4095
3494.214	4272
3495.922	4169
3497.63	4278
3499.338	4242
3501.045	4181
3502.753	4150
3504.459	4195
3506.166	4251
3507.871	4193
3509.576	4121
3511.283	4246
3512.987	4201
3514.691	4149
3516.395	4175
3518.098	4177
3519.8	4233
3521.504	4189
3523.206	4136
3524.908	4052
3526.609	4145
3528.309	4041
3530.011	4182
3531.711	4071
3533.411	4212
3535.109	4103
3536.808	4120
3538.507	4113
3540.206	4077
3541.904	4179
3543.601	4055
3545.297	4090
3546.994	4040
3548.69	4147
3550.387	4072
3552.081	4112
3553.776	4035
3555.47	4054
3557.166	3974
3558.859	4116
3560.553	4013
3562.245	4069
3563.938	3947
3565.629	3993
3567.322	4036
3569.014	4026
3570.704	4071
3572.394	4071
3574.084	4067
3575.775	4085
3577.464	3993
3579.152	4072
3580.842	4002
3582.529	4003
3584.216	3996
3585.905	3957
3587.591	4017
3589.279	3973
3590.964	3931
3592.649	3969
3594.336	4017
3596.021	3952
3597.705	3908
3599.388	3906
3601.072	3928
3602.757	3970
3604.439	3797
3606.122	3928
3607.803	3915
3609.485	3985
3611.167	3949
3612.849	3876
3614.529	3843
3616.208	3937
3617.888	3905
3619.567	3944
3621.247	3855
3622.926	3875
3624.603	3807
3626.281	3849
3627.958	3897
3629.635	3778
3631.312	3890
3632.989	3868
3634.665	3866
3636.339	3828
3638.014	3879
3639.691	3811
3641.364	3844
3643.038	3746
3644.71	3832
3646.384	3787
3648.058	3772
3649.729	3797
3651.402	3763
3653.073	3794
3654.744	3717
3656.414	3728
3658.085	3776
3659.755	3776
3661.424	3723
3663.094	3722
3664.762	3816
3666.431	3742
3668.099	3715
3669.766	3764
3671.433	3717
3673.099	3767
3674.768	3761
3676.433	3695
3678.098	3735
3679.763	3799
3681.428	3742
3683.093	3724
3684.757	3738
3686.421	3705
3688.083	3686
3689.746	3655
3691.408	3657
3693.071	3729
3694.733	3666
3696.394	3669
3698.054	3762
3699.715	3664
3701.375	3669
3703.036	3749
3704.695	3714
3706.354	3732
3708.012	3663
3709.67	3626
3711.329	3734
3712.987	3611
3714.644	3692
3716.299	3627
3717.955	3681
3719.613	3593
3721.268	3620
3722.923	3729
3724.577	3689
3726.231	3639
3727.885	3603
3729.539	3600
3731.192	3666
3732.845	3649
3734.497	3608
3736.149	3677
3737.802	3636
3739.453	3564
3741.104	3616
3742.753	3630
3744.404	3596
3746.052	3630
3747.704	3546
3749.352	3621
3751	3606
3752.648	3578
3754.296	3662
3755.944	3585
3757.59	3578
3759.238	3603
3760.883	3584
3762.528	3563
3764.176	3579
3765.82	3507
3767.464	3497
3769.109	3607
3770.753	3585
3772.396	3561
3774.04	3533
3775.683	3572
3777.325	3543
3778.967	3559
3780.608	3511
3782.25	3518
3783.89	3575
3785.531	3544
3787.17	3509
3788.81	3490
3790.45	3521
3792.09	3537
3793.729	3460
3795.366	3541
3797.003	3450
3798.64	3457
3800.278	3479
3801.915	3430
3803.551	3435
3805.187	3471
3806.822	3431
3808.458	3458
3810.093	3479
3811.726	3525
3813.36	3462
3814.994	3491
3816.627	3486
3818.262	3384
3819.893	3433
3821.525	3469
3823.157	3424
3824.787	3420
3826.42	3450
3828.051	3378
3829.68	3414
3831.31	3338
3832.938	3448
3834.569	3421
3836.198	3435
3837.825	3376
3839.454	3468
3841.08	3404
3842.708	3403
3844.335	3503
3845.962	3371
3847.587	3345
3849.212	3295
3850.838	3448
3852.463	3288
3854.089	3355
3855.712	3382
3857.335	3409
3858.959	3361
3860.582	3371
3862.205	3348
3863.827	3294
3865.449	3302
3867.07	3334
3868.691	3317
3870.312	3336
3871.933	3302
3873.553	3287
3875.173	3337
3876.792	3306
3878.411	3338
3880.03	3299
3881.647	3297
3883.265	3359
3884.882	3331
3886.499	3319
3888.116	3351
3889.732	3366
3891.348	3364
3892.964	3351
3894.579	3306
3896.195	3338
3897.809	3311
3899.423	3307
3901.036	3267
3902.648	3266
3904.261	3362
3905.875	3248
3907.487	3335
3909.099	3318
3910.709	3300
3912.321	3340
3913.933	3243
3915.542	3281
3917.152	3237
3918.762	3262
3920.37	3251
3921.98	3284
3923.589	3282
3925.196	3202
3926.804	3225
3928.41	3293
3930.018	3348
3931.626	3234
3933.231	3234
3934.838	3292
3936.442	3246
3938.046	3181
3939.653	3240
3941.257	3288
3942.861	3266
3944.464	3182
3946.068	3176
3947.67	3218
3949.273	3149
3950.876	3174
3952.477	3177
3954.078	3207
3955.678	3203
3957.281	3197
3958.881	3221
3960.48	3262
3962.079	3221
3963.678	3209
3965.279	3200
3966.877	3243
3968.475	3095
3970.072	3206
3971.669	3283
3973.266	3120
3974.864	3159
3976.459	3153
3978.055	3238
3979.65	3179
3981.245	3157
3982.841	3174
3984.436	3217
3986.03	3060
3987.623	3272
3989.216	3142
3990.809	3176
3992.403	3093
3993.995	3171
3995.586	3163
3997.177	3132
3998.768	3166
4000.361	3084
4001.951	3163
4003.54	3058
4005.13	3087
4006.719	3057
4008.31	3093
4009.897	3124
4011.485	3041
4013.073	3120
4014.66	3083
4016.247	3017
4017.834	3120
4019.421	3060
4021.006	3027
4022.592	3082
4024.178	3043
4025.763	3067
4027.348	3005
4028.932	3073
4030.515	3050
4032.099	3044
4033.682	3026
4035.266	3104
4036.847	2990
4038.429	3037
4040.011	3010
4041.592	3011
4043.173	3071
4044.755	2977
4046.334	3011
4047.913	2959
4049.494	3003
4051.074	2981
4052.652	3044
4054.23	2983
4055.807	2979
4057.385	2977
4058.963	3014
4060.541	2984
4062.117	2953
4063.693	3042
4065.269	3002
4066.844	2934
4068.42	2945
4069.995	2898
4071.569	2929
4073.143	2930
4074.716	2943
4076.291	2960
4077.864	3004
4079.436	2881
4081.009	2892
4082.58	2975
4084.152	2969
4085.723	2885
4087.294	2910
4088.865	2958
4090.435	2935
4092.005	2910
4093.574	2901
4095.143	2904
4096.712	2929
4098.279	2936
4099.848	2978
4101.416	2845
4102.984	2922
4104.55	2850
4106.117	2859
4107.682	2936
4109.248	2826
4110.815	2848
4112.379	2831
4113.945	2868
4115.508	2867
4117.073	2957
4118.637	2876
4120.201	2875
4121.763	2900
4123.325	2870
4124.888	2858
4126.449	2963
4128.013	2854
4129.573	2856
4131.133	2880
4132.694	2897
4134.254	2796
4135.814	2822
4137.374	2802
4138.933	2777
4140.491	2777
4142.049	2834
4143.607	2840
4145.167	2818
4146.724	2761
4148.28	2805
4149.836	2828
4151.392	2788
4152.949	2783
4154.504	2747
4156.059	2756
4157.614	2750
4159.168	2785
4160.723	2741
4162.277	2710
4163.83	2785
4165.383	2812
4166.936	2696
4168.488	2776
4170.041	2695
4171.593	2749
4173.144	2812
4174.695	2834
4176.246	2790
4177.796	2747
4179.346	2761
4180.896	2796
4182.445	2738
4183.994	2660
4185.542	2724
4187.091	2746
4188.639	2740
4190.185	2723
4191.732	2680
4193.279	2658
4194.826	2703
4196.373	2700
4197.918	2703
4199.463	2662
4201.008	2660
4202.553	2731
4204.098	2781
4205.641	2653
4207.185	2711
4208.728	2675
4210.271	2666
4211.814	2681
4213.357	2676
4214.898	2685
4216.439	2688
4217.98	2675
4219.522	2725
4221.062	2684
4222.603	2659
4224.142	2669
4225.681	2717
4227.222	2636
4228.76	2705
4230.298	2678
4231.835	2630
4233.373	2673
4234.911	2653
4236.449	2660
4237.985	2614
4239.521	2658
4241.057	2641
4242.592	2625
4244.128	2655
4245.663	2601
4247.197	2611
4248.731	2650
4250.265	2648
4251.798	2586
4253.333	2603
4254.865	2667
4256.397	2558
4257.93	2586
4259.461	2594
4260.994	2649
4262.525	2617
4264.056	2635
4265.586	2647
4267.115	2629
4268.646	2623
4270.176	2581
4271.705	2622
4273.232	2524
4274.761	2593
4276.289	2598
4277.818	2554
4279.345	2615
4280.872	2532
4282.399	2596
4283.924	2519
4285.452	2595
4286.976	2559
4288.502	2561
4290.026	2459
4291.551	2549
4293.074	2579
4294.6	2617
4296.123	2529
4297.646	2571
4299.168	2504
4300.691	2607
4302.214	2496
4303.736	2526
4305.257	2526
4306.778	2542
4308.299	2529
4309.82	2499
4311.34	2484
4312.86	2570
4314.379	2509
