400.0745	3908
402.597	3969
405.1208	3888
407.6419	3946
410.1623	3951
412.6819	3893
415.201	3906
417.7172	4060
420.2369	4034
422.7538	4088
425.2701	4143
427.7856	4138
430.3005	4213
432.8147	4279
435.3282	4257
437.841	4196
440.3511	4181
442.8625	4242
445.3753	4172
447.8854	4221
450.3927	4218
452.9014	4146
455.4073	4232
457.9146	4185
460.4233	4300
462.9272	4189
465.4325	4164
467.935	4149
470.4389	4158
472.9421	4115
475.4446	4139
477.9444	4183
480.4456	4133
482.944	4133
485.4417	4156
487.9429	4159
490.4393	4186
492.935	4173
495.4321	4292
497.9264	4261
500.4221	4228
502.9171	4204
505.4094	4328
507.9011	4254
510.392	4216
512.8864	4279
515.3759	4292
517.8649	4218
520.3531	4233
522.8406	4278
525.3275	4350
527.8178	4338
530.3033	4288
532.7881	4394
535.2723	4255
537.7558	4215
540.2407	4310
542.7228	4365
545.2043	4336
547.6851	4384
550.1652	4396
552.6467	4339
555.1255	4386
557.6016	4440
560.079	4446
562.5557	4401
565.0318	4416
567.5092	4373
569.984	4402
572.456	4478
574.9294	4569
577.4022	4503
579.8762	4501
582.3456	4656
584.8163	4575
587.2863	4557
589.7557	4678
592.2224	4661
594.6924	4648
597.1578	4588
599.6245	4562
602.0905	4516
604.5538	4441
607.0206	4524
609.4825	4464
611.9459	4404
614.4066	4564
616.8686	4442
619.33	4498
621.7906	4517
624.2487	4404
626.708	4431
629.1647	4433
631.6207	4467
634.0801	4377
636.5348	4499
638.9888	4434
641.4442	4429
643.8969	4414
646.3509	4473
648.8022	4568
651.255	4539
653.705	4454
656.1544	4546
658.6031	4435
661.0532	4468
663.5026	4589
665.9493	4636
668.3954	4560
670.8409	4575
673.2877	4478
675.7318	4489
678.1752	4651
680.618	4643
683.0601	4482
685.5035	4629
687.9444	4675
690.3845	4660
692.824	4604
695.2628	4625
697.701	4639
700.1406	4644
702.5774	4581
705.0116	4654
707.4472	4642
709.8821	4631
712.3183	4745
714.7519	4624
717.1829	4654
719.6151	4652
722.0468	4629
724.4777	4749
726.908	4744
729.3377	4764
731.7667	4686
734.1931	4801
736.6208	4716
739.0498	4785
741.4742	4890
743.9	4862
746.3231	4823
748.7476	4895
751.1713	4869
753.5945	4830
756.015	4803
758.4368	4879
760.856	4792
763.2766	4882
765.6965	4966
768.1157	4877
770.5323	4911
772.9483	4975
775.3656	4980
777.7822	4922
780.1963	4934
782.6116	4984
785.0244	5072
787.4365	4983
789.8499	4946
792.2626	4938
794.6728	5034
797.0823	4907
799.4911	4915
801.8994	4944
804.3109	4835
806.7178	5064
809.124	4922
811.5297	4944
813.9347	5091
816.341	5060
818.7447	4990
821.1478	5037
823.5502	5002
825.952	5000
828.3531	4951
830.7556	5026
833.1554	5001
835.5546	4992
837.9532	4987
840.3511	5050
842.7504	5072
845.1451	5085
847.5411	5100
849.9365	5183
852.3312	5167
854.7272	5147
857.1187	5164
859.5115	5153
861.9037	5176
864.2952	5120
866.6842	5208
869.0764	5112
871.4661	5123
873.8531	5105
876.2415	5200
878.6272	5079
881.0162	5086
883.4026	5119
885.7866	5132
888.1717	5172
890.5543	5106
892.9382	5035
895.3215	5033
897.7041	5012
900.0842	5108
902.4655	5234
904.8443	5094
907.2244	5099
909.6039	5160
911.9808	5232
914.357	5195
916.7346	5322
919.1115	5261
921.4859	5327
923.8616	5323
926.2347	5382
928.6071	5445
930.979	5356
933.3541	5449
935.7247	5483
938.0946	5548
940.4639	5492
942.8326	5591
945.2026	5777
947.5701	5853
949.9369	6150
952.305	6228
954.6705	6485
957.0355	6947
959.4017	7118
961.7654	7341
964.1284	7135
966.4908	6930
968.8527	6702
971.2138	6231
973.5743	5935
975.9343	5645
978.2936	5446
980.6522	5486
983.0122	5350
985.3696	5291
987.7245	5331
990.0807	5385
992.4362	5306
994.7911	5244
997.1474	5323
999.4991	5397
1001.852	5360
1004.205	5472
1006.555	5291
1008.908	5476
1011.258	5301
1013.606	5352
1015.956	5354
1018.302	5345
1020.652	5378
1022.998	5383
1025.345	5395
1027.691	5432
1030.035	5490
1032.378	5456
1034.724	5560
1037.066	5517
1039.409	5478
1041.75	5434
1044.092	5336
1046.433	5568
1048.771	5575
1051.112	5609
1053.449	5426
1055.786	5511
1058.124	5421
1060.462	5430
1062.797	5456
1065.131	5668
1067.467	5572
1069.8	5599
1072.135	5616
1074.467	5716
1076.798	5666
1079.129	5603
1081.459	5560
1083.792	5549
1086.121	5470
1088.449	5534
1090.777	5502
1093.104	5479
1095.431	5499
1097.759	5457
1100.084	5347
1102.408	5408
1104.732	5370
1107.056	5471
1109.379	5447
1111.701	5488
1114.022	5398
1116.343	5514
1118.664	5446
1120.983	5482
1123.303	5478
1125.621	5452
1127.939	5468
1130.256	5411
1132.573	5374
1134.889	5457
1137.205	5437
1139.52	5389
1141.832	5401
1144.146	5397
1146.461	5375
1148.771	5389
1151.083	5511
1153.392	5380
1155.703	5390
1158.011	5420
1160.323	5492
1162.629	5459
1164.938	5476
1167.243	5405
1169.55	5457
1171.857	5460
1174.163	5403
1176.466	5432
1178.769	5449
1181.073	5437
1183.374	5513
1185.677	5428
1187.979	5371
1190.279	5453
1192.578	5372
1194.878	5449
1197.178	5388
1199.476	5516
1201.772	5382
1204.068	5524
1206.366	5443
1208.663	5479
1210.957	5397
1213.251	5481
1215.544	5541
1217.836	5576
1220.128	5389
1222.421	5522
1224.712	5524
1227.002	5567
1229.292	5517
1231.581	5630
1233.871	5685
1236.159	5517
1238.446	5618
1240.732	5766
1243.018	5692
1245.304	5672
1247.59	5798
1249.874	5682
1252.156	5719
1254.439	5752
1256.721	5667
1259.005	5778
1261.286	5727
1263.565	5693
1265.845	5724
1268.125	5569
1270.403	5660
1272.682	5730
1274.959	5854
1277.234	5689
1279.511	5586
1281.787	5630
1284.062	5673
1286.337	5679
1288.609	5545
1290.882	5598
1293.153	5619
1295.428	5503
1297.698	5577
1299.969	5679
1302.237	5449
1304.507	5632
1306.777	5604
1309.044	5476
1311.312	5483
1313.578	5563
1315.844	5565
1318.109	5693
1320.375	5561
1322.638	5663
1324.903	5704
1327.165	5612
1329.427	5666
1331.69	5572
1333.952	5486
1336.212	5586
1338.471	5518
1340.73	5568
1342.988	5593
1345.248	5591
1347.505	5707
1349.763	5591
1352.019	5619
1354.274	5637
1356.53	5577
1358.784	5498
1361.038	5495
1363.291	5587
1365.543	5561
1367.797	5662
1370.048	5514
1372.296	5622
1374.546	5655
1376.796	5631
1379.045	5653
1381.295	5659
1383.542	5621
1385.787	5714
1388.034	5616
1390.28	5666
1392.527	5606
1394.772	5679
1397.014	5825
1399.258	5818
1401.501	5721
1403.741	5694
1405.985	5545
1408.226	5774
1410.465	5636
1412.705	5732
1414.943	5701
1417.184	5755
1419.42	5765
1421.658	5663
1423.894	5627
1426.13	5739
1428.366	5722
1430.602	5771
1432.835	5810
1435.069	5740
1437.301	5867
1439.535	5786
1441.767	5854
1443.997	5938
1446.229	5925
1448.458	5829
1450.687	5896
1452.916	5963
1455.146	5936
1457.372	5967
1459.599	5932
1461.824	5933
1464.051	5890
1466.277	5927
1468.501	5788
1470.725	5859
1472.948	5884
1475.17	5758
1477.393	5698
1479.614	5719
1481.837	5672
1484.057	5640
1486.276	5693
1488.497	5601
1490.715	5545
1492.932	5635
1495.148	5563
1497.364	5585
1499.58	5594
1501.798	5597
1504.012	5565
1506.227	5534
1508.44	5560
1510.653	5566
1512.866	5571
1515.078	5554
1517.289	5472
1519.5	5525
1521.711	5567
1523.92	5611
1526.13	5451
1528.338	5631
1530.544	5542
1532.752	5590
1534.959	5539
1537.165	5654
1539.371	5593
1541.574	5537
1543.779	5623
1545.983	5590
1548.187	5687
1550.39	5590
1552.59	5641
1554.792	5674
1556.991	5620
1559.19	5474
1561.392	5639
1563.59	5555
1565.789	5725
1567.986	5703
1570.182	5678
1572.381	5585
1574.576	5780
1576.771	5572
1578.966	5678
1581.16	5686
1583.354	5696
1585.546	5798
1587.74	5600
1589.931	5766
1592.121	5716
1594.311	5808
1596.502	5745
1598.693	5726
1600.881	5760
1603.069	5681
1605.256	5780
1607.445	5719
1609.631	5712
1611.816	5663
1614.001	5738
1616.186	5819
1618.37	5728
1620.555	5814
1622.737	5759
1624.919	5757
1627.101	5699
1629.282	5759
1631.463	5851
1633.643	5874
1635.822	5855
1638.001	5898
1640.179	5888
1642.359	6019
1644.534	5903
1646.711	5864
1648.887	5880
1651.062	5867
1653.235	5861
1655.412	5955
1657.586	5943
1659.757	5933
1661.93	5987
1664.1	5990
1666.274	5953
1668.445	5911
1670.614	5813
1672.784	5888
1674.951	5951
1677.12	5954
1679.289	5867
1681.457	5878
1683.622	5905
1685.789	5937
1687.953	5910
1690.121	5839
1692.284	5881
1694.447	5799
1696.611	5853
1698.772	5868
1700.935	5818
1703.098	5818
1705.258	5687
1707.417	5808
1709.576	5668
1711.736	5725
1713.896	5789
1716.053	5668
1718.21	5712
1720.366	5710
1722.522	5703
1724.68	5626
1726.835	5694
1728.989	5711
1731.142	5646
1733.295	5763
1735.449	5642
1737.601	5658
1739.753	5702
1741.903	5741
1744.054	5607
1746.203	5644
1748.354	5785
1750.503	5726
1752.651	5753
1754.798	5802
1756.944	5737
1759.092	5776
1761.238	5682
1763.383	5699
1765.528	5749
1767.672	5623
1769.814	5762
1771.959	5799
1774.102	5687
1776.242	5819
1778.384	5831
1780.525	5780
1782.665	5837
1784.805	5733
1786.945	5663
1789.082	5668
1791.22	5791
1793.36	5753
1795.495	5680
1797.632	5638
1799.766	5709
1801.902	5792
1804.035	5792
1806.172	5773
1808.304	5747
1810.436	5750
1812.569	5659
1814.699	5734
1816.833	5655
1818.963	5753
1821.092	5812
1823.222	5640
1825.35	5686
1827.478	5690
1829.608	5719
1831.734	5681
1833.86	5758
1835.986	5691
1838.11	5634
1840.238	5870
1842.362	5689
1844.485	5721
1846.608	5681
1848.73	5618
1850.853	5676
1852.974	5722
1855.097	5650
1857.217	5691
1859.336	5627
1861.455	5766
1863.576	5647
1865.693	5647
1867.811	5744
1869.926	5638
1872.042	5684
1874.16	5737
1876.275	5615
1878.39	5605
1880.504	5711
1882.618	5767
1884.731	5666
1886.843	5701
1888.956	5629
1891.067	5659
1893.178	5705
1895.287	5747
1897.399	5722
1899.508	5646
1901.617	5812
1903.724	5756
1905.832	5715
1907.941	5737
1910.046	5701
1912.152	5783
1914.256	5714
1916.361	5651
1918.464	5798
1920.57	5749
1922.672	5838
1924.775	5749
1926.876	5842
1928.978	5715
1931.08	5761
1933.181	5688
1935.28	5831
1937.38	5908
1939.478	5784
1941.577	5703
1943.675	5895
1945.771	5876
1947.867	5778
1949.964	5921
1952.058	5852
1954.154	5721
1956.248	5906
1958.343	5809
1960.435	5756
1962.527	5699
1964.62	5751
1966.711	5869
1968.802	5748
1970.892	5711
1972.983	5767
1975.072	5795
1977.162	5841
1979.25	5749
1981.337	5828
1983.424	5828
1985.51	5784
1987.598	5762
1989.683	5773
1991.768	5644
1993.852	5783
1995.934	5697
1998.019	5717
2000.102	5817
2002.184	5852
2004.266	5773
2006.347	5759
2008.427	5748
2010.508	5685
2012.587	5790
2014.666	5904
2016.745	5793
2018.821	5858
2020.9	5686
2022.977	5811
2025.052	5829
2027.128	5867
2029.204	5770
2031.277	5710
2033.353	5690
2035.425	5792
2037.499	5752
2039.57	5823
2041.642	5707
2043.714	5779
2045.786	5807
2047.855	5786
2049.925	5844
2051.993	5771
2054.064	5764
2056.132	5797
2058.2	5761
2060.266	5854
2062.332	5859
2064.398	5766
2066.465	5721
2068.529	5894
2070.592	5843
2072.657	5845
2074.719	5924
2076.783	5867
2078.845	5769
2080.907	5872
2082.968	5757
2085.028	5863
2087.087	5885
2089.148	5770
2091.207	5772
2093.264	5842
2095.322	5779
2097.379	5810
2099.439	5821
2101.495	5928
2103.55	5885
2105.605	5825
2107.658	5927
2109.713	5860
2111.767	5792
2113.82	5933
2115.872	5902
2117.924	5841
2119.975	5970
2122.028	5826
2124.078	5864
2126.126	5812
2128.176	5838
2130.225	5867
2132.275	5846
2134.321	5889
2136.368	5911
2138.415	5766
2140.461	5938
2142.505	5835
2144.552	5928
2146.597	5863
2148.64	5879
2150.684	5875
2152.725	5879
2154.77	5842
2156.811	5918
2158.852	5932
2160.894	5841
2162.933	5866
2164.973	5813
2167.013	5874
2169.051	5865
2171.089	5825
2173.126	5837
2175.164	5866
2177.201	5883
2179.236	5929
2181.273	5817
2183.307	5939
2185.341	5868
2187.377	5790
2189.41	5730
2191.442	5772
2193.473	5896
2195.506	5861
2197.539	5815
2199.569	5731
2201.598	5873
2203.628	5793
2205.656	5884
2207.686	5904
2209.716	5790
2211.743	5744
2213.769	5774
2215.796	5720
2217.821	5699
2219.848	5772
2221.873	5800
2223.897	5804
2225.921	5795
2227.944	5756
2229.967	5781
2231.991	5775
2234.011	5858
2236.032	5808
2238.053	5796
2240.073	5767
2242.094	5744
2244.114	5864
2246.131	5860
2248.149	5885
2250.167	5872
2252.186	5874
2254.201	5826
2256.218	5805
2258.233	5848
2260.247	5833
2262.262	5876
2264.278	5847
2266.29	5797
2268.303	5765
2270.315	5856
2272.327	5808
2274.341	5822
2276.35	5896
2278.361	5902
2280.37	5762
2282.38	5913
2284.388	5851
2286.397	5829
2288.405	5824
2290.412	5682
2292.419	5913
2294.425	5860
2296.431	5830
2298.437	5866
2300.441	5981
2302.445	5916
2304.449	5880
2306.453	5865
2308.455	5770
2310.457	5753
2312.459	5930
2314.46	5857
2316.46	5849
2318.461	5771
2320.46	5800
2322.458	5838
2324.458	5888
2326.456	5853
2328.455	5921
2330.451	5826
2332.447	5720
2334.443	5783
2336.438	5835
2338.433	5838
2340.429	5853
2342.422	5845
2344.416	5866
2346.408	5977
2348.399	5769
2350.393	5731
2352.384	5830
2354.375	5826
2356.365	5811
2358.355	5813
2360.344	5770
2362.333	5749
2364.322	5777
2366.309	5791
2368.295	5883
2370.282	5754
2372.27	5808
2374.256	5815
2376.24	5841
2378.225	5903
2380.208	5794
2382.194	5779
2384.177	5774
2386.159	5785
2388.142	5658
2390.122	5757
2392.105	5732
2394.085	5770
2396.066	5811
2398.044	5704
2400.024	5873
2402.002	5811
2403.982	5802
2405.959	5758
2407.935	5877
2409.913	5697
2411.888	5858
2413.865	5849
2415.84	5767
2417.814	5729
2419.788	5807
2421.762	5702
2423.735	5789
2425.708	5777
2427.68	5743
2429.651	5810
2431.623	5786
2433.593	5799
2435.564	5768
2437.533	5673
2439.502	5779
2441.47	5702
2443.438	5810
2445.406	5819
2447.373	5785
2449.34	5885
2451.305	5961
2453.271	5875
2455.235	5752
2457.201	5890
2459.165	5762
2461.129	5858
2463.092	5767
2465.054	5762
2467.018	5902
2468.978	5817
2470.939	5682
2472.899	5770
2474.86	5833
2476.819	5770
2478.778	5777
2480.737	5840
2482.695	5719
2484.653	5822
2486.609	5854
2488.567	5771
2490.524	5722
2492.478	5773
2494.433	5834
2496.387	5754
2498.343	5779
2500.297	5684
2502.249	5815
2504.202	5671
2506.153	5740
2508.105	5792
2510.057	5840
2512.008	5727
2513.957	5862
2515.906	5706
2517.855	5814
2519.805	5649
2521.754	5755
2523.7	5771
2525.647	5766
2527.594	5741
2529.54	5838
2531.486	5718
2533.431	5722
2535.376	5657
2537.32	5810
2539.263	5717
2541.207	5732
2543.151	5755
2545.093	5752
2547.034	5759
2548.975	5705
2550.917	5651
2552.856	5650
2554.796	5702
2556.735	5832
2558.673	5693
2560.611	5740
2562.55	5753
2564.487	5910
2566.424	5597
2568.36	5671
2570.296	5675
2572.232	5667
2574.167	5763
2576.101	5680
2578.035	5677
2579.969	5664
2581.902	5748
2583.834	5640
2585.766	5844
2587.698	5770
2589.628	5768
2591.557	5794
2593.489	5760
2595.419	5809
2597.348	5749
2599.275	5739
2601.204	5642
2603.131	5788
2605.059	5764
2606.986	5650
2608.911	5699
2610.837	5649
2612.76	5719
2614.687	5663
2616.61	5818
2618.534	5759
2620.457	5725
2622.38	5659
2624.302	5764
2626.225	5661
2628.145	5821
2630.067	5766
2631.986	5697
2633.906	5771
2635.827	5626
2637.745	5723
2639.662	5681
2641.581	5729
2643.498	5743
2645.415	5611
2647.331	5668
2649.248	5666
2651.163	5665
2653.077	5613
2654.993	5663
2656.906	5607
2658.821	5587
2660.733	5742
2662.646	5579
2664.557	5626
2666.47	5648
2668.381	5661
2670.291	5627
2672.201	5536
2674.11	5703
2676.021	5640
2677.929	5692
2679.837	5495
2681.745	5581
2683.652	5593
2685.56	5520
2687.466	5602
2689.371	5585
2691.276	5644
2693.181	5516
2695.085	5538
2696.991	5596
2698.893	5539
2700.796	5479
2702.698	5582
2704.601	5439
2706.502	5430
2708.404	5529
2710.304	5449
2712.203	5527
2714.103	5315
2716.003	5620
2717.902	5431
2719.8	5583
2721.697	5403
2723.594	5405
2725.49	5518
2727.389	5486
2729.283	5450
2731.179	5410
2733.073	5447
2734.968	5606
2736.863	5382
2738.757	5420
2740.649	5469
2742.541	5504
2744.433	5421
2746.324	5305
2748.216	5467
2750.107	5394
2751.997	5281
2753.886	5465
2755.776	5372
2757.666	5446
2759.553	5448
2761.44	5351
2763.327	5374
2765.215	5332
2767.102	5369
2768.988	5394
2770.873	5335
2772.757	5411
2774.641	5391
2776.525	5388
2778.41	5321
2780.292	5264
2782.175	5451
2784.057	5339
2785.938	5314
2787.821	5309
2789.701	5345
2791.581	5305
2793.461	5319
2795.34	5199
2797.219	5328
2799.099	5414
2800.975	5292
2802.853	5271
2804.73	5265
2806.606	5365
2808.484	5339
2810.358	5333
2812.233	5269
2814.108	5169
2815.981	5308
2817.857	5273
2819.73	5256
2821.602	5268
2823.474	5237
2825.346	5311
2827.217	5149
2829.089	5173
2830.959	5230
2832.829	5273
2834.698	5269
2836.567	5264
2838.436	5265
2840.305	5296
2842.172	5271
2844.04	5229
2845.905	5299
2847.772	5197
2849.639	5245
2851.503	5275
2853.369	5317
2855.232	5236
2857.096	5323
2858.961	5351
2860.824	5324
2862.686	5382
2864.547	5337
2866.41	5402
2868.272	5384
2870.132	5475
2871.992	5609
2873.851	5567
2875.711	5582
2877.57	5671
2879.429	5626
2881.287	5722
2883.144	5769
2885.001	5712
2886.857	5686
2888.714	5764
2890.57	5704
2892.425	5618
2894.279	5709
2896.133	5670
2897.987	5583
2899.842	5604
2901.694	5577
2903.547	5648
2905.397	5730
2907.249	5611
2909.101	5740
2910.952	5676
2912.802	5727
2914.652	5759
2916.5	5776
2918.35	5826
2920.198	5933
2922.045	5926
2923.893	5979
2925.74	6051
2927.585	6251
2929.433	6142
2931.279	6241
2933.123	6325
2934.968	6283
2936.811	6408
2938.656	6398
2940.5	6398
2942.342	6469
2944.185	6560
2946.026	6409
2947.87	6470
2949.71	6487
2951.549	6376
2953.39	6281
2955.229	6166
2957.069	6306
2958.908	6237
2960.746	6144
2962.584	6162
2964.421	6026
2966.257	5942
2968.094	5989
2969.931	5864
2971.766	5942
2973.601	5839
2975.435	5820
2977.27	5793
2979.105	5835
2980.938	5854
2982.77	5848
2984.602	5712
2986.434	5688
2988.267	5636
2990.097	5714
2991.927	5524
2993.757	5570
2995.587	5478
2997.417	5546
2999.246	5492
3001.074	5402
3002.902	5417
3004.729	5349
3006.556	5340
3008.384	5262
3010.21	5191
3012.036	5145
3013.861	5124
3015.684	5186
3017.51	5081
3019.334	5111
3021.157	5004
3022.981	5021
3024.802	4916
3026.624	5015
3028.448	4969
3030.267	4895
3032.088	4851
3033.909	4884
3035.728	4911
3037.549	4810
3039.368	4871
3041.186	4871
3043.004	4783
3044.821	4818
3046.64	4834
3048.455	4902
3050.272	4789
3052.087	4849
3053.903	4851
3055.717	4808
3057.534	4851
3059.347	4775
3061.16	4767
3062.974	4813
3064.785	4786
3066.598	4730
3068.411	4880
3070.222	4703
3072.032	4866
3073.844	4810
3075.653	4872
3077.463	4703
3079.272	4741
3081.08	4756
3082.889	4759
3084.697	4754
3086.505	4728
3088.312	4705
3090.118	4693
3091.924	4634
3093.729	4750
3095.535	4659
3097.34	4684
3099.144	4680
3100.947	4657
3102.75	4623
3104.553	4629
3106.357	4626
3108.159	4536
3109.961	4589
3111.762	4586
3113.562	4662
3115.365	4523
3117.164	4483
3118.964	4531
3120.761	4640
3122.56	4618
3124.36	4552
3126.158	4564
3127.954	4595
3129.75	4581
3131.547	4600
3133.343	4532
3135.139	4570
3136.934	4601
3138.729	4589
3140.522	4554
3142.317	4558
3144.11	4477
3145.904	4511
3147.695	4539
3149.488	4539
3151.28	4520
3153.07	4467
3154.863	4560
3156.652	4523
3158.441	4566
3160.231	4456
3162.019	4494
3163.81	4503
3165.597	4625
3167.384	4431
3169.172	4458
3170.958	4532
3172.745	4472
3174.532	4520
3176.317	4478
3178.101	4465
3179.885	4423
3181.67	4400
3183.455	4439
3185.238	4422
3187.02	4430
3188.802	4432
3190.585	4524
3192.368	4482
3194.149	4437
3195.929	4436
3197.709	4491
3199.489	4314
3201.268	4484
3203.048	4391
3204.826	4506
3206.604	4504
3208.382	4439
3210.159	4382
3211.937	4369
3213.713	4459
3215.489	4450
3217.263	4410
3219.038	4441
3220.815	4301
3222.589	4365
3224.363	4454
3226.136	4467
3227.908	4432
3229.681	4476
3231.454	4359
3233.226	4360
3234.996	4395
3236.767	4426
3238.538	4443
3240.308	4348
3242.078	4428
3243.847	4319
3245.615	4440
3247.384	4382
3249.15	4426
3250.92	4421
3252.686	4400
3254.453	4436
3256.218	4438
3257.984	4386
3259.75	4362
3261.515	4353
3263.279	4388
3265.044	4396
3266.806	4454
3268.57	4412
3270.334	4395
3272.095	4480
3273.856	4476
3275.619	4414
3277.379	4379
3279.14	4429
3280.9	4446
3282.661	4436
3284.419	4418
3286.178	4418
3287.937	4468
3289.695	4441
3291.453	4433
3293.21	4387
3294.967	4468
3296.723	4387
3298.48	4410
3300.235	4374
3301.99	4368
3303.744	4397
3305.498	4416
3307.253	4387
3309.006	4317
3310.759	4502
3312.511	4459
3314.263	4434
3316.017	4433
3317.768	4487
3319.519	4442
3321.268	4430
3323.018	4465
3324.767	4401
3326.518	4417
3328.267	4445
3330.014	4339
3331.762	4331
3333.509	4377
3335.258	4382
3337.003	4421
3338.75	4381
3340.496	4340
3342.24	4368
3343.987	4421
3345.732	4377
3347.475	4364
3349.219	4343
3350.961	4330
3352.705	4388
3354.448	4331
3356.19	4285
3357.931	4377
3359.672	4311
3361.412	4351
3363.155	4301
3364.894	4317
3366.633	4363
3368.372	4303
3370.11	4359
3371.849	4264
3373.588	4272
3375.325	4310
3377.061	4275
3378.799	4224
3380.534	4375
3382.271	4266
3384.006	4238
3385.741	4241
3387.475	4321
3389.209	4302
3390.944	4336
3392.677	4280
3394.409	4236
3396.143	4251
3397.874	4214
3399.606	4245
3401.338	4352
3403.069	4190
3404.799	4193
3406.528	4234
3408.258	4244
3409.988	4175
3411.717	4174
3413.445	4154
3415.173	4181
3416.899	4224
3418.626	4237
3420.354	4169
3422.08	4263
3423.806	4230
3425.531	4222
3427.255	4282
3428.981	4220
3430.705	4186
3432.429	4254
3434.151	4261
3435.875	4191
3437.599	4254
3439.321	4169
3441.042	4169
3442.763	4171
3444.483	4208
3446.204	4221
3447.926	4201
3449.645	4123
3451.364	4127
3453.082	4150
3454.801	4112
3456.52	4083
3458.238	4026
3459.954	4113
3461.671	4084
3463.387	4089
3465.104	4114
3466.82	4106
3468.534	3996
3470.25	4076
3471.963	4092
3473.676	4077
3475.392	4030
3477.104	4098
3478.817	3970
3480.528	4094
3482.241	4056
3483.954	4020
3485.664	3972
3487.374	4125
3489.084	3982
3490.795	4018
3492.504	4027
3494.214	3961
3495.922	3981
3497.63	3882
3499.338	4048
3501.045	3972
3502.753	4049
3504.459	3955
3506.166	3966
3507.871	3991
3509.576	3938
3511.283	3971
3512.987	3955
3514.691	3960
3516.395	3946
3518.098	4025
3519.8	3974
3521.504	3899
3523.206	3866
3524.908	3925
3526.609	3875
3528.309	3894
3530.011	3988
3531.711	3889
3533.411	3893
3535.109	3872
3536.808	3881
3538.507	3919
3540.206	3864
3541.904	3869
3543.601	3994
3545.297	3896
3546.994	3866
3548.69	3846
3550.387	3807
3552.081	3767
3553.776	3812
3555.47	3861
3557.166	3780
3558.859	3883
3560.553	3829
3562.245	3815
3563.938	3801
3565.629	3825
3567.322	3777
3569.014	3825
3570.704	3858
3572.394	3760
3574.084	3866
3575.775	3777
3577.464	3832
3579.152	3737
3580.842	3688
3582.529	3821
3584.216	3735
3585.905	3840
3587.591	3846
3589.279	3736
3590.964	3798
3592.649	3758
3594.336	3662
3596.021	3704
3597.705	3772
3599.388	3781
3601.072	3707
3602.757	3759
3604.439	3744
3606.122	3633
3607.803	3756
3609.485	3696
3611.167	3698
3612.849	3698
3614.529	3674
3616.208	3640
3617.888	3614
3619.567	3698
3621.247	3609
3622.926	3780
3624.603	3623
3626.281	3769
3627.958	3557
3629.635	3652
3631.312	3625
3632.989	3609
3634.665	3597
3636.339	3535
3638.014	3614
3639.691	3611
3641.364	3513
3643.038	3592
3644.71	3454
3646.384	3618
3648.058	3599
3649.729	3526
3651.402	3532
3653.073	3575
3654.744	3581
3656.414	3535
3658.085	3595
3659.755	3575
3661.424	3561
3663.094	3543
3664.762	3575
3666.431	3519
3668.099	3500
3669.766	3489
3671.433	3570
3673.099	3573
3674.768	3516
3676.433	3547
3678.098	3532
3679.763	3488
3681.428	3510
3683.093	3432
3684.757	3416
3686.421	3509
3688.083	3525
3689.746	3499
3691.408	3510
3693.071	3472
3694.733	3484
3696.394	3466
3698.054	3463
3699.715	3381
3701.375	3465
3703.036	3364
3704.695	3448
3706.354	3502
3708.012	3496
3709.67	3434
3711.329	3425
3712.987	3442
3714.644	3548
3716.299	3447
3717.955	3409
3719.613	3426
3721.268	3435
3722.923	3482
3724.577	3377
3726.231	3579
3727.885	3362
3729.539	3384
3731.192	3415
3732.845	3386
3734.497	3392
3736.149	3379
3737.802	3450
3739.453	3444
3741.104	3341
3742.753	3425
3744.404	3495
3746.052	3397
3747.704	3357
3749.352	3419
3751	3449
3752.648	3450
3754.296	3391
3755.944	3454
3757.59	3383
3759.238	3434
3760.883	3400
3762.528	3347
3764.176	3377
3765.82	3423
3767.464	3407
3769.109	3313
3770.753	3294
3772.396	3378
3774.04	3377
3775.683	3352
3777.325	3398
3778.967	3309
3780.608	3342
3782.25	3300
3783.89	3313
3785.531	3348
3787.17	3319
3788.81	3350
3790.45	3378
3792.09	3356
3793.729	3285
3795.366	3241
3797.003	3338
3798.64	3310
3800.278	3292
3801.915	3339
3803.551	3311
3805.187	3276
3806.822	3278
3808.458	3379
3810.093	3333
3811.726	3326
3813.36	3268
3814.994	3184
3816.627	3206
3818.262	3279
3819.893	3246
3821.525	3264
3823.157	3259
3824.787	3260
3826.42	3266
3828.051	3292
3829.68	3269
3831.31	3250
3832.938	3223
3834.569	3275
3836.198	3336
3837.825	3200
3839.454	3213
3841.08	3205
3842.708	3213
3844.335	3189
3845.962	3232
3847.587	3249
3849.212	3289
3850.838	3292
3852.463	3268
3854.089	3227
3855.712	3265
3857.335	3209
3858.959	3294
3860.582	3161
3862.205	3192
3863.827	3216
3865.449	3171
3867.07	3192
3868.691	3162
3870.312	3212
3871.933	3136
3873.553	3172
3875.173	3187
3876.792	3153
3878.411	3129
3880.03	3141
3881.647	3173
3883.265	3071
3884.882	3169
3886.499	3126
3888.116	3117
3889.732	3148
3891.348	3119
3892.964	3242
3894.579	3111
3896.195	3116
3897.809	3141
3899.423	3099
3901.036	3168
3902.648	3152
3904.261	3127
3905.875	3180
3907.487	3114
3909.099	3109
3910.709	3136
3912.321	3160
3913.933	3094
3915.542	3156
3917.152	3157
3918.762	3157
3920.37	3115
3921.98	3083
3923.589	3143
3925.196	3092
3926.804	3088
3928.41	3140
3930.018	3122
3931.626	3160
3933.231	3023
3934.838	3118
3936.442	3080
3938.046	3093
3939.653	3113
3941.257	3133
3942.861	3091
3944.464	3155
3946.068	3144
3947.67	3145
3949.273	3071
3950.876	3050
3952.477	3010
3954.078	3061
3955.678	3012
3957.281	3095
3958.881	2997
3960.48	3106
3962.079	3073
3963.678	3040
3965.279	3066
3966.877	2973
3968.475	2949
3970.072	3049
3971.669	3029
3973.266	3062
3974.864	3008
3976.459	2981
3978.055	3016
3979.65	3047
3981.245	3052
3982.841	3003
3984.436	3076
3986.03	3022
3987.623	2971
3989.216	2963
3990.809	2881
3992.403	2980
3993.995	2945
3995.586	3014
3997.177	2943
3998.768	2916
4000.361	2946
4001.951	3006
4003.54	2943
4005.13	2954
4006.719	2932
4008.31	2953
4009.897	2843
4011.485	2908
4013.073	2958
4014.66	2877
4016.247	2865
4017.834	2878
4019.421	2808
4021.006	2896
4022.592	2916
4024.178	2906
4025.763	2828
4027.348	2854
4028.932	2849
4030.515	2903
4032.099	2873
4033.682	2851
4035.266	2893
4036.847	2868
4038.429	2866
4040.011	2797
4041.592	2846
4043.173	2729
4044.755	2821
4046.334	2797
4047.913	2895
4049.494	2854
4051.074	2813
4052.652	2821
4054.23	2866
4055.807	2832
4057.385	2896
4058.963	2831
4060.541	2780
4062.117	2846
4063.693	2780
4065.269	2843
4066.844	2828
4068.42	2819
4069.995	2750
4071.569	2721
4073.143	2788
4074.716	2816
4076.291	2773
4077.864	2772
4079.436	2835
4081.009	2811
4082.58	2730
4084.152	2804
4085.723	2792
4087.294	2766
4088.865	2763
4090.435	2816
4092.005	2755
4093.574	2693
4095.143	2733
4096.712	2709
4098.279	2780
4099.848	2700
4101.416	2727
4102.984	2759
4104.55	2699
4106.117	2742
4107.682	2760
4109.248	2673
4110.815	2659
4112.379	2631
4113.945	2699
4115.508	2709
4117.073	2667
4118.637	2659
4120.201	2679
4121.763	2633
4123.325	2706
4124.888	2651
4126.449	2660
4128.013	2686
4129.573	2649
4131.133	2628
4132.694	2639
4134.254	2697
4135.814	2633
4137.374	2627
4138.933	2623
4140.491	2627
4142.049	2676
4143.607	2665
4145.167	2607
4146.724	2630
4148.28	2585
4149.836	2599
4151.392	2604
4152.949	2572
4154.504	2569
4156.059	2629
4157.614	2564
4159.168	2596
4160.723	2558
4162.277	2637
4163.83	2594
4165.383	2513
4166.936	2575
4168.488	2601
4170.041	2536
4171.593	2563
4173.144	2591
4174.695	2546
4176.246	2628
4177.796	2563
4179.346	2504
4180.896	2446
4182.445	2531
4183.994	2564
4185.542	2541
4187.091	2521
4188.639	2494
4190.185	2503
4191.732	2534
4193.279	2549
4194.826	2479
4196.373	2513
4197.918	2511
4199.463	2511
4201.008	2478
4202.553	2450
4204.098	2522
4205.641	2487
4207.185	2473
4208.728	2543
4210.271	2447
4211.814	2440
4213.357	2491
4214.898	2494
4216.439	2532
4217.98	2488
4219.522	2501
4221.062	2410
4222.603	2474
4224.142	2471
4225.681	2417
4227.222	2462
4228.76	2417
4230.298	2456
4231.835	2332
4233.373	2460
4234.911	2435
4236.449	2482
4237.985	2453
4239.521	2475
4241.057	2384
4242.592	2452
4244.128	2401
4245.663	2441
4247.197	2491
4248.731	2466
4250.265	2430
4251.798	2391
4253.333	2386
4254.865	2434
4256.397	2425
4257.93	2338
4259.461	2481
4260.994	2399
4262.525	2413
4264.056	2345
4265.586	2409
4267.115	2401
4268.646	2404
4270.176	2402
4271.705	2409
4273.232	2412
4274.761	2386
4276.289	2371
4277.818	2359
4279.345	2365
4280.872	2403
4282.399	2344
4283.924	2354
4285.452	2344
4286.976	2348
4288.502	2418
4290.026	2341
4291.551	2382
4293.074	2374
4294.6	2352
4296.123	2371
4297.646	2344
4299.168	2320
4300.691	2389
4302.214	2321
4303.736	2339
4305.257	2312
4306.778	2296
4308.299	2368
4309.82	2362
4311.34	2293
4312.86	2282
4314.379	2298
