400.0745	4724
402.597	4724
405.1208	4781
407.6419	4695
410.1623	4671
412.6819	4733
415.201	4774
417.7172	4855
420.2369	4833
422.7538	4979
425.2701	4874
427.7856	5015
430.3005	5012
432.8147	5056
435.3282	4928
437.841	5011
440.3511	4943
442.8625	5068
445.3753	5037
447.8854	4974
450.3927	4899
452.9014	5051
455.4073	5000
457.9146	5072
460.4233	5011
462.9272	5083
465.4325	5012
467.935	5104
470.4389	5003
472.9421	5056
475.4446	5038
477.9444	4938
480.4456	5109
482.944	5024
485.4417	5069
487.9429	5098
490.4393	5143
492.935	5140
495.4321	5178
497.9264	5132
500.4221	5226
502.9171	5175
505.4094	5179
507.9011	5115
510.392	5186
512.8864	5186
515.3759	5181
517.8649	5182
520.3531	5187
522.8406	5241
525.3275	5137
527.8178	5327
530.3033	5170
532.7881	5273
535.2723	5333
537.7558	5261
540.2407	5234
542.7228	5256
545.2043	5272
547.6851	5264
550.1652	5369
552.6467	5304
555.1255	5340
557.6016	5274
560.079	5233
562.5557	5355
565.0318	5351
567.5092	5317
569.984	5398
572.456	5376
574.9294	5422
577.4022	5523
579.8762	5406
582.3456	5458
584.8163	5531
587.2863	5514
589.7557	5579
592.2224	5532
594.6924	5611
597.1578	5524
599.6245	5531
602.0905	5454
604.5538	5544
607.0206	5553
609.4825	5349
611.9459	5536
614.4066	5408
616.8686	5447
619.33	5396
621.7906	5529
624.2487	5481
626.708	5473
629.1647	5440
631.6207	5424
634.0801	5530
636.5348	5398
638.9888	5403
641.4442	5477
643.8969	5462
646.3509	5487
648.8022	5496
651.255	5515
653.705	5473
656.1544	5513
658.6031	5455
661.0532	5574
663.5026	5437
665.9493	5592
668.3954	5539
670.8409	5600
673.2877	5462
675.7318	5685
678.1752	5621
680.618	5571
683.0601	5595
685.5035	5608
687.9444	5781
690.3845	5612
692.824	5656
695.2628	5644
697.701	5549
700.1406	5651
702.5774	5723
705.0116	5766
707.4472	5691
709.8821	5719
712.3183	5690
714.7519	5740
717.1829	5799
719.6151	5835
722.0468	5732
724.4777	5707
726.908	5804
729.3377	5859
731.7667	5823
734.1931	5877
736.6208	5805
739.0498	5897
741.4742	5913
743.9	5915
746.3231	5953
748.7476	5916
751.1713	6007
753.5945	5917
756.015	5931
758.4368	6141
760.856	6051
763.2766	6066
765.6965	5925
768.1157	6114
770.5323	6007
772.9483	6022
775.3656	6089
777.7822	6059
780.1963	6005
782.6116	6127
785.0244	6055
787.4365	6020
789.8499	6102
792.2626	5924
794.6728	6008
797.0823	6055
799.4911	5966
801.8994	6152
804.3109	6124
806.7178	6109
809.124	6034
811.5297	5996
813.9347	6230
816.341	6159
818.7447	6153
821.1478	6166
823.5502	6160
825.952	6217
828.3531	6083
830.7556	6144
833.1554	6154
835.5546	6227
837.9532	6146
840.3511	6026
842.7504	6262
845.1451	6273
847.5411	6173
849.9365	6265
852.3312	6342
854.7272	6343
857.1187	6267
859.5115	6259
861.9037	6351
864.2952	6226
866.6842	6312
869.0764	6278
871.4661	6291
873.8531	6214
876.2415	6334
878.6272	6297
881.0162	6215
883.4026	6321
885.7866	6285
888.1717	6217
890.5543	6354
892.9382	6192
895.3215	6185
897.7041	6322
900.0842	6288
902.4655	6379
904.8443	6122
907.2244	6263
909.6039	6282
911.9808	6345
914.357	6450
916.7346	6414
919.1115	6466
921.4859	6483
923.8616	6546
926.2347	6522
928.6071	6576
930.979	6503
933.3541	6487
935.7247	6625
938.0946	6606
940.4639	6671
942.8326	6647
945.2026	6762
947.5701	6893
949.9369	7001
952.305	7270
954.6705	7411
957.0355	7650
959.4017	7920
961.7654	8015
964.1284	7916
966.4908	7697
968.8527	7508
971.2138	7231
973.5743	6919
975.9343	6804
978.2936	6713
980.6522	6583
983.0122	6523
985.3696	6441
987.7245	6403
990.0807	6374
992.4362	6535
994.7911	6426
997.1474	6445
999.4991	6440
1001.852	6495
1004.205	6578
1006.555	6554
1008.908	6633
1011.258	6448
1013.606	6501
1015.956	6440
1018.302	6585
1020.652	6514
1022.998	6531
1025.345	6503
1027.691	6434
1030.035	6567
1032.378	6513
1034.724	6495
1037.066	6572
1039.409	6540
1041.75	6524
1044.092	6653
1046.433	6637
1048.771	6719
1051.112	6576
1053.449	6650
1055.786	6701
1058.124	6624
1060.462	6553
1062.797	6641
1065.131	6696
1067.467	6793
1069.8	6705
1072.135	6763
1074.467	6785
1076.798	6781
1079.129	6766
1081.459	6631
1083.792	6709
1086.121	6711
1088.449	6729
1090.777	6613
1093.104	6649
1095.431	6576
1097.759	6651
1100.084	6687
1102.408	6584
1104.732	6636
1107.056	6600
1109.379	6704
1111.701	6643
1114.022	6512
1116.343	6753
1118.664	6740
1120.983	6696
1123.303	6635
1125.621	6767
1127.939	6652
1130.256	6708
1132.573	6721
1134.889	6590
1137.205	6625
1139.52	6725
1141.832	6747
1144.146	6683
1146.461	6559
1148.771	6710
1151.083	6526
1153.392	6615
1155.703	6612
1158.011	6544
1160.323	6666
1162.629	6657
1164.938	6701
1167.243	6621
1169.55	6606
1171.857	6643
1174.163	6566
1176.466	6587
1178.769	6603
1181.073	6601
1183.374	6644
1185.677	6561
1187.979	6652
1190.279	6693
1192.578	6595
1194.878	6595
1197.178	6595
1199.476	6724
1201.772	6727
1204.068	6622
1206.366	6702
1208.663	6557
1210.957	6739
1213.251	6645
1215.544	6575
1217.836	6668
1220.128	6721
1222.421	6709
1224.712	6645
1227.002	6705
1229.292	6894
1231.581	6821
1233.871	6772
1236.159	6851
1238.446	6762
1240.732	6871
1243.018	6980
1245.304	6913
1247.59	6837
1249.874	6977
1252.156	6924
1254.439	6846
1256.721	6825
1259.005	6843
1261.286	6932
1263.565	6921
1265.845	6877
1268.125	6899
1270.403	6917
1272.682	6973
1274.959	6969
1277.234	6920
1279.511	6754
1281.787	7014
1284.062	6875
1286.337	6984
1288.609	6767
1290.882	6716
1293.153	6885
1295.428	6814
1297.698	6756
1299.969	6816
1302.237	6714
1304.507	6882
1306.777	6720
1309.044	6842
1311.312	6785
1313.578	6719
1315.844	6852
1318.109	6732
1320.375	6702
1322.638	6719
1324.903	6681
1327.165	6770
1329.427	6921
1331.69	6788
1333.952	6795
1336.212	6816
1338.471	6692
1340.73	6910
1342.988	6803
1345.248	6883
1347.505	6804
1349.763	6776
1352.019	6832
1354.274	6767
1356.53	6683
1358.784	6682
1361.038	6719
1363.291	6738
1365.543	6847
1367.797	6825
1370.048	6900
1372.296	6870
1374.546	6763
1376.796	6844
1379.045	6803
1381.295	6907
1383.542	6745
1385.787	6785
1388.034	6927
1390.28	6967
1392.527	6742
1394.772	6895
1397.014	6981
1399.258	6943
1401.501	6884
1403.741	6950
1405.985	6931
1408.226	6953
1410.465	6911
1412.705	6876
1414.943	7073
1417.184	6982
1419.42	6922
1421.658	7055
1423.894	7049
1426.13	6878
1428.366	7036
1430.602	6999
1432.835	7024
1435.069	7033
1437.301	6947
1439.535	7034
1441.767	7056
1443.997	7197
1446.229	7092
1448.458	7081
1450.687	7164
1452.916	7141
1455.146	7269
1457.372	7173
1459.599	7076
1461.824	7025
1464.051	7189
1466.277	6984
1468.501	7004
1470.725	7019
1472.948	7002
1475.17	6887
1477.393	6932
1479.614	6950
1481.837	6936
1484.057	6840
1486.276	6917
1488.497	6877
1490.715	6812
1492.932	6846
1495.148	6795
1497.364	6836
1499.58	6731
1501.798	6690
1504.012	6799
1506.227	6728
1508.44	6705
1510.653	6663
1512.866	6723
1515.078	6880
1517.289	6766
1519.5	6741
1521.711	6711
1523.92	6777
1526.13	6726
1528.338	6736
1530.544	6724
1532.752	6773
1534.959	6720
1537.165	6672
1539.371	6692
1541.574	6741
1543.779	6679
1545.983	6794
1548.187	6771
1550.39	6834
1552.59	6856
1554.792	6828
1556.991	6774
1559.19	6833
1561.392	6878
1563.59	6793
1565.789	6824
1567.986	6861
1570.182	6989
1572.381	6872
1574.576	6954
1576.771	6906
1578.966	6886
1581.16	6849
1583.354	6986
1585.546	6908
1587.74	6843
1589.931	6936
1592.121	6955
1594.311	6921
1596.502	7057
1598.693	7024
1600.881	6995
1603.069	6956
1605.256	6933
1607.445	6995
1609.631	7021
1611.816	6957
1614.001	6871
1616.186	7020
1618.37	7017
1620.555	7056
1622.737	7088
1624.919	6910
1627.101	6989
1629.282	7078
1631.463	6919
1633.643	7039
1635.822	7124
1638.001	7037
1640.179	7045
1642.359	7099
1644.534	7021
1646.711	7066
1648.887	7005
1651.062	7206
1653.235	7022
1655.412	7067
1657.586	7075
1659.757	7185
1661.93	6963
1664.1	7177
1666.274	7138
1668.445	7056
1670.614	7163
1672.784	7207
1674.951	7126
1677.12	7082
1679.289	7126
1681.457	7120
1683.622	7098
1685.789	7119
1687.953	7110
1690.121	7129
1692.284	7112
1694.447	7140
1696.611	6904
1698.772	6982
1700.935	7063
1703.098	7005
1705.258	6891
1707.417	7009
1709.576	6908
1711.736	6751
1713.896	7022
1716.053	6926
1718.21	7000
1720.366	6962
1722.522	6848
1724.68	6968
1726.835	6866
1728.989	7022
1731.142	6807
1733.295	6827
1735.449	6972
1737.601	6967
1739.753	6810
1741.903	6946
1744.054	6855
1746.203	6965
1748.354	6778
1750.503	6909
1752.651	7113
1754.798	6895
1756.944	6922
1759.092	6977
1761.238	6907
1763.383	6995
1765.528	6986
1767.672	6903
1769.814	7015
1771.959	6983
1774.102	6903
1776.242	6969
1778.384	6944
1780.525	6997
1782.665	6964
1784.805	7024
1786.945	7042
1789.082	6996
1791.22	6917
1793.36	7138
1795.495	6916
1797.632	6982
1799.766	6929
1801.902	6877
1804.035	7058
1806.172	7027
1808.304	6863
1810.436	7012
1812.569	6905
1814.699	7041
1816.833	6869
1818.963	6986
1821.092	6947
1823.222	6964
1825.35	7001
1827.478	7034
1829.608	6929
1831.734	6831
1833.86	6995
1835.986	7057
1838.11	6912
1840.238	6906
1842.362	6884
1844.485	6964
1846.608	6975
1848.73	6974
1850.853	7033
1852.974	6869
1855.097	6867
1857.217	6869
1859.336	6897
1861.455	6854
1863.576	6806
1865.693	6818
1867.811	6926
1869.926	6905
1872.042	6946
1874.16	6851
1876.275	6922
1878.39	6866
1880.504	6924
1882.618	6962
1884.731	6883
1886.843	6936
1888.956	6934
1891.067	7075
1893.178	6856
1895.287	6924
1897.399	6780
1899.508	6907
1901.617	6939
1903.724	7048
1905.832	6945
1907.941	7010
1910.046	6965
1912.152	6936
1914.256	6891
1916.361	6928
1918.464	6888
1920.57	6932
1922.672	7028
1924.775	6930
1926.876	7011
1928.978	7015
1931.08	6956
1933.181	6964
1935.28	7010
1937.38	7006
1939.478	7005
1941.577	7042
1943.675	7037
1945.771	7032
1947.867	6982
1949.964	7048
1952.058	7034
1954.154	7028
1956.248	7029
1958.343	6902
1960.435	7005
1962.527	7082
1964.62	7034
1966.711	7032
1968.802	7060
1970.892	6909
1972.983	6928
1975.072	7063
1977.162	6966
1979.25	6880
1981.337	6938
1983.424	6964
1985.51	6978
1987.598	7032
1989.683	6985
1991.768	6958
1993.852	6991
1995.934	6976
1998.019	6953
2000.102	6905
2002.184	6957
2004.266	6841
2006.347	6887
2008.427	6893
2010.508	6885
2012.587	6847
2014.666	6962
2016.745	6965
2018.821	6957
2020.9	6871
2022.977	6844
2025.052	6715
2027.128	6879
2029.204	6892
2031.277	7015
2033.353	6903
2035.425	6984
2037.499	6797
2039.57	6901
2041.642	7016
2043.714	6963
2045.786	6882
2047.855	6941
2049.925	6845
2051.993	6903
2054.064	6920
2056.132	6998
2058.2	6907
2060.266	6941
2062.332	6976
2064.398	6918
2066.465	6836
2068.529	6916
2070.592	6875
2072.657	6973
2074.719	6908
2076.783	6997
2078.845	6880
2080.907	6830
2082.968	6976
2085.028	6905
2087.087	6883
2089.148	6883
2091.207	6668
2093.264	6888
2095.322	6922
2097.379	6879
2099.439	7013
2101.495	6866
2103.55	6832
2105.605	6886
2107.658	6818
2109.713	6858
2111.767	6922
2113.82	6981
2115.872	6851
2117.924	6938
2119.975	6910
2122.028	6738
2124.078	6834
2126.126	6799
2128.176	6871
2130.225	6881
2132.275	6938
2134.321	6889
2136.368	6798
2138.415	6809
2140.461	6766
2142.505	6870
2144.552	6836
2146.597	6856
2148.64	6855
2150.684	6845
2152.725	6894
2154.77	6863
2156.811	6842
2158.852	6781
2160.894	6946
2162.933	6940
2164.973	6698
2167.013	6851
2169.051	6773
2171.089	6858
2173.126	6711
2175.164	6785
2177.201	6744
2179.236	6851
2181.273	6833
2183.307	6701
2185.341	6764
2187.377	6702
2189.41	6637
2191.442	6697
2193.473	6789
2195.506	6739
2197.539	6628
2199.569	6775
2201.598	6764
2203.628	6712
2205.656	6567
2207.686	6738
2209.716	6761
2211.743	6676
2213.769	6692
2215.796	6637
2217.821	6761
2219.848	6742
2221.873	6570
2223.897	6651
2225.921	6686
2227.944	6671
2229.967	6649
2231.991	6636
2234.011	6778
2236.032	6706
2238.053	6649
2240.073	6755
2242.094	6649
2244.114	6664
2246.131	6624
2248.149	6641
2250.167	6668
2252.186	6633
2254.201	6600
2256.218	6647
2258.233	6658
2260.247	6700
2262.262	6637
2264.278	6542
2266.29	6628
2268.303	6632
2270.315	6632
2272.327	6715
2274.341	6630
2276.35	6523
2278.361	6702
2280.37	6540
2282.38	6698
2284.388	6664
2286.397	6640
2288.405	6622
2290.412	6615
2292.419	6659
2294.425	6595
2296.431	6717
2298.437	6714
2300.441	6706
2302.445	6575
2304.449	6642
2306.453	6549
2308.455	6683
2310.457	6564
2312.459	6617
2314.46	6620
2316.46	6571
2318.461	6532
2320.46	6440
2322.458	6678
2324.458	6521
2326.456	6573
2328.455	6533
2330.451	6482
2332.447	6523
2334.443	6590
2336.438	6517
2338.433	6552
2340.429	6456
2342.422	6559
2344.416	6606
2346.408	6559
2348.399	6571
2350.393	6584
2352.384	6449
2354.375	6438
2356.365	6505
2358.355	6478
2360.344	6515
2362.333	6422
2364.322	6361
2366.309	6606
2368.295	6450
2370.282	6434
2372.27	6415
2374.256	6547
2376.24	6426
2378.225	6531
2380.208	6423
2382.194	6353
2384.177	6468
2386.159	6454
2388.142	6428
2390.122	6425
2392.105	6449
2394.085	6487
2396.066	6457
2398.044	6566
2400.024	6445
2402.002	6414
2403.982	6310
2405.959	6398
2407.935	6450
2409.913	6371
2411.888	6431
2413.865	6374
2415.84	6367
2417.814	6355
2419.788	6523
2421.762	6302
2423.735	6387
2425.708	6403
2427.68	6216
2429.651	6466
2431.623	6299
2433.593	6424
2435.564	6434
2437.533	6428
2439.502	6359
2441.47	6324
2443.438	6433
2445.406	6446
2447.373	6359
2449.34	6433
2451.305	6342
2453.271	6352
2455.235	6254
2457.201	6387
2459.165	6395
2461.129	6333
2463.092	6376
2465.054	6378
2467.018	6367
2468.978	6384
2470.939	6304
2472.899	6298
2474.86	6336
2476.819	6224
2478.778	6279
2480.737	6230
2482.695	6291
2484.653	6336
2486.609	6173
2488.567	6307
2490.524	6342
2492.478	6263
2494.433	6224
2496.387	6194
2498.343	6140
2500.297	6226
2502.249	6362
2504.202	6224
2506.153	6380
2508.105	6325
2510.057	6295
2512.008	6096
2513.957	6199
2515.906	6296
2517.855	6118
2519.805	6214
2521.754	6377
2523.7	6278
2525.647	6178
2527.594	6206
2529.54	6220
2531.486	6183
2533.431	6265
2535.376	6139
2537.32	6321
2539.263	6093
2541.207	6178
2543.151	6076
2545.093	6167
2547.034	6224
2548.975	6210
2550.917	6177
2552.856	6112
2554.796	6237
2556.735	6079
2558.673	6155
2560.611	6187
2562.55	6139
2564.487	6203
2566.424	6272
2568.36	6260
2570.296	6165
2572.232	6129
2574.167	6345
2576.101	6183
2578.035	6164
2579.969	6159
2581.902	6288
2583.834	6245
2585.766	6204
2587.698	6124
2589.628	6347
2591.557	6161
2593.489	6277
2595.419	6188
2597.348	6230
2599.275	6196
2601.204	6243
2603.131	6150
2605.059	6134
2606.986	6224
2608.911	6161
2610.837	6161
2612.76	6198
2614.687	6256
2616.61	6123
2618.534	6141
2620.457	6196
2622.38	6179
2624.302	6295
2626.225	6080
2628.145	6356
2630.067	6185
2631.986	6118
2633.906	6161
2635.827	6190
2637.745	6142
2639.662	6319
2641.581	6135
2643.498	6242
2645.415	6305
2647.331	6151
2649.248	6201
2651.163	6256
2653.077	6121
2654.993	6081
2656.906	6176
2658.821	6245
2660.733	6116
2662.646	6107
2664.557	6115
2666.47	6179
2668.381	6134
2670.291	6216
2672.201	6116
2674.11	6058
2676.021	6135
2677.929	6192
2679.837	6102
2681.745	6205
2683.652	6127
2685.56	6142
2687.466	6084
2689.371	6171
2691.276	6104
2693.181	6076
2695.085	6177
2696.991	6052
2698.893	6202
2700.796	5995
2702.698	6075
2704.601	6079
2706.502	6002
2708.404	6096
2710.304	6095
2712.203	6165
2714.103	5991
2716.003	6185
2717.902	5956
2719.8	6031
2721.697	6028
2723.594	6092
2725.49	5996
2727.389	5972
2729.283	6101
2731.179	6001
2733.073	5915
2734.968	6048
2736.863	6074
2738.757	6002
2740.649	6096
2742.541	6020
2744.433	5971
2746.324	6034
2748.216	6016
2750.107	6012
2751.997	5961
2753.886	5987
2755.776	6124
2757.666	6044
2759.553	5999
2761.44	6029
2763.327	6059
2765.215	6008
2767.102	5948
2768.988	6007
2770.873	5988
2772.757	5959
2774.641	5904
2776.525	5856
2778.41	5889
2780.292	6024
2782.175	5969
2784.057	5944
2785.938	5907
2787.821	5971
2789.701	5898
2791.581	5934
2793.461	5830
2795.34	5905
2797.219	5978
2799.099	5990
2800.975	5986
2802.853	5990
2804.73	5878
2806.606	5920
2808.484	5920
2810.358	5891
2812.233	5927
2814.108	5873
2815.981	5911
2817.857	5955
2819.73	5909
2821.602	5859
2823.474	5870
2825.346	5887
2827.217	5843
2829.089	5850
2830.959	5892
2832.829	5858
2834.698	5858
2836.567	5997
2838.436	5820
2840.305	5898
2842.172	5956
2844.04	5968
2845.905	5990
2847.772	5826
2849.639	5936
2851.503	6009
2853.369	5902
2855.232	6034
2857.096	6015
2858.961	5970
2860.824	6083
2862.686	5952
2864.547	6063
2866.41	5991
2868.272	6096
2870.132	6196
2871.992	6122
2873.851	6185
2875.711	6311
2877.57	6376
2879.429	6251
2881.287	6347
2883.144	6386
2885.001	6529
2886.857	6451
2888.714	6417
2890.57	6528
2892.425	6487
2894.279	6469
2896.133	6527
2897.987	6460
2899.842	6414
2901.694	6399
2903.547	6488
2905.397	6435
2907.249	6449
2909.101	6454
2910.952	6365
2912.802	6456
2914.652	6496
2916.5	6540
2918.35	6619
2920.198	6649
2922.045	6711
2923.893	6837
2925.74	6845
2927.585	6761
2929.433	6891
2931.279	6924
2933.123	6993
2934.968	6972
2936.811	7062
2938.656	7193
2940.5	7222
2942.342	7325
2944.185	7161
2946.026	7219
2947.87	7432
2949.71	7336
2951.549	7196
2953.39	7347
2955.229	7081
2957.069	7065
2958.908	6975
2960.746	7033
2962.584	6871
2964.421	6797
2966.257	6835
2968.094	6776
2969.931	6728
2971.766	6687
2973.601	6499
2975.435	6640
2977.27	6562
2979.105	6538
2980.938	6553
2982.77	6465
2984.602	6493
2986.434	6469
2988.267	6571
2990.097	6329
2991.927	6265
2993.757	6318
2995.587	6255
2997.417	6241
2999.246	6141
3001.074	6073
3002.902	6119
3004.729	6003
3006.556	5900
3008.384	5943
3010.21	5851
3012.036	5871
3013.861	5785
3015.684	5919
3017.51	5730
3019.334	5655
3021.157	5651
3022.981	5676
3024.802	5699
3026.624	5679
3028.448	5568
3030.267	5627
3032.088	5583
3033.909	5565
3035.728	5574
3037.549	5562
3039.368	5524
3041.186	5494
3043.004	5568
3044.821	5586
3046.64	5496
3048.455	5612
3050.272	5557
3052.087	5605
3053.903	5518
3055.717	5468
3057.534	5536
3059.347	5467
3061.16	5439
3062.974	5630
3064.785	5577
3066.598	5431
3068.411	5445
3070.222	5456
3072.032	5513
3073.844	5374
3075.653	5435
3077.463	5419
3079.272	5428
3081.08	5410
3082.889	5394
3084.697	5467
3086.505	5357
3088.312	5425
3090.118	5515
3091.924	5404
3093.729	5335
3095.535	5410
3097.34	5368
3099.144	5367
3100.947	5280
3102.75	5372
3104.553	5402
3106.357	5349
3108.159	5303
3109.961	5320
3111.762	5163
3113.562	5300
3115.365	5138
3117.164	5301
3118.964	5257
3120.761	5361
3122.56	5335
3124.36	5200
3126.158	5216
3127.954	5319
3129.75	5200
3131.547	5300
3133.343	5111
3135.139	5335
3136.934	5259
3138.729	5272
3140.522	5174
3142.317	5254
3144.11	5183
3145.904	5220
3147.695	5262
3149.488	5125
3151.28	5155
3153.07	5283
3154.863	5196
3156.652	5139
3158.441	5097
3160.231	5174
3162.019	5076
3163.81	5104
3165.597	5141
3167.384	5116
3169.172	5277
3170.958	5102
3172.745	5078
3174.532	5173
3176.317	5135
3178.101	5170
3179.885	5131
3181.67	5117
3183.455	5109
3185.238	5164
3187.02	5048
3188.802	5224
3190.585	5096
3192.368	5085
3194.149	5085
3195.929	5122
3197.709	5105
3199.489	5116
3201.268	5073
3203.048	5176
3204.826	5112
3206.604	5126
3208.382	5069
3210.159	5163
3211.937	5127
3213.713	5006
3215.489	5113
3217.263	5106
3219.038	5131
3220.815	5063
3222.589	5078
3224.363	5073
3226.136	5040
3227.908	5032
3229.681	5064
3231.454	5106
3233.226	5035
3234.996	5083
3236.767	5134
3238.538	4998
3240.308	5143
3242.078	5102
3243.847	5136
3245.615	5067
3247.384	5026
3249.15	5120
3250.92	5069
3252.686	5069
3254.453	5043
3256.218	5264
3257.984	4997
3259.75	5090
3261.515	5128
3263.279	5157
3265.044	5010
3266.806	5019
3268.57	4995
3270.334	5076
3272.095	4987
3273.856	5050
3275.619	5090
3277.379	5140
3279.14	5108
3280.9	5142
3282.661	5045
3284.419	5094
3286.178	4995
3287.937	5148
3289.695	5098
3291.453	5099
3293.21	5108
3294.967	5138
3296.723	5044
3298.48	5164
3300.235	5024
3301.99	5083
3303.744	5033
3305.498	5087
3307.253	4976
3309.006	5035
3310.759	5080
3312.511	5021
3314.263	5117
3316.017	5063
3317.768	5118
3319.519	5064
3321.268	4953
3323.018	4992
3324.767	4987
3326.518	5029
3328.267	5028
3330.014	5135
3331.762	5008
3333.509	4982
3335.258	5052
3337.003	5005
3338.75	4943
3340.496	5107
3342.24	4997
3343.987	4992
3345.732	4951
3347.475	4980
3349.219	5025
3350.961	4989
3352.705	5013
3354.448	5048
3356.19	4949
3357.931	4842
3359.672	4849
3361.412	5016
3363.155	4873
3364.894	4881
3366.633	4924
3368.372	5041
3370.11	4856
3371.849	4863
3373.588	4861
3375.325	4962
3377.061	4861
3378.799	4917
3380.534	4936
3382.271	4872
3384.006	4869
3385.741	4857
3387.475	4862
3389.209	4828
3390.944	4929
3392.677	4937
3394.409	4914
3396.143	4883
3397.874	4865
3399.606	4976
3401.338	4827
3403.069	4896
3404.799	4846
3406.528	4882
3408.258	4858
3409.988	4767
3411.717	4809
3413.445	4768
3415.173	4839
3416.899	4834
3418.626	4814
3420.354	4766
3422.08	4688
3423.806	4732
3425.531	4824
3427.255	4744
3428.981	4786
3430.705	4790
3432.429	4747
3434.151	4763
3435.875	4820
3437.599	4732
3439.321	4733
3441.042	4722
3442.763	4730
3444.483	4750
3446.204	4746
3447.926	4629
3449.645	4694
3451.364	4757
3453.082	4708
3454.801	4692
3456.52	4740
3458.238	4693
3459.954	4578
3461.671	4669
3463.387	4750
3465.104	4807
3466.82	4577
3468.534	4635
3470.25	4639
3471.963	4577
3473.676	4566
3475.392	4650
3477.104	4563
3478.817	4635
3480.528	4593
3482.241	4563
3483.954	4573
3485.664	4588
3487.374	4527
3489.084	4467
3490.795	4564
3492.504	4555
3494.214	4434
3495.922	4513
3497.63	4487
3499.338	4482
3501.045	4530
3502.753	4454
3504.459	4512
3506.166	4469
3507.871	4448
3509.576	4492
3511.283	4481
3512.987	4420
3514.691	4435
3516.395	4493
3518.098	4478
3519.8	4419
3521.504	4417
3523.206	4466
3524.908	4403
3526.609	4366
3528.309	4426
3530.011	4380
3531.711	4434
3533.411	4386
3535.109	4471
3536.808	4434
3538.507	4442
3540.206	4412
3541.904	4379
3543.601	4297
3545.297	4357
3546.994	4337
3548.69	4334
3550.387	4245
3552.081	4329
3553.776	4289
3555.47	4377
3557.166	4233
3558.859	4334
3560.553	4342
3562.245	4376
3563.938	4350
3565.629	4320
3567.322	4242
3569.014	4209
3570.704	4314
3572.394	4373
3574.084	4262
3575.775	4265
3577.464	4246
3579.152	4194
3580.842	4275
3582.529	4358
3584.216	4203
3585.905	4246
3587.591	4190
3589.279	4232
3590.964	4208
3592.649	4249
3594.336	4230
3596.021	4275
3597.705	4158
3599.388	4186
3601.072	4141
3602.757	4193
3604.439	4240
3606.122	4198
3607.803	4115
3609.485	4148
3611.167	4140
3612.849	4150
3614.529	4191
3616.208	4096
3617.888	4071
3619.567	4184
3621.247	4114
3622.926	4063
3624.603	4138
3626.281	3997
3627.958	4108
3629.635	4109
3631.312	4106
3632.989	4078
3634.665	4079
3636.339	4066
3638.014	4114
3639.691	3991
3641.364	3940
3643.038	4099
3644.71	4017
3646.384	4022
3648.058	3996
3649.729	4055
3651.402	4015
3653.073	3958
3654.744	3976
3656.414	3945
3658.085	3894
3659.755	4005
3661.424	3955
3663.094	4018
3664.762	3925
3666.431	3958
3668.099	3895
3669.766	3950
3671.433	3954
3673.099	3999
3674.768	3870
3676.433	3958
3678.098	3918
3679.763	3839
3681.428	3946
3683.093	3945
3684.757	3869
3686.421	3864
3688.083	3897
3689.746	3873
3691.408	3948
3693.071	3842
3694.733	3845
3696.394	3858
3698.054	3905
3699.715	3954
3701.375	3839
3703.036	3856
3704.695	3948
3706.354	3865
3708.012	3854
3709.67	3835
3711.329	3787
3712.987	3903
3714.644	3839
3716.299	3809
3717.955	3883
3719.613	3831
3721.268	3859
3722.923	3771
3724.577	3837
3726.231	3850
3727.885	3682
3729.539	3836
3731.192	3812
3732.845	3859
3734.497	3797
3736.149	3775
3737.802	3836
3739.453	3816
3741.104	3729
3742.753	3807
3744.404	3762
3746.052	3741
3747.704	3766
3749.352	3782
3751	3799
3752.648	3725
3754.296	3746
3755.944	3885
3757.59	3710
3759.238	3814
3760.883	3738
3762.528	3680
3764.176	3736
3765.82	3752
3767.464	3778
3769.109	3729
3770.753	3778
3772.396	3707
3774.04	3735
3775.683	3719
3777.325	3650
3778.967	3697
3780.608	3701
3782.25	3654
3783.89	3638
3785.531	3751
3787.17	3657
3788.81	3672
3790.45	3701
3792.09	3674
3793.729	3679
3795.366	3629
3797.003	3692
3798.64	3714
3800.278	3583
3801.915	3692
3803.551	3703
3805.187	3581
3806.822	3722
3808.458	3640
3810.093	3532
3811.726	3660
3813.36	3655
3814.994	3597
3816.627	3608
3818.262	3602
3819.893	3664
3821.525	3535
3823.157	3631
3824.787	3582
3826.42	3578
3828.051	3612
3829.68	3655
3831.31	3639
3832.938	3643
3834.569	3624
3836.198	3604
3837.825	3548
3839.454	3602
3841.08	3569
3842.708	3604
3844.335	3569
3845.962	3621
3847.587	3542
3849.212	3573
3850.838	3518
3852.463	3565
3854.089	3589
3855.712	3514
3857.335	3481
3858.959	3556
3860.582	3490
3862.205	3541
3863.827	3529
3865.449	3588
3867.07	3510
3868.691	3434
3870.312	3481
3871.933	3560
3873.553	3503
3875.173	3452
3876.792	3491
3878.411	3464
3880.03	3455
3881.647	3469
3883.265	3452
3884.882	3462
3886.499	3509
3888.116	3425
3889.732	3471
3891.348	3508
3892.964	3482
3894.579	3460
3896.195	3361
3897.809	3495
3899.423	3441
3901.036	3486
3902.648	3454
3904.261	3423
3905.875	3415
3907.487	3414
3909.099	3509
3910.709	3412
3912.321	3469
3913.933	3425
3915.542	3367
3917.152	3377
3918.762	3478
3920.37	3384
3921.98	3388
3923.589	3485
3925.196	3314
3926.804	3395
3928.41	3356
3930.018	3443
3931.626	3465
3933.231	3357
3934.838	3374
3936.442	3446
3938.046	3448
3939.653	3379
3941.257	3398
3942.861	3405
3944.464	3358
3946.068	3420
3947.67	3367
3949.273	3483
3950.876	3409
3952.477	3385
3954.078	3377
3955.678	3376
3957.281	3292
3958.881	3361
3960.48	3401
3962.079	3363
3963.678	3397
3965.279	3335
3966.877	3325
3968.475	3323
3970.072	3386
3971.669	3408
3973.266	3337
3974.864	3367
3976.459	3310
3978.055	3384
3979.65	3311
3981.245	3272
3982.841	3334
3984.436	3313
3986.03	3296
3987.623	3189
3989.216	3293
3990.809	3223
3992.403	3257
3993.995	3301
3995.586	3206
3997.177	3268
3998.768	3247
4000.361	3253
4001.951	3184
4003.54	3221
4005.13	3223
4006.719	3236
4008.31	3147
4009.897	3160
4011.485	3268
4013.073	3185
4014.66	3179
4016.247	3158
4017.834	3162
4019.421	3208
4021.006	3249
4022.592	3165
4024.178	3217
4025.763	3251
4027.348	3154
4028.932	3175
4030.515	3180
4032.099	3173
4033.682	3172
4035.266	3113
4036.847	3173
4038.429	3089
4040.011	3152
4041.592	3153
4043.173	3047
4044.755	3149
4046.334	3182
4047.913	3109
4049.494	3131
4051.074	3143
4052.652	3176
4054.23	3093
4055.807	3114
4057.385	3123
4058.963	3094
4060.541	3143
4062.117	3156
4063.693	3099
4065.269	3069
4066.844	3170
4068.42	3074
4069.995	3110
4071.569	3062
4073.143	3058
4074.716	3104
4076.291	3090
4077.864	3090
4079.436	3088
4081.009	3045
4082.58	3060
4084.152	3051
4085.723	3123
4087.294	3037
4088.865	3038
4090.435	3074
4092.005	3055
4093.574	3012
4095.143	2958
4096.712	3043
4098.279	3026
4099.848	3064
4101.416	3027
4102.984	2984
4104.55	3099
4106.117	3004
4107.682	3071
4109.248	2964
4110.815	3043
4112.379	3035
4113.945	3044
4115.508	2999
4117.073	2981
4118.637	2978
4120.201	2955
4121.763	2978
4123.325	3019
4124.888	2955
4126.449	2922
4128.013	2910
4129.573	2989
4131.133	2982
4132.694	2997
4134.254	2971
4135.814	2913
4137.374	2928
4138.933	2964
4140.491	2926
4142.049	2918
4143.607	2917
4145.167	2956
4146.724	2974
4148.28	2891
4149.836	2953
4151.392	2989
4152.949	2902
4154.504	2860
4156.059	2866
4157.614	2865
4159.168	2888
4160.723	2870
4162.277	2844
4163.83	2919
4165.383	2904
4166.936	2888
4168.488	2864
4170.041	2865
4171.593	2941
4173.144	2861
4174.695	2892
4176.246	2867
4177.796	2855
4179.346	2856
4180.896	2909
4182.445	2837
4183.994	2861
4185.542	2829
4187.091	2832
4188.639	2828
4190.185	2798
4191.732	2839
4193.279	2832
4194.826	2830
4196.373	2776
4197.918	2872
4199.463	2748
4201.008	2793
4202.553	2824
4204.098	2764
4205.641	2840
4207.185	2794
4208.728	2780
4210.271	2789
4211.814	2790
4213.357	2776
4214.898	2806
4216.439	2769
4217.98	2765
4219.522	2781
4221.062	2787
4222.603	2728
4224.142	2765
4225.681	2735
4227.222	2808
4228.76	2828
4230.298	2739
4231.835	2781
4233.373	2762
4234.911	2830
4236.449	2782
4237.985	2767
4239.521	2729
4241.057	2724
4242.592	2784
4244.128	2692
4245.663	2721
4247.197	2735
4248.731	2724
4250.265	2633
4251.798	2737
4253.333	2719
4254.865	2744
4256.397	2701
4257.93	2790
4259.461	2712
4260.994	2671
4262.525	2714
4264.056	2711
4265.586	2727
4267.115	2734
4268.646	2716
4270.176	2688
4271.705	2718
4273.232	2711
4274.761	2811
4276.289	2767
4277.818	2651
4279.345	2748
4280.872	2667
4282.399	2679
4283.924	2606
4285.452	2662
4286.976	2682
4288.502	2681
4290.026	2680
4291.551	2755
4293.074	2574
4294.6	2652
4296.123	2632
4297.646	2625
4299.168	2641
4300.691	2634
4302.214	2615
4303.736	2677
4305.257	2641
4306.778	2633
4308.299	2643
4309.82	2640
4311.34	2620
4312.86	2599
4314.379	2701
