400.0745	4717
402.597	4744
405.1208	4721
407.6419	4733
410.1623	4750
412.6819	4799
415.201	4884
417.7172	4892
420.2369	4853
422.7538	4973
425.2701	4851
427.7856	4986
430.3005	4942
432.8147	4899
435.3282	4985
437.841	5091
440.3511	4892
442.8625	4991
445.3753	4988
447.8854	5161
450.3927	5108
452.9014	5058
455.4073	5108
457.9146	5131
460.4233	5071
462.9272	5062
465.4325	5104
467.935	5168
470.4389	5115
472.9421	5113
475.4446	5203
477.9444	5072
480.4456	5080
482.944	5180
485.4417	5178
487.9429	5194
490.4393	5128
492.935	5233
495.4321	5160
497.9264	5307
500.4221	5337
502.9171	5237
505.4094	5196
507.9011	5275
510.392	5231
512.8864	5279
515.3759	5323
517.8649	5331
520.3531	5286
522.8406	5283
525.3275	5255
527.8178	5428
530.3033	5395
532.7881	5308
535.2723	5368
537.7558	5337
540.2407	5326
542.7228	5368
545.2043	5394
547.6851	5397
550.1652	5257
552.6467	5305
555.1255	5416
557.6016	5417
560.079	5352
562.5557	5409
565.0318	5401
567.5092	5394
569.984	5428
572.456	5471
574.9294	5561
577.4022	5432
579.8762	5583
582.3456	5502
584.8163	5474
587.2863	5550
589.7557	5589
592.2224	5558
594.6924	5654
597.1578	5562
599.6245	5521
602.0905	5489
604.5538	5542
607.0206	5575
609.4825	5546
611.9459	5498
614.4066	5618
616.8686	5581
619.33	5596
621.7906	5518
624.2487	5517
626.708	5541
629.1647	5499
631.6207	5608
634.0801	5611
636.5348	5608
638.9888	5626
641.4442	5518
643.8969	5575
646.3509	5562
648.8022	5550
651.255	5472
653.705	5641
656.1544	5663
658.6031	5536
661.0532	5770
663.5026	5707
665.9493	5708
668.3954	5625
670.8409	5574
673.2877	5726
675.7318	5682
678.1752	5750
680.618	5861
683.0601	5825
685.5035	5637
687.9444	5777
690.3845	5790
692.824	5845
695.2628	5776
697.701	5829
700.1406	5838
702.5774	5841
705.0116	5851
707.4472	5807
709.8821	5775
712.3183	5832
714.7519	5848
717.1829	5817
719.6151	5888
722.0468	5777
724.4777	5882
726.908	6030
729.3377	5926
731.7667	6037
734.1931	5923
736.6208	5985
739.0498	6039
741.4742	6144
743.9	6077
746.3231	6030
748.7476	6055
751.1713	6131
753.5945	6121
756.015	6117
758.4368	6039
760.856	6115
763.2766	6168
765.6965	6197
768.1157	6145
770.5323	6220
772.9483	6189
775.3656	6115
777.7822	6180
780.1963	6222
782.6116	6253
785.0244	6252
787.4365	6145
789.8499	6230
792.2626	6170
794.6728	6229
797.0823	6183
799.4911	6125
801.8994	6166
804.3109	6265
806.7178	6329
809.124	6131
811.5297	6148
813.9347	6234
816.341	6391
818.7447	6212
821.1478	6352
823.5502	6255
825.952	6228
828.3531	6396
830.7556	6271
833.1554	6312
835.5546	6372
837.9532	6196
840.3511	6264
842.7504	6366
845.1451	6368
847.5411	6437
849.9365	6253
852.3312	6447
854.7272	6239
857.1187	6360
859.5115	6393
861.9037	6312
864.2952	6293
866.6842	6302
869.0764	6212
871.4661	6281
873.8531	6347
876.2415	6372
878.6272	6348
881.0162	6221
883.4026	6286
885.7866	6285
888.1717	6392
890.5543	6375
892.9382	6228
895.3215	6284
897.7041	6453
900.0842	6315
902.4655	6385
904.8443	6535
907.2244	6423
909.6039	6420
911.9808	6439
914.357	6407
916.7346	6445
919.1115	6406
921.4859	6616
923.8616	6572
926.2347	6681
928.6071	6613
930.979	6532
933.3541	6589
935.7247	6609
938.0946	6670
940.4639	6573
942.8326	6468
945.2026	6672
947.5701	6771
949.9369	6844
952.305	6831
954.6705	6911
957.0355	6934
959.4017	7224
961.7654	7105
964.1284	7120
966.4908	7047
968.8527	6950
971.2138	6912
973.5743	6782
975.9343	6606
978.2936	6621
980.6522	6497
983.0122	6591
985.3696	6570
987.7245	6555
990.0807	6580
992.4362	6570
994.7911	6635
997.1474	6585
999.4991	6568
1001.852	6720
1004.205	6609
1006.555	6547
1008.908	6592
1011.258	6601
1013.606	6501
1015.956	6613
1018.302	6532
1020.652	6650
1022.998	6637
1025.345	6540
1027.691	6636
1030.035	6593
1032.378	6651
1034.724	6621
1037.066	6645
1039.409	6635
1041.75	6715
1044.092	6736
1046.433	6628
1048.771	6715
1051.112	6718
1053.449	6685
1055.786	6754
1058.124	6707
1060.462	6765
1062.797	6675
1065.131	6703
1067.467	6723
1069.8	6724
1072.135	6764
1074.467	6776
1076.798	6823
1079.129	6779
1081.459	6704
1083.792	6773
1086.121	6698
1088.449	6779
1090.777	6766
1093.104	6697
1095.431	6778
1097.759	6734
1100.084	6749
1102.408	6725
1104.732	6777
1107.056	6700
1109.379	6789
1111.701	6769
1114.022	6695
1116.343	6889
1118.664	6865
1120.983	6730
1123.303	6822
1125.621	6760
1127.939	6894
1130.256	6875
1132.573	6788
1134.889	6729
1137.205	6815
1139.52	6887
1141.832	6768
1144.146	6819
1146.461	6721
1148.771	6828
1151.083	6833
1153.392	6740
1155.703	6886
1158.011	6816
1160.323	6770
1162.629	6746
1164.938	6843
1167.243	6731
1169.55	6950
1171.857	6701
1174.163	6717
1176.466	6786
1178.769	6801
1181.073	6834
1183.374	6782
1185.677	6736
1187.979	6954
1190.279	6776
1192.578	6842
1194.878	6772
1197.178	6766
1199.476	6704
1201.772	6760
1204.068	6815
1206.366	6862
1208.663	6833
1210.957	6734
1213.251	6913
1215.544	6856
1217.836	6818
1220.128	6800
1222.421	6858
1224.712	6806
1227.002	6957
1229.292	6901
1231.581	6970
1233.871	6917
1236.159	6906
1238.446	6996
1240.732	6994
1243.018	6909
1245.304	6932
1247.59	6964
1249.874	7017
1252.156	7077
1254.439	7075
1256.721	7054
1259.005	7050
1261.286	7025
1263.565	7068
1265.845	7002
1268.125	6930
1270.403	6949
1272.682	7034
1274.959	6988
1277.234	6922
1279.511	6935
1281.787	7043
1284.062	6909
1286.337	7033
1288.609	7018
1290.882	6859
1293.153	6958
1295.428	6940
1297.698	6986
1299.969	6891
1302.237	6868
1304.507	6925
1306.777	6980
1309.044	6956
1311.312	7051
1313.578	6949
1315.844	6949
1318.109	6899
1320.375	6938
1322.638	6998
1324.903	6918
1327.165	6885
1329.427	6869
1331.69	7049
1333.952	7038
1336.212	6987
1338.471	6968
1340.73	7016
1342.988	6975
1345.248	6802
1347.505	6850
1349.763	6885
1352.019	6953
1354.274	6946
1356.53	6939
1358.784	6980
1361.038	7019
1363.291	6988
1365.543	7004
1367.797	7111
1370.048	6873
1372.296	6970
1374.546	6806
1376.796	6990
1379.045	7066
1381.295	6938
1383.542	6929
1385.787	7201
1388.034	7028
1390.28	6952
1392.527	7017
1394.772	7148
1397.014	7016
1399.258	7123
1401.501	7166
1403.741	7116
1405.985	7080
1408.226	6995
1410.465	7087
1412.705	7169
1414.943	7108
1417.184	7068
1419.42	7157
1421.658	7230
1423.894	7143
1426.13	7161
1428.366	7075
1430.602	7060
1432.835	7313
1435.069	7193
1437.301	7042
1439.535	7171
1441.767	7176
1443.997	7078
1446.229	7149
1448.458	7183
1450.687	7249
1452.916	7221
1455.146	7205
1457.372	7227
1459.599	7212
1461.824	7176
1464.051	7246
1466.277	7219
1468.501	7233
1470.725	7218
1472.948	7081
1475.17	7152
1477.393	7025
1479.614	7159
1481.837	7143
1484.057	7016
1486.276	7127
1488.497	7033
1490.715	7012
1492.932	7084
1495.148	6929
1497.364	6952
1499.58	6876
1501.798	7019
1504.012	6939
1506.227	6877
1508.44	7035
1510.653	6854
1512.866	6819
1515.078	6967
1517.289	6956
1519.5	6943
1521.711	6896
1523.92	6960
1526.13	6914
1528.338	6960
1530.544	6951
1532.752	6932
1534.959	6980
1537.165	6915
1539.371	7028
1541.574	6942
1543.779	7016
1545.983	6856
1548.187	6880
1550.39	6951
1552.59	6984
1554.792	6974
1556.991	6910
1559.19	7032
1561.392	6946
1563.59	6972
1565.789	7090
1567.986	7123
1570.182	7108
1572.381	6997
1574.576	7142
1576.771	6993
1578.966	7174
1581.16	7009
1583.354	7145
1585.546	7022
1587.74	7031
1589.931	7240
1592.121	7232
1594.311	7130
1596.502	7155
1598.693	7068
1600.881	7081
1603.069	7098
1605.256	7217
1607.445	7187
1609.631	7179
1611.816	7233
1614.001	7176
1616.186	7098
1618.37	7188
1620.555	7181
1622.737	7133
1624.919	7288
1627.101	7176
1629.282	7120
1631.463	7194
1633.643	7206
1635.822	7139
1638.001	7207
1640.179	7249
1642.359	7152
1644.534	7342
1646.711	7320
1648.887	7320
1651.062	7256
1653.235	7186
1655.412	7306
1657.586	7146
1659.757	7281
1661.93	7194
1664.1	7308
1666.274	7243
1668.445	7258
1670.614	7205
1672.784	7399
1674.951	7252
1677.12	7187
1679.289	7285
1681.457	7176
1683.622	7138
1685.789	7215
1687.953	7166
1690.121	7214
1692.284	7188
1694.447	7202
1696.611	7166
1698.772	7154
1700.935	7093
1703.098	7222
1705.258	7103
1707.417	7063
1709.576	7224
1711.736	7120
1713.896	6999
1716.053	7118
1718.21	7099
1720.366	7170
1722.522	7021
1724.68	7129
1726.835	7237
1728.989	7051
1731.142	7076
1733.295	7100
1735.449	7020
1737.601	7165
1739.753	7020
1741.903	7043
1744.054	7158
1746.203	7051
1748.354	7059
1750.503	7158
1752.651	7088
1754.798	7136
1756.944	7097
1759.092	7237
1761.238	7159
1763.383	7262
1765.528	7135
1767.672	7221
1769.814	7121
1771.959	7140
1774.102	7220
1776.242	7201
1778.384	7182
1780.525	7171
1782.665	7139
1784.805	7159
1786.945	7115
1789.082	7202
1791.22	7182
1793.36	7272
1795.495	7163
1797.632	7142
1799.766	7229
1801.902	7108
1804.035	7160
1806.172	7175
1808.304	7255
1810.436	7143
1812.569	7107
1814.699	7206
1816.833	7081
1818.963	7323
1821.092	7098
1823.222	7170
1825.35	7146
1827.478	7070
1829.608	7152
1831.734	7191
1833.86	7158
1835.986	7336
1838.11	7127
1840.238	7212
1842.362	6919
1844.485	7141
1846.608	7068
1848.73	7170
1850.853	7020
1852.974	7069
1855.097	7051
1857.217	7144
1859.336	7171
1861.455	6992
1863.576	7018
1865.693	7046
1867.811	7087
1869.926	7156
1872.042	7189
1874.16	7143
1876.275	7043
1878.39	6987
1880.504	7151
1882.618	7047
1884.731	7074
1886.843	7129
1888.956	7274
1891.067	7094
1893.178	7130
1895.287	7063
1897.399	7159
1899.508	7178
1901.617	7131
1903.724	7132
1905.832	7138
1907.941	7075
1910.046	7203
1912.152	7091
1914.256	7216
1916.361	7183
1918.464	7101
1920.57	7249
1922.672	7291
1924.775	7174
1926.876	7140
1928.978	7273
1931.08	7130
1933.181	7261
1935.28	7170
1937.38	7203
1939.478	7240
1941.577	7254
1943.675	7279
1945.771	7104
1947.867	7193
1949.964	7205
1952.058	7247
1954.154	7218
1956.248	7289
1958.343	7175
1960.435	7244
1962.527	7145
1964.62	7113
1966.711	7157
1968.802	7198
1970.892	7214
1972.983	7126
1975.072	7097
1977.162	7179
1979.25	6993
1981.337	7120
1983.424	7105
1985.51	7162
1987.598	7103
1989.683	7261
1991.768	7034
1993.852	7105
1995.934	7095
1998.019	7121
2000.102	7159
2002.184	7143
2004.266	7016
2006.347	7143
2008.427	7077
2010.508	7069
2012.587	7120
2014.666	7053
2016.745	7035
2018.821	6908
2020.9	7140
2022.977	7018
2025.052	7032
2027.128	7153
2029.204	7110
2031.277	7221
2033.353	6975
2035.425	7182
2037.499	7008
2039.57	7098
2041.642	7112
2043.714	7132
2045.786	7063
2047.855	7165
2049.925	7110
2051.993	7187
2054.064	7133
2056.132	7171
2058.2	7009
2060.266	7156
2062.332	7095
2064.398	7069
2066.465	7067
2068.529	7003
2070.592	7164
2072.657	7026
2074.719	7117
2076.783	7066
2078.845	7155
2080.907	7099
2082.968	7064
2085.028	7066
2087.087	7089
2089.148	7141
2091.207	7087
2093.264	7063
2095.322	7085
2097.379	7070
2099.439	7154
2101.495	7058
2103.55	7149
2105.605	6987
2107.658	7027
2109.713	7125
2111.767	7029
2113.82	7027
2115.872	7016
2117.924	7106
2119.975	7018
2122.028	7080
2124.078	6927
2126.126	7143
2128.176	7037
2130.225	7103
2132.275	7143
2134.321	7016
2136.368	7052
2138.415	7060
2140.461	6985
2142.505	6904
2144.552	7041
2146.597	6983
2148.64	7023
2150.684	6870
2152.725	6945
2154.77	7074
2156.811	6944
2158.852	7108
2160.894	6975
2162.933	6957
2164.973	7009
2167.013	6820
2169.051	6844
2171.089	7021
2173.126	6871
2175.164	6963
2177.201	6939
2179.236	6934
2181.273	6883
2183.307	6831
2185.341	6931
2187.377	6866
2189.41	6885
2191.442	6768
2193.473	6977
2195.506	6845
2197.539	6826
2199.569	6996
2201.598	6844
2203.628	6806
2205.656	6926
2207.686	6891
2209.716	6962
2211.743	6823
2213.769	6763
2215.796	6770
2217.821	6816
2219.848	6841
2221.873	6879
2223.897	6645
2225.921	6859
2227.944	6892
2229.967	6877
2231.991	6696
2234.011	6779
2236.032	6788
2238.053	6746
2240.073	6723
2242.094	6889
2244.114	6910
2246.131	6662
2248.149	6703
2250.167	6854
2252.186	6776
2254.201	6737
2256.218	6727
2258.233	6793
2260.247	6701
2262.262	6822
2264.278	6898
2266.29	6770
2268.303	6817
2270.315	6831
2272.327	6700
2274.341	6772
2276.35	6831
2278.361	6802
2280.37	6888
2282.38	6772
2284.388	6794
2286.397	6785
2288.405	6773
2290.412	6859
2292.419	6872
2294.425	6820
2296.431	6772
2298.437	6745
2300.441	6870
2302.445	6734
2304.449	6795
2306.453	6761
2308.455	6792
2310.457	6709
2312.459	6731
2314.46	6704
2316.46	6782
2318.461	6640
2320.46	6674
2322.458	6693
2324.458	6733
2326.456	6661
2328.455	6749
2330.451	6754
2332.447	6690
2334.443	6732
2336.438	6698
2338.433	6719
2340.429	6679
2342.422	6704
2344.416	6642
2346.408	6661
2348.399	6680
2350.393	6618
2352.384	6700
2354.375	6661
2356.365	6668
2358.355	6708
2360.344	6562
2362.333	6593
2364.322	6700
2366.309	6608
2368.295	6651
2370.282	6501
2372.27	6640
2374.256	6566
2376.24	6662
2378.225	6466
2380.208	6598
2382.194	6619
2384.177	6589
2386.159	6543
2388.142	6524
2390.122	6433
2392.105	6627
2394.085	6500
2396.066	6608
2398.044	6522
2400.024	6546
2402.002	6534
2403.982	6487
2405.959	6479
2407.935	6561
2409.913	6540
2411.888	6491
2413.865	6577
2415.84	6503
2417.814	6498
2419.788	6508
2421.762	6472
2423.735	6462
2425.708	6486
2427.68	6524
2429.651	6563
2431.623	6545
2433.593	6560
2435.564	6539
2437.533	6572
2439.502	6590
2441.47	6408
2443.438	6454
2445.406	6506
2447.373	6428
2449.34	6529
2451.305	6531
2453.271	6472
2455.235	6474
2457.201	6575
2459.165	6473
2461.129	6440
2463.092	6402
2465.054	6409
2467.018	6457
2468.978	6465
2470.939	6439
2472.899	6385
2474.86	6388
2476.819	6462
2478.778	6469
2480.737	6408
2482.695	6327
2484.653	6351
2486.609	6376
2488.567	6464
2490.524	6396
2492.478	6457
2494.433	6338
2496.387	6373
2498.343	6495
2500.297	6449
2502.249	6342
2504.202	6367
2506.153	6416
2508.105	6416
2510.057	6227
2512.008	6346
2513.957	6386
2515.906	6346
2517.855	6262
2519.805	6330
2521.754	6433
2523.7	6373
2525.647	6342
2527.594	6391
2529.54	6293
2531.486	6386
2533.431	6313
2535.376	6448
2537.32	6313
2539.263	6369
2541.207	6428
2543.151	6300
2545.093	6277
2547.034	6341
2548.975	6319
2550.917	6281
2552.856	6267
2554.796	6346
2556.735	6407
2558.673	6305
2560.611	6299
2562.55	6324
2564.487	6342
2566.424	6372
2568.36	6345
2570.296	6360
2572.232	6291
2574.167	6344
2576.101	6221
2578.035	6368
2579.969	6313
2581.902	6370
2583.834	6255
2585.766	6417
2587.698	6229
2589.628	6350
2591.557	6288
2593.489	6284
2595.419	6316
2597.348	6399
2599.275	6302
2601.204	6351
2603.131	6231
2605.059	6304
2606.986	6440
2608.911	6405
2610.837	6455
2612.76	6393
2614.687	6304
2616.61	6174
2618.534	6305
2620.457	6406
2622.38	6357
2624.302	6243
2626.225	6402
2628.145	6295
2630.067	6248
2631.986	6396
2633.906	6258
2635.827	6294
2637.745	6354
2639.662	6265
2641.581	6244
2643.498	6291
2645.415	6285
2647.331	6266
2649.248	6457
2651.163	6187
2653.077	6305
2654.993	6251
2656.906	6261
2658.821	6270
2660.733	6319
2662.646	6243
2664.557	6209
2666.47	6215
2668.381	6336
2670.291	6280
2672.201	6226
2674.11	6259
2676.021	6208
2677.929	6282
2679.837	6260
2681.745	6274
2683.652	6263
2685.56	6170
2687.466	6102
2689.371	6368
2691.276	6161
2693.181	6125
2695.085	6215
2696.991	6304
2698.893	6184
2700.796	6351
2702.698	6235
2704.601	6238
2706.502	6143
2708.404	6176
2710.304	6128
2712.203	6185
2714.103	6182
2716.003	6108
2717.902	6171
2719.8	6197
2721.697	6103
2723.594	6014
2725.49	6102
2727.389	6198
2729.283	6105
2731.179	6132
2733.073	6061
2734.968	6117
2736.863	6034
2738.757	6168
2740.649	6155
2742.541	6133
2744.433	6077
2746.324	6102
2748.216	6046
2750.107	6029
2751.997	6044
2753.886	6120
2755.776	6181
2757.666	6120
2759.553	6090
2761.44	6111
2763.327	6117
2765.215	6078
2767.102	6067
2768.988	6034
2770.873	6031
2772.757	6100
2774.641	5931
2776.525	6019
2778.41	6190
2780.292	5975
2782.175	6073
2784.057	6092
2785.938	6046
2787.821	5927
2789.701	6052
2791.581	5965
2793.461	6101
2795.34	6021
2797.219	6010
2799.099	5989
2800.975	6053
2802.853	6053
2804.73	6056
2806.606	6081
2808.484	5844
2810.358	5981
2812.233	6055
2814.108	5960
2815.981	5980
2817.857	5949
2819.73	5976
2821.602	5986
2823.474	5970
2825.346	5928
2827.217	5956
2829.089	6042
2830.959	5916
2832.829	6070
2834.698	5948
2836.567	6005
2838.436	6041
2840.305	5988
2842.172	5930
2844.04	6004
2845.905	5997
2847.772	5902
2849.639	5864
2851.503	5982
2853.369	5945
2855.232	5889
2857.096	5932
2858.961	6121
2860.824	5959
2862.686	6005
2864.547	6055
2866.41	5968
2868.272	6119
2870.132	6116
2871.992	6144
2873.851	6027
2875.711	6078
2877.57	6171
2879.429	6189
2881.287	6227
2883.144	6179
2885.001	6319
2886.857	6263
2888.714	6205
2890.57	6231
2892.425	6387
2894.279	6307
2896.133	6264
2897.987	6182
2899.842	6272
2901.694	6290
2903.547	6266
2905.397	6087
2907.249	6154
2909.101	6281
2910.952	6188
2912.802	6174
2914.652	6210
2916.5	6298
2918.35	6277
2920.198	6386
2922.045	6333
2923.893	6398
2925.74	6311
2927.585	6401
2929.433	6392
2931.279	6449
2933.123	6411
2934.968	6441
2936.811	6450
2938.656	6600
2940.5	6591
2942.342	6574
2944.185	6608
2946.026	6482
2947.87	6617
2949.71	6628
2951.549	6510
2953.39	6698
2955.229	6584
2957.069	6562
2958.908	6385
2960.746	6503
2962.584	6596
2964.421	6470
2966.257	6411
2968.094	6351
2969.931	6294
2971.766	6343
2973.601	6231
2975.435	6154
2977.27	6171
2979.105	6216
2980.938	6125
2982.77	6116
2984.602	6083
2986.434	6143
2988.267	6122
2990.097	6079
2991.927	6025
2993.757	6028
2995.587	5955
2997.417	5956
2999.246	6003
3001.074	5932
3002.902	6053
3004.729	5835
3006.556	5862
3008.384	5816
3010.21	5710
3012.036	5739
3013.861	5765
3015.684	5704
3017.51	5669
3019.334	5653
3021.157	5687
3022.981	5533
3024.802	5547
3026.624	5624
3028.448	5506
3030.267	5649
3032.088	5486
3033.909	5560
3035.728	5567
3037.549	5544
3039.368	5715
3041.186	5571
3043.004	5530
3044.821	5637
3046.64	5554
3048.455	5588
3050.272	5569
3052.087	5525
3053.903	5473
3055.717	5498
3057.534	5487
3059.347	5539
3061.16	5484
3062.974	5427
3064.785	5431
3066.598	5498
3068.411	5461
3070.222	5516
3072.032	5416
3073.844	5434
3075.653	5465
3077.463	5523
3079.272	5429
3081.08	5386
3082.889	5413
3084.697	5369
3086.505	5486
3088.312	5339
3090.118	5454
3091.924	5419
3093.729	5387
3095.535	5261
3097.34	5387
3099.144	5305
3100.947	5414
3102.75	5340
3104.553	5355
3106.357	5346
3108.159	5235
3109.961	5233
3111.762	5197
3113.562	5312
3115.365	5254
3117.164	5303
3118.964	5248
3120.761	5338
3122.56	5302
3124.36	5341
3126.158	5287
3127.954	5257
3129.75	5168
3131.547	5287
3133.343	5178
3135.139	5304
3136.934	5184
3138.729	5264
3140.522	5186
3142.317	5261
3144.11	5115
3145.904	5139
3147.695	5111
3149.488	5132
3151.28	5213
3153.07	5257
3154.863	5184
3156.652	5077
3158.441	5144
3160.231	5202
3162.019	5049
3163.81	5191
3165.597	5092
3167.384	5191
3169.172	5263
3170.958	5151
3172.745	5069
3174.532	5142
3176.317	5196
3178.101	5054
3179.885	5171
3181.67	5047
3183.455	5138
3185.238	5093
3187.02	5039
3188.802	5136
3190.585	5125
3192.368	5073
3194.149	5005
3195.929	5142
3197.709	5122
3199.489	5064
3201.268	5131
3203.048	5104
3204.826	5070
3206.604	4981
3208.382	4986
3210.159	5038
3211.937	5061
3213.713	5168
3215.489	4994
3217.263	5082
3219.038	5047
3220.815	4986
3222.589	5035
3224.363	5097
3226.136	5108
3227.908	5026
3229.681	5026
3231.454	5004
3233.226	5005
3234.996	4977
3236.767	4969
3238.538	4976
3240.308	4974
3242.078	5013
3243.847	4945
3245.615	4947
3247.384	5000
3249.15	5045
3250.92	4984
3252.686	4977
3254.453	5020
3256.218	5013
3257.984	5011
3259.75	4945
3261.515	5024
3263.279	5013
3265.044	5010
3266.806	4942
3268.57	5000
3270.334	4896
3272.095	4980
3273.856	4923
3275.619	5010
3277.379	5004
3279.14	4976
3280.9	4850
3282.661	4978
3284.419	4936
3286.178	4986
3287.937	4928
3289.695	4857
3291.453	5003
3293.21	5019
3294.967	4950
3296.723	4983
3298.48	4949
3300.235	5033
3301.99	4968
3303.744	4914
3305.498	4871
3307.253	4929
3309.006	4913
3310.759	5001
3312.511	4942
3314.263	4923
3316.017	4928
3317.768	4950
3319.519	4980
3321.268	4825
3323.018	4920
3324.767	4847
3326.518	4945
3328.267	4912
3330.014	4868
3331.762	4844
3333.509	4864
3335.258	4915
3337.003	4861
3338.75	4899
3340.496	4830
3342.24	4907
3343.987	4848
3345.732	4897
3347.475	4854
3349.219	4839
3350.961	4877
3352.705	4867
3354.448	4835
3356.19	4770
3357.931	4817
3359.672	4766
3361.412	4821
3363.155	4813
3364.894	4824
3366.633	4832
3368.372	4960
3370.11	4853
3371.849	4892
3373.588	4804
3375.325	4694
3377.061	4859
3378.799	4790
3380.534	4783
3382.271	4795
3384.006	4699
3385.741	4724
3387.475	4746
3389.209	4813
3390.944	4718
3392.677	4788
3394.409	4838
3396.143	4751
3397.874	4710
3399.606	4693
3401.338	4722
3403.069	4772
3404.799	4668
3406.528	4696
3408.258	4717
3409.988	4641
3411.717	4711
3413.445	4676
3415.173	4623
3416.899	4762
3418.626	4666
3420.354	4589
3422.08	4620
3423.806	4732
3425.531	4611
3427.255	4701
3428.981	4690
3430.705	4719
3432.429	4659
3434.151	4671
3435.875	4636
3437.599	4629
3439.321	4565
3441.042	4636
3442.763	4663
3444.483	4595
3446.204	4645
3447.926	4703
3449.645	4505
3451.364	4541
3453.082	4564
3454.801	4557
3456.52	4549
3458.238	4488
3459.954	4551
3461.671	4518
3463.387	4542
3465.104	4498
3466.82	4525
3468.534	4572
3470.25	4601
3471.963	4509
3473.676	4496
3475.392	4478
3477.104	4524
3478.817	4415
3480.528	4604
3482.241	4433
3483.954	4363
3485.664	4422
3487.374	4382
3489.084	4426
3490.795	4448
3492.504	4508
3494.214	4502
3495.922	4471
3497.63	4315
3499.338	4452
3501.045	4439
3502.753	4436
3504.459	4390
3506.166	4387
3507.871	4395
3509.576	4405
3511.283	4436
3512.987	4274
3514.691	4406
3516.395	4382
3518.098	4375
3519.8	4473
3521.504	4283
3523.206	4452
3524.908	4397
3526.609	4274
3528.309	4360
3530.011	4292
3531.711	4363
3533.411	4314
3535.109	4295
3536.808	4324
3538.507	4348
3540.206	4368
3541.904	4378
3543.601	4266
3545.297	4331
3546.994	4331
3548.69	4297
3550.387	4294
3552.081	4323
3553.776	4297
3555.47	4327
3557.166	4302
3558.859	4341
3560.553	4253
3562.245	4235
3563.938	4282
3565.629	4262
3567.322	4265
3569.014	4212
3570.704	4200
3572.394	4271
3574.084	4270
3575.775	4359
3577.464	4260
3579.152	4247
3580.842	4159
3582.529	4207
3584.216	4247
3585.905	4236
3587.591	4212
3589.279	4200
3590.964	4124
3592.649	4216
3594.336	4213
3596.021	4279
3597.705	4234
3599.388	4234
3601.072	4124
3602.757	4128
3604.439	4076
3606.122	4131
3607.803	4183
3609.485	4084
3611.167	4109
3612.849	4179
3614.529	4063
3616.208	4065
3617.888	4053
3619.567	4130
3621.247	4131
3622.926	4008
3624.603	4109
3626.281	4098
3627.958	4049
3629.635	4019
3631.312	4110
3632.989	4142
3634.665	4014
3636.339	4053
3638.014	4088
3639.691	4158
3641.364	4065
3643.038	3966
3644.71	4022
3646.384	4037
3648.058	4011
3649.729	4056
3651.402	4033
3653.073	4021
3654.744	3973
3656.414	4035
3658.085	4015
3659.755	4000
3661.424	3971
3663.094	3987
3664.762	3977
3666.431	3995
3668.099	3946
3669.766	3948
3671.433	3955
3673.099	3961
3674.768	3985
3676.433	4006
3678.098	3960
3679.763	3979
3681.428	3953
3683.093	3960
3684.757	3843
3686.421	3869
3688.083	3925
3689.746	3887
3691.408	3858
3693.071	3942
3694.733	3990
3696.394	3897
3698.054	4003
3699.715	3912
3701.375	3911
3703.036	3879
3704.695	3882
3706.354	3853
3708.012	3828
3709.67	3948
3711.329	3929
3712.987	3934
3714.644	3989
3716.299	3876
3717.955	3883
3719.613	3829
3721.268	3840
3722.923	3886
3724.577	3890
3726.231	3831
3727.885	3842
3729.539	3786
3731.192	3862
3732.845	3852
3734.497	3834
3736.149	3847
3737.802	3785
3739.453	3867
3741.104	3789
3742.753	3751
3744.404	3866
3746.052	3858
3747.704	3861
3749.352	3885
3751	3807
3752.648	3766
3754.296	3750
3755.944	3810
3757.59	3791
3759.238	3730
3760.883	3844
3762.528	3801
3764.176	3795
3765.82	3805
3767.464	3662
3769.109	3755
3770.753	3688
3772.396	3801
3774.04	3784
3775.683	3743
3777.325	3779
3778.967	3703
3780.608	3712
3782.25	3681
3783.89	3723
3785.531	3671
3787.17	3716
3788.81	3679
3790.45	3666
3792.09	3643
3793.729	3803
3795.366	3728
3797.003	3718
3798.64	3668
3800.278	3691
3801.915	3664
3803.551	3748
3805.187	3622
3806.822	3714
3808.458	3687
3810.093	3663
3811.726	3626
3813.36	3707
3814.994	3655
3816.627	3681
3818.262	3745
3819.893	3672
3821.525	3575
3823.157	3579
3824.787	3683
3826.42	3566
3828.051	3654
3829.68	3592
3831.31	3597
3832.938	3607
3834.569	3693
3836.198	3702
3837.825	3602
3839.454	3615
3841.08	3578
3842.708	3614
3844.335	3641
3845.962	3564
3847.587	3602
3849.212	3623
3850.838	3516
3852.463	3588
3854.089	3483
3855.712	3658
3857.335	3469
3858.959	3570
3860.582	3582
3862.205	3558
3863.827	3611
3865.449	3519
3867.07	3525
3868.691	3548
3870.312	3620
3871.933	3564
3873.553	3524
3875.173	3534
3876.792	3520
3878.411	3451
3880.03	3458
3881.647	3467
3883.265	3504
3884.882	3469
3886.499	3529
3888.116	3424
3889.732	3430
3891.348	3486
3892.964	3532
3894.579	3477
3896.195	3408
3897.809	3485
3899.423	3425
3901.036	3473
3902.648	3431
3904.261	3503
3905.875	3497
3907.487	3493
3909.099	3429
3910.709	3457
3912.321	3426
3913.933	3432
3915.542	3487
3917.152	3456
3918.762	3488
3920.37	3397
3921.98	3472
3923.589	3480
3925.196	3441
3926.804	3471
3928.41	3462
3930.018	3422
3931.626	3494
3933.231	3465
3934.838	3427
3936.442	3444
3938.046	3426
3939.653	3431
3941.257	3351
3942.861	3444
3944.464	3449
3946.068	3450
3947.67	3409
3949.273	3383
3950.876	3450
3952.477	3449
3954.078	3416
3955.678	3408
3957.281	3463
3958.881	3450
3960.48	3422
3962.079	3436
3963.678	3401
3965.279	3383
3966.877	3404
3968.475	3340
3970.072	3442
3971.669	3325
3973.266	3348
3974.864	3393
3976.459	3289
3978.055	3310
3979.65	3344
3981.245	3316
3982.841	3384
3984.436	3263
3986.03	3348
3987.623	3269
3989.216	3348
3990.809	3201
3992.403	3245
3993.995	3217
3995.586	3305
3997.177	3311
3998.768	3292
4000.361	3286
4001.951	3221
4003.54	3307
4005.13	3217
4006.719	3217
4008.31	3263
4009.897	3251
4011.485	3128
4013.073	3262
4014.66	3307
4016.247	3241
4017.834	3187
4019.421	3260
4021.006	3136
4022.592	3228
4024.178	3194
4025.763	3176
4027.348	3200
4028.932	3236
4030.515	3170
4032.099	3219
4033.682	3173
4035.266	3210
4036.847	3174
4038.429	3224
4040.011	3185
4041.592	3197
4043.173	3181
4044.755	3198
4046.334	3165
4047.913	3117
4049.494	3138
4051.074	3096
4052.652	3140
4054.23	3161
4055.807	3170
4057.385	3139
4058.963	3059
4060.541	3220
4062.117	3160
4063.693	3143
4065.269	3132
4066.844	3149
4068.42	3129
4069.995	3092
4071.569	3067
4073.143	3072
4074.716	3123
4076.291	3183
4077.864	3062
4079.436	3062
4081.009	3101
4082.58	3146
4084.152	3103
4085.723	3025
4087.294	3093
4088.865	3120
4090.435	3072
4092.005	3062
4093.574	3077
4095.143	3101
4096.712	3073
4098.279	3059
4099.848	3042
4101.416	3040
4102.984	2966
4104.55	3011
4106.117	2968
4107.682	3047
4109.248	2961
4110.815	2999
4112.379	3053
4113.945	2984
4115.508	3008
4117.073	3087
4118.637	3010
4120.201	3065
4121.763	2996
4123.325	3007
4124.888	3019
4126.449	2922
4128.013	2965
4129.573	3002
4131.133	2969
4132.694	2911
4134.254	3020
4135.814	2971
4137.374	3029
4138.933	2882
4140.491	2935
4142.049	2961
4143.607	2977
4145.167	2913
4146.724	2974
4148.28	3032
4149.836	3004
4151.392	2894
4152.949	2985
4154.504	2971
4156.059	2891
4157.614	2938
4159.168	2989
4160.723	2869
4162.277	2935
4163.83	2943
4165.383	2962
4166.936	2910
4168.488	2969
4170.041	2835
4171.593	2833
4173.144	2853
4174.695	2943
4176.246	2948
4177.796	2877
4179.346	2862
4180.896	2841
4182.445	2877
4183.994	2879
4185.542	2918
4187.091	2874
4188.639	2931
4190.185	2912
4191.732	2830
4193.279	2800
4194.826	2858
4196.373	2828
4197.918	2801
4199.463	2818
4201.008	2815
4202.553	2856
4204.098	2780
4205.641	2831
4207.185	2837
4208.728	2815
4210.271	2760
4211.814	2809
4213.357	2769
4214.898	2848
4216.439	2834
4217.98	2770
4219.522	2747
4221.062	2744
4222.603	2830
4224.142	2793
4225.681	2773
4227.222	2779
4228.76	2781
4230.298	2773
4231.835	2743
4233.373	2818
4234.911	2776
4236.449	2804
4237.985	2754
4239.521	2778
4241.057	2734
4242.592	2793
4244.128	2765
4245.663	2743
4247.197	2774
4248.731	2782
4250.265	2779
4251.798	2779
4253.333	2761
4254.865	2744
4256.397	2737
4257.93	2776
4259.461	2727
4260.994	2730
4262.525	2806
4264.056	2724
4265.586	2767
4267.115	2755
4268.646	2750
4270.176	2736
4271.705	2687
4273.232	2737
4274.761	2724
4276.289	2696
4277.818	2764
4279.345	2650
4280.872	2663
4282.399	2700
4283.924	2670
4285.452	2692
4286.976	2572
4288.502	2687
4290.026	2662
4291.551	2720
4293.074	2690
4294.6	2743
4296.123	2631
4297.646	2630
4299.168	2701
4300.691	2633
4302.214	2740
4303.736	2655
4305.257	2708
4306.778	2687
4308.299	2688
4309.82	2645
4311.34	2643
4312.86	2673
4314.379	2627
