400.0745	4645
402.597	4668
405.1208	4634
407.6419	4631
410.1623	4589
412.6819	4712
415.201	4709
417.7172	4816
420.2369	4750
422.7538	4811
425.2701	4874
427.7856	4949
430.3005	5035
432.8147	4909
435.3282	4979
437.841	4927
440.3511	4879
442.8625	5058
445.3753	4947
447.8854	4959
450.3927	4962
452.9014	5002
455.4073	4996
457.9146	4940
460.4233	4931
462.9272	4869
465.4325	4990
467.935	4949
470.4389	4906
472.9421	4915
475.4446	4954
477.9444	4970
480.4456	4990
482.944	4996
485.4417	4884
487.9429	4997
490.4393	4957
492.935	5018
495.4321	4958
497.9264	5121
500.4221	5020
502.9171	5025
505.4094	5003
507.9011	5174
510.392	4961
512.8864	5106
515.3759	5032
517.8649	5105
520.3531	5144
522.8406	5027
525.3275	5178
527.8178	5077
530.3033	5168
532.7881	5195
535.2723	5222
537.7558	5158
540.2407	5144
542.7228	5125
545.2043	5151
547.6851	5090
550.1652	5120
552.6467	5165
555.1255	5145
557.6016	5273
560.079	5200
562.5557	5200
565.0318	5233
567.5092	5204
569.984	5317
572.456	5310
574.9294	5306
577.4022	5371
579.8762	5378
582.3456	5351
584.8163	5383
587.2863	5393
589.7557	5436
592.2224	5412
594.6924	5339
597.1578	5476
599.6245	5398
602.0905	5347
604.5538	5347
607.0206	5355
609.4825	5299
611.9459	5246
614.4066	5319
616.8686	5365
619.33	5402
621.7906	5292
624.2487	5375
626.708	5345
629.1647	5344
631.6207	5310
634.0801	5266
636.5348	5329
638.9888	5310
641.4442	5318
643.8969	5424
646.3509	5353
648.8022	5389
651.255	5395
653.705	5332
656.1544	5465
658.6031	5336
661.0532	5366
663.5026	5349
665.9493	5397
668.3954	5476
670.8409	5364
673.2877	5559
675.7318	5407
678.1752	5441
680.618	5452
683.0601	5521
685.5035	5433
687.9444	5515
690.3845	5664
692.824	5517
695.2628	5556
697.701	5583
700.1406	5486
702.5774	5538
705.0116	5556
707.4472	5595
709.8821	5601
712.3183	5613
714.7519	5568
717.1829	5632
719.6151	5655
722.0468	5650
724.4777	5734
726.908	5664
729.3377	5693
731.7667	5626
734.1931	5756
736.6208	5790
739.0498	5789
741.4742	5878
743.9	5819
746.3231	5790
748.7476	5847
751.1713	5923
753.5945	5750
756.015	5961
758.4368	5921
760.856	5844
763.2766	5977
765.6965	5917
768.1157	5862
770.5323	5904
772.9483	5910
775.3656	5947
777.7822	5857
780.1963	5989
782.6116	5854
785.0244	5941
787.4365	5974
789.8499	6007
792.2626	6040
794.6728	5936
797.0823	5994
799.4911	5917
801.8994	5829
804.3109	5998
806.7178	6058
809.124	6011
811.5297	5952
813.9347	5921
816.341	6041
818.7447	6004
821.1478	5918
823.5502	5985
825.952	5974
828.3531	6064
830.7556	5959
833.1554	6098
835.5546	5955
837.9532	6029
840.3511	6034
842.7504	6101
845.1451	6179
847.5411	6117
849.9365	6063
852.3312	6198
854.7272	6160
857.1187	6189
859.5115	6153
861.9037	6156
864.2952	6177
866.6842	6262
869.0764	6169
871.4661	5952
873.8531	6139
876.2415	6167
878.6272	6144
881.0162	6058
883.4026	6142
885.7866	6120
888.1717	6092
890.5543	6142
892.9382	6108
895.3215	6114
897.7041	6093
900.0842	6019
902.4655	6122
904.8443	6135
907.2244	6189
909.6039	6113
911.9808	6230
914.357	6267
916.7346	6346
919.1115	6364
921.4859	6379
923.8616	6354
926.2347	6450
928.6071	6419
930.979	6360
933.3541	6482
935.7247	6540
938.0946	6462
940.4639	6466
942.8326	6598
945.2026	6630
947.5701	6868
949.9369	6981
952.305	7225
954.6705	7329
957.0355	7579
959.4017	7780
961.7654	8121
964.1284	8014
966.4908	7739
968.8527	7540
971.2138	7203
973.5743	7021
975.9343	6790
978.2936	6592
980.6522	6502
983.0122	6432
985.3696	6230
987.7245	6310
990.0807	6296
992.4362	6418
994.7911	6348
997.1474	6389
999.4991	6324
1001.852	6453
1004.205	6352
1006.555	6486
1008.908	6446
1011.258	6386
1013.606	6392
1015.956	6390
1018.302	6439
1020.652	6350
1022.998	6487
1025.345	6280
1027.691	6395
1030.035	6351
1032.378	6491
1034.724	6401
1037.066	6573
1039.409	6447
1041.75	6545
1044.092	6414
1046.433	6404
1048.771	6541
1051.112	6505
1053.449	6479
1055.786	6525
1058.124	6627
1060.462	6456
1062.797	6496
1065.131	6570
1067.467	6572
1069.8	6632
1072.135	6557
1074.467	6640
1076.798	6688
1079.129	6651
1081.459	6520
1083.792	6606
1086.121	6680
1088.449	6495
1090.777	6525
1093.104	6559
1095.431	6629
1097.759	6512
1100.084	6468
1102.408	6522
1104.732	6516
1107.056	6540
1109.379	6528
1111.701	6450
1114.022	6458
1116.343	6464
1118.664	6514
1120.983	6550
1123.303	6443
1125.621	6529
1127.939	6505
1130.256	6480
1132.573	6456
1134.889	6542
1137.205	6463
1139.52	6579
1141.832	6484
1144.146	6518
1146.461	6521
1148.771	6546
1151.083	6503
1153.392	6449
1155.703	6481
1158.011	6471
1160.323	6416
1162.629	6637
1164.938	6462
1167.243	6594
1169.55	6484
1171.857	6485
1174.163	6481
1176.466	6490
1178.769	6467
1181.073	6434
1183.374	6486
1185.677	6564
1187.979	6594
1190.279	6522
1192.578	6437
1194.878	6512
1197.178	6404
1199.476	6484
1201.772	6453
1204.068	6490
1206.366	6484
1208.663	6467
1210.957	6583
1213.251	6475
1215.544	6456
1217.836	6599
1220.128	6489
1222.421	6543
1224.712	6449
1227.002	6577
1229.292	6576
1231.581	6690
1233.871	6588
1236.159	6734
1238.446	6692
1240.732	6746
1243.018	6787
1245.304	6799
1247.59	6731
1249.874	6803
1252.156	6762
1254.439	6796
1256.721	6846
1259.005	6758
1261.286	6738
1263.565	6912
1265.845	6744
1268.125	6726
1270.403	6838
1272.682	6899
1274.959	6800
1277.234	6828
1279.511	6777
1281.787	6749
1284.062	6694
1286.337	6582
1288.609	6763
1290.882	6701
1293.153	6728
1295.428	6607
1297.698	6641
1299.969	6664
1302.237	6630
1304.507	6630
1306.777	6735
1309.044	6637
1311.312	6700
1313.578	6659
1315.844	6739
1318.109	6673
1320.375	6699
1322.638	6671
1324.903	6639
1327.165	6646
1329.427	6609
1331.69	6807
1333.952	6636
1336.212	6612
1338.471	6770
1340.73	6617
1342.988	6481
1345.248	6627
1347.505	6746
1349.763	6635
1352.019	6499
1354.274	6639
1356.53	6678
1358.784	6701
1361.038	6624
1363.291	6608
1365.543	6643
1367.797	6719
1370.048	6613
1372.296	6681
1374.546	6684
1376.796	6684
1379.045	6620
1381.295	6795
1383.542	6758
1385.787	6664
1388.034	6762
1390.28	6707
1392.527	6607
1394.772	6790
1397.014	6728
1399.258	6726
1401.501	6867
1403.741	6818
1405.985	6772
1408.226	6806
1410.465	6821
1412.705	6877
1414.943	6861
1417.184	6753
1419.42	6769
1421.658	6845
1423.894	6885
1426.13	6912
1428.366	6874
1430.602	6880
1432.835	6919
1435.069	6821
1437.301	6803
1439.535	6888
1441.767	6935
1443.997	6923
1446.229	6923
1448.458	6916
1450.687	6939
1452.916	7044
1455.146	6986
1457.372	7021
1459.599	6937
1461.824	7102
1464.051	7068
1466.277	6956
1468.501	6919
1470.725	6868
1472.948	6926
1475.17	6692
1477.393	6785
1479.614	6758
1481.837	6776
1484.057	6835
1486.276	6721
1488.497	6636
1490.715	6688
1492.932	6621
1495.148	6684
1497.364	6629
1499.58	6595
1501.798	6669
1504.012	6653
1506.227	6640
1508.44	6573
1510.653	6555
1512.866	6571
1515.078	6598
1517.289	6618
1519.5	6628
1521.711	6556
1523.92	6669
1526.13	6480
1528.338	6569
1530.544	6637
1532.752	6565
1534.959	6582
1537.165	6588
1539.371	6642
1541.574	6748
1543.779	6556
1545.983	6559
1548.187	6732
1550.39	6661
1552.59	6729
1554.792	6652
1556.991	6669
1559.19	6791
1561.392	6722
1563.59	6591
1565.789	6668
1567.986	6699
1570.182	6648
1572.381	6715
1574.576	6847
1576.771	6806
1578.966	6728
1581.16	6799
1583.354	6743
1585.546	6723
1587.74	6880
1589.931	6737
1592.121	6590
1594.311	6810
1596.502	6920
1598.693	6854
1600.881	6737
1603.069	6847
1605.256	6893
1607.445	6762
1609.631	6858
1611.816	6937
1614.001	6949
1616.186	7009
1618.37	6857
1620.555	6834
1622.737	6980
1624.919	6892
1627.101	6872
1629.282	7025
1631.463	6871
1633.643	6893
1635.822	6974
1638.001	6893
1640.179	6974
1642.359	6963
1644.534	6982
1646.711	6924
1648.887	6907
1651.062	6992
1653.235	6989
1655.412	6996
1657.586	7012
1659.757	7022
1661.93	6960
1664.1	6975
1666.274	7133
1668.445	7021
1670.614	6962
1672.784	7072
1674.951	7163
1677.12	7094
1679.289	6973
1681.457	7023
1683.622	7069
1685.789	7134
1687.953	6984
1690.121	6969
1692.284	6876
1694.447	6891
1696.611	6954
1698.772	6874
1700.935	6815
1703.098	6939
1705.258	6798
1707.417	6840
1709.576	6951
1711.736	6899
1713.896	6792
1716.053	6767
1718.21	6723
1720.366	6829
1722.522	6724
1724.68	6658
1726.835	6661
1728.989	6709
1731.142	6653
1733.295	6801
1735.449	6685
1737.601	6665
1739.753	6773
1741.903	6841
1744.054	6784
1746.203	6852
1748.354	6839
1750.503	6811
1752.651	6842
1754.798	6844
1756.944	6764
1759.092	6843
1761.238	6766
1763.383	6828
1765.528	6819
1767.672	6775
1769.814	6859
1771.959	6760
1774.102	6851
1776.242	6836
1778.384	6904
1780.525	6897
1782.665	6956
1784.805	6749
1786.945	6966
1789.082	6910
1791.22	6934
1793.36	6926
1795.495	6935
1797.632	6922
1799.766	6841
1801.902	6913
1804.035	7003
1806.172	6797
1808.304	6802
1810.436	6863
1812.569	6969
1814.699	6931
1816.833	6927
1818.963	6894
1821.092	6884
1823.222	6802
1825.35	6814
1827.478	6814
1829.608	6924
1831.734	6829
1833.86	6874
1835.986	6695
1838.11	6698
1840.238	6788
1842.362	6918
1844.485	6837
1846.608	6888
1848.73	6830
1850.853	6880
1852.974	6768
1855.097	6762
1857.217	6840
1859.336	6872
1861.455	6901
1863.576	6904
1865.693	6819
1867.811	6821
1869.926	6780
1872.042	6790
1874.16	6891
1876.275	6891
1878.39	6825
1880.504	6771
1882.618	6896
1884.731	6821
1886.843	6857
1888.956	6877
1891.067	6873
1893.178	6956
1895.287	6820
1897.399	6840
1899.508	6856
1901.617	6952
1903.724	6681
1905.832	6978
1907.941	6771
1910.046	6992
1912.152	6856
1914.256	6907
1916.361	6892
1918.464	6908
1920.57	6940
1922.672	6895
1924.775	7037
1926.876	6917
1928.978	6922
1931.08	7000
1933.181	6952
1935.28	6993
1937.38	7007
1939.478	6961
1941.577	7011
1943.675	6921
1945.771	6943
1947.867	7071
1949.964	6953
1952.058	6979
1954.154	6996
1956.248	7070
1958.343	6967
1960.435	6938
1962.527	7002
1964.62	6917
1966.711	6937
1968.802	6903
1970.892	7008
1972.983	7011
1975.072	7002
1977.162	6989
1979.25	7008
1981.337	6939
1983.424	6914
1985.51	6985
1987.598	6881
1989.683	6913
1991.768	6921
1993.852	6843
1995.934	6915
1998.019	6962
2000.102	6822
2002.184	6915
2004.266	6829
2006.347	6907
2008.427	6956
2010.508	6847
2012.587	6923
2014.666	6832
2016.745	6963
2018.821	6792
2020.9	6832
2022.977	6908
2025.052	6868
2027.128	6845
2029.204	6927
2031.277	6858
2033.353	6821
2035.425	6858
2037.499	6778
2039.57	6888
2041.642	6789
2043.714	6977
2045.786	6912
2047.855	6884
2049.925	6750
2051.993	6987
2054.064	6969
2056.132	6854
2058.2	6845
2060.266	6988
2062.332	6917
2064.398	6803
2066.465	6939
2068.529	6936
2070.592	6969
2072.657	6853
2074.719	6874
2076.783	6865
2078.845	6900
2080.907	6930
2082.968	6865
2085.028	6895
2087.087	6967
2089.148	6956
2091.207	6924
2093.264	6971
2095.322	6914
2097.379	6976
2099.439	6847
2101.495	6783
2103.55	7037
2105.605	6826
2107.658	6892
2109.713	6808
2111.767	6858
2113.82	6849
2115.872	6729
2117.924	6846
2119.975	6862
2122.028	6923
2124.078	6871
2126.126	6900
2128.176	6845
2130.225	6814
2132.275	6819
2134.321	6852
2136.368	6743
2138.415	6919
2140.461	6817
2142.505	6884
2144.552	6812
2146.597	6828
2148.64	6794
2150.684	6906
2152.725	6757
2154.77	6791
2156.811	6870
2158.852	6797
2160.894	6712
2162.933	6850
2164.973	6840
2167.013	6714
2169.051	6699
2171.089	6867
2173.126	6720
2175.164	6821
2177.201	6691
2179.236	6714
2181.273	6810
2183.307	6837
2185.341	6736
2187.377	6704
2189.41	6665
2191.442	6699
2193.473	6671
2195.506	6694
2197.539	6651
2199.569	6646
2201.598	6705
2203.628	6712
2205.656	6813
2207.686	6708
2209.716	6731
2211.743	6532
2213.769	6585
2215.796	6659
2217.821	6765
2219.848	6662
2221.873	6594
2223.897	6679
2225.921	6663
2227.944	6630
2229.967	6589
2231.991	6606
2234.011	6513
2236.032	6727
2238.053	6597
2240.073	6767
2242.094	6746
2244.114	6680
2246.131	6647
2248.149	6606
2250.167	6588
2252.186	6545
2254.201	6662
2256.218	6541
2258.233	6658
2260.247	6601
2262.262	6566
2264.278	6673
2266.29	6616
2268.303	6669
2270.315	6653
2272.327	6582
2274.341	6626
2276.35	6591
2278.361	6594
2280.37	6535
2282.38	6577
2284.388	6675
2286.397	6572
2288.405	6647
2290.412	6604
2292.419	6669
2294.425	6563
2296.431	6611
2298.437	6559
2300.441	6430
2302.445	6619
2304.449	6591
2306.453	6521
2308.455	6667
2310.457	6616
2312.459	6696
2314.46	6481
2316.46	6562
2318.461	6587
2320.46	6530
2322.458	6506
2324.458	6574
2326.456	6585
2328.455	6440
2330.451	6541
2332.447	6474
2334.443	6480
2336.438	6518
2338.433	6481
2340.429	6503
2342.422	6387
2344.416	6460
2346.408	6432
2348.399	6442
2350.393	6502
2352.384	6574
2354.375	6473
2356.365	6347
2358.355	6551
2360.344	6418
2362.333	6537
2364.322	6429
2366.309	6366
2368.295	6441
2370.282	6398
2372.27	6485
2374.256	6434
2376.24	6416
2378.225	6318
2380.208	6388
2382.194	6402
2384.177	6412
2386.159	6270
2388.142	6485
2390.122	6443
2392.105	6369
2394.085	6348
2396.066	6277
2398.044	6295
2400.024	6377
2402.002	6243
2403.982	6364
2405.959	6340
2407.935	6393
2409.913	6340
2411.888	6156
2413.865	6302
2415.84	6375
2417.814	6283
2419.788	6322
2421.762	6333
2423.735	6302
2425.708	6313
2427.68	6294
2429.651	6364
2431.623	6311
2433.593	6290
2435.564	6342
2437.533	6322
2439.502	6350
2441.47	6197
2443.438	6289
2445.406	6423
2447.373	6261
2449.34	6237
2451.305	6278
2453.271	6265
2455.235	6286
2457.201	6386
2459.165	6344
2461.129	6295
2463.092	6302
2465.054	6217
2467.018	6371
2468.978	6254
2470.939	6206
2472.899	6327
2474.86	6262
2476.819	6266
2478.778	6175
2480.737	6349
2482.695	6226
2484.653	6175
2486.609	6124
2488.567	6202
2490.524	6349
2492.478	6287
2494.433	6176
2496.387	6234
2498.343	6188
2500.297	6222
2502.249	6184
2504.202	6195
2506.153	6194
2508.105	6153
2510.057	6144
2512.008	6161
2513.957	6144
2515.906	6179
2517.855	6167
2519.805	6218
2521.754	6155
2523.7	6125
2525.647	6097
2527.594	6182
2529.54	6174
2531.486	6047
2533.431	6110
2535.376	6145
2537.32	6071
2539.263	6042
2541.207	6213
2543.151	6120
2545.093	6032
2547.034	6160
2548.975	6077
2550.917	6127
2552.856	6113
2554.796	6056
2556.735	6168
2558.673	6057
2560.611	6140
2562.55	6084
2564.487	6237
2566.424	6090
2568.36	6056
2570.296	6223
2572.232	6063
2574.167	6173
2576.101	6131
2578.035	6180
2579.969	6091
2581.902	6118
2583.834	6043
2585.766	6199
2587.698	6105
2589.628	6102
2591.557	6149
2593.489	6056
2595.419	6129
2597.348	6165
2599.275	6239
2601.204	6116
2603.131	6118
2605.059	6101
2606.986	6084
2608.911	6104
2610.837	6178
2612.76	6208
2614.687	6250
2616.61	6227
2618.534	6128
2620.457	6132
2622.38	6110
2624.302	6137
2626.225	6033
2628.145	6118
2630.067	6281
2631.986	6084
2633.906	6032
2635.827	6056
2637.745	6072
2639.662	6113
2641.581	6149
2643.498	6201
2645.415	6153
2647.331	6057
2649.248	6117
2651.163	6088
2653.077	6150
2654.993	6062
2656.906	6176
2658.821	6146
2660.733	6117
2662.646	6131
2664.557	6052
2666.47	6094
2668.381	6095
2670.291	6141
2672.201	6051
2674.11	6077
2676.021	6040
2677.929	6098
2679.837	6044
2681.745	6102
2683.652	6007
2685.56	6045
2687.466	5995
2689.371	6075
2691.276	6009
2693.181	6022
2695.085	6019
2696.991	6020
2698.893	6059
2700.796	6140
2702.698	6042
2704.601	6040
2706.502	6160
2708.404	5992
2710.304	6010
2712.203	5976
2714.103	5936
2716.003	6007
2717.902	5918
2719.8	6007
2721.697	5869
2723.594	6099
2725.49	5987
2727.389	5980
2729.283	5999
2731.179	6030
2733.073	6011
2734.968	5962
2736.863	6022
2738.757	5937
2740.649	6050
2742.541	5874
2744.433	5938
2746.324	5883
2748.216	5992
2750.107	5965
2751.997	5928
2753.886	5883
2755.776	5972
2757.666	5911
2759.553	5925
2761.44	5992
2763.327	5924
2765.215	5924
2767.102	5923
2768.988	6011
2770.873	5904
2772.757	5872
2774.641	5964
2776.525	5944
2778.41	5975
2780.292	5977
2782.175	5867
2784.057	5869
2785.938	5870
2787.821	5865
2789.701	5859
2791.581	5943
2793.461	5940
2795.34	5882
2797.219	5860
2799.099	5933
2800.975	5867
2802.853	5932
2804.73	5786
2806.606	5770
2808.484	5881
2810.358	5827
2812.233	5820
2814.108	5748
2815.981	5861
2817.857	5770
2819.73	5821
2821.602	5794
2823.474	5897
2825.346	5758
2827.217	5808
2829.089	5852
2830.959	5865
2832.829	5816
2834.698	5888
2836.567	5867
2838.436	5844
2840.305	5848
2842.172	5991
2844.04	6000
2845.905	5867
2847.772	5848
2849.639	5927
2851.503	5971
2853.369	5778
2855.232	5957
2857.096	5917
2858.961	5880
2860.824	5972
2862.686	6010
2864.547	6179
2866.41	6025
2868.272	5972
2870.132	6195
2871.992	6261
2873.851	6249
2875.711	6237
2877.57	6349
2879.429	6387
2881.287	6363
2883.144	6424
2885.001	6501
2886.857	6427
2888.714	6405
2890.57	6451
2892.425	6484
2894.279	6473
2896.133	6375
2897.987	6501
2899.842	6415
2901.694	6330
2903.547	6447
2905.397	6338
2907.249	6486
2909.101	6406
2910.952	6502
2912.802	6519
2914.652	6572
2916.5	6554
2918.35	6675
2920.198	6696
2922.045	6728
2923.893	6771
2925.74	6985
2927.585	7006
2929.433	6996
2931.279	7128
2933.123	7103
2934.968	7215
2936.811	7260
2938.656	7416
2940.5	7281
2942.342	7635
2944.185	7416
2946.026	7513
2947.87	7514
2949.71	7393
2951.549	7395
2953.39	7236
2955.229	7240
2957.069	7196
2958.908	7120
2960.746	7103
2962.584	6848
2964.421	6871
2966.257	6940
2968.094	6811
2969.931	6686
2971.766	6799
2973.601	6653
2975.435	6523
2977.27	6681
2979.105	6649
2980.938	6670
2982.77	6642
2984.602	6614
2986.434	6594
2988.267	6515
2990.097	6498
2991.927	6343
2993.757	6378
2995.587	6421
2997.417	6335
2999.246	6112
3001.074	6189
3002.902	6123
3004.729	6078
3006.556	5955
3008.384	5968
3010.21	5899
3012.036	5815
3013.861	5820
3015.684	5805
3017.51	5734
3019.334	5756
3021.157	5626
3022.981	5622
3024.802	5601
3026.624	5650
3028.448	5465
3030.267	5629
3032.088	5540
3033.909	5568
3035.728	5573
3037.549	5583
3039.368	5569
3041.186	5555
3043.004	5595
3044.821	5555
3046.64	5400
3048.455	5579
3050.272	5447
3052.087	5483
3053.903	5554
3055.717	5512
3057.534	5532
3059.347	5475
3061.16	5531
3062.974	5454
3064.785	5563
3066.598	5495
3068.411	5490
3070.222	5454
3072.032	5555
3073.844	5485
3075.653	5409
3077.463	5504
3079.272	5369
3081.08	5520
3082.889	5369
3084.697	5319
3086.505	5375
3088.312	5373
3090.118	5412
3091.924	5301
3093.729	5352
3095.535	5367
3097.34	5377
3099.144	5419
3100.947	5393
3102.75	5279
3104.553	5327
3106.357	5305
3108.159	5324
3109.961	5353
3111.762	5267
3113.562	5378
3115.365	5216
3117.164	5354
3118.964	5194
3120.761	5326
3122.56	5292
3124.36	5199
3126.158	5114
3127.954	5328
3129.75	5296
3131.547	5245
3133.343	5250
3135.139	5297
3136.934	5225
3138.729	5175
3140.522	5157
3142.317	5212
3144.11	5261
3145.904	5156
3147.695	5254
3149.488	5220
3151.28	5227
3153.07	5159
3154.863	5275
3156.652	5113
3158.441	5203
3160.231	5174
3162.019	5291
3163.81	5292
3165.597	5108
3167.384	5063
3169.172	5154
3170.958	5175
3172.745	5179
3174.532	5192
3176.317	5169
3178.101	5138
3179.885	5102
3181.67	5160
3183.455	5135
3185.238	5036
3187.02	5103
3188.802	5131
3190.585	5194
3192.368	5132
3194.149	5103
3195.929	5168
3197.709	5142
3199.489	5122
3201.268	5091
3203.048	5092
3204.826	5118
3206.604	5108
3208.382	5099
3210.159	5065
3211.937	5158
3213.713	5198
3215.489	5108
3217.263	5133
3219.038	5190
3220.815	5100
3222.589	5171
3224.363	5199
3226.136	5191
3227.908	5138
3229.681	5127
3231.454	5159
3233.226	5085
3234.996	5169
3236.767	5095
3238.538	5080
3240.308	5052
3242.078	5151
3243.847	5135
3245.615	5136
3247.384	5015
3249.15	5136
3250.92	5179
3252.686	5059
3254.453	5185
3256.218	5092
3257.984	5111
3259.75	5140
3261.515	5058
3263.279	5126
3265.044	5023
3266.806	5176
3268.57	5124
3270.334	5100
3272.095	5150
3273.856	5144
3275.619	5103
3277.379	5192
3279.14	5160
3280.9	5125
3282.661	5166
3284.419	5126
3286.178	5212
3287.937	5133
3289.695	5074
3291.453	5194
3293.21	5116
3294.967	5157
3296.723	5151
3298.48	5049
3300.235	5071
3301.99	5043
3303.744	5138
3305.498	5136
3307.253	5099
3309.006	5156
3310.759	5163
3312.511	5162
3314.263	5130
3316.017	5091
3317.768	5153
3319.519	5043
3321.268	5061
3323.018	5096
3324.767	5022
3326.518	5160
3328.267	5170
3330.014	5186
3331.762	5026
3333.509	5080
3335.258	5084
3337.003	5186
3338.75	5069
3340.496	5198
3342.24	5032
3343.987	5122
3345.732	5040
3347.475	5075
3349.219	5106
3350.961	4965
3352.705	5003
3354.448	5103
3356.19	5063
3357.931	5034
3359.672	5039
3361.412	5080
3363.155	4993
3364.894	5036
3366.633	5042
3368.372	5028
3370.11	5030
3371.849	4927
3373.588	5002
3375.325	4979
3377.061	4884
3378.799	5000
3380.534	4941
3382.271	4943
3384.006	4928
3385.741	4912
3387.475	4915
3389.209	4964
3390.944	4989
3392.677	4931
3394.409	4889
3396.143	4811
3397.874	4918
3399.606	4913
3401.338	4945
3403.069	4933
3404.799	4988
3406.528	4948
3408.258	4895
3409.988	4910
3411.717	4893
3413.445	4896
3415.173	4793
3416.899	4882
3418.626	4870
3420.354	4939
3422.08	4894
3423.806	4838
3425.531	4848
3427.255	4881
3428.981	4843
3430.705	4864
3432.429	4874
3434.151	4836
3435.875	4802
3437.599	4740
3439.321	4765
3441.042	4871
3442.763	4781
3444.483	4730
3446.204	4794
3447.926	4788
3449.645	4731
3451.364	4738
3453.082	4737
3454.801	4777
3456.52	4750
3458.238	4733
3459.954	4711
3461.671	4703
3463.387	4749
3465.104	4766
3466.82	4694
3468.534	4646
3470.25	4621
3471.963	4745
3473.676	4552
3475.392	4746
3477.104	4679
3478.817	4690
3480.528	4645
3482.241	4621
3483.954	4733
3485.664	4647
3487.374	4642
3489.084	4600
3490.795	4551
3492.504	4589
3494.214	4575
3495.922	4595
3497.63	4533
3499.338	4573
3501.045	4498
3502.753	4652
3504.459	4497
3506.166	4618
3507.871	4634
3509.576	4509
3511.283	4466
3512.987	4531
3514.691	4562
3516.395	4434
3518.098	4453
3519.8	4554
3521.504	4456
3523.206	4439
3524.908	4427
3526.609	4471
3528.309	4510
3530.011	4392
3531.711	4462
3533.411	4439
3535.109	4434
3536.808	4369
3538.507	4377
3540.206	4472
3541.904	4395
3543.601	4340
3545.297	4480
3546.994	4364
3548.69	4425
3550.387	4409
3552.081	4440
3553.776	4426
3555.47	4434
3557.166	4287
3558.859	4371
3560.553	4292
3562.245	4311
3563.938	4325
3565.629	4297
3567.322	4333
3569.014	4298
3570.704	4382
3572.394	4356
3574.084	4403
3575.775	4275
3577.464	4289
3579.152	4341
3580.842	4450
3582.529	4220
3584.216	4314
3585.905	4201
3587.591	4277
3589.279	4269
3590.964	4275
3592.649	4190
3594.336	4172
3596.021	4162
3597.705	4182
3599.388	4289
3601.072	4241
3602.757	4254
3604.439	4124
3606.122	4184
3607.803	4181
3609.485	4233
3611.167	4138
3612.849	4091
3614.529	4148
3616.208	4124
3617.888	4108
3619.567	4100
3621.247	4117
3622.926	4110
3624.603	4132
3626.281	4116
3627.958	4171
3629.635	4087
3631.312	4018
3632.989	4097
3634.665	4153
3636.339	4087
3638.014	4105
3639.691	4119
3641.364	3953
3643.038	3976
3644.71	3922
3646.384	4015
3648.058	3916
3649.729	3990
3651.402	4056
3653.073	3917
3654.744	4048
3656.414	4060
3658.085	4001
3659.755	4052
3661.424	3922
3663.094	3893
3664.762	3952
3666.431	3945
3668.099	3902
3669.766	3882
3671.433	3966
3673.099	4058
3674.768	4021
3676.433	3955
3678.098	3933
3679.763	3996
3681.428	3877
3683.093	3918
3684.757	3965
3686.421	3970
3688.083	3899
3689.746	3915
3691.408	3934
3693.071	3805
3694.733	3857
3696.394	3890
3698.054	3876
3699.715	3920
3701.375	3865
3703.036	3950
3704.695	3852
3706.354	3950
3708.012	3900
3709.67	3919
3711.329	3907
3712.987	3820
3714.644	3883
3716.299	3810
3717.955	3816
3719.613	3797
3721.268	3761
3722.923	3824
3724.577	3835
3726.231	3773
3727.885	3744
3729.539	3888
3731.192	3780
3732.845	3883
3734.497	3782
3736.149	3739
3737.802	3858
3739.453	3682
3741.104	3702
3742.753	3809
3744.404	3886
3746.052	3758
3747.704	3859
3749.352	3820
3751	3789
3752.648	3766
3754.296	3803
3755.944	3810
3757.59	3690
3759.238	3816
3760.883	3776
3762.528	3678
3764.176	3687
3765.82	3769
3767.464	3700
3769.109	3746
3770.753	3724
3772.396	3745
3774.04	3819
3775.683	3689
3777.325	3684
3778.967	3756
3780.608	3670
3782.25	3724
3783.89	3761
3785.531	3721
3787.17	3732
3788.81	3722
3790.45	3670
3792.09	3664
3793.729	3634
3795.366	3669
3797.003	3723
3798.64	3609
3800.278	3666
3801.915	3602
3803.551	3676
3805.187	3724
3806.822	3684
3808.458	3670
3810.093	3653
3811.726	3569
3813.36	3658
3814.994	3593
3816.627	3618
3818.262	3618
3819.893	3635
3821.525	3545
3823.157	3627
3824.787	3560
3826.42	3633
3828.051	3538
3829.68	3564
3831.31	3582
3832.938	3568
3834.569	3489
3836.198	3564
3837.825	3607
3839.454	3571
3841.08	3589
3842.708	3549
3844.335	3507
3845.962	3552
3847.587	3510
3849.212	3566
3850.838	3541
3852.463	3547
3854.089	3484
3855.712	3586
3857.335	3503
3858.959	3498
3860.582	3510
3862.205	3533
3863.827	3463
3865.449	3499
3867.07	3451
3868.691	3506
3870.312	3526
3871.933	3515
3873.553	3526
3875.173	3491
3876.792	3465
3878.411	3461
3880.03	3396
3881.647	3529
3883.265	3526
3884.882	3420
3886.499	3520
3888.116	3443
3889.732	3444
3891.348	3508
3892.964	3479
3894.579	3464
3896.195	3432
3897.809	3475
3899.423	3496
3901.036	3500
3902.648	3417
3904.261	3454
3905.875	3482
3907.487	3441
3909.099	3439
3910.709	3416
3912.321	3465
3913.933	3507
3915.542	3390
3917.152	3436
3918.762	3484
3920.37	3367
3921.98	3445
3923.589	3375
3925.196	3417
3926.804	3415
3928.41	3459
3930.018	3403
3931.626	3517
3933.231	3412
3934.838	3331
3936.442	3438
3938.046	3429
3939.653	3425
3941.257	3409
3942.861	3342
3944.464	3468
3946.068	3365
3947.67	3376
3949.273	3413
3950.876	3374
3952.477	3409
3954.078	3365
3955.678	3363
3957.281	3377
3958.881	3399
3960.48	3422
3962.079	3393
3963.678	3399
3965.279	3458
3966.877	3288
3968.475	3257
3970.072	3363
3971.669	3304
3973.266	3326
3974.864	3331
3976.459	3346
3978.055	3284
3979.65	3275
3981.245	3305
3982.841	3321
3984.436	3301
3986.03	3279
3987.623	3342
3989.216	3203
3990.809	3224
3992.403	3299
3993.995	3226
3995.586	3274
3997.177	3221
3998.768	3320
4000.361	3211
4001.951	3263
4003.54	3279
4005.13	3218
4006.719	3177
4008.31	3219
4009.897	3241
4011.485	3164
4013.073	3209
4014.66	3164
4016.247	3181
4017.834	3158
4019.421	3212
4021.006	3213
4022.592	3144
4024.178	3218
4025.763	3239
4027.348	3159
4028.932	3163
4030.515	3185
4032.099	3130
4033.682	3147
4035.266	3195
4036.847	3117
4038.429	3147
4040.011	3107
4041.592	3148
4043.173	3170
4044.755	3133
4046.334	3137
4047.913	3208
4049.494	3097
4051.074	3131
4052.652	3069
4054.23	3102
4055.807	3089
4057.385	3084
4058.963	3167
4060.541	3120
4062.117	3104
4063.693	3081
4065.269	3104
4066.844	3110
4068.42	3061
4069.995	3010
4071.569	3129
4073.143	3075
4074.716	3069
4076.291	3128
4077.864	3101
4079.436	3086
4081.009	3043
4082.58	3050
4084.152	3079
4085.723	3001
4087.294	3100
4088.865	3082
4090.435	3037
4092.005	2993
4093.574	3047
4095.143	3070
4096.712	3013
4098.279	2922
4099.848	3030
4101.416	2986
4102.984	3059
4104.55	2980
4106.117	2952
4107.682	2964
4109.248	3017
4110.815	3058
4112.379	2980
4113.945	3020
4115.508	2988
4117.073	3032
4118.637	2963
4120.201	3011
4121.763	2977
4123.325	2967
4124.888	3011
4126.449	2923
4128.013	2850
4129.573	2926
4131.133	2900
4132.694	2935
4134.254	2952
4135.814	2946
4137.374	2885
4138.933	2892
4140.491	3005
4142.049	2962
4143.607	2935
4145.167	2967
4146.724	2910
4148.28	2890
4149.836	2935
4151.392	2895
4152.949	2900
4154.504	2908
4156.059	2965
4157.614	2856
4159.168	2909
4160.723	2940
4162.277	2824
4163.83	2888
4165.383	2906
4166.936	2848
4168.488	2851
4170.041	2811
4171.593	2881
4173.144	2940
4174.695	2860
4176.246	2872
4177.796	2810
4179.346	2886
4180.896	2806
4182.445	2855
4183.994	2818
4185.542	2853
4187.091	2816
4188.639	2891
4190.185	2781
4191.732	2818
4193.279	2864
4194.826	2842
4196.373	2779
4197.918	2800
4199.463	2877
4201.008	2797
4202.553	2906
4204.098	2823
4205.641	2850
4207.185	2782
4208.728	2791
4210.271	2859
4211.814	2771
4213.357	2860
4214.898	2834
4216.439	2758
4217.98	2778
4219.522	2768
4221.062	2803
4222.603	2717
4224.142	2824
4225.681	2773
4227.222	2693
4228.76	2715
4230.298	2847
4231.835	2783
4233.373	2794
4234.911	2775
4236.449	2742
4237.985	2743
4239.521	2731
4241.057	2712
4242.592	2795
4244.128	2751
4245.663	2676
4247.197	2721
4248.731	2716
4250.265	2730
4251.798	2727
4253.333	2768
4254.865	2731
4256.397	2733
4257.93	2691
4259.461	2774
4260.994	2789
4262.525	2742
4264.056	2764
4265.586	2653
4267.115	2743
4268.646	2690
4270.176	2684
4271.705	2707
4273.232	2648
4274.761	2744
4276.289	2782
4277.818	2650
4279.345	2746
4280.872	2694
4282.399	2696
4283.924	2675
4285.452	2692
4286.976	2684
4288.502	2732
4290.026	2635
4291.551	2658
4293.074	2648
4294.6	2640
4296.123	2697
4297.646	2676
4299.168	2680
4300.691	2666
4302.214	2647
4303.736	2683
4305.257	2699
4306.778	2610
4308.299	2590
4309.82	2667
4311.34	2665
4312.86	2614
4314.379	2589
