400.0745	4114
402.597	4079
405.1208	4077
407.6419	4222
410.1623	4238
412.6819	4196
415.201	4250
417.7172	4271
420.2369	4270
422.7538	4281
425.2701	4348
427.7856	4425
430.3005	4389
432.8147	4396
435.3282	4402
437.841	4457
440.3511	4444
442.8625	4452
445.3753	4390
447.8854	4393
450.3927	4431
452.9014	4422
455.4073	4429
457.9146	4386
460.4233	4431
462.9272	4361
465.4325	4320
467.935	4425
470.4389	4307
472.9421	4333
475.4446	4413
477.9444	4469
480.4456	4393
482.944	4382
485.4417	4433
487.9429	4453
490.4393	4410
492.935	4458
495.4321	4417
497.9264	4439
500.4221	4547
502.9171	4429
505.4094	4497
507.9011	4511
510.392	4504
512.8864	4613
515.3759	4494
517.8649	4531
520.3531	4579
522.8406	4563
525.3275	4519
527.8178	4605
530.3033	4574
532.7881	4580
535.2723	4566
537.7558	4564
540.2407	4624
542.7228	4544
545.2043	4548
547.6851	4509
550.1652	4572
552.6467	4537
555.1255	4570
557.6016	4727
560.079	4586
562.5557	4639
565.0318	4558
567.5092	4646
569.984	4677
572.456	4677
574.9294	4746
577.4022	4709
579.8762	4775
582.3456	4883
584.8163	4737
587.2863	4773
589.7557	4814
592.2224	4746
594.6924	4807
597.1578	4654
599.6245	4705
602.0905	4828
604.5538	4742
607.0206	4787
609.4825	4776
611.9459	4812
614.4066	4744
616.8686	4798
619.33	4752
621.7906	4703
624.2487	4648
626.708	4742
629.1647	4763
631.6207	4722
634.0801	4835
636.5348	4758
638.9888	4717
641.4442	4751
643.8969	4718
646.3509	4790
648.8022	4742
651.255	4746
653.705	4726
656.1544	4804
658.6031	4715
661.0532	4735
663.5026	4912
665.9493	4924
668.3954	4753
670.8409	4871
673.2877	4834
675.7318	4912
678.1752	4822
680.618	4813
683.0601	4833
685.5035	4839
687.9444	4871
690.3845	4950
692.824	4875
695.2628	4846
697.701	4875
700.1406	4927
702.5774	4907
705.0116	4867
707.4472	4903
709.8821	4948
712.3183	4912
714.7519	4907
717.1829	4906
719.6151	5007
722.0468	4933
724.4777	5045
726.908	4932
729.3377	4925
731.7667	5002
734.1931	5001
736.6208	5075
739.0498	5118
741.4742	5019
743.9	5033
746.3231	5156
748.7476	5172
751.1713	5211
753.5945	5105
756.015	5102
758.4368	5137
760.856	5231
763.2766	5094
765.6965	5201
768.1157	5134
770.5323	5248
772.9483	5256
775.3656	5194
777.7822	5274
780.1963	5191
782.6116	5224
785.0244	5149
787.4365	5261
789.8499	5230
792.2626	5223
794.6728	5228
797.0823	5184
799.4911	5165
801.8994	5231
804.3109	5205
806.7178	5314
809.124	5352
811.5297	5226
813.9347	5242
816.341	5308
818.7447	5216
821.1478	5246
823.5502	5364
825.952	5299
828.3531	5354
830.7556	5282
833.1554	5293
835.5546	5311
837.9532	5282
840.3511	5256
842.7504	5314
845.1451	5374
847.5411	5436
849.9365	5373
852.3312	5453
854.7272	5545
857.1187	5469
859.5115	5461
861.9037	5465
864.2952	5364
866.6842	5506
869.0764	5450
871.4661	5343
873.8531	5442
876.2415	5329
878.6272	5317
881.0162	5434
883.4026	5400
885.7866	5369
888.1717	5385
890.5543	5321
892.9382	5392
895.3215	5279
897.7041	5364
900.0842	5431
902.4655	5437
904.8443	5510
907.2244	5478
909.6039	5380
911.9808	5467
914.357	5447
916.7346	5568
919.1115	5568
921.4859	5636
923.8616	5688
926.2347	5631
928.6071	5606
930.979	5665
933.3541	5599
935.7247	5708
938.0946	5649
940.4639	5905
942.8326	5777
945.2026	5938
947.5701	6037
949.9369	6071
952.305	6207
954.6705	6556
957.0355	6711
959.4017	7112
961.7654	7022
964.1284	6973
966.4908	6994
968.8527	6553
971.2138	6402
973.5743	6102
975.9343	5764
978.2936	5740
980.6522	5744
983.0122	5628
985.3696	5592
987.7245	5587
990.0807	5603
992.4362	5557
994.7911	5508
997.1474	5702
999.4991	5624
1001.852	5657
1004.205	5712
1006.555	5576
1008.908	5694
1011.258	5556
1013.606	5683
1015.956	5530
1018.302	5669
1020.652	5603
1022.998	5742
1025.345	5689
1027.691	5681
1030.035	5691
1032.378	5701
1034.724	5734
1037.066	5731
1039.409	5681
1041.75	5706
1044.092	5686
1046.433	5743
1048.771	5800
1051.112	5812
1053.449	5697
1055.786	5750
1058.124	5782
1060.462	5754
1062.797	5813
1065.131	5759
1067.467	5826
1069.8	5907
1072.135	5823
1074.467	5889
1076.798	5791
1079.129	5817
1081.459	5850
1083.792	5896
1086.121	5756
1088.449	5737
1090.777	5753
1093.104	5797
1095.431	5652
1097.759	5703
1100.084	5643
1102.408	5751
1104.732	5717
1107.056	5798
1109.379	5724
1111.701	5673
1114.022	5781
1116.343	5739
1118.664	5693
1120.983	5774
1123.303	5722
1125.621	5684
1127.939	5824
1130.256	5716
1132.573	5674
1134.889	5820
1137.205	5713
1139.52	5689
1141.832	5627
1144.146	5606
1146.461	5745
1148.771	5766
1151.083	5773
1153.392	5779
1155.703	5779
1158.011	5819
1160.323	5793
1162.629	5740
1164.938	5723
1167.243	5750
1169.55	5717
1171.857	5747
1174.163	5868
1176.466	5692
1178.769	5762
1181.073	5807
1183.374	5633
1185.677	5711
1187.979	5864
1190.279	5684
1192.578	5686
1194.878	5681
1197.178	5659
1199.476	5788
1201.772	5820
1204.068	5681
1206.366	5586
1208.663	5671
1210.957	5662
1213.251	5754
1215.544	5753
1217.836	5737
1220.128	5798
1222.421	5798
1224.712	5748
1227.002	5799
1229.292	5795
1231.581	5863
1233.871	5817
1236.159	5931
1238.446	5919
1240.732	5912
1243.018	5920
1245.304	5974
1247.59	6021
1249.874	5956
1252.156	6047
1254.439	6021
1256.721	6020
1259.005	5912
1261.286	5979
1263.565	5905
1265.845	6056
1268.125	5943
1270.403	5988
1272.682	5870
1274.959	5947
1277.234	5907
1279.511	5972
1281.787	5992
1284.062	5855
1286.337	6007
1288.609	5931
1290.882	5860
1293.153	5899
1295.428	5837
1297.698	5902
1299.969	5917
1302.237	5768
1304.507	5779
1306.777	5895
1309.044	5792
1311.312	5855
1313.578	5697
1315.844	5861
1318.109	5880
1320.375	5857
1322.638	5867
1324.903	5911
1327.165	5773
1329.427	5900
1331.69	5848
1333.952	5910
1336.212	5865
1338.471	5841
1340.73	5911
1342.988	5978
1345.248	5892
1347.505	5776
1349.763	5833
1352.019	5886
1354.274	5723
1356.53	5867
1358.784	5812
1361.038	5900
1363.291	5821
1365.543	5887
1367.797	5986
1370.048	5851
1372.296	5876
1374.546	5844
1376.796	5838
1379.045	5858
1381.295	5864
1383.542	5945
1385.787	6046
1388.034	6019
1390.28	5936
1392.527	5848
1394.772	6034
1397.014	5871
1399.258	5910
1401.501	5973
1403.741	5954
1405.985	5932
1408.226	5976
1410.465	5965
1412.705	6087
1414.943	6010
1417.184	5921
1419.42	5952
1421.658	5999
1423.894	6071
1426.13	6045
1428.366	6025
1430.602	6074
1432.835	6166
1435.069	5943
1437.301	6199
1439.535	6187
1441.767	6124
1443.997	6170
1446.229	6156
1448.458	6192
1450.687	6198
1452.916	6141
1455.146	6174
1457.372	6142
1459.599	6128
1461.824	6067
1464.051	6228
1466.277	6170
1468.501	6076
1470.725	6191
1472.948	6051
1475.17	6013
1477.393	5990
1479.614	6062
1481.837	6006
1484.057	5891
1486.276	5866
1488.497	5864
1490.715	5723
1492.932	5846
1495.148	5866
1497.364	5793
1499.58	5890
1501.798	5761
1504.012	5702
1506.227	5845
1508.44	5762
1510.653	5837
1512.866	5759
1515.078	5832
1517.289	5799
1519.5	5817
1521.711	5844
1523.92	5822
1526.13	5818
1528.338	5820
1530.544	5778
1532.752	5766
1534.959	5785
1537.165	5743
1539.371	5832
1541.574	5877
1543.779	5808
1545.983	5898
1548.187	5876
1550.39	5946
1552.59	5774
1554.792	5906
1556.991	5856
1559.19	6014
1561.392	5941
1563.59	5858
1565.789	5902
1567.986	5944
1570.182	5889
1572.381	6047
1574.576	5960
1576.771	5945
1578.966	5923
1581.16	5947
1583.354	5853
1585.546	5963
1587.74	5922
1589.931	5916
1592.121	5963
1594.311	6048
1596.502	6017
1598.693	6033
1600.881	5879
1603.069	5838
1605.256	5971
1607.445	5974
1609.631	6073
1611.816	5947
1614.001	5895
1616.186	6016
1618.37	6009
1620.555	6020
1622.737	6141
1624.919	6079
1627.101	6052
1629.282	6037
1631.463	6090
1633.643	5977
1635.822	6080
1638.001	6199
1640.179	6120
1642.359	6008
1644.534	6024
1646.711	5966
1648.887	6112
1651.062	6077
1653.235	6132
1655.412	6165
1657.586	6072
1659.757	6204
1661.93	6126
1664.1	6174
1666.274	6178
1668.445	6149
1670.614	6283
1672.784	6152
1674.951	6261
1677.12	6116
1679.289	6191
1681.457	6133
1683.622	6150
1685.789	6079
1687.953	6109
1690.121	6030
1692.284	6077
1694.447	6032
1696.611	6114
1698.772	5960
1700.935	6106
1703.098	6018
1705.258	6013
1707.417	5996
1709.576	5934
1711.736	5914
1713.896	5965
1716.053	5917
1718.21	5922
1720.366	5965
1722.522	6046
1724.68	5929
1726.835	5854
1728.989	6035
1731.142	5919
1733.295	5932
1735.449	5888
1737.601	5924
1739.753	5993
1741.903	5983
1744.054	5917
1746.203	5925
1748.354	5931
1750.503	5905
1752.651	5979
1754.798	5918
1756.944	5876
1759.092	6011
1761.238	5973
1763.383	6068
1765.528	5944
1767.672	5911
1769.814	6068
1771.959	5981
1774.102	6013
1776.242	5987
1778.384	6020
1780.525	6015
1782.665	5952
1784.805	6080
1786.945	5962
1789.082	5990
1791.22	5963
1793.36	6011
1795.495	6055
1797.632	6007
1799.766	5993
1801.902	5964
1804.035	5980
1806.172	6035
1808.304	5979
1810.436	6076
1812.569	6014
1814.699	6151
1816.833	6053
1818.963	6062
1821.092	5964
1823.222	6007
1825.35	5967
1827.478	5991
1829.608	5940
1831.734	6017
1833.86	5908
1835.986	6014
1838.11	5862
1840.238	5884
1842.362	5954
1844.485	5976
1846.608	5925
1848.73	5894
1850.853	5880
1852.974	5979
1855.097	5921
1857.217	5907
1859.336	5957
1861.455	5954
1863.576	5979
1865.693	6018
1867.811	5958
1869.926	5873
1872.042	5919
1874.16	5958
1876.275	6000
1878.39	5954
1880.504	5894
1882.618	5948
1884.731	5958
1886.843	6021
1888.956	5852
1891.067	5867
1893.178	5921
1895.287	5929
1897.399	6009
1899.508	5904
1901.617	5967
1903.724	5951
1905.832	6051
1907.941	5998
1910.046	5898
1912.152	5908
1914.256	5988
1916.361	6032
1918.464	6083
1920.57	5945
1922.672	5981
1924.775	6041
1926.876	6063
1928.978	6009
1931.08	5987
1933.181	6067
1935.28	6097
1937.38	5909
1939.478	6012
1941.577	6065
1943.675	6032
1945.771	6005
1947.867	5979
1949.964	5978
1952.058	6044
1954.154	6077
1956.248	5990
1958.343	5979
1960.435	6038
1962.527	6045
1964.62	5858
1966.711	6029
1968.802	5978
1970.892	5977
1972.983	5946
1975.072	6014
1977.162	6002
1979.25	6096
1981.337	5981
1983.424	5961
1985.51	5867
1987.598	5977
1989.683	5969
1991.768	5982
1993.852	5971
1995.934	5954
1998.019	5972
2000.102	5958
2002.184	5940
2004.266	5931
2006.347	5962
2008.427	6026
2010.508	5899
2012.587	5929
2014.666	5956
2016.745	5753
2018.821	5857
2020.9	5912
2022.977	5903
2025.052	5947
2027.128	5901
2029.204	5976
2031.277	5869
2033.353	5934
2035.425	5983
2037.499	6028
2039.57	5934
2041.642	5996
2043.714	6017
2045.786	5952
2047.855	5860
2049.925	5884
2051.993	5873
2054.064	5954
2056.132	6060
2058.2	5913
2060.266	5919
2062.332	5887
2064.398	5889
2066.465	5816
2068.529	5958
2070.592	5983
2072.657	6047
2074.719	5889
2076.783	5955
2078.845	5970
2080.907	5942
2082.968	6074
2085.028	6063
2087.087	5895
2089.148	5889
2091.207	5912
2093.264	5954
2095.322	5968
2097.379	5885
2099.439	5959
2101.495	5955
2103.55	5910
2105.605	5865
2107.658	5977
2109.713	5871
2111.767	6071
2113.82	5939
2115.872	5961
2117.924	5871
2119.975	5935
2122.028	5916
2124.078	5922
2126.126	5938
2128.176	5871
2130.225	5879
2132.275	5872
2134.321	5886
2136.368	5919
2138.415	5988
2140.461	5929
2142.505	5795
2144.552	5927
2146.597	5839
2148.64	5969
2150.684	5861
2152.725	6001
2154.77	5966
2156.811	5925
2158.852	5842
2160.894	5835
2162.933	5868
2164.973	5781
2167.013	5908
2169.051	5817
2171.089	5760
2173.126	5834
2175.164	5776
2177.201	5836
2179.236	5816
2181.273	5890
2183.307	5754
2185.341	5784
2187.377	5707
2189.41	5797
2191.442	5736
2193.473	5812
2195.506	5648
2197.539	5795
2199.569	5820
2201.598	5816
2203.628	5710
2205.656	5831
2207.686	5739
2209.716	5693
2211.743	5758
2213.769	5761
2215.796	5690
2217.821	5666
2219.848	5727
2221.873	5647
2223.897	5801
2225.921	5701
2227.944	5768
2229.967	5774
2231.991	5703
2234.011	5798
2236.032	5756
2238.053	5783
2240.073	5807
2242.094	5761
2244.114	5729
2246.131	5751
2248.149	5668
2250.167	5790
2252.186	5708
2254.201	5829
2256.218	5720
2258.233	5731
2260.247	5628
2262.262	5708
2264.278	5664
2266.29	5768
2268.303	5639
2270.315	5772
2272.327	5751
2274.341	5718
2276.35	5764
2278.361	5830
2280.37	5726
2282.38	5770
2284.388	5835
2286.397	5693
2288.405	5658
2290.412	5680
2292.419	5734
2294.425	5723
2296.431	5741
2298.437	5694
2300.441	5674
2302.445	5670
2304.449	5672
2306.453	5796
2308.455	5673
2310.457	5706
2312.459	5634
2314.46	5632
2316.46	5675
2318.461	5661
2320.46	5614
2322.458	5612
2324.458	5672
2326.456	5643
2328.455	5633
2330.451	5776
2332.447	5622
2334.443	5668
2336.438	5671
2338.433	5613
2340.429	5616
2342.422	5609
2344.416	5537
2346.408	5697
2348.399	5656
2350.393	5515
2352.384	5635
2354.375	5581
2356.365	5632
2358.355	5662
2360.344	5486
2362.333	5584
2364.322	5570
2366.309	5600
2368.295	5656
2370.282	5494
2372.27	5509
2374.256	5610
2376.24	5549
2378.225	5467
2380.208	5675
2382.194	5680
2384.177	5483
2386.159	5562
2388.142	5505
2390.122	5450
2392.105	5484
2394.085	5505
2396.066	5619
2398.044	5522
2400.024	5616
2402.002	5596
2403.982	5396
2405.959	5512
2407.935	5515
2409.913	5553
2411.888	5455
2413.865	5594
2415.84	5543
2417.814	5439
2419.788	5459
2421.762	5597
2423.735	5442
2425.708	5539
2427.68	5375
2429.651	5518
2431.623	5458
2433.593	5553
2435.564	5522
2437.533	5552
2439.502	5631
2441.47	5473
2443.438	5426
2445.406	5509
2447.373	5369
2449.34	5509
2451.305	5439
2453.271	5534
2455.235	5411
2457.201	5508
2459.165	5517
2461.129	5462
2463.092	5449
2465.054	5492
2467.018	5485
2468.978	5531
2470.939	5526
2472.899	5451
2474.86	5543
2476.819	5475
2478.778	5442
2480.737	5418
2482.695	5383
2484.653	5468
2486.609	5379
2488.567	5451
2490.524	5403
2492.478	5404
2494.433	5430
2496.387	5331
2498.343	5456
2500.297	5348
2502.249	5386
2504.202	5390
2506.153	5359
2508.105	5433
2510.057	5409
2512.008	5392
2513.957	5383
2515.906	5431
2517.855	5400
2519.805	5434
2521.754	5425
2523.7	5347
2525.647	5411
2527.594	5441
2529.54	5300
2531.486	5353
2533.431	5462
2535.376	5351
2537.32	5394
2539.263	5283
2541.207	5367
2543.151	5340
2545.093	5351
2547.034	5435
2548.975	5388
2550.917	5345
2552.856	5292
2554.796	5340
2556.735	5425
2558.673	5438
2560.611	5306
2562.55	5290
2564.487	5376
2566.424	5366
2568.36	5362
2570.296	5361
2572.232	5406
2574.167	5329
2576.101	5295
2578.035	5306
2579.969	5281
2581.902	5376
2583.834	5460
2585.766	5442
2587.698	5317
2589.628	5406
2591.557	5365
2593.489	5301
2595.419	5304
2597.348	5418
2599.275	5364
2601.204	5309
2603.131	5308
2605.059	5387
2606.986	5302
2608.911	5351
2610.837	5278
2612.76	5332
2614.687	5325
2616.61	5467
2618.534	5343
2620.457	5328
2622.38	5499
2624.302	5353
2626.225	5364
2628.145	5376
2630.067	5277
2631.986	5390
2633.906	5373
2635.827	5333
2637.745	5319
2639.662	5459
2641.581	5383
2643.498	5362
2645.415	5360
2647.331	5295
2649.248	5354
2651.163	5388
2653.077	5378
2654.993	5332
2656.906	5302
2658.821	5374
2660.733	5405
2662.646	5397
2664.557	5283
2666.47	5386
2668.381	5343
2670.291	5175
2672.201	5304
2674.11	5280
2676.021	5357
2677.929	5325
2679.837	5289
2681.745	5280
2683.652	5201
2685.56	5236
2687.466	5252
2689.371	5304
2691.276	5351
2693.181	5190
2695.085	5259
2696.991	5204
2698.893	5309
2700.796	5219
2702.698	5287
2704.601	5306
2706.502	5315
2708.404	5356
2710.304	5253
2712.203	5249
2714.103	5250
2716.003	5293
2717.902	5327
2719.8	5153
2721.697	5169
2723.594	5238
2725.49	5201
2727.389	5199
2729.283	5276
2731.179	5216
2733.073	5153
2734.968	5309
2736.863	5159
2738.757	5236
2740.649	5221
2742.541	5244
2744.433	5264
2746.324	5136
2748.216	5190
2750.107	5193
2751.997	5294
2753.886	5282
2755.776	5212
2757.666	5208
2759.553	5087
2761.44	5192
2763.327	5246
2765.215	5338
2767.102	5225
2768.988	5149
2770.873	5125
2772.757	5147
2774.641	5297
2776.525	5157
2778.41	5049
2780.292	5159
2782.175	5215
2784.057	5319
2785.938	5100
2787.821	5241
2789.701	5108
2791.581	5097
2793.461	5152
2795.34	5195
2797.219	5095
2799.099	5117
2800.975	5050
2802.853	5246
2804.73	5124
2806.606	5126
2808.484	5183
2810.358	5230
2812.233	5105
2814.108	5068
2815.981	5085
2817.857	5113
2819.73	5167
2821.602	5131
2823.474	5041
2825.346	5129
2827.217	5172
2829.089	5196
2830.959	5147
2832.829	5111
2834.698	5159
2836.567	5081
2838.436	5164
2840.305	5230
2842.172	5197
2844.04	5240
2845.905	5164
2847.772	5122
2849.639	5206
2851.503	5183
2853.369	5246
2855.232	5207
2857.096	5283
2858.961	5268
2860.824	5245
2862.686	5274
2864.547	5376
2866.41	5298
2868.272	5416
2870.132	5317
2871.992	5483
2873.851	5411
2875.711	5384
2877.57	5582
2879.429	5490
2881.287	5563
2883.144	5578
2885.001	5648
2886.857	5686
2888.714	5560
2890.57	5687
2892.425	5579
2894.279	5637
2896.133	5653
2897.987	5569
2899.842	5617
2901.694	5574
2903.547	5612
2905.397	5602
2907.249	5628
2909.101	5626
2910.952	5596
2912.802	5638
2914.652	5615
2916.5	5686
2918.35	5763
2920.198	5807
2922.045	5853
2923.893	5917
2925.74	5988
2927.585	5955
2929.433	6086
2931.279	6181
2933.123	6042
2934.968	6219
2936.811	6204
2938.656	6236
2940.5	6363
2942.342	6356
2944.185	6189
2946.026	6394
2947.87	6426
2949.71	6311
2951.549	6265
2953.39	6349
2955.229	6279
2957.069	6199
2958.908	6102
2960.746	6104
2962.584	5990
2964.421	5965
2966.257	5815
2968.094	5787
2969.931	5800
2971.766	5771
2973.601	5703
2975.435	5781
2977.27	5758
2979.105	5707
2980.938	5691
2982.77	5626
2984.602	5551
2986.434	5607
2988.267	5620
2990.097	5597
2991.927	5647
2993.757	5574
2995.587	5539
2997.417	5468
2999.246	5395
3001.074	5324
3002.902	5295
3004.729	5302
3006.556	5168
3008.384	5138
3010.21	5159
3012.036	5158
3013.861	4979
3015.684	5062
3017.51	4951
3019.334	5078
3021.157	4930
3022.981	4945
3024.802	4873
3026.624	4938
3028.448	4839
3030.267	4925
3032.088	4846
3033.909	4798
3035.728	4829
3037.549	4814
3039.368	4850
3041.186	4879
3043.004	4826
3044.821	4810
3046.64	4804
3048.455	4811
3050.272	4872
3052.087	4866
3053.903	4775
3055.717	4772
3057.534	4717
3059.347	4758
3061.16	4692
3062.974	4812
3064.785	4876
3066.598	4725
3068.411	4850
3070.222	4747
3072.032	4780
3073.844	4810
3075.653	4826
3077.463	4703
3079.272	4750
3081.08	4829
3082.889	4726
3084.697	4642
3086.505	4792
3088.312	4645
3090.118	4640
3091.924	4732
3093.729	4660
3095.535	4710
3097.34	4653
3099.144	4680
3100.947	4668
3102.75	4635
3104.553	4722
3106.357	4616
3108.159	4662
3109.961	4650
3111.762	4572
3113.562	4636
3115.365	4667
3117.164	4571
3118.964	4681
3120.761	4638
3122.56	4547
3124.36	4537
3126.158	4516
3127.954	4629
3129.75	4592
3131.547	4555
3133.343	4593
3135.139	4577
3136.934	4549
3138.729	4527
3140.522	4487
3142.317	4562
3144.11	4620
3145.904	4446
3147.695	4472
3149.488	4556
3151.28	4505
3153.07	4516
3154.863	4516
3156.652	4483
3158.441	4511
3160.231	4511
3162.019	4561
3163.81	4597
3165.597	4411
3167.384	4482
3169.172	4606
3170.958	4525
3172.745	4489
3174.532	4542
3176.317	4585
3178.101	4452
3179.885	4418
3181.67	4464
3183.455	4457
3185.238	4396
3187.02	4453
3188.802	4402
3190.585	4385
3192.368	4406
3194.149	4515
3195.929	4418
3197.709	4451
3199.489	4445
3201.268	4349
3203.048	4528
3204.826	4526
3206.604	4449
3208.382	4379
3210.159	4386
3211.937	4401
3213.713	4446
3215.489	4396
3217.263	4403
3219.038	4393
3220.815	4499
3222.589	4465
3224.363	4410
3226.136	4419
3227.908	4504
3229.681	4436
3231.454	4456
3233.226	4441
3234.996	4375
3236.767	4469
3238.538	4397
3240.308	4437
3242.078	4455
3243.847	4357
3245.615	4451
3247.384	4436
3249.15	4453
3250.92	4399
3252.686	4439
3254.453	4392
3256.218	4477
3257.984	4402
3259.75	4366
3261.515	4417
3263.279	4404
3265.044	4485
3266.806	4393
3268.57	4422
3270.334	4435
3272.095	4357
3273.856	4423
3275.619	4457
3277.379	4408
3279.14	4381
3280.9	4432
3282.661	4431
3284.419	4440
3286.178	4508
3287.937	4467
3289.695	4438
3291.453	4386
3293.21	4400
3294.967	4388
3296.723	4402
3298.48	4371
3300.235	4401
3301.99	4426
3303.744	4418
3305.498	4400
3307.253	4483
3309.006	4415
3310.759	4436
3312.511	4398
3314.263	4370
3316.017	4417
3317.768	4385
3319.519	4496
3321.268	4450
3323.018	4434
3324.767	4436
3326.518	4397
3328.267	4328
3330.014	4386
3331.762	4370
3333.509	4389
3335.258	4414
3337.003	4283
3338.75	4421
3340.496	4300
3342.24	4442
3343.987	4429
3345.732	4464
3347.475	4356
3349.219	4317
3350.961	4315
3352.705	4302
3354.448	4347
3356.19	4279
3357.931	4372
3359.672	4349
3361.412	4289
3363.155	4280
3364.894	4265
3366.633	4323
3368.372	4343
3370.11	4268
3371.849	4333
3373.588	4399
3375.325	4303
3377.061	4247
3378.799	4152
3380.534	4259
3382.271	4252
3384.006	4332
3385.741	4264
3387.475	4235
3389.209	4246
3390.944	4249
3392.677	4298
3394.409	4173
3396.143	4250
3397.874	4208
3399.606	4141
3401.338	4238
3403.069	4219
3404.799	4206
3406.528	4174
3408.258	4250
3409.988	4252
3411.717	4259
3413.445	4161
3415.173	4181
3416.899	4264
3418.626	4155
3420.354	4259
3422.08	4202
3423.806	4125
3425.531	4215
3427.255	4183
3428.981	4151
3430.705	4183
3432.429	4207
3434.151	4192
3435.875	4158
3437.599	4127
3439.321	4179
3441.042	4103
3442.763	4135
3444.483	4160
3446.204	4008
3447.926	4160
3449.645	3934
3451.364	4100
3453.082	4118
3454.801	4118
3456.52	3988
3458.238	4044
3459.954	4043
3461.671	4064
3463.387	4127
3465.104	4026
3466.82	3995
3468.534	3960
3470.25	4017
3471.963	3995
3473.676	4056
3475.392	3998
3477.104	3970
3478.817	3993
3480.528	3939
3482.241	3993
3483.954	3890
3485.664	4049
3487.374	3924
3489.084	3944
3490.795	3974
3492.504	3989
3494.214	3978
3495.922	3988
3497.63	3974
3499.338	3945
3501.045	3954
3502.753	3967
3504.459	3944
3506.166	3918
3507.871	3946
3509.576	3852
3511.283	3930
3512.987	3914
3514.691	3900
3516.395	3923
3518.098	3877
3519.8	3854
3521.504	3961
3523.206	3890
3524.908	3874
3526.609	3845
3528.309	3948
3530.011	3847
3531.711	3863
3533.411	3847
3535.109	3799
3536.808	3888
3538.507	3818
3540.206	3843
3541.904	3768
3543.601	3875
3545.297	3831
3546.994	3868
3548.69	3801
3550.387	3831
3552.081	3875
3553.776	3815
3555.47	3791
3557.166	3751
3558.859	3764
3560.553	3793
3562.245	3768
3563.938	3812
3565.629	3742
3567.322	3763
3569.014	3788
3570.704	3784
3572.394	3746
3574.084	3727
3575.775	3739
3577.464	3768
3579.152	3759
3580.842	3715
3582.529	3625
3584.216	3663
3585.905	3730
3587.591	3719
3589.279	3665
3590.964	3740
3592.649	3613
3594.336	3714
3596.021	3703
3597.705	3650
3599.388	3736
3601.072	3611
3602.757	3682
3604.439	3609
3606.122	3542
3607.803	3594
3609.485	3611
3611.167	3634
3612.849	3608
3614.529	3607
3616.208	3586
3617.888	3651
3619.567	3517
3621.247	3677
3622.926	3551
3624.603	3715
3626.281	3614
3627.958	3584
3629.635	3548
3631.312	3516
3632.989	3569
3634.665	3571
3636.339	3547
3638.014	3533
3639.691	3598
3641.364	3561
3643.038	3523
3644.71	3502
3646.384	3474
3648.058	3525
3649.729	3528
3651.402	3450
3653.073	3510
3654.744	3552
3656.414	3382
3658.085	3446
3659.755	3399
3661.424	3481
3663.094	3464
3664.762	3419
3666.431	3431
3668.099	3437
3669.766	3431
3671.433	3376
3673.099	3490
3674.768	3433
3676.433	3376
3678.098	3500
3679.763	3424
3681.428	3394
3683.093	3491
3684.757	3440
3686.421	3425
3688.083	3448
3689.746	3372
3691.408	3449
3693.071	3407
3694.733	3396
3696.394	3432
3698.054	3424
3699.715	3397
3701.375	3373
3703.036	3379
3704.695	3321
3706.354	3406
3708.012	3427
3709.67	3404
3711.329	3297
3712.987	3379
3714.644	3436
3716.299	3328
3717.955	3406
3719.613	3479
3721.268	3373
3722.923	3340
3724.577	3382
3726.231	3356
3727.885	3382
3729.539	3365
3731.192	3407
3732.845	3381
3734.497	3380
3736.149	3303
3737.802	3307
3739.453	3323
3741.104	3331
3742.753	3368
3744.404	3325
3746.052	3420
3747.704	3343
3749.352	3291
3751	3301
3752.648	3258
3754.296	3265
3755.944	3290
3757.59	3321
3759.238	3288
3760.883	3353
3762.528	3271
3764.176	3306
3765.82	3291
3767.464	3283
3769.109	3269
3770.753	3288
3772.396	3216
3774.04	3244
3775.683	3231
3777.325	3248
3778.967	3247
3780.608	3247
3782.25	3278
3783.89	3275
3785.531	3205
3787.17	3153
3788.81	3173
3790.45	3213
3792.09	3209
3793.729	3233
3795.366	3221
3797.003	3217
3798.64	3216
3800.278	3247
3801.915	3137
3803.551	3264
3805.187	3194
3806.822	3247
3808.458	3227
3810.093	3191
3811.726	3184
3813.36	3271
3814.994	3159
3816.627	3160
3818.262	3187
3819.893	3221
3821.525	3192
3823.157	3153
3824.787	3134
3826.42	3151
3828.051	3083
3829.68	3142
3831.31	3182
3832.938	3134
3834.569	3175
3836.198	3150
3837.825	3140
3839.454	3165
3841.08	3083
3842.708	3144
3844.335	3108
3845.962	3099
3847.587	3171
3849.212	3134
3850.838	3111
3852.463	3069
3854.089	3075
3855.712	3075
3857.335	3059
3858.959	3159
3860.582	3091
3862.205	3109
3863.827	3147
3865.449	3039
3867.07	3064
3868.691	2990
3870.312	3108
3871.933	3107
3873.553	3052
3875.173	3145
3876.792	3138
3878.411	3097
3880.03	3043
3881.647	3070
3883.265	3114
3884.882	3016
3886.499	3052
3888.116	3103
3889.732	3042
3891.348	3091
3892.964	2997
3894.579	3061
3896.195	3074
3897.809	2995
3899.423	3133
3901.036	3073
3902.648	3020
3904.261	3032
3905.875	2992
3907.487	3105
3909.099	3073
3910.709	2963
3912.321	3079
3913.933	3024
3915.542	3069
3917.152	3032
3918.762	2996
3920.37	3033
3921.98	2998
3923.589	2961
3925.196	3020
3926.804	3006
3928.41	2902
3930.018	3025
3931.626	3040
3933.231	3045
3934.838	2935
3936.442	2979
3938.046	2894
3939.653	3005
3941.257	2919
3942.861	3028
3944.464	2944
3946.068	2956
3947.67	2998
3949.273	2933
3950.876	2927
3952.477	2929
3954.078	2934
3955.678	2961
3957.281	3005
3958.881	2978
3960.48	2880
3962.079	2931
3963.678	2899
3965.279	3062
3966.877	2948
3968.475	2925
3970.072	2967
3971.669	2918
3973.266	2941
3974.864	2964
3976.459	2977
3978.055	2909
3979.65	2897
3981.245	2943
3982.841	2815
3984.436	2894
3986.03	2922
3987.623	2931
3989.216	2851
3990.809	2774
3992.403	2894
3993.995	2864
3995.586	2857
3997.177	2846
3998.768	2795
4000.361	2850
4001.951	2840
4003.54	2820
4005.13	2870
4006.719	2825
4008.31	2819
4009.897	2885
4011.485	2800
4013.073	2838
4014.66	2844
4016.247	2857
4017.834	2783
4019.421	2876
4021.006	2814
4022.592	2787
4024.178	2842
4025.763	2749
4027.348	2853
4028.932	2783
4030.515	2772
4032.099	2784
4033.682	2711
4035.266	2757
4036.847	2790
4038.429	2738
4040.011	2756
4041.592	2760
4043.173	2708
4044.755	2760
4046.334	2718
4047.913	2760
4049.494	2777
4051.074	2669
4052.652	2706
4054.23	2788
4055.807	2729
4057.385	2751
4058.963	2758
4060.541	2747
4062.117	2773
4063.693	2720
4065.269	2771
4066.844	2687
4068.42	2665
4069.995	2662
4071.569	2699
4073.143	2710
4074.716	2703
4076.291	2713
4077.864	2690
4079.436	2787
4081.009	2727
4082.58	2681
4084.152	2673
4085.723	2708
4087.294	2734
4088.865	2696
4090.435	2689
4092.005	2669
4093.574	2682
4095.143	2721
4096.712	2724
4098.279	2666
4099.848	2672
4101.416	2684
4102.984	2651
4104.55	2673
4106.117	2626
4107.682	2675
4109.248	2640
4110.815	2707
4112.379	2621
4113.945	2662
4115.508	2642
4117.073	2680
4118.637	2700
4120.201	2672
4121.763	2616
4123.325	2642
4124.888	2677
4126.449	2649
4128.013	2641
4129.573	2661
4131.133	2596
4132.694	2608
4134.254	2614
4135.814	2554
4137.374	2620
4138.933	2647
4140.491	2605
4142.049	2582
4143.607	2624
4145.167	2630
4146.724	2610
4148.28	2576
4149.836	2569
4151.392	2554
4152.949	2551
4154.504	2597
4156.059	2584
4157.614	2589
4159.168	2561
4160.723	2524
4162.277	2542
4163.83	2546
4165.383	2464
4166.936	2609
4168.488	2457
4170.041	2528
4171.593	2543
4173.144	2517
4174.695	2535
4176.246	2455
4177.796	2546
4179.346	2506
4180.896	2454
4182.445	2511
4183.994	2512
4185.542	2472
4187.091	2543
4188.639	2549
4190.185	2440
4191.732	2508
4193.279	2538
4194.826	2494
4196.373	2499
4197.918	2426
4199.463	2460
4201.008	2514
4202.553	2448
4204.098	2503
4205.641	2481
4207.185	2452
4208.728	2468
4210.271	2403
4211.814	2501
4213.357	2469
4214.898	2500
4216.439	2442
4217.98	2497
4219.522	2464
4221.062	2491
4222.603	2396
4224.142	2419
4225.681	2465
4227.222	2403
4228.76	2411
4230.298	2465
4231.835	2415
4233.373	2428
4234.911	2467
4236.449	2479
4237.985	2431
4239.521	2455
4241.057	2408
4242.592	2406
4244.128	2477
4245.663	2397
4247.197	2455
4248.731	2379
4250.265	2411
4251.798	2414
4253.333	2512
4254.865	2358
4256.397	2391
4257.93	2453
4259.461	2401
4260.994	2401
4262.525	2347
4264.056	2337
4265.586	2435
4267.115	2336
4268.646	2436
4270.176	2451
4271.705	2360
4273.232	2390
4274.761	2427
4276.289	2400
4277.818	2337
4279.345	2393
4280.872	2369
4282.399	2366
4283.924	2364
4285.452	2389
4286.976	2376
4288.502	2333
4290.026	2429
4291.551	2340
4293.074	2294
4294.6	2387
4296.123	2379
4297.646	2320
4299.168	2370
4300.691	2376
4302.214	2324
4303.736	2372
4305.257	2276
4306.778	2300
4308.299	2295
4309.82	2344
4311.34	2366
4312.86	2280
4314.379	2295
