400.0745	4640
402.597	4727
405.1208	4525
407.6419	4630
410.1623	4693
412.6819	4723
415.201	4810
417.7172	4693
420.2369	4860
422.7538	4794
425.2701	4909
427.7856	4970
430.3005	4952
432.8147	4965
435.3282	4961
437.841	4897
440.3511	4951
442.8625	4953
445.3753	4987
447.8854	4909
450.3927	5008
452.9014	5006
455.4073	4920
457.9146	5039
460.4233	5025
462.9272	5046
465.4325	4979
467.935	5132
470.4389	5006
472.9421	4972
475.4446	4996
477.9444	5017
480.4456	5033
482.944	5098
485.4417	5014
487.9429	5070
490.4393	5145
492.935	5101
495.4321	5164
497.9264	5094
500.4221	5109
502.9171	5173
505.4094	5180
507.9011	5217
510.392	5139
512.8864	5186
515.3759	5173
517.8649	5076
520.3531	5212
522.8406	5212
525.3275	5218
527.8178	5315
530.3033	5278
532.7881	5226
535.2723	5329
537.7558	5291
540.2407	5311
542.7228	5299
545.2043	5213
547.6851	5284
550.1652	5188
552.6467	5323
555.1255	5191
557.6016	5217
560.079	5337
562.5557	5260
565.0318	5256
567.5092	5202
569.984	5375
572.456	5449
574.9294	5316
577.4022	5439
579.8762	5462
582.3456	5408
584.8163	5384
587.2863	5425
589.7557	5455
592.2224	5555
594.6924	5473
597.1578	5453
599.6245	5396
602.0905	5432
604.5538	5403
607.0206	5367
609.4825	5430
611.9459	5396
614.4066	5402
616.8686	5348
619.33	5351
621.7906	5367
624.2487	5404
626.708	5436
629.1647	5327
631.6207	5415
634.0801	5405
636.5348	5383
638.9888	5356
641.4442	5449
643.8969	5485
646.3509	5440
648.8022	5420
651.255	5514
653.705	5557
656.1544	5442
658.6031	5598
661.0532	5470
663.5026	5596
665.9493	5532
668.3954	5500
670.8409	5542
673.2877	5567
675.7318	5499
678.1752	5548
680.618	5578
683.0601	5530
685.5035	5579
687.9444	5638
690.3845	5621
692.824	5584
695.2628	5643
697.701	5738
700.1406	5617
702.5774	5671
705.0116	5681
707.4472	5650
709.8821	5612
712.3183	5657
714.7519	5709
717.1829	5761
719.6151	5782
722.0468	5780
724.4777	5743
726.908	5760
729.3377	5721
731.7667	5790
734.1931	5706
736.6208	5793
739.0498	5894
741.4742	5798
743.9	5891
746.3231	5828
748.7476	5941
751.1713	5925
753.5945	5837
756.015	5948
758.4368	5981
760.856	5957
763.2766	6157
765.6965	5983
768.1157	6050
770.5323	6014
772.9483	5986
775.3656	6046
777.7822	5966
780.1963	5984
782.6116	6024
785.0244	6109
787.4365	6025
789.8499	5970
792.2626	6033
794.6728	5991
797.0823	6005
799.4911	6055
801.8994	6071
804.3109	5972
806.7178	6111
809.124	6059
811.5297	5997
813.9347	6176
816.341	6111
818.7447	6112
821.1478	6124
823.5502	6180
825.952	6148
828.3531	6020
830.7556	6031
833.1554	6197
835.5546	6116
837.9532	6154
840.3511	6157
842.7504	6171
845.1451	6180
847.5411	6179
849.9365	6203
852.3312	6258
854.7272	6217
857.1187	6289
859.5115	6348
861.9037	6248
864.2952	6272
866.6842	6204
869.0764	6279
871.4661	6076
873.8531	6199
876.2415	6232
878.6272	6261
881.0162	6268
883.4026	6125
885.7866	6102
888.1717	6175
890.5543	6291
892.9382	6287
895.3215	6160
897.7041	6198
900.0842	6275
902.4655	6301
904.8443	6280
907.2244	6385
909.6039	6238
911.9808	6323
914.357	6239
916.7346	6397
919.1115	6506
921.4859	6442
923.8616	6419
926.2347	6533
928.6071	6494
930.979	6482
933.3541	6577
935.7247	6458
938.0946	6528
940.4639	6506
942.8326	6598
945.2026	6629
947.5701	6794
949.9369	6884
952.305	6990
954.6705	7076
957.0355	7275
959.4017	7511
961.7654	7491
964.1284	7415
966.4908	7346
968.8527	7261
971.2138	6889
973.5743	6819
975.9343	6750
978.2936	6464
980.6522	6497
983.0122	6449
985.3696	6478
987.7245	6376
990.0807	6322
992.4362	6362
994.7911	6390
997.1474	6386
999.4991	6381
1001.852	6438
1004.205	6414
1006.555	6437
1008.908	6506
1011.258	6517
1013.606	6328
1015.956	6395
1018.302	6494
1020.652	6471
1022.998	6363
1025.345	6420
1027.691	6551
1030.035	6523
1032.378	6566
1034.724	6608
1037.066	6487
1039.409	6720
1041.75	6600
1044.092	6531
1046.433	6518
1048.771	6558
1051.112	6594
1053.449	6503
1055.786	6607
1058.124	6590
1060.462	6591
1062.797	6654
1065.131	6613
1067.467	6586
1069.8	6645
1072.135	6597
1074.467	6756
1076.798	6649
1079.129	6591
1081.459	6534
1083.792	6588
1086.121	6735
1088.449	6602
1090.777	6607
1093.104	6592
1095.431	6685
1097.759	6451
1100.084	6490
1102.408	6644
1104.732	6629
1107.056	6456
1109.379	6520
1111.701	6463
1114.022	6539
1116.343	6644
1118.664	6647
1120.983	6662
1123.303	6503
1125.621	6660
1127.939	6720
1130.256	6492
1132.573	6629
1134.889	6582
1137.205	6624
1139.52	6596
1141.832	6614
1144.146	6520
1146.461	6563
1148.771	6651
1151.083	6596
1153.392	6549
1155.703	6554
1158.011	6570
1160.323	6568
1162.629	6604
1164.938	6561
1167.243	6612
1169.55	6661
1171.857	6667
1174.163	6634
1176.466	6602
1178.769	6647
1181.073	6639
1183.374	6570
1185.677	6662
1187.979	6630
1190.279	6551
1192.578	6476
1194.878	6661
1197.178	6649
1199.476	6669
1201.772	6555
1204.068	6599
1206.366	6645
1208.663	6579
1210.957	6595
1213.251	6625
1215.544	6608
1217.836	6655
1220.128	6829
1222.421	6709
1224.712	6696
1227.002	6817
1229.292	6682
1231.581	6721
1233.871	6805
1236.159	6854
1238.446	6794
1240.732	6885
1243.018	6823
1245.304	6906
1247.59	6839
1249.874	6867
1252.156	6922
1254.439	6876
1256.721	6939
1259.005	6808
1261.286	6877
1263.565	6792
1265.845	6873
1268.125	6843
1270.403	6880
1272.682	6880
1274.959	6851
1277.234	6748
1279.511	6790
1281.787	6852
1284.062	6749
1286.337	6790
1288.609	6725
1290.882	6783
1293.153	6699
1295.428	6854
1297.698	6717
1299.969	6844
1302.237	6816
1304.507	6682
1306.777	6747
1309.044	6829
1311.312	6738
1313.578	6700
1315.844	6735
1318.109	6837
1320.375	6784
1322.638	6731
1324.903	6657
1327.165	6826
1329.427	6738
1331.69	6720
1333.952	6805
1336.212	6783
1338.471	6765
1340.73	6736
1342.988	6688
1345.248	6771
1347.505	6720
1349.763	6855
1352.019	6799
1354.274	6647
1356.53	6847
1358.784	6666
1361.038	6784
1363.291	6727
1365.543	6651
1367.797	6796
1370.048	6761
1372.296	6750
1374.546	6782
1376.796	6784
1379.045	6818
1381.295	6828
1383.542	6800
1385.787	6842
1388.034	6810
1390.28	6799
1392.527	6793
1394.772	6867
1397.014	6948
1399.258	6876
1401.501	6968
1403.741	6897
1405.985	6937
1408.226	6940
1410.465	6911
1412.705	7002
1414.943	6928
1417.184	6836
1419.42	6985
1421.658	6922
1423.894	6978
1426.13	6823
1428.366	6877
1430.602	6978
1432.835	6849
1435.069	6984
1437.301	6987
1439.535	7004
1441.767	7120
1443.997	7019
1446.229	7045
1448.458	7045
1450.687	7106
1452.916	7127
1455.146	7168
1457.372	7153
1459.599	7097
1461.824	7166
1464.051	7016
1466.277	7037
1468.501	7005
1470.725	7013
1472.948	7090
1475.17	6953
1477.393	6894
1479.614	6807
1481.837	6856
1484.057	6824
1486.276	6750
1488.497	6718
1490.715	6844
1492.932	6787
1495.148	6763
1497.364	6835
1499.58	6752
1501.798	6760
1504.012	6743
1506.227	6709
1508.44	6637
1510.653	6648
1512.866	6732
1515.078	6785
1517.289	6699
1519.5	6606
1521.711	6735
1523.92	6680
1526.13	6726
1528.338	6674
1530.544	6631
1532.752	6729
1534.959	6746
1537.165	6708
1539.371	6725
1541.574	6693
1543.779	6687
1545.983	6730
1548.187	6745
1550.39	6774
1552.59	6813
1554.792	6748
1556.991	6829
1559.19	6684
1561.392	6842
1563.59	6866
1565.789	6772
1567.986	6843
1570.182	6761
1572.381	6921
1574.576	6875
1576.771	6884
1578.966	6839
1581.16	6943
1583.354	6842
1585.546	6838
1587.74	6882
1589.931	6921
1592.121	6998
1594.311	6883
1596.502	6901
1598.693	6987
1600.881	6840
1603.069	6947
1605.256	6980
1607.445	6964
1609.631	6900
1611.816	6871
1614.001	6914
1616.186	6891
1618.37	6867
1620.555	6989
1622.737	6954
1624.919	6964
1627.101	6925
1629.282	7004
1631.463	6993
1633.643	7024
1635.822	7015
1638.001	7076
1640.179	6881
1642.359	6946
1644.534	7023
1646.711	7025
1648.887	7032
1651.062	7073
1653.235	7002
1655.412	7129
1657.586	7010
1659.757	7183
1661.93	6884
1664.1	7081
1666.274	7035
1668.445	7090
1670.614	7250
1672.784	7093
1674.951	7025
1677.12	7120
1679.289	6981
1681.457	7096
1683.622	7027
1685.789	7010
1687.953	7137
1690.121	7072
1692.284	7036
1694.447	7108
1696.611	7015
1698.772	7029
1700.935	7042
1703.098	7016
1705.258	6938
1707.417	6954
1709.576	6830
1711.736	6865
1713.896	6922
1716.053	6803
1718.21	6864
1720.366	6886
1722.522	6874
1724.68	6914
1726.835	6857
1728.989	6848
1731.142	6777
1733.295	6947
1735.449	6840
1737.601	6842
1739.753	6970
1741.903	6941
1744.054	6932
1746.203	6804
1748.354	6879
1750.503	6910
1752.651	6984
1754.798	6933
1756.944	6853
1759.092	6985
1761.238	6977
1763.383	6971
1765.528	6919
1767.672	6913
1769.814	6951
1771.959	6914
1774.102	6915
1776.242	6923
1778.384	6939
1780.525	6979
1782.665	6919
1784.805	6954
1786.945	6853
1789.082	6901
1791.22	6890
1793.36	6914
1795.495	6965
1797.632	6955
1799.766	6966
1801.902	7028
1804.035	6851
1806.172	6844
1808.304	7009
1810.436	7041
1812.569	6974
1814.699	6920
1816.833	6940
1818.963	7000
1821.092	6905
1823.222	6922
1825.35	6886
1827.478	6882
1829.608	6780
1831.734	6969
1833.86	6928
1835.986	6974
1838.11	7017
1840.238	6711
1842.362	6817
1844.485	6938
1846.608	6894
1848.73	6882
1850.853	6881
1852.974	6846
1855.097	6864
1857.217	6987
1859.336	6946
1861.455	6847
1863.576	6834
1865.693	6919
1867.811	6875
1869.926	6818
1872.042	6911
1874.16	6946
1876.275	6788
1878.39	6832
1880.504	6834
1882.618	6962
1884.731	6923
1886.843	6887
1888.956	6840
1891.067	6704
1893.178	6893
1895.287	6943
1897.399	6952
1899.508	6879
1901.617	6877
1903.724	6979
1905.832	6870
1907.941	6846
1910.046	6948
1912.152	6877
1914.256	6993
1916.361	6973
1918.464	6959
1920.57	6948
1922.672	6904
1924.775	6893
1926.876	7005
1928.978	6969
1931.08	6983
1933.181	7007
1935.28	7011
1937.38	7016
1939.478	6918
1941.577	6976
1943.675	6903
1945.771	6955
1947.867	6855
1949.964	7021
1952.058	6970
1954.154	6917
1956.248	6977
1958.343	6826
1960.435	7016
1962.527	6948
1964.62	6954
1966.711	7061
1968.802	6950
1970.892	7077
1972.983	6971
1975.072	7016
1977.162	6923
1979.25	6806
1981.337	6980
1983.424	7006
1985.51	7025
1987.598	6873
1989.683	6937
1991.768	6943
1993.852	6906
1995.934	6908
1998.019	6890
2000.102	6906
2002.184	6907
2004.266	6845
2006.347	6930
2008.427	6908
2010.508	6837
2012.587	6837
2014.666	6836
2016.745	6908
2018.821	6868
2020.9	7027
2022.977	6792
2025.052	6991
2027.128	6927
2029.204	6996
2031.277	6856
2033.353	6857
2035.425	6941
2037.499	6872
2039.57	6992
2041.642	6824
2043.714	6955
2045.786	6892
2047.855	6932
2049.925	6949
2051.993	6830
2054.064	7003
2056.132	6908
2058.2	6873
2060.266	6950
2062.332	6944
2064.398	6930
2066.465	6882
2068.529	7000
2070.592	6976
2072.657	6965
2074.719	6851
2076.783	6982
2078.845	6985
2080.907	7094
2082.968	6958
2085.028	6920
2087.087	6886
2089.148	6963
2091.207	6859
2093.264	6950
2095.322	6959
2097.379	6985
2099.439	6834
2101.495	7023
2103.55	6843
2105.605	6976
2107.658	6805
2109.713	6868
2111.767	6899
2113.82	6964
2115.872	6898
2117.924	6831
2119.975	6897
2122.028	6885
2124.078	6968
2126.126	6908
2128.176	6913
2130.225	6982
2132.275	6881
2134.321	6905
2136.368	6948
2138.415	7017
2140.461	6974
2142.505	7019
2144.552	6922
2146.597	6938
2148.64	6841
2150.684	6862
2152.725	6822
2154.77	6922
2156.811	6946
2158.852	6954
2160.894	6880
2162.933	6840
2164.973	6812
2167.013	6734
2169.051	6738
2171.089	6895
2173.126	6842
2175.164	6891
2177.201	6675
2179.236	6792
2181.273	6751
2183.307	6809
2185.341	6824
2187.377	6752
2189.41	6729
2191.442	6728
2193.473	6876
2195.506	6840
2197.539	6744
2199.569	6781
2201.598	6743
2203.628	6705
2205.656	6724
2207.686	6814
2209.716	6751
2211.743	6707
2213.769	6733
2215.796	6769
2217.821	6644
2219.848	6793
2221.873	6637
2223.897	6646
2225.921	6638
2227.944	6715
2229.967	6643
2231.991	6722
2234.011	6662
2236.032	6706
2238.053	6715
2240.073	6694
2242.094	6673
2244.114	6738
2246.131	6647
2248.149	6797
2250.167	6696
2252.186	6662
2254.201	6693
2256.218	6724
2258.233	6847
2260.247	6733
2262.262	6717
2264.278	6739
2266.29	6533
2268.303	6688
2270.315	6690
2272.327	6696
2274.341	6733
2276.35	6801
2278.361	6613
2280.37	6644
2282.38	6726
2284.388	6738
2286.397	6702
2288.405	6651
2290.412	6757
2292.419	6708
2294.425	6601
2296.431	6572
2298.437	6710
2300.441	6701
2302.445	6709
2304.449	6634
2306.453	6634
2308.455	6645
2310.457	6570
2312.459	6708
2314.46	6533
2316.46	6619
2318.461	6632
2320.46	6611
2322.458	6583
2324.458	6593
2326.456	6608
2328.455	6606
2330.451	6594
2332.447	6563
2334.443	6481
2336.438	6622
2338.433	6559
2340.429	6468
2342.422	6581
2344.416	6562
2346.408	6582
2348.399	6527
2350.393	6557
2352.384	6485
2354.375	6482
2356.365	6405
2358.355	6494
2360.344	6479
2362.333	6520
2364.322	6473
2366.309	6497
2368.295	6550
2370.282	6380
2372.27	6581
2374.256	6467
2376.24	6511
2378.225	6525
2380.208	6467
2382.194	6375
2384.177	6376
2386.159	6431
2388.142	6316
2390.122	6460
2392.105	6444
2394.085	6484
2396.066	6421
2398.044	6428
2400.024	6485
2402.002	6304
2403.982	6373
2405.959	6438
2407.935	6464
2409.913	6373
2411.888	6362
2413.865	6323
2415.84	6447
2417.814	6387
2419.788	6394
2421.762	6390
2423.735	6392
2425.708	6458
2427.68	6268
2429.651	6408
2431.623	6316
2433.593	6376
2435.564	6388
2437.533	6423
2439.502	6449
2441.47	6282
2443.438	6487
2445.406	6350
2447.373	6327
2449.34	6394
2451.305	6293
2453.271	6391
2455.235	6320
2457.201	6319
2459.165	6339
2461.129	6262
2463.092	6329
2465.054	6352
2467.018	6240
2468.978	6482
2470.939	6202
2472.899	6276
2474.86	6231
2476.819	6233
2478.778	6400
2480.737	6219
2482.695	6284
2484.653	6326
2486.609	6348
2488.567	6357
2490.524	6341
2492.478	6301
2494.433	6383
2496.387	6278
2498.343	6228
2500.297	6270
2502.249	6304
2504.202	6220
2506.153	6215
2508.105	6213
2510.057	6190
2512.008	6183
2513.957	6121
2515.906	6153
2517.855	6226
2519.805	6174
2521.754	6276
2523.7	6153
2525.647	6097
2527.594	6163
2529.54	6136
2531.486	6318
2533.431	6232
2535.376	6229
2537.32	6132
2539.263	6095
2541.207	6257
2543.151	6187
2545.093	6179
2547.034	6192
2548.975	6179
2550.917	6171
2552.856	6132
2554.796	6220
2556.735	6153
2558.673	6215
2560.611	6183
2562.55	6162
2564.487	6039
2566.424	6029
2568.36	6149
2570.296	6340
2572.232	6186
2574.167	6236
2576.101	6094
2578.035	6062
2579.969	6104
2581.902	6259
2583.834	6094
2585.766	6180
2587.698	6056
2589.628	6187
2591.557	6113
2593.489	6206
2595.419	6210
2597.348	6256
2599.275	6228
2601.204	6157
2603.131	6181
2605.059	6279
2606.986	6280
2608.911	6127
2610.837	6090
2612.76	6055
2614.687	6092
2616.61	6050
2618.534	6136
2620.457	6177
2622.38	6253
2624.302	6147
2626.225	6108
2628.145	6223
2630.067	6156
2631.986	6199
2633.906	6296
2635.827	6240
2637.745	6128
2639.662	6204
2641.581	6113
2643.498	6134
2645.415	6197
2647.331	6215
2649.248	6181
2651.163	6312
2653.077	6184
2654.993	6239
2656.906	6168
2658.821	6123
2660.733	6152
2662.646	6174
2664.557	6148
2666.47	6117
2668.381	6251
2670.291	6156
2672.201	6079
2674.11	6123
2676.021	6159
2677.929	6159
2679.837	6042
2681.745	6144
2683.652	6107
2685.56	6023
2687.466	6092
2689.371	6128
2691.276	6083
2693.181	6116
2695.085	6032
2696.991	6109
2698.893	6134
2700.796	6084
2702.698	6001
2704.601	6076
2706.502	6083
2708.404	6049
2710.304	6109
2712.203	6151
2714.103	6046
2716.003	6055
2717.902	5913
2719.8	5918
2721.697	6067
2723.594	5929
2725.49	6104
2727.389	6059
2729.283	5926
2731.179	6003
2733.073	5962
2734.968	6102
2736.863	6074
2738.757	5995
2740.649	6007
2742.541	5957
2744.433	6059
2746.324	5978
2748.216	6010
2750.107	6066
2751.997	5980
2753.886	5850
2755.776	6189
2757.666	6169
2759.553	5932
2761.44	6004
2763.327	5926
2765.215	5925
2767.102	5933
2768.988	5969
2770.873	5791
2772.757	5963
2774.641	5876
2776.525	5958
2778.41	5899
2780.292	6020
2782.175	5936
2784.057	5882
2785.938	5881
2787.821	5992
2789.701	5949
2791.581	5860
2793.461	5877
2795.34	5755
2797.219	5872
2799.099	5884
2800.975	5885
2802.853	5894
2804.73	5875
2806.606	5774
2808.484	5926
2810.358	5925
2812.233	5816
2814.108	5911
2815.981	5956
2817.857	5856
2819.73	5772
2821.602	5835
2823.474	5789
2825.346	5893
2827.217	5868
2829.089	5831
2830.959	5820
2832.829	5820
2834.698	5947
2836.567	5974
2838.436	5968
2840.305	5900
2842.172	5834
2844.04	5896
2845.905	5891
2847.772	5844
2849.639	6020
2851.503	5911
2853.369	5834
2855.232	5962
2857.096	5923
2858.961	6042
2860.824	5973
2862.686	6014
2864.547	6149
2866.41	6083
2868.272	6115
2870.132	6047
2871.992	6252
2873.851	6275
2875.711	6346
2877.57	6357
2879.429	6322
2881.287	6380
2883.144	6321
2885.001	6468
2886.857	6537
2888.714	6460
2890.57	6402
2892.425	6439
2894.279	6452
2896.133	6530
2897.987	6472
2899.842	6567
2901.694	6284
2903.547	6412
2905.397	6394
2907.249	6394
2909.101	6398
2910.952	6431
2912.802	6509
2914.652	6551
2916.5	6420
2918.35	6766
2920.198	6672
2922.045	6783
2923.893	6661
2925.74	6865
2927.585	6842
2929.433	6859
2931.279	6886
2933.123	6932
2934.968	7005
2936.811	7075
2938.656	7171
2940.5	7243
2942.342	7284
2944.185	7264
2946.026	7265
2947.87	7233
2949.71	7272
2951.549	7226
2953.39	7282
2955.229	7038
2957.069	7101
2958.908	6804
2960.746	6949
2962.584	6882
2964.421	6782
2966.257	6852
2968.094	6730
2969.931	6723
2971.766	6619
2973.601	6563
2975.435	6627
2977.27	6531
2979.105	6503
2980.938	6438
2982.77	6443
2984.602	6433
2986.434	6489
2988.267	6282
2990.097	6364
2991.927	6187
2993.757	6318
2995.587	6193
2997.417	6129
2999.246	6174
3001.074	6103
3002.902	6109
3004.729	5912
3006.556	5949
3008.384	5944
3010.21	5915
3012.036	5941
3013.861	5736
3015.684	5721
3017.51	5798
3019.334	5691
3021.157	5698
3022.981	5633
3024.802	5609
3026.624	5643
3028.448	5490
3030.267	5557
3032.088	5508
3033.909	5596
3035.728	5525
3037.549	5498
3039.368	5471
3041.186	5423
3043.004	5504
3044.821	5524
3046.64	5417
3048.455	5498
3050.272	5347
3052.087	5504
3053.903	5402
3055.717	5405
3057.534	5552
3059.347	5433
3061.16	5498
3062.974	5466
3064.785	5525
3066.598	5381
3068.411	5330
3070.222	5409
3072.032	5352
3073.844	5442
3075.653	5331
3077.463	5335
3079.272	5481
3081.08	5408
3082.889	5438
3084.697	5328
3086.505	5336
3088.312	5349
3090.118	5397
3091.924	5254
3093.729	5357
3095.535	5365
3097.34	5381
3099.144	5243
3100.947	5338
3102.75	5202
3104.553	5276
3106.357	5303
3108.159	5361
3109.961	5237
3111.762	5313
3113.562	5287
3115.365	5199
3117.164	5266
3118.964	5164
3120.761	5311
3122.56	5157
3124.36	5271
3126.158	5305
3127.954	5129
3129.75	5235
3131.547	5220
3133.343	5057
3135.139	5082
3136.934	5141
3138.729	5145
3140.522	5091
3142.317	5222
3144.11	5177
3145.904	5152
3147.695	5220
3149.488	5126
3151.28	5194
3153.07	5148
3154.863	5238
3156.652	5070
3158.441	5116
3160.231	5162
3162.019	5066
3163.81	5132
3165.597	5155
3167.384	5041
3169.172	5023
3170.958	5180
3172.745	5068
3174.532	5067
3176.317	5093
3178.101	5201
3179.885	5028
3181.67	5057
3183.455	5098
3185.238	5103
3187.02	5120
3188.802	5112
3190.585	5054
3192.368	5050
3194.149	5133
3195.929	5147
3197.709	5097
3199.489	5050
3201.268	5051
3203.048	4973
3204.826	4978
3206.604	5140
3208.382	5085
3210.159	5031
3211.937	5061
3213.713	4982
3215.489	5144
3217.263	5138
3219.038	5087
3220.815	5066
3222.589	5046
3224.363	4989
3226.136	5115
3227.908	5102
3229.681	4993
3231.454	5149
3233.226	4984
3234.996	4986
3236.767	5005
3238.538	5051
3240.308	5096
3242.078	5017
3243.847	4995
3245.615	5075
3247.384	5032
3249.15	5058
3250.92	5009
3252.686	5066
3254.453	5089
3256.218	5037
3257.984	4911
3259.75	4952
3261.515	5024
3263.279	4964
3265.044	5006
3266.806	5017
3268.57	5049
3270.334	5033
3272.095	5029
3273.856	5050
3275.619	4954
3277.379	5056
3279.14	4917
3280.9	5050
3282.661	4988
3284.419	4995
3286.178	4992
3287.937	5010
3289.695	4981
3291.453	5055
3293.21	5011
3294.967	5049
3296.723	4888
3298.48	4936
3300.235	4978
3301.99	5093
3303.744	5046
3305.498	4911
3307.253	5012
3309.006	4987
3310.759	5006
3312.511	4961
3314.263	5068
3316.017	5080
3317.768	4991
3319.519	4994
3321.268	5056
3323.018	4946
3324.767	4976
3326.518	4992
3328.267	5022
3330.014	4957
3331.762	5008
3333.509	5019
3335.258	4922
3337.003	5030
3338.75	5070
3340.496	4902
3342.24	4960
3343.987	5046
3345.732	4987
3347.475	4991
3349.219	4880
3350.961	4999
3352.705	4980
3354.448	4999
3356.19	5005
3357.931	4892
3359.672	4897
3361.412	5031
3363.155	4854
3364.894	5007
3366.633	4989
3368.372	4919
3370.11	4838
3371.849	4885
3373.588	4953
3375.325	4898
3377.061	4867
3378.799	4896
3380.534	4845
3382.271	4960
3384.006	4980
3385.741	4855
3387.475	4848
3389.209	4820
3390.944	4813
3392.677	4914
3394.409	4819
3396.143	4756
3397.874	4711
3399.606	4778
3401.338	4820
3403.069	4789
3404.799	4845
3406.528	4855
3408.258	4740
3409.988	4844
3411.717	4781
3413.445	4708
3415.173	4809
3416.899	4833
3418.626	4735
3420.354	4682
3422.08	4818
3423.806	4865
3425.531	4845
3427.255	4775
3428.981	4751
3430.705	4720
3432.429	4790
3434.151	4758
3435.875	4705
3437.599	4738
3439.321	4653
3441.042	4803
3442.763	4616
3444.483	4643
3446.204	4795
3447.926	4681
3449.645	4607
3451.364	4649
3453.082	4641
3454.801	4588
3456.52	4686
3458.238	4584
3459.954	4684
3461.671	4637
3463.387	4606
3465.104	4656
3466.82	4601
3468.534	4630
3470.25	4574
3471.963	4628
3473.676	4567
3475.392	4567
3477.104	4534
3478.817	4582
3480.528	4514
3482.241	4544
3483.954	4610
3485.664	4546
3487.374	4508
3489.084	4537
3490.795	4497
3492.504	4454
3494.214	4430
3495.922	4474
3497.63	4504
3499.338	4547
3501.045	4488
3502.753	4502
3504.459	4507
3506.166	4439
3507.871	4535
3509.576	4446
3511.283	4430
3512.987	4467
3514.691	4491
3516.395	4400
3518.098	4414
3519.8	4394
3521.504	4441
3523.206	4487
3524.908	4418
3526.609	4385
3528.309	4340
3530.011	4451
3531.711	4352
3533.411	4444
3535.109	4299
3536.808	4365
3538.507	4391
3540.206	4323
3541.904	4371
3543.601	4353
3545.297	4302
3546.994	4382
3548.69	4378
3550.387	4416
3552.081	4359
3553.776	4302
3555.47	4367
3557.166	4283
3558.859	4374
3560.553	4421
3562.245	4280
3563.938	4344
3565.629	4330
3567.322	4269
3569.014	4298
3570.704	4274
3572.394	4300
3574.084	4356
3575.775	4327
3577.464	4298
3579.152	4267
3580.842	4238
3582.529	4285
3584.216	4248
3585.905	4224
3587.591	4212
3589.279	4242
3590.964	4161
3592.649	4235
3594.336	4230
3596.021	4145
3597.705	4160
3599.388	4179
3601.072	4240
3602.757	4072
3604.439	4071
3606.122	4144
3607.803	4136
3609.485	4116
3611.167	4148
3612.849	4042
3614.529	4095
3616.208	4091
3617.888	4117
3619.567	4140
3621.247	4049
3622.926	4053
3624.603	3974
3626.281	4092
3627.958	4165
3629.635	4070
3631.312	3994
3632.989	3985
3634.665	4054
3636.339	4031
3638.014	3932
3639.691	4043
3641.364	4014
3643.038	3925
3644.71	3931
3646.384	3981
3648.058	4074
3649.729	4035
3651.402	3966
3653.073	3995
3654.744	3915
3656.414	3918
3658.085	3984
3659.755	3948
3661.424	3974
3663.094	3889
3664.762	3930
3666.431	3942
3668.099	3865
3669.766	3928
3671.433	3944
3673.099	3769
3674.768	3926
3676.433	3927
3678.098	3870
3679.763	3948
3681.428	3861
3683.093	3953
3684.757	3861
3686.421	3891
3688.083	3872
3689.746	3906
3691.408	3927
3693.071	3953
3694.733	3927
3696.394	3891
3698.054	3872
3699.715	3861
3701.375	3850
3703.036	3844
3704.695	3775
3706.354	3837
3708.012	3826
3709.67	3802
3711.329	3782
3712.987	3773
3714.644	3803
3716.299	3787
3717.955	3782
3719.613	3856
3721.268	3832
3722.923	3799
3724.577	3809
3726.231	3815
3727.885	3760
3729.539	3814
3731.192	3747
3732.845	3799
3734.497	3857
3736.149	3754
3737.802	3784
3739.453	3847
3741.104	3773
3742.753	3732
3744.404	3748
3746.052	3695
3747.704	3769
3749.352	3688
3751	3789
3752.648	3707
3754.296	3709
3755.944	3768
3757.59	3775
3759.238	3684
3760.883	3712
3762.528	3700
3764.176	3754
3765.82	3734
3767.464	3789
3769.109	3695
3770.753	3661
3772.396	3721
3774.04	3735
3775.683	3665
3777.325	3708
3778.967	3595
3780.608	3673
3782.25	3682
3783.89	3632
3785.531	3691
3787.17	3655
3788.81	3654
3790.45	3646
3792.09	3663
3793.729	3645
3795.366	3555
3797.003	3657
3798.64	3591
3800.278	3573
3801.915	3602
3803.551	3718
3805.187	3605
3806.822	3682
3808.458	3561
3810.093	3548
3811.726	3543
3813.36	3634
3814.994	3595
3816.627	3624
3818.262	3536
3819.893	3568
3821.525	3586
3823.157	3636
3824.787	3565
3826.42	3619
3828.051	3558
3829.68	3629
3831.31	3559
3832.938	3495
3834.569	3580
3836.198	3504
3837.825	3492
3839.454	3588
3841.08	3529
3842.708	3526
3844.335	3457
3845.962	3580
3847.587	3555
3849.212	3558
3850.838	3517
3852.463	3484
3854.089	3406
3855.712	3543
3857.335	3514
3858.959	3496
3860.582	3454
3862.205	3563
3863.827	3499
3865.449	3449
3867.07	3479
3868.691	3471
3870.312	3486
3871.933	3460
3873.553	3453
3875.173	3442
3876.792	3394
3878.411	3426
3880.03	3566
3881.647	3479
3883.265	3448
3884.882	3417
3886.499	3421
3888.116	3481
3889.732	3380
3891.348	3534
3892.964	3394
3894.579	3395
3896.195	3418
3897.809	3387
3899.423	3410
3901.036	3417
3902.648	3416
3904.261	3361
3905.875	3474
3907.487	3420
3909.099	3416
3910.709	3329
3912.321	3448
3913.933	3372
3915.542	3418
3917.152	3411
3918.762	3335
3920.37	3352
3921.98	3388
3923.589	3375
3925.196	3403
3926.804	3364
3928.41	3302
3930.018	3406
3931.626	3369
3933.231	3351
3934.838	3389
3936.442	3323
3938.046	3336
3939.653	3405
3941.257	3433
3942.861	3342
3944.464	3325
3946.068	3401
3947.67	3326
3949.273	3316
3950.876	3295
3952.477	3353
3954.078	3395
3955.678	3331
3957.281	3367
3958.881	3320
3960.48	3343
3962.079	3239
3963.678	3270
3965.279	3291
3966.877	3351
3968.475	3315
3970.072	3340
3971.669	3292
3973.266	3255
3974.864	3235
3976.459	3246
3978.055	3272
3979.65	3328
3981.245	3310
3982.841	3296
3984.436	3295
3986.03	3284
3987.623	3258
3989.216	3163
3990.809	3212
3992.403	3193
3993.995	3196
3995.586	3225
3997.177	3182
3998.768	3166
4000.361	3244
4001.951	3227
4003.54	3137
4005.13	3169
4006.719	3186
4008.31	3216
4009.897	3129
4011.485	3153
4013.073	3210
4014.66	3166
4016.247	3169
4017.834	3204
4019.421	3179
4021.006	3126
4022.592	3214
4024.178	3201
4025.763	3145
4027.348	3127
4028.932	3146
4030.515	3142
4032.099	3172
4033.682	3131
4035.266	3140
4036.847	3155
4038.429	3163
4040.011	3059
4041.592	3204
4043.173	3080
4044.755	3139
4046.334	3040
4047.913	3058
4049.494	3086
4051.074	3091
4052.652	3082
4054.23	3052
4055.807	3090
4057.385	3045
4058.963	3046
4060.541	3092
4062.117	3090
4063.693	3009
4065.269	3111
4066.844	3060
4068.42	3015
4069.995	3021
4071.569	3061
4073.143	2916
4074.716	3046
4076.291	2988
4077.864	3089
4079.436	3033
4081.009	3094
4082.58	3006
4084.152	3070
4085.723	3053
4087.294	3045
4088.865	2991
4090.435	3007
4092.005	3008
4093.574	3072
4095.143	3015
4096.712	3001
4098.279	2977
4099.848	3009
4101.416	3056
4102.984	2971
4104.55	3016
4106.117	3098
4107.682	2951
4109.248	2968
4110.815	3009
4112.379	2944
4113.945	2975
4115.508	2962
4117.073	2958
4118.637	2979
4120.201	2944
4121.763	3002
4123.325	2914
4124.888	3003
4126.449	2882
4128.013	2904
4129.573	2946
4131.133	2897
4132.694	2902
4134.254	2906
4135.814	2909
4137.374	2871
4138.933	2924
4140.491	2867
4142.049	2933
4143.607	2921
4145.167	2882
4146.724	2891
4148.28	2887
4149.836	2820
4151.392	2934
4152.949	2845
4154.504	2822
4156.059	2834
4157.614	2901
4159.168	2845
4160.723	2811
4162.277	2869
4163.83	2834
4165.383	2909
4166.936	2753
4168.488	2863
4170.041	2848
4171.593	2813
4173.144	2832
4174.695	2811
4176.246	2838
4177.796	2899
4179.346	2769
4180.896	2808
4182.445	2772
4183.994	2839
4185.542	2826
4187.091	2787
4188.639	2764
4190.185	2786
4191.732	2803
4193.279	2770
4194.826	2736
4196.373	2845
4197.918	2810
4199.463	2740
4201.008	2717
4202.553	2791
4204.098	2814
4205.641	2703
4207.185	2780
4208.728	2733
4210.271	2765
4211.814	2717
4213.357	2760
4214.898	2774
4216.439	2759
4217.98	2755
4219.522	2795
4221.062	2746
4222.603	2759
4224.142	2784
4225.681	2708
4227.222	2798
4228.76	2710
4230.298	2702
4231.835	2713
4233.373	2701
4234.911	2713
4236.449	2741
4237.985	2721
4239.521	2665
4241.057	2694
4242.592	2643
4244.128	2675
4245.663	2778
4247.197	2722
4248.731	2738
4250.265	2657
4251.798	2723
4253.333	2657
4254.865	2697
4256.397	2615
4257.93	2759
4259.461	2670
4260.994	2707
4262.525	2629
4264.056	2688
4265.586	2645
4267.115	2647
4268.646	2651
4270.176	2687
4271.705	2661
4273.232	2656
4274.761	2611
4276.289	2667
4277.818	2656
4279.345	2645
4280.872	2650
4282.399	2628
4283.924	2595
4285.452	2683
4286.976	2569
4288.502	2653
4290.026	2683
4291.551	2635
4293.074	2687
4294.6	2594
4296.123	2603
4297.646	2563
4299.168	2629
4300.691	2656
4302.214	2659
4303.736	2621
4305.257	2600
4306.778	2567
4308.299	2646
4309.82	2577
4311.34	2620
4312.86	2528
4314.379	2591
