400.0745	5799
402.597	5898
405.1208	5793
407.6419	5789
410.1623	5863
412.6819	5926
415.201	5930
417.7172	6026
420.2369	6024
422.7538	6032
425.2701	6063
427.7856	6136
430.3005	6236
432.8147	6147
435.3282	6192
437.841	6275
440.3511	6179
442.8625	6186
445.3753	6265
447.8854	6267
450.3927	6342
452.9014	6184
455.4073	6340
457.9146	6329
460.4233	6202
462.9272	6143
465.4325	6214
467.935	6187
470.4389	6285
472.9421	6170
475.4446	6255
477.9444	6217
480.4456	6290
482.944	6280
485.4417	6411
487.9429	6284
490.4393	6351
492.935	6179
495.4321	6358
497.9264	6434
500.4221	6364
502.9171	6461
505.4094	6599
507.9011	6471
510.392	6523
512.8864	6462
515.3759	6530
517.8649	6548
520.3531	6409
522.8406	6504
525.3275	6555
527.8178	6438
530.3033	6497
532.7881	6578
535.2723	6514
537.7558	6545
540.2407	6534
542.7228	6441
545.2043	6431
547.6851	6504
550.1652	6621
552.6467	6575
555.1255	6611
557.6016	6480
560.079	6611
562.5557	6612
565.0318	6475
567.5092	6779
569.984	6766
572.456	6726
574.9294	6646
577.4022	6696
579.8762	6810
582.3456	6789
584.8163	6755
587.2863	6823
589.7557	6824
592.2224	6783
594.6924	6891
597.1578	6830
599.6245	6752
602.0905	6778
604.5538	6759
607.0206	6767
609.4825	6740
611.9459	6735
614.4066	6785
616.8686	6910
619.33	6759
621.7906	6836
624.2487	6738
626.708	6803
629.1647	6812
631.6207	6692
634.0801	6714
636.5348	6703
638.9888	6721
641.4442	6735
643.8969	6743
646.3509	6720
648.8022	6796
651.255	6880
653.705	6816
656.1544	6915
658.6031	6798
661.0532	6863
663.5026	6849
665.9493	6858
668.3954	6895
670.8409	6863
673.2877	6903
675.7318	6866
678.1752	6942
680.618	6982
683.0601	6943
685.5035	7089
687.9444	7030
690.3845	7058
692.824	7035
695.2628	6948
697.701	7167
700.1406	7022
702.5774	7014
705.0116	6957
707.4472	7058
709.8821	7093
712.3183	7075
714.7519	7101
717.1829	7300
719.6151	7087
722.0468	7115
724.4777	7241
726.908	7254
729.3377	7192
731.7667	7271
734.1931	7389
736.6208	7233
739.0498	7329
741.4742	7258
743.9	7448
746.3231	7431
748.7476	7398
751.1713	7475
753.5945	7397
756.015	7536
758.4368	7460
760.856	7499
763.2766	7358
765.6965	7578
768.1157	7588
770.5323	7505
772.9483	7493
775.3656	7565
777.7822	7514
780.1963	7534
782.6116	7529
785.0244	7556
787.4365	7511
789.8499	7561
792.2626	7557
794.6728	7450
797.0823	7534
799.4911	7563
801.8994	7442
804.3109	7523
806.7178	7699
809.124	7483
811.5297	7558
813.9347	7690
816.341	7711
818.7447	7499
821.1478	7830
823.5502	7636
825.952	7678
828.3531	7679
830.7556	7624
833.1554	7726
835.5546	7724
837.9532	7632
840.3511	7637
842.7504	7642
845.1451	7799
847.5411	7806
849.9365	7791
852.3312	7805
854.7272	7739
857.1187	7740
859.5115	7822
861.9037	7715
864.2952	7763
866.6842	7758
869.0764	7865
871.4661	7726
873.8531	7846
876.2415	7794
878.6272	7596
881.0162	7743
883.4026	7762
885.7866	7808
888.1717	7740
890.5543	7742
892.9382	7693
895.3215	7767
897.7041	7899
900.0842	7848
902.4655	7733
904.8443	7995
907.2244	7948
909.6039	7715
911.9808	7850
914.357	7886
916.7346	8058
919.1115	8127
921.4859	7928
923.8616	8203
926.2347	8060
928.6071	8058
930.979	8149
933.3541	8075
935.7247	8119
938.0946	8295
940.4639	8122
942.8326	8297
945.2026	8365
947.5701	8373
949.9369	8826
952.305	8955
954.6705	9102
957.0355	9526
959.4017	9762
961.7654	9943
964.1284	9856
966.4908	9875
968.8527	9387
971.2138	9140
973.5743	8655
975.9343	8531
978.2936	8239
980.6522	8135
983.0122	8167
985.3696	8080
987.7245	8103
990.0807	8036
992.4362	8017
994.7911	8036
997.1474	8016
999.4991	8159
1001.852	8072
1004.205	8149
1006.555	8075
1008.908	8130
1011.258	8066
1013.606	8056
1015.956	8072
1018.302	8032
1020.652	7994
1022.998	8227
1025.345	8167
1027.691	8199
1030.035	8348
1032.378	8170
1034.724	8190
1037.066	8176
1039.409	8189
1041.75	8122
1044.092	8173
1046.433	8309
1048.771	8222
1051.112	8253
1053.449	8285
1055.786	8327
1058.124	8232
1060.462	8263
1062.797	8292
1065.131	8282
1067.467	8280
1069.8	8399
1072.135	8441
1074.467	8404
1076.798	8433
1079.129	8422
1081.459	8309
1083.792	8254
1086.121	8283
1088.449	8196
1090.777	8150
1093.104	8332
1095.431	8321
1097.759	8299
1100.084	8256
1102.408	8155
1104.732	8156
1107.056	8336
1109.379	8309
1111.701	8341
1114.022	8286
1116.343	8122
1118.664	8213
1120.983	8249
1123.303	8322
1125.621	8358
1127.939	8241
1130.256	8195
1132.573	8230
1134.889	8237
1137.205	8330
1139.52	8248
1141.832	8162
1144.146	8166
1146.461	8334
1148.771	8114
1151.083	8210
1153.392	8358
1155.703	8328
1158.011	8340
1160.323	8276
1162.629	8303
1164.938	8131
1167.243	8353
1169.55	8129
1171.857	8306
1174.163	8254
1176.466	8251
1178.769	8185
1181.073	8267
1183.374	8305
1185.677	8299
1187.979	8143
1190.279	8216
1192.578	8313
1194.878	8178
1197.178	8194
1199.476	8264
1201.772	8225
1204.068	8254
1206.366	8261
1208.663	8424
1210.957	8272
1213.251	8355
1215.544	8356
1217.836	8230
1220.128	8424
1222.421	8262
1224.712	8311
1227.002	8460
1229.292	8350
1231.581	8306
1233.871	8450
1236.159	8526
1238.446	8483
1240.732	8525
1243.018	8593
1245.304	8624
1247.59	8567
1249.874	8740
1252.156	8679
1254.439	8512
1256.721	8594
1259.005	8548
1261.286	8663
1263.565	8544
1265.845	8573
1268.125	8555
1270.403	8621
1272.682	8559
1274.959	8567
1277.234	8590
1279.511	8612
1281.787	8558
1284.062	8573
1286.337	8506
1288.609	8484
1290.882	8312
1293.153	8506
1295.428	8506
1297.698	8476
1299.969	8311
1302.237	8376
1304.507	8508
1306.777	8536
1309.044	8335
1311.312	8399
1313.578	8486
1315.844	8521
1318.109	8407
1320.375	8360
1322.638	8378
1324.903	8409
1327.165	8500
1329.427	8417
1331.69	8412
1333.952	8417
1336.212	8349
1338.471	8415
1340.73	8227
1342.988	8411
1345.248	8342
1347.505	8443
1349.763	8465
1352.019	8431
1354.274	8454
1356.53	8466
1358.784	8425
1361.038	8374
1363.291	8349
1365.543	8548
1367.797	8406
1370.048	8425
1372.296	8320
1374.546	8505
1376.796	8400
1379.045	8455
1381.295	8545
1383.542	8461
1385.787	8348
1388.034	8341
1390.28	8449
1392.527	8639
1394.772	8541
1397.014	8491
1399.258	8490
1401.501	8477
1403.741	8501
1405.985	8513
1408.226	8430
1410.465	8599
1412.705	8532
1414.943	8626
1417.184	8618
1419.42	8542
1421.658	8681
1423.894	8699
1426.13	8645
1428.366	8507
1430.602	8742
1432.835	8677
1435.069	8682
1437.301	8679
1439.535	8669
1441.767	8813
1443.997	8786
1446.229	8772
1448.458	8649
1450.687	8840
1452.916	8769
1455.146	8875
1457.372	8787
1459.599	8769
1461.824	8885
1464.051	8861
1466.277	8737
1468.501	8823
1470.725	8705
1472.948	8706
1475.17	8782
1477.393	8551
1479.614	8583
1481.837	8579
1484.057	8491
1486.276	8527
1488.497	8525
1490.715	8525
1492.932	8518
1495.148	8470
1497.364	8401
1499.58	8321
1501.798	8306
1504.012	8344
1506.227	8340
1508.44	8287
1510.653	8288
1512.866	8439
1515.078	8447
1517.289	8338
1519.5	8333
1521.711	8282
1523.92	8407
1526.13	8285
1528.338	8433
1530.544	8397
1532.752	8290
1534.959	8438
1537.165	8390
1539.371	8535
1541.574	8494
1543.779	8492
1545.983	8366
1548.187	8546
1550.39	8620
1552.59	8415
1554.792	8564
1556.991	8512
1559.19	8481
1561.392	8439
1563.59	8504
1565.789	8579
1567.986	8558
1570.182	8463
1572.381	8497
1574.576	8572
1576.771	8484
1578.966	8560
1581.16	8639
1583.354	8694
1585.546	8582
1587.74	8653
1589.931	8608
1592.121	8691
1594.311	8687
1596.502	8691
1598.693	8666
1600.881	8562
1603.069	8687
1605.256	8659
1607.445	8502
1609.631	8669
1611.816	8600
1614.001	8787
1616.186	8733
1618.37	8692
1620.555	8627
1622.737	8701
1624.919	8737
1627.101	8673
1629.282	8774
1631.463	8795
1633.643	8731
1635.822	8745
1638.001	8724
1640.179	8765
1642.359	8782
1644.534	8737
1646.711	8773
1648.887	8872
1651.062	8691
1653.235	8954
1655.412	8814
1657.586	8778
1659.757	8777
1661.93	8653
1664.1	8789
1666.274	8879
1668.445	8766
1670.614	8790
1672.784	8849
1674.951	8846
1677.12	8802
1679.289	8893
1681.457	8776
1683.622	8813
1685.789	8788
1687.953	8816
1690.121	8898
1692.284	8874
1694.447	8754
1696.611	8721
1698.772	8687
1700.935	8691
1703.098	8643
1705.258	8674
1707.417	8602
1709.576	8617
1711.736	8534
1713.896	8516
1716.053	8615
1718.21	8406
1720.366	8592
1722.522	8503
1724.68	8567
1726.835	8539
1728.989	8591
1731.142	8528
1733.295	8605
1735.449	8655
1737.601	8595
1739.753	8537
1741.903	8604
1744.054	8528
1746.203	8590
1748.354	8653
1750.503	8671
1752.651	8589
1754.798	8651
1756.944	8594
1759.092	8630
1761.238	8766
1763.383	8690
1765.528	8648
1767.672	8678
1769.814	8676
1771.959	8572
1774.102	8665
1776.242	8629
1778.384	8665
1780.525	8663
1782.665	8602
1784.805	8586
1786.945	8617
1789.082	8678
1791.22	8767
1793.36	8653
1795.495	8623
1797.632	8749
1799.766	8612
1801.902	8632
1804.035	8651
1806.172	8680
1808.304	8856
1810.436	8694
1812.569	8560
1814.699	8676
1816.833	8695
1818.963	8642
1821.092	8697
1823.222	8623
1825.35	8496
1827.478	8604
1829.608	8562
1831.734	8634
1833.86	8683
1835.986	8516
1838.11	8632
1840.238	8543
1842.362	8540
1844.485	8501
1846.608	8742
1848.73	8503
1850.853	8565
1852.974	8399
1855.097	8546
1857.217	8477
1859.336	8550
1861.455	8506
1863.576	8543
1865.693	8617
1867.811	8528
1869.926	8573
1872.042	8593
1874.16	8535
1876.275	8576
1878.39	8473
1880.504	8547
1882.618	8667
1884.731	8462
1886.843	8653
1888.956	8659
1891.067	8606
1893.178	8638
1895.287	8689
1897.399	8603
1899.508	8640
1901.617	8713
1903.724	8663
1905.832	8623
1907.941	8621
1910.046	8718
1912.152	8680
1914.256	8670
1916.361	8692
1918.464	8737
1920.57	8570
1922.672	8760
1924.775	8603
1926.876	8583
1928.978	8710
1931.08	8854
1933.181	8756
1935.28	8793
1937.38	8582
1939.478	8677
1941.577	8697
1943.675	8641
1945.771	8701
1947.867	8734
1949.964	8699
1952.058	8774
1954.154	8630
1956.248	8687
1958.343	8646
1960.435	8685
1962.527	8689
1964.62	8735
1966.711	8544
1968.802	8676
1970.892	8537
1972.983	8658
1975.072	8575
1977.162	8501
1979.25	8640
1981.337	8690
1983.424	8627
1985.51	8527
1987.598	8581
1989.683	8603
1991.768	8661
1993.852	8582
1995.934	8497
1998.019	8593
2000.102	8506
2002.184	8559
2004.266	8659
2006.347	8607
2008.427	8493
2010.508	8615
2012.587	8504
2014.666	8413
2016.745	8566
2018.821	8550
2020.9	8607
2022.977	8490
2025.052	8596
2027.128	8374
2029.204	8548
2031.277	8643
2033.353	8645
2035.425	8546
2037.499	8488
2039.57	8558
2041.642	8453
2043.714	8638
2045.786	8667
2047.855	8576
2049.925	8552
2051.993	8522
2054.064	8504
2056.132	8556
2058.2	8513
2060.266	8576
2062.332	8606
2064.398	8591
2066.465	8587
2068.529	8483
2070.592	8564
2072.657	8587
2074.719	8608
2076.783	8590
2078.845	8678
2080.907	8623
2082.968	8531
2085.028	8597
2087.087	8597
2089.148	8654
2091.207	8583
2093.264	8446
2095.322	8635
2097.379	8613
2099.439	8560
2101.495	8590
2103.55	8497
2105.605	8460
2107.658	8593
2109.713	8615
2111.767	8546
2113.82	8474
2115.872	8501
2117.924	8417
2119.975	8394
2122.028	8479
2124.078	8545
2126.126	8476
2128.176	8457
2130.225	8547
2132.275	8433
2134.321	8613
2136.368	8539
2138.415	8451
2140.461	8580
2142.505	8640
2144.552	8561
2146.597	8399
2148.64	8578
2150.684	8485
2152.725	8568
2154.77	8427
2156.811	8464
2158.852	8471
2160.894	8450
2162.933	8441
2164.973	8511
2167.013	8389
2169.051	8335
2171.089	8415
2173.126	8480
2175.164	8374
2177.201	8360
2179.236	8259
2181.273	8365
2183.307	8333
2185.341	8336
2187.377	8242
2189.41	8246
2191.442	8440
2193.473	8346
2195.506	8312
2197.539	8320
2199.569	8322
2201.598	8450
2203.628	8226
2205.656	8308
2207.686	8182
2209.716	8339
2211.743	8334
2213.769	8377
2215.796	8193
2217.821	8258
2219.848	8264
2221.873	8324
2223.897	8065
2225.921	8168
2227.944	8286
2229.967	8271
2231.991	8199
2234.011	8256
2236.032	8224
2238.053	8185
2240.073	8214
2242.094	8189
2244.114	8317
2246.131	8253
2248.149	8192
2250.167	8146
2252.186	8260
2254.201	8252
2256.218	8255
2258.233	8288
2260.247	8157
2262.262	8252
2264.278	8273
2266.29	8246
2268.303	8371
2270.315	8325
2272.327	8185
2274.341	8196
2276.35	8184
2278.361	8169
2280.37	8218
2282.38	8222
2284.388	8262
2286.397	8262
2288.405	8236
2290.412	8197
2292.419	8286
2294.425	8156
2296.431	8191
2298.437	8301
2300.441	8144
2302.445	8141
2304.449	8160
2306.453	8187
2308.455	8249
2310.457	8196
2312.459	8157
2314.46	8162
2316.46	8223
2318.461	8144
2320.46	8262
2322.458	8096
2324.458	8072
2326.456	8172
2328.455	8164
2330.451	8171
2332.447	8074
2334.443	8075
2336.438	7969
2338.433	8098
2340.429	8062
2342.422	7841
2344.416	8015
2346.408	8059
2348.399	8047
2350.393	8064
2352.384	8017
2354.375	8077
2356.365	7972
2358.355	7895
2360.344	7934
2362.333	8128
2364.322	8063
2366.309	7988
2368.295	7976
2370.282	8040
2372.27	7913
2374.256	7887
2376.24	8094
2378.225	7890
2380.208	7992
2382.194	8008
2384.177	7920
2386.159	8046
2388.142	7990
2390.122	7993
2392.105	8037
2394.085	7874
2396.066	7826
2398.044	7876
2400.024	7952
2402.002	7740
2403.982	7840
2405.959	7975
2407.935	7977
2409.913	7702
2411.888	7883
2413.865	8024
2415.84	7848
2417.814	7840
2419.788	7917
2421.762	7906
2423.735	7823
2425.708	7786
2427.68	7916
2429.651	7893
2431.623	7890
2433.593	7792
2435.564	7986
2437.533	7893
2439.502	7927
2441.47	7969
2443.438	7830
2445.406	7854
2447.373	7687
2449.34	7881
2451.305	7834
2453.271	7842
2455.235	7824
2457.201	7928
2459.165	7713
2461.129	7749
2463.092	7687
2465.054	7830
2467.018	7783
2468.978	7815
2470.939	7705
2472.899	7732
2474.86	7841
2476.819	7758
2478.778	7803
2480.737	7727
2482.695	7670
2484.653	7783
2486.609	7680
2488.567	7803
2490.524	7658
2492.478	7789
2494.433	7793
2496.387	7696
2498.343	7655
2500.297	7640
2502.249	7691
2504.202	7731
2506.153	7750
2508.105	7729
2510.057	7784
2512.008	7662
2513.957	7659
2515.906	7584
2517.855	7696
2519.805	7722
2521.754	7650
2523.7	7701
2525.647	7732
2527.594	7679
2529.54	7729
2531.486	7738
2533.431	7684
2535.376	7630
2537.32	7621
2539.263	7582
2541.207	7654
2543.151	7748
2545.093	7802
2547.034	7694
2548.975	7759
2550.917	7651
2552.856	7599
2554.796	7645
2556.735	7784
2558.673	7565
2560.611	7569
2562.55	7553
2564.487	7771
2566.424	7534
2568.36	7613
2570.296	7605
2572.232	7666
2574.167	7703
2576.101	7504
2578.035	7696
2579.969	7602
2581.902	7681
2583.834	7595
2585.766	7721
2587.698	7672
2589.628	7568
2591.557	7544
2593.489	7675
2595.419	7637
2597.348	7578
2599.275	7666
2601.204	7630
2603.131	7686
2605.059	7747
2606.986	7566
2608.911	7642
2610.837	7695
2612.76	7587
2614.687	7637
2616.61	7623
2618.534	7616
2620.457	7605
2622.38	7693
2624.302	7526
2626.225	7733
2628.145	7689
2630.067	7655
2631.986	7664
2633.906	7676
2635.827	7621
2637.745	7621
2639.662	7710
2641.581	7653
2643.498	7563
2645.415	7608
2647.331	7586
2649.248	7687
2651.163	7583
2653.077	7609
2654.993	7697
2656.906	7601
2658.821	7606
2660.733	7626
2662.646	7619
2664.557	7518
2666.47	7799
2668.381	7592
2670.291	7700
2672.201	7519
2674.11	7576
2676.021	7669
2677.929	7535
2679.837	7598
2681.745	7575
2683.652	7562
2685.56	7517
2687.466	7463
2689.371	7459
2691.276	7470
2693.181	7483
2695.085	7418
2696.991	7576
2698.893	7524
2700.796	7442
2702.698	7414
2704.601	7372
2706.502	7440
2708.404	7436
2710.304	7389
2712.203	7479
2714.103	7559
2716.003	7515
2717.902	7348
2719.8	7431
2721.697	7303
2723.594	7384
2725.49	7376
2727.389	7433
2729.283	7415
2731.179	7378
2733.073	7368
2734.968	7435
2736.863	7423
2738.757	7380
2740.649	7427
2742.541	7395
2744.433	7427
2746.324	7421
2748.216	7374
2750.107	7450
2751.997	7439
2753.886	7336
2755.776	7323
2757.666	7497
2759.553	7314
2761.44	7267
2763.327	7480
2765.215	7310
2767.102	7266
2768.988	7359
2770.873	7257
2772.757	7450
2774.641	7309
2776.525	7461
2778.41	7370
2780.292	7368
2782.175	7343
2784.057	7312
2785.938	7266
2787.821	7233
2789.701	7301
2791.581	7351
2793.461	7226
2795.34	7218
2797.219	7315
2799.099	7277
2800.975	7258
2802.853	7297
2804.73	7278
2806.606	7298
2808.484	7256
2810.358	7252
2812.233	7304
2814.108	7242
2815.981	7236
2817.857	7185
2819.73	7209
2821.602	7378
2823.474	7319
2825.346	7368
2827.217	7251
2829.089	7242
2830.959	7184
2832.829	7235
2834.698	7197
2836.567	7197
2838.436	7300
2840.305	7220
2842.172	7295
2844.04	7275
2845.905	7234
2847.772	7365
2849.639	7347
2851.503	7270
2853.369	7230
2855.232	7354
2857.096	7234
2858.961	7356
2860.824	7301
2862.686	7298
2864.547	7495
2866.41	7316
2868.272	7450
2870.132	7471
2871.992	7711
2873.851	7572
2875.711	7587
2877.57	7603
2879.429	7647
2881.287	7825
2883.144	7821
2885.001	7626
2886.857	7711
2888.714	7622
2890.57	7765
2892.425	7726
2894.279	7758
2896.133	7725
2897.987	7577
2899.842	7736
2901.694	7742
2903.547	7684
2905.397	7660
2907.249	7631
2909.101	7752
2910.952	7587
2912.802	7731
2914.652	7783
2916.5	7755
2918.35	7897
2920.198	7982
2922.045	7953
2923.893	8096
2925.74	8126
2927.585	8124
2929.433	8271
2931.279	8265
2933.123	8378
2934.968	8346
2936.811	8526
2938.656	8600
2940.5	8412
2942.342	8706
2944.185	8554
2946.026	8587
2947.87	8623
2949.71	8752
2951.549	8409
2953.39	8501
2955.229	8479
2957.069	8477
2958.908	8324
2960.746	8236
2962.584	8092
2964.421	8052
2966.257	8069
2968.094	8020
2969.931	7913
2971.766	7929
2973.601	7930
2975.435	7915
2977.27	7846
2979.105	7892
2980.938	7987
2982.77	7883
2984.602	7832
2986.434	7698
2988.267	7834
2990.097	7622
2991.927	7649
2993.757	7708
2995.587	7611
2997.417	7594
2999.246	7617
3001.074	7452
3002.902	7331
3004.729	7261
3006.556	7331
3008.384	7227
3010.21	7195
3012.036	7072
3013.861	7081
3015.684	7044
3017.51	6951
3019.334	6899
3021.157	6908
3022.981	6960
3024.802	6883
3026.624	6890
3028.448	6874
3030.267	6899
3032.088	6754
3033.909	6901
3035.728	6785
3037.549	6763
3039.368	6800
3041.186	6754
3043.004	6753
3044.821	6856
3046.64	6735
3048.455	6734
3050.272	6751
3052.087	6856
3053.903	6781
3055.717	6707
3057.534	6795
3059.347	6735
3061.16	6636
3062.974	6660
3064.785	6692
3066.598	6692
3068.411	6596
3070.222	6680
3072.032	6651
3073.844	6736
3075.653	6579
3077.463	6714
3079.272	6608
3081.08	6628
3082.889	6779
3084.697	6641
3086.505	6590
3088.312	6578
3090.118	6632
3091.924	6489
3093.729	6638
3095.535	6486
3097.34	6588
3099.144	6530
3100.947	6415
3102.75	6633
3104.553	6473
3106.357	6568
3108.159	6427
3109.961	6578
3111.762	6595
3113.562	6444
3115.365	6468
3117.164	6531
3118.964	6424
3120.761	6454
3122.56	6485
3124.36	6451
3126.158	6473
3127.954	6342
3129.75	6348
3131.547	6451
3133.343	6305
3135.139	6518
3136.934	6344
3138.729	6417
3140.522	6465
3142.317	6441
3144.11	6307
3145.904	6362
3147.695	6319
3149.488	6403
3151.28	6347
3153.07	6287
3154.863	6319
3156.652	6300
3158.441	6350
3160.231	6315
3162.019	6255
3163.81	6220
3165.597	6378
3167.384	6325
3169.172	6320
3170.958	6240
3172.745	6169
3174.532	6331
3176.317	6291
3178.101	6212
3179.885	6318
3181.67	6233
3183.455	6493
3185.238	6294
3187.02	6180
3188.802	6244
3190.585	6179
3192.368	6193
3194.149	6262
3195.929	6160
3197.709	6176
3199.489	6344
3201.268	6215
3203.048	6210
3204.826	6285
3206.604	6239
3208.382	6289
3210.159	6143
3211.937	6269
3213.713	6155
3215.489	6253
3217.263	6130
3219.038	6160
3220.815	6305
3222.589	6173
3224.363	6203
3226.136	6157
3227.908	6196
3229.681	6229
3231.454	6183
3233.226	6093
3234.996	6097
3236.767	6275
3238.538	6100
3240.308	6127
3242.078	6169
3243.847	6134
3245.615	6221
3247.384	6123
3249.15	6196
3250.92	6010
3252.686	6162
3254.453	6203
3256.218	6193
3257.984	6147
3259.75	6141
3261.515	6209
3263.279	6257
3265.044	6108
3266.806	6143
3268.57	6113
3270.334	6283
3272.095	6145
3273.856	6116
3275.619	6209
3277.379	6110
3279.14	6159
3280.9	6143
3282.661	6158
3284.419	6177
3286.178	6171
3287.937	6217
3289.695	6031
3291.453	6143
3293.21	6155
3294.967	6134
3296.723	6193
3298.48	6137
3300.235	6225
3301.99	6117
3303.744	6152
3305.498	6144
3307.253	6206
3309.006	6089
3310.759	6207
3312.511	6121
3314.263	6085
3316.017	6090
3317.768	6141
3319.519	6212
3321.268	6199
3323.018	6128
3324.767	6093
3326.518	6199
3328.267	6104
3330.014	6094
3331.762	6072
3333.509	6253
3335.258	6062
3337.003	6072
3338.75	6136
3340.496	6046
3342.24	6107
3343.987	6127
3345.732	6067
3347.475	6011
3349.219	5999
3350.961	6086
3352.705	6006
3354.448	6112
3356.19	5992
3357.931	5964
3359.672	6022
3361.412	6046
3363.155	5983
3364.894	6116
3366.633	5957
3368.372	5951
3370.11	5968
3371.849	5951
3373.588	5999
3375.325	5983
3377.061	6021
3378.799	5860
3380.534	5964
3382.271	5946
3384.006	5958
3385.741	5971
3387.475	5891
3389.209	5923
3390.944	5888
3392.677	5949
3394.409	5828
3396.143	5948
3397.874	5965
3399.606	5865
3401.338	5945
3403.069	5885
3404.799	5839
3406.528	5885
3408.258	5794
3409.988	5785
3411.717	5810
3413.445	5796
3415.173	5790
3416.899	5804
3418.626	5838
3420.354	5837
3422.08	5879
3423.806	5875
3425.531	5744
3427.255	5708
3428.981	5865
3430.705	5757
3432.429	5828
3434.151	5816
3435.875	5776
3437.599	5761
3439.321	5622
3441.042	5668
3442.763	5736
3444.483	5687
3446.204	5663
3447.926	5776
3449.645	5529
3451.364	5720
3453.082	5687
3454.801	5821
3456.52	5676
3458.238	5609
3459.954	5596
3461.671	5630
3463.387	5544
3465.104	5563
3466.82	5562
3468.534	5667
3470.25	5595
3471.963	5609
3473.676	5500
3475.392	5636
3477.104	5579
3478.817	5492
3480.528	5578
3482.241	5535
3483.954	5581
3485.664	5585
3487.374	5508
3489.084	5575
3490.795	5431
3492.504	5544
3494.214	5517
3495.922	5543
3497.63	5413
3499.338	5473
3501.045	5478
3502.753	5468
3504.459	5288
3506.166	5462
3507.871	5366
3509.576	5299
3511.283	5466
3512.987	5422
3514.691	5395
3516.395	5306
3518.098	5422
3519.8	5392
3521.504	5346
3523.206	5447
3524.908	5369
3526.609	5424
3528.309	5396
3530.011	5425
3531.711	5356
3533.411	5386
3535.109	5262
3536.808	5240
3538.507	5340
3540.206	5308
3541.904	5356
3543.601	5273
3545.297	5336
3546.994	5261
3548.69	5271
3550.387	5247
3552.081	5250
3553.776	5201
3555.47	5352
3557.166	5201
3558.859	5189
3560.553	5221
3562.245	5113
3563.938	5315
3565.629	5250
3567.322	5207
3569.014	5223
3570.704	5158
3572.394	5277
3574.084	5181
3575.775	5240
3577.464	5226
3579.152	5137
3580.842	5234
3582.529	5125
3584.216	5167
3585.905	5205
3587.591	5102
3589.279	5108
3590.964	5068
3592.649	5144
3594.336	5164
3596.021	5155
3597.705	5095
3599.388	4995
3601.072	5078
3602.757	5089
3604.439	5012
3606.122	5038
3607.803	5014
3609.485	5081
3611.167	4986
3612.849	5066
3614.529	5069
3616.208	5046
3617.888	4895
3619.567	5011
3621.247	5051
3622.926	4998
3624.603	5045
3626.281	4905
3627.958	4907
3629.635	4904
3631.312	4981
3632.989	4893
3634.665	4969
3636.339	4824
3638.014	4854
3639.691	4895
3641.364	4881
3643.038	4825
3644.71	4855
3646.384	4894
3648.058	4817
3649.729	4850
3651.402	4889
3653.073	4797
3654.744	4869
3656.414	4835
3658.085	4740
3659.755	4861
3661.424	4903
3663.094	4826
3664.762	4760
3666.431	4819
3668.099	4822
3669.766	4732
3671.433	4730
3673.099	4618
3674.768	4752
3676.433	4739
3678.098	4762
3679.763	4732
3681.428	4713
3683.093	4806
3684.757	4704
3686.421	4701
3688.083	4649
3689.746	4720
3691.408	4775
3693.071	4752
3694.733	4703
3696.394	4665
3698.054	4746
3699.715	4742
3701.375	4733
3703.036	4756
3704.695	4671
3706.354	4714
3708.012	4670
3709.67	4712
3711.329	4667
3712.987	4738
3714.644	4766
3716.299	4634
3717.955	4687
3719.613	4675
3721.268	4493
3722.923	4644
3724.577	4595
3726.231	4690
3727.885	4627
3729.539	4716
3731.192	4572
3732.845	4573
3734.497	4721
3736.149	4617
3737.802	4531
3739.453	4658
3741.104	4608
3742.753	4512
3744.404	4610
3746.052	4577
3747.704	4617
3749.352	4557
3751	4615
3752.648	4531
3754.296	4547
3755.944	4420
3757.59	4560
3759.238	4524
3760.883	4607
3762.528	4615
3764.176	4578
3765.82	4533
3767.464	4486
3769.109	4552
3770.753	4486
3772.396	4466
3774.04	4440
3775.683	4495
3777.325	4509
3778.967	4582
3780.608	4506
3782.25	4482
3783.89	4436
3785.531	4500
3787.17	4498
3788.81	4413
3790.45	4442
3792.09	4437
3793.729	4390
3795.366	4350
3797.003	4473
3798.64	4370
3800.278	4399
3801.915	4461
3803.551	4431
3805.187	4349
3806.822	4411
3808.458	4383
3810.093	4347
3811.726	4331
3813.36	4410
3814.994	4337
3816.627	4438
3818.262	4433
3819.893	4344
3821.525	4359
3823.157	4369
3824.787	4376
3826.42	4416
3828.051	4369
3829.68	4312
3831.31	4408
3832.938	4340
3834.569	4340
3836.198	4274
3837.825	4373
3839.454	4341
3841.08	4264
3842.708	4381
3844.335	4283
3845.962	4325
3847.587	4294
3849.212	4353
3850.838	4362
3852.463	4329
3854.089	4325
3855.712	4301
3857.335	4320
3858.959	4279
3860.582	4366
3862.205	4156
3863.827	4290
3865.449	4294
3867.07	4248
3868.691	4241
3870.312	4225
3871.933	4280
3873.553	4322
3875.173	4292
3876.792	4211
3878.411	4201
3880.03	4184
3881.647	4174
3883.265	4191
3884.882	4265
3886.499	4214
3888.116	4170
3889.732	4164
3891.348	4169
3892.964	4214
3894.579	4068
3896.195	4266
3897.809	4241
3899.423	4176
3901.036	4157
3902.648	4177
3904.261	4186
3905.875	4186
3907.487	4086
3909.099	4234
3910.709	4162
3912.321	4196
3913.933	4215
3915.542	4140
3917.152	4156
3918.762	4123
3920.37	4215
3921.98	4211
3923.589	4098
3925.196	4082
3926.804	4233
3928.41	4179
3930.018	4128
3931.626	4121
3933.231	4130
3934.838	4057
3936.442	4043
3938.046	4105
3939.653	4073
3941.257	4067
3942.861	4136
3944.464	4060
3946.068	4090
3947.67	4089
3949.273	4068
3950.876	4129
3952.477	4027
3954.078	4090
3955.678	4053
3957.281	4160
3958.881	4167
3960.48	4057
3962.079	3995
3963.678	3999
3965.279	4090
3966.877	4075
3968.475	4088
3970.072	4047
3971.669	3969
3973.266	3985
3974.864	3955
3976.459	4025
3978.055	3981
3979.65	3974
3981.245	4005
3982.841	3955
3984.436	4009
3986.03	3929
3987.623	4018
3989.216	3928
3990.809	3950
3992.403	3966
3993.995	3949
3995.586	3968
3997.177	3946
3998.768	3946
4000.361	3931
4001.951	3999
4003.54	3875
4005.13	3841
4006.719	3932
4008.31	3920
4009.897	3887
4011.485	3824
4013.073	3835
4014.66	3841
4016.247	3875
4017.834	3882
4019.421	3861
4021.006	3803
4022.592	3784
4024.178	3868
4025.763	3872
4027.348	3825
4028.932	3784
4030.515	3694
4032.099	3787
4033.682	3825
4035.266	3727
4036.847	3795
4038.429	3841
4040.011	3839
4041.592	3733
4043.173	3780
4044.755	3726
4046.334	3788
4047.913	3744
4049.494	3698
4051.074	3742
4052.652	3803
4054.23	3768
4055.807	3731
4057.385	3723
4058.963	3780
4060.541	3694
4062.117	3757
4063.693	3775
4065.269	3691
4066.844	3739
4068.42	3726
4069.995	3807
4071.569	3643
4073.143	3670
4074.716	3737
4076.291	3710
4077.864	3674
4079.436	3771
4081.009	3681
4082.58	3804
4084.152	3665
4085.723	3805
4087.294	3708
4088.865	3701
4090.435	3654
4092.005	3727
4093.574	3693
4095.143	3640
4096.712	3576
4098.279	3605
4099.848	3613
4101.416	3645
4102.984	3715
4104.55	3678
4106.117	3591
4107.682	3637
4109.248	3627
4110.815	3644
4112.379	3630
4113.945	3602
4115.508	3617
4117.073	3631
4118.637	3600
4120.201	3526
4121.763	3620
4123.325	3607
4124.888	3569
4126.449	3511
4128.013	3524
4129.573	3644
4131.133	3542
4132.694	3543
4134.254	3537
4135.814	3501
4137.374	3539
4138.933	3590
4140.491	3596
4142.049	3575
4143.607	3591
4145.167	3514
4146.724	3483
4148.28	3496
4149.836	3432
4151.392	3516
4152.949	3533
4154.504	3504
4156.059	3438
4157.614	3439
4159.168	3501
4160.723	3477
4162.277	3456
4163.83	3482
4165.383	3507
4166.936	3523
4168.488	3456
4170.041	3472
4171.593	3350
4173.144	3423
4174.695	3418
4176.246	3389
4177.796	3474
4179.346	3402
4180.896	3449
4182.445	3448
4183.994	3430
4185.542	3297
4187.091	3398
4188.639	3396
4190.185	3389
4191.732	3366
4193.279	3391
4194.826	3362
4196.373	3358
4197.918	3491
4199.463	3421
4201.008	3392
4202.553	3385
4204.098	3378
4205.641	3315
4207.185	3280
4208.728	3360
4210.271	3363
4211.814	3331
4213.357	3327
4214.898	3298
4216.439	3375
4217.98	3300
4219.522	3401
4221.062	3296
4222.603	3284
4224.142	3254
4225.681	3349
4227.222	3295
4228.76	3243
4230.298	3354
4231.835	3330
4233.373	3398
4234.911	3311
4236.449	3283
4237.985	3262
4239.521	3355
4241.057	3295
4242.592	3284
4244.128	3328
4245.663	3309
4247.197	3346
4248.731	3323
4250.265	3322
4251.798	3333
4253.333	3316
4254.865	3249
4256.397	3277
4257.93	3218
4259.461	3295
4260.994	3258
4262.525	3290
4264.056	3319
4265.586	3235
4267.115	3233
4268.646	3263
4270.176	3307
4271.705	3238
4273.232	3198
4274.761	3182
4276.289	3230
4277.818	3242
4279.345	3180
4280.872	3226
4282.399	3206
4283.924	3210
4285.452	3163
4286.976	3239
4288.502	3194
4290.026	3171
4291.551	3256
4293.074	3211
4294.6	3160
4296.123	3128
4297.646	3150
4299.168	3172
4300.691	3144
4302.214	3104
4303.736	3078
4305.257	3171
4306.778	3126
4308.299	3145
4309.82	3091
4311.34	3138
4312.86	3076
4314.379	3149
