400.0745	4103
402.597	4010
405.1208	4127
407.6419	3960
410.1623	4089
412.6819	3995
415.201	4077
417.7172	4173
420.2369	4222
422.7538	4167
425.2701	4142
427.7856	4259
430.3005	4384
432.8147	4376
435.3282	4342
437.841	4138
440.3511	4195
442.8625	4288
445.3753	4249
447.8854	4229
450.3927	4323
452.9014	4374
455.4073	4223
457.9146	4327
460.4233	4292
462.9272	4358
465.4325	4291
467.935	4371
470.4389	4368
472.9421	4322
475.4446	4305
477.9444	4341
480.4456	4389
482.944	4296
485.4417	4369
487.9429	4491
490.4393	4316
492.935	4469
495.4321	4415
497.9264	4411
500.4221	4453
502.9171	4459
505.4094	4383
507.9011	4505
510.392	4505
512.8864	4439
515.3759	4500
517.8649	4530
520.3531	4439
522.8406	4516
525.3275	4530
527.8178	4462
530.3033	4454
532.7881	4574
535.2723	4482
537.7558	4529
540.2407	4565
542.7228	4492
545.2043	4453
547.6851	4487
550.1652	4531
552.6467	4524
555.1255	4595
557.6016	4496
560.079	4445
562.5557	4585
565.0318	4594
567.5092	4612
569.984	4616
572.456	4605
574.9294	4612
577.4022	4658
579.8762	4733
582.3456	4737
584.8163	4633
587.2863	4693
589.7557	4722
592.2224	4771
594.6924	4612
597.1578	4639
599.6245	4511
602.0905	4628
604.5538	4700
607.0206	4626
609.4825	4655
611.9459	4588
614.4066	4639
616.8686	4761
619.33	4668
621.7906	4670
624.2487	4675
626.708	4593
629.1647	4669
631.6207	4599
634.0801	4642
636.5348	4680
638.9888	4654
641.4442	4716
643.8969	4697
646.3509	4695
648.8022	4689
651.255	4686
653.705	4720
656.1544	4792
658.6031	4862
661.0532	4829
663.5026	4774
665.9493	4746
668.3954	4786
670.8409	4809
673.2877	4766
675.7318	4810
678.1752	4792
680.618	4744
683.0601	4772
685.5035	4904
687.9444	4882
690.3845	4868
692.824	4944
695.2628	4776
697.701	4899
700.1406	4882
702.5774	4893
705.0116	4872
707.4472	4882
709.8821	4837
712.3183	5026
714.7519	4932
717.1829	5036
719.6151	5104
722.0468	5036
724.4777	5002
726.908	4947
729.3377	4966
731.7667	5051
734.1931	5106
736.6208	5095
739.0498	4974
741.4742	4993
743.9	4955
746.3231	4975
748.7476	5047
751.1713	5128
753.5945	5092
756.015	5074
758.4368	5127
760.856	5119
763.2766	5251
765.6965	5168
768.1157	5137
770.5323	5100
772.9483	5089
775.3656	5197
777.7822	5194
780.1963	5189
782.6116	5300
785.0244	5256
787.4365	5258
789.8499	5243
792.2626	5212
794.6728	5191
797.0823	5226
799.4911	5188
801.8994	5283
804.3109	5305
806.7178	5210
809.124	5150
811.5297	5303
813.9347	5280
816.341	5237
818.7447	5284
821.1478	5360
823.5502	5249
825.952	5218
828.3531	5263
830.7556	5258
833.1554	5279
835.5546	5256
837.9532	5275
840.3511	5289
842.7504	5354
845.1451	5283
847.5411	5378
849.9365	5300
852.3312	5382
854.7272	5320
857.1187	5354
859.5115	5441
861.9037	5313
864.2952	5314
866.6842	5388
869.0764	5316
871.4661	5365
873.8531	5290
876.2415	5385
878.6272	5435
881.0162	5297
883.4026	5388
885.7866	5298
888.1717	5279
890.5543	5344
892.9382	5317
895.3215	5379
897.7041	5432
900.0842	5351
902.4655	5382
904.8443	5355
907.2244	5429
909.6039	5437
911.9808	5330
914.357	5544
916.7346	5429
919.1115	5532
921.4859	5545
923.8616	5620
926.2347	5586
928.6071	5415
930.979	5547
933.3541	5607
935.7247	5545
938.0946	5530
940.4639	5740
942.8326	5752
945.2026	5711
947.5701	5825
949.9369	5866
952.305	5875
954.6705	6102
957.0355	6263
959.4017	6353
961.7654	6429
964.1284	6330
966.4908	6410
968.8527	6181
971.2138	6010
973.5743	5862
975.9343	5857
978.2936	5584
980.6522	5578
983.0122	5691
985.3696	5488
987.7245	5517
990.0807	5501
992.4362	5526
994.7911	5522
997.1474	5500
999.4991	5657
1001.852	5510
1004.205	5490
1006.555	5513
1008.908	5543
1011.258	5543
1013.606	5584
1015.956	5450
1018.302	5521
1020.652	5597
1022.998	5583
1025.345	5636
1027.691	5604
1030.035	5594
1032.378	5572
1034.724	5616
1037.066	5624
1039.409	5621
1041.75	5582
1044.092	5646
1046.433	5598
1048.771	5614
1051.112	5686
1053.449	5693
1055.786	5719
1058.124	5605
1060.462	5683
1062.797	5726
1065.131	5644
1067.467	5694
1069.8	5713
1072.135	5651
1074.467	5723
1076.798	5656
1079.129	5713
1081.459	5662
1083.792	5693
1086.121	5723
1088.449	5593
1090.777	5681
1093.104	5603
1095.431	5640
1097.759	5604
1100.084	5660
1102.408	5591
1104.732	5661
1107.056	5657
1109.379	5765
1111.701	5701
1114.022	5729
1116.343	5654
1118.664	5626
1120.983	5749
1123.303	5808
1125.621	5666
1127.939	5717
1130.256	5574
1132.573	5736
1134.889	5812
1137.205	5717
1139.52	5639
1141.832	5691
1144.146	5748
1146.461	5731
1148.771	5626
1151.083	5754
1153.392	5782
1155.703	5738
1158.011	5669
1160.323	5647
1162.629	5690
1164.938	5680
1167.243	5740
1169.55	5802
1171.857	5648
1174.163	5723
1176.466	5793
1178.769	5745
1181.073	5805
1183.374	5701
1185.677	5639
1187.979	5687
1190.279	5698
1192.578	5781
1194.878	5785
1197.178	5827
1199.476	5703
1201.772	5799
1204.068	5667
1206.366	5743
1208.663	5769
1210.957	5730
1213.251	5722
1215.544	5643
1217.836	5775
1220.128	5739
1222.421	5810
1224.712	5754
1227.002	5772
1229.292	5794
1231.581	5826
1233.871	5813
1236.159	5874
1238.446	5886
1240.732	5902
1243.018	5887
1245.304	5933
1247.59	5898
1249.874	5901
1252.156	5836
1254.439	5906
1256.721	5978
1259.005	5922
1261.286	5895
1263.565	5834
1265.845	5842
1268.125	5948
1270.403	5864
1272.682	5839
1274.959	5880
1277.234	6000
1279.511	5844
1281.787	5907
1284.062	5878
1286.337	5890
1288.609	5772
1290.882	5761
1293.153	5755
1295.428	5806
1297.698	5861
1299.969	5870
1302.237	5959
1304.507	5822
1306.777	5882
1309.044	5853
1311.312	5849
1313.578	5861
1315.844	5778
1318.109	5739
1320.375	5868
1322.638	5865
1324.903	5764
1327.165	5782
1329.427	5818
1331.69	5877
1333.952	5892
1336.212	5766
1338.471	5806
1340.73	5806
1342.988	5777
1345.248	5831
1347.505	5836
1349.763	5812
1352.019	5825
1354.274	5784
1356.53	5946
1358.784	5817
1361.038	5830
1363.291	5807
1365.543	5788
1367.797	5862
1370.048	5726
1372.296	5844
1374.546	5793
1376.796	5827
1379.045	5963
1381.295	5844
1383.542	5857
1385.787	5849
1388.034	5842
1390.28	5899
1392.527	5910
1394.772	5894
1397.014	5833
1399.258	5993
1401.501	6021
1403.741	6002
1405.985	5951
1408.226	5921
1410.465	5869
1412.705	5983
1414.943	5974
1417.184	5954
1419.42	6041
1421.658	5964
1423.894	6010
1426.13	5984
1428.366	5985
1430.602	5994
1432.835	6021
1435.069	6020
1437.301	6024
1439.535	5965
1441.767	5995
1443.997	6075
1446.229	6008
1448.458	6081
1450.687	6140
1452.916	6137
1455.146	6110
1457.372	6078
1459.599	6108
1461.824	6089
1464.051	6104
1466.277	6067
1468.501	6019
1470.725	6014
1472.948	5958
1475.17	5949
1477.393	5948
1479.614	5869
1481.837	6031
1484.057	5926
1486.276	5862
1488.497	5857
1490.715	5813
1492.932	5960
1495.148	5925
1497.364	5930
1499.58	5891
1501.798	5911
1504.012	5776
1506.227	5882
1508.44	5937
1510.653	5826
1512.866	5846
1515.078	5812
1517.289	5828
1519.5	5865
1521.711	5836
1523.92	5730
1526.13	5862
1528.338	5795
1530.544	5816
1532.752	5843
1534.959	5787
1537.165	5774
1539.371	5894
1541.574	5833
1543.779	5874
1545.983	5956
1548.187	5910
1550.39	5844
1552.59	5891
1554.792	5859
1556.991	5829
1559.19	5854
1561.392	5973
1563.59	5930
1565.789	5947
1567.986	5863
1570.182	5942
1572.381	5867
1574.576	5911
1576.771	5918
1578.966	5993
1581.16	5972
1583.354	6021
1585.546	5969
1587.74	5984
1589.931	6152
1592.121	6026
1594.311	6030
1596.502	5933
1598.693	5948
1600.881	6014
1603.069	6037
1605.256	6089
1607.445	5966
1609.631	6013
1611.816	5895
1614.001	6062
1616.186	6147
1618.37	6059
1620.555	6047
1622.737	6077
1624.919	6016
1627.101	6068
1629.282	6028
1631.463	6117
1633.643	6043
1635.822	6173
1638.001	6150
1640.179	6040
1642.359	6049
1644.534	6113
1646.711	6137
1648.887	6052
1651.062	6113
1653.235	5990
1655.412	6218
1657.586	6004
1659.757	6165
1661.93	6145
1664.1	6163
1666.274	6019
1668.445	6091
1670.614	6085
1672.784	6198
1674.951	6105
1677.12	6101
1679.289	6022
1681.457	6078
1683.622	6090
1685.789	6208
1687.953	6138
1690.121	5982
1692.284	5970
1694.447	6037
1696.611	5987
1698.772	6089
1700.935	6019
1703.098	5970
1705.258	5993
1707.417	5929
1709.576	5928
1711.736	5994
1713.896	6006
1716.053	5925
1718.21	6060
1720.366	5958
1722.522	5942
1724.68	5927
1726.835	6037
1728.989	5985
1731.142	6033
1733.295	5900
1735.449	5989
1737.601	6025
1739.753	6124
1741.903	5916
1744.054	5839
1746.203	5998
1748.354	6093
1750.503	5995
1752.651	5921
1754.798	5961
1756.944	6043
1759.092	5949
1761.238	5976
1763.383	5941
1765.528	6029
1767.672	6074
1769.814	6083
1771.959	5988
1774.102	6122
1776.242	6011
1778.384	5988
1780.525	6008
1782.665	6027
1784.805	5946
1786.945	6143
1789.082	6008
1791.22	5998
1793.36	6054
1795.495	6026
1797.632	6007
1799.766	5969
1801.902	5995
1804.035	5954
1806.172	6040
1808.304	6010
1810.436	6019
1812.569	5973
1814.699	6107
1816.833	5955
1818.963	5945
1821.092	6095
1823.222	6016
1825.35	6090
1827.478	6035
1829.608	6049
1831.734	6079
1833.86	6099
1835.986	5949
1838.11	6003
1840.238	5940
1842.362	6007
1844.485	5941
1846.608	6038
1848.73	6016
1850.853	6062
1852.974	5986
1855.097	5981
1857.217	5964
1859.336	5976
1861.455	6045
1863.576	5872
1865.693	5948
1867.811	6020
1869.926	6006
1872.042	6012
1874.16	6089
1876.275	5856
1878.39	5945
1880.504	5969
1882.618	6002
1884.731	5960
1886.843	5902
1888.956	6062
1891.067	5962
1893.178	5891
1895.287	6045
1897.399	6096
1899.508	5952
1901.617	6113
1903.724	5968
1905.832	6021
1907.941	5917
1910.046	5963
1912.152	6042
1914.256	6050
1916.361	6035
1918.464	6116
1920.57	6019
1922.672	6098
1924.775	6112
1926.876	6030
1928.978	6060
1931.08	6083
1933.181	6054
1935.28	6115
1937.38	6040
1939.478	6091
1941.577	6082
1943.675	6052
1945.771	6065
1947.867	6053
1949.964	6049
1952.058	6131
1954.154	5979
1956.248	6099
1958.343	5997
1960.435	6096
1962.527	6117
1964.62	6054
1966.711	6012
1968.802	5885
1970.892	5883
1972.983	6032
1975.072	6068
1977.162	5965
1979.25	6042
1981.337	6071
1983.424	6032
1985.51	6132
1987.598	6014
1989.683	6024
1991.768	6044
1993.852	5950
1995.934	6058
1998.019	5970
2000.102	5994
2002.184	6091
2004.266	6024
2006.347	5937
2008.427	5868
2010.508	5955
2012.587	6122
2014.666	5930
2016.745	6022
2018.821	5920
2020.9	5975
2022.977	6030
2025.052	5878
2027.128	5977
2029.204	5988
2031.277	5953
2033.353	5889
2035.425	5962
2037.499	5938
2039.57	5943
2041.642	5978
2043.714	5952
2045.786	6070
2047.855	6066
2049.925	5927
2051.993	5998
2054.064	5927
2056.132	5944
2058.2	5931
2060.266	5947
2062.332	6063
2064.398	5934
2066.465	5883
2068.529	5945
2070.592	5997
2072.657	6079
2074.719	6010
2076.783	5861
2078.845	5964
2080.907	5964
2082.968	6014
2085.028	5849
2087.087	5964
2089.148	5928
2091.207	5923
2093.264	5855
2095.322	6005
2097.379	5998
2099.439	5867
2101.495	6119
2103.55	6010
2105.605	5923
2107.658	5907
2109.713	5977
2111.767	5953
2113.82	6003
2115.872	5813
2117.924	5954
2119.975	5997
2122.028	5996
2124.078	5969
2126.126	6002
2128.176	5997
2130.225	6025
2132.275	5995
2134.321	6012
2136.368	5915
2138.415	5912
2140.461	5927
2142.505	5957
2144.552	5826
2146.597	5854
2148.64	5980
2150.684	5908
2152.725	5929
2154.77	6091
2156.811	5949
2158.852	5912
2160.894	5928
2162.933	5854
2164.973	5911
2167.013	5927
2169.051	5815
2171.089	5882
2173.126	5902
2175.164	5820
2177.201	5853
2179.236	5876
2181.273	5857
2183.307	5937
2185.341	5809
2187.377	5814
2189.41	5840
2191.442	5857
2193.473	5749
2195.506	5816
2197.539	5733
2199.569	5877
2201.598	5812
2203.628	5722
2205.656	5828
2207.686	5831
2209.716	5794
2211.743	5785
2213.769	5753
2215.796	5808
2217.821	5798
2219.848	5853
2221.873	5725
2223.897	5741
2225.921	5774
2227.944	5782
2229.967	5819
2231.991	5772
2234.011	5691
2236.032	5780
2238.053	5749
2240.073	5682
2242.094	5792
2244.114	5787
2246.131	5914
2248.149	5731
2250.167	5812
2252.186	5662
2254.201	5836
2256.218	5743
2258.233	5804
2260.247	5798
2262.262	5847
2264.278	5627
2266.29	5669
2268.303	5790
2270.315	5827
2272.327	5665
2274.341	5774
2276.35	5776
2278.361	5746
2280.37	5750
2282.38	5816
2284.388	5748
2286.397	5670
2288.405	5857
2290.412	5658
2292.419	5832
2294.425	5707
2296.431	5746
2298.437	5722
2300.441	5720
2302.445	5818
2304.449	5692
2306.453	5750
2308.455	5753
2310.457	5617
2312.459	5619
2314.46	5769
2316.46	5806
2318.461	5627
2320.46	5649
2322.458	5712
2324.458	5701
2326.456	5790
2328.455	5717
2330.451	5664
2332.447	5625
2334.443	5682
2336.438	5665
2338.433	5595
2340.429	5621
2342.422	5683
2344.416	5647
2346.408	5683
2348.399	5715
2350.393	5674
2352.384	5559
2354.375	5557
2356.365	5629
2358.355	5637
2360.344	5586
2362.333	5599
2364.322	5675
2366.309	5579
2368.295	5689
2370.282	5572
2372.27	5664
2374.256	5646
2376.24	5641
2378.225	5596
2380.208	5557
2382.194	5603
2384.177	5596
2386.159	5574
2388.142	5613
2390.122	5519
2392.105	5619
2394.085	5595
2396.066	5561
2398.044	5468
2400.024	5542
2402.002	5541
2403.982	5459
2405.959	5472
2407.935	5611
2409.913	5596
2411.888	5500
2413.865	5605
2415.84	5517
2417.814	5523
2419.788	5623
2421.762	5447
2423.735	5550
2425.708	5545
2427.68	5532
2429.651	5556
2431.623	5488
2433.593	5499
2435.564	5510
2437.533	5577
2439.502	5579
2441.47	5474
2443.438	5539
2445.406	5515
2447.373	5493
2449.34	5558
2451.305	5575
2453.271	5581
2455.235	5364
2457.201	5439
2459.165	5452
2461.129	5433
2463.092	5564
2465.054	5442
2467.018	5408
2468.978	5557
2470.939	5375
2472.899	5596
2474.86	5490
2476.819	5495
2478.778	5550
2480.737	5542
2482.695	5403
2484.653	5490
2486.609	5564
2488.567	5417
2490.524	5439
2492.478	5472
2494.433	5506
2496.387	5480
2498.343	5350
2500.297	5444
2502.249	5424
2504.202	5391
2506.153	5449
2508.105	5433
2510.057	5448
2512.008	5476
2513.957	5415
2515.906	5375
2517.855	5521
2519.805	5388
2521.754	5436
2523.7	5419
2525.647	5426
2527.594	5522
2529.54	5401
2531.486	5459
2533.431	5365
2535.376	5388
2537.32	5382
2539.263	5326
2541.207	5352
2543.151	5369
2545.093	5364
2547.034	5398
2548.975	5342
2550.917	5414
2552.856	5405
2554.796	5448
2556.735	5441
2558.673	5426
2560.611	5459
2562.55	5432
2564.487	5485
2566.424	5392
2568.36	5457
2570.296	5468
2572.232	5322
2574.167	5490
2576.101	5356
2578.035	5324
2579.969	5389
2581.902	5374
2583.834	5457
2585.766	5367
2587.698	5377
2589.628	5428
2591.557	5407
2593.489	5334
2595.419	5585
2597.348	5355
2599.275	5374
2601.204	5334
2603.131	5376
2605.059	5333
2606.986	5371
2608.911	5485
2610.837	5357
2612.76	5464
2614.687	5427
2616.61	5380
2618.534	5441
2620.457	5352
2622.38	5476
2624.302	5401
2626.225	5387
2628.145	5372
2630.067	5359
2631.986	5434
2633.906	5341
2635.827	5486
2637.745	5321
2639.662	5453
2641.581	5343
2643.498	5271
2645.415	5400
2647.331	5411
2649.248	5234
2651.163	5478
2653.077	5307
2654.993	5415
2656.906	5301
2658.821	5365
2660.733	5283
2662.646	5410
2664.557	5316
2666.47	5400
2668.381	5376
2670.291	5313
2672.201	5404
2674.11	5358
2676.021	5382
2677.929	5347
2679.837	5402
2681.745	5306
2683.652	5344
2685.56	5297
2687.466	5334
2689.371	5337
2691.276	5345
2693.181	5303
2695.085	5285
2696.991	5386
2698.893	5277
2700.796	5225
2702.698	5220
2704.601	5213
2706.502	5294
2708.404	5246
2710.304	5259
2712.203	5243
2714.103	5228
2716.003	5246
2717.902	5222
2719.8	5185
2721.697	5170
2723.594	5304
2725.49	5287
2727.389	5270
2729.283	5284
2731.179	5165
2733.073	5251
2734.968	5299
2736.863	5192
2738.757	5173
2740.649	5171
2742.541	5206
2744.433	5282
2746.324	5187
2748.216	5207
2750.107	5334
2751.997	5294
2753.886	5218
2755.776	5285
2757.666	5183
2759.553	5214
2761.44	5122
2763.327	5148
2765.215	5166
2767.102	5245
2768.988	5219
2770.873	5260
2772.757	5196
2774.641	5200
2776.525	5227
2778.41	5147
2780.292	5188
2782.175	5143
2784.057	5278
2785.938	5184
2787.821	5167
2789.701	5254
2791.581	5262
2793.461	5156
2795.34	5129
2797.219	5079
2799.099	5074
2800.975	5227
2802.853	5118
2804.73	5214
2806.606	5201
2808.484	5238
2810.358	5122
2812.233	5138
2814.108	5062
2815.981	5174
2817.857	5229
2819.73	5224
2821.602	5258
2823.474	5255
2825.346	5224
2827.217	5137
2829.089	5173
2830.959	5058
2832.829	5129
2834.698	5145
2836.567	5156
2838.436	5189
2840.305	5122
2842.172	5231
2844.04	5146
2845.905	5184
2847.772	5142
2849.639	5234
2851.503	5211
2853.369	5181
2855.232	5304
2857.096	5260
2858.961	5100
2860.824	5206
2862.686	5211
2864.547	5202
2866.41	5263
2868.272	5324
2870.132	5200
2871.992	5315
2873.851	5367
2875.711	5436
2877.57	5302
2879.429	5435
2881.287	5509
2883.144	5427
2885.001	5427
2886.857	5377
2888.714	5479
2890.57	5479
2892.425	5526
2894.279	5516
2896.133	5418
2897.987	5396
2899.842	5411
2901.694	5373
2903.547	5568
2905.397	5461
2907.249	5428
2909.101	5479
2910.952	5408
2912.802	5529
2914.652	5554
2916.5	5539
2918.35	5663
2920.198	5580
2922.045	5521
2923.893	5598
2925.74	5726
2927.585	5760
2929.433	5773
2931.279	5808
2933.123	5773
2934.968	5896
2936.811	5796
2938.656	5819
2940.5	5839
2942.342	5941
2944.185	5916
2946.026	5992
2947.87	6085
2949.71	6014
2951.549	5942
2953.39	6005
2955.229	5921
2957.069	5880
2958.908	5822
2960.746	5838
2962.584	5767
2964.421	5695
2966.257	5792
2968.094	5662
2969.931	5548
2971.766	5596
2973.601	5495
2975.435	5435
2977.27	5606
2979.105	5446
2980.938	5478
2982.77	5478
2984.602	5431
2986.434	5435
2988.267	5418
2990.097	5406
2991.927	5269
2993.757	5353
2995.587	5279
2997.417	5256
2999.246	5239
3001.074	5179
3002.902	5168
3004.729	5179
3006.556	5146
3008.384	5081
3010.21	4991
3012.036	5056
3013.861	5040
3015.684	4911
3017.51	4958
3019.334	4996
3021.157	4989
3022.981	4985
3024.802	5023
3026.624	4735
3028.448	4927
3030.267	4858
3032.088	4856
3033.909	4861
3035.728	4808
3037.549	4762
3039.368	4863
3041.186	4887
3043.004	4753
3044.821	4804
3046.64	4826
3048.455	4724
3050.272	4741
3052.087	4809
3053.903	4901
3055.717	4771
3057.534	4805
3059.347	4814
3061.16	4767
3062.974	4867
3064.785	4769
3066.598	4806
3068.411	4738
3070.222	4767
3072.032	4794
3073.844	4654
3075.653	4730
3077.463	4711
3079.272	4665
3081.08	4691
3082.889	4652
3084.697	4582
3086.505	4698
3088.312	4726
3090.118	4687
3091.924	4690
3093.729	4709
3095.535	4620
3097.34	4641
3099.144	4627
3100.947	4600
3102.75	4521
3104.553	4643
3106.357	4586
3108.159	4534
3109.961	4704
3111.762	4582
3113.562	4670
3115.365	4479
3117.164	4517
3118.964	4572
3120.761	4651
3122.56	4513
3124.36	4510
3126.158	4629
3127.954	4483
3129.75	4567
3131.547	4561
3133.343	4539
3135.139	4545
3136.934	4541
3138.729	4654
3140.522	4479
3142.317	4583
3144.11	4456
3145.904	4424
3147.695	4431
3149.488	4514
3151.28	4571
3153.07	4596
3154.863	4525
3156.652	4494
3158.441	4484
3160.231	4552
3162.019	4466
3163.81	4515
3165.597	4440
3167.384	4380
3169.172	4410
3170.958	4439
3172.745	4431
3174.532	4454
3176.317	4481
3178.101	4488
3179.885	4398
3181.67	4475
3183.455	4483
3185.238	4383
3187.02	4446
3188.802	4420
3190.585	4382
3192.368	4376
3194.149	4386
3195.929	4499
3197.709	4338
3199.489	4424
3201.268	4335
3203.048	4406
3204.826	4347
3206.604	4420
3208.382	4467
3210.159	4334
3211.937	4431
3213.713	4450
3215.489	4416
3217.263	4469
3219.038	4456
3220.815	4485
3222.589	4315
3224.363	4433
3226.136	4382
3227.908	4304
3229.681	4318
3231.454	4461
3233.226	4399
3234.996	4436
3236.767	4292
3238.538	4461
3240.308	4389
3242.078	4343
3243.847	4335
3245.615	4347
3247.384	4303
3249.15	4398
3250.92	4433
3252.686	4449
3254.453	4353
3256.218	4369
3257.984	4291
3259.75	4307
3261.515	4366
3263.279	4348
3265.044	4373
3266.806	4346
3268.57	4365
3270.334	4426
3272.095	4342
3273.856	4389
3275.619	4427
3277.379	4357
3279.14	4487
3280.9	4375
3282.661	4346
3284.419	4420
3286.178	4347
3287.937	4464
3289.695	4340
3291.453	4352
3293.21	4398
3294.967	4314
3296.723	4358
3298.48	4425
3300.235	4350
3301.99	4454
3303.744	4299
3305.498	4380
3307.253	4363
3309.006	4262
3310.759	4352
3312.511	4331
3314.263	4311
3316.017	4415
3317.768	4344
3319.519	4295
3321.268	4460
3323.018	4327
3324.767	4323
3326.518	4334
3328.267	4389
3330.014	4438
3331.762	4224
3333.509	4305
3335.258	4294
3337.003	4322
3338.75	4373
3340.496	4297
3342.24	4315
3343.987	4294
3345.732	4332
3347.475	4283
3349.219	4400
3350.961	4232
3352.705	4261
3354.448	4221
3356.19	4245
3357.931	4207
3359.672	4225
3361.412	4348
3363.155	4190
3364.894	4274
3366.633	4291
3368.372	4256
3370.11	4205
3371.849	4163
3373.588	4287
3375.325	4282
3377.061	4282
3378.799	4298
3380.534	4111
3382.271	4223
3384.006	4252
3385.741	4216
3387.475	4198
3389.209	4344
3390.944	4214
3392.677	4271
3394.409	4199
3396.143	4226
3397.874	4217
3399.606	4201
3401.338	4170
3403.069	4167
3404.799	4185
3406.528	4181
3408.258	4166
3409.988	4110
3411.717	4173
3413.445	4103
3415.173	4076
3416.899	4097
3418.626	4224
3420.354	4189
3422.08	4080
3423.806	4194
3425.531	4174
3427.255	4107
3428.981	4158
3430.705	4057
3432.429	4137
3434.151	4070
3435.875	4067
3437.599	4094
3439.321	4078
3441.042	4042
3442.763	4071
3444.483	4103
3446.204	4021
3447.926	4173
3449.645	4040
3451.364	4064
3453.082	4055
3454.801	4005
3456.52	4071
3458.238	3985
3459.954	4066
3461.671	3970
3463.387	4021
3465.104	4062
3466.82	3969
3468.534	4036
3470.25	3986
3471.963	3931
3473.676	3957
3475.392	4014
3477.104	3957
3478.817	3934
3480.528	4007
3482.241	3898
3483.954	3891
3485.664	4054
3487.374	4005
3489.084	3911
3490.795	3880
3492.504	3908
3494.214	3855
3495.922	4008
3497.63	3984
3499.338	3922
3501.045	3979
3502.753	3846
3504.459	3924
3506.166	3891
3507.871	3861
3509.576	3859
3511.283	3849
3512.987	3892
3514.691	3904
3516.395	3817
3518.098	3932
3519.8	3873
3521.504	3811
3523.206	3928
3524.908	3890
3526.609	3891
3528.309	3798
3530.011	3870
3531.711	3848
3533.411	3795
3535.109	3833
3536.808	3758
3538.507	3801
3540.206	3813
3541.904	3810
3543.601	3742
3545.297	3808
3546.994	3898
3548.69	3865
3550.387	3740
3552.081	3870
3553.776	3801
3555.47	3865
3557.166	3739
3558.859	3773
3560.553	3811
3562.245	3750
3563.938	3742
3565.629	3774
3567.322	3782
3569.014	3701
3570.704	3760
3572.394	3787
3574.084	3688
3575.775	3701
3577.464	3692
3579.152	3740
3580.842	3812
3582.529	3692
3584.216	3691
3585.905	3636
3587.591	3644
3589.279	3638
3590.964	3704
3592.649	3683
3594.336	3746
3596.021	3658
3597.705	3664
3599.388	3658
3601.072	3661
3602.757	3699
3604.439	3649
3606.122	3611
3607.803	3712
3609.485	3596
3611.167	3695
3612.849	3626
3614.529	3623
3616.208	3600
3617.888	3636
3619.567	3560
3621.247	3609
3622.926	3571
3624.603	3542
3626.281	3592
3627.958	3645
3629.635	3543
3631.312	3602
3632.989	3545
3634.665	3640
3636.339	3541
3638.014	3518
3639.691	3524
3641.364	3557
3643.038	3552
3644.71	3541
3646.384	3480
3648.058	3523
3649.729	3514
3651.402	3477
3653.073	3472
3654.744	3506
3656.414	3517
3658.085	3569
3659.755	3474
3661.424	3552
3663.094	3476
3664.762	3519
3666.431	3526
3668.099	3458
3669.766	3480
3671.433	3450
3673.099	3421
3674.768	3456
3676.433	3467
3678.098	3525
3679.763	3496
3681.428	3451
3683.093	3622
3684.757	3465
3686.421	3389
3688.083	3441
3689.746	3473
3691.408	3407
3693.071	3414
3694.733	3421
3696.394	3486
3698.054	3427
3699.715	3455
3701.375	3455
3703.036	3406
3704.695	3401
3706.354	3429
3708.012	3433
3709.67	3410
3711.329	3360
3712.987	3391
3714.644	3422
3716.299	3407
3717.955	3389
3719.613	3406
3721.268	3321
3722.923	3339
3724.577	3382
3726.231	3358
3727.885	3358
3729.539	3337
3731.192	3392
3732.845	3339
3734.497	3462
3736.149	3353
3737.802	3319
3739.453	3327
3741.104	3338
3742.753	3397
3744.404	3347
3746.052	3373
3747.704	3364
3749.352	3321
3751	3297
3752.648	3264
3754.296	3345
3755.944	3355
3757.59	3333
3759.238	3342
3760.883	3317
3762.528	3363
3764.176	3271
3765.82	3292
3767.464	3323
3769.109	3285
3770.753	3292
3772.396	3287
3774.04	3293
3775.683	3341
3777.325	3306
3778.967	3115
3780.608	3291
3782.25	3296
3783.89	3283
3785.531	3273
3787.17	3312
3788.81	3281
3790.45	3238
3792.09	3235
3793.729	3249
3795.366	3208
3797.003	3211
3798.64	3262
3800.278	3241
3801.915	3267
3803.551	3185
3805.187	3190
3806.822	3171
3808.458	3232
3810.093	3227
3811.726	3199
3813.36	3204
3814.994	3159
3816.627	3238
3818.262	3187
3819.893	3221
3821.525	3088
3823.157	3086
3824.787	3169
3826.42	3252
3828.051	3196
3829.68	3219
3831.31	3237
3832.938	3226
3834.569	3248
3836.198	3146
3837.825	3174
3839.454	3174
3841.08	3174
3842.708	3219
3844.335	3296
3845.962	3119
3847.587	3149
3849.212	3168
3850.838	3149
3852.463	3135
3854.089	3128
3855.712	3173
3857.335	3181
3858.959	3111
3860.582	3080
3862.205	3151
3863.827	3069
3865.449	3087
3867.07	3111
3868.691	3156
3870.312	3131
3871.933	3061
3873.553	3051
3875.173	3071
3876.792	3079
3878.411	3106
3880.03	3134
3881.647	3052
3883.265	3133
3884.882	3083
3886.499	3055
3888.116	3056
3889.732	3062
3891.348	3041
3892.964	3074
3894.579	3063
3896.195	3098
3897.809	3086
3899.423	3025
3901.036	3045
3902.648	3041
3904.261	3066
3905.875	3075
3907.487	3072
3909.099	3089
3910.709	3059
3912.321	2981
3913.933	3025
3915.542	3017
3917.152	3093
3918.762	3079
3920.37	3000
3921.98	3087
3923.589	3022
3925.196	3056
3926.804	3000
3928.41	3014
3930.018	2996
3931.626	3062
3933.231	2982
3934.838	2975
3936.442	3077
3938.046	3004
3939.653	2992
3941.257	2981
3942.861	3050
3944.464	3034
3946.068	3013
3947.67	2949
3949.273	3008
3950.876	2997
3952.477	3029
3954.078	3001
3955.678	2927
3957.281	3000
3958.881	2982
3960.48	2931
3962.079	2991
3963.678	2962
3965.279	3015
3966.877	2962
3968.475	2922
3970.072	2934
3971.669	2974
3973.266	2949
3974.864	2927
3976.459	2947
3978.055	2972
3979.65	2943
3981.245	2908
3982.841	2836
3984.436	2909
3986.03	2875
3987.623	2858
3989.216	2889
3990.809	2892
3992.403	2963
3993.995	2901
3995.586	2897
3997.177	2936
3998.768	2888
4000.361	2853
4001.951	2882
4003.54	2893
4005.13	2878
4006.719	2846
4008.31	2918
4009.897	2872
4011.485	2891
4013.073	2853
4014.66	2842
4016.247	2859
4017.834	2887
4019.421	2873
4021.006	2927
4022.592	2855
4024.178	2873
4025.763	2835
4027.348	2857
4028.932	2773
4030.515	2812
4032.099	2843
4033.682	2778
4035.266	2764
4036.847	2828
4038.429	2804
4040.011	2791
4041.592	2824
4043.173	2769
4044.755	2829
4046.334	2764
4047.913	2688
4049.494	2726
4051.074	2805
4052.652	2790
4054.23	2700
4055.807	2740
4057.385	2687
4058.963	2741
4060.541	2689
4062.117	2766
4063.693	2765
4065.269	2809
4066.844	2773
4068.42	2794
4069.995	2668
4071.569	2725
4073.143	2719
4074.716	2699
4076.291	2712
4077.864	2696
4079.436	2782
4081.009	2768
4082.58	2715
4084.152	2704
4085.723	2689
4087.294	2682
4088.865	2752
4090.435	2700
4092.005	2753
4093.574	2707
4095.143	2712
4096.712	2756
4098.279	2681
4099.848	2707
4101.416	2752
4102.984	2743
4104.55	2725
4106.117	2731
4107.682	2682
4109.248	2750
4110.815	2681
4112.379	2674
4113.945	2665
4115.508	2676
4117.073	2589
4118.637	2650
4120.201	2587
4121.763	2639
4123.325	2616
4124.888	2683
4126.449	2649
4128.013	2550
4129.573	2656
4131.133	2651
4132.694	2701
4134.254	2650
4135.814	2716
4137.374	2675
4138.933	2589
4140.491	2671
4142.049	2721
4143.607	2611
4145.167	2652
4146.724	2543
4148.28	2540
4149.836	2610
4151.392	2625
4152.949	2574
4154.504	2632
4156.059	2533
4157.614	2601
4159.168	2550
4160.723	2584
4162.277	2540
4163.83	2561
4165.383	2657
4166.936	2554
4168.488	2528
4170.041	2593
4171.593	2540
4173.144	2569
4174.695	2514
4176.246	2594
4177.796	2503
4179.346	2469
4180.896	2560
4182.445	2497
4183.994	2525
4185.542	2564
4187.091	2566
4188.639	2510
4190.185	2527
4191.732	2532
4193.279	2504
4194.826	2484
4196.373	2517
4197.918	2520
4199.463	2475
4201.008	2485
4202.553	2516
4204.098	2424
4205.641	2467
4207.185	2468
4208.728	2495
4210.271	2514
4211.814	2513
4213.357	2480
4214.898	2520
4216.439	2501
4217.98	2541
4219.522	2505
4221.062	2510
4222.603	2438
4224.142	2490
4225.681	2510
4227.222	2452
4228.76	2427
4230.298	2450
4231.835	2495
4233.373	2453
4234.911	2468
4236.449	2469
4237.985	2491
4239.521	2434
4241.057	2402
4242.592	2445
4244.128	2429
4245.663	2403
4247.197	2426
4248.731	2419
4250.265	2393
4251.798	2381
4253.333	2419
4254.865	2399
4256.397	2412
4257.93	2443
4259.461	2394
4260.994	2421
4262.525	2426
4264.056	2485
4265.586	2356
4267.115	2399
4268.646	2421
4270.176	2462
4271.705	2378
4273.232	2380
4274.761	2326
4276.289	2445
4277.818	2379
4279.345	2414
4280.872	2384
4282.399	2373
4283.924	2402
4285.452	2394
4286.976	2419
4288.502	2385
4290.026	2383
4291.551	2358
4293.074	2414
4294.6	2386
4296.123	2335
4297.646	2359
4299.168	2411
4300.691	2282
4302.214	2346
4303.736	2384
4305.257	2310
4306.778	2358
4308.299	2380
4309.82	2343
4311.34	2344
4312.86	2399
4314.379	2306
