400.0745	4056
402.597	4000
405.1208	4169
407.6419	4086
410.1623	4174
412.6819	4097
415.201	4058
417.7172	4214
420.2369	4232
422.7538	4241
425.2701	4292
427.7856	4309
430.3005	4336
432.8147	4334
435.3282	4344
437.841	4315
440.3511	4388
442.8625	4362
445.3753	4455
447.8854	4367
450.3927	4360
452.9014	4397
455.4073	4299
457.9146	4387
460.4233	4446
462.9272	4317
465.4325	4349
467.935	4332
470.4389	4317
472.9421	4358
475.4446	4431
477.9444	4383
480.4456	4367
482.944	4320
485.4417	4411
487.9429	4445
490.4393	4337
492.935	4532
495.4321	4583
497.9264	4419
500.4221	4491
502.9171	4481
505.4094	4539
507.9011	4477
510.392	4520
512.8864	4496
515.3759	4550
517.8649	4567
520.3531	4430
522.8406	4550
525.3275	4487
527.8178	4515
530.3033	4451
532.7881	4628
535.2723	4508
537.7558	4552
540.2407	4579
542.7228	4575
545.2043	4698
547.6851	4562
550.1652	4528
552.6467	4574
555.1255	4542
557.6016	4528
560.079	4699
562.5557	4552
565.0318	4559
567.5092	4564
569.984	4688
572.456	4652
574.9294	4686
577.4022	4822
579.8762	4796
582.3456	4697
584.8163	4916
587.2863	4739
589.7557	4818
592.2224	4802
594.6924	4666
597.1578	4761
599.6245	4730
602.0905	4638
604.5538	4808
607.0206	4742
609.4825	4689
611.9459	4748
614.4066	4754
616.8686	4709
619.33	4699
621.7906	4712
624.2487	4668
626.708	4731
629.1647	4670
631.6207	4642
634.0801	4691
636.5348	4805
638.9888	4650
641.4442	4768
643.8969	4710
646.3509	4704
648.8022	4728
651.255	4814
653.705	4699
656.1544	4737
658.6031	4807
661.0532	4798
663.5026	4912
665.9493	4799
668.3954	4825
670.8409	4872
673.2877	4836
675.7318	4898
678.1752	4816
680.618	4852
683.0601	4861
685.5035	4926
687.9444	4920
690.3845	4874
692.824	4892
695.2628	4834
697.701	4979
700.1406	4877
702.5774	4957
705.0116	4898
707.4472	4899
709.8821	4884
712.3183	4945
714.7519	4950
717.1829	4964
719.6151	4997
722.0468	5004
724.4777	4966
726.908	4971
729.3377	5043
731.7667	5051
734.1931	5005
736.6208	5102
739.0498	5095
741.4742	5114
743.9	5140
746.3231	4990
748.7476	5100
751.1713	5017
753.5945	5137
756.015	5104
758.4368	5231
760.856	5152
763.2766	5267
765.6965	5166
768.1157	5277
770.5323	5263
772.9483	5222
775.3656	5201
777.7822	5206
780.1963	5197
782.6116	5312
785.0244	5206
787.4365	5308
789.8499	5166
792.2626	5225
794.6728	5411
797.0823	5163
799.4911	5238
801.8994	5219
804.3109	5300
806.7178	5309
809.124	5229
811.5297	5318
813.9347	5391
816.341	5407
818.7447	5320
821.1478	5436
823.5502	5321
825.952	5329
828.3531	5374
830.7556	5320
833.1554	5303
835.5546	5348
837.9532	5385
840.3511	5376
842.7504	5448
845.1451	5321
847.5411	5463
849.9365	5377
852.3312	5445
854.7272	5426
857.1187	5418
859.5115	5396
861.9037	5329
864.2952	5368
866.6842	5426
869.0764	5426
871.4661	5460
873.8531	5406
876.2415	5443
878.6272	5406
881.0162	5441
883.4026	5342
885.7866	5354
888.1717	5468
890.5543	5344
892.9382	5380
895.3215	5334
897.7041	5432
900.0842	5301
902.4655	5429
904.8443	5468
907.2244	5449
909.6039	5459
911.9808	5488
914.357	5573
916.7346	5530
919.1115	5578
921.4859	5658
923.8616	5584
926.2347	5611
928.6071	5639
930.979	5637
933.3541	5661
935.7247	5639
938.0946	5699
940.4639	5809
942.8326	5838
945.2026	5861
947.5701	6039
949.9369	6159
952.305	6338
954.6705	6445
957.0355	6736
959.4017	7004
961.7654	7186
964.1284	7143
966.4908	6873
968.8527	6543
971.2138	6423
973.5743	6062
975.9343	5918
978.2936	5855
980.6522	5665
983.0122	5599
985.3696	5651
987.7245	5614
990.0807	5623
992.4362	5599
994.7911	5607
997.1474	5603
999.4991	5536
1001.852	5690
1004.205	5681
1006.555	5573
1008.908	5630
1011.258	5557
1013.606	5593
1015.956	5593
1018.302	5544
1020.652	5738
1022.998	5651
1025.345	5613
1027.691	5557
1030.035	5785
1032.378	5695
1034.724	5680
1037.066	5755
1039.409	5920
1041.75	5750
1044.092	5683
1046.433	5784
1048.771	5730
1051.112	5775
1053.449	5638
1055.786	5682
1058.124	5691
1060.462	5759
1062.797	5894
1065.131	5731
1067.467	5812
1069.8	5864
1072.135	5885
1074.467	5887
1076.798	5958
1079.129	5866
1081.459	5800
1083.792	5735
1086.121	5747
1088.449	5809
1090.777	5701
1093.104	5727
1095.431	5790
1097.759	5690
1100.084	5703
1102.408	5767
1104.732	5879
1107.056	5834
1109.379	5823
1111.701	5770
1114.022	5820
1116.343	5734
1118.664	5718
1120.983	5696
1123.303	5680
1125.621	5647
1127.939	5710
1130.256	5713
1132.573	5778
1134.889	5762
1137.205	5830
1139.52	5693
1141.832	5706
1144.146	5759
1146.461	5683
1148.771	5821
1151.083	5733
1153.392	5755
1155.703	5783
1158.011	5819
1160.323	5628
1162.629	5710
1164.938	5770
1167.243	5749
1169.55	5725
1171.857	5688
1174.163	5709
1176.466	5781
1178.769	5737
1181.073	5785
1183.374	5767
1185.677	5831
1187.979	5848
1190.279	5686
1192.578	5770
1194.878	5701
1197.178	5710
1199.476	5791
1201.772	5746
1204.068	5614
1206.366	5686
1208.663	5839
1210.957	5761
1213.251	5740
1215.544	5876
1217.836	5735
1220.128	5805
1222.421	5721
1224.712	5808
1227.002	5845
1229.292	5823
1231.581	5754
1233.871	5847
1236.159	5924
1238.446	5866
1240.732	6065
1243.018	5838
1245.304	6044
1247.59	5984
1249.874	5919
1252.156	5879
1254.439	5867
1256.721	5946
1259.005	5814
1261.286	5984
1263.565	5867
1265.845	5902
1268.125	5975
1270.403	5878
1272.682	5861
1274.959	5904
1277.234	5929
1279.511	5885
1281.787	5876
1284.062	5966
1286.337	5902
1288.609	5900
1290.882	5908
1293.153	5861
1295.428	5892
1297.698	5843
1299.969	5850
1302.237	5890
1304.507	5907
1306.777	5849
1309.044	5722
1311.312	5839
1313.578	5895
1315.844	5816
1318.109	5928
1320.375	5778
1322.638	5852
1324.903	5767
1327.165	5896
1329.427	5914
1331.69	5822
1333.952	5949
1336.212	5812
1338.471	5961
1340.73	5877
1342.988	5909
1345.248	5817
1347.505	5825
1349.763	5942
1352.019	5855
1354.274	5938
1356.53	5889
1358.784	5757
1361.038	5888
1363.291	5908
1365.543	5888
1367.797	5934
1370.048	5895
1372.296	5860
1374.546	5877
1376.796	6014
1379.045	5908
1381.295	5866
1383.542	5878
1385.787	5838
1388.034	5879
1390.28	5812
1392.527	5886
1394.772	5991
1397.014	5902
1399.258	5862
1401.501	5921
1403.741	6016
1405.985	6062
1408.226	5988
1410.465	5993
1412.705	5947
1414.943	5944
1417.184	6011
1419.42	5983
1421.658	5991
1423.894	5988
1426.13	6050
1428.366	6155
1430.602	5934
1432.835	5985
1435.069	5973
1437.301	6111
1439.535	6041
1441.767	6180
1443.997	6221
1446.229	5985
1448.458	6181
1450.687	6120
1452.916	6159
1455.146	6123
1457.372	6172
1459.599	6155
1461.824	6084
1464.051	6128
1466.277	6146
1468.501	6091
1470.725	5998
1472.948	6046
1475.17	5978
1477.393	5985
1479.614	5956
1481.837	5915
1484.057	5949
1486.276	5866
1488.497	5874
1490.715	5994
1492.932	5924
1495.148	5908
1497.364	5852
1499.58	5927
1501.798	5861
1504.012	5907
1506.227	5846
1508.44	5915
1510.653	5851
1512.866	5907
1515.078	5828
1517.289	5891
1519.5	5864
1521.711	5949
1523.92	5858
1526.13	5809
1528.338	5843
1530.544	5781
1532.752	5876
1534.959	5912
1537.165	5893
1539.371	5949
1541.574	5946
1543.779	5931
1545.983	5889
1548.187	5902
1550.39	5974
1552.59	5947
1554.792	5908
1556.991	5919
1559.19	5946
1561.392	5918
1563.59	5900
1565.789	5943
1567.986	5973
1570.182	5940
1572.381	6016
1574.576	6023
1576.771	5938
1578.966	6067
1581.16	6025
1583.354	6112
1585.546	5967
1587.74	6142
1589.931	6006
1592.121	6122
1594.311	5945
1596.502	6044
1598.693	6096
1600.881	6056
1603.069	6063
1605.256	6032
1607.445	6021
1609.631	5979
1611.816	5976
1614.001	6052
1616.186	6005
1618.37	6141
1620.555	6056
1622.737	6141
1624.919	6103
1627.101	6063
1629.282	6043
1631.463	6164
1633.643	6209
1635.822	6172
1638.001	6027
1640.179	6183
1642.359	6103
1644.534	6129
1646.711	6146
1648.887	6089
1651.062	6218
1653.235	6127
1655.412	6255
1657.586	6202
1659.757	6318
1661.93	6118
1664.1	6158
1666.274	6215
1668.445	6277
1670.614	6122
1672.784	6147
1674.951	6095
1677.12	6130
1679.289	6155
1681.457	6203
1683.622	6136
1685.789	6122
1687.953	6115
1690.121	6130
1692.284	6149
1694.447	6091
1696.611	6184
1698.772	6129
1700.935	6057
1703.098	6085
1705.258	6072
1707.417	6033
1709.576	5990
1711.736	6058
1713.896	6025
1716.053	5926
1718.21	6128
1720.366	5933
1722.522	6074
1724.68	6025
1726.835	6015
1728.989	5941
1731.142	6042
1733.295	6038
1735.449	6035
1737.601	6007
1739.753	6043
1741.903	6004
1744.054	6106
1746.203	6054
1748.354	6017
1750.503	6029
1752.651	5950
1754.798	6095
1756.944	6047
1759.092	5978
1761.238	5970
1763.383	6163
1765.528	6024
1767.672	6173
1769.814	6033
1771.959	6053
1774.102	6119
1776.242	6048
1778.384	6009
1780.525	6042
1782.665	6052
1784.805	6075
1786.945	6041
1789.082	5983
1791.22	6112
1793.36	5988
1795.495	6104
1797.632	6054
1799.766	5974
1801.902	6000
1804.035	6126
1806.172	6083
1808.304	6121
1810.436	6126
1812.569	6101
1814.699	6069
1816.833	6156
1818.963	6054
1821.092	6034
1823.222	6113
1825.35	6214
1827.478	6045
1829.608	6068
1831.734	6153
1833.86	6081
1835.986	6073
1838.11	5935
1840.238	6051
1842.362	6062
1844.485	5947
1846.608	6116
1848.73	6087
1850.853	5940
1852.974	6095
1855.097	6026
1857.217	6058
1859.336	6051
1861.455	6021
1863.576	6049
1865.693	6010
1867.811	5997
1869.926	6096
1872.042	5906
1874.16	5948
1876.275	6110
1878.39	5888
1880.504	5947
1882.618	5995
1884.731	6104
1886.843	6057
1888.956	6052
1891.067	6007
1893.178	6110
1895.287	6041
1897.399	6012
1899.508	6013
1901.617	6096
1903.724	6111
1905.832	6092
1907.941	5950
1910.046	5929
1912.152	6063
1914.256	6094
1916.361	6082
1918.464	6213
1920.57	6030
1922.672	6087
1924.775	6106
1926.876	6060
1928.978	6043
1931.08	6089
1933.181	6099
1935.28	6151
1937.38	6103
1939.478	6119
1941.577	6149
1943.675	6053
1945.771	5938
1947.867	6132
1949.964	6130
1952.058	6174
1954.154	6116
1956.248	6080
1958.343	6024
1960.435	5996
1962.527	6082
1964.62	6063
1966.711	6083
1968.802	6087
1970.892	6079
1972.983	6081
1975.072	6099
1977.162	6113
1979.25	6088
1981.337	6064
1983.424	5991
1985.51	6060
1987.598	6067
1989.683	5993
1991.768	6026
1993.852	6060
1995.934	6077
1998.019	6037
2000.102	5943
2002.184	6053
2004.266	6073
2006.347	6046
2008.427	6022
2010.508	6012
2012.587	6048
2014.666	6010
2016.745	5983
2018.821	5950
2020.9	6044
2022.977	6156
2025.052	6058
2027.128	6033
2029.204	6096
2031.277	6019
2033.353	5971
2035.425	6020
2037.499	5997
2039.57	6036
2041.642	5956
2043.714	5958
2045.786	6039
2047.855	5963
2049.925	6015
2051.993	6030
2054.064	5984
2056.132	6031
2058.2	5987
2060.266	5976
2062.332	6019
2064.398	6088
2066.465	5996
2068.529	6076
2070.592	5906
2072.657	6042
2074.719	6034
2076.783	5991
2078.845	5970
2080.907	6007
2082.968	6005
2085.028	6017
2087.087	6104
2089.148	6034
2091.207	6062
2093.264	6013
2095.322	6014
2097.379	6037
2099.439	6006
2101.495	6093
2103.55	6046
2105.605	5954
2107.658	6013
2109.713	6044
2111.767	5994
2113.82	6094
2115.872	6019
2117.924	6175
2119.975	6026
2122.028	5909
2124.078	6008
2126.126	5901
2128.176	6032
2130.225	6012
2132.275	5999
2134.321	5939
2136.368	5985
2138.415	5957
2140.461	5987
2142.505	6030
2144.552	6043
2146.597	5931
2148.64	6030
2150.684	5846
2152.725	5955
2154.77	5981
2156.811	6001
2158.852	5951
2160.894	5978
2162.933	5909
2164.973	5992
2167.013	5986
2169.051	6044
2171.089	5922
2173.126	5860
2175.164	5992
2177.201	5842
2179.236	5922
2181.273	5932
2183.307	5946
2185.341	6002
2187.377	5834
2189.41	5884
2191.442	5816
2193.473	5893
2195.506	5912
2197.539	5802
2199.569	5891
2201.598	5832
2203.628	5855
2205.656	5923
2207.686	5966
2209.716	5927
2211.743	5834
2213.769	5841
2215.796	5845
2217.821	5743
2219.848	5833
2221.873	5796
2223.897	5906
2225.921	5871
2227.944	5851
2229.967	5777
2231.991	5735
2234.011	5865
2236.032	5781
2238.053	5810
2240.073	5737
2242.094	5799
2244.114	5944
2246.131	5820
2248.149	5893
2250.167	5877
2252.186	5795
2254.201	5789
2256.218	5842
2258.233	5804
2260.247	5738
2262.262	5883
2264.278	5812
2266.29	5773
2268.303	5830
2270.315	5776
2272.327	5829
2274.341	5790
2276.35	5795
2278.361	5864
2280.37	5842
2282.38	5817
2284.388	5861
2286.397	5709
2288.405	5802
2290.412	5740
2292.419	5822
2294.425	5845
2296.431	5816
2298.437	5796
2300.441	5823
2302.445	5864
2304.449	5816
2306.453	5781
2308.455	5820
2310.457	5772
2312.459	5849
2314.46	5703
2316.46	5782
2318.461	5803
2320.46	5692
2322.458	5777
2324.458	5847
2326.456	5770
2328.455	5736
2330.451	5755
2332.447	5675
2334.443	5789
2336.438	5765
2338.433	5787
2340.429	5699
2342.422	5663
2344.416	5739
2346.408	5857
2348.399	5619
2350.393	5725
2352.384	5654
2354.375	5718
2356.365	5691
2358.355	5784
2360.344	5785
2362.333	5718
2364.322	5702
2366.309	5597
2368.295	5809
2370.282	5652
2372.27	5666
2374.256	5713
2376.24	5675
2378.225	5626
2380.208	5516
2382.194	5619
2384.177	5584
2386.159	5707
2388.142	5681
2390.122	5548
2392.105	5651
2394.085	5575
2396.066	5543
2398.044	5567
2400.024	5697
2402.002	5498
2403.982	5601
2405.959	5622
2407.935	5572
2409.913	5585
2411.888	5523
2413.865	5579
2415.84	5621
2417.814	5583
2419.788	5606
2421.762	5589
2423.735	5667
2425.708	5549
2427.68	5595
2429.651	5665
2431.623	5627
2433.593	5614
2435.564	5614
2437.533	5507
2439.502	5674
2441.47	5595
2443.438	5662
2445.406	5542
2447.373	5572
2449.34	5585
2451.305	5648
2453.271	5645
2455.235	5648
2457.201	5572
2459.165	5581
2461.129	5601
2463.092	5663
2465.054	5559
2467.018	5491
2468.978	5627
2470.939	5438
2472.899	5591
2474.86	5584
2476.819	5568
2478.778	5562
2480.737	5480
2482.695	5552
2484.653	5551
2486.609	5443
2488.567	5595
2490.524	5525
2492.478	5348
2494.433	5489
2496.387	5475
2498.343	5513
2500.297	5467
2502.249	5387
2504.202	5535
2506.153	5498
2508.105	5545
2510.057	5479
2512.008	5529
2513.957	5479
2515.906	5450
2517.855	5524
2519.805	5453
2521.754	5388
2523.7	5517
2525.647	5483
2527.594	5431
2529.54	5457
2531.486	5460
2533.431	5412
2535.376	5454
2537.32	5473
2539.263	5404
2541.207	5487
2543.151	5381
2545.093	5500
2547.034	5384
2548.975	5438
2550.917	5408
2552.856	5468
2554.796	5461
2556.735	5427
2558.673	5456
2560.611	5386
2562.55	5555
2564.487	5369
2566.424	5485
2568.36	5441
2570.296	5445
2572.232	5446
2574.167	5454
2576.101	5478
2578.035	5293
2579.969	5438
2581.902	5458
2583.834	5426
2585.766	5394
2587.698	5362
2589.628	5491
2591.557	5541
2593.489	5475
2595.419	5328
2597.348	5447
2599.275	5574
2601.204	5468
2603.131	5470
2605.059	5517
2606.986	5388
2608.911	5412
2610.837	5440
2612.76	5493
2614.687	5533
2616.61	5457
2618.534	5432
2620.457	5496
2622.38	5435
2624.302	5495
2626.225	5458
2628.145	5497
2630.067	5443
2631.986	5482
2633.906	5462
2635.827	5471
2637.745	5383
2639.662	5478
2641.581	5446
2643.498	5436
2645.415	5531
2647.331	5452
2649.248	5397
2651.163	5425
2653.077	5442
2654.993	5409
2656.906	5395
2658.821	5552
2660.733	5429
2662.646	5352
2664.557	5435
2666.47	5550
2668.381	5414
2670.291	5384
2672.201	5405
2674.11	5434
2676.021	5436
2677.929	5470
2679.837	5391
2681.745	5372
2683.652	5313
2685.56	5347
2687.466	5383
2689.371	5381
2691.276	5371
2693.181	5383
2695.085	5411
2696.991	5295
2698.893	5366
2700.796	5423
2702.698	5354
2704.601	5373
2706.502	5312
2708.404	5352
2710.304	5341
2712.203	5345
2714.103	5252
2716.003	5312
2717.902	5353
2719.8	5385
2721.697	5312
2723.594	5204
2725.49	5363
2727.389	5294
2729.283	5390
2731.179	5203
2733.073	5229
2734.968	5323
2736.863	5268
2738.757	5307
2740.649	5317
2742.541	5301
2744.433	5268
2746.324	5254
2748.216	5305
2750.107	5242
2751.997	5290
2753.886	5358
2755.776	5201
2757.666	5244
2759.553	5242
2761.44	5200
2763.327	5244
2765.215	5300
2767.102	5297
2768.988	5201
2770.873	5222
2772.757	5196
2774.641	5276
2776.525	5265
2778.41	5219
2780.292	5217
2782.175	5185
2784.057	5236
2785.938	5163
2787.821	5256
2789.701	5247
2791.581	5235
2793.461	5213
2795.34	5257
2797.219	5259
2799.099	5243
2800.975	5246
2802.853	5189
2804.73	5164
2806.606	5170
2808.484	5112
2810.358	5152
2812.233	5165
2814.108	5235
2815.981	5188
2817.857	5252
2819.73	5142
2821.602	5314
2823.474	5104
2825.346	5147
2827.217	5197
2829.089	5281
2830.959	5140
2832.829	5205
2834.698	5124
2836.567	5199
2838.436	5238
2840.305	5099
2842.172	5244
2844.04	5207
2845.905	5227
2847.772	5259
2849.639	5216
2851.503	5208
2853.369	5221
2855.232	5236
2857.096	5236
2858.961	5286
2860.824	5250
2862.686	5290
2864.547	5257
2866.41	5324
2868.272	5309
2870.132	5222
2871.992	5529
2873.851	5423
2875.711	5396
2877.57	5478
2879.429	5449
2881.287	5511
2883.144	5500
2885.001	5447
2886.857	5557
2888.714	5513
2890.57	5526
2892.425	5601
2894.279	5498
2896.133	5453
2897.987	5412
2899.842	5484
2901.694	5478
2903.547	5508
2905.397	5498
2907.249	5399
2909.101	5525
2910.952	5488
2912.802	5518
2914.652	5614
2916.5	5625
2918.35	5617
2920.198	5819
2922.045	5666
2923.893	5680
2925.74	5784
2927.585	5818
2929.433	5842
2931.279	5819
2933.123	5931
2934.968	5976
2936.811	5952
2938.656	5997
2940.5	6040
2942.342	5974
2944.185	6116
2946.026	6200
2947.87	5975
2949.71	6115
2951.549	6068
2953.39	6042
2955.229	5888
2957.069	5935
2958.908	5813
2960.746	5857
2962.584	5725
2964.421	5756
2966.257	5683
2968.094	5670
2969.931	5581
2971.766	5604
2973.601	5596
2975.435	5559
2977.27	5543
2979.105	5496
2980.938	5458
2982.77	5477
2984.602	5436
2986.434	5560
2988.267	5542
2990.097	5480
2991.927	5464
2993.757	5303
2995.587	5425
2997.417	5374
2999.246	5225
3001.074	5207
3002.902	5194
3004.729	5217
3006.556	5115
3008.384	5173
3010.21	5143
3012.036	5189
3013.861	5036
3015.684	5171
3017.51	5051
3019.334	4994
3021.157	5059
3022.981	4885
3024.802	4890
3026.624	4937
3028.448	4906
3030.267	4876
3032.088	5021
3033.909	4960
3035.728	4876
3037.549	4849
3039.368	4888
3041.186	4778
3043.004	4837
3044.821	5039
3046.64	4833
3048.455	4820
3050.272	4909
3052.087	4810
3053.903	4827
3055.717	4899
3057.534	4871
3059.347	4893
3061.16	4794
3062.974	4844
3064.785	4748
3066.598	4816
3068.411	4873
3070.222	4735
3072.032	4785
3073.844	4846
3075.653	4841
3077.463	4831
3079.272	4797
3081.08	4796
3082.889	4639
3084.697	4669
3086.505	4842
3088.312	4734
3090.118	4818
3091.924	4655
3093.729	4675
3095.535	4645
3097.34	4758
3099.144	4687
3100.947	4742
3102.75	4733
3104.553	4730
3106.357	4725
3108.159	4673
3109.961	4732
3111.762	4670
3113.562	4706
3115.365	4580
3117.164	4621
3118.964	4583
3120.761	4656
3122.56	4495
3124.36	4729
3126.158	4707
3127.954	4567
3129.75	4584
3131.547	4746
3133.343	4634
3135.139	4677
3136.934	4633
3138.729	4651
3140.522	4601
3142.317	4631
3144.11	4596
3145.904	4606
3147.695	4641
3149.488	4583
3151.28	4696
3153.07	4549
3154.863	4558
3156.652	4584
3158.441	4640
3160.231	4581
3162.019	4559
3163.81	4580
3165.597	4559
3167.384	4616
3169.172	4644
3170.958	4525
3172.745	4500
3174.532	4530
3176.317	4562
3178.101	4489
3179.885	4541
3181.67	4536
3183.455	4549
3185.238	4486
3187.02	4472
3188.802	4534
3190.585	4605
3192.368	4508
3194.149	4523
3195.929	4524
3197.709	4495
3199.489	4439
3201.268	4506
3203.048	4429
3204.826	4414
3206.604	4455
3208.382	4542
3210.159	4471
3211.937	4549
3213.713	4483
3215.489	4445
3217.263	4458
3219.038	4597
3220.815	4554
3222.589	4374
3224.363	4478
3226.136	4562
3227.908	4478
3229.681	4471
3231.454	4481
3233.226	4438
3234.996	4454
3236.767	4440
3238.538	4523
3240.308	4524
3242.078	4568
3243.847	4450
3245.615	4560
3247.384	4509
3249.15	4568
3250.92	4456
3252.686	4420
3254.453	4432
3256.218	4581
3257.984	4469
3259.75	4474
3261.515	4421
3263.279	4480
3265.044	4431
3266.806	4467
3268.57	4394
3270.334	4500
3272.095	4467
3273.856	4444
3275.619	4484
3277.379	4426
3279.14	4460
3280.9	4452
3282.661	4464
3284.419	4470
3286.178	4501
3287.937	4495
3289.695	4392
3291.453	4418
3293.21	4429
3294.967	4445
3296.723	4537
3298.48	4420
3300.235	4400
3301.99	4427
3303.744	4451
3305.498	4489
3307.253	4415
3309.006	4460
3310.759	4484
3312.511	4465
3314.263	4388
3316.017	4500
3317.768	4452
3319.519	4441
3321.268	4437
3323.018	4431
3324.767	4465
3326.518	4389
3328.267	4429
3330.014	4470
3331.762	4421
3333.509	4427
3335.258	4371
3337.003	4416
3338.75	4451
3340.496	4397
3342.24	4378
3343.987	4459
3345.732	4445
3347.475	4398
3349.219	4375
3350.961	4392
3352.705	4361
3354.448	4346
3356.19	4410
3357.931	4262
3359.672	4406
3361.412	4390
3363.155	4435
3364.894	4358
3366.633	4295
3368.372	4384
3370.11	4431
3371.849	4409
3373.588	4347
3375.325	4227
3377.061	4325
3378.799	4313
3380.534	4360
3382.271	4311
3384.006	4282
3385.741	4274
3387.475	4326
3389.209	4232
3390.944	4193
3392.677	4301
3394.409	4258
3396.143	4231
3397.874	4277
3399.606	4289
3401.338	4200
3403.069	4211
3404.799	4246
3406.528	4278
3408.258	4219
3409.988	4270
3411.717	4237
3413.445	4193
3415.173	4361
3416.899	4229
3418.626	4235
3420.354	4272
3422.08	4223
3423.806	4202
3425.531	4246
3427.255	4212
3428.981	4171
3430.705	4160
3432.429	4234
3434.151	4131
3435.875	4157
3437.599	4149
3439.321	4169
3441.042	4233
3442.763	4172
3444.483	4141
3446.204	4185
3447.926	4174
3449.645	4215
3451.364	4176
3453.082	4078
3454.801	4135
3456.52	4123
3458.238	4141
3459.954	4064
3461.671	4239
3463.387	4086
3465.104	4128
3466.82	4106
3468.534	4173
3470.25	4046
3471.963	4073
3473.676	4087
3475.392	4113
3477.104	4051
3478.817	4140
3480.528	4024
3482.241	3993
3483.954	4040
3485.664	4054
3487.374	4011
3489.084	4012
3490.795	4041
3492.504	4101
3494.214	4085
3495.922	4045
3497.63	3998
3499.338	3943
3501.045	4115
3502.753	4003
3504.459	3946
3506.166	3896
3507.871	3968
3509.576	3995
3511.283	3997
3512.987	3950
3514.691	3992
3516.395	3906
3518.098	3872
3519.8	3906
3521.504	3901
3523.206	3990
3524.908	4029
3526.609	3901
3528.309	3928
3530.011	4005
3531.711	3868
3533.411	3936
3535.109	3917
3536.808	3963
3538.507	3865
3540.206	3913
3541.904	3855
3543.601	3884
3545.297	3889
3546.994	3794
3548.69	3856
3550.387	3870
3552.081	3862
3553.776	3883
3555.47	3873
3557.166	3895
3558.859	3855
3560.553	3788
3562.245	3898
3563.938	3787
3565.629	3871
3567.322	3805
3569.014	3711
3570.704	3804
3572.394	3785
3574.084	3844
3575.775	3834
3577.464	3844
3579.152	3727
3580.842	3743
3582.529	3896
3584.216	3744
3585.905	3773
3587.591	3811
3589.279	3815
3590.964	3749
3592.649	3765
3594.336	3803
3596.021	3751
3597.705	3727
3599.388	3717
3601.072	3685
3602.757	3686
3604.439	3657
3606.122	3726
3607.803	3746
3609.485	3715
3611.167	3671
3612.849	3628
3614.529	3684
3616.208	3748
3617.888	3612
3619.567	3694
3621.247	3611
3622.926	3674
3624.603	3616
3626.281	3620
3627.958	3729
3629.635	3590
3631.312	3534
3632.989	3693
3634.665	3549
3636.339	3619
3638.014	3580
3639.691	3644
3641.364	3539
3643.038	3655
3644.71	3666
3646.384	3700
3648.058	3603
3649.729	3529
3651.402	3540
3653.073	3593
3654.744	3592
3656.414	3589
3658.085	3600
3659.755	3608
3661.424	3573
3663.094	3582
3664.762	3484
3666.431	3503
3668.099	3488
3669.766	3448
3671.433	3446
3673.099	3520
3674.768	3548
3676.433	3586
3678.098	3510
3679.763	3538
3681.428	3507
3683.093	3479
3684.757	3507
3686.421	3498
3688.083	3558
3689.746	3492
3691.408	3520
3693.071	3451
3694.733	3541
3696.394	3461
3698.054	3502
3699.715	3513
3701.375	3462
3703.036	3460
3704.695	3417
3706.354	3412
3708.012	3420
3709.67	3525
3711.329	3450
3712.987	3508
3714.644	3516
3716.299	3452
3717.955	3501
3719.613	3454
3721.268	3465
3722.923	3378
3724.577	3410
3726.231	3424
3727.885	3481
3729.539	3389
3731.192	3349
3732.845	3473
3734.497	3464
3736.149	3409
3737.802	3344
3739.453	3432
3741.104	3487
3742.753	3461
3744.404	3450
3746.052	3434
3747.704	3415
3749.352	3386
3751	3310
3752.648	3310
3754.296	3383
3755.944	3389
3757.59	3435
3759.238	3396
3760.883	3399
3762.528	3388
3764.176	3370
3765.82	3413
3767.464	3364
3769.109	3364
3770.753	3381
3772.396	3330
3774.04	3374
3775.683	3353
3777.325	3326
3778.967	3358
3780.608	3399
3782.25	3352
3783.89	3339
3785.531	3368
3787.17	3357
3788.81	3344
3790.45	3304
3792.09	3275
3793.729	3274
3795.366	3293
3797.003	3263
3798.64	3359
3800.278	3238
3801.915	3212
3803.551	3336
3805.187	3224
3806.822	3357
3808.458	3274
3810.093	3320
3811.726	3310
3813.36	3253
3814.994	3186
3816.627	3240
3818.262	3271
3819.893	3229
3821.525	3199
3823.157	3213
3824.787	3255
3826.42	3236
3828.051	3238
3829.68	3235
3831.31	3323
3832.938	3246
3834.569	3244
3836.198	3191
3837.825	3215
3839.454	3240
3841.08	3183
3842.708	3199
3844.335	3202
3845.962	3166
3847.587	3206
3849.212	3172
3850.838	3101
3852.463	3255
3854.089	3270
3855.712	3153
3857.335	3209
3858.959	3218
3860.582	3155
3862.205	3201
3863.827	3218
3865.449	3213
3867.07	3125
3868.691	3224
3870.312	3166
3871.933	3226
3873.553	3191
3875.173	3187
3876.792	3149
3878.411	3086
3880.03	3169
3881.647	3117
3883.265	3166
3884.882	3030
3886.499	3124
3888.116	3135
3889.732	3116
3891.348	3165
3892.964	3087
3894.579	3185
3896.195	3204
3897.809	3072
3899.423	3083
3901.036	3235
3902.648	3082
3904.261	3039
3905.875	3142
3907.487	3094
3909.099	3125
3910.709	3069
3912.321	3154
3913.933	3149
3915.542	3133
3917.152	3219
3918.762	3089
3920.37	3045
3921.98	3009
3923.589	3102
3925.196	3183
3926.804	3090
3928.41	3032
3930.018	3043
3931.626	3137
3933.231	3062
3934.838	3105
3936.442	3060
3938.046	3080
3939.653	3101
3941.257	3095
3942.861	3058
3944.464	3022
3946.068	3016
3947.67	3011
3949.273	3089
3950.876	3001
3952.477	3046
3954.078	3067
3955.678	3091
3957.281	3012
3958.881	2974
3960.48	3043
3962.079	3036
3963.678	2998
3965.279	3090
3966.877	3010
3968.475	3039
3970.072	3012
3971.669	2979
3973.266	3022
3974.864	2987
3976.459	2999
3978.055	3008
3979.65	2987
3981.245	3043
3982.841	3008
3984.436	2954
3986.03	2973
3987.623	2889
3989.216	2919
3990.809	2946
3992.403	2941
3993.995	2906
3995.586	2901
3997.177	2931
3998.768	2907
4000.361	2892
4001.951	2868
4003.54	2959
4005.13	2856
4006.719	2908
4008.31	2936
4009.897	2972
4011.485	2883
4013.073	2924
4014.66	2872
4016.247	2925
4017.834	2824
4019.421	2909
4021.006	2877
4022.592	2885
4024.178	2867
4025.763	2882
4027.348	2851
4028.932	2909
4030.515	2923
4032.099	2876
4033.682	2842
4035.266	2860
4036.847	2799
4038.429	2804
4040.011	2876
4041.592	2860
4043.173	2810
4044.755	2767
4046.334	2795
4047.913	2877
4049.494	2774
4051.074	2780
4052.652	2795
4054.23	2794
4055.807	2809
4057.385	2875
4058.963	2914
4060.541	2841
4062.117	2818
4063.693	2776
4065.269	2809
4066.844	2797
4068.42	2820
4069.995	2773
4071.569	2783
4073.143	2759
4074.716	2819
4076.291	2801
4077.864	2710
4079.436	2730
4081.009	2777
4082.58	2794
4084.152	2767
4085.723	2719
4087.294	2722
4088.865	2717
4090.435	2803
4092.005	2802
4093.574	2725
4095.143	2726
4096.712	2720
4098.279	2747
4099.848	2775
4101.416	2777
4102.984	2746
4104.55	2778
4106.117	2723
4107.682	2724
4109.248	2732
4110.815	2765
4112.379	2710
4113.945	2760
4115.508	2743
4117.073	2683
4118.637	2813
4120.201	2749
4121.763	2735
4123.325	2729
4124.888	2634
4126.449	2780
4128.013	2667
4129.573	2688
4131.133	2749
4132.694	2677
4134.254	2703
4135.814	2670
4137.374	2720
4138.933	2675
4140.491	2633
4142.049	2628
4143.607	2705
4145.167	2658
4146.724	2656
4148.28	2671
4149.836	2640
4151.392	2678
4152.949	2600
4154.504	2618
4156.059	2628
4157.614	2739
4159.168	2637
4160.723	2579
4162.277	2677
4163.83	2648
4165.383	2653
4166.936	2616
4168.488	2587
4170.041	2596
4171.593	2628
4173.144	2531
4174.695	2606
4176.246	2622
4177.796	2530
4179.346	2609
4180.896	2608
4182.445	2606
4183.994	2532
4185.542	2515
4187.091	2600
4188.639	2596
4190.185	2535
4191.732	2582
4193.279	2535
4194.826	2577
4196.373	2565
4197.918	2539
4199.463	2606
4201.008	2576
4202.553	2570
4204.098	2518
4205.641	2620
4207.185	2578
4208.728	2501
4210.271	2510
4211.814	2543
4213.357	2561
4214.898	2545
4216.439	2502
4217.98	2476
4219.522	2553
4221.062	2523
4222.603	2535
4224.142	2565
4225.681	2530
4227.222	2525
4228.76	2511
4230.298	2465
4231.835	2549
4233.373	2392
4234.911	2505
4236.449	2493
4237.985	2456
4239.521	2491
4241.057	2518
4242.592	2558
4244.128	2458
4245.663	2490
4247.197	2451
4248.731	2504
4250.265	2548
4251.798	2469
4253.333	2447
4254.865	2460
4256.397	2459
4257.93	2450
4259.461	2435
4260.994	2460
4262.525	2442
4264.056	2454
4265.586	2472
4267.115	2454
4268.646	2452
4270.176	2509
4271.705	2496
4273.232	2394
4274.761	2447
4276.289	2401
4277.818	2385
4279.345	2493
4280.872	2431
4282.399	2382
4283.924	2434
4285.452	2431
4286.976	2434
4288.502	2515
4290.026	2432
4291.551	2457
4293.074	2408
4294.6	2493
4296.123	2467
4297.646	2483
4299.168	2418
4300.691	2416
4302.214	2412
4303.736	2461
4305.257	2408
4306.778	2393
4308.299	2406
4309.82	2448
4311.34	2391
4312.86	2405
4314.379	2381
