400.0745	6090
402.597	6125
405.1208	6071
407.6419	6155
410.1623	6301
412.6819	6204
415.201	6295
417.7172	6316
420.2369	6284
422.7538	6409
425.2701	6328
427.7856	6493
430.3005	6504
432.8147	6509
435.3282	6508
437.841	6533
440.3511	6542
442.8625	6599
445.3753	6588
447.8854	6561
450.3927	6656
452.9014	6615
455.4073	6625
457.9146	6727
460.4233	6541
462.9272	6611
465.4325	6744
467.935	6569
470.4389	6621
472.9421	6643
475.4446	6536
477.9444	6734
480.4456	6462
482.944	6658
485.4417	6619
487.9429	6742
490.4393	6749
492.935	6642
495.4321	6842
497.9264	6861
500.4221	6760
502.9171	6744
505.4094	6797
507.9011	6806
510.392	6801
512.8864	6958
515.3759	6796
517.8649	6866
520.3531	6916
522.8406	6818
525.3275	6830
527.8178	6802
530.3033	6812
532.7881	6869
535.2723	6755
537.7558	6928
540.2407	6791
542.7228	6797
545.2043	6821
547.6851	6903
550.1652	6878
552.6467	6966
555.1255	6839
557.6016	6959
560.079	6890
562.5557	6930
565.0318	6919
567.5092	6995
569.984	7086
572.456	7047
574.9294	7009
577.4022	7078
579.8762	7143
582.3456	7163
584.8163	7227
587.2863	7253
589.7557	7367
592.2224	7288
594.6924	7216
597.1578	7192
599.6245	7158
602.0905	7202
604.5538	7115
607.0206	7147
609.4825	7214
611.9459	7180
614.4066	7134
616.8686	7188
619.33	7162
621.7906	7101
624.2487	7158
626.708	7005
629.1647	7136
631.6207	7219
634.0801	7225
636.5348	7086
638.9888	7117
641.4442	7124
643.8969	7095
646.3509	7208
648.8022	7121
651.255	7245
653.705	7163
656.1544	7286
658.6031	7274
661.0532	7322
663.5026	7301
665.9493	7278
668.3954	7318
670.8409	7305
673.2877	7373
675.7318	7364
678.1752	7331
680.618	7394
683.0601	7400
685.5035	7389
687.9444	7405
690.3845	7389
692.824	7487
695.2628	7352
697.701	7507
700.1406	7418
702.5774	7306
705.0116	7412
707.4472	7436
709.8821	7502
712.3183	7550
714.7519	7573
717.1829	7493
719.6151	7655
722.0468	7607
724.4777	7565
726.908	7597
729.3377	7733
731.7667	7641
734.1931	7663
736.6208	7722
739.0498	7662
741.4742	7730
743.9	7878
746.3231	7796
748.7476	7803
751.1713	7822
753.5945	7812
756.015	7825
758.4368	7774
760.856	7888
763.2766	7945
765.6965	8044
768.1157	7883
770.5323	8006
772.9483	7914
775.3656	7845
777.7822	7896
780.1963	8016
782.6116	7946
785.0244	7815
787.4365	7931
789.8499	8047
792.2626	7922
794.6728	7988
797.0823	7868
799.4911	7937
801.8994	7946
804.3109	8097
806.7178	8032
809.124	8043
811.5297	8184
813.9347	8075
816.341	8001
818.7447	8131
821.1478	8189
823.5502	8103
825.952	8110
828.3531	8115
830.7556	7928
833.1554	8112
835.5546	8050
837.9532	8101
840.3511	8121
842.7504	8264
845.1451	8250
847.5411	8138
849.9365	8332
852.3312	8254
854.7272	8259
857.1187	8329
859.5115	8307
861.9037	8247
864.2952	8240
866.6842	8132
869.0764	8176
871.4661	8192
873.8531	8262
876.2415	8132
878.6272	8329
881.0162	8184
883.4026	8252
885.7866	8154
888.1717	8267
890.5543	8119
892.9382	8193
895.3215	8083
897.7041	8230
900.0842	8156
902.4655	8201
904.8443	8213
907.2244	8069
909.6039	8218
911.9808	8248
914.357	8301
916.7346	8366
919.1115	8405
921.4859	8513
923.8616	8469
926.2347	8522
928.6071	8566
930.979	8488
933.3541	8496
935.7247	8652
938.0946	8653
940.4639	8866
942.8326	8845
945.2026	8861
947.5701	9118
949.9369	9134
952.305	9518
954.6705	9623
957.0355	10037
959.4017	10256
961.7654	10396
964.1284	10333
966.4908	10166
968.8527	9828
971.2138	9466
973.5743	9124
975.9343	8961
978.2936	8814
980.6522	8730
983.0122	8510
985.3696	8504
987.7245	8523
990.0807	8407
992.4362	8529
994.7911	8568
997.1474	8445
999.4991	8535
1001.852	8544
1004.205	8544
1006.555	8420
1008.908	8477
1011.258	8629
1013.606	8406
1015.956	8497
1018.302	8545
1020.652	8573
1022.998	8542
1025.345	8645
1027.691	8656
1030.035	8721
1032.378	8649
1034.724	8565
1037.066	8639
1039.409	8781
1041.75	8684
1044.092	8773
1046.433	8627
1048.771	8720
1051.112	8630
1053.449	8692
1055.786	8733
1058.124	8605
1060.462	8680
1062.797	8704
1065.131	8741
1067.467	8909
1069.8	8708
1072.135	8906
1074.467	8947
1076.798	8819
1079.129	8775
1081.459	8722
1083.792	8919
1086.121	8699
1088.449	8782
1090.777	8690
1093.104	8734
1095.431	8745
1097.759	8738
1100.084	8748
1102.408	8519
1104.732	8640
1107.056	8709
1109.379	8877
1111.701	8620
1114.022	8570
1116.343	8736
1118.664	8741
1120.983	8802
1123.303	8793
1125.621	8682
1127.939	8763
1130.256	8690
1132.573	8684
1134.889	8655
1137.205	8735
1139.52	8734
1141.832	8607
1144.146	8570
1146.461	8752
1148.771	8627
1151.083	8685
1153.392	8730
1155.703	8612
1158.011	8654
1160.323	8628
1162.629	8741
1164.938	8778
1167.243	8692
1169.55	8778
1171.857	8722
1174.163	8813
1176.466	8717
1178.769	8734
1181.073	8823
1183.374	8788
1185.677	8713
1187.979	8693
1190.279	8809
1192.578	8574
1194.878	8735
1197.178	8722
1199.476	8606
1201.772	8687
1204.068	8637
1206.366	8822
1208.663	8816
1210.957	8721
1213.251	8641
1215.544	8978
1217.836	8705
1220.128	8794
1222.421	8804
1224.712	8790
1227.002	8884
1229.292	8860
1231.581	8972
1233.871	8950
1236.159	8942
1238.446	9058
1240.732	9112
1243.018	9120
1245.304	9017
1247.59	9004
1249.874	9079
1252.156	9116
1254.439	8951
1256.721	9087
1259.005	9006
1261.286	9038
1263.565	8904
1265.845	9022
1268.125	9094
1270.403	9130
1272.682	9004
1274.959	9032
1277.234	9009
1279.511	9223
1281.787	8992
1284.062	8914
1286.337	9004
1288.609	9031
1290.882	8824
1293.153	8783
1295.428	9058
1297.698	8940
1299.969	8953
1302.237	8878
1304.507	8852
1306.777	8871
1309.044	8843
1311.312	8857
1313.578	8837
1315.844	8872
1318.109	8837
1320.375	8844
1322.638	8841
1324.903	8823
1327.165	8847
1329.427	8857
1331.69	8943
1333.952	8855
1336.212	8847
1338.471	8782
1340.73	8864
1342.988	8766
1345.248	8891
1347.505	8776
1349.763	8845
1352.019	8904
1354.274	8787
1356.53	8927
1358.784	8955
1361.038	8740
1363.291	8844
1365.543	8862
1367.797	8903
1370.048	8879
1372.296	8911
1374.546	8922
1376.796	9045
1379.045	8932
1381.295	8912
1383.542	9069
1385.787	8894
1388.034	9061
1390.28	8973
1392.527	8997
1394.772	9045
1397.014	9041
1399.258	8912
1401.501	9109
1403.741	9037
1405.985	9038
1408.226	8984
1410.465	9140
1412.705	9218
1414.943	9117
1417.184	9226
1419.42	9104
1421.658	9248
1423.894	9025
1426.13	9116
1428.366	9108
1430.602	9200
1432.835	9157
1435.069	9128
1437.301	9318
1439.535	9111
1441.767	9176
1443.997	9325
1446.229	9156
1448.458	9320
1450.687	9275
1452.916	9229
1455.146	9345
1457.372	9372
1459.599	9257
1461.824	9449
1464.051	9251
1466.277	9240
1468.501	9238
1470.725	9189
1472.948	9217
1475.17	9072
1477.393	9170
1479.614	8932
1481.837	9079
1484.057	9022
1486.276	8905
1488.497	8994
1490.715	9004
1492.932	8962
1495.148	8973
1497.364	8857
1499.58	8900
1501.798	8894
1504.012	8850
1506.227	8745
1508.44	8906
1510.653	8803
1512.866	8810
1515.078	8810
1517.289	8822
1519.5	8940
1521.711	8803
1523.92	8988
1526.13	8810
1528.338	8947
1530.544	8916
1532.752	8803
1534.959	8745
1537.165	8875
1539.371	8906
1541.574	8867
1543.779	8901
1545.983	8924
1548.187	9022
1550.39	8974
1552.59	8984
1554.792	9053
1556.991	8881
1559.19	8835
1561.392	9141
1563.59	9024
1565.789	8899
1567.986	8928
1570.182	9148
1572.381	9118
1574.576	8996
1576.771	9012
1578.966	9134
1581.16	9205
1583.354	9100
1585.546	9068
1587.74	9280
1589.931	9140
1592.121	9166
1594.311	9173
1596.502	9074
1598.693	9106
1600.881	9120
1603.069	9127
1605.256	9170
1607.445	9268
1609.631	9069
1611.816	9285
1614.001	9286
1616.186	9133
1618.37	9285
1620.555	9016
1622.737	9185
1624.919	9271
1627.101	9226
1629.282	9200
1631.463	9353
1633.643	9302
1635.822	9423
1638.001	9336
1640.179	9129
1642.359	9213
1644.534	9156
1646.711	9256
1648.887	9269
1651.062	9360
1653.235	9382
1655.412	9371
1657.586	9291
1659.757	9376
1661.93	9272
1664.1	9283
1666.274	9468
1668.445	9489
1670.614	9292
1672.784	9454
1674.951	9291
1677.12	9311
1679.289	9443
1681.457	9346
1683.622	9365
1685.789	9252
1687.953	9291
1690.121	9321
1692.284	9269
1694.447	9340
1696.611	9117
1698.772	9152
1700.935	9159
1703.098	9202
1705.258	9295
1707.417	9161
1709.576	9149
1711.736	9089
1713.896	9091
1716.053	9175
1718.21	9250
1720.366	9052
1722.522	9094
1724.68	9045
1726.835	9089
1728.989	9160
1731.142	9182
1733.295	9075
1735.449	9185
1737.601	9010
1739.753	9115
1741.903	8941
1744.054	9190
1746.203	9188
1748.354	9017
1750.503	9250
1752.651	9169
1754.798	9026
1756.944	9113
1759.092	9143
1761.238	9141
1763.383	9107
1765.528	9133
1767.672	9098
1769.814	9225
1771.959	9022
1774.102	9085
1776.242	9198
1778.384	9290
1780.525	9203
1782.665	9135
1784.805	9083
1786.945	9265
1789.082	9123
1791.22	9320
1793.36	9163
1795.495	9199
1797.632	9213
1799.766	9057
1801.902	9280
1804.035	9145
1806.172	9100
1808.304	9253
1810.436	9081
1812.569	9184
1814.699	9139
1816.833	9232
1818.963	9101
1821.092	9160
1823.222	9068
1825.35	9199
1827.478	9159
1829.608	9218
1831.734	9094
1833.86	9176
1835.986	9177
1838.11	9046
1840.238	9142
1842.362	9064
1844.485	9140
1846.608	9042
1848.73	9016
1850.853	9033
1852.974	9130
1855.097	8961
1857.217	9135
1859.336	8909
1861.455	9198
1863.576	9070
1865.693	9037
1867.811	9051
1869.926	9156
1872.042	9035
1874.16	9071
1876.275	9061
1878.39	9120
1880.504	9126
1882.618	9028
1884.731	9068
1886.843	9056
1888.956	9001
1891.067	9126
1893.178	9138
1895.287	9169
1897.399	9209
1899.508	9137
1901.617	9096
1903.724	9171
1905.832	9243
1907.941	9124
1910.046	9061
1912.152	9155
1914.256	9239
1916.361	9148
1918.464	9146
1920.57	9128
1922.672	9165
1924.775	9071
1926.876	9210
1928.978	9234
1931.08	9203
1933.181	9215
1935.28	9219
1937.38	9245
1939.478	9237
1941.577	9082
1943.675	9300
1945.771	9174
1947.867	9149
1949.964	9256
1952.058	9164
1954.154	9197
1956.248	9107
1958.343	9199
1960.435	9119
1962.527	9212
1964.62	9188
1966.711	9201
1968.802	9261
1970.892	9087
1972.983	9102
1975.072	9044
1977.162	9120
1979.25	9157
1981.337	9145
1983.424	9081
1985.51	9074
1987.598	9159
1989.683	9076
1991.768	9035
1993.852	9093
1995.934	9205
1998.019	9022
2000.102	9094
2002.184	9135
2004.266	9098
2006.347	9129
2008.427	9120
2010.508	9019
2012.587	9081
2014.666	9073
2016.745	9083
2018.821	9140
2020.9	8980
2022.977	9072
2025.052	8958
2027.128	9027
2029.204	9125
2031.277	9108
2033.353	9089
2035.425	9010
2037.499	9043
2039.57	9112
2041.642	9007
2043.714	9150
2045.786	9146
2047.855	9072
2049.925	9095
2051.993	9053
2054.064	9032
2056.132	9053
2058.2	8979
2060.266	9084
2062.332	9089
2064.398	9046
2066.465	8978
2068.529	9162
2070.592	9021
2072.657	9100
2074.719	9110
2076.783	9141
2078.845	9263
2080.907	9034
2082.968	9207
2085.028	9115
2087.087	9108
2089.148	9160
2091.207	9053
2093.264	9138
2095.322	9117
2097.379	9121
2099.439	9145
2101.495	9101
2103.55	9064
2105.605	9029
2107.658	9051
2109.713	8960
2111.767	8970
2113.82	9191
2115.872	8969
2117.924	8974
2119.975	9054
2122.028	9004
2124.078	9134
2126.126	9029
2128.176	9061
2130.225	9000
2132.275	9035
2134.321	9089
2136.368	9027
2138.415	8997
2140.461	8976
2142.505	8950
2144.552	9118
2146.597	8901
2148.64	8931
2150.684	9082
2152.725	9158
2154.77	8938
2156.811	8973
2158.852	8841
2160.894	8944
2162.933	8987
2164.973	8950
2167.013	8853
2169.051	8838
2171.089	8895
2173.126	8894
2175.164	8862
2177.201	8898
2179.236	9038
2181.273	8900
2183.307	8989
2185.341	8783
2187.377	8775
2189.41	8789
2191.442	8774
2193.473	8803
2195.506	8818
2197.539	8910
2199.569	8661
2201.598	8751
2203.628	8852
2205.656	8809
2207.686	8828
2209.716	8867
2211.743	8792
2213.769	8679
2215.796	8873
2217.821	8904
2219.848	8810
2221.873	8718
2223.897	8707
2225.921	8668
2227.944	8755
2229.967	8743
2231.991	8694
2234.011	8787
2236.032	8670
2238.053	8612
2240.073	8682
2242.094	8647
2244.114	8860
2246.131	8753
2248.149	8665
2250.167	8777
2252.186	8690
2254.201	8647
2256.218	8667
2258.233	8702
2260.247	8717
2262.262	8750
2264.278	8626
2266.29	8904
2268.303	8604
2270.315	8664
2272.327	8686
2274.341	8837
2276.35	8705
2278.361	8765
2280.37	8658
2282.38	8763
2284.388	8634
2286.397	8635
2288.405	8753
2290.412	8732
2292.419	8647
2294.425	8735
2296.431	8614
2298.437	8786
2300.441	8693
2302.445	8692
2304.449	8623
2306.453	8652
2308.455	8776
2310.457	8709
2312.459	8657
2314.46	8648
2316.46	8609
2318.461	8701
2320.46	8532
2322.458	8724
2324.458	8608
2326.456	8638
2328.455	8543
2330.451	8630
2332.447	8593
2334.443	8643
2336.438	8675
2338.433	8614
2340.429	8521
2342.422	8559
2344.416	8538
2346.408	8662
2348.399	8610
2350.393	8446
2352.384	8528
2354.375	8494
2356.365	8594
2358.355	8499
2360.344	8497
2362.333	8590
2364.322	8591
2366.309	8537
2368.295	8545
2370.282	8577
2372.27	8514
2374.256	8345
2376.24	8477
2378.225	8423
2380.208	8455
2382.194	8626
2384.177	8485
2386.159	8432
2388.142	8463
2390.122	8433
2392.105	8459
2394.085	8293
2396.066	8345
2398.044	8452
2400.024	8422
2402.002	8400
2403.982	8475
2405.959	8393
2407.935	8441
2409.913	8346
2411.888	8333
2413.865	8206
2415.84	8322
2417.814	8442
2419.788	8405
2421.762	8429
2423.735	8365
2425.708	8536
2427.68	8293
2429.651	8327
2431.623	8423
2433.593	8438
2435.564	8360
2437.533	8368
2439.502	8373
2441.47	8283
2443.438	8431
2445.406	8407
2447.373	8187
2449.34	8272
2451.305	8123
2453.271	8366
2455.235	8332
2457.201	8192
2459.165	8300
2461.129	8381
2463.092	8242
2465.054	8411
2467.018	8380
2468.978	8261
2470.939	8220
2472.899	8374
2474.86	8376
2476.819	8267
2478.778	8243
2480.737	8253
2482.695	8228
2484.653	8366
2486.609	8338
2488.567	8310
2490.524	8392
2492.478	8176
2494.433	8127
2496.387	8153
2498.343	8123
2500.297	8217
2502.249	8196
2504.202	8207
2506.153	8266
2508.105	8203
2510.057	8223
2512.008	8297
2513.957	8209
2515.906	8184
2517.855	8178
2519.805	8103
2521.754	8245
2523.7	8130
2525.647	8065
2527.594	8197
2529.54	8090
2531.486	8059
2533.431	8135
2535.376	8194
2537.32	8136
2539.263	8096
2541.207	8072
2543.151	8211
2545.093	8139
2547.034	8190
2548.975	8110
2550.917	8122
2552.856	8206
2554.796	8116
2556.735	8045
2558.673	8160
2560.611	8244
2562.55	7964
2564.487	8178
2566.424	8174
2568.36	8080
2570.296	8137
2572.232	8051
2574.167	8110
2576.101	8073
2578.035	8172
2579.969	8198
2581.902	8029
2583.834	8105
2585.766	8219
2587.698	8056
2589.628	8199
2591.557	8103
2593.489	8089
2595.419	8074
2597.348	8151
2599.275	8162
2601.204	8070
2603.131	8022
2605.059	8175
2606.986	8133
2608.911	8143
2610.837	8154
2612.76	8201
2614.687	8166
2616.61	8149
2618.534	8179
2620.457	8118
2622.38	8076
2624.302	8172
2626.225	8126
2628.145	8171
2630.067	8144
2631.986	8035
2633.906	8167
2635.827	8024
2637.745	8104
2639.662	8201
2641.581	8103
2643.498	8173
2645.415	8038
2647.331	8029
2649.248	8228
2651.163	8084
2653.077	8104
2654.993	8095
2656.906	8108
2658.821	8163
2660.733	8095
2662.646	8037
2664.557	7999
2666.47	8058
2668.381	7981
2670.291	8101
2672.201	8105
2674.11	8110
2676.021	8070
2677.929	8111
2679.837	8056
2681.745	8025
2683.652	8088
2685.56	8085
2687.466	8194
2689.371	7968
2691.276	8132
2693.181	7958
2695.085	8084
2696.991	7945
2698.893	8004
2700.796	7942
2702.698	7981
2704.601	8001
2706.502	8002
2708.404	7872
2710.304	7975
2712.203	7920
2714.103	7812
2716.003	8029
2717.902	7870
2719.8	7921
2721.697	7895
2723.594	7963
2725.49	7962
2727.389	8002
2729.283	7792
2731.179	7893
2733.073	7957
2734.968	7894
2736.863	7871
2738.757	7831
2740.649	7924
2742.541	7775
2744.433	7848
2746.324	7761
2748.216	7821
2750.107	7870
2751.997	7888
2753.886	7903
2755.776	7872
2757.666	7785
2759.553	7846
2761.44	7786
2763.327	7817
2765.215	7761
2767.102	7817
2768.988	7808
2770.873	7866
2772.757	7871
2774.641	7851
2776.525	7920
2778.41	7797
2780.292	7884
2782.175	7811
2784.057	7732
2785.938	7740
2787.821	7800
2789.701	7812
2791.581	7801
2793.461	7683
2795.34	7805
2797.219	7695
2799.099	7765
2800.975	7767
2802.853	7858
2804.73	7679
2806.606	7720
2808.484	7820
2810.358	7676
2812.233	7721
2814.108	7737
2815.981	7666
2817.857	7711
2819.73	7751
2821.602	7779
2823.474	7575
2825.346	7610
2827.217	7718
2829.089	7737
2830.959	7794
2832.829	7849
2834.698	7722
2836.567	7683
2838.436	7709
2840.305	7731
2842.172	7751
2844.04	7728
2845.905	7799
2847.772	7716
2849.639	7735
2851.503	7910
2853.369	7787
2855.232	7857
2857.096	7778
2858.961	7821
2860.824	7914
2862.686	7824
2864.547	7811
2866.41	7931
2868.272	7853
2870.132	7934
2871.992	8151
2873.851	8165
2875.711	8048
2877.57	8144
2879.429	8227
2881.287	8232
2883.144	8149
2885.001	8219
2886.857	8287
2888.714	8254
2890.57	8269
2892.425	8340
2894.279	8148
2896.133	8233
2897.987	8254
2899.842	8271
2901.694	8156
2903.547	8185
2905.397	8069
2907.249	8329
2909.101	8157
2910.952	8240
2912.802	8367
2914.652	8371
2916.5	8418
2918.35	8388
2920.198	8580
2922.045	8569
2923.893	8657
2925.74	8520
2927.585	8846
2929.433	8710
2931.279	8870
2933.123	8923
2934.968	8917
2936.811	9089
2938.656	8887
2940.5	9112
2942.342	9084
2944.185	9061
2946.026	9227
2947.87	9245
2949.71	9174
2951.549	9100
2953.39	9120
2955.229	8934
2957.069	8911
2958.908	8771
2960.746	8829
2962.584	8690
2964.421	8676
2966.257	8619
2968.094	8518
2969.931	8450
2971.766	8443
2973.601	8431
2975.435	8344
2977.27	8456
2979.105	8475
2980.938	8401
2982.77	8302
2984.602	8394
2986.434	8132
2988.267	8221
2990.097	8195
2991.927	8192
2993.757	8172
2995.587	8030
2997.417	8073
2999.246	8001
3001.074	7948
3002.902	7914
3004.729	7685
3006.556	7652
3008.384	7666
3010.21	7736
3012.036	7832
3013.861	7502
3015.684	7482
3017.51	7466
3019.334	7502
3021.157	7396
3022.981	7420
3024.802	7307
3026.624	7306
3028.448	7313
3030.267	7387
3032.088	7252
3033.909	7319
3035.728	7270
3037.549	7174
3039.368	7250
3041.186	7318
3043.004	7198
3044.821	7290
3046.64	7221
3048.455	7180
3050.272	7393
3052.087	7304
3053.903	7145
3055.717	7158
3057.534	7197
3059.347	7200
3061.16	7119
3062.974	7236
3064.785	7311
3066.598	7171
3068.411	7167
3070.222	7090
3072.032	7256
3073.844	7122
3075.653	7246
3077.463	7211
3079.272	7117
3081.08	7043
3082.889	7114
3084.697	6959
3086.505	7058
3088.312	7104
3090.118	7204
3091.924	6953
3093.729	7055
3095.535	6932
3097.34	7018
3099.144	7057
3100.947	6864
3102.75	6923
3104.553	7083
3106.357	6967
3108.159	6896
3109.961	7027
3111.762	6998
3113.562	6948
3115.365	6871
3117.164	6885
3118.964	6909
3120.761	6926
3122.56	6890
3124.36	6862
3126.158	6968
3127.954	6807
3129.75	6900
3131.547	6869
3133.343	6833
3135.139	6798
3136.934	6904
3138.729	6882
3140.522	6771
3142.317	6822
3144.11	6858
3145.904	6807
3147.695	6788
3149.488	6763
3151.28	6772
3153.07	6741
3154.863	6721
3156.652	6744
3158.441	6758
3160.231	6767
3162.019	6868
3163.81	6609
3165.597	6656
3167.384	6750
3169.172	6785
3170.958	6801
3172.745	6696
3174.532	6871
3176.317	6695
3178.101	6673
3179.885	6544
3181.67	6647
3183.455	6745
3185.238	6703
3187.02	6693
3188.802	6644
3190.585	6690
3192.368	6552
3194.149	6655
3195.929	6696
3197.709	6517
3199.489	6688
3201.268	6621
3203.048	6694
3204.826	6712
3206.604	6597
3208.382	6569
3210.159	6680
3211.937	6628
3213.713	6640
3215.489	6633
3217.263	6582
3219.038	6602
3220.815	6554
3222.589	6513
3224.363	6693
3226.136	6683
3227.908	6693
3229.681	6532
3231.454	6684
3233.226	6637
3234.996	6606
3236.767	6623
3238.538	6719
3240.308	6636
3242.078	6626
3243.847	6552
3245.615	6566
3247.384	6526
3249.15	6648
3250.92	6666
3252.686	6615
3254.453	6564
3256.218	6729
3257.984	6552
3259.75	6542
3261.515	6584
3263.279	6719
3265.044	6537
3266.806	6529
3268.57	6620
3270.334	6625
3272.095	6577
3273.856	6511
3275.619	6590
3277.379	6680
3279.14	6612
3280.9	6525
3282.661	6465
3284.419	6668
3286.178	6582
3287.937	6543
3289.695	6567
3291.453	6520
3293.21	6584
3294.967	6660
3296.723	6523
3298.48	6639
3300.235	6642
3301.99	6583
3303.744	6460
3305.498	6530
3307.253	6578
3309.006	6530
3310.759	6509
3312.511	6695
3314.263	6473
3316.017	6687
3317.768	6739
3319.519	6558
3321.268	6544
3323.018	6597
3324.767	6559
3326.518	6512
3328.267	6534
3330.014	6586
3331.762	6456
3333.509	6560
3335.258	6455
3337.003	6438
3338.75	6547
3340.496	6476
3342.24	6369
3343.987	6602
3345.732	6501
3347.475	6490
3349.219	6521
3350.961	6409
3352.705	6393
3354.448	6429
3356.19	6386
3357.931	6342
3359.672	6432
3361.412	6540
3363.155	6374
3364.894	6461
3366.633	6362
3368.372	6435
3370.11	6353
3371.849	6317
3373.588	6436
3375.325	6304
3377.061	6382
3378.799	6262
3380.534	6403
3382.271	6221
3384.006	6333
3385.741	6353
3387.475	6349
3389.209	6326
3390.944	6288
3392.677	6337
3394.409	6226
3396.143	6283
3397.874	6399
3399.606	6309
3401.338	6275
3403.069	6280
3404.799	6295
3406.528	6318
3408.258	6310
3409.988	6279
3411.717	6283
3413.445	6267
3415.173	6267
3416.899	6236
3418.626	6318
3420.354	6227
3422.08	6190
3423.806	6139
3425.531	6211
3427.255	6238
3428.981	6258
3430.705	6186
3432.429	6180
3434.151	6105
3435.875	6322
3437.599	6245
3439.321	6123
3441.042	6193
3442.763	6178
3444.483	6098
3446.204	6242
3447.926	6108
3449.645	6043
3451.364	6107
3453.082	5986
3454.801	6210
3456.52	6125
3458.238	6046
3459.954	6084
3461.671	5945
3463.387	6022
3465.104	6015
3466.82	6028
3468.534	6072
3470.25	6020
3471.963	6014
3473.676	5837
3475.392	5967
3477.104	5897
3478.817	6040
3480.528	5948
3482.241	5935
3483.954	6003
3485.664	5869
3487.374	5911
3489.084	5843
3490.795	5977
3492.504	5869
3494.214	5878
3495.922	5861
3497.63	5998
3499.338	5859
3501.045	5887
3502.753	5742
3504.459	5801
3506.166	5779
3507.871	5822
3509.576	5838
3511.283	5742
3512.987	5856
3514.691	5713
3516.395	5813
3518.098	5701
3519.8	5689
3521.504	5758
3523.206	5754
3524.908	5831
3526.609	5643
3528.309	5755
3530.011	5837
3531.711	5752
3533.411	5677
3535.109	5674
3536.808	5715
3538.507	5718
3540.206	5693
3541.904	5676
3543.601	5705
3545.297	5593
3546.994	5738
3548.69	5625
3550.387	5624
3552.081	5687
3553.776	5633
3555.47	5749
3557.166	5671
3558.859	5669
3560.553	5616
3562.245	5595
3563.938	5636
3565.629	5610
3567.322	5689
3569.014	5615
3570.704	5674
3572.394	5555
3574.084	5547
3575.775	5531
3577.464	5511
3579.152	5653
3580.842	5653
3582.529	5616
3584.216	5514
3585.905	5490
3587.591	5456
3589.279	5542
3590.964	5525
3592.649	5495
3594.336	5538
3596.021	5481
3597.705	5424
3599.388	5451
3601.072	5501
3602.757	5442
3604.439	5485
3606.122	5411
3607.803	5409
3609.485	5412
3611.167	5348
3612.849	5372
3614.529	5430
3616.208	5433
3617.888	5357
3619.567	5298
3621.247	5354
3622.926	5321
3624.603	5335
3626.281	5298
3627.958	5187
3629.635	5279
3631.312	5261
3632.989	5285
3634.665	5305
3636.339	5242
3638.014	5218
3639.691	5200
3641.364	5284
3643.038	5159
3644.71	5170
3646.384	5247
3648.058	5204
3649.729	5313
3651.402	5240
3653.073	5137
3654.744	5262
3656.414	5195
3658.085	5185
3659.755	5189
3661.424	5154
3663.094	5147
3664.762	5248
3666.431	5157
3668.099	5204
3669.766	5103
3671.433	5075
3673.099	5120
3674.768	5088
3676.433	5102
3678.098	5050
3679.763	5167
3681.428	5149
3683.093	5167
3684.757	5128
3686.421	5142
3688.083	5153
3689.746	5047
3691.408	5131
3693.071	5085
3694.733	4982
3696.394	5045
3698.054	5103
3699.715	5066
3701.375	4988
3703.036	5075
3704.695	5090
3706.354	5000
3708.012	5062
3709.67	4944
3711.329	4958
3712.987	5109
3714.644	5044
3716.299	4979
3717.955	4942
3719.613	5037
3721.268	5005
3722.923	4970
3724.577	4968
3726.231	4986
3727.885	4941
3729.539	4979
3731.192	5072
3732.845	4950
3734.497	5001
3736.149	5142
3737.802	5000
3739.453	4953
3741.104	4899
3742.753	4939
3744.404	4981
3746.052	4961
3747.704	4945
3749.352	4931
3751	4916
3752.648	4969
3754.296	4889
3755.944	4866
3757.59	5022
3759.238	4852
3760.883	4910
3762.528	4906
3764.176	4787
3765.82	4807
3767.464	4896
3769.109	5005
3770.753	4796
3772.396	4841
3774.04	4766
3775.683	4865
3777.325	4911
3778.967	4858
3780.608	4828
3782.25	4849
3783.89	4850
3785.531	4865
3787.17	4739
3788.81	4838
3790.45	4791
3792.09	4786
3793.729	4640
3795.366	4812
3797.003	4758
3798.64	4806
3800.278	4755
3801.915	4845
3803.551	4667
3805.187	4740
3806.822	4761
3808.458	4706
3810.093	4627
3811.726	4738
3813.36	4670
3814.994	4741
3816.627	4685
3818.262	4698
3819.893	4696
3821.525	4702
3823.157	4638
3824.787	4712
3826.42	4707
3828.051	4703
3829.68	4590
3831.31	4626
3832.938	4564
3834.569	4633
3836.198	4701
3837.825	4572
3839.454	4623
3841.08	4657
3842.708	4617
3844.335	4641
3845.962	4581
3847.587	4666
3849.212	4560
3850.838	4622
3852.463	4537
3854.089	4584
3855.712	4551
3857.335	4602
3858.959	4581
3860.582	4700
3862.205	4613
3863.827	4581
3865.449	4570
3867.07	4499
3868.691	4714
3870.312	4527
3871.933	4565
3873.553	4571
3875.173	4588
3876.792	4567
3878.411	4506
3880.03	4510
3881.647	4527
3883.265	4561
3884.882	4482
3886.499	4561
3888.116	4545
3889.732	4483
3891.348	4482
3892.964	4478
3894.579	4578
3896.195	4446
3897.809	4577
3899.423	4496
3901.036	4496
3902.648	4426
3904.261	4587
3905.875	4441
3907.487	4471
3909.099	4523
3910.709	4447
3912.321	4481
3913.933	4506
3915.542	4472
3917.152	4478
3918.762	4531
3920.37	4474
3921.98	4474
3923.589	4510
3925.196	4483
3926.804	4422
3928.41	4448
3930.018	4421
3931.626	4481
3933.231	4461
3934.838	4434
3936.442	4514
3938.046	4370
3939.653	4417
3941.257	4390
3942.861	4482
3944.464	4344
3946.068	4452
3947.67	4393
3949.273	4406
3950.876	4479
3952.477	4433
3954.078	4352
3955.678	4413
3957.281	4391
3958.881	4361
3960.48	4368
3962.079	4393
3963.678	4433
3965.279	4387
3966.877	4322
3968.475	4350
3970.072	4261
3971.669	4339
3973.266	4343
3974.864	4271
3976.459	4317
3978.055	4393
3979.65	4305
3981.245	4273
3982.841	4267
3984.436	4244
3986.03	4272
3987.623	4310
3989.216	4276
3990.809	4298
3992.403	4239
3993.995	4218
3995.586	4172
3997.177	4271
3998.768	4201
4000.361	4207
4001.951	4241
4003.54	4272
4005.13	4229
4006.719	4157
4008.31	4186
4009.897	4158
4011.485	4201
4013.073	4035
4014.66	4137
4016.247	4185
4017.834	4146
4019.421	4156
4021.006	4091
4022.592	4112
4024.178	4168
4025.763	4194
4027.348	4108
4028.932	4133
4030.515	4090
4032.099	4077
4033.682	4071
4035.266	4175
4036.847	4134
4038.429	4029
4040.011	4073
4041.592	4155
4043.173	4049
4044.755	4048
4046.334	4111
4047.913	4024
4049.494	4042
4051.074	4007
4052.652	4066
4054.23	4099
4055.807	4117
4057.385	3996
4058.963	4026
4060.541	4027
4062.117	4037
4063.693	3930
4065.269	3971
4066.844	3956
4068.42	4051
4069.995	3992
4071.569	3946
4073.143	3971
4074.716	3997
4076.291	3952
4077.864	3985
4079.436	3976
4081.009	3956
4082.58	3874
4084.152	3987
4085.723	3895
4087.294	3938
4088.865	3952
4090.435	3964
4092.005	3948
4093.574	3907
4095.143	3996
4096.712	3918
4098.279	3850
4099.848	3929
4101.416	3925
4102.984	3900
4104.55	3924
4106.117	3885
4107.682	3965
4109.248	3920
4110.815	3856
4112.379	3853
4113.945	3931
4115.508	3839
4117.073	3879
4118.637	3888
4120.201	3860
4121.763	3920
4123.325	3847
4124.888	3907
4126.449	3821
4128.013	3935
4129.573	3848
4131.133	3851
4132.694	3834
4134.254	3938
4135.814	3744
4137.374	3890
4138.933	3805
4140.491	3799
4142.049	3757
4143.607	3879
4145.167	3806
4146.724	3815
4148.28	3835
4149.836	3726
4151.392	3763
4152.949	3778
4154.504	3733
4156.059	3736
4157.614	3740
4159.168	3762
4160.723	3785
4162.277	3821
4163.83	3739
4165.383	3691
4166.936	3807
4168.488	3751
4170.041	3746
4171.593	3738
4173.144	3686
4174.695	3719
4176.246	3773
4177.796	3617
4179.346	3706
4180.896	3672
4182.445	3686
4183.994	3666
4185.542	3685
4187.091	3654
4188.639	3665
4190.185	3688
4191.732	3674
4193.279	3728
4194.826	3669
4196.373	3660
4197.918	3575
4199.463	3612
4201.008	3607
4202.553	3620
4204.098	3680
4205.641	3637
4207.185	3624
4208.728	3616
4210.271	3626
4211.814	3605
4213.357	3621
4214.898	3649
4216.439	3511
4217.98	3616
4219.522	3537
4221.062	3521
4222.603	3613
4224.142	3564
4225.681	3531
4227.222	3640
4228.76	3556
4230.298	3598
4231.835	3606
4233.373	3551
4234.911	3489
4236.449	3512
4237.985	3523
4239.521	3598
4241.057	3574
4242.592	3586
4244.128	3610
4245.663	3495
4247.197	3489
4248.731	3595
4250.265	3528
4251.798	3502
4253.333	3532
4254.865	3481
4256.397	3466
4257.93	3495
4259.461	3575
4260.994	3500
4262.525	3489
4264.056	3522
4265.586	3525
4267.115	3441
4268.646	3424
4270.176	3468
4271.705	3447
4273.232	3443
4274.761	3462
4276.289	3478
4277.818	3482
4279.345	3417
4280.872	3494
4282.399	3472
4283.924	3380
4285.452	3428
4286.976	3351
4288.502	3444
4290.026	3389
4291.551	3435
4293.074	3408
4294.6	3467
4296.123	3450
4297.646	3464
4299.168	3458
4300.691	3325
4302.214	3381
4303.736	3410
4305.257	3428
4306.778	3389
4308.299	3323
4309.82	3377
4311.34	3403
4312.86	3445
4314.379	3358
