400.0745	4198
402.597	4239
405.1208	4186
407.6419	4273
410.1623	4272
412.6819	4280
415.201	4314
417.7172	4309
420.2369	4406
422.7538	4409
425.2701	4393
427.7856	4491
430.3005	4520
432.8147	4551
435.3282	4546
437.841	4511
440.3511	4572
442.8625	4561
445.3753	4517
447.8854	4520
450.3927	4608
452.9014	4484
455.4073	4456
457.9146	4532
460.4233	4545
462.9272	4495
465.4325	4572
467.935	4560
470.4389	4552
472.9421	4519
475.4446	4594
477.9444	4512
480.4456	4531
482.944	4517
485.4417	4598
487.9429	4715
490.4393	4612
492.935	4589
495.4321	4661
497.9264	4667
500.4221	4604
502.9171	4749
505.4094	4704
507.9011	4628
510.392	4704
512.8864	4674
515.3759	4836
517.8649	4798
520.3531	4800
522.8406	4841
525.3275	4677
527.8178	4799
530.3033	4669
532.7881	4737
535.2723	4710
537.7558	4706
540.2407	4763
542.7228	4808
545.2043	4736
547.6851	4726
550.1652	4718
552.6467	4764
555.1255	4691
557.6016	4747
560.079	4833
562.5557	4718
565.0318	4733
567.5092	4758
569.984	4859
572.456	4839
574.9294	4793
577.4022	4995
579.8762	4921
582.3456	5001
584.8163	4772
587.2863	4871
589.7557	4925
592.2224	4955
594.6924	4924
597.1578	4903
599.6245	5009
602.0905	4931
604.5538	4862
607.0206	4991
609.4825	4904
611.9459	4997
614.4066	4992
616.8686	4925
619.33	4844
621.7906	4934
624.2487	4945
626.708	4907
629.1647	4977
631.6207	4896
634.0801	4896
636.5348	4858
638.9888	4906
641.4442	4884
643.8969	4972
646.3509	5034
648.8022	4873
651.255	5094
653.705	5044
656.1544	5072
658.6031	5018
661.0532	5014
663.5026	5071
665.9493	5001
668.3954	4977
670.8409	5018
673.2877	5103
675.7318	5073
678.1752	4981
680.618	5128
683.0601	5079
685.5035	5148
687.9444	5156
690.3845	5090
692.824	5065
695.2628	5160
697.701	5123
700.1406	5180
702.5774	5153
705.0116	5170
707.4472	5187
709.8821	5233
712.3183	5309
714.7519	5274
717.1829	5218
719.6151	5283
722.0468	5168
724.4777	5172
726.908	5225
729.3377	5185
731.7667	5248
734.1931	5347
736.6208	5321
739.0498	5213
741.4742	5316
743.9	5305
746.3231	5306
748.7476	5395
751.1713	5507
753.5945	5320
756.015	5415
758.4368	5410
760.856	5492
763.2766	5426
765.6965	5398
768.1157	5397
770.5323	5509
772.9483	5310
775.3656	5516
777.7822	5546
780.1963	5544
782.6116	5399
785.0244	5339
787.4365	5466
789.8499	5555
792.2626	5514
794.6728	5577
797.0823	5520
799.4911	5500
801.8994	5521
804.3109	5442
806.7178	5556
809.124	5541
811.5297	5622
813.9347	5551
816.341	5496
818.7447	5493
821.1478	5589
823.5502	5573
825.952	5625
828.3531	5563
830.7556	5554
833.1554	5500
835.5546	5606
837.9532	5549
840.3511	5490
842.7504	5652
845.1451	5517
847.5411	5513
849.9365	5661
852.3312	5704
854.7272	5693
857.1187	5665
859.5115	5583
861.9037	5674
864.2952	5788
866.6842	5543
869.0764	5578
871.4661	5664
873.8531	5738
876.2415	5659
878.6272	5585
881.0162	5710
883.4026	5620
885.7866	5666
888.1717	5539
890.5543	5588
892.9382	5607
895.3215	5649
897.7041	5621
900.0842	5666
902.4655	5548
904.8443	5712
907.2244	5697
909.6039	5706
911.9808	5661
914.357	5827
916.7346	5796
919.1115	5798
921.4859	5850
923.8616	5901
926.2347	5896
928.6071	5980
930.979	5937
933.3541	5849
935.7247	5910
938.0946	5789
940.4639	5933
942.8326	5879
945.2026	6018
947.5701	6010
949.9369	6209
952.305	6315
954.6705	6406
957.0355	6495
959.4017	6652
961.7654	6793
964.1284	6722
966.4908	6569
968.8527	6357
971.2138	6252
973.5743	6093
975.9343	6029
978.2936	5788
980.6522	5913
983.0122	5861
985.3696	5895
987.7245	5831
990.0807	5878
992.4362	5772
994.7911	5790
997.1474	5775
999.4991	5855
1001.852	5853
1004.205	5950
1006.555	5767
1008.908	5796
1011.258	5873
1013.606	5887
1015.956	5934
1018.302	5875
1020.652	5813
1022.998	5878
1025.345	5979
1027.691	5918
1030.035	5946
1032.378	5969
1034.724	5863
1037.066	5890
1039.409	5838
1041.75	5963
1044.092	5949
1046.433	5939
1048.771	5972
1051.112	5925
1053.449	6011
1055.786	5950
1058.124	5990
1060.462	5979
1062.797	5990
1065.131	6080
1067.467	6069
1069.8	6033
1072.135	6060
1074.467	6000
1076.798	6093
1079.129	6016
1081.459	6016
1083.792	5986
1086.121	5942
1088.449	6022
1090.777	5888
1093.104	5924
1095.431	5933
1097.759	5952
1100.084	6077
1102.408	5958
1104.732	5950
1107.056	5939
1109.379	6089
1111.701	6042
1114.022	5946
1116.343	6105
1118.664	6019
1120.983	5942
1123.303	6094
1125.621	6070
1127.939	5996
1130.256	6141
1132.573	6056
1134.889	6065
1137.205	6098
1139.52	6041
1141.832	6079
1144.146	5950
1146.461	6062
1148.771	5973
1151.083	6034
1153.392	6057
1155.703	6058
1158.011	6042
1160.323	5988
1162.629	6047
1164.938	5963
1167.243	6021
1169.55	5933
1171.857	6049
1174.163	6109
1176.466	5925
1178.769	5992
1181.073	6025
1183.374	6045
1185.677	6023
1187.979	6019
1190.279	6087
1192.578	6063
1194.878	5904
1197.178	6118
1199.476	6013
1201.772	5963
1204.068	6054
1206.366	6065
1208.663	6091
1210.957	6092
1213.251	6035
1215.544	6045
1217.836	5950
1220.128	6024
1222.421	6136
1224.712	6062
1227.002	6132
1229.292	6055
1231.581	6202
1233.871	6065
1236.159	6137
1238.446	6335
1240.732	6097
1243.018	6228
1245.304	6224
1247.59	6206
1249.874	6261
1252.156	6218
1254.439	6300
1256.721	6289
1259.005	6311
1261.286	6368
1263.565	6247
1265.845	6179
1268.125	6259
1270.403	6186
1272.682	6171
1274.959	6256
1277.234	6204
1279.511	6286
1281.787	6199
1284.062	6195
1286.337	6218
1288.609	6244
1290.882	6099
1293.153	6170
1295.428	6109
1297.698	6357
1299.969	6157
1302.237	6179
1304.507	6064
1306.777	6151
1309.044	6180
1311.312	6185
1313.578	6245
1315.844	6100
1318.109	6257
1320.375	6133
1322.638	6106
1324.903	6196
1327.165	6045
1329.427	6180
1331.69	6314
1333.952	6147
1336.212	6229
1338.471	6275
1340.73	6254
1342.988	6148
1345.248	6278
1347.505	6165
1349.763	6241
1352.019	6140
1354.274	6201
1356.53	6121
1358.784	6123
1361.038	6248
1363.291	6221
1365.543	6181
1367.797	6211
1370.048	6211
1372.296	6216
1374.546	6182
1376.796	6309
1379.045	6127
1381.295	6243
1383.542	6324
1385.787	6214
1388.034	6344
1390.28	6202
1392.527	6226
1394.772	6319
1397.014	6222
1399.258	6320
1401.501	6372
1403.741	6391
1405.985	6307
1408.226	6306
1410.465	6297
1412.705	6289
1414.943	6368
1417.184	6496
1419.42	6342
1421.658	6362
1423.894	6268
1426.13	6418
1428.366	6412
1430.602	6255
1432.835	6413
1435.069	6276
1437.301	6325
1439.535	6443
1441.767	6526
1443.997	6400
1446.229	6456
1448.458	6373
1450.687	6508
1452.916	6496
1455.146	6524
1457.372	6548
1459.599	6455
1461.824	6464
1464.051	6431
1466.277	6319
1468.501	6415
1470.725	6351
1472.948	6334
1475.17	6298
1477.393	6374
1479.614	6292
1481.837	6370
1484.057	6206
1486.276	6247
1488.497	6194
1490.715	6265
1492.932	6284
1495.148	6231
1497.364	6218
1499.58	6194
1501.798	6214
1504.012	6285
1506.227	6190
1508.44	6203
1510.653	6166
1512.866	6263
1515.078	6124
1517.289	6208
1519.5	6191
1521.711	6238
1523.92	6156
1526.13	6213
1528.338	6156
1530.544	6219
1532.752	6181
1534.959	6165
1537.165	6156
1539.371	6224
1541.574	6283
1543.779	6283
1545.983	6114
1548.187	6183
1550.39	6228
1552.59	6280
1554.792	6218
1556.991	6203
1559.19	6289
1561.392	6249
1563.59	6422
1565.789	6189
1567.986	6222
1570.182	6372
1572.381	6273
1574.576	6363
1576.771	6351
1578.966	6402
1581.16	6283
1583.354	6410
1585.546	6440
1587.74	6383
1589.931	6299
1592.121	6372
1594.311	6356
1596.502	6403
1598.693	6291
1600.881	6553
1603.069	6495
1605.256	6382
1607.445	6437
1609.631	6402
1611.816	6454
1614.001	6390
1616.186	6353
1618.37	6426
1620.555	6459
1622.737	6501
1624.919	6401
1627.101	6339
1629.282	6344
1631.463	6342
1633.643	6385
1635.822	6410
1638.001	6388
1640.179	6421
1642.359	6448
1644.534	6369
1646.711	6496
1648.887	6393
1651.062	6462
1653.235	6398
1655.412	6381
1657.586	6586
1659.757	6501
1661.93	6420
1664.1	6396
1666.274	6513
1668.445	6355
1670.614	6433
1672.784	6546
1674.951	6436
1677.12	6434
1679.289	6522
1681.457	6405
1683.622	6502
1685.789	6458
1687.953	6455
1690.121	6333
1692.284	6325
1694.447	6324
1696.611	6394
1698.772	6365
1700.935	6337
1703.098	6332
1705.258	6348
1707.417	6372
1709.576	6371
1711.736	6331
1713.896	6405
1716.053	6369
1718.21	6368
1720.366	6241
1722.522	6275
1724.68	6328
1726.835	6266
1728.989	6218
1731.142	6382
1733.295	6263
1735.449	6388
1737.601	6353
1739.753	6304
1741.903	6406
1744.054	6239
1746.203	6317
1748.354	6338
1750.503	6461
1752.651	6259
1754.798	6240
1756.944	6225
1759.092	6374
1761.238	6302
1763.383	6364
1765.528	6378
1767.672	6339
1769.814	6330
1771.959	6295
1774.102	6373
1776.242	6301
1778.384	6449
1780.525	6367
1782.665	6341
1784.805	6393
1786.945	6330
1789.082	6465
1791.22	6357
1793.36	6384
1795.495	6388
1797.632	6439
1799.766	6401
1801.902	6379
1804.035	6434
1806.172	6419
1808.304	6380
1810.436	6337
1812.569	6325
1814.699	6448
1816.833	6358
1818.963	6445
1821.092	6364
1823.222	6288
1825.35	6447
1827.478	6269
1829.608	6420
1831.734	6389
1833.86	6368
1835.986	6371
1838.11	6345
1840.238	6393
1842.362	6341
1844.485	6341
1846.608	6221
1848.73	6386
1850.853	6315
1852.974	6459
1855.097	6350
1857.217	6176
1859.336	6277
1861.455	6255
1863.576	6324
1865.693	6175
1867.811	6268
1869.926	6306
1872.042	6363
1874.16	6348
1876.275	6281
1878.39	6392
1880.504	6357
1882.618	6242
1884.731	6281
1886.843	6483
1888.956	6366
1891.067	6307
1893.178	6368
1895.287	6327
1897.399	6295
1899.508	6389
1901.617	6421
1903.724	6439
1905.832	6368
1907.941	6367
1910.046	6282
1912.152	6297
1914.256	6375
1916.361	6428
1918.464	6496
1920.57	6502
1922.672	6432
1924.775	6544
1926.876	6389
1928.978	6353
1931.08	6453
1933.181	6470
1935.28	6388
1937.38	6411
1939.478	6390
1941.577	6499
1943.675	6494
1945.771	6409
1947.867	6526
1949.964	6464
1952.058	6449
1954.154	6343
1956.248	6476
1958.343	6390
1960.435	6437
1962.527	6364
1964.62	6381
1966.711	6486
1968.802	6469
1970.892	6410
1972.983	6530
1975.072	6318
1977.162	6457
1979.25	6374
1981.337	6336
1983.424	6353
1985.51	6328
1987.598	6373
1989.683	6426
1991.768	6372
1993.852	6399
1995.934	6352
1998.019	6319
2000.102	6231
2002.184	6394
2004.266	6424
2006.347	6260
2008.427	6326
2010.508	6284
2012.587	6387
2014.666	6336
2016.745	6317
2018.821	6344
2020.9	6425
2022.977	6379
2025.052	6324
2027.128	6401
2029.204	6252
2031.277	6306
2033.353	6439
2035.425	6387
2037.499	6359
2039.57	6292
2041.642	6202
2043.714	6307
2045.786	6269
2047.855	6309
2049.925	6265
2051.993	6219
2054.064	6349
2056.132	6287
2058.2	6278
2060.266	6378
2062.332	6311
2064.398	6321
2066.465	6314
2068.529	6315
2070.592	6369
2072.657	6431
2074.719	6415
2076.783	6358
2078.845	6397
2080.907	6406
2082.968	6441
2085.028	6389
2087.087	6244
2089.148	6406
2091.207	6270
2093.264	6256
2095.322	6453
2097.379	6378
2099.439	6351
2101.495	6400
2103.55	6329
2105.605	6494
2107.658	6387
2109.713	6355
2111.767	6273
2113.82	6384
2115.872	6360
2117.924	6371
2119.975	6381
2122.028	6295
2124.078	6207
2126.126	6363
2128.176	6311
2130.225	6226
2132.275	6403
2134.321	6378
2136.368	6313
2138.415	6331
2140.461	6309
2142.505	6306
2144.552	6267
2146.597	6273
2148.64	6245
2150.684	6260
2152.725	6378
2154.77	6284
2156.811	6364
2158.852	6362
2160.894	6310
2162.933	6224
2164.973	6316
2167.013	6337
2169.051	6303
2171.089	6165
2173.126	6208
2175.164	6236
2177.201	6234
2179.236	6251
2181.273	6238
2183.307	6203
2185.341	6194
2187.377	6241
2189.41	6190
2191.442	6224
2193.473	6164
2195.506	6255
2197.539	6233
2199.569	6080
2201.598	6057
2203.628	6247
2205.656	6206
2207.686	6173
2209.716	6162
2211.743	6209
2213.769	6253
2215.796	6210
2217.821	6045
2219.848	6190
2221.873	6124
2223.897	6151
2225.921	6095
2227.944	6107
2229.967	6229
2231.991	6014
2234.011	6094
2236.032	6058
2238.053	6123
2240.073	6117
2242.094	6269
2244.114	6124
2246.131	6116
2248.149	6036
2250.167	6106
2252.186	6096
2254.201	6059
2256.218	6112
2258.233	6110
2260.247	6122
2262.262	6076
2264.278	6181
2266.29	6120
2268.303	6153
2270.315	6106
2272.327	6090
2274.341	6118
2276.35	6019
2278.361	6027
2280.37	6069
2282.38	6131
2284.388	6174
2286.397	6158
2288.405	6190
2290.412	6046
2292.419	6161
2294.425	6171
2296.431	6079
2298.437	6123
2300.441	6039
2302.445	6047
2304.449	6088
2306.453	6119
2308.455	6124
2310.457	6062
2312.459	6144
2314.46	6166
2316.46	6224
2318.461	6105
2320.46	6077
2322.458	6070
2324.458	6030
2326.456	5967
2328.455	5994
2330.451	6071
2332.447	6009
2334.443	6075
2336.438	5925
2338.433	5933
2340.429	5999
2342.422	5998
2344.416	5965
2346.408	6088
2348.399	5912
2350.393	5929
2352.384	6020
2354.375	5907
2356.365	5958
2358.355	6025
2360.344	5960
2362.333	6028
2364.322	5948
2366.309	5961
2368.295	5939
2370.282	5899
2372.27	5984
2374.256	6026
2376.24	6012
2378.225	6032
2380.208	5834
2382.194	5810
2384.177	5940
2386.159	5896
2388.142	5895
2390.122	5791
2392.105	5912
2394.085	5888
2396.066	5872
2398.044	5972
2400.024	5947
2402.002	5972
2403.982	5919
2405.959	5959
2407.935	5929
2409.913	5918
2411.888	5921
2413.865	5873
2415.84	5938
2417.814	5831
2419.788	5926
2421.762	5897
2423.735	5948
2425.708	5840
2427.68	5938
2429.651	6027
2431.623	5840
2433.593	5945
2435.564	5881
2437.533	5819
2439.502	5890
2441.47	5904
2443.438	5840
2445.406	5893
2447.373	5902
2449.34	5811
2451.305	5933
2453.271	5844
2455.235	5870
2457.201	5899
2459.165	5853
2461.129	5804
2463.092	5912
2465.054	5736
2467.018	5815
2468.978	5815
2470.939	5804
2472.899	5903
2474.86	5866
2476.819	5792
2478.778	5875
2480.737	5859
2482.695	5729
2484.653	5816
2486.609	5762
2488.567	5855
2490.524	5879
2492.478	5861
2494.433	5728
2496.387	5736
2498.343	5671
2500.297	5729
2502.249	5699
2504.202	5712
2506.153	5790
2508.105	5821
2510.057	5688
2512.008	5820
2513.957	5832
2515.906	5805
2517.855	5877
2519.805	5648
2521.754	5725
2523.7	5627
2525.647	5891
2527.594	5678
2529.54	5755
2531.486	5666
2533.431	5743
2535.376	5677
2537.32	5765
2539.263	5755
2541.207	5904
2543.151	5691
2545.093	5656
2547.034	5664
2548.975	5740
2550.917	5626
2552.856	5782
2554.796	5762
2556.735	5684
2558.673	5698
2560.611	5828
2562.55	5796
2564.487	5732
2566.424	5618
2568.36	5699
2570.296	5704
2572.232	5746
2574.167	5702
2576.101	5676
2578.035	5655
2579.969	5622
2581.902	5718
2583.834	5691
2585.766	5754
2587.698	5856
2589.628	5791
2591.557	5712
2593.489	5804
2595.419	5833
2597.348	5725
2599.275	5716
2601.204	5810
2603.131	5768
2605.059	5751
2606.986	5754
2608.911	5736
2610.837	5760
2612.76	5696
2614.687	5790
2616.61	5813
2618.534	5770
2620.457	5658
2622.38	5813
2624.302	5765
2626.225	5670
2628.145	5679
2630.067	5772
2631.986	5899
2633.906	5816
2635.827	5726
2637.745	5782
2639.662	5794
2641.581	5726
2643.498	5796
2645.415	5758
2647.331	5770
2649.248	5592
2651.163	5736
2653.077	5635
2654.993	5625
2656.906	5790
2658.821	5565
2660.733	5716
2662.646	5896
2664.557	5651
2666.47	5730
2668.381	5742
2670.291	5706
2672.201	5709
2674.11	5652
2676.021	5641
2677.929	5705
2679.837	5640
2681.745	5679
2683.652	5774
2685.56	5674
2687.466	5765
2689.371	5616
2691.276	5675
2693.181	5720
2695.085	5746
2696.991	5602
2698.893	5679
2700.796	5629
2702.698	5664
2704.601	5564
2706.502	5589
2708.404	5506
2710.304	5666
2712.203	5570
2714.103	5601
2716.003	5636
2717.902	5565
2719.8	5595
2721.697	5587
2723.594	5589
2725.49	5599
2727.389	5706
2729.283	5551
2731.179	5580
2733.073	5638
2734.968	5610
2736.863	5661
2738.757	5562
2740.649	5543
2742.541	5589
2744.433	5606
2746.324	5557
2748.216	5574
2750.107	5642
2751.997	5572
2753.886	5583
2755.776	5541
2757.666	5554
2759.553	5539
2761.44	5519
2763.327	5632
2765.215	5568
2767.102	5493
2768.988	5432
2770.873	5660
2772.757	5499
2774.641	5505
2776.525	5539
2778.41	5592
2780.292	5453
2782.175	5528
2784.057	5540
2785.938	5582
2787.821	5561
2789.701	5484
2791.581	5429
2793.461	5538
2795.34	5496
2797.219	5563
2799.099	5471
2800.975	5473
2802.853	5512
2804.73	5462
2806.606	5512
2808.484	5517
2810.358	5491
2812.233	5589
2814.108	5463
2815.981	5493
2817.857	5464
2819.73	5529
2821.602	5510
2823.474	5497
2825.346	5459
2827.217	5433
2829.089	5446
2830.959	5568
2832.829	5510
2834.698	5566
2836.567	5506
2838.436	5410
2840.305	5447
2842.172	5431
2844.04	5521
2845.905	5476
2847.772	5581
2849.639	5523
2851.503	5440
2853.369	5584
2855.232	5562
2857.096	5547
2858.961	5583
2860.824	5567
2862.686	5542
2864.547	5582
2866.41	5624
2868.272	5675
2870.132	5671
2871.992	5739
2873.851	5742
2875.711	5757
2877.57	5781
2879.429	5861
2881.287	5761
2883.144	5797
2885.001	5751
2886.857	5829
2888.714	5855
2890.57	5869
2892.425	5932
2894.279	5775
2896.133	5885
2897.987	5894
2899.842	5862
2901.694	5850
2903.547	5835
2905.397	5717
2907.249	5836
2909.101	5776
2910.952	5790
2912.802	5856
2914.652	5819
2916.5	5846
2918.35	6016
2920.198	5902
2922.045	5878
2923.893	5929
2925.74	6000
2927.585	6037
2929.433	6019
2931.279	6069
2933.123	6086
2934.968	6076
2936.811	6169
2938.656	6160
2940.5	6213
2942.342	6293
2944.185	6267
2946.026	6193
2947.87	6264
2949.71	6299
2951.549	6253
2953.39	6291
2955.229	6311
2957.069	6185
2958.908	6217
2960.746	6144
2962.584	6115
2964.421	6114
2966.257	6039
2968.094	6085
2969.931	5972
2971.766	5969
2973.601	5834
2975.435	5792
2977.27	5832
2979.105	5826
2980.938	5996
2982.77	5723
2984.602	5761
2986.434	5771
2988.267	5735
2990.097	5691
2991.927	5653
2993.757	5601
2995.587	5566
2997.417	5603
2999.246	5497
3001.074	5559
3002.902	5431
3004.729	5496
3006.556	5479
3008.384	5419
3010.21	5392
3012.036	5454
3013.861	5309
3015.684	5198
3017.51	5345
3019.334	5259
3021.157	5332
3022.981	5290
3024.802	5170
3026.624	5204
3028.448	5115
3030.267	5185
3032.088	5161
3033.909	5218
3035.728	5310
3037.549	5152
3039.368	5148
3041.186	5076
3043.004	5116
3044.821	5188
3046.64	5153
3048.455	5174
3050.272	5187
3052.087	5036
3053.903	5116
3055.717	5116
3057.534	5129
3059.347	5126
3061.16	5143
3062.974	5073
3064.785	5180
3066.598	5006
3068.411	5139
3070.222	5067
3072.032	5099
3073.844	5063
3075.653	5053
3077.463	5173
3079.272	4962
3081.08	5001
3082.889	5102
3084.697	5012
3086.505	5065
3088.312	5059
3090.118	4931
3091.924	4945
3093.729	4929
3095.535	4972
3097.34	4972
3099.144	4969
3100.947	4956
3102.75	4945
3104.553	4923
3106.357	4962
3108.159	4945
3109.961	5002
3111.762	4944
3113.562	4828
3115.365	4824
3117.164	4906
3118.964	4978
3120.761	4890
3122.56	4873
3124.36	4893
3126.158	4879
3127.954	4809
3129.75	4819
3131.547	4859
3133.343	4899
3135.139	4845
3136.934	4933
3138.729	4903
3140.522	4706
3142.317	4776
3144.11	4833
3145.904	4787
3147.695	4778
3149.488	4846
3151.28	4779
3153.07	4888
3154.863	4835
3156.652	4782
3158.441	4773
3160.231	4804
3162.019	4823
3163.81	4754
3165.597	4776
3167.384	4925
3169.172	4834
3170.958	4723
3172.745	4814
3174.532	4776
3176.317	4758
3178.101	4843
3179.885	4831
3181.67	4816
3183.455	4760
3185.238	4818
3187.02	4757
3188.802	4723
3190.585	4836
3192.368	4609
3194.149	4792
3195.929	4693
3197.709	4775
3199.489	4701
3201.268	4783
3203.048	4670
3204.826	4714
3206.604	4690
3208.382	4730
3210.159	4708
3211.937	4749
3213.713	4743
3215.489	4715
3217.263	4704
3219.038	4748
3220.815	4709
3222.589	4737
3224.363	4761
3226.136	4679
3227.908	4649
3229.681	4668
3231.454	4662
3233.226	4699
3234.996	4639
3236.767	4787
3238.538	4691
3240.308	4685
3242.078	4719
3243.847	4703
3245.615	4678
3247.384	4656
3249.15	4690
3250.92	4755
3252.686	4705
3254.453	4716
3256.218	4760
3257.984	4652
3259.75	4689
3261.515	4570
3263.279	4736
3265.044	4689
3266.806	4646
3268.57	4713
3270.334	4611
3272.095	4754
3273.856	4663
3275.619	4673
3277.379	4710
3279.14	4683
3280.9	4696
3282.661	4697
3284.419	4668
3286.178	4710
3287.937	4637
3289.695	4703
3291.453	4656
3293.21	4687
3294.967	4727
3296.723	4620
3298.48	4618
3300.235	4581
3301.99	4607
3303.744	4660
3305.498	4750
3307.253	4669
3309.006	4586
3310.759	4567
3312.511	4580
3314.263	4693
3316.017	4546
3317.768	4670
3319.519	4595
3321.268	4720
3323.018	4574
3324.767	4590
3326.518	4643
3328.267	4566
3330.014	4642
3331.762	4569
3333.509	4658
3335.258	4610
3337.003	4545
3338.75	4554
3340.496	4674
3342.24	4572
3343.987	4619
3345.732	4623
3347.475	4545
3349.219	4537
3350.961	4525
3352.705	4568
3354.448	4490
3356.19	4429
3357.931	4526
3359.672	4576
3361.412	4618
3363.155	4627
3364.894	4603
3366.633	4522
3368.372	4568
3370.11	4516
3371.849	4545
3373.588	4559
3375.325	4402
3377.061	4355
3378.799	4520
3380.534	4520
3382.271	4522
3384.006	4556
3385.741	4496
3387.475	4499
3389.209	4547
3390.944	4559
3392.677	4482
3394.409	4381
3396.143	4574
3397.874	4457
3399.606	4469
3401.338	4434
3403.069	4396
3404.799	4502
3406.528	4487
3408.258	4340
3409.988	4458
3411.717	4468
3413.445	4444
3415.173	4487
3416.899	4433
3418.626	4439
3420.354	4431
3422.08	4371
3423.806	4492
3425.531	4450
3427.255	4359
3428.981	4424
3430.705	4396
3432.429	4443
3434.151	4381
3435.875	4323
3437.599	4509
3439.321	4416
3441.042	4334
3442.763	4323
3444.483	4318
3446.204	4328
3447.926	4309
3449.645	4245
3451.364	4297
3453.082	4270
3454.801	4362
3456.52	4267
3458.238	4295
3459.954	4307
3461.671	4210
3463.387	4365
3465.104	4260
3466.82	4264
3468.534	4205
3470.25	4265
3471.963	4262
3473.676	4230
3475.392	4280
3477.104	4224
3478.817	4265
3480.528	4287
3482.241	4231
3483.954	4194
3485.664	4243
3487.374	4239
3489.084	4194
3490.795	4148
3492.504	4257
3494.214	4101
3495.922	4247
3497.63	4274
3499.338	4161
3501.045	4150
3502.753	4139
3504.459	4132
3506.166	4125
3507.871	4239
3509.576	4105
3511.283	4247
3512.987	4182
3514.691	4116
3516.395	4139
3518.098	4101
3519.8	4118
3521.504	4151
3523.206	4123
3524.908	4148
3526.609	3992
3528.309	4118
3530.011	4073
3531.711	4112
3533.411	4138
3535.109	4078
3536.808	4011
3538.507	4168
3540.206	4083
3541.904	4056
3543.601	4028
3545.297	4134
3546.994	4045
3548.69	4102
3550.387	4032
3552.081	3974
3553.776	4059
3555.47	4047
3557.166	4028
3558.859	4026
3560.553	4043
3562.245	3984
3563.938	3992
3565.629	4045
3567.322	4037
3569.014	3991
3570.704	4004
3572.394	3995
3574.084	3971
3575.775	4044
3577.464	3991
3579.152	3931
3580.842	3973
3582.529	3983
3584.216	3991
3585.905	3997
3587.591	3941
3589.279	3943
3590.964	3940
3592.649	3932
3594.336	4012
3596.021	3937
3597.705	3913
3599.388	3911
3601.072	3932
3602.757	3868
3604.439	4028
3606.122	3914
3607.803	3903
3609.485	3919
3611.167	3852
3612.849	3913
3614.529	3827
3616.208	3847
3617.888	3930
3619.567	3819
3621.247	3766
3622.926	3867
3624.603	3866
3626.281	3872
3627.958	3904
3629.635	3822
3631.312	3808
3632.989	3757
3634.665	3856
3636.339	3855
3638.014	3906
3639.691	3823
3641.364	3753
3643.038	3821
3644.71	3807
3646.384	3798
3648.058	3838
3649.729	3728
3651.402	3757
3653.073	3707
3654.744	3773
3656.414	3715
3658.085	3704
3659.755	3760
3661.424	3791
3663.094	3747
3664.762	3709
3666.431	3858
3668.099	3632
3669.766	3718
3671.433	3860
3673.099	3657
3674.768	3750
3676.433	3672
3678.098	3817
3679.763	3776
3681.428	3732
3683.093	3679
3684.757	3701
3686.421	3718
3688.083	3713
3689.746	3690
3691.408	3691
3693.071	3637
3694.733	3639
3696.394	3781
3698.054	3746
3699.715	3692
3701.375	3666
3703.036	3688
3704.695	3690
3706.354	3629
3708.012	3642
3709.67	3653
3711.329	3626
3712.987	3670
3714.644	3642
3716.299	3668
3717.955	3642
3719.613	3697
3721.268	3548
3722.923	3617
3724.577	3707
3726.231	3634
3727.885	3600
3729.539	3655
3731.192	3654
3732.845	3667
3734.497	3606
3736.149	3614
3737.802	3643
3739.453	3598
3741.104	3638
3742.753	3616
3744.404	3555
3746.052	3547
3747.704	3626
3749.352	3581
3751	3604
3752.648	3597
3754.296	3618
3755.944	3590
3757.59	3453
3759.238	3535
3760.883	3640
3762.528	3594
3764.176	3544
3765.82	3543
3767.464	3600
3769.109	3589
3770.753	3559
3772.396	3535
3774.04	3580
3775.683	3531
3777.325	3558
3778.967	3517
3780.608	3475
3782.25	3473
3783.89	3573
3785.531	3529
3787.17	3460
3788.81	3455
3790.45	3491
3792.09	3546
3793.729	3502
3795.366	3463
3797.003	3468
3798.64	3499
3800.278	3477
3801.915	3426
3803.551	3508
3805.187	3480
3806.822	3428
3808.458	3510
3810.093	3472
3811.726	3475
3813.36	3437
3814.994	3418
3816.627	3425
3818.262	3475
3819.893	3452
3821.525	3504
3823.157	3429
3824.787	3391
3826.42	3529
3828.051	3465
3829.68	3463
3831.31	3388
3832.938	3374
3834.569	3533
3836.198	3372
3837.825	3384
3839.454	3392
3841.08	3420
3842.708	3389
3844.335	3351
3845.962	3460
3847.587	3442
3849.212	3344
3850.838	3439
3852.463	3378
3854.089	3403
3855.712	3363
3857.335	3282
3858.959	3346
3860.582	3375
3862.205	3331
3863.827	3360
3865.449	3346
3867.07	3416
3868.691	3359
3870.312	3309
3871.933	3301
3873.553	3406
3875.173	3396
3876.792	3399
3878.411	3303
3880.03	3339
3881.647	3330
3883.265	3230
3884.882	3290
3886.499	3297
3888.116	3278
3889.732	3330
3891.348	3354
3892.964	3264
3894.579	3294
3896.195	3345
3897.809	3386
3899.423	3329
3901.036	3303
3902.648	3280
3904.261	3298
3905.875	3300
3907.487	3338
3909.099	3231
3910.709	3321
3912.321	3335
3913.933	3271
3915.542	3311
3917.152	3283
3918.762	3255
3920.37	3339
3921.98	3242
3923.589	3317
3925.196	3281
3926.804	3270
3928.41	3264
3930.018	3293
3931.626	3270
3933.231	3272
3934.838	3317
3936.442	3305
3938.046	3233
3939.653	3280
3941.257	3259
3942.861	3299
3944.464	3256
3946.068	3219
3947.67	3261
3949.273	3209
3950.876	3218
3952.477	3258
3954.078	3205
3955.678	3157
3957.281	3231
3958.881	3157
3960.48	3246
3962.079	3219
3963.678	3222
3965.279	3220
3966.877	3220
3968.475	3232
3970.072	3134
3971.669	3204
3973.266	3217
3974.864	3193
3976.459	3211
3978.055	3193
3979.65	3170
3981.245	3159
3982.841	3140
3984.436	3112
3986.03	3178
3987.623	3264
3989.216	3190
3990.809	3100
3992.403	3117
3993.995	3116
3995.586	3181
3997.177	3114
3998.768	3088
4000.361	3154
4001.951	3124
4003.54	3033
4005.13	3029
4006.719	3042
4008.31	3066
4009.897	3125
4011.485	3123
4013.073	3076
4014.66	3032
4016.247	3107
4017.834	3032
4019.421	3058
4021.006	3034
4022.592	3037
4024.178	3090
4025.763	3026
4027.348	3042
4028.932	3040
4030.515	3017
4032.099	3034
4033.682	3040
4035.266	2986
4036.847	3026
4038.429	3016
4040.011	3111
4041.592	2958
4043.173	3034
4044.755	2956
4046.334	2958
4047.913	2923
4049.494	2950
4051.074	2980
4052.652	2987
4054.23	2981
4055.807	2971
4057.385	2906
4058.963	2925
4060.541	3042
4062.117	2978
4063.693	2998
4065.269	2985
4066.844	2974
4068.42	2984
4069.995	2967
4071.569	2996
4073.143	2944
4074.716	3038
4076.291	2974
4077.864	3006
4079.436	2996
4081.009	2950
4082.58	2949
4084.152	2990
4085.723	2965
4087.294	2892
4088.865	2946
4090.435	2930
4092.005	2937
4093.574	2971
4095.143	2910
4096.712	2946
4098.279	2900
4099.848	2924
4101.416	2958
4102.984	2887
4104.55	2847
4106.117	2880
4107.682	2884
4109.248	2860
4110.815	2880
4112.379	2879
4113.945	2903
4115.508	2910
4117.073	2932
4118.637	2901
4120.201	2872
4121.763	2833
4123.325	2857
4124.888	2867
4126.449	2890
4128.013	2926
4129.573	2847
4131.133	2855
4132.694	2837
4134.254	2879
4135.814	2863
4137.374	2807
4138.933	2814
4140.491	2841
4142.049	2810
4143.607	2851
4145.167	2843
4146.724	2834
4148.28	2826
4149.836	2794
4151.392	2827
4152.949	2837
4154.504	2783
4156.059	2824
4157.614	2764
4159.168	2817
4160.723	2812
4162.277	2770
4163.83	2787
4165.383	2817
4166.936	2831
4168.488	2770
4170.041	2769
4171.593	2746
4173.144	2831
4174.695	2799
4176.246	2819
4177.796	2807
4179.346	2753
4180.896	2786
4182.445	2802
4183.994	2764
4185.542	2731
4187.091	2757
4188.639	2720
4190.185	2762
4191.732	2685
4193.279	2766
4194.826	2718
4196.373	2721
4197.918	2722
4199.463	2724
4201.008	2755
4202.553	2709
4204.098	2659
4205.641	2691
4207.185	2701
4208.728	2731
4210.271	2661
4211.814	2681
4213.357	2742
4214.898	2733
4216.439	2673
4217.98	2651
4219.522	2703
4221.062	2705
4222.603	2657
4224.142	2712
4225.681	2611
4227.222	2664
4228.76	2708
4230.298	2722
4231.835	2718
4233.373	2716
4234.911	2661
4236.449	2631
4237.985	2618
4239.521	2686
4241.057	2611
4242.592	2675
4244.128	2696
4245.663	2634
4247.197	2640
4248.731	2648
4250.265	2657
4251.798	2619
4253.333	2611
4254.865	2659
4256.397	2590
4257.93	2682
4259.461	2618
4260.994	2573
4262.525	2640
4264.056	2597
4265.586	2593
4267.115	2581
4268.646	2647
4270.176	2593
4271.705	2571
4273.232	2553
4274.761	2584
4276.289	2611
4277.818	2577
4279.345	2613
4280.872	2612
4282.399	2636
4283.924	2536
4285.452	2595
4286.976	2545
4288.502	2651
4290.026	2536
4291.551	2601
4293.074	2608
4294.6	2573
4296.123	2553
4297.646	2563
4299.168	2576
4300.691	2512
4302.214	2600
4303.736	2591
4305.257	2554
4306.778	2610
4308.299	2552
4309.82	2570
4311.34	2506
4312.86	2574
4314.379	2510
