400.0745	4712
402.597	4855
405.1208	4847
407.6419	4879
410.1623	4787
412.6819	4944
415.201	4918
417.7172	4968
420.2369	5001
422.7538	4866
425.2701	4988
427.7856	5073
430.3005	5086
432.8147	5076
435.3282	5148
437.841	5135
440.3511	5019
442.8625	5057
445.3753	5199
447.8854	5032
450.3927	5106
452.9014	5224
455.4073	5117
457.9146	5128
460.4233	5204
462.9272	5158
465.4325	5202
467.935	5085
470.4389	5185
472.9421	5154
475.4446	5145
477.9444	5110
480.4456	5270
482.944	5219
485.4417	5230
487.9429	5230
490.4393	5225
492.935	5218
495.4321	5309
497.9264	5283
500.4221	5355
502.9171	5302
505.4094	5360
507.9011	5352
510.392	5280
512.8864	5362
515.3759	5415
517.8649	5310
520.3531	5387
522.8406	5215
525.3275	5421
527.8178	5346
530.3033	5407
532.7881	5346
535.2723	5374
537.7558	5376
540.2407	5362
542.7228	5394
545.2043	5384
547.6851	5377
550.1652	5363
552.6467	5479
555.1255	5436
557.6016	5418
560.079	5447
562.5557	5418
565.0318	5386
567.5092	5601
569.984	5464
572.456	5481
574.9294	5534
577.4022	5610
579.8762	5442
582.3456	5609
584.8163	5501
587.2863	5694
589.7557	5643
592.2224	5660
594.6924	5613
597.1578	5635
599.6245	5554
602.0905	5594
604.5538	5650
607.0206	5555
609.4825	5542
611.9459	5660
614.4066	5565
616.8686	5593
619.33	5552
621.7906	5591
624.2487	5512
626.708	5658
629.1647	5579
631.6207	5586
634.0801	5472
636.5348	5620
638.9888	5575
641.4442	5529
643.8969	5627
646.3509	5538
648.8022	5699
651.255	5618
653.705	5613
656.1544	5577
658.6031	5652
661.0532	5669
663.5026	5738
665.9493	5655
668.3954	5757
670.8409	5731
673.2877	5700
675.7318	5749
678.1752	5683
680.618	5775
683.0601	5767
685.5035	5754
687.9444	5804
690.3845	5780
692.824	5749
695.2628	5728
697.701	5783
700.1406	5772
702.5774	5753
705.0116	5805
707.4472	5825
709.8821	5916
712.3183	5903
714.7519	5817
717.1829	5925
719.6151	5873
722.0468	5906
724.4777	5973
726.908	6056
729.3377	5849
731.7667	5918
734.1931	6009
736.6208	5874
739.0498	6046
741.4742	6039
743.9	6125
746.3231	6065
748.7476	6096
751.1713	6260
753.5945	6036
756.015	6109
758.4368	6179
760.856	6176
763.2766	6170
765.6965	6263
768.1157	6245
770.5323	6190
772.9483	6108
775.3656	6227
777.7822	6104
780.1963	6207
782.6116	6305
785.0244	6231
787.4365	6307
789.8499	6250
792.2626	6354
794.6728	6210
797.0823	6261
799.4911	6165
801.8994	6292
804.3109	6213
806.7178	6235
809.124	6108
811.5297	6303
813.9347	6285
816.341	6326
818.7447	6279
821.1478	6312
823.5502	6339
825.952	6357
828.3531	6339
830.7556	6297
833.1554	6255
835.5546	6397
837.9532	6353
840.3511	6362
842.7504	6319
845.1451	6299
847.5411	6373
849.9365	6369
852.3312	6450
854.7272	6460
857.1187	6450
859.5115	6349
861.9037	6437
864.2952	6462
866.6842	6286
869.0764	6466
871.4661	6370
873.8531	6369
876.2415	6459
878.6272	6313
881.0162	6401
883.4026	6536
885.7866	6405
888.1717	6408
890.5543	6337
892.9382	6443
895.3215	6445
897.7041	6391
900.0842	6369
902.4655	6367
904.8443	6445
907.2244	6409
909.6039	6500
911.9808	6482
914.357	6562
916.7346	6571
919.1115	6564
921.4859	6769
923.8616	6656
926.2347	6581
928.6071	6678
930.979	6714
933.3541	6712
935.7247	6757
938.0946	6630
940.4639	6775
942.8326	6861
945.2026	6929
947.5701	6817
949.9369	7118
952.305	7163
954.6705	7518
957.0355	7605
959.4017	7791
961.7654	7819
964.1284	7833
966.4908	7721
968.8527	7430
971.2138	7315
973.5743	6997
975.9343	6780
978.2936	6804
980.6522	6749
983.0122	6724
985.3696	6853
987.7245	6607
990.0807	6511
992.4362	6515
994.7911	6716
997.1474	6631
999.4991	6612
1001.852	6624
1004.205	6700
1006.555	6649
1008.908	6701
1011.258	6731
1013.606	6677
1015.956	6584
1018.302	6699
1020.652	6620
1022.998	6704
1025.345	6711
1027.691	6721
1030.035	6670
1032.378	6739
1034.724	6744
1037.066	6774
1039.409	6809
1041.75	6681
1044.092	6665
1046.433	6713
1048.771	6889
1051.112	6806
1053.449	6703
1055.786	6727
1058.124	6820
1060.462	6700
1062.797	6830
1065.131	6871
1067.467	6779
1069.8	6889
1072.135	6976
1074.467	6961
1076.798	6723
1079.129	6828
1081.459	6882
1083.792	6802
1086.121	6872
1088.449	6736
1090.777	6786
1093.104	6886
1095.431	6822
1097.759	6750
1100.084	6759
1102.408	6848
1104.732	6737
1107.056	6707
1109.379	6773
1111.701	6785
1114.022	6710
1116.343	6871
1118.664	6775
1120.983	6782
1123.303	6845
1125.621	6836
1127.939	6750
1130.256	6753
1132.573	6780
1134.889	6820
1137.205	6746
1139.52	6849
1141.832	6807
1144.146	6728
1146.461	6846
1148.771	6817
1151.083	6880
1153.392	6869
1155.703	6780
1158.011	6903
1160.323	6834
1162.629	6821
1164.938	6813
1167.243	6842
1169.55	6818
1171.857	6734
1174.163	6925
1176.466	6796
1178.769	6962
1181.073	6904
1183.374	6904
1185.677	6712
1187.979	6841
1190.279	6785
1192.578	6882
1194.878	6733
1197.178	6836
1199.476	6718
1201.772	6905
1204.068	6725
1206.366	6922
1208.663	6759
1210.957	6848
1213.251	6928
1215.544	6783
1217.836	6847
1220.128	6931
1222.421	6825
1224.712	6755
1227.002	6912
1229.292	6873
1231.581	7026
1233.871	6898
1236.159	7035
1238.446	6993
1240.732	7136
1243.018	7066
1245.304	7045
1247.59	7070
1249.874	7107
1252.156	7159
1254.439	7077
1256.721	6966
1259.005	7176
1261.286	7013
1263.565	6959
1265.845	7137
1268.125	7151
1270.403	7121
1272.682	7062
1274.959	7157
1277.234	7155
1279.511	7048
1281.787	7044
1284.062	7067
1286.337	7085
1288.609	7030
1290.882	6968
1293.153	6919
1295.428	7014
1297.698	6912
1299.969	6889
1302.237	7031
1304.507	6918
1306.777	6896
1309.044	7048
1311.312	6926
1313.578	6852
1315.844	6909
1318.109	6947
1320.375	7029
1322.638	6943
1324.903	6944
1327.165	6972
1329.427	6936
1331.69	6954
1333.952	7011
1336.212	7059
1338.471	6891
1340.73	7028
1342.988	6950
1345.248	6913
1347.505	7043
1349.763	6985
1352.019	7034
1354.274	6891
1356.53	6998
1358.784	6938
1361.038	6977
1363.291	6919
1365.543	6916
1367.797	7026
1370.048	7061
1372.296	6941
1374.546	7013
1376.796	7063
1379.045	6996
1381.295	6874
1383.542	6997
1385.787	6947
1388.034	6966
1390.28	6950
1392.527	7095
1394.772	7073
1397.014	6915
1399.258	7075
1401.501	7123
1403.741	7085
1405.985	7148
1408.226	7080
1410.465	7101
1412.705	7138
1414.943	7122
1417.184	7184
1419.42	7228
1421.658	7312
1423.894	7100
1426.13	7139
1428.366	7163
1430.602	7195
1432.835	7174
1435.069	7231
1437.301	7174
1439.535	7135
1441.767	7214
1443.997	7273
1446.229	7264
1448.458	7256
1450.687	7354
1452.916	7240
1455.146	7449
1457.372	7356
1459.599	7354
1461.824	7284
1464.051	7267
1466.277	7245
1468.501	7300
1470.725	7269
1472.948	7249
1475.17	7078
1477.393	7113
1479.614	7022
1481.837	6997
1484.057	7192
1486.276	7079
1488.497	6962
1490.715	6992
1492.932	7059
1495.148	7011
1497.364	6987
1499.58	6947
1501.798	6994
1504.012	6934
1506.227	7006
1508.44	6928
1510.653	6966
1512.866	6886
1515.078	6806
1517.289	7005
1519.5	6812
1521.711	6957
1523.92	6922
1526.13	6887
1528.338	6998
1530.544	7049
1532.752	6984
1534.959	6929
1537.165	6818
1539.371	6917
1541.574	7020
1543.779	6947
1545.983	6958
1548.187	6958
1550.39	6979
1552.59	6972
1554.792	7141
1556.991	7055
1559.19	7108
1561.392	6951
1563.59	7088
1565.789	7081
1567.986	7069
1570.182	7102
1572.381	7098
1574.576	7087
1576.771	7072
1578.966	7153
1581.16	7022
1583.354	7218
1585.546	7144
1587.74	7083
1589.931	7148
1592.121	7159
1594.311	7238
1596.502	7071
1598.693	7128
1600.881	7149
1603.069	7130
1605.256	7276
1607.445	7143
1609.631	7226
1611.816	7063
1614.001	7108
1616.186	7137
1618.37	7194
1620.555	7110
1622.737	7161
1624.919	7144
1627.101	7148
1629.282	7179
1631.463	7133
1633.643	7191
1635.822	7234
1638.001	7320
1640.179	7195
1642.359	7213
1644.534	7285
1646.711	7320
1648.887	7175
1651.062	7287
1653.235	7322
1655.412	7215
1657.586	7262
1659.757	7339
1661.93	7313
1664.1	7093
1666.274	7214
1668.445	7283
1670.614	7322
1672.784	7336
1674.951	7267
1677.12	7337
1679.289	7266
1681.457	7263
1683.622	7346
1685.789	7135
1687.953	7336
1690.121	7270
1692.284	7330
1694.447	7172
1696.611	7275
1698.772	7096
1700.935	7112
1703.098	7177
1705.258	7111
1707.417	6967
1709.576	7231
1711.736	7080
1713.896	7103
1716.053	7126
1718.21	7058
1720.366	7221
1722.522	7077
1724.68	7119
1726.835	7086
1728.989	7059
1731.142	7241
1733.295	7115
1735.449	7147
1737.601	7067
1739.753	7122
1741.903	7077
1744.054	6974
1746.203	7030
1748.354	6943
1750.503	7042
1752.651	7205
1754.798	6931
1756.944	7158
1759.092	7225
1761.238	7216
1763.383	7272
1765.528	7127
1767.672	7221
1769.814	7279
1771.959	7204
1774.102	7092
1776.242	7070
1778.384	7220
1780.525	7224
1782.665	7156
1784.805	7078
1786.945	7179
1789.082	7177
1791.22	7139
1793.36	7104
1795.495	7067
1797.632	7153
1799.766	7109
1801.902	7236
1804.035	7105
1806.172	7207
1808.304	7119
1810.436	7123
1812.569	7156
1814.699	7241
1816.833	7163
1818.963	7126
1821.092	7106
1823.222	7138
1825.35	7184
1827.478	7061
1829.608	7104
1831.734	7018
1833.86	7154
1835.986	7044
1838.11	7130
1840.238	7092
1842.362	7128
1844.485	7176
1846.608	7199
1848.73	7083
1850.853	7106
1852.974	7118
1855.097	7106
1857.217	7123
1859.336	7107
1861.455	7205
1863.576	7171
1865.693	7026
1867.811	6997
1869.926	7058
1872.042	6990
1874.16	7168
1876.275	7053
1878.39	7023
1880.504	7155
1882.618	7046
1884.731	7108
1886.843	7121
1888.956	6981
1891.067	6984
1893.178	7005
1895.287	7096
1897.399	7073
1899.508	7164
1901.617	7110
1903.724	7099
1905.832	7137
1907.941	7135
1910.046	7160
1912.152	7172
1914.256	7243
1916.361	7157
1918.464	7195
1920.57	7253
1922.672	7217
1924.775	7219
1926.876	7213
1928.978	7356
1931.08	7121
1933.181	7215
1935.28	7186
1937.38	7208
1939.478	7150
1941.577	7137
1943.675	7361
1945.771	7237
1947.867	7267
1949.964	7139
1952.058	7271
1954.154	7098
1956.248	7239
1958.343	7088
1960.435	7139
1962.527	7157
1964.62	7140
1966.711	7300
1968.802	7081
1970.892	7164
1972.983	7152
1975.072	7233
1977.162	7071
1979.25	7118
1981.337	7215
1983.424	7086
1985.51	7077
1987.598	7165
1989.683	7137
1991.768	7185
1993.852	6976
1995.934	7061
1998.019	7074
2000.102	7119
2002.184	7057
2004.266	7178
2006.347	7142
2008.427	7093
2010.508	7149
2012.587	7074
2014.666	7048
2016.745	7037
2018.821	7083
2020.9	7039
2022.977	7099
2025.052	7128
2027.128	7014
2029.204	6964
2031.277	7034
2033.353	7101
2035.425	7149
2037.499	7116
2039.57	6944
2041.642	7096
2043.714	7130
2045.786	7089
2047.855	7043
2049.925	7211
2051.993	7033
2054.064	7162
2056.132	7200
2058.2	7128
2060.266	7047
2062.332	6999
2064.398	7126
2066.465	7001
2068.529	7117
2070.592	7073
2072.657	7060
2074.719	7143
2076.783	7116
2078.845	7142
2080.907	7146
2082.968	7109
2085.028	7093
2087.087	7139
2089.148	7110
2091.207	7234
2093.264	7080
2095.322	7095
2097.379	7029
2099.439	6997
2101.495	7098
2103.55	7079
2105.605	7108
2107.658	6989
2109.713	7048
2111.767	6976
2113.82	7158
2115.872	7062
2117.924	7218
2119.975	7071
2122.028	7075
2124.078	7102
2126.126	7087
2128.176	7055
2130.225	7164
2132.275	7039
2134.321	7011
2136.368	6996
2138.415	7040
2140.461	6987
2142.505	6983
2144.552	7052
2146.597	7044
2148.64	7112
2150.684	7009
2152.725	7057
2154.77	6954
2156.811	6938
2158.852	6947
2160.894	6987
2162.933	7033
2164.973	6961
2167.013	7089
2169.051	6927
2171.089	6957
2173.126	7008
2175.164	6986
2177.201	7006
2179.236	6950
2181.273	7025
2183.307	6967
2185.341	6960
2187.377	6934
2189.41	6976
2191.442	6914
2193.473	6910
2195.506	6968
2197.539	6966
2199.569	6882
2201.598	6894
2203.628	6811
2205.656	6935
2207.686	6778
2209.716	6947
2211.743	6916
2213.769	6914
2215.796	6885
2217.821	6912
2219.848	6900
2221.873	6881
2223.897	6877
2225.921	6857
2227.944	6884
2229.967	6841
2231.991	6902
2234.011	6961
2236.032	6884
2238.053	6815
2240.073	6973
2242.094	6930
2244.114	6783
2246.131	6845
2248.149	6837
2250.167	6852
2252.186	6811
2254.201	6794
2256.218	6900
2258.233	6902
2260.247	6885
2262.262	6911
2264.278	6900
2266.29	6836
2268.303	6833
2270.315	6911
2272.327	6675
2274.341	6894
2276.35	6918
2278.361	6957
2280.37	6842
2282.38	6833
2284.388	6926
2286.397	6925
2288.405	6903
2290.412	6875
2292.419	6958
2294.425	6761
2296.431	6837
2298.437	6840
2300.441	6714
2302.445	6857
2304.449	6913
2306.453	6767
2308.455	6788
2310.457	6804
2312.459	6924
2314.46	6842
2316.46	6798
2318.461	6665
2320.46	6817
2322.458	6680
2324.458	6807
2326.456	6787
2328.455	6756
2330.451	6838
2332.447	6791
2334.443	6780
2336.438	6866
2338.433	6792
2340.429	6768
2342.422	6652
2344.416	6662
2346.408	6701
2348.399	6655
2350.393	6838
2352.384	6712
2354.375	6685
2356.365	6766
2358.355	6619
2360.344	6743
2362.333	6676
2364.322	6714
2366.309	6618
2368.295	6726
2370.282	6710
2372.27	6692
2374.256	6719
2376.24	6737
2378.225	6706
2380.208	6656
2382.194	6566
2384.177	6638
2386.159	6602
2388.142	6647
2390.122	6558
2392.105	6668
2394.085	6524
2396.066	6493
2398.044	6628
2400.024	6743
2402.002	6625
2403.982	6622
2405.959	6555
2407.935	6538
2409.913	6584
2411.888	6499
2413.865	6598
2415.84	6585
2417.814	6607
2419.788	6545
2421.762	6652
2423.735	6457
2425.708	6616
2427.68	6558
2429.651	6556
2431.623	6483
2433.593	6565
2435.564	6558
2437.533	6723
2439.502	6638
2441.47	6604
2443.438	6717
2445.406	6549
2447.373	6634
2449.34	6584
2451.305	6523
2453.271	6447
2455.235	6559
2457.201	6526
2459.165	6462
2461.129	6558
2463.092	6470
2465.054	6514
2467.018	6478
2468.978	6522
2470.939	6426
2472.899	6553
2474.86	6552
2476.819	6533
2478.778	6487
2480.737	6493
2482.695	6460
2484.653	6541
2486.609	6413
2488.567	6487
2490.524	6403
2492.478	6432
2494.433	6380
2496.387	6409
2498.343	6403
2500.297	6462
2502.249	6433
2504.202	6306
2506.153	6631
2508.105	6484
2510.057	6445
2512.008	6425
2513.957	6426
2515.906	6345
2517.855	6326
2519.805	6335
2521.754	6412
2523.7	6421
2525.647	6382
2527.594	6515
2529.54	6452
2531.486	6488
2533.431	6428
2535.376	6320
2537.32	6438
2539.263	6368
2541.207	6363
2543.151	6481
2545.093	6433
2547.034	6312
2548.975	6256
2550.917	6319
2552.856	6414
2554.796	6477
2556.735	6311
2558.673	6318
2560.611	6338
2562.55	6364
2564.487	6422
2566.424	6420
2568.36	6496
2570.296	6354
2572.232	6411
2574.167	6408
2576.101	6397
2578.035	6414
2579.969	6286
2581.902	6278
2583.834	6260
2585.766	6367
2587.698	6375
2589.628	6389
2591.557	6402
2593.489	6354
2595.419	6357
2597.348	6333
2599.275	6402
2601.204	6343
2603.131	6403
2605.059	6347
2606.986	6473
2608.911	6441
2610.837	6464
2612.76	6409
2614.687	6426
2616.61	6425
2618.534	6414
2620.457	6520
2622.38	6443
2624.302	6428
2626.225	6497
2628.145	6368
2630.067	6390
2631.986	6403
2633.906	6476
2635.827	6383
2637.745	6381
2639.662	6469
2641.581	6448
2643.498	6408
2645.415	6396
2647.331	6293
2649.248	6453
2651.163	6415
2653.077	6435
2654.993	6435
2656.906	6471
2658.821	6509
2660.733	6403
2662.646	6401
2664.557	6282
2666.47	6363
2668.381	6347
2670.291	6328
2672.201	6446
2674.11	6378
2676.021	6349
2677.929	6290
2679.837	6382
2681.745	6276
2683.652	6182
2685.56	6370
2687.466	6306
2689.371	6352
2691.276	6306
2693.181	6218
2695.085	6373
2696.991	6183
2698.893	6340
2700.796	6338
2702.698	6293
2704.601	6381
2706.502	6375
2708.404	6269
2710.304	6365
2712.203	6154
2714.103	6239
2716.003	6155
2717.902	6146
2719.8	6230
2721.697	6287
2723.594	6341
2725.49	6263
2727.389	6244
2729.283	6343
2731.179	6257
2733.073	6202
2734.968	6221
2736.863	6192
2738.757	6207
2740.649	6265
2742.541	6225
2744.433	6203
2746.324	6198
2748.216	6177
2750.107	6173
2751.997	6220
2753.886	6138
2755.776	6312
2757.666	6181
2759.553	6109
2761.44	6153
2763.327	6184
2765.215	6327
2767.102	6128
2768.988	6219
2770.873	6293
2772.757	6163
2774.641	6150
2776.525	6088
2778.41	6137
2780.292	6098
2782.175	6193
2784.057	6104
2785.938	6139
2787.821	6155
2789.701	6152
2791.581	6179
2793.461	6062
2795.34	6156
2797.219	6091
2799.099	6090
2800.975	6073
2802.853	6018
2804.73	5984
2806.606	6078
2808.484	6134
2810.358	6004
2812.233	6058
2814.108	6068
2815.981	5934
2817.857	6089
2819.73	6043
2821.602	6047
2823.474	6133
2825.346	6118
2827.217	6077
2829.089	6134
2830.959	6116
2832.829	6123
2834.698	6117
2836.567	6151
2838.436	6184
2840.305	6108
2842.172	5976
2844.04	6159
2845.905	6046
2847.772	6021
2849.639	6055
2851.503	6141
2853.369	6072
2855.232	6159
2857.096	6151
2858.961	5998
2860.824	6182
2862.686	6152
2864.547	6269
2866.41	6250
2868.272	6178
2870.132	6303
2871.992	6433
2873.851	6377
2875.711	6476
2877.57	6473
2879.429	6449
2881.287	6449
2883.144	6603
2885.001	6549
2886.857	6515
2888.714	6644
2890.57	6536
2892.425	6578
2894.279	6609
2896.133	6538
2897.987	6524
2899.842	6461
2901.694	6483
2903.547	6566
2905.397	6507
2907.249	6520
2909.101	6645
2910.952	6622
2912.802	6596
2914.652	6625
2916.5	6723
2918.35	6627
2920.198	6828
2922.045	6852
2923.893	6895
2925.74	6819
2927.585	6977
2929.433	7097
2931.279	7035
2933.123	7146
2934.968	7038
2936.811	7243
2938.656	7244
2940.5	7333
2942.342	7325
2944.185	7387
2946.026	7472
2947.87	7318
2949.71	7340
2951.549	7350
2953.39	7314
2955.229	7123
2957.069	7189
2958.908	7111
2960.746	7047
2962.584	6919
2964.421	6999
2966.257	6921
2968.094	6825
2969.931	6788
2971.766	6911
2973.601	6703
2975.435	6656
2977.27	6646
2979.105	6672
2980.938	6676
2982.77	6562
2984.602	6585
2986.434	6524
2988.267	6544
2990.097	6511
2991.927	6410
2993.757	6479
2995.587	6414
2997.417	6311
2999.246	6291
3001.074	6244
3002.902	6306
3004.729	6164
3006.556	6229
3008.384	6160
3010.21	6097
3012.036	6014
3013.861	5902
3015.684	5946
3017.51	6000
3019.334	5940
3021.157	5973
3022.981	5764
3024.802	5754
3026.624	5873
3028.448	5714
3030.267	5917
3032.088	5644
3033.909	5773
3035.728	5736
3037.549	5768
3039.368	5674
3041.186	5794
3043.004	5688
3044.821	5771
3046.64	5777
3048.455	5679
3050.272	5535
3052.087	5739
3053.903	5544
3055.717	5703
3057.534	5602
3059.347	5603
3061.16	5704
3062.974	5702
3064.785	5637
3066.598	5538
3068.411	5634
3070.222	5673
3072.032	5631
3073.844	5643
3075.653	5613
3077.463	5665
3079.272	5646
3081.08	5575
3082.889	5607
3084.697	5552
3086.505	5598
3088.312	5632
3090.118	5534
3091.924	5523
3093.729	5519
3095.535	5549
3097.34	5496
3099.144	5572
3100.947	5538
3102.75	5461
3104.553	5424
3106.357	5517
3108.159	5449
3109.961	5388
3111.762	5452
3113.562	5487
3115.365	5403
3117.164	5472
3118.964	5479
3120.761	5405
3122.56	5433
3124.36	5329
3126.158	5370
3127.954	5335
3129.75	5381
3131.547	5536
3133.343	5405
3135.139	5424
3136.934	5323
3138.729	5355
3140.522	5364
3142.317	5334
3144.11	5415
3145.904	5280
3147.695	5306
3149.488	5319
3151.28	5393
3153.07	5373
3154.863	5320
3156.652	5292
3158.441	5320
3160.231	5237
3162.019	5337
3163.81	5269
3165.597	5375
3167.384	5283
3169.172	5287
3170.958	5339
3172.745	5264
3174.532	5372
3176.317	5240
3178.101	5281
3179.885	5263
3181.67	5321
3183.455	5284
3185.238	5222
3187.02	5189
3188.802	5254
3190.585	5293
3192.368	5222
3194.149	5314
3195.929	5324
3197.709	5229
3199.489	5274
3201.268	5208
3203.048	5311
3204.826	5262
3206.604	5244
3208.382	5189
3210.159	5222
3211.937	5294
3213.713	5260
3215.489	5261
3217.263	5210
3219.038	5217
3220.815	5228
3222.589	5353
3224.363	5228
3226.136	5282
3227.908	5216
3229.681	5259
3231.454	5196
3233.226	5297
3234.996	5294
3236.767	5256
3238.538	5195
3240.308	5214
3242.078	5331
3243.847	5182
3245.615	5127
3247.384	5160
3249.15	5212
3250.92	5257
3252.686	5094
3254.453	5288
3256.218	5281
3257.984	5313
3259.75	5165
3261.515	5196
3263.279	5293
3265.044	5194
3266.806	5232
3268.57	5168
3270.334	5198
3272.095	5162
3273.856	5227
3275.619	5191
3277.379	5198
3279.14	5259
3280.9	5170
3282.661	5248
3284.419	5222
3286.178	5141
3287.937	5210
3289.695	5238
3291.453	5247
3293.21	5243
3294.967	5145
3296.723	5175
3298.48	5184
3300.235	5291
3301.99	5192
3303.744	5130
3305.498	5170
3307.253	5209
3309.006	5159
3310.759	5169
3312.511	5178
3314.263	5166
3316.017	5147
3317.768	5159
3319.519	5217
3321.268	5296
3323.018	5109
3324.767	5197
3326.518	5131
3328.267	5153
3330.014	5136
3331.762	5131
3333.509	5216
3335.258	5175
3337.003	5222
3338.75	5174
3340.496	5129
3342.24	5195
3343.987	5160
3345.732	5148
3347.475	5154
3349.219	5181
3350.961	5159
3352.705	5139
3354.448	5086
3356.19	5103
3357.931	5097
3359.672	5102
3361.412	5168
3363.155	5076
3364.894	5111
3366.633	5094
3368.372	5069
3370.11	5038
3371.849	5063
3373.588	4970
3375.325	5070
3377.061	5094
3378.799	5030
3380.534	5012
3382.271	5012
3384.006	4933
3385.741	5003
3387.475	4919
3389.209	4967
3390.944	5027
3392.677	5002
3394.409	5045
3396.143	4995
3397.874	4976
3399.606	4898
3401.338	5014
3403.069	5004
3404.799	4814
3406.528	4927
3408.258	4897
3409.988	4997
3411.717	5059
3413.445	4972
3415.173	4870
3416.899	5049
3418.626	4974
3420.354	4773
3422.08	5008
3423.806	4897
3425.531	4866
3427.255	4868
3428.981	4939
3430.705	4980
3432.429	4923
3434.151	4833
3435.875	4900
3437.599	4776
3439.321	4901
3441.042	4773
3442.763	4865
3444.483	4901
3446.204	4926
3447.926	4847
3449.645	4776
3451.364	4881
3453.082	4744
3454.801	4771
3456.52	4836
3458.238	4805
3459.954	4828
3461.671	4821
3463.387	4809
3465.104	4696
3466.82	4693
3468.534	4803
3470.25	4695
3471.963	4751
3473.676	4607
3475.392	4786
3477.104	4815
3478.817	4688
3480.528	4706
3482.241	4697
3483.954	4667
3485.664	4704
3487.374	4780
3489.084	4663
3490.795	4667
3492.504	4592
3494.214	4674
3495.922	4650
3497.63	4553
3499.338	4626
3501.045	4619
3502.753	4676
3504.459	4608
3506.166	4559
3507.871	4623
3509.576	4600
3511.283	4660
3512.987	4588
3514.691	4519
3516.395	4483
3518.098	4552
3519.8	4575
3521.504	4645
3523.206	4509
3524.908	4604
3526.609	4612
3528.309	4507
3530.011	4589
3531.711	4454
3533.411	4516
3535.109	4520
3536.808	4495
3538.507	4616
3540.206	4461
3541.904	4548
3543.601	4405
3545.297	4544
3546.994	4551
3548.69	4535
3550.387	4515
3552.081	4516
3553.776	4432
3555.47	4496
3557.166	4432
3558.859	4481
3560.553	4387
3562.245	4512
3563.938	4468
3565.629	4537
3567.322	4489
3569.014	4418
3570.704	4409
3572.394	4427
3574.084	4390
3575.775	4482
3577.464	4420
3579.152	4432
3580.842	4406
3582.529	4346
3584.216	4478
3585.905	4281
3587.591	4374
3589.279	4310
3590.964	4310
3592.649	4408
3594.336	4388
3596.021	4382
3597.705	4278
3599.388	4349
3601.072	4341
3602.757	4226
3604.439	4371
3606.122	4342
3607.803	4276
3609.485	4313
3611.167	4231
3612.849	4233
3614.529	4307
3616.208	4337
3617.888	4297
3619.567	4219
3621.247	4203
3622.926	4185
3624.603	4241
3626.281	4246
3627.958	4245
3629.635	4228
3631.312	4215
3632.989	4165
3634.665	4213
3636.339	4172
3638.014	4173
3639.691	4113
3641.364	4129
3643.038	4251
3644.71	4146
3646.384	4231
3648.058	4231
3649.729	4117
3651.402	4108
3653.073	4100
3654.744	4186
3656.414	4230
3658.085	4145
3659.755	4151
3661.424	4170
3663.094	4067
3664.762	4050
3666.431	4138
3668.099	4144
3669.766	4068
3671.433	4190
3673.099	4039
3674.768	4073
3676.433	4117
3678.098	3975
3679.763	4113
3681.428	3994
3683.093	4102
3684.757	4112
3686.421	4017
3688.083	4042
3689.746	4029
3691.408	4018
3693.071	4094
3694.733	4065
3696.394	4000
3698.054	4089
3699.715	3979
3701.375	4049
3703.036	4049
3704.695	4079
3706.354	4019
3708.012	4051
3709.67	4024
3711.329	3950
3712.987	3965
3714.644	3980
3716.299	3962
3717.955	4031
3719.613	4066
3721.268	3968
3722.923	3965
3724.577	4008
3726.231	4014
3727.885	3993
3729.539	3964
3731.192	3989
3732.845	3899
3734.497	3891
3736.149	3961
3737.802	3954
3739.453	3873
3741.104	3945
3742.753	3983
3744.404	3995
3746.052	4010
3747.704	3978
3749.352	4079
3751	3952
3752.648	3916
3754.296	3955
3755.944	3927
3757.59	3905
3759.238	3915
3760.883	3851
3762.528	3826
3764.176	3859
3765.82	3911
3767.464	3843
3769.109	3936
3770.753	3887
3772.396	3942
3774.04	3908
3775.683	3860
3777.325	3806
3778.967	3914
3780.608	3999
3782.25	3744
3783.89	3793
3785.531	3795
3787.17	3803
3788.81	3843
3790.45	3862
3792.09	3834
3793.729	3883
3795.366	3857
3797.003	3764
3798.64	3801
3800.278	3847
3801.915	3780
3803.551	3842
3805.187	3740
3806.822	3818
3808.458	3700
3810.093	3806
3811.726	3796
3813.36	3828
3814.994	3712
3816.627	3825
3818.262	3750
3819.893	3776
3821.525	3726
3823.157	3752
3824.787	3729
3826.42	3704
3828.051	3733
3829.68	3757
3831.31	3741
3832.938	3743
3834.569	3699
3836.198	3720
3837.825	3745
3839.454	3715
3841.08	3683
3842.708	3773
3844.335	3719
3845.962	3674
3847.587	3698
3849.212	3662
3850.838	3725
3852.463	3729
3854.089	3661
3855.712	3647
3857.335	3733
3858.959	3675
3860.582	3598
3862.205	3666
3863.827	3709
3865.449	3648
3867.07	3661
3868.691	3693
3870.312	3649
3871.933	3599
3873.553	3665
3875.173	3591
3876.792	3564
3878.411	3593
3880.03	3598
3881.647	3620
3883.265	3720
3884.882	3655
3886.499	3707
3888.116	3658
3889.732	3628
3891.348	3598
3892.964	3522
3894.579	3672
3896.195	3615
3897.809	3623
3899.423	3643
3901.036	3590
3902.648	3560
3904.261	3657
3905.875	3612
3907.487	3596
3909.099	3641
3910.709	3601
3912.321	3601
3913.933	3478
3915.542	3559
3917.152	3644
3918.762	3563
3920.37	3671
3921.98	3582
3923.589	3562
3925.196	3510
3926.804	3574
3928.41	3556
3930.018	3571
3931.626	3617
3933.231	3545
3934.838	3521
3936.442	3571
3938.046	3517
3939.653	3493
3941.257	3533
3942.861	3570
3944.464	3492
3946.068	3541
3947.67	3529
3949.273	3519
3950.876	3580
3952.477	3512
3954.078	3527
3955.678	3544
3957.281	3491
3958.881	3432
3960.48	3479
3962.079	3472
3963.678	3463
3965.279	3534
3966.877	3496
3968.475	3408
3970.072	3494
3971.669	3450
3973.266	3441
3974.864	3545
3976.459	3415
3978.055	3468
3979.65	3414
3981.245	3451
3982.841	3413
3984.436	3438
3986.03	3374
3987.623	3348
3989.216	3435
3990.809	3427
3992.403	3459
3993.995	3438
3995.586	3395
3997.177	3343
3998.768	3275
4000.361	3386
4001.951	3366
4003.54	3426
4005.13	3282
4006.719	3363
4008.31	3494
4009.897	3387
4011.485	3346
4013.073	3338
4014.66	3289
4016.247	3365
4017.834	3254
4019.421	3314
4021.006	3396
4022.592	3320
4024.178	3275
4025.763	3246
4027.348	3308
4028.932	3295
4030.515	3325
4032.099	3278
4033.682	3243
4035.266	3290
4036.847	3316
4038.429	3299
4040.011	3279
4041.592	3317
4043.173	3311
4044.755	3284
4046.334	3291
4047.913	3210
4049.494	3229
4051.074	3253
4052.652	3219
4054.23	3263
4055.807	3239
4057.385	3264
4058.963	3216
4060.541	3313
4062.117	3192
4063.693	3225
4065.269	3195
4066.844	3299
4068.42	3170
4069.995	3198
4071.569	3233
4073.143	3145
4074.716	3169
4076.291	3246
4077.864	3236
4079.436	3288
4081.009	3269
4082.58	3147
4084.152	3173
4085.723	3231
4087.294	3231
4088.865	3133
4090.435	3137
4092.005	3176
4093.574	3127
4095.143	3219
4096.712	3160
4098.279	3147
4099.848	3097
4101.416	3198
4102.984	3149
4104.55	3124
4106.117	3095
4107.682	3124
4109.248	3171
4110.815	3140
4112.379	3128
4113.945	3138
4115.508	3124
4117.073	3121
4118.637	3117
4120.201	3087
4121.763	3156
4123.325	3103
4124.888	3160
4126.449	3103
4128.013	3085
4129.573	3038
4131.133	3105
4132.694	3159
4134.254	3153
4135.814	3104
4137.374	3173
4138.933	3019
4140.491	3054
4142.049	3160
4143.607	3122
4145.167	3047
4146.724	3091
4148.28	3001
4149.836	3053
4151.392	3069
4152.949	3074
4154.504	3130
4156.059	3064
4157.614	3092
4159.168	3083
4160.723	3026
4162.277	3040
4163.83	3033
4165.383	2941
4166.936	3010
4168.488	2966
4170.041	3023
4171.593	3066
4173.144	2966
4174.695	3079
4176.246	2969
4177.796	3024
4179.346	3034
4180.896	2946
4182.445	2982
4183.994	2958
4185.542	2981
4187.091	2954
4188.639	2995
4190.185	2939
4191.732	2878
4193.279	2965
4194.826	2928
4196.373	2991
4197.918	2910
4199.463	2977
4201.008	2952
4202.553	2915
4204.098	2911
4205.641	2989
4207.185	2958
4208.728	2921
4210.271	2899
4211.814	2924
4213.357	2883
4214.898	2881
4216.439	2908
4217.98	3011
4219.522	2897
4221.062	2916
4222.603	2877
4224.142	2833
4225.681	2829
4227.222	3005
4228.76	2804
4230.298	2941
4231.835	2874
4233.373	2900
4234.911	2866
4236.449	2949
4237.985	2824
4239.521	2881
4241.057	2921
4242.592	2852
4244.128	2857
4245.663	2846
4247.197	2818
4248.731	2890
4250.265	2862
4251.798	2895
4253.333	2918
4254.865	2850
4256.397	2810
4257.93	2803
4259.461	2898
4260.994	2918
4262.525	2883
4264.056	2830
4265.586	2862
4267.115	2867
4268.646	2905
4270.176	2867
4271.705	2809
4273.232	2866
4274.761	2819
4276.289	2854
4277.818	2804
4279.345	2787
4280.872	2800
4282.399	2783
4283.924	2760
4285.452	2773
4286.976	2779
4288.502	2758
4290.026	2698
4291.551	2749
4293.074	2759
4294.6	2797
4296.123	2859
4297.646	2742
4299.168	2794
4300.691	2702
4302.214	2764
4303.736	2778
4305.257	2737
4306.778	2802
4308.299	2792
4309.82	2747
4311.34	2727
4312.86	2673
4314.379	2724
