400.0745	4197
402.597	4183
405.1208	4274
407.6419	4207
410.1623	4191
412.6819	4244
415.201	4402
417.7172	4326
420.2369	4387
422.7538	4504
425.2701	4418
427.7856	4454
430.3005	4488
432.8147	4479
435.3282	4457
437.841	4558
440.3511	4461
442.8625	4534
445.3753	4522
447.8854	4469
450.3927	4618
452.9014	4508
455.4073	4501
457.9146	4417
460.4233	4598
462.9272	4557
465.4325	4425
467.935	4539
470.4389	4515
472.9421	4463
475.4446	4527
477.9444	4465
480.4456	4453
482.944	4532
485.4417	4491
487.9429	4534
490.4393	4606
492.935	4483
495.4321	4576
497.9264	4553
500.4221	4542
502.9171	4582
505.4094	4551
507.9011	4639
510.392	4574
512.8864	4605
515.3759	4483
517.8649	4615
520.3531	4646
522.8406	4651
525.3275	4610
527.8178	4694
530.3033	4690
532.7881	4704
535.2723	4664
537.7558	4659
540.2407	4641
542.7228	4668
545.2043	4674
547.6851	4598
550.1652	4729
552.6467	4843
555.1255	4701
557.6016	4684
560.079	4727
562.5557	4589
565.0318	4728
567.5092	4783
569.984	4717
572.456	4888
574.9294	4922
577.4022	4873
579.8762	4870
582.3456	4903
584.8163	4852
587.2863	4972
589.7557	4851
592.2224	4945
594.6924	4856
597.1578	4843
599.6245	4903
602.0905	4865
604.5538	4850
607.0206	4919
609.4825	4859
611.9459	4846
614.4066	4824
616.8686	4914
619.33	4902
621.7906	4931
624.2487	4854
626.708	4876
629.1647	4870
631.6207	4796
634.0801	4885
636.5348	4922
638.9888	4864
641.4442	4892
643.8969	4815
646.3509	4883
648.8022	4915
651.255	4877
653.705	4901
656.1544	4989
658.6031	4881
661.0532	4930
663.5026	4988
665.9493	4894
668.3954	5054
670.8409	4965
673.2877	4957
675.7318	5018
678.1752	5026
680.618	4973
683.0601	4981
685.5035	4874
687.9444	4931
690.3845	5032
692.824	5016
695.2628	5002
697.701	5061
700.1406	5101
702.5774	5081
705.0116	5092
707.4472	5066
709.8821	5086
712.3183	5049
714.7519	5110
717.1829	5087
719.6151	5198
722.0468	5196
724.4777	5278
726.908	5183
729.3377	5250
731.7667	5190
734.1931	5243
736.6208	5127
739.0498	5280
741.4742	5268
743.9	5161
746.3231	5306
748.7476	5396
751.1713	5248
753.5945	5315
756.015	5359
758.4368	5390
760.856	5395
763.2766	5250
765.6965	5395
768.1157	5372
770.5323	5250
772.9483	5430
775.3656	5357
777.7822	5412
780.1963	5348
782.6116	5366
785.0244	5382
787.4365	5448
789.8499	5381
792.2626	5417
794.6728	5407
797.0823	5413
799.4911	5381
801.8994	5350
804.3109	5406
806.7178	5489
809.124	5293
811.5297	5435
813.9347	5550
816.341	5381
818.7447	5379
821.1478	5428
823.5502	5408
825.952	5432
828.3531	5421
830.7556	5426
833.1554	5520
835.5546	5479
837.9532	5383
840.3511	5556
842.7504	5542
845.1451	5534
847.5411	5488
849.9365	5503
852.3312	5592
854.7272	5592
857.1187	5633
859.5115	5557
861.9037	5612
864.2952	5573
866.6842	5515
869.0764	5448
871.4661	5659
873.8531	5517
876.2415	5540
878.6272	5527
881.0162	5528
883.4026	5671
885.7866	5603
888.1717	5483
890.5543	5548
892.9382	5550
895.3215	5590
897.7041	5528
900.0842	5525
902.4655	5599
904.8443	5585
907.2244	5521
909.6039	5565
911.9808	5557
914.357	5655
916.7346	5725
919.1115	5650
921.4859	5751
923.8616	5800
926.2347	5833
928.6071	5837
930.979	5857
933.3541	5907
935.7247	6024
938.0946	5891
940.4639	5927
942.8326	5968
945.2026	6098
947.5701	6166
949.9369	6388
952.305	6426
954.6705	6689
957.0355	6845
959.4017	6993
961.7654	7101
964.1284	7127
966.4908	6947
968.8527	6751
971.2138	6476
973.5743	6225
975.9343	6039
978.2936	5957
980.6522	5896
983.0122	5836
985.3696	5744
987.7245	5739
990.0807	5773
992.4362	5795
994.7911	5737
997.1474	5725
999.4991	5795
1001.852	5795
1004.205	5834
1006.555	5829
1008.908	5856
1011.258	5825
1013.606	5743
1015.956	5808
1018.302	5768
1020.652	5812
1022.998	5869
1025.345	5850
1027.691	5903
1030.035	5814
1032.378	5825
1034.724	5904
1037.066	5996
1039.409	5858
1041.75	5927
1044.092	5914
1046.433	5927
1048.771	5906
1051.112	5844
1053.449	5849
1055.786	5978
1058.124	5919
1060.462	5877
1062.797	6023
1065.131	5898
1067.467	5997
1069.8	6055
1072.135	6025
1074.467	6097
1076.798	5997
1079.129	5879
1081.459	6017
1083.792	5890
1086.121	5896
1088.449	6003
1090.777	5939
1093.104	5883
1095.431	5948
1097.759	5851
1100.084	5874
1102.408	5941
1104.732	5953
1107.056	5928
1109.379	5877
1111.701	5796
1114.022	5911
1116.343	5893
1118.664	5789
1120.983	5966
1123.303	5937
1125.621	5854
1127.939	5898
1130.256	5903
1132.573	5937
1134.889	5942
1137.205	5842
1139.52	5927
1141.832	5891
1144.146	5888
1146.461	6006
1148.771	5901
1151.083	5892
1153.392	5849
1155.703	5928
1158.011	6020
1160.323	5908
1162.629	5927
1164.938	5899
1167.243	5899
1169.55	5930
1171.857	5961
1174.163	5855
1176.466	5939
1178.769	5905
1181.073	6002
1183.374	5831
1185.677	5860
1187.979	5902
1190.279	5902
1192.578	5903
1194.878	5873
1197.178	5862
1199.476	6019
1201.772	5914
1204.068	5949
1206.366	5913
1208.663	5916
1210.957	6048
1213.251	5997
1215.544	5905
1217.836	5986
1220.128	5969
1222.421	6005
1224.712	5981
1227.002	5986
1229.292	5920
1231.581	6102
1233.871	6018
1236.159	6171
1238.446	6105
1240.732	6197
1243.018	6113
1245.304	6119
1247.59	6267
1249.874	6136
1252.156	6157
1254.439	6025
1256.721	6181
1259.005	6118
1261.286	6117
1263.565	6165
1265.845	6224
1268.125	6025
1270.403	6189
1272.682	6070
1274.959	6197
1277.234	6182
1279.511	6264
1281.787	6035
1284.062	6164
1286.337	6044
1288.609	6140
1290.882	6142
1293.153	6131
1295.428	6029
1297.698	6093
1299.969	5944
1302.237	6083
1304.507	6065
1306.777	6034
1309.044	6062
1311.312	6067
1313.578	5989
1315.844	5992
1318.109	6030
1320.375	5929
1322.638	6009
1324.903	6094
1327.165	6037
1329.427	5974
1331.69	5999
1333.952	6062
1336.212	5951
1338.471	6051
1340.73	5984
1342.988	5890
1345.248	6034
1347.505	6075
1349.763	5985
1352.019	6032
1354.274	6107
1356.53	5988
1358.784	6084
1361.038	6059
1363.291	5982
1365.543	6029
1367.797	6036
1370.048	6040
1372.296	6012
1374.546	6075
1376.796	6088
1379.045	6059
1381.295	6098
1383.542	6161
1385.787	6095
1388.034	6053
1390.28	6107
1392.527	6238
1394.772	6062
1397.014	6144
1399.258	6097
1401.501	6187
1403.741	6291
1405.985	6186
1408.226	6127
1410.465	6147
1412.705	6159
1414.943	6127
1417.184	6195
1419.42	6205
1421.658	6095
1423.894	6231
1426.13	6267
1428.366	6103
1430.602	6222
1432.835	6296
1435.069	6164
1437.301	6187
1439.535	6270
1441.767	6238
1443.997	6188
1446.229	6284
1448.458	6330
1450.687	6396
1452.916	6272
1455.146	6410
1457.372	6467
1459.599	6328
1461.824	6369
1464.051	6371
1466.277	6339
1468.501	6395
1470.725	6280
1472.948	6243
1475.17	6129
1477.393	6208
1479.614	6220
1481.837	6220
1484.057	6115
1486.276	6113
1488.497	6165
1490.715	6122
1492.932	6029
1495.148	5969
1497.364	6076
1499.58	6007
1501.798	5993
1504.012	6072
1506.227	6119
1508.44	5991
1510.653	6146
1512.866	6100
1515.078	6035
1517.289	6001
1519.5	6005
1521.711	6073
1523.92	5994
1526.13	5913
1528.338	6054
1530.544	6076
1532.752	5977
1534.959	6104
1537.165	5989
1539.371	6091
1541.574	6011
1543.779	5977
1545.983	6039
1548.187	6101
1550.39	6212
1552.59	6153
1554.792	6084
1556.991	6067
1559.19	6050
1561.392	6168
1563.59	6189
1565.789	6147
1567.986	6251
1570.182	6034
1572.381	6117
1574.576	6197
1576.771	6046
1578.966	6241
1581.16	6101
1583.354	6110
1585.546	6121
1587.74	6158
1589.931	6161
1592.121	6221
1594.311	6211
1596.502	6259
1598.693	6223
1600.881	6241
1603.069	6226
1605.256	6228
1607.445	6154
1609.631	6250
1611.816	6198
1614.001	6229
1616.186	6427
1618.37	6308
1620.555	6250
1622.737	6221
1624.919	6279
1627.101	6266
1629.282	6259
1631.463	6236
1633.643	6316
1635.822	6222
1638.001	6236
1640.179	6209
1642.359	6325
1644.534	6289
1646.711	6341
1648.887	6397
1651.062	6456
1653.235	6322
1655.412	6224
1657.586	6267
1659.757	6401
1661.93	6292
1664.1	6395
1666.274	6401
1668.445	6348
1670.614	6301
1672.784	6331
1674.951	6432
1677.12	6322
1679.289	6369
1681.457	6385
1683.622	6357
1685.789	6442
1687.953	6342
1690.121	6382
1692.284	6368
1694.447	6348
1696.611	6219
1698.772	6254
1700.935	6237
1703.098	6313
1705.258	6230
1707.417	6216
1709.576	6131
1711.736	6173
1713.896	6171
1716.053	6117
1718.21	6200
1720.366	6162
1722.522	6230
1724.68	6074
1726.835	6150
1728.989	6162
1731.142	6078
1733.295	6118
1735.449	6234
1737.601	6142
1739.753	6206
1741.903	6243
1744.054	6153
1746.203	6182
1748.354	6189
1750.503	6202
1752.651	6168
1754.798	6152
1756.944	6112
1759.092	6174
1761.238	6287
1763.383	6185
1765.528	6203
1767.672	6163
1769.814	6332
1771.959	6136
1774.102	6211
1776.242	6277
1778.384	6197
1780.525	6228
1782.665	6196
1784.805	6110
1786.945	6230
1789.082	6213
1791.22	6223
1793.36	6312
1795.495	6342
1797.632	6200
1799.766	6323
1801.902	6262
1804.035	6278
1806.172	6261
1808.304	6199
1810.436	6238
1812.569	6338
1814.699	6287
1816.833	6210
1818.963	6218
1821.092	6194
1823.222	6104
1825.35	6294
1827.478	6128
1829.608	6159
1831.734	6229
1833.86	6284
1835.986	6084
1838.11	6240
1840.238	6130
1842.362	6230
1844.485	6161
1846.608	6392
1848.73	6184
1850.853	6133
1852.974	6309
1855.097	6219
1857.217	6123
1859.336	6172
1861.455	6235
1863.576	6216
1865.693	6146
1867.811	6111
1869.926	6174
1872.042	6254
1874.16	6172
1876.275	6131
1878.39	6072
1880.504	6307
1882.618	6223
1884.731	6129
1886.843	6142
1888.956	6171
1891.067	6215
1893.178	6225
1895.287	6190
1897.399	6261
1899.508	6114
1901.617	6159
1903.724	6107
1905.832	6276
1907.941	6209
1910.046	6250
1912.152	6181
1914.256	6196
1916.361	6161
1918.464	6292
1920.57	6305
1922.672	6229
1924.775	6319
1926.876	6142
1928.978	6215
1931.08	6164
1933.181	6258
1935.28	6162
1937.38	6196
1939.478	6261
1941.577	6171
1943.675	6113
1945.771	6288
1947.867	6324
1949.964	6210
1952.058	6290
1954.154	6256
1956.248	6404
1958.343	6241
1960.435	6278
1962.527	6236
1964.62	6146
1966.711	6318
1968.802	6312
1970.892	6280
1972.983	6161
1975.072	6108
1977.162	6217
1979.25	6240
1981.337	6039
1983.424	6185
1985.51	6218
1987.598	6208
1989.683	6155
1991.768	6133
1993.852	6160
1995.934	6182
1998.019	6061
2000.102	6285
2002.184	6210
2004.266	6280
2006.347	6179
2008.427	6110
2010.508	6115
2012.587	6159
2014.666	6170
2016.745	6071
2018.821	6045
2020.9	6220
2022.977	6193
2025.052	6198
2027.128	6222
2029.204	6167
2031.277	6166
2033.353	6093
2035.425	6218
2037.499	6071
2039.57	6073
2041.642	6123
2043.714	6044
2045.786	6144
2047.855	6201
2049.925	6295
2051.993	6124
2054.064	6200
2056.132	6078
2058.2	6191
2060.266	6248
2062.332	6058
2064.398	6060
2066.465	6086
2068.529	6129
2070.592	6075
2072.657	6158
2074.719	6141
2076.783	6190
2078.845	6094
2080.907	6076
2082.968	6101
2085.028	6286
2087.087	6127
2089.148	6175
2091.207	6124
2093.264	6078
2095.322	6074
2097.379	6176
2099.439	6286
2101.495	6145
2103.55	6071
2105.605	6060
2107.658	6163
2109.713	6128
2111.767	6120
2113.82	6186
2115.872	6123
2117.924	6286
2119.975	6176
2122.028	6165
2124.078	6169
2126.126	6036
2128.176	6194
2130.225	6041
2132.275	6084
2134.321	6146
2136.368	6072
2138.415	6070
2140.461	6095
2142.505	6090
2144.552	6045
2146.597	6167
2148.64	6126
2150.684	6146
2152.725	6103
2154.77	6166
2156.811	6102
2158.852	6065
2160.894	6060
2162.933	6127
2164.973	6098
2167.013	6127
2169.051	6124
2171.089	6136
2173.126	5975
2175.164	6125
2177.201	6005
2179.236	6027
2181.273	6065
2183.307	6085
2185.341	6069
2187.377	6117
2189.41	6009
2191.442	5991
2193.473	6031
2195.506	6017
2197.539	6019
2199.569	6075
2201.598	5932
2203.628	6012
2205.656	5921
2207.686	5961
2209.716	6117
2211.743	5981
2213.769	6002
2215.796	5910
2217.821	5958
2219.848	5978
2221.873	5975
2223.897	6020
2225.921	5936
2227.944	6023
2229.967	5974
2231.991	6010
2234.011	6172
2236.032	6005
2238.053	5953
2240.073	5999
2242.094	5904
2244.114	5929
2246.131	5921
2248.149	5952
2250.167	6006
2252.186	5920
2254.201	5930
2256.218	5943
2258.233	5947
2260.247	5968
2262.262	5887
2264.278	6038
2266.29	5880
2268.303	6028
2270.315	5908
2272.327	6021
2274.341	6001
2276.35	5917
2278.361	5886
2280.37	5778
2282.38	6017
2284.388	6010
2286.397	5975
2288.405	5957
2290.412	5872
2292.419	5983
2294.425	5952
2296.431	5997
2298.437	6003
2300.441	5882
2302.445	5971
2304.449	5904
2306.453	5948
2308.455	5921
2310.457	5969
2312.459	5904
2314.46	5859
2316.46	5866
2318.461	5985
2320.46	5910
2322.458	5796
2324.458	5920
2326.456	5908
2328.455	5911
2330.451	5835
2332.447	5859
2334.443	5872
2336.438	5937
2338.433	5849
2340.429	5874
2342.422	5900
2344.416	5891
2346.408	5868
2348.399	5801
2350.393	5864
2352.384	5858
2354.375	5890
2356.365	5795
2358.355	5837
2360.344	5729
2362.333	5852
2364.322	5739
2366.309	5789
2368.295	5824
2370.282	5826
2372.27	5819
2374.256	5753
2376.24	5931
2378.225	5787
2380.208	5764
2382.194	5848
2384.177	5724
2386.159	5778
2388.142	5757
2390.122	5601
2392.105	5750
2394.085	5682
2396.066	5728
2398.044	5829
2400.024	5779
2402.002	5746
2403.982	5749
2405.959	5706
2407.935	5762
2409.913	5708
2411.888	5784
2413.865	5646
2415.84	5843
2417.814	5813
2419.788	5822
2421.762	5742
2423.735	5748
2425.708	5815
2427.68	5728
2429.651	5768
2431.623	5872
2433.593	5716
2435.564	5666
2437.533	5837
2439.502	5817
2441.47	5725
2443.438	5776
2445.406	5601
2447.373	5802
2449.34	5726
2451.305	5739
2453.271	5673
2455.235	5678
2457.201	5742
2459.165	5683
2461.129	5822
2463.092	5738
2465.054	5715
2467.018	5595
2468.978	5730
2470.939	5604
2472.899	5719
2474.86	5729
2476.819	5730
2478.778	5688
2480.737	5570
2482.695	5763
2484.653	5543
2486.609	5652
2488.567	5623
2490.524	5678
2492.478	5639
2494.433	5689
2496.387	5656
2498.343	5737
2500.297	5711
2502.249	5648
2504.202	5642
2506.153	5615
2508.105	5656
2510.057	5576
2512.008	5571
2513.957	5612
2515.906	5653
2517.855	5646
2519.805	5664
2521.754	5713
2523.7	5682
2525.647	5524
2527.594	5604
2529.54	5532
2531.486	5620
2533.431	5644
2535.376	5666
2537.32	5523
2539.263	5668
2541.207	5572
2543.151	5568
2545.093	5732
2547.034	5590
2548.975	5600
2550.917	5626
2552.856	5549
2554.796	5681
2556.735	5538
2558.673	5566
2560.611	5686
2562.55	5624
2564.487	5680
2566.424	5587
2568.36	5531
2570.296	5575
2572.232	5579
2574.167	5656
2576.101	5606
2578.035	5633
2579.969	5634
2581.902	5605
2583.834	5615
2585.766	5640
2587.698	5523
2589.628	5571
2591.557	5585
2593.489	5584
2595.419	5632
2597.348	5630
2599.275	5626
2601.204	5622
2603.131	5600
2605.059	5567
2606.986	5678
2608.911	5546
2610.837	5607
2612.76	5565
2614.687	5596
2616.61	5680
2618.534	5612
2620.457	5622
2622.38	5660
2624.302	5631
2626.225	5679
2628.145	5570
2630.067	5622
2631.986	5610
2633.906	5700
2635.827	5565
2637.745	5601
2639.662	5674
2641.581	5608
2643.498	5661
2645.415	5676
2647.331	5616
2649.248	5650
2651.163	5678
2653.077	5621
2654.993	5561
2656.906	5587
2658.821	5661
2660.733	5559
2662.646	5516
2664.557	5614
2666.47	5646
2668.381	5583
2670.291	5588
2672.201	5485
2674.11	5579
2676.021	5628
2677.929	5591
2679.837	5626
2681.745	5530
2683.652	5547
2685.56	5541
2687.466	5561
2689.371	5513
2691.276	5470
2693.181	5399
2695.085	5503
2696.991	5545
2698.893	5535
2700.796	5594
2702.698	5538
2704.601	5454
2706.502	5515
2708.404	5517
2710.304	5518
2712.203	5493
2714.103	5531
2716.003	5505
2717.902	5486
2719.8	5465
2721.697	5503
2723.594	5415
2725.49	5510
2727.389	5581
2729.283	5573
2731.179	5462
2733.073	5468
2734.968	5545
2736.863	5418
2738.757	5432
2740.649	5549
2742.541	5585
2744.433	5446
2746.324	5412
2748.216	5377
2750.107	5468
2751.997	5403
2753.886	5430
2755.776	5520
2757.666	5476
2759.553	5453
2761.44	5460
2763.327	5417
2765.215	5414
2767.102	5359
2768.988	5388
2770.873	5467
2772.757	5437
2774.641	5453
2776.525	5413
2778.41	5368
2780.292	5406
2782.175	5461
2784.057	5391
2785.938	5396
2787.821	5427
2789.701	5402
2791.581	5389
2793.461	5404
2795.34	5414
2797.219	5499
2799.099	5418
2800.975	5392
2802.853	5303
2804.73	5331
2806.606	5371
2808.484	5337
2810.358	5275
2812.233	5456
2814.108	5294
2815.981	5388
2817.857	5283
2819.73	5402
2821.602	5426
2823.474	5420
2825.346	5420
2827.217	5343
2829.089	5321
2830.959	5295
2832.829	5273
2834.698	5354
2836.567	5412
2838.436	5495
2840.305	5411
2842.172	5352
2844.04	5385
2845.905	5259
2847.772	5421
2849.639	5350
2851.503	5430
2853.369	5410
2855.232	5406
2857.096	5474
2858.961	5469
2860.824	5485
2862.686	5445
2864.547	5493
2866.41	5437
2868.272	5515
2870.132	5506
2871.992	5617
2873.851	5676
2875.711	5656
2877.57	5611
2879.429	5723
2881.287	5674
2883.144	5703
2885.001	5810
2886.857	5772
2888.714	5772
2890.57	5665
2892.425	5791
2894.279	5756
2896.133	5747
2897.987	5721
2899.842	5798
2901.694	5737
2903.547	5715
2905.397	5729
2907.249	5664
2909.101	5810
2910.952	5684
2912.802	5808
2914.652	5779
2916.5	5888
2918.35	5973
2920.198	5994
2922.045	5986
2923.893	6003
2925.74	6034
2927.585	6139
2929.433	5986
2931.279	6252
2933.123	6237
2934.968	6307
2936.811	6394
2938.656	6438
2940.5	6422
2942.342	6554
2944.185	6435
2946.026	6684
2947.87	6457
2949.71	6487
2951.549	6386
2953.39	6312
2955.229	6367
2957.069	6168
2958.908	6202
2960.746	6202
2962.584	6028
2964.421	6080
2966.257	6309
2968.094	5943
2969.931	5979
2971.766	5925
2973.601	5943
2975.435	5913
2977.27	5881
2979.105	5892
2980.938	5820
2982.77	5870
2984.602	5773
2986.434	5693
2988.267	5814
2990.097	5734
2991.927	5558
2993.757	5659
2995.587	5650
2997.417	5634
2999.246	5620
3001.074	5500
3002.902	5468
3004.729	5523
3006.556	5330
3008.384	5371
3010.21	5352
3012.036	5246
3013.861	5266
3015.684	5212
3017.51	5152
3019.334	5224
3021.157	5155
3022.981	5124
3024.802	5138
3026.624	5108
3028.448	5037
3030.267	5118
3032.088	5014
3033.909	5066
3035.728	5026
3037.549	5040
3039.368	4917
3041.186	5004
3043.004	4951
3044.821	5019
3046.64	4928
3048.455	4999
3050.272	5107
3052.087	5014
3053.903	5015
3055.717	4954
3057.534	5006
3059.347	5068
3061.16	5016
3062.974	4964
3064.785	4925
3066.598	4953
3068.411	4999
3070.222	4986
3072.032	5027
3073.844	4933
3075.653	5013
3077.463	4905
3079.272	4923
3081.08	4959
3082.889	4838
3084.697	4796
3086.505	4954
3088.312	4890
3090.118	4919
3091.924	4732
3093.729	4981
3095.535	4804
3097.34	4878
3099.144	4815
3100.947	4909
3102.75	5001
3104.553	4785
3106.357	4817
3108.159	4851
3109.961	4753
3111.762	4811
3113.562	4761
3115.365	4754
3117.164	4823
3118.964	4789
3120.761	4796
3122.56	4774
3124.36	4721
3126.158	4793
3127.954	4852
3129.75	4668
3131.547	4741
3133.343	4687
3135.139	4665
3136.934	4710
3138.729	4674
3140.522	4672
3142.317	4751
3144.11	4654
3145.904	4799
3147.695	4635
3149.488	4789
3151.28	4820
3153.07	4733
3154.863	4645
3156.652	4701
3158.441	4707
3160.231	4691
3162.019	4704
3163.81	4722
3165.597	4672
3167.384	4647
3169.172	4716
3170.958	4649
3172.745	4657
3174.532	4707
3176.317	4630
3178.101	4629
3179.885	4705
3181.67	4552
3183.455	4685
3185.238	4602
3187.02	4634
3188.802	4611
3190.585	4644
3192.368	4670
3194.149	4606
3195.929	4512
3197.709	4591
3199.489	4636
3201.268	4586
3203.048	4628
3204.826	4616
3206.604	4521
3208.382	4627
3210.159	4679
3211.937	4667
3213.713	4567
3215.489	4557
3217.263	4629
3219.038	4688
3220.815	4494
3222.589	4605
3224.363	4649
3226.136	4588
3227.908	4578
3229.681	4589
3231.454	4643
3233.226	4570
3234.996	4581
3236.767	4610
3238.538	4548
3240.308	4534
3242.078	4639
3243.847	4551
3245.615	4613
3247.384	4586
3249.15	4581
3250.92	4586
3252.686	4638
3254.453	4633
3256.218	4628
3257.984	4534
3259.75	4528
3261.515	4587
3263.279	4556
3265.044	4531
3266.806	4540
3268.57	4490
3270.334	4554
3272.095	4523
3273.856	4623
3275.619	4478
3277.379	4551
3279.14	4602
3280.9	4507
3282.661	4556
3284.419	4681
3286.178	4532
3287.937	4507
3289.695	4537
3291.453	4574
3293.21	4629
3294.967	4549
3296.723	4524
3298.48	4504
3300.235	4575
3301.99	4659
3303.744	4628
3305.498	4597
3307.253	4557
3309.006	4544
3310.759	4622
3312.511	4654
3314.263	4538
3316.017	4543
3317.768	4584
3319.519	4495
3321.268	4528
3323.018	4536
3324.767	4592
3326.518	4573
3328.267	4592
3330.014	4660
3331.762	4545
3333.509	4553
3335.258	4503
3337.003	4583
3338.75	4450
3340.496	4509
3342.24	4614
3343.987	4585
3345.732	4510
3347.475	4605
3349.219	4471
3350.961	4575
3352.705	4535
3354.448	4487
3356.19	4485
3357.931	4513
3359.672	4442
3361.412	4431
3363.155	4491
3364.894	4500
3366.633	4398
3368.372	4554
3370.11	4433
3371.849	4436
3373.588	4433
3375.325	4467
3377.061	4415
3378.799	4350
3380.534	4467
3382.271	4408
3384.006	4465
3385.741	4436
3387.475	4430
3389.209	4467
3390.944	4366
3392.677	4393
3394.409	4372
3396.143	4352
3397.874	4389
3399.606	4473
3401.338	4305
3403.069	4314
3404.799	4355
3406.528	4371
3408.258	4344
3409.988	4411
3411.717	4374
3413.445	4376
3415.173	4363
3416.899	4376
3418.626	4408
3420.354	4303
3422.08	4320
3423.806	4314
3425.531	4386
3427.255	4322
3428.981	4336
3430.705	4240
3432.429	4326
3434.151	4279
3435.875	4234
3437.599	4362
3439.321	4328
3441.042	4307
3442.763	4350
3444.483	4233
3446.204	4279
3447.926	4296
3449.645	4235
3451.364	4290
3453.082	4178
3454.801	4226
3456.52	4216
3458.238	4294
3459.954	4322
3461.671	4125
3463.387	4160
3465.104	4243
3466.82	4166
3468.534	4125
3470.25	4160
3471.963	4127
3473.676	4112
3475.392	4144
3477.104	4161
3478.817	4166
3480.528	4151
3482.241	4154
3483.954	4162
3485.664	4197
3487.374	4105
3489.084	4133
3490.795	4159
3492.504	4194
3494.214	4082
3495.922	4043
3497.63	4088
3499.338	4250
3501.045	4115
3502.753	4027
3504.459	4114
3506.166	4098
3507.871	4010
3509.576	3997
3511.283	4004
3512.987	4026
3514.691	4054
3516.395	4026
3518.098	3997
3519.8	4090
3521.504	4004
3523.206	4027
3524.908	4045
3526.609	4041
3528.309	4067
3530.011	4011
3531.711	4076
3533.411	4012
3535.109	4005
3536.808	3957
3538.507	3977
3540.206	3952
3541.904	3980
3543.601	3883
3545.297	3931
3546.994	4048
3548.69	3905
3550.387	3964
3552.081	3969
3553.776	3882
3555.47	3983
3557.166	3881
3558.859	3925
3560.553	3850
3562.245	4023
3563.938	3933
3565.629	3837
3567.322	3935
3569.014	3943
3570.704	3896
3572.394	3890
3574.084	3960
3575.775	3854
3577.464	3910
3579.152	3915
3580.842	3830
3582.529	3865
3584.216	3955
3585.905	3795
3587.591	3777
3589.279	3796
3590.964	3723
3592.649	3841
3594.336	3816
3596.021	3757
3597.705	3808
3599.388	3812
3601.072	3725
3602.757	3842
3604.439	3748
3606.122	3818
3607.803	3783
3609.485	3653
3611.167	3762
3612.849	3765
3614.529	3714
3616.208	3683
3617.888	3764
3619.567	3737
3621.247	3716
3622.926	3644
3624.603	3730
3626.281	3805
3627.958	3659
3629.635	3686
3631.312	3738
3632.989	3638
3634.665	3683
3636.339	3689
3638.014	3698
3639.691	3654
3641.364	3655
3643.038	3640
3644.71	3617
3646.384	3593
3648.058	3569
3649.729	3606
3651.402	3613
3653.073	3640
3654.744	3697
3656.414	3643
3658.085	3652
3659.755	3590
3661.424	3686
3663.094	3581
3664.762	3684
3666.431	3602
3668.099	3693
3669.766	3599
3671.433	3574
3673.099	3608
3674.768	3662
3676.433	3620
3678.098	3619
3679.763	3606
3681.428	3598
3683.093	3475
3684.757	3551
3686.421	3526
3688.083	3629
3689.746	3556
3691.408	3595
3693.071	3570
3694.733	3565
3696.394	3404
3698.054	3525
3699.715	3467
3701.375	3529
3703.036	3559
3704.695	3473
3706.354	3454
3708.012	3517
3709.67	3510
3711.329	3442
3712.987	3471
3714.644	3449
3716.299	3519
3717.955	3550
3719.613	3518
3721.268	3581
3722.923	3501
3724.577	3421
3726.231	3479
3727.885	3449
3729.539	3428
3731.192	3447
3732.845	3569
3734.497	3423
3736.149	3474
3737.802	3488
3739.453	3486
3741.104	3448
3742.753	3422
3744.404	3523
3746.052	3450
3747.704	3459
3749.352	3450
3751	3461
3752.648	3424
3754.296	3411
3755.944	3464
3757.59	3428
3759.238	3406
3760.883	3464
3762.528	3426
3764.176	3411
3765.82	3455
3767.464	3328
3769.109	3427
3770.753	3445
3772.396	3347
3774.04	3354
3775.683	3308
3777.325	3329
3778.967	3380
3780.608	3418
3782.25	3424
3783.89	3429
3785.531	3374
3787.17	3394
3788.81	3368
3790.45	3420
3792.09	3332
3793.729	3366
3795.366	3315
3797.003	3376
3798.64	3394
3800.278	3347
3801.915	3307
3803.551	3281
3805.187	3252
3806.822	3408
3808.458	3297
3810.093	3353
3811.726	3299
3813.36	3241
3814.994	3280
3816.627	3317
3818.262	3308
3819.893	3312
3821.525	3273
3823.157	3342
3824.787	3208
3826.42	3254
3828.051	3205
3829.68	3258
3831.31	3335
3832.938	3231
3834.569	3243
3836.198	3261
3837.825	3306
3839.454	3238
3841.08	3227
3842.708	3241
3844.335	3222
3845.962	3273
3847.587	3253
3849.212	3247
3850.838	3188
3852.463	3232
3854.089	3204
3855.712	3217
3857.335	3216
3858.959	3165
3860.582	3207
3862.205	3234
3863.827	3237
3865.449	3252
3867.07	3209
3868.691	3193
3870.312	3160
3871.933	3174
3873.553	3178
3875.173	3139
3876.792	3238
3878.411	3196
3880.03	3219
3881.647	3181
3883.265	3221
3884.882	3240
3886.499	3123
3888.116	3164
3889.732	3156
3891.348	3177
3892.964	3195
3894.579	3173
3896.195	3180
3897.809	3190
3899.423	3172
3901.036	3163
3902.648	3122
3904.261	3150
3905.875	3144
3907.487	3107
3909.099	3233
3910.709	3122
3912.321	3148
3913.933	3131
3915.542	3147
3917.152	3136
3918.762	3150
3920.37	3122
3921.98	3135
3923.589	3164
3925.196	3130
3926.804	3140
3928.41	3127
3930.018	3128
3931.626	3107
3933.231	3104
3934.838	3124
3936.442	3083
3938.046	3039
3939.653	3104
3941.257	3085
3942.861	3175
3944.464	3069
3946.068	3088
3947.67	3144
3949.273	3140
3950.876	3104
3952.477	3095
3954.078	2985
3955.678	3084
3957.281	3010
3958.881	3066
3960.48	3008
3962.079	3138
3963.678	3087
3965.279	3071
3966.877	3050
3968.475	3091
3970.072	3085
3971.669	2982
3973.266	3116
3974.864	3090
3976.459	3009
3978.055	3106
3979.65	3012
3981.245	3070
3982.841	3032
3984.436	3017
3986.03	3019
3987.623	3093
3989.216	3029
3990.809	3047
3992.403	2956
3993.995	2943
3995.586	2967
3997.177	3017
3998.768	2981
4000.361	2961
4001.951	2947
4003.54	2993
4005.13	2964
4006.719	2913
4008.31	3003
4009.897	2964
4011.485	2924
4013.073	2946
4014.66	2978
4016.247	2985
4017.834	2964
4019.421	2855
4021.006	2965
4022.592	2898
4024.178	2975
4025.763	2895
4027.348	2839
4028.932	2908
4030.515	2937
4032.099	2823
4033.682	2858
4035.266	2825
4036.847	2885
4038.429	2915
4040.011	2804
4041.592	2851
4043.173	2878
4044.755	2949
4046.334	2842
4047.913	2895
4049.494	2883
4051.074	2843
4052.652	2826
4054.23	2802
4055.807	2841
4057.385	2844
4058.963	2793
4060.541	2876
4062.117	2914
4063.693	2843
4065.269	2829
4066.844	2842
4068.42	2785
4069.995	2810
4071.569	2800
4073.143	2809
4074.716	2824
4076.291	2878
4077.864	2799
4079.436	2874
4081.009	2831
4082.58	2858
4084.152	2866
4085.723	2820
4087.294	2811
4088.865	2821
4090.435	2818
4092.005	2748
4093.574	2774
4095.143	2827
4096.712	2792
4098.279	2831
4099.848	2748
4101.416	2826
4102.984	2843
4104.55	2827
4106.117	2742
4107.682	2807
4109.248	2850
4110.815	2748
4112.379	2732
4113.945	2779
4115.508	2773
4117.073	2780
4118.637	2806
4120.201	2699
4121.763	2786
4123.325	2810
4124.888	2754
4126.449	2763
4128.013	2711
4129.573	2727
4131.133	2753
4132.694	2732
4134.254	2718
4135.814	2688
4137.374	2734
4138.933	2749
4140.491	2660
4142.049	2678
4143.607	2678
4145.167	2730
4146.724	2654
4148.28	2745
4149.836	2704
4151.392	2740
4152.949	2771
4154.504	2687
4156.059	2654
4157.614	2686
4159.168	2664
4160.723	2668
4162.277	2652
4163.83	2612
4165.383	2662
4166.936	2698
4168.488	2565
4170.041	2673
4171.593	2636
4173.144	2646
4174.695	2615
4176.246	2645
4177.796	2577
4179.346	2607
4180.896	2586
4182.445	2720
4183.994	2658
4185.542	2545
4187.091	2571
4188.639	2600
4190.185	2489
4191.732	2617
4193.279	2615
4194.826	2628
4196.373	2603
4197.918	2602
4199.463	2601
4201.008	2559
4202.553	2619
4204.098	2537
4205.641	2590
4207.185	2609
4208.728	2522
4210.271	2531
4211.814	2569
4213.357	2475
4214.898	2622
4216.439	2529
4217.98	2582
4219.522	2509
4221.062	2613
4222.603	2514
4224.142	2507
4225.681	2604
4227.222	2552
4228.76	2577
4230.298	2530
4231.835	2549
4233.373	2464
4234.911	2540
4236.449	2472
4237.985	2520
4239.521	2581
4241.057	2492
4242.592	2459
4244.128	2507
4245.663	2536
4247.197	2507
4248.731	2515
4250.265	2559
4251.798	2490
4253.333	2423
4254.865	2483
4256.397	2419
4257.93	2514
4259.461	2543
4260.994	2500
4262.525	2495
4264.056	2535
4265.586	2490
4267.115	2443
4268.646	2474
4270.176	2462
4271.705	2508
4273.232	2518
4274.761	2460
4276.289	2509
4277.818	2499
4279.345	2441
4280.872	2416
4282.399	2461
4283.924	2456
4285.452	2413
4286.976	2448
4288.502	2478
4290.026	2419
4291.551	2417
4293.074	2372
4294.6	2468
4296.123	2433
4297.646	2403
4299.168	2476
4300.691	2419
4302.214	2410
4303.736	2405
4305.257	2408
4306.778	2470
4308.299	2400
4309.82	2379
4311.34	2373
4312.86	2441
4314.379	2419
