400.0745	4345
402.597	4398
405.1208	4338
407.6419	4323
410.1623	4372
412.6819	4395
415.201	4311
417.7172	4434
420.2369	4536
422.7538	4521
425.2701	4555
427.7856	4667
430.3005	4630
432.8147	4621
435.3282	4636
437.841	4605
440.3511	4675
442.8625	4618
445.3753	4605
447.8854	4744
450.3927	4693
452.9014	4669
455.4073	4698
457.9146	4643
460.4233	4600
462.9272	4602
465.4325	4703
467.935	4594
470.4389	4651
472.9421	4587
475.4446	4625
477.9444	4750
480.4456	4776
482.944	4688
485.4417	4603
487.9429	4702
490.4393	4681
492.935	4760
495.4321	4761
497.9264	4775
500.4221	4766
502.9171	4816
505.4094	4835
507.9011	4746
510.392	4849
512.8864	4827
515.3759	4733
517.8649	4844
520.3531	4907
522.8406	4846
525.3275	4829
527.8178	4888
530.3033	4928
532.7881	4772
535.2723	4821
537.7558	4810
540.2407	4865
542.7228	4814
545.2043	4768
547.6851	4788
550.1652	4874
552.6467	4842
555.1255	4854
557.6016	4843
560.079	4869
562.5557	4893
565.0318	4954
567.5092	4970
569.984	5028
572.456	4977
574.9294	5016
577.4022	5123
579.8762	5023
582.3456	4992
584.8163	5078
587.2863	5116
589.7557	5209
592.2224	5070
594.6924	5119
597.1578	5073
599.6245	4969
602.0905	5012
604.5538	5080
607.0206	5057
609.4825	5044
611.9459	5048
614.4066	5092
616.8686	5061
619.33	5050
621.7906	5041
624.2487	4958
626.708	4983
629.1647	4939
631.6207	5089
634.0801	4957
636.5348	5038
638.9888	5057
641.4442	5061
643.8969	5010
646.3509	5077
648.8022	4954
651.255	5181
653.705	5094
656.1544	5208
658.6031	5133
661.0532	5101
663.5026	5108
665.9493	5075
668.3954	5127
670.8409	5100
673.2877	5160
675.7318	5138
678.1752	5205
680.618	5246
683.0601	5188
685.5035	5221
687.9444	5155
690.3845	5250
692.824	5250
695.2628	5215
697.701	5161
700.1406	5176
702.5774	5197
705.0116	5244
707.4472	5394
709.8821	5385
712.3183	5378
714.7519	5278
717.1829	5339
719.6151	5345
722.0468	5365
724.4777	5280
726.908	5245
729.3377	5307
731.7667	5254
734.1931	5388
736.6208	5456
739.0498	5292
741.4742	5455
743.9	5415
746.3231	5379
748.7476	5580
751.1713	5458
753.5945	5592
756.015	5585
758.4368	5578
760.856	5523
763.2766	5549
765.6965	5572
768.1157	5601
770.5323	5566
772.9483	5556
775.3656	5491
777.7822	5533
780.1963	5623
782.6116	5636
785.0244	5682
787.4365	5591
789.8499	5594
792.2626	5650
794.6728	5558
797.0823	5607
799.4911	5526
801.8994	5607
804.3109	5556
806.7178	5592
809.124	5563
811.5297	5731
813.9347	5687
816.341	5734
818.7447	5681
821.1478	5694
823.5502	5606
825.952	5665
828.3531	5652
830.7556	5543
833.1554	5698
835.5546	5724
837.9532	5772
840.3511	5655
842.7504	5798
845.1451	5768
847.5411	5771
849.9365	5814
852.3312	5771
854.7272	5788
857.1187	5850
859.5115	5691
861.9037	5782
864.2952	5772
866.6842	5761
869.0764	5619
871.4661	5798
873.8531	5728
876.2415	5907
878.6272	5827
881.0162	5786
883.4026	5660
885.7866	5765
888.1717	5738
890.5543	5719
892.9382	5749
895.3215	5702
897.7041	5811
900.0842	5831
902.4655	5817
904.8443	5798
907.2244	5788
909.6039	5783
911.9808	5785
914.357	5778
916.7346	5921
919.1115	5861
921.4859	5788
923.8616	5981
926.2347	5896
928.6071	6012
930.979	5983
933.3541	5991
935.7247	6014
938.0946	6078
940.4639	6318
942.8326	6240
945.2026	6249
947.5701	6399
949.9369	6531
952.305	6817
954.6705	7004
957.0355	7288
959.4017	7530
961.7654	7635
964.1284	7576
966.4908	7499
968.8527	7123
971.2138	6728
973.5743	6689
975.9343	6376
978.2936	6251
980.6522	6086
983.0122	5953
985.3696	5951
987.7245	6044
990.0807	5928
992.4362	5967
994.7911	6004
997.1474	6062
999.4991	5999
1001.852	6047
1004.205	6077
1006.555	6066
1008.908	5975
1011.258	6075
1013.606	5867
1015.956	5984
1018.302	6188
1020.652	6135
1022.998	6016
1025.345	5993
1027.691	6055
1030.035	6032
1032.378	6084
1034.724	6130
1037.066	6181
1039.409	6206
1041.75	6157
1044.092	6078
1046.433	6057
1048.771	6142
1051.112	6098
1053.449	6152
1055.786	6009
1058.124	6165
1060.462	6179
1062.797	6198
1065.131	6229
1067.467	6136
1069.8	6148
1072.135	6253
1074.467	6217
1076.798	6246
1079.129	6275
1081.459	6154
1083.792	6156
1086.121	6243
1088.449	6124
1090.777	6108
1093.104	6091
1095.431	6096
1097.759	6100
1100.084	6185
1102.408	6205
1104.732	6026
1107.056	6120
1109.379	6018
1111.701	6122
1114.022	6235
1116.343	6130
1118.664	6082
1120.983	6164
1123.303	6149
1125.621	6193
1127.939	6232
1130.256	6155
1132.573	6067
1134.889	6145
1137.205	6007
1139.52	6079
1141.832	6140
1144.146	6193
1146.461	6155
1148.771	6136
1151.083	6135
1153.392	6055
1155.703	6045
1158.011	6170
1160.323	6121
1162.629	6149
1164.938	6090
1167.243	6140
1169.55	6225
1171.857	6107
1174.163	6086
1176.466	6160
1178.769	6214
1181.073	6142
1183.374	6153
1185.677	6213
1187.979	6038
1190.279	6076
1192.578	6145
1194.878	6071
1197.178	6164
1199.476	6142
1201.772	6134
1204.068	6192
1206.366	6144
1208.663	6089
1210.957	6146
1213.251	6147
1215.544	6193
1217.836	6237
1220.128	6151
1222.421	6077
1224.712	6140
1227.002	6232
1229.292	6197
1231.581	6299
1233.871	6327
1236.159	6377
1238.446	6315
1240.732	6354
1243.018	6317
1245.304	6406
1247.59	6274
1249.874	6400
1252.156	6293
1254.439	6376
1256.721	6367
1259.005	6289
1261.286	6475
1263.565	6372
1265.845	6436
1268.125	6331
1270.403	6376
1272.682	6216
1274.959	6285
1277.234	6456
1279.511	6352
1281.787	6332
1284.062	6304
1286.337	6331
1288.609	6383
1290.882	6354
1293.153	6294
1295.428	6282
1297.698	6291
1299.969	6318
1302.237	6153
1304.507	6288
1306.777	6149
1309.044	6274
1311.312	6309
1313.578	6283
1315.844	6259
1318.109	6300
1320.375	6187
1322.638	6166
1324.903	6212
1327.165	6254
1329.427	6294
1331.69	6279
1333.952	6294
1336.212	6232
1338.471	6169
1340.73	6360
1342.988	6274
1345.248	6314
1347.505	6233
1349.763	6286
1352.019	6242
1354.274	6252
1356.53	6180
1358.784	6262
1361.038	6342
1363.291	6235
1365.543	6208
1367.797	6179
1370.048	6288
1372.296	6281
1374.546	6353
1376.796	6342
1379.045	6268
1381.295	6287
1383.542	6271
1385.787	6326
1388.034	6321
1390.28	6357
1392.527	6173
1394.772	6447
1397.014	6313
1399.258	6311
1401.501	6549
1403.741	6327
1405.985	6434
1408.226	6394
1410.465	6331
1412.705	6419
1414.943	6340
1417.184	6387
1419.42	6365
1421.658	6415
1423.894	6432
1426.13	6467
1428.366	6362
1430.602	6459
1432.835	6428
1435.069	6471
1437.301	6433
1439.535	6428
1441.767	6537
1443.997	6515
1446.229	6543
1448.458	6593
1450.687	6678
1452.916	6548
1455.146	6521
1457.372	6702
1459.599	6556
1461.824	6543
1464.051	6534
1466.277	6556
1468.501	6567
1470.725	6566
1472.948	6551
1475.17	6409
1477.393	6473
1479.614	6396
1481.837	6425
1484.057	6370
1486.276	6384
1488.497	6384
1490.715	6309
1492.932	6305
1495.148	6360
1497.364	6363
1499.58	6210
1501.798	6242
1504.012	6314
1506.227	6253
1508.44	6284
1510.653	6303
1512.866	6274
1515.078	6193
1517.289	6203
1519.5	6239
1521.711	6303
1523.92	6251
1526.13	6320
1528.338	6212
1530.544	6375
1532.752	6298
1534.959	6224
1537.165	6267
1539.371	6313
1541.574	6282
1543.779	6242
1545.983	6244
1548.187	6315
1550.39	6350
1552.59	6446
1554.792	6238
1556.991	6385
1559.19	6318
1561.392	6376
1563.59	6437
1565.789	6332
1567.986	6416
1570.182	6318
1572.381	6443
1574.576	6478
1576.771	6372
1578.966	6356
1581.16	6527
1583.354	6520
1585.546	6500
1587.74	6481
1589.931	6456
1592.121	6443
1594.311	6537
1596.502	6534
1598.693	6420
1600.881	6475
1603.069	6526
1605.256	6548
1607.445	6441
1609.631	6522
1611.816	6577
1614.001	6610
1616.186	6525
1618.37	6528
1620.555	6500
1622.737	6479
1624.919	6490
1627.101	6569
1629.282	6597
1631.463	6458
1633.643	6648
1635.822	6419
1638.001	6630
1640.179	6596
1642.359	6529
1644.534	6553
1646.711	6645
1648.887	6494
1651.062	6615
1653.235	6554
1655.412	6790
1657.586	6582
1659.757	6568
1661.93	6604
1664.1	6641
1666.274	6590
1668.445	6600
1670.614	6596
1672.784	6678
1674.951	6684
1677.12	6652
1679.289	6587
1681.457	6617
1683.622	6654
1685.789	6616
1687.953	6612
1690.121	6634
1692.284	6525
1694.447	6724
1696.611	6483
1698.772	6562
1700.935	6430
1703.098	6535
1705.258	6499
1707.417	6507
1709.576	6447
1711.736	6502
1713.896	6400
1716.053	6531
1718.21	6421
1720.366	6480
1722.522	6447
1724.68	6451
1726.835	6411
1728.989	6468
1731.142	6505
1733.295	6460
1735.449	6463
1737.601	6378
1739.753	6462
1741.903	6476
1744.054	6523
1746.203	6377
1748.354	6606
1750.503	6539
1752.651	6530
1754.798	6444
1756.944	6485
1759.092	6454
1761.238	6511
1763.383	6527
1765.528	6475
1767.672	6457
1769.814	6564
1771.959	6476
1774.102	6469
1776.242	6535
1778.384	6556
1780.525	6481
1782.665	6541
1784.805	6538
1786.945	6530
1789.082	6577
1791.22	6562
1793.36	6569
1795.495	6627
1797.632	6604
1799.766	6515
1801.902	6481
1804.035	6570
1806.172	6445
1808.304	6499
1810.436	6508
1812.569	6637
1814.699	6555
1816.833	6504
1818.963	6538
1821.092	6546
1823.222	6504
1825.35	6577
1827.478	6409
1829.608	6516
1831.734	6517
1833.86	6453
1835.986	6432
1838.11	6336
1840.238	6439
1842.362	6445
1844.485	6487
1846.608	6429
1848.73	6429
1850.853	6416
1852.974	6565
1855.097	6449
1857.217	6488
1859.336	6486
1861.455	6457
1863.576	6467
1865.693	6461
1867.811	6436
1869.926	6380
1872.042	6368
1874.16	6488
1876.275	6359
1878.39	6578
1880.504	6468
1882.618	6495
1884.731	6484
1886.843	6433
1888.956	6478
1891.067	6414
1893.178	6507
1895.287	6493
1897.399	6414
1899.508	6406
1901.617	6561
1903.724	6479
1905.832	6588
1907.941	6549
1910.046	6518
1912.152	6545
1914.256	6614
1916.361	6454
1918.464	6478
1920.57	6545
1922.672	6550
1924.775	6550
1926.876	6496
1928.978	6436
1931.08	6529
1933.181	6523
1935.28	6610
1937.38	6464
1939.478	6544
1941.577	6469
1943.675	6517
1945.771	6473
1947.867	6596
1949.964	6539
1952.058	6496
1954.154	6475
1956.248	6526
1958.343	6559
1960.435	6575
1962.527	6534
1964.62	6499
1966.711	6562
1968.802	6543
1970.892	6473
1972.983	6451
1975.072	6468
1977.162	6474
1979.25	6505
1981.337	6579
1983.424	6416
1985.51	6471
1987.598	6515
1989.683	6487
1991.768	6479
1993.852	6470
1995.934	6404
1998.019	6465
2000.102	6480
2002.184	6462
2004.266	6397
2006.347	6446
2008.427	6442
2010.508	6447
2012.587	6413
2014.666	6405
2016.745	6445
2018.821	6379
2020.9	6425
2022.977	6373
2025.052	6423
2027.128	6480
2029.204	6539
2031.277	6518
2033.353	6441
2035.425	6511
2037.499	6368
2039.57	6435
2041.642	6483
2043.714	6498
2045.786	6418
2047.855	6490
2049.925	6348
2051.993	6367
2054.064	6407
2056.132	6489
2058.2	6499
2060.266	6444
2062.332	6356
2064.398	6475
2066.465	6393
2068.529	6325
2070.592	6356
2072.657	6501
2074.719	6471
2076.783	6374
2078.845	6379
2080.907	6380
2082.968	6437
2085.028	6434
2087.087	6472
2089.148	6447
2091.207	6434
2093.264	6479
2095.322	6439
2097.379	6512
2099.439	6468
2101.495	6472
2103.55	6446
2105.605	6432
2107.658	6462
2109.713	6435
2111.767	6345
2113.82	6383
2115.872	6517
2117.924	6449
2119.975	6443
2122.028	6534
2124.078	6350
2126.126	6356
2128.176	6374
2130.225	6357
2132.275	6350
2134.321	6430
2136.368	6404
2138.415	6423
2140.461	6427
2142.505	6447
2144.552	6361
2146.597	6500
2148.64	6449
2150.684	6419
2152.725	6387
2154.77	6385
2156.811	6453
2158.852	6356
2160.894	6368
2162.933	6332
2164.973	6419
2167.013	6332
2169.051	6343
2171.089	6295
2173.126	6414
2175.164	6344
2177.201	6208
2179.236	6211
2181.273	6389
2183.307	6341
2185.341	6227
2187.377	6314
2189.41	6341
2191.442	6383
2193.473	6349
2195.506	6180
2197.539	6362
2199.569	6276
2201.598	6361
2203.628	6299
2205.656	6318
2207.686	6306
2209.716	6367
2211.743	6198
2213.769	6333
2215.796	6307
2217.821	6231
2219.848	6258
2221.873	6199
2223.897	6192
2225.921	6188
2227.944	6323
2229.967	6212
2231.991	6273
2234.011	6277
2236.032	6240
2238.053	6260
2240.073	6186
2242.094	6254
2244.114	6185
2246.131	6215
2248.149	6277
2250.167	6244
2252.186	6195
2254.201	6095
2256.218	6280
2258.233	6243
2260.247	6306
2262.262	6238
2264.278	6186
2266.29	6161
2268.303	6296
2270.315	6104
2272.327	6154
2274.341	6332
2276.35	6241
2278.361	6288
2280.37	6217
2282.38	6117
2284.388	6309
2286.397	6191
2288.405	6183
2290.412	6184
2292.419	6203
2294.425	6216
2296.431	6231
2298.437	6090
2300.441	6212
2302.445	6257
2304.449	6233
2306.453	6187
2308.455	6202
2310.457	6152
2312.459	6137
2314.46	6126
2316.46	6239
2318.461	6182
2320.46	6279
2322.458	6148
2324.458	6209
2326.456	6122
2328.455	6098
2330.451	6101
2332.447	6293
2334.443	6133
2336.438	6149
2338.433	6097
2340.429	6135
2342.422	6190
2344.416	6095
2346.408	6070
2348.399	6104
2350.393	6046
2352.384	6080
2354.375	5947
2356.365	6110
2358.355	6024
2360.344	6043
2362.333	6135
2364.322	6030
2366.309	5977
2368.295	6066
2370.282	6061
2372.27	6126
2374.256	6028
2376.24	6058
2378.225	6072
2380.208	5972
2382.194	5963
2384.177	6004
2386.159	6048
2388.142	5907
2390.122	5948
2392.105	6074
2394.085	5908
2396.066	6050
2398.044	5997
2400.024	6062
2402.002	5978
2403.982	5946
2405.959	6045
2407.935	6012
2409.913	5942
2411.888	5937
2413.865	5929
2415.84	6071
2417.814	5955
2419.788	6091
2421.762	6002
2423.735	5928
2425.708	5972
2427.68	5955
2429.651	5942
2431.623	5960
2433.593	5914
2435.564	6030
2437.533	5955
2439.502	5971
2441.47	5938
2443.438	5990
2445.406	6031
2447.373	5921
2449.34	6015
2451.305	5940
2453.271	5881
2455.235	5894
2457.201	5963
2459.165	5894
2461.129	6028
2463.092	5887
2465.054	5935
2467.018	5878
2468.978	5919
2470.939	5824
2472.899	5808
2474.86	5979
2476.819	5872
2478.778	5796
2480.737	5824
2482.695	5756
2484.653	5798
2486.609	5886
2488.567	5872
2490.524	5871
2492.478	5862
2494.433	5908
2496.387	5793
2498.343	5842
2500.297	5878
2502.249	5695
2504.202	5911
2506.153	5990
2508.105	5898
2510.057	5880
2512.008	5896
2513.957	5907
2515.906	5904
2517.855	5796
2519.805	5905
2521.754	5893
2523.7	5841
2525.647	5746
2527.594	5845
2529.54	5834
2531.486	5753
2533.431	5806
2535.376	5758
2537.32	5784
2539.263	5744
2541.207	5804
2543.151	5831
2545.093	5922
2547.034	5800
2548.975	5819
2550.917	5748
2552.856	5835
2554.796	5766
2556.735	5725
2558.673	5760
2560.611	5769
2562.55	5836
2564.487	5778
2566.424	5826
2568.36	5788
2570.296	5793
2572.232	5726
2574.167	5812
2576.101	5737
2578.035	5720
2579.969	5806
2581.902	5736
2583.834	5765
2585.766	5852
2587.698	5716
2589.628	5780
2591.557	5767
2593.489	5773
2595.419	5822
2597.348	5765
2599.275	5852
2601.204	5845
2603.131	5789
2605.059	5741
2606.986	5884
2608.911	5788
2610.837	5757
2612.76	5866
2614.687	5779
2616.61	5803
2618.534	5769
2620.457	5860
2622.38	5800
2624.302	5875
2626.225	5814
2628.145	5818
2630.067	5818
2631.986	5799
2633.906	5855
2635.827	5778
2637.745	5666
2639.662	5837
2641.581	5818
2643.498	5743
2645.415	5828
2647.331	5857
2649.248	5826
2651.163	5841
2653.077	5918
2654.993	5856
2656.906	5769
2658.821	5748
2660.733	5778
2662.646	5749
2664.557	5785
2666.47	5764
2668.381	5662
2670.291	5685
2672.201	5752
2674.11	5807
2676.021	5711
2677.929	5828
2679.837	5666
2681.745	5725
2683.652	5694
2685.56	5742
2687.466	5797
2689.371	5709
2691.276	5706
2693.181	5626
2695.085	5705
2696.991	5637
2698.893	5687
2700.796	5645
2702.698	5614
2704.601	5588
2706.502	5688
2708.404	5607
2710.304	5647
2712.203	5649
2714.103	5699
2716.003	5710
2717.902	5576
2719.8	5613
2721.697	5636
2723.594	5561
2725.49	5584
2727.389	5537
2729.283	5649
2731.179	5593
2733.073	5722
2734.968	5692
2736.863	5566
2738.757	5669
2740.649	5648
2742.541	5613
2744.433	5647
2746.324	5586
2748.216	5581
2750.107	5702
2751.997	5605
2753.886	5477
2755.776	5548
2757.666	5690
2759.553	5514
2761.44	5617
2763.327	5568
2765.215	5581
2767.102	5529
2768.988	5533
2770.873	5638
2772.757	5565
2774.641	5531
2776.525	5545
2778.41	5654
2780.292	5608
2782.175	5636
2784.057	5647
2785.938	5678
2787.821	5521
2789.701	5588
2791.581	5446
2793.461	5468
2795.34	5531
2797.219	5631
2799.099	5622
2800.975	5567
2802.853	5544
2804.73	5533
2806.606	5489
2808.484	5590
2810.358	5506
2812.233	5594
2814.108	5519
2815.981	5566
2817.857	5514
2819.73	5580
2821.602	5543
2823.474	5529
2825.346	5517
2827.217	5465
2829.089	5676
2830.959	5496
2832.829	5593
2834.698	5626
2836.567	5620
2838.436	5538
2840.305	5492
2842.172	5471
2844.04	5494
2845.905	5497
2847.772	5549
2849.639	5460
2851.503	5605
2853.369	5453
2855.232	5550
2857.096	5561
2858.961	5592
2860.824	5625
2862.686	5589
2864.547	5680
2866.41	5572
2868.272	5628
2870.132	5770
2871.992	5784
2873.851	5804
2875.711	5809
2877.57	5838
2879.429	5819
2881.287	5885
2883.144	6000
2885.001	6018
2886.857	5925
2888.714	5884
2890.57	5893
2892.425	5968
2894.279	5829
2896.133	5878
2897.987	5977
2899.842	5816
2901.694	5952
2903.547	5850
2905.397	5949
2907.249	5856
2909.101	5956
2910.952	5886
2912.802	5847
2914.652	5964
2916.5	6061
2918.35	6004
2920.198	6100
2922.045	6033
2923.893	6196
2925.74	6254
2927.585	6247
2929.433	6247
2931.279	6238
2933.123	6448
2934.968	6461
2936.811	6444
2938.656	6354
2940.5	6518
2942.342	6638
2944.185	6623
2946.026	6631
2947.87	6681
2949.71	6600
2951.549	6475
2953.39	6504
2955.229	6362
2957.069	6494
2958.908	6444
2960.746	6296
2962.584	6288
2964.421	6318
2966.257	6157
2968.094	6282
2969.931	6069
2971.766	5976
2973.601	6109
2975.435	5940
2977.27	6019
2979.105	6009
2980.938	5978
2982.77	5885
2984.602	5923
2986.434	5979
2988.267	5840
2990.097	5806
2991.927	5885
2993.757	5837
2995.587	5764
2997.417	5782
2999.246	5707
3001.074	5684
3002.902	5589
3004.729	5545
3006.556	5611
3008.384	5377
3010.21	5397
3012.036	5481
3013.861	5277
3015.684	5384
3017.51	5363
3019.334	5286
3021.157	5339
3022.981	5284
3024.802	5240
3026.624	5238
3028.448	5238
3030.267	5227
3032.088	5273
3033.909	5273
3035.728	5233
3037.549	5232
3039.368	5174
3041.186	5120
3043.004	5248
3044.821	5116
3046.64	5222
3048.455	5123
3050.272	5177
3052.087	5172
3053.903	5199
3055.717	5216
3057.534	5202
3059.347	5235
3061.16	5209
3062.974	5142
3064.785	5078
3066.598	5165
3068.411	5196
3070.222	5127
3072.032	5253
3073.844	5190
3075.653	5100
3077.463	5188
3079.272	5142
3081.08	5081
3082.889	5164
3084.697	4989
3086.505	5012
3088.312	5114
3090.118	5050
3091.924	5052
3093.729	5218
3095.535	5003
3097.34	4997
3099.144	5040
3100.947	4987
3102.75	4960
3104.553	4993
3106.357	5002
3108.159	4992
3109.961	5100
3111.762	5036
3113.562	4948
3115.365	4957
3117.164	5089
3118.964	4934
3120.761	4930
3122.56	5028
3124.36	4932
3126.158	4876
3127.954	4968
3129.75	4855
3131.547	4963
3133.343	4918
3135.139	4934
3136.934	4819
3138.729	4884
3140.522	4866
3142.317	4932
3144.11	4922
3145.904	4931
3147.695	4858
3149.488	4847
3151.28	4865
3153.07	4796
3154.863	4835
3156.652	4948
3158.441	5004
3160.231	4876
3162.019	4782
3163.81	4897
3165.597	4876
3167.384	4838
3169.172	4942
3170.958	4828
3172.745	4853
3174.532	4950
3176.317	4838
3178.101	4960
3179.885	4809
3181.67	4771
3183.455	4816
3185.238	4823
3187.02	4873
3188.802	4786
3190.585	4725
3192.368	4803
3194.149	4872
3195.929	4863
3197.709	4867
3199.489	4753
3201.268	4799
3203.048	4706
3204.826	4863
3206.604	4826
3208.382	4801
3210.159	4859
3211.937	4818
3213.713	4780
3215.489	4756
3217.263	4836
3219.038	4836
3220.815	4766
3222.589	4818
3224.363	4730
3226.136	4679
3227.908	4776
3229.681	4706
3231.454	4723
3233.226	4804
3234.996	4861
3236.767	4857
3238.538	4667
3240.308	4736
3242.078	4830
3243.847	4845
3245.615	4712
3247.384	4753
3249.15	4739
3250.92	4785
3252.686	4783
3254.453	4783
3256.218	4758
3257.984	4757
3259.75	4792
3261.515	4741
3263.279	4687
3265.044	4855
3266.806	4751
3268.57	4791
3270.334	4654
3272.095	4867
3273.856	4757
3275.619	4760
3277.379	4750
3279.14	4744
3280.9	4777
3282.661	4773
3284.419	4821
3286.178	4747
3287.937	4752
3289.695	4728
3291.453	4750
3293.21	4733
3294.967	4847
3296.723	4735
3298.48	4754
3300.235	4759
3301.99	4786
3303.744	4689
3305.498	4795
3307.253	4771
3309.006	4735
3310.759	4761
3312.511	4784
3314.263	4716
3316.017	4714
3317.768	4703
3319.519	4667
3321.268	4837
3323.018	4674
3324.767	4771
3326.518	4663
3328.267	4681
3330.014	4748
3331.762	4664
3333.509	4721
3335.258	4769
3337.003	4713
3338.75	4682
3340.496	4652
3342.24	4759
3343.987	4683
3345.732	4688
3347.475	4653
3349.219	4662
3350.961	4671
3352.705	4685
3354.448	4648
3356.19	4683
3357.931	4710
3359.672	4621
3361.412	4607
3363.155	4543
3364.894	4673
3366.633	4663
3368.372	4692
3370.11	4650
3371.849	4650
3373.588	4546
3375.325	4660
3377.061	4650
3378.799	4604
3380.534	4662
3382.271	4562
3384.006	4644
3385.741	4491
3387.475	4704
3389.209	4591
3390.944	4656
3392.677	4505
3394.409	4546
3396.143	4601
3397.874	4593
3399.606	4554
3401.338	4562
3403.069	4606
3404.799	4517
3406.528	4539
3408.258	4548
3409.988	4633
3411.717	4594
3413.445	4384
3415.173	4455
3416.899	4547
3418.626	4613
3420.354	4449
3422.08	4462
3423.806	4460
3425.531	4470
3427.255	4507
3428.981	4475
3430.705	4550
3432.429	4461
3434.151	4476
3435.875	4444
3437.599	4429
3439.321	4464
3441.042	4508
3442.763	4504
3444.483	4417
3446.204	4452
3447.926	4452
3449.645	4450
3451.364	4559
3453.082	4381
3454.801	4437
3456.52	4364
3458.238	4288
3459.954	4458
3461.671	4399
3463.387	4423
3465.104	4264
3466.82	4387
3468.534	4308
3470.25	4335
3471.963	4303
3473.676	4333
3475.392	4335
3477.104	4314
3478.817	4263
3480.528	4283
3482.241	4240
3483.954	4316
3485.664	4310
3487.374	4297
3489.084	4280
3490.795	4272
3492.504	4345
3494.214	4171
3495.922	4225
3497.63	4235
3499.338	4350
3501.045	4226
3502.753	4219
3504.459	4240
3506.166	4165
3507.871	4171
3509.576	4164
3511.283	4250
3512.987	4136
3514.691	4279
3516.395	4167
3518.098	4248
3519.8	4171
3521.504	4206
3523.206	4157
3524.908	4126
3526.609	4226
3528.309	4107
3530.011	4120
3531.711	4175
3533.411	4158
3535.109	4195
3536.808	4195
3538.507	4115
3540.206	4104
3541.904	4059
3543.601	4132
3545.297	4035
3546.994	4138
3548.69	4180
3550.387	4066
3552.081	4190
3553.776	4101
3555.47	4069
3557.166	3946
3558.859	4136
3560.553	4030
3562.245	4048
3563.938	4145
3565.629	4014
3567.322	4102
3569.014	4033
3570.704	4095
3572.394	3980
3574.084	4003
3575.775	4076
3577.464	4097
3579.152	3920
3580.842	4080
3582.529	3990
3584.216	3975
3585.905	3998
3587.591	3929
3589.279	4010
3590.964	4053
3592.649	4021
3594.336	4090
3596.021	3939
3597.705	4006
3599.388	4032
3601.072	3994
3602.757	3933
3604.439	3965
3606.122	3916
3607.803	3982
3609.485	3887
3611.167	3800
3612.849	3925
3614.529	3908
3616.208	3935
3617.888	3807
3619.567	3856
3621.247	3821
3622.926	3828
3624.603	3843
3626.281	3791
3627.958	3816
3629.635	3802
3631.312	3935
3632.989	3820
3634.665	3930
3636.339	3811
3638.014	3847
3639.691	3799
3641.364	3832
3643.038	3768
3644.71	3772
3646.384	3906
3648.058	3846
3649.729	3711
3651.402	3789
3653.073	3815
3654.744	3724
3656.414	3795
3658.085	3774
3659.755	3832
3661.424	3767
3663.094	3771
3664.762	3714
3666.431	3757
3668.099	3708
3669.766	3684
3671.433	3713
3673.099	3789
3674.768	3679
3676.433	3751
3678.098	3751
3679.763	3714
3681.428	3698
3683.093	3777
3684.757	3725
3686.421	3670
3688.083	3726
3689.746	3710
3691.408	3639
3693.071	3667
3694.733	3742
3696.394	3643
3698.054	3763
3699.715	3572
3701.375	3629
3703.036	3687
3704.695	3618
3706.354	3630
3708.012	3762
3709.67	3699
3711.329	3663
3712.987	3648
3714.644	3664
3716.299	3694
3717.955	3715
3719.613	3647
3721.268	3661
3722.923	3705
3724.577	3511
3726.231	3650
3727.885	3625
3729.539	3652
3731.192	3553
3732.845	3581
3734.497	3628
3736.149	3588
3737.802	3658
3739.453	3569
3741.104	3549
3742.753	3615
3744.404	3611
3746.052	3621
3747.704	3577
3749.352	3599
3751	3580
3752.648	3574
3754.296	3541
3755.944	3583
3757.59	3523
3759.238	3575
3760.883	3525
3762.528	3514
3764.176	3491
3765.82	3492
3767.464	3531
3769.109	3586
3770.753	3556
3772.396	3519
3774.04	3457
3775.683	3471
3777.325	3603
3778.967	3546
3780.608	3480
3782.25	3536
3783.89	3510
3785.531	3537
3787.17	3393
3788.81	3470
3790.45	3532
3792.09	3555
3793.729	3477
3795.366	3483
3797.003	3510
3798.64	3466
3800.278	3520
3801.915	3390
3803.551	3470
3805.187	3423
3806.822	3540
3808.458	3488
3810.093	3428
3811.726	3525
3813.36	3452
3814.994	3354
3816.627	3466
3818.262	3381
3819.893	3485
3821.525	3497
3823.157	3323
3824.787	3390
3826.42	3426
3828.051	3445
3829.68	3460
3831.31	3382
3832.938	3344
3834.569	3378
3836.198	3365
3837.825	3416
3839.454	3348
3841.08	3381
3842.708	3323
3844.335	3379
3845.962	3410
3847.587	3336
3849.212	3346
3850.838	3377
3852.463	3314
3854.089	3412
3855.712	3439
3857.335	3385
3858.959	3331
3860.582	3407
3862.205	3366
3863.827	3336
3865.449	3308
3867.07	3333
3868.691	3353
3870.312	3360
3871.933	3342
3873.553	3306
3875.173	3368
3876.792	3340
3878.411	3303
3880.03	3302
3881.647	3301
3883.265	3295
3884.882	3282
3886.499	3301
3888.116	3290
3889.732	3237
3891.348	3366
3892.964	3340
3894.579	3271
3896.195	3260
3897.809	3328
3899.423	3319
3901.036	3321
3902.648	3302
3904.261	3225
3905.875	3295
3907.487	3218
3909.099	3216
3910.709	3330
3912.321	3219
3913.933	3252
3915.542	3303
3917.152	3273
3918.762	3233
3920.37	3326
3921.98	3223
3923.589	3193
3925.196	3264
3926.804	3183
3928.41	3278
3930.018	3229
3931.626	3258
3933.231	3256
3934.838	3191
3936.442	3266
3938.046	3249
3939.653	3244
3941.257	3227
3942.861	3259
3944.464	3170
3946.068	3288
3947.67	3161
3949.273	3218
3950.876	3181
3952.477	3153
3954.078	3288
3955.678	3132
3957.281	3271
3958.881	3194
3960.48	3159
3962.079	3151
3963.678	3175
3965.279	3151
3966.877	3112
3968.475	3271
3970.072	3149
3971.669	3126
3973.266	3218
3974.864	3170
3976.459	3098
3978.055	3144
3979.65	3134
3981.245	3160
3982.841	3108
3984.436	3160
3986.03	3114
3987.623	3129
3989.216	3162
3990.809	3087
3992.403	3089
3993.995	3076
3995.586	3067
3997.177	3052
3998.768	3121
4000.361	3069
4001.951	3086
4003.54	3119
4005.13	3042
4006.719	3099
4008.31	3019
4009.897	3076
4011.485	3066
4013.073	3028
4014.66	3069
4016.247	3090
4017.834	3108
4019.421	3058
4021.006	3019
4022.592	3032
4024.178	3033
4025.763	2976
4027.348	3043
4028.932	3036
4030.515	2939
4032.099	3007
4033.682	3035
4035.266	2953
4036.847	3006
4038.429	2960
4040.011	3009
4041.592	2981
4043.173	3011
4044.755	2934
4046.334	2869
4047.913	2968
4049.494	3002
4051.074	2994
4052.652	2958
4054.23	3013
4055.807	2899
4057.385	2982
4058.963	2971
4060.541	2976
4062.117	3019
4063.693	2987
4065.269	2927
4066.844	2991
4068.42	2977
4069.995	2995
4071.569	2944
4073.143	2947
4074.716	2975
4076.291	2987
4077.864	2934
4079.436	2903
4081.009	2951
4082.58	2887
4084.152	2874
4085.723	2938
4087.294	2868
4088.865	2863
4090.435	2935
4092.005	2974
4093.574	2891
4095.143	2871
4096.712	2923
4098.279	2890
4099.848	2868
4101.416	2863
4102.984	2839
4104.55	2871
4106.117	2968
4107.682	2828
4109.248	2922
4110.815	2902
4112.379	2926
4113.945	2916
4115.508	2848
4117.073	2842
4118.637	2864
4120.201	2839
4121.763	2860
4123.325	2869
4124.888	2870
4126.449	2870
4128.013	2869
4129.573	2832
4131.133	2828
4132.694	2830
4134.254	2849
4135.814	2783
4137.374	2882
4138.933	2821
4140.491	2774
4142.049	2855
4143.607	2790
4145.167	2742
4146.724	2816
4148.28	2833
4149.836	2782
4151.392	2768
4152.949	2810
4154.504	2781
4156.059	2762
4157.614	2677
4159.168	2703
4160.723	2754
4162.277	2847
4163.83	2800
4165.383	2831
4166.936	2773
4168.488	2779
4170.041	2794
4171.593	2723
4173.144	2735
4174.695	2711
4176.246	2743
4177.796	2759
4179.346	2690
4180.896	2750
4182.445	2727
4183.994	2733
4185.542	2667
4187.091	2705
4188.639	2646
4190.185	2674
4191.732	2737
4193.279	2660
4194.826	2643
4196.373	2696
4197.918	2651
4199.463	2734
4201.008	2644
4202.553	2631
4204.098	2664
4205.641	2685
4207.185	2705
4208.728	2692
4210.271	2630
4211.814	2645
4213.357	2601
4214.898	2652
4216.439	2631
4217.98	2653
4219.522	2653
4221.062	2675
4222.603	2667
4224.142	2627
4225.681	2626
4227.222	2608
4228.76	2595
4230.298	2639
4231.835	2531
4233.373	2645
4234.911	2646
4236.449	2561
4237.985	2602
4239.521	2646
4241.057	2539
4242.592	2689
4244.128	2597
4245.663	2634
4247.197	2655
4248.731	2649
4250.265	2584
4251.798	2591
4253.333	2589
4254.865	2638
4256.397	2599
4257.93	2525
4259.461	2592
4260.994	2560
4262.525	2629
4264.056	2573
4265.586	2529
4267.115	2584
4268.646	2623
4270.176	2578
4271.705	2576
4273.232	2529
4274.761	2585
4276.289	2578
4277.818	2525
4279.345	2568
4280.872	2551
4282.399	2563
4283.924	2578
4285.452	2578
4286.976	2574
4288.502	2497
4290.026	2512
4291.551	2577
4293.074	2602
4294.6	2507
4296.123	2479
4297.646	2509
4299.168	2473
4300.691	2562
4302.214	2499
4303.736	2500
4305.257	2553
4306.778	2512
4308.299	2485
4309.82	2488
4311.34	2506
4312.86	2546
4314.379	2404
