400.0745	4838
402.597	4811
405.1208	4902
407.6419	4822
410.1623	4913
412.6819	4861
415.201	5010
417.7172	4990
420.2369	4962
422.7538	5119
425.2701	5021
427.7856	5086
430.3005	5182
432.8147	5202
435.3282	5086
437.841	5188
440.3511	5126
442.8625	5214
445.3753	5071
447.8854	5197
450.3927	5207
452.9014	5155
455.4073	5116
457.9146	5219
460.4233	5162
462.9272	5149
465.4325	5109
467.935	5161
470.4389	5080
472.9421	5191
475.4446	5302
477.9444	5220
480.4456	5106
482.944	5206
485.4417	5279
487.9429	5343
490.4393	5243
492.935	5290
495.4321	5301
497.9264	5362
500.4221	5329
502.9171	5389
505.4094	5394
507.9011	5339
510.392	5382
512.8864	5322
515.3759	5242
517.8649	5423
520.3531	5390
522.8406	5405
525.3275	5376
527.8178	5400
530.3033	5571
532.7881	5470
535.2723	5272
537.7558	5400
540.2407	5404
542.7228	5377
545.2043	5414
547.6851	5443
550.1652	5337
552.6467	5480
555.1255	5400
557.6016	5446
560.079	5484
562.5557	5485
565.0318	5367
567.5092	5518
569.984	5469
572.456	5598
574.9294	5614
577.4022	5572
579.8762	5531
582.3456	5725
584.8163	5637
587.2863	5690
589.7557	5588
592.2224	5671
594.6924	5625
597.1578	5593
599.6245	5554
602.0905	5563
604.5538	5591
607.0206	5581
609.4825	5611
611.9459	5577
614.4066	5573
616.8686	5567
619.33	5557
621.7906	5501
624.2487	5516
626.708	5560
629.1647	5472
631.6207	5574
634.0801	5600
636.5348	5474
638.9888	5616
641.4442	5644
643.8969	5556
646.3509	5573
648.8022	5639
651.255	5650
653.705	5654
656.1544	5719
658.6031	5604
661.0532	5680
663.5026	5723
665.9493	5707
668.3954	5811
670.8409	5723
673.2877	5799
675.7318	5788
678.1752	5718
680.618	5716
683.0601	5791
685.5035	5785
687.9444	5816
690.3845	5834
692.824	5790
695.2628	5648
697.701	5880
700.1406	5784
702.5774	5893
705.0116	5850
707.4472	5828
709.8821	5847
712.3183	6006
714.7519	5914
717.1829	5905
719.6151	5948
722.0468	5833
724.4777	6037
726.908	5967
729.3377	5907
731.7667	6028
734.1931	6030
736.6208	5978
739.0498	6039
741.4742	6111
743.9	6101
746.3231	6113
748.7476	6100
751.1713	6092
753.5945	6010
756.015	6137
758.4368	6167
760.856	6237
763.2766	6208
765.6965	6248
768.1157	6263
770.5323	6205
772.9483	6125
775.3656	6167
777.7822	6200
780.1963	6230
782.6116	6222
785.0244	6192
787.4365	6232
789.8499	6263
792.2626	6286
794.6728	6190
797.0823	6223
799.4911	6268
801.8994	6328
804.3109	6142
806.7178	6297
809.124	6228
811.5297	6285
813.9347	6356
816.341	6290
818.7447	6308
821.1478	6365
823.5502	6312
825.952	6271
828.3531	6314
830.7556	6263
833.1554	6439
835.5546	6321
837.9532	6373
840.3511	6288
842.7504	6381
845.1451	6445
847.5411	6359
849.9365	6448
852.3312	6465
854.7272	6427
857.1187	6500
859.5115	6466
861.9037	6543
864.2952	6430
866.6842	6343
869.0764	6523
871.4661	6416
873.8531	6478
876.2415	6466
878.6272	6470
881.0162	6506
883.4026	6361
885.7866	6393
888.1717	6376
890.5543	6516
892.9382	6335
895.3215	6431
897.7041	6418
900.0842	6463
902.4655	6503
904.8443	6448
907.2244	6500
909.6039	6564
911.9808	6543
914.357	6515
916.7346	6623
919.1115	6719
921.4859	6668
923.8616	6917
926.2347	6896
928.6071	6859
930.979	6861
933.3541	6758
935.7247	6776
938.0946	6726
940.4639	6805
942.8326	7004
945.2026	6891
947.5701	6974
949.9369	7116
952.305	7290
954.6705	7455
957.0355	7719
959.4017	7807
961.7654	7841
964.1284	7822
966.4908	7840
968.8527	7493
971.2138	7322
973.5743	7048
975.9343	6975
978.2936	6765
980.6522	6800
983.0122	6752
985.3696	6721
987.7245	6708
990.0807	6448
992.4362	6555
994.7911	6585
997.1474	6657
999.4991	6636
1001.852	6805
1004.205	6628
1006.555	6677
1008.908	6640
1011.258	6601
1013.606	6657
1015.956	6657
1018.302	6771
1020.652	6682
1022.998	6771
1025.345	6715
1027.691	6737
1030.035	6828
1032.378	6793
1034.724	6868
1037.066	6839
1039.409	6846
1041.75	6731
1044.092	6767
1046.433	6865
1048.771	6781
1051.112	6901
1053.449	6790
1055.786	6763
1058.124	6862
1060.462	6731
1062.797	6823
1065.131	6849
1067.467	6956
1069.8	6794
1072.135	6898
1074.467	6916
1076.798	6968
1079.129	6846
1081.459	6855
1083.792	6771
1086.121	6890
1088.449	6780
1090.777	6821
1093.104	6792
1095.431	6888
1097.759	6709
1100.084	6905
1102.408	6890
1104.732	6837
1107.056	6773
1109.379	6767
1111.701	6733
1114.022	6816
1116.343	6908
1118.664	6884
1120.983	6801
1123.303	6780
1125.621	6783
1127.939	6918
1130.256	6819
1132.573	6894
1134.889	6742
1137.205	6916
1139.52	6747
1141.832	6834
1144.146	6784
1146.461	6897
1148.771	6789
1151.083	6865
1153.392	6834
1155.703	6813
1158.011	6785
1160.323	6837
1162.629	6860
1164.938	6820
1167.243	6904
1169.55	6838
1171.857	6741
1174.163	6888
1176.466	6729
1178.769	6810
1181.073	6741
1183.374	6846
1185.677	6890
1187.979	6758
1190.279	6882
1192.578	6748
1194.878	6862
1197.178	6658
1199.476	6839
1201.772	6794
1204.068	6767
1206.366	6873
1208.663	6885
1210.957	6849
1213.251	6774
1215.544	6892
1217.836	6845
1220.128	6931
1222.421	6795
1224.712	6989
1227.002	6929
1229.292	6949
1231.581	7024
1233.871	6953
1236.159	7108
1238.446	7035
1240.732	7018
1243.018	7119
1245.304	7105
1247.59	7227
1249.874	7169
1252.156	7105
1254.439	7178
1256.721	7094
1259.005	7112
1261.286	7193
1263.565	7210
1265.845	7131
1268.125	7180
1270.403	7166
1272.682	6929
1274.959	7215
1277.234	7156
1279.511	7061
1281.787	7035
1284.062	7052
1286.337	7090
1288.609	7103
1290.882	6962
1293.153	7098
1295.428	6953
1297.698	7138
1299.969	6902
1302.237	7004
1304.507	6884
1306.777	7024
1309.044	6944
1311.312	6854
1313.578	6976
1315.844	6973
1318.109	6935
1320.375	6911
1322.638	7080
1324.903	6946
1327.165	6974
1329.427	7065
1331.69	7059
1333.952	7112
1336.212	7033
1338.471	7025
1340.73	6988
1342.988	6912
1345.248	7052
1347.505	7080
1349.763	7047
1352.019	6986
1354.274	6971
1356.53	6962
1358.784	6944
1361.038	6988
1363.291	6904
1365.543	7036
1367.797	7026
1370.048	6924
1372.296	7001
1374.546	7014
1376.796	7029
1379.045	6956
1381.295	7053
1383.542	7152
1385.787	6946
1388.034	6930
1390.28	7064
1392.527	7065
1394.772	7125
1397.014	7223
1399.258	7248
1401.501	7227
1403.741	7195
1405.985	7159
1408.226	7139
1410.465	7258
1412.705	7127
1414.943	7287
1417.184	7181
1419.42	7249
1421.658	7300
1423.894	7209
1426.13	7263
1428.366	7269
1430.602	7237
1432.835	7187
1435.069	7190
1437.301	7244
1439.535	7340
1441.767	7292
1443.997	7403
1446.229	7298
1448.458	7356
1450.687	7454
1452.916	7378
1455.146	7378
1457.372	7339
1459.599	7357
1461.824	7408
1464.051	7438
1466.277	7232
1468.501	7397
1470.725	7301
1472.948	7315
1475.17	7140
1477.393	7194
1479.614	7116
1481.837	7137
1484.057	6989
1486.276	6964
1488.497	7000
1490.715	7010
1492.932	6935
1495.148	7044
1497.364	6950
1499.58	7001
1501.798	6935
1504.012	6969
1506.227	7011
1508.44	6843
1510.653	6900
1512.866	6891
1515.078	6999
1517.289	6845
1519.5	6796
1521.711	6796
1523.92	6919
1526.13	6806
1528.338	6942
1530.544	6830
1532.752	6924
1534.959	6893
1537.165	6980
1539.371	7023
1541.574	6982
1543.779	6867
1545.983	6908
1548.187	6903
1550.39	6921
1552.59	6936
1554.792	6914
1556.991	6988
1559.19	6938
1561.392	7110
1563.59	6920
1565.789	7085
1567.986	7126
1570.182	7144
1572.381	7011
1574.576	7160
1576.771	7061
1578.966	7019
1581.16	7132
1583.354	7041
1585.546	7158
1587.74	7156
1589.931	7233
1592.121	7077
1594.311	7162
1596.502	7200
1598.693	7182
1600.881	7262
1603.069	7176
1605.256	7159
1607.445	7113
1609.631	7129
1611.816	7116
1614.001	7200
1616.186	7285
1618.37	7131
1620.555	7136
1622.737	7175
1624.919	7208
1627.101	7164
1629.282	7174
1631.463	7229
1633.643	7266
1635.822	7336
1638.001	7219
1640.179	7174
1642.359	7289
1644.534	7315
1646.711	7176
1648.887	7255
1651.062	7228
1653.235	7220
1655.412	7267
1657.586	7233
1659.757	7356
1661.93	7209
1664.1	7372
1666.274	7372
1668.445	7385
1670.614	7347
1672.784	7395
1674.951	7325
1677.12	7307
1679.289	7334
1681.457	7388
1683.622	7353
1685.789	7450
1687.953	7239
1690.121	7204
1692.284	7157
1694.447	7247
1696.611	7306
1698.772	7227
1700.935	7051
1703.098	7165
1705.258	7059
1707.417	7192
1709.576	7249
1711.736	7120
1713.896	7199
1716.053	7074
1718.21	7008
1720.366	7122
1722.522	7205
1724.68	7135
1726.835	7044
1728.989	7036
1731.142	7027
1733.295	7023
1735.449	7037
1737.601	7043
1739.753	6977
1741.903	7176
1744.054	6987
1746.203	7039
1748.354	7054
1750.503	7136
1752.651	7061
1754.798	7203
1756.944	7175
1759.092	7087
1761.238	7204
1763.383	7146
1765.528	6990
1767.672	6991
1769.814	7144
1771.959	7205
1774.102	7026
1776.242	7033
1778.384	7134
1780.525	7178
1782.665	7151
1784.805	7153
1786.945	7187
1789.082	7283
1791.22	7203
1793.36	7142
1795.495	7122
1797.632	7137
1799.766	7020
1801.902	7175
1804.035	7104
1806.172	7039
1808.304	7193
1810.436	7113
1812.569	7078
1814.699	7218
1816.833	7154
1818.963	7272
1821.092	7127
1823.222	7137
1825.35	7184
1827.478	7118
1829.608	7083
1831.734	7047
1833.86	7034
1835.986	6974
1838.11	7085
1840.238	7115
1842.362	7126
1844.485	7030
1846.608	7106
1848.73	7112
1850.853	7039
1852.974	7059
1855.097	6912
1857.217	7012
1859.336	7089
1861.455	7071
1863.576	7091
1865.693	7024
1867.811	7076
1869.926	6929
1872.042	7017
1874.16	7030
1876.275	7095
1878.39	7032
1880.504	7042
1882.618	7009
1884.731	7007
1886.843	6986
1888.956	6941
1891.067	7066
1893.178	7023
1895.287	7040
1897.399	6985
1899.508	7110
1901.617	7110
1903.724	7129
1905.832	7010
1907.941	7108
1910.046	7055
1912.152	7183
1914.256	7185
1916.361	7134
1918.464	7106
1920.57	7065
1922.672	7220
1924.775	7070
1926.876	7139
1928.978	7254
1931.08	7165
1933.181	7139
1935.28	7104
1937.38	7145
1939.478	7213
1941.577	7305
1943.675	7133
1945.771	7097
1947.867	7150
1949.964	7173
1952.058	7225
1954.154	7034
1956.248	7097
1958.343	7272
1960.435	7213
1962.527	7158
1964.62	7034
1966.711	7088
1968.802	7110
1970.892	7098
1972.983	7153
1975.072	7168
1977.162	7030
1979.25	7061
1981.337	6931
1983.424	7128
1985.51	6980
1987.598	7168
1989.683	7042
1991.768	7147
1993.852	7079
1995.934	7014
1998.019	7006
2000.102	7021
2002.184	7061
2004.266	7067
2006.347	7110
2008.427	7078
2010.508	6983
2012.587	7119
2014.666	7044
2016.745	7028
2018.821	7081
2020.9	7083
2022.977	7067
2025.052	7020
2027.128	7137
2029.204	7032
2031.277	6981
2033.353	7147
2035.425	7033
2037.499	7111
2039.57	6973
2041.642	6962
2043.714	6995
2045.786	7036
2047.855	7050
2049.925	7108
2051.993	7004
2054.064	7080
2056.132	7032
2058.2	6978
2060.266	7076
2062.332	7121
2064.398	6907
2066.465	7073
2068.529	7077
2070.592	7020
2072.657	7043
2074.719	7112
2076.783	7009
2078.845	6985
2080.907	7039
2082.968	7052
2085.028	7051
2087.087	6908
2089.148	7017
2091.207	7072
2093.264	7056
2095.322	7027
2097.379	7085
2099.439	6964
2101.495	7031
2103.55	7094
2105.605	7017
2107.658	6935
2109.713	6973
2111.767	7019
2113.82	6947
2115.872	6952
2117.924	7074
2119.975	6890
2122.028	6973
2124.078	7110
2126.126	6990
2128.176	6978
2130.225	6972
2132.275	6981
2134.321	6965
2136.368	7015
2138.415	6984
2140.461	7020
2142.505	7061
2144.552	7127
2146.597	6998
2148.64	6957
2150.684	6952
2152.725	7057
2154.77	6850
2156.811	6901
2158.852	6918
2160.894	6955
2162.933	6982
2164.973	7005
2167.013	6980
2169.051	6911
2171.089	6984
2173.126	6944
2175.164	6914
2177.201	6874
2179.236	6881
2181.273	6958
2183.307	7017
2185.341	6896
2187.377	6818
2189.41	6939
2191.442	6885
2193.473	6882
2195.506	6911
2197.539	6824
2199.569	6839
2201.598	6843
2203.628	6837
2205.656	6849
2207.686	6886
2209.716	6786
2211.743	6878
2213.769	6922
2215.796	6754
2217.821	6747
2219.848	6838
2221.873	6805
2223.897	6691
2225.921	6804
2227.944	6794
2229.967	6699
2231.991	6845
2234.011	6784
2236.032	6835
2238.053	6743
2240.073	6877
2242.094	6800
2244.114	6741
2246.131	6747
2248.149	6747
2250.167	6835
2252.186	6795
2254.201	6837
2256.218	6777
2258.233	6777
2260.247	6779
2262.262	6851
2264.278	6833
2266.29	6778
2268.303	6693
2270.315	6744
2272.327	6693
2274.341	6816
2276.35	6919
2278.361	6735
2280.37	6701
2282.38	6755
2284.388	6731
2286.397	6844
2288.405	6741
2290.412	6893
2292.419	6823
2294.425	6769
2296.431	6768
2298.437	6715
2300.441	6710
2302.445	6787
2304.449	6803
2306.453	6890
2308.455	6722
2310.457	6698
2312.459	6762
2314.46	6780
2316.46	6834
2318.461	6679
2320.46	6749
2322.458	6657
2324.458	6704
2326.456	6717
2328.455	6788
2330.451	6708
2332.447	6601
2334.443	6642
2336.438	6690
2338.433	6677
2340.429	6676
2342.422	6612
2344.416	6515
2346.408	6667
2348.399	6578
2350.393	6543
2352.384	6657
2354.375	6646
2356.365	6677
2358.355	6539
2360.344	6708
2362.333	6582
2364.322	6580
2366.309	6521
2368.295	6673
2370.282	6574
2372.27	6593
2374.256	6554
2376.24	6554
2378.225	6503
2380.208	6597
2382.194	6646
2384.177	6521
2386.159	6530
2388.142	6552
2390.122	6469
2392.105	6531
2394.085	6439
2396.066	6463
2398.044	6458
2400.024	6689
2402.002	6429
2403.982	6503
2405.959	6478
2407.935	6617
2409.913	6419
2411.888	6631
2413.865	6496
2415.84	6385
2417.814	6542
2419.788	6495
2421.762	6422
2423.735	6633
2425.708	6557
2427.68	6490
2429.651	6526
2431.623	6455
2433.593	6553
2435.564	6491
2437.533	6474
2439.502	6408
2441.47	6438
2443.438	6596
2445.406	6604
2447.373	6466
2449.34	6422
2451.305	6548
2453.271	6447
2455.235	6457
2457.201	6470
2459.165	6322
2461.129	6475
2463.092	6451
2465.054	6358
2467.018	6367
2468.978	6486
2470.939	6430
2472.899	6376
2474.86	6449
2476.819	6387
2478.778	6396
2480.737	6422
2482.695	6383
2484.653	6315
2486.609	6463
2488.567	6361
2490.524	6348
2492.478	6454
2494.433	6357
2496.387	6316
2498.343	6347
2500.297	6346
2502.249	6362
2504.202	6354
2506.153	6340
2508.105	6385
2510.057	6364
2512.008	6314
2513.957	6337
2515.906	6328
2517.855	6276
2519.805	6379
2521.754	6385
2523.7	6390
2525.647	6349
2527.594	6278
2529.54	6281
2531.486	6284
2533.431	6320
2535.376	6280
2537.32	6373
2539.263	6317
2541.207	6337
2543.151	6388
2545.093	6267
2547.034	6399
2548.975	6322
2550.917	6334
2552.856	6247
2554.796	6262
2556.735	6222
2558.673	6248
2560.611	6304
2562.55	6297
2564.487	6360
2566.424	6430
2568.36	6330
2570.296	6409
2572.232	6389
2574.167	6404
2576.101	6366
2578.035	6392
2579.969	6379
2581.902	6308
2583.834	6249
2585.766	6351
2587.698	6219
2589.628	6357
2591.557	6317
2593.489	6394
2595.419	6388
2597.348	6375
2599.275	6334
2601.204	6368
2603.131	6212
2605.059	6279
2606.986	6341
2608.911	6271
2610.837	6317
2612.76	6217
2614.687	6355
2616.61	6304
2618.534	6382
2620.457	6271
2622.38	6278
2624.302	6282
2626.225	6215
2628.145	6414
2630.067	6344
2631.986	6272
2633.906	6235
2635.827	6312
2637.745	6239
2639.662	6343
2641.581	6408
2643.498	6261
2645.415	6406
2647.331	6335
2649.248	6284
2651.163	6255
2653.077	6280
2654.993	6353
2656.906	6297
2658.821	6366
2660.733	6249
2662.646	6293
2664.557	6324
2666.47	6274
2668.381	6291
2670.291	6299
2672.201	6204
2674.11	6270
2676.021	6206
2677.929	6292
2679.837	6219
2681.745	6268
2683.652	6257
2685.56	6164
2687.466	6253
2689.371	6259
2691.276	6237
2693.181	6243
2695.085	6221
2696.991	6334
2698.893	6190
2700.796	6221
2702.698	6226
2704.601	6329
2706.502	6114
2708.404	6130
2710.304	6253
2712.203	6226
2714.103	6157
2716.003	6187
2717.902	6209
2719.8	6100
2721.697	6199
2723.594	6188
2725.49	6186
2727.389	6183
2729.283	6085
2731.179	6135
2733.073	6136
2734.968	6175
2736.863	6185
2738.757	6154
2740.649	6151
2742.541	6135
2744.433	6230
2746.324	6163
2748.216	6124
2750.107	6092
2751.997	6219
2753.886	6090
2755.776	6155
2757.666	6222
2759.553	6035
2761.44	6169
2763.327	6139
2765.215	6128
2767.102	6112
2768.988	6135
2770.873	6106
2772.757	5999
2774.641	6145
2776.525	6121
2778.41	6072
2780.292	6101
2782.175	6188
2784.057	6147
2785.938	6090
2787.821	6084
2789.701	5978
2791.581	6171
2793.461	6051
2795.34	6122
2797.219	6097
2799.099	6051
2800.975	6166
2802.853	6122
2804.73	5995
2806.606	6074
2808.484	6026
2810.358	6015
2812.233	5981
2814.108	6009
2815.981	6083
2817.857	6129
2819.73	6018
2821.602	6047
2823.474	6019
2825.346	6044
2827.217	6144
2829.089	6056
2830.959	6028
2832.829	6051
2834.698	6093
2836.567	6031
2838.436	6067
2840.305	6117
2842.172	6101
2844.04	6142
2845.905	6116
2847.772	6088
2849.639	6250
2851.503	6101
2853.369	6091
2855.232	6151
2857.096	6159
2858.961	6256
2860.824	6193
2862.686	6243
2864.547	6360
2866.41	6475
2868.272	6403
2870.132	6444
2871.992	6370
2873.851	6460
2875.711	6608
2877.57	6695
2879.429	6625
2881.287	6632
2883.144	6881
2885.001	6796
2886.857	6817
2888.714	6703
2890.57	6779
2892.425	6810
2894.279	6732
2896.133	6634
2897.987	6756
2899.842	6828
2901.694	6709
2903.547	6779
2905.397	6783
2907.249	6716
2909.101	6799
2910.952	6805
2912.802	6801
2914.652	6854
2916.5	6850
2918.35	7036
2920.198	7019
2922.045	7058
2923.893	7175
2925.74	7237
2927.585	7207
2929.433	7259
2931.279	7384
2933.123	7366
2934.968	7477
2936.811	7566
2938.656	7470
2940.5	7645
2942.342	7677
2944.185	7677
2946.026	7789
2947.87	7758
2949.71	7747
2951.549	7837
2953.39	7730
2955.229	7491
2957.069	7691
2958.908	7430
2960.746	7493
2962.584	7460
2964.421	7345
2966.257	7255
2968.094	7234
2969.931	7180
2971.766	7136
2973.601	6904
2975.435	6988
2977.27	6781
2979.105	6881
2980.938	6910
2982.77	6827
2984.602	6579
2986.434	6706
2988.267	6648
2990.097	6620
2991.927	6593
2993.757	6558
2995.587	6433
2997.417	6424
2999.246	6419
3001.074	6364
3002.902	6331
3004.729	6198
3006.556	6134
3008.384	6287
3010.21	6079
3012.036	6034
3013.861	5968
3015.684	5950
3017.51	5831
3019.334	5900
3021.157	5857
3022.981	5839
3024.802	5795
3026.624	5716
3028.448	5757
3030.267	5837
3032.088	5742
3033.909	5663
3035.728	5684
3037.549	5547
3039.368	5703
3041.186	5552
3043.004	5683
3044.821	5721
3046.64	5609
3048.455	5689
3050.272	5582
3052.087	5662
3053.903	5734
3055.717	5639
3057.534	5560
3059.347	5643
3061.16	5582
3062.974	5733
3064.785	5682
3066.598	5597
3068.411	5681
3070.222	5647
3072.032	5556
3073.844	5579
3075.653	5527
3077.463	5599
3079.272	5434
3081.08	5496
3082.889	5476
3084.697	5518
3086.505	5414
3088.312	5495
3090.118	5526
3091.924	5446
3093.729	5428
3095.535	5442
3097.34	5571
3099.144	5557
3100.947	5451
3102.75	5455
3104.553	5490
3106.357	5466
3108.159	5463
3109.961	5348
3111.762	5348
3113.562	5397
3115.365	5404
3117.164	5457
3118.964	5451
3120.761	5329
3122.56	5380
3124.36	5298
3126.158	5385
3127.954	5410
3129.75	5361
3131.547	5431
3133.343	5343
3135.139	5337
3136.934	5302
3138.729	5373
3140.522	5264
3142.317	5280
3144.11	5280
3145.904	5316
3147.695	5237
3149.488	5384
3151.28	5238
3153.07	5349
3154.863	5387
3156.652	5303
3158.441	5192
3160.231	5282
3162.019	5301
3163.81	5308
3165.597	5234
3167.384	5253
3169.172	5280
3170.958	5317
3172.745	5172
3174.532	5399
3176.317	5205
3178.101	5240
3179.885	5252
3181.67	5277
3183.455	5175
3185.238	5281
3187.02	5074
3188.802	5092
3190.585	5226
3192.368	5212
3194.149	5251
3195.929	5242
3197.709	5147
3199.489	5297
3201.268	5224
3203.048	5258
3204.826	5075
3206.604	5222
3208.382	5175
3210.159	5262
3211.937	5249
3213.713	5168
3215.489	5252
3217.263	5124
3219.038	5248
3220.815	5186
3222.589	5138
3224.363	5135
3226.136	5167
3227.908	5179
3229.681	5259
3231.454	5268
3233.226	5151
3234.996	5223
3236.767	5171
3238.538	5274
3240.308	5230
3242.078	5233
3243.847	5195
3245.615	5306
3247.384	5126
3249.15	5285
3250.92	5205
3252.686	5214
3254.453	5328
3256.218	5271
3257.984	5189
3259.75	5280
3261.515	5228
3263.279	5282
3265.044	5160
3266.806	5281
3268.57	5207
3270.334	5143
3272.095	5145
3273.856	5152
3275.619	5172
3277.379	5209
3279.14	5223
3280.9	5161
3282.661	5197
3284.419	5203
3286.178	5173
3287.937	5130
3289.695	5126
3291.453	5312
3293.21	5127
3294.967	5171
3296.723	5167
3298.48	5158
3300.235	5130
3301.99	5243
3303.744	5123
3305.498	5110
3307.253	5154
3309.006	5111
3310.759	5103
3312.511	5199
3314.263	5150
3316.017	5140
3317.768	5263
3319.519	5131
3321.268	5155
3323.018	5214
3324.767	5199
3326.518	5171
3328.267	5117
3330.014	5223
3331.762	5196
3333.509	5161
3335.258	5070
3337.003	5095
3338.75	5165
3340.496	5096
3342.24	4956
3343.987	5126
3345.732	5156
3347.475	5039
3349.219	5029
3350.961	5085
3352.705	5112
3354.448	5016
3356.19	5056
3357.931	5091
3359.672	5057
3361.412	5159
3363.155	5054
3364.894	5052
3366.633	5014
3368.372	5009
3370.11	4993
3371.849	5058
3373.588	5045
3375.325	4890
3377.061	5087
3378.799	4938
3380.534	4933
3382.271	4973
3384.006	4974
3385.741	4929
3387.475	4964
3389.209	4938
3390.944	5021
3392.677	4941
3394.409	4930
3396.143	4963
3397.874	4959
3399.606	4997
3401.338	5031
3403.069	4963
3404.799	4966
3406.528	4996
3408.258	4929
3409.988	4960
3411.717	4884
3413.445	4914
3415.173	4796
3416.899	4866
3418.626	4847
3420.354	4858
3422.08	4932
3423.806	4965
3425.531	4881
3427.255	4969
3428.981	4859
3430.705	4877
3432.429	4906
3434.151	4889
3435.875	4838
3437.599	4838
3439.321	4843
3441.042	4836
3442.763	4837
3444.483	4824
3446.204	4738
3447.926	4779
3449.645	4752
3451.364	4731
3453.082	4837
3454.801	4832
3456.52	4812
3458.238	4695
3459.954	4625
3461.671	4784
3463.387	4777
3465.104	4722
3466.82	4766
3468.534	4762
3470.25	4794
3471.963	4712
3473.676	4728
3475.392	4694
3477.104	4656
3478.817	4636
3480.528	4585
3482.241	4702
3483.954	4673
3485.664	4609
3487.374	4588
3489.084	4743
3490.795	4569
3492.504	4655
3494.214	4565
3495.922	4568
3497.63	4640
3499.338	4590
3501.045	4554
3502.753	4554
3504.459	4600
3506.166	4563
3507.871	4655
3509.576	4530
3511.283	4559
3512.987	4520
3514.691	4447
3516.395	4511
3518.098	4474
3519.8	4512
3521.504	4447
3523.206	4437
3524.908	4503
3526.609	4513
3528.309	4494
3530.011	4577
3531.711	4446
3533.411	4489
3535.109	4445
3536.808	4360
3538.507	4550
3540.206	4403
3541.904	4351
3543.601	4477
3545.297	4450
3546.994	4426
3548.69	4434
3550.387	4479
3552.081	4423
3553.776	4418
3555.47	4388
3557.166	4432
3558.859	4379
3560.553	4395
3562.245	4354
3563.938	4468
3565.629	4491
3567.322	4299
3569.014	4399
3570.704	4355
3572.394	4358
3574.084	4316
3575.775	4279
3577.464	4329
3579.152	4305
3580.842	4394
3582.529	4390
3584.216	4337
3585.905	4278
3587.591	4211
3589.279	4290
3590.964	4299
3592.649	4161
3594.336	4275
3596.021	4247
3597.705	4223
3599.388	4251
3601.072	4253
3602.757	4243
3604.439	4266
3606.122	4339
3607.803	4238
3609.485	4179
3611.167	4202
3612.849	4143
3614.529	4212
3616.208	4101
3617.888	4215
3619.567	4157
3621.247	4170
3622.926	4099
3624.603	4061
3626.281	4218
3627.958	4145
3629.635	4022
3631.312	4133
3632.989	4080
3634.665	4132
3636.339	4101
3638.014	4129
3639.691	4081
3641.364	4125
3643.038	4035
3644.71	4144
3646.384	4090
3648.058	4075
3649.729	3939
3651.402	4031
3653.073	4132
3654.744	4116
3656.414	4018
3658.085	4007
3659.755	4024
3661.424	4005
3663.094	3960
3664.762	3913
3666.431	3962
3668.099	3965
3669.766	3966
3671.433	3982
3673.099	3988
3674.768	3988
3676.433	3998
3678.098	3996
3679.763	4079
3681.428	3898
3683.093	4011
3684.757	3950
3686.421	3918
3688.083	3985
3689.746	3894
3691.408	3979
3693.071	3966
3694.733	3931
3696.394	3940
3698.054	3998
3699.715	3892
3701.375	3932
3703.036	3891
3704.695	3925
3706.354	3844
3708.012	3970
3709.67	3896
3711.329	3851
3712.987	3854
3714.644	3957
3716.299	3835
3717.955	3930
3719.613	3913
3721.268	3891
3722.923	3956
3724.577	3874
3726.231	3901
3727.885	3932
3729.539	3766
3731.192	3867
3732.845	3847
3734.497	3884
3736.149	3899
3737.802	3938
3739.453	3891
3741.104	3796
3742.753	3846
3744.404	3837
3746.052	3823
3747.704	3876
3749.352	3841
3751	3855
3752.648	3868
3754.296	3801
3755.944	3812
3757.59	3767
3759.238	3703
3760.883	3812
3762.528	3829
3764.176	3792
3765.82	3803
3767.464	3790
3769.109	3756
3770.753	3798
3772.396	3769
3774.04	3836
3775.683	3680
3777.325	3731
3778.967	3774
3780.608	3755
3782.25	3713
3783.89	3761
3785.531	3761
3787.17	3675
3788.81	3723
3790.45	3724
3792.09	3652
3793.729	3686
3795.366	3843
3797.003	3640
3798.64	3718
3800.278	3697
3801.915	3685
3803.551	3667
3805.187	3681
3806.822	3682
3808.458	3665
3810.093	3650
3811.726	3663
3813.36	3747
3814.994	3643
3816.627	3614
3818.262	3717
3819.893	3613
3821.525	3700
3823.157	3593
3824.787	3652
3826.42	3714
3828.051	3622
3829.68	3608
3831.31	3596
3832.938	3644
3834.569	3626
3836.198	3565
3837.825	3643
3839.454	3586
3841.08	3622
3842.708	3655
3844.335	3589
3845.962	3576
3847.587	3592
3849.212	3601
3850.838	3608
3852.463	3523
3854.089	3597
3855.712	3689
3857.335	3567
3858.959	3623
3860.582	3560
3862.205	3616
3863.827	3615
3865.449	3573
3867.07	3501
3868.691	3498
3870.312	3653
3871.933	3524
3873.553	3564
3875.173	3521
3876.792	3483
3878.411	3497
3880.03	3493
3881.647	3526
3883.265	3524
3884.882	3522
3886.499	3525
3888.116	3503
3889.732	3504
3891.348	3560
3892.964	3459
3894.579	3483
3896.195	3470
3897.809	3471
3899.423	3514
3901.036	3498
3902.648	3528
3904.261	3481
3905.875	3504
3907.487	3497
3909.099	3562
3910.709	3459
3912.321	3517
3913.933	3522
3915.542	3529
3917.152	3440
3918.762	3478
3920.37	3485
3921.98	3445
3923.589	3483
3925.196	3492
3926.804	3398
3928.41	3407
3930.018	3466
3931.626	3424
3933.231	3471
3934.838	3380
3936.442	3503
3938.046	3394
3939.653	3458
3941.257	3479
3942.861	3475
3944.464	3383
3946.068	3379
3947.67	3432
3949.273	3440
3950.876	3432
3952.477	3383
3954.078	3448
3955.678	3432
3957.281	3379
3958.881	3350
3960.48	3413
3962.079	3460
3963.678	3485
3965.279	3321
3966.877	3452
3968.475	3318
3970.072	3378
3971.669	3329
3973.266	3391
3974.864	3366
3976.459	3395
3978.055	3412
3979.65	3422
3981.245	3354
3982.841	3414
3984.436	3351
3986.03	3278
3987.623	3352
3989.216	3457
3990.809	3305
3992.403	3295
3993.995	3443
3995.586	3391
3997.177	3297
3998.768	3236
4000.361	3336
4001.951	3237
4003.54	3295
4005.13	3330
4006.719	3246
4008.31	3265
4009.897	3299
4011.485	3266
4013.073	3216
4014.66	3245
4016.247	3261
4017.834	3198
4019.421	3233
4021.006	3257
4022.592	3200
4024.178	3232
4025.763	3207
4027.348	3257
4028.932	3220
4030.515	3220
4032.099	3236
4033.682	3194
4035.266	3198
4036.847	3213
4038.429	3129
4040.011	3225
4041.592	3213
4043.173	3094
4044.755	3158
4046.334	3198
4047.913	3213
4049.494	3099
4051.074	3231
4052.652	3107
4054.23	3140
4055.807	3183
4057.385	3157
4058.963	3082
4060.541	3178
4062.117	3124
4063.693	3054
4065.269	3191
4066.844	3119
4068.42	3106
4069.995	3099
4071.569	3143
4073.143	3029
4074.716	3183
4076.291	3146
4077.864	3137
4079.436	3096
4081.009	3132
4082.58	3097
4084.152	3089
4085.723	3102
4087.294	3107
4088.865	3150
4090.435	3113
4092.005	3107
4093.574	3065
4095.143	3093
4096.712	3043
4098.279	3077
4099.848	3041
4101.416	3111
4102.984	3072
4104.55	2980
4106.117	3000
4107.682	3009
4109.248	3000
4110.815	3011
4112.379	3081
4113.945	3042
4115.508	3036
4117.073	2999
4118.637	3056
4120.201	3007
4121.763	3063
4123.325	2981
4124.888	2988
4126.449	2917
4128.013	3020
4129.573	3023
4131.133	3035
4132.694	3060
4134.254	2943
4135.814	3089
4137.374	3001
4138.933	2977
4140.491	2964
4142.049	2981
4143.607	2949
4145.167	2963
4146.724	2956
4148.28	2969
4149.836	2961
4151.392	2946
4152.949	2924
4154.504	2989
4156.059	2968
4157.614	2933
4159.168	2945
4160.723	2937
4162.277	2980
4163.83	2916
4165.383	2936
4166.936	2953
4168.488	2890
4170.041	2980
4171.593	2903
4173.144	2882
4174.695	2865
4176.246	2942
4177.796	2887
4179.346	2907
4180.896	2927
4182.445	2843
4183.994	2902
4185.542	2949
4187.091	2896
4188.639	2833
4190.185	2873
4191.732	2857
4193.279	2804
4194.826	2925
4196.373	2847
4197.918	2808
4199.463	2851
4201.008	2845
4202.553	2839
4204.098	2875
4205.641	2855
4207.185	2805
4208.728	2850
4210.271	2820
4211.814	2836
4213.357	2877
4214.898	2792
4216.439	2880
4217.98	2846
4219.522	2840
4221.062	2866
4222.603	2818
4224.142	2813
4225.681	2771
4227.222	2751
4228.76	2786
4230.298	2872
4231.835	2766
4233.373	2778
4234.911	2799
4236.449	2798
4237.985	2837
4239.521	2770
4241.057	2753
4242.592	2819
4244.128	2743
4245.663	2720
4247.197	2758
4248.731	2774
4250.265	2699
4251.798	2705
4253.333	2768
4254.865	2787
4256.397	2742
4257.93	2741
4259.461	2748
4260.994	2721
4262.525	2760
4264.056	2828
4265.586	2718
4267.115	2682
4268.646	2669
4270.176	2725
4271.705	2711
4273.232	2708
4274.761	2770
4276.289	2723
4277.818	2742
4279.345	2722
4280.872	2637
4282.399	2707
4283.924	2674
4285.452	2755
4286.976	2758
4288.502	2699
4290.026	2679
4291.551	2663
4293.074	2740
4294.6	2660
4296.123	2675
4297.646	2674
4299.168	2708
4300.691	2710
4302.214	2652
4303.736	2657
4305.257	2647
4306.778	2727
4308.299	2643
4309.82	2694
4311.34	2685
4312.86	2610
4314.379	2638
