400.0745	3886
402.597	3936
405.1208	3969
407.6419	3922
410.1623	3851
412.6819	3849
415.201	3970
417.7172	3919
420.2369	3965
422.7538	4064
425.2701	4052
427.7856	4063
430.3005	4152
432.8147	4143
435.3282	4165
437.841	4150
440.3511	4121
442.8625	4109
445.3753	4111
447.8854	4235
450.3927	4144
452.9014	4130
455.4073	4084
457.9146	4162
460.4233	4186
462.9272	4074
465.4325	4153
467.935	4145
470.4389	4136
472.9421	4145
475.4446	4114
477.9444	4155
480.4456	4204
482.944	4199
485.4417	4210
487.9429	4218
490.4393	4230
492.935	4241
495.4321	4234
497.9264	4261
500.4221	4224
502.9171	4320
505.4094	4295
507.9011	4369
510.392	4383
512.8864	4352
515.3759	4296
517.8649	4402
520.3531	4285
522.8406	4442
525.3275	4277
527.8178	4300
530.3033	4499
532.7881	4333
535.2723	4377
537.7558	4387
540.2407	4364
542.7228	4425
545.2043	4318
547.6851	4290
550.1652	4370
552.6467	4439
555.1255	4404
557.6016	4453
560.079	4324
562.5557	4362
565.0318	4412
567.5092	4412
569.984	4404
572.456	4473
574.9294	4493
577.4022	4655
579.8762	4477
582.3456	4437
584.8163	4502
587.2863	4594
589.7557	4598
592.2224	4541
594.6924	4470
597.1578	4517
599.6245	4570
602.0905	4542
604.5538	4448
607.0206	4502
609.4825	4420
611.9459	4529
614.4066	4581
616.8686	4506
619.33	4541
621.7906	4439
624.2487	4563
626.708	4440
629.1647	4543
631.6207	4507
634.0801	4468
636.5348	4501
638.9888	4542
641.4442	4587
643.8969	4470
646.3509	4544
648.8022	4487
651.255	4455
653.705	4584
656.1544	4623
658.6031	4587
661.0532	4572
663.5026	4589
665.9493	4658
668.3954	4592
670.8409	4629
673.2877	4633
675.7318	4655
678.1752	4584
680.618	4655
683.0601	4648
685.5035	4626
687.9444	4637
690.3845	4681
692.824	4753
695.2628	4701
697.701	4637
700.1406	4762
702.5774	4622
705.0116	4658
707.4472	4702
709.8821	4714
712.3183	4670
714.7519	4795
717.1829	4743
719.6151	4761
722.0468	4738
724.4777	4742
726.908	4764
729.3377	4782
731.7667	4804
734.1931	4872
736.6208	4787
739.0498	4853
741.4742	4874
743.9	4907
746.3231	4917
748.7476	4970
751.1713	4907
753.5945	4941
756.015	4880
758.4368	4896
760.856	4969
763.2766	4935
765.6965	4968
768.1157	4920
770.5323	4895
772.9483	5047
775.3656	5019
777.7822	4975
780.1963	4940
782.6116	5044
785.0244	5012
787.4365	4998
789.8499	4936
792.2626	4954
794.6728	4990
797.0823	5032
799.4911	5032
801.8994	4961
804.3109	5038
806.7178	5013
809.124	5072
811.5297	4961
813.9347	5109
816.341	5032
818.7447	5078
821.1478	5067
823.5502	5159
825.952	5006
828.3531	5112
830.7556	5049
833.1554	5013
835.5546	5122
837.9532	5032
840.3511	5168
842.7504	5024
845.1451	5008
847.5411	5162
849.9365	5153
852.3312	5196
854.7272	5154
857.1187	5235
859.5115	5149
861.9037	5099
864.2952	5103
866.6842	5237
869.0764	5132
871.4661	5109
873.8531	5189
876.2415	5207
878.6272	5195
881.0162	5106
883.4026	5121
885.7866	5154
888.1717	5118
890.5543	5150
892.9382	5152
895.3215	5125
897.7041	5037
900.0842	5084
902.4655	5126
904.8443	5208
907.2244	5161
909.6039	5244
911.9808	5182
914.357	5271
916.7346	5280
919.1115	5294
921.4859	5374
923.8616	5293
926.2347	5246
928.6071	5307
930.979	5390
933.3541	5394
935.7247	5402
938.0946	5355
940.4639	5427
942.8326	5462
945.2026	5555
947.5701	5611
949.9369	5669
952.305	5782
954.6705	5831
957.0355	6068
959.4017	6164
961.7654	6244
964.1284	6243
966.4908	6198
968.8527	6015
971.2138	5873
973.5743	5608
975.9343	5592
978.2936	5393
980.6522	5462
983.0122	5282
985.3696	5325
987.7245	5459
990.0807	5264
992.4362	5289
994.7911	5356
997.1474	5338
999.4991	5356
1001.852	5288
1004.205	5361
1006.555	5278
1008.908	5385
1011.258	5313
1013.606	5284
1015.956	5328
1018.302	5323
1020.652	5377
1022.998	5434
1025.345	5352
1027.691	5442
1030.035	5276
1032.378	5459
1034.724	5320
1037.066	5413
1039.409	5513
1041.75	5463
1044.092	5497
1046.433	5426
1048.771	5449
1051.112	5385
1053.449	5369
1055.786	5456
1058.124	5439
1060.462	5447
1062.797	5396
1065.131	5437
1067.467	5490
1069.8	5493
1072.135	5499
1074.467	5529
1076.798	5396
1079.129	5435
1081.459	5466
1083.792	5389
1086.121	5586
1088.449	5472
1090.777	5435
1093.104	5336
1095.431	5520
1097.759	5470
1100.084	5364
1102.408	5450
1104.732	5473
1107.056	5481
1109.379	5421
1111.701	5461
1114.022	5400
1116.343	5497
1118.664	5443
1120.983	5460
1123.303	5506
1125.621	5446
1127.939	5536
1130.256	5475
1132.573	5486
1134.889	5545
1137.205	5470
1139.52	5356
1141.832	5491
1144.146	5532
1146.461	5473
1148.771	5551
1151.083	5453
1153.392	5469
1155.703	5418
1158.011	5488
1160.323	5505
1162.629	5512
1164.938	5552
1167.243	5454
1169.55	5498
1171.857	5466
1174.163	5582
1176.466	5596
1178.769	5532
1181.073	5503
1183.374	5523
1185.677	5492
1187.979	5538
1190.279	5439
1192.578	5454
1194.878	5407
1197.178	5518
1199.476	5430
1201.772	5557
1204.068	5484
1206.366	5628
1208.663	5498
1210.957	5466
1213.251	5512
1215.544	5544
1217.836	5477
1220.128	5498
1222.421	5614
1224.712	5464
1227.002	5650
1229.292	5541
1231.581	5540
1233.871	5602
1236.159	5647
1238.446	5743
1240.732	5648
1243.018	5659
1245.304	5662
1247.59	5744
1249.874	5721
1252.156	5573
1254.439	5741
1256.721	5602
1259.005	5684
1261.286	5644
1263.565	5711
1265.845	5719
1268.125	5730
1270.403	5658
1272.682	5736
1274.959	5686
1277.234	5648
1279.511	5713
1281.787	5675
1284.062	5725
1286.337	5643
1288.609	5712
1290.882	5537
1293.153	5520
1295.428	5630
1297.698	5645
1299.969	5632
1302.237	5572
1304.507	5510
1306.777	5668
1309.044	5600
1311.312	5612
1313.578	5639
1315.844	5494
1318.109	5581
1320.375	5574
1322.638	5610
1324.903	5565
1327.165	5593
1329.427	5621
1331.69	5624
1333.952	5644
1336.212	5573
1338.471	5679
1340.73	5538
1342.988	5574
1345.248	5576
1347.505	5621
1349.763	5631
1352.019	5610
1354.274	5592
1356.53	5597
1358.784	5636
1361.038	5581
1363.291	5648
1365.543	5568
1367.797	5604
1370.048	5699
1372.296	5604
1374.546	5680
1376.796	5638
1379.045	5677
1381.295	5694
1383.542	5639
1385.787	5596
1388.034	5680
1390.28	5639
1392.527	5628
1394.772	5646
1397.014	5685
1399.258	5708
1401.501	5625
1403.741	5727
1405.985	5627
1408.226	5643
1410.465	5734
1412.705	5714
1414.943	5808
1417.184	5788
1419.42	5703
1421.658	5680
1423.894	5632
1426.13	5734
1428.366	5780
1430.602	5791
1432.835	5734
1435.069	5734
1437.301	5784
1439.535	5755
1441.767	5742
1443.997	5767
1446.229	5930
1448.458	5738
1450.687	5910
1452.916	5779
1455.146	5804
1457.372	5796
1459.599	5763
1461.824	5889
1464.051	5797
1466.277	5870
1468.501	5802
1470.725	5782
1472.948	5714
1475.17	5721
1477.393	5724
1479.614	5721
1481.837	5726
1484.057	5744
1486.276	5757
1488.497	5588
1490.715	5601
1492.932	5606
1495.148	5563
1497.364	5686
1499.58	5590
1501.798	5628
1504.012	5543
1506.227	5635
1508.44	5515
1510.653	5586
1512.866	5633
1515.078	5633
1517.289	5670
1519.5	5628
1521.711	5446
1523.92	5701
1526.13	5608
1528.338	5645
1530.544	5588
1532.752	5674
1534.959	5581
1537.165	5614
1539.371	5695
1541.574	5628
1543.779	5547
1545.983	5564
1548.187	5665
1550.39	5706
1552.59	5672
1554.792	5629
1556.991	5693
1559.19	5619
1561.392	5655
1563.59	5637
1565.789	5586
1567.986	5725
1570.182	5731
1572.381	5660
1574.576	5779
1576.771	5765
1578.966	5703
1581.16	5705
1583.354	5727
1585.546	5829
1587.74	5859
1589.931	5846
1592.121	5831
1594.311	5645
1596.502	5770
1598.693	5756
1600.881	5739
1603.069	5855
1605.256	5832
1607.445	5740
1609.631	5874
1611.816	5821
1614.001	5744
1616.186	5753
1618.37	5822
1620.555	5778
1622.737	5747
1624.919	5933
1627.101	5777
1629.282	5868
1631.463	5823
1633.643	5765
1635.822	5871
1638.001	5826
1640.179	5898
1642.359	5723
1644.534	5811
1646.711	5738
1648.887	5870
1651.062	5805
1653.235	5803
1655.412	5831
1657.586	5817
1659.757	5866
1661.93	5815
1664.1	5937
1666.274	5827
1668.445	5890
1670.614	5861
1672.784	5892
1674.951	5821
1677.12	5932
1679.289	5921
1681.457	5844
1683.622	5882
1685.789	5796
1687.953	5900
1690.121	5846
1692.284	5908
1694.447	5918
1696.611	5793
1698.772	5814
1700.935	5728
1703.098	5768
1705.258	5788
1707.417	5764
1709.576	5820
1711.736	5712
1713.896	5703
1716.053	5764
1718.21	5717
1720.366	5668
1722.522	5772
1724.68	5808
1726.835	5823
1728.989	5736
1731.142	5662
1733.295	5696
1735.449	5736
1737.601	5731
1739.753	5706
1741.903	5787
1744.054	5747
1746.203	5826
1748.354	5833
1750.503	5853
1752.651	5799
1754.798	5829
1756.944	5799
1759.092	5754
1761.238	5840
1763.383	5871
1765.528	5775
1767.672	5696
1769.814	5716
1771.959	5824
1774.102	5754
1776.242	5798
1778.384	5797
1780.525	5921
1782.665	5746
1784.805	5771
1786.945	5765
1789.082	5866
1791.22	5838
1793.36	5852
1795.495	5776
1797.632	5862
1799.766	5853
1801.902	5778
1804.035	5784
1806.172	5831
1808.304	5875
1810.436	5772
1812.569	5814
1814.699	5864
1816.833	5776
1818.963	5769
1821.092	5817
1823.222	5700
1825.35	5792
1827.478	5779
1829.608	5823
1831.734	5858
1833.86	5725
1835.986	5749
1838.11	5741
1840.238	5704
1842.362	5715
1844.485	5677
1846.608	5866
1848.73	5777
1850.853	5718
1852.974	5752
1855.097	5648
1857.217	5623
1859.336	5726
1861.455	5801
1863.576	5797
1865.693	5619
1867.811	5815
1869.926	5635
1872.042	5729
1874.16	5761
1876.275	5728
1878.39	5710
1880.504	5711
1882.618	5791
1884.731	5719
1886.843	5865
1888.956	5795
1891.067	5636
1893.178	5727
1895.287	5882
1897.399	5746
1899.508	5658
1901.617	5702
1903.724	5798
1905.832	5818
1907.941	5799
1910.046	5716
1912.152	5698
1914.256	5789
1916.361	5864
1918.464	5791
1920.57	5762
1922.672	5831
1924.775	5823
1926.876	5866
1928.978	5763
1931.08	5861
1933.181	5847
1935.28	5785
1937.38	5802
1939.478	5823
1941.577	5889
1943.675	5759
1945.771	5893
1947.867	5785
1949.964	5828
1952.058	5813
1954.154	5759
1956.248	5773
1958.343	5764
1960.435	5838
1962.527	5749
1964.62	5770
1966.711	5821
1968.802	5824
1970.892	5764
1972.983	5833
1975.072	5869
1977.162	5904
1979.25	5781
1981.337	5782
1983.424	5788
1985.51	5691
1987.598	5824
1989.683	5773
1991.768	5682
1993.852	5702
1995.934	5705
1998.019	5861
2000.102	5690
2002.184	5706
2004.266	5852
2006.347	5698
2008.427	5663
2010.508	5663
2012.587	5723
2014.666	5768
2016.745	5693
2018.821	5802
2020.9	5640
2022.977	5692
2025.052	5685
2027.128	5736
2029.204	5710
2031.277	5743
2033.353	5734
2035.425	5788
2037.499	5687
2039.57	5758
2041.642	5659
2043.714	5784
2045.786	5777
2047.855	5850
2049.925	5779
2051.993	5738
2054.064	5799
2056.132	5757
2058.2	5748
2060.266	5767
2062.332	5744
2064.398	5711
2066.465	5764
2068.529	5767
2070.592	5656
2072.657	5747
2074.719	5632
2076.783	5877
2078.845	5775
2080.907	5754
2082.968	5752
2085.028	5806
2087.087	5722
2089.148	5704
2091.207	5803
2093.264	5819
2095.322	5750
2097.379	5757
2099.439	5760
2101.495	5748
2103.55	5773
2105.605	5747
2107.658	5792
2109.713	5737
2111.767	5762
2113.82	5775
2115.872	5787
2117.924	5732
2119.975	5762
2122.028	5743
2124.078	5815
2126.126	5767
2128.176	5739
2130.225	5731
2132.275	5636
2134.321	5703
2136.368	5714
2138.415	5669
2140.461	5776
2142.505	5724
2144.552	5773
2146.597	5737
2148.64	5701
2150.684	5630
2152.725	5770
2154.77	5623
2156.811	5811
2158.852	5745
2160.894	5648
2162.933	5654
2164.973	5680
2167.013	5735
2169.051	5676
2171.089	5683
2173.126	5703
2175.164	5701
2177.201	5661
2179.236	5573
2181.273	5638
2183.307	5604
2185.341	5589
2187.377	5625
2189.41	5657
2191.442	5711
2193.473	5605
2195.506	5684
2197.539	5598
2199.569	5597
2201.598	5622
2203.628	5647
2205.656	5694
2207.686	5624
2209.716	5566
2211.743	5596
2213.769	5496
2215.796	5532
2217.821	5620
2219.848	5600
2221.873	5626
2223.897	5580
2225.921	5450
2227.944	5627
2229.967	5552
2231.991	5575
2234.011	5585
2236.032	5540
2238.053	5462
2240.073	5584
2242.094	5530
2244.114	5719
2246.131	5516
2248.149	5518
2250.167	5627
2252.186	5494
2254.201	5511
2256.218	5591
2258.233	5478
2260.247	5499
2262.262	5570
2264.278	5454
2266.29	5534
2268.303	5543
2270.315	5621
2272.327	5555
2274.341	5525
2276.35	5521
2278.361	5455
2280.37	5498
2282.38	5522
2284.388	5663
2286.397	5573
2288.405	5605
2290.412	5550
2292.419	5523
2294.425	5491
2296.431	5513
2298.437	5554
2300.441	5494
2302.445	5469
2304.449	5544
2306.453	5514
2308.455	5452
2310.457	5454
2312.459	5544
2314.46	5447
2316.46	5497
2318.461	5474
2320.46	5568
2322.458	5515
2324.458	5575
2326.456	5560
2328.455	5527
2330.451	5574
2332.447	5498
2334.443	5453
2336.438	5559
2338.433	5441
2340.429	5439
2342.422	5526
2344.416	5376
2346.408	5423
2348.399	5406
2350.393	5430
2352.384	5438
2354.375	5439
2356.365	5466
2358.355	5417
2360.344	5387
2362.333	5374
2364.322	5447
2366.309	5338
2368.295	5475
2370.282	5377
2372.27	5393
2374.256	5373
2376.24	5435
2378.225	5445
2380.208	5443
2382.194	5288
2384.177	5290
2386.159	5357
2388.142	5314
2390.122	5418
2392.105	5368
2394.085	5326
2396.066	5296
2398.044	5288
2400.024	5491
2402.002	5333
2403.982	5233
2405.959	5354
2407.935	5369
2409.913	5371
2411.888	5296
2413.865	5308
2415.84	5351
2417.814	5341
2419.788	5334
2421.762	5264
2423.735	5383
2425.708	5390
2427.68	5477
2429.651	5320
2431.623	5409
2433.593	5279
2435.564	5237
2437.533	5311
2439.502	5305
2441.47	5280
2443.438	5366
2445.406	5406
2447.373	5322
2449.34	5268
2451.305	5361
2453.271	5391
2455.235	5275
2457.201	5304
2459.165	5371
2461.129	5335
2463.092	5270
2465.054	5198
2467.018	5238
2468.978	5228
2470.939	5236
2472.899	5304
2474.86	5332
2476.819	5283
2478.778	5265
2480.737	5363
2482.695	5292
2484.653	5243
2486.609	5216
2488.567	5258
2490.524	5237
2492.478	5217
2494.433	5191
2496.387	5196
2498.343	5180
2500.297	5189
2502.249	5155
2504.202	5254
2506.153	5244
2508.105	5243
2510.057	5273
2512.008	5287
2513.957	5217
2515.906	5198
2517.855	5098
2519.805	5249
2521.754	5214
2523.7	5188
2525.647	5208
2527.594	5245
2529.54	5056
2531.486	5221
2533.431	5147
2535.376	5124
2537.32	5180
2539.263	5195
2541.207	5099
2543.151	5105
2545.093	5256
2547.034	5207
2548.975	5156
2550.917	5140
2552.856	5141
2554.796	5154
2556.735	5144
2558.673	5094
2560.611	5127
2562.55	5162
2564.487	5107
2566.424	5186
2568.36	5170
2570.296	5190
2572.232	5164
2574.167	5202
2576.101	5204
2578.035	5219
2579.969	5225
2581.902	5191
2583.834	5152
2585.766	5114
2587.698	5117
2589.628	5183
2591.557	5132
2593.489	5276
2595.419	5234
2597.348	5149
2599.275	5234
2601.204	5161
2603.131	5117
2605.059	5297
2606.986	5243
2608.911	5080
2610.837	5196
2612.76	5222
2614.687	5145
2616.61	5270
2618.534	5167
2620.457	5254
2622.38	5245
2624.302	5110
2626.225	5187
2628.145	5179
2630.067	5126
2631.986	5262
2633.906	5175
2635.827	5208
2637.745	5315
2639.662	5158
2641.581	5209
2643.498	5201
2645.415	5151
2647.331	5187
2649.248	5142
2651.163	5176
2653.077	5308
2654.993	5155
2656.906	5195
2658.821	5258
2660.733	5214
2662.646	5156
2664.557	5172
2666.47	5136
2668.381	5153
2670.291	5224
2672.201	5148
2674.11	5127
2676.021	5152
2677.929	5186
2679.837	5045
2681.745	5102
2683.652	5120
2685.56	5029
2687.466	5090
2689.371	5150
2691.276	5090
2693.181	5114
2695.085	5104
2696.991	5133
2698.893	5124
2700.796	5134
2702.698	5124
2704.601	5015
2706.502	5089
2708.404	4926
2710.304	5114
2712.203	5134
2714.103	5083
2716.003	5126
2717.902	5147
2719.8	4905
2721.697	4915
2723.594	5093
2725.49	5095
2727.389	5065
2729.283	5013
2731.179	5065
2733.073	5040
2734.968	5081
2736.863	5019
2738.757	5055
2740.649	5007
2742.541	5063
2744.433	5092
2746.324	5035
2748.216	5077
2750.107	5080
2751.997	5058
2753.886	4973
2755.776	5027
2757.666	4983
2759.553	5010
2761.44	4915
2763.327	4969
2765.215	5067
2767.102	4959
2768.988	4856
2770.873	5045
2772.757	5012
2774.641	4929
2776.525	5023
2778.41	4956
2780.292	4891
2782.175	5021
2784.057	4863
2785.938	4999
2787.821	5005
2789.701	4969
2791.581	5065
2793.461	5047
2795.34	5051
2797.219	4967
2799.099	4987
2800.975	4954
2802.853	5036
2804.73	4838
2806.606	4955
2808.484	4996
2810.358	4877
2812.233	4994
2814.108	4926
2815.981	4889
2817.857	4948
2819.73	4894
2821.602	4873
2823.474	4909
2825.346	4970
2827.217	4971
2829.089	4936
2830.959	4997
2832.829	4864
2834.698	4870
2836.567	4859
2838.436	4957
2840.305	4892
2842.172	4813
2844.04	4856
2845.905	4991
2847.772	4835
2849.639	4898
2851.503	4936
2853.369	4985
2855.232	4937
2857.096	4900
2858.961	4947
2860.824	5001
2862.686	4913
2864.547	5007
2866.41	4928
2868.272	5064
2870.132	5039
2871.992	5020
2873.851	5033
2875.711	5102
2877.57	5080
2879.429	5122
2881.287	5133
2883.144	5153
2885.001	5165
2886.857	5174
2888.714	5196
2890.57	5120
2892.425	5211
2894.279	5132
2896.133	5219
2897.987	5112
2899.842	5147
2901.694	5072
2903.547	5186
2905.397	5122
2907.249	5047
2909.101	5197
2910.952	5131
2912.802	5173
2914.652	5159
2916.5	5172
2918.35	5262
2920.198	5293
2922.045	5373
2923.893	5357
2925.74	5458
2927.585	5372
2929.433	5373
2931.279	5375
2933.123	5449
2934.968	5308
2936.811	5441
2938.656	5446
2940.5	5535
2942.342	5581
2944.185	5508
2946.026	5531
2947.87	5718
2949.71	5569
2951.549	5513
2953.39	5476
2955.229	5530
2957.069	5514
2958.908	5394
2960.746	5505
2962.584	5424
2964.421	5438
2966.257	5307
2968.094	5280
2969.931	5189
2971.766	5171
2973.601	5209
2975.435	5232
2977.27	5168
2979.105	5121
2980.938	5134
2982.77	5076
2984.602	5121
2986.434	5133
2988.267	5068
2990.097	5079
2991.927	5019
2993.757	5063
2995.587	5105
2997.417	4962
2999.246	4874
3001.074	4905
3002.902	4932
3004.729	4962
3006.556	4856
3008.384	4897
3010.21	4821
3012.036	4753
3013.861	4783
3015.684	4624
3017.51	4775
3019.334	4714
3021.157	4701
3022.981	4762
3024.802	4683
3026.624	4695
3028.448	4633
3030.267	4642
3032.088	4645
3033.909	4644
3035.728	4651
3037.549	4577
3039.368	4647
3041.186	4637
3043.004	4657
3044.821	4651
3046.64	4428
3048.455	4564
3050.272	4553
3052.087	4618
3053.903	4598
3055.717	4526
3057.534	4609
3059.347	4603
3061.16	4557
3062.974	4588
3064.785	4566
3066.598	4546
3068.411	4523
3070.222	4584
3072.032	4612
3073.844	4554
3075.653	4490
3077.463	4566
3079.272	4552
3081.08	4586
3082.889	4536
3084.697	4528
3086.505	4518
3088.312	4508
3090.118	4567
3091.924	4414
3093.729	4572
3095.535	4429
3097.34	4392
3099.144	4516
3100.947	4435
3102.75	4512
3104.553	4473
3106.357	4416
3108.159	4474
3109.961	4423
3111.762	4388
3113.562	4411
3115.365	4355
3117.164	4537
3118.964	4403
3120.761	4423
3122.56	4391
3124.36	4373
3126.158	4319
3127.954	4355
3129.75	4411
3131.547	4359
3133.343	4354
3135.139	4391
3136.934	4386
3138.729	4323
3140.522	4411
3142.317	4301
3144.11	4416
3145.904	4317
3147.695	4318
3149.488	4296
3151.28	4297
3153.07	4303
3154.863	4310
3156.652	4293
3158.441	4326
3160.231	4341
3162.019	4327
3163.81	4350
3165.597	4266
3167.384	4291
3169.172	4335
3170.958	4314
3172.745	4354
3174.532	4377
3176.317	4284
3178.101	4247
3179.885	4231
3181.67	4224
3183.455	4270
3185.238	4316
3187.02	4235
3188.802	4254
3190.585	4264
3192.368	4172
3194.149	4387
3195.929	4241
3197.709	4209
3199.489	4193
3201.268	4223
3203.048	4183
3204.826	4193
3206.604	4258
3208.382	4215
3210.159	4199
3211.937	4221
3213.713	4210
3215.489	4224
3217.263	4172
3219.038	4282
3220.815	4189
3222.589	4142
3224.363	4289
3226.136	4255
3227.908	4200
3229.681	4353
3231.454	4293
3233.226	4166
3234.996	4250
3236.767	4180
3238.538	4128
3240.308	4194
3242.078	4223
3243.847	4148
3245.615	4210
3247.384	4180
3249.15	4156
3250.92	4141
3252.686	4239
3254.453	4131
3256.218	4160
3257.984	4191
3259.75	4201
3261.515	4178
3263.279	4188
3265.044	4117
3266.806	4100
3268.57	4138
3270.334	4173
3272.095	4104
3273.856	4109
3275.619	4176
3277.379	4198
3279.14	4191
3280.9	4164
3282.661	4240
3284.419	4180
3286.178	4172
3287.937	4184
3289.695	4188
3291.453	4212
3293.21	4215
3294.967	4227
3296.723	4202
3298.48	4204
3300.235	4158
3301.99	4175
3303.744	4289
3305.498	4230
3307.253	4287
3309.006	4206
3310.759	4152
3312.511	4208
3314.263	4157
3316.017	4152
3317.768	4161
3319.519	4212
3321.268	4100
3323.018	4101
3324.767	4096
3326.518	4037
3328.267	4141
3330.014	4204
3331.762	4194
3333.509	4140
3335.258	4202
3337.003	4058
3338.75	4131
3340.496	4101
3342.24	4089
3343.987	4129
3345.732	4170
3347.475	4076
3349.219	4102
3350.961	4078
3352.705	4115
3354.448	4043
3356.19	4143
3357.931	4052
3359.672	4058
3361.412	4106
3363.155	4045
3364.894	4108
3366.633	4108
3368.372	4115
3370.11	4119
3371.849	4033
3373.588	4083
3375.325	4051
3377.061	4009
3378.799	4030
3380.534	4091
3382.271	4009
3384.006	3990
3385.741	4038
3387.475	3983
3389.209	4051
3390.944	4019
3392.677	3959
3394.409	4030
3396.143	4055
3397.874	4098
3399.606	4046
3401.338	3924
3403.069	4087
3404.799	3964
3406.528	4000
3408.258	3908
3409.988	4005
3411.717	3960
3413.445	4004
3415.173	3944
3416.899	3961
3418.626	3996
3420.354	3887
3422.08	3987
3423.806	3990
3425.531	3949
3427.255	3919
3428.981	3903
3430.705	3937
3432.429	3934
3434.151	3960
3435.875	3934
3437.599	3952
3439.321	3877
3441.042	3935
3442.763	3940
3444.483	3796
3446.204	3932
3447.926	3877
3449.645	3909
3451.364	3842
3453.082	3846
3454.801	3932
3456.52	3899
3458.238	3892
3459.954	3814
3461.671	3859
3463.387	3781
3465.104	3876
3466.82	3856
3468.534	3825
3470.25	3838
3471.963	3830
3473.676	3885
3475.392	3861
3477.104	3773
3478.817	3827
3480.528	3715
3482.241	3791
3483.954	3769
3485.664	3791
3487.374	3787
3489.084	3797
3490.795	3698
3492.504	3793
3494.214	3754
3495.922	3779
3497.63	3758
3499.338	3722
3501.045	3739
3502.753	3746
3504.459	3686
3506.166	3762
3507.871	3708
3509.576	3726
3511.283	3666
3512.987	3705
3514.691	3703
3516.395	3691
3518.098	3733
3519.8	3718
3521.504	3704
3523.206	3618
3524.908	3687
3526.609	3610
3528.309	3706
3530.011	3666
3531.711	3628
3533.411	3721
3535.109	3666
3536.808	3702
3538.507	3694
3540.206	3671
3541.904	3634
3543.601	3590
3545.297	3658
3546.994	3600
3548.69	3599
3550.387	3648
3552.081	3636
3553.776	3565
3555.47	3594
3557.166	3570
3558.859	3615
3560.553	3658
3562.245	3579
3563.938	3667
3565.629	3663
3567.322	3655
3569.014	3540
3570.704	3608
3572.394	3648
3574.084	3565
3575.775	3591
3577.464	3543
3579.152	3565
3580.842	3598
3582.529	3648
3584.216	3546
3585.905	3584
3587.591	3556
3589.279	3542
3590.964	3556
3592.649	3500
3594.336	3572
3596.021	3528
3597.705	3441
3599.388	3501
3601.072	3575
3602.757	3484
3604.439	3491
3606.122	3504
3607.803	3462
3609.485	3509
3611.167	3471
3612.849	3455
3614.529	3375
3616.208	3511
3617.888	3468
3619.567	3448
3621.247	3470
3622.926	3549
3624.603	3391
3626.281	3418
3627.958	3462
3629.635	3505
3631.312	3436
3632.989	3359
3634.665	3473
3636.339	3366
3638.014	3364
3639.691	3391
3641.364	3471
3643.038	3355
3644.71	3447
3646.384	3380
3648.058	3303
3649.729	3375
3651.402	3386
3653.073	3330
3654.744	3405
3656.414	3389
3658.085	3411
3659.755	3350
3661.424	3370
3663.094	3337
3664.762	3300
3666.431	3352
3668.099	3307
3669.766	3330
3671.433	3364
3673.099	3347
3674.768	3327
3676.433	3320
3678.098	3339
3679.763	3344
3681.428	3319
3683.093	3262
3684.757	3279
3686.421	3272
3688.083	3250
3689.746	3336
3691.408	3305
3693.071	3348
3694.733	3340
3696.394	3347
3698.054	3286
3699.715	3247
3701.375	3354
3703.036	3288
3704.695	3298
3706.354	3292
3708.012	3312
3709.67	3237
3711.329	3250
3712.987	3293
3714.644	3259
3716.299	3285
3717.955	3195
3719.613	3227
3721.268	3318
3722.923	3263
3724.577	3263
3726.231	3235
3727.885	3197
3729.539	3204
3731.192	3255
3732.845	3280
3734.497	3225
3736.149	3298
3737.802	3310
3739.453	3208
3741.104	3222
3742.753	3236
3744.404	3221
3746.052	3242
3747.704	3173
3749.352	3241
3751	3238
3752.648	3103
3754.296	3298
3755.944	3258
3757.59	3174
3759.238	3207
3760.883	3231
3762.528	3193
3764.176	3154
3765.82	3187
3767.464	3103
3769.109	3149
3770.753	3093
3772.396	3184
3774.04	3081
3775.683	3141
3777.325	3153
3778.967	3113
3780.608	3165
3782.25	3176
3783.89	3149
3785.531	3147
3787.17	3163
3788.81	3132
3790.45	3088
3792.09	3100
3793.729	3071
3795.366	3133
3797.003	3098
3798.64	3071
3800.278	3130
3801.915	3208
3803.551	3188
3805.187	3002
3806.822	3130
3808.458	3096
3810.093	3053
3811.726	3128
3813.36	3057
3814.994	3059
3816.627	3050
3818.262	3060
3819.893	3048
3821.525	3070
3823.157	3026
3824.787	3081
3826.42	3071
3828.051	3062
3829.68	3091
3831.31	3053
3832.938	3044
3834.569	2977
3836.198	3021
3837.825	3092
3839.454	3066
3841.08	3033
3842.708	3046
3844.335	3098
3845.962	3063
3847.587	3007
3849.212	3051
3850.838	2943
3852.463	3055
3854.089	2999
3855.712	3075
3857.335	3011
3858.959	2967
3860.582	3007
3862.205	2994
3863.827	3009
3865.449	3014
3867.07	3050
3868.691	3013
3870.312	2946
3871.933	3027
3873.553	3024
3875.173	3010
3876.792	2924
3878.411	2970
3880.03	3004
3881.647	3009
3883.265	3054
3884.882	2943
3886.499	2968
3888.116	2972
3889.732	2929
3891.348	2957
3892.964	2916
3894.579	2914
3896.195	2969
3897.809	2920
3899.423	2971
3901.036	2945
3902.648	2873
3904.261	2991
3905.875	2929
3907.487	2953
3909.099	2930
3910.709	2899
3912.321	2986
3913.933	2959
3915.542	2970
3917.152	2889
3918.762	2919
3920.37	2898
3921.98	2919
3923.589	2846
3925.196	2996
3926.804	2834
3928.41	2893
3930.018	2923
3931.626	2873
3933.231	2880
3934.838	2910
3936.442	2940
3938.046	2905
3939.653	2911
3941.257	2869
3942.861	2894
3944.464	2871
3946.068	2879
3947.67	2882
3949.273	2920
3950.876	2889
3952.477	2889
3954.078	2931
3955.678	2865
3957.281	2853
3958.881	2872
3960.48	2909
3962.079	2826
3963.678	2853
3965.279	2790
3966.877	2841
3968.475	2938
3970.072	2793
3971.669	2873
3973.266	2822
3974.864	2865
3976.459	2869
3978.055	2764
3979.65	2906
3981.245	2824
3982.841	2826
3984.436	2790
3986.03	2834
3987.623	2791
3989.216	2821
3990.809	2811
3992.403	2788
3993.995	2843
3995.586	2798
3997.177	2708
3998.768	2827
4000.361	2764
4001.951	2775
4003.54	2771
4005.13	2773
4006.719	2823
4008.31	2699
4009.897	2736
4011.485	2731
4013.073	2737
4014.66	2766
4016.247	2792
4017.834	2706
4019.421	2708
4021.006	2730
4022.592	2714
4024.178	2673
4025.763	2768
4027.348	2725
4028.932	2731
4030.515	2824
4032.099	2628
4033.682	2718
4035.266	2692
4036.847	2692
4038.429	2666
4040.011	2715
4041.592	2641
4043.173	2737
4044.755	2696
4046.334	2693
4047.913	2665
4049.494	2748
4051.074	2698
4052.652	2728
4054.23	2637
4055.807	2671
4057.385	2607
4058.963	2716
4060.541	2736
4062.117	2718
4063.693	2685
4065.269	2634
4066.844	2723
4068.42	2700
4069.995	2654
4071.569	2650
4073.143	2689
4074.716	2640
4076.291	2651
4077.864	2627
4079.436	2658
4081.009	2623
4082.58	2658
4084.152	2594
4085.723	2647
4087.294	2659
4088.865	2560
4090.435	2610
4092.005	2626
4093.574	2621
4095.143	2611
4096.712	2609
4098.279	2621
4099.848	2630
4101.416	2623
4102.984	2572
4104.55	2588
4106.117	2597
4107.682	2524
4109.248	2611
4110.815	2582
4112.379	2569
4113.945	2600
4115.508	2605
4117.073	2583
4118.637	2599
4120.201	2596
4121.763	2537
4123.325	2538
4124.888	2594
4126.449	2595
4128.013	2537
4129.573	2569
4131.133	2571
4132.694	2548
4134.254	2541
4135.814	2506
4137.374	2492
4138.933	2531
4140.491	2513
4142.049	2556
4143.607	2508
4145.167	2507
4146.724	2458
4148.28	2545
4149.836	2530
4151.392	2503
4152.949	2507
4154.504	2453
4156.059	2445
4157.614	2466
4159.168	2469
4160.723	2478
4162.277	2405
4163.83	2461
4165.383	2445
4166.936	2457
4168.488	2450
4170.041	2427
4171.593	2486
4173.144	2452
4174.695	2441
4176.246	2481
4177.796	2455
4179.346	2480
4180.896	2445
4182.445	2437
4183.994	2471
4185.542	2414
4187.091	2432
4188.639	2463
4190.185	2439
4191.732	2443
4193.279	2418
4194.826	2438
4196.373	2443
4197.918	2364
4199.463	2445
4201.008	2461
4202.553	2481
4204.098	2402
4205.641	2446
4207.185	2400
4208.728	2393
4210.271	2367
4211.814	2433
4213.357	2357
4214.898	2411
4216.439	2387
4217.98	2374
4219.522	2405
4221.062	2366
4222.603	2366
4224.142	2374
4225.681	2327
4227.222	2371
4228.76	2360
4230.298	2390
4231.835	2387
4233.373	2359
4234.911	2424
4236.449	2331
4237.985	2426
4239.521	2358
4241.057	2313
4242.592	2338
4244.128	2371
4245.663	2341
4247.197	2328
4248.731	2308
4250.265	2380
4251.798	2315
4253.333	2312
4254.865	2301
4256.397	2298
4257.93	2322
4259.461	2237
4260.994	2369
4262.525	2349
4264.056	2339
4265.586	2260
4267.115	2293
4268.646	2327
4270.176	2376
4271.705	2371
4273.232	2336
4274.761	2312
4276.289	2290
4277.818	2327
4279.345	2361
4280.872	2315
4282.399	2270
4283.924	2277
4285.452	2282
4286.976	2328
4288.502	2303
4290.026	2283
4291.551	2255
4293.074	2279
4294.6	2305
4296.123	2335
4297.646	2361
4299.168	2306
4300.691	2266
4302.214	2296
4303.736	2262
4305.257	2271
4306.778	2193
4308.299	2272
4309.82	2251
4311.34	2237
4312.86	2247
4314.379	2243
