400.0745	4227
402.597	4231
405.1208	4186
407.6419	4342
410.1623	4393
412.6819	4293
415.201	4430
417.7172	4410
420.2369	4394
422.7538	4485
425.2701	4450
427.7856	4466
430.3005	4527
432.8147	4531
435.3282	4553
437.841	4561
440.3511	4617
442.8625	4592
445.3753	4497
447.8854	4548
450.3927	4531
452.9014	4584
455.4073	4556
457.9146	4499
460.4233	4512
462.9272	4513
465.4325	4531
467.935	4601
470.4389	4501
472.9421	4591
475.4446	4513
477.9444	4459
480.4456	4615
482.944	4520
485.4417	4574
487.9429	4574
490.4393	4665
492.935	4679
495.4321	4638
497.9264	4598
500.4221	4668
502.9171	4721
505.4094	4624
507.9011	4626
510.392	4658
512.8864	4593
515.3759	4717
517.8649	4687
520.3531	4758
522.8406	4699
525.3275	4667
527.8178	4711
530.3033	4735
532.7881	4724
535.2723	4713
537.7558	4703
540.2407	4706
542.7228	4683
545.2043	4682
547.6851	4710
550.1652	4796
552.6467	4704
555.1255	4771
557.6016	4684
560.079	4744
562.5557	4784
565.0318	4834
567.5092	4874
569.984	4868
572.456	4818
574.9294	4896
577.4022	4918
579.8762	4986
582.3456	4953
584.8163	4953
587.2863	4990
589.7557	4979
592.2224	4979
594.6924	4901
597.1578	4956
599.6245	5053
602.0905	4916
604.5538	4875
607.0206	4963
609.4825	4917
611.9459	4955
614.4066	4832
616.8686	4876
619.33	4863
621.7906	4903
624.2487	4819
626.708	4957
629.1647	4826
631.6207	4807
634.0801	4943
636.5348	4810
638.9888	4925
641.4442	4840
643.8969	4974
646.3509	4891
648.8022	4895
651.255	4789
653.705	4890
656.1544	4830
658.6031	5104
661.0532	4951
663.5026	5054
665.9493	4943
668.3954	5025
670.8409	4939
673.2877	5056
675.7318	4989
678.1752	5083
680.618	4889
683.0601	5001
685.5035	5016
687.9444	5023
690.3845	5049
692.824	5052
695.2628	5125
697.701	5144
700.1406	5112
702.5774	5126
705.0116	5216
707.4472	5118
709.8821	5099
712.3183	5242
714.7519	5126
717.1829	5155
719.6151	5163
722.0468	5124
724.4777	5295
726.908	5212
729.3377	5145
731.7667	5225
734.1931	5127
736.6208	5244
739.0498	5281
741.4742	5214
743.9	5309
746.3231	5316
748.7476	5329
751.1713	5333
753.5945	5393
756.015	5341
758.4368	5333
760.856	5245
763.2766	5389
765.6965	5383
768.1157	5406
770.5323	5436
772.9483	5385
775.3656	5465
777.7822	5486
780.1963	5374
782.6116	5409
785.0244	5386
787.4365	5479
789.8499	5369
792.2626	5393
794.6728	5482
797.0823	5483
799.4911	5366
801.8994	5395
804.3109	5340
806.7178	5313
809.124	5579
811.5297	5517
813.9347	5594
816.341	5516
818.7447	5532
821.1478	5463
823.5502	5533
825.952	5495
828.3531	5483
830.7556	5470
833.1554	5460
835.5546	5547
837.9532	5517
840.3511	5555
842.7504	5380
845.1451	5462
847.5411	5550
849.9365	5748
852.3312	5702
854.7272	5811
857.1187	5650
859.5115	5667
861.9037	5648
864.2952	5533
866.6842	5637
869.0764	5564
871.4661	5531
873.8531	5644
876.2415	5611
878.6272	5662
881.0162	5630
883.4026	5527
885.7866	5548
888.1717	5613
890.5543	5586
892.9382	5537
895.3215	5580
897.7041	5685
900.0842	5575
902.4655	5658
904.8443	5591
907.2244	5637
909.6039	5652
911.9808	5768
914.357	5734
916.7346	5861
919.1115	5837
921.4859	5896
923.8616	5964
926.2347	5930
928.6071	6017
930.979	5772
933.3541	5952
935.7247	5860
938.0946	5961
940.4639	6086
942.8326	6107
945.2026	6035
947.5701	6157
949.9369	6314
952.305	6622
954.6705	6705
957.0355	7054
959.4017	7098
961.7654	7273
964.1284	7331
966.4908	7076
968.8527	6827
971.2138	6479
973.5743	6414
975.9343	6187
978.2936	6134
980.6522	5866
983.0122	5876
985.3696	5798
987.7245	5822
990.0807	5815
992.4362	5793
994.7911	5867
997.1474	5692
999.4991	5799
1001.852	5915
1004.205	5884
1006.555	5838
1008.908	5886
1011.258	5823
1013.606	5933
1015.956	5774
1018.302	5824
1020.652	5801
1022.998	5798
1025.345	5841
1027.691	5935
1030.035	5983
1032.378	5802
1034.724	5959
1037.066	6014
1039.409	5927
1041.75	5936
1044.092	5949
1046.433	5963
1048.771	6103
1051.112	5905
1053.449	5933
1055.786	5990
1058.124	5919
1060.462	5954
1062.797	5970
1065.131	5953
1067.467	5986
1069.8	6182
1072.135	6006
1074.467	6061
1076.798	6056
1079.129	6045
1081.459	5957
1083.792	6018
1086.121	5947
1088.449	6033
1090.777	6052
1093.104	5895
1095.431	5954
1097.759	5812
1100.084	5994
1102.408	5993
1104.732	5928
1107.056	6069
1109.379	6084
1111.701	5927
1114.022	5961
1116.343	5875
1118.664	5968
1120.983	5903
1123.303	5897
1125.621	6011
1127.939	6011
1130.256	6041
1132.573	5902
1134.889	5912
1137.205	5912
1139.52	5939
1141.832	5878
1144.146	5884
1146.461	6055
1148.771	5920
1151.083	5983
1153.392	5994
1155.703	5863
1158.011	5967
1160.323	5884
1162.629	5907
1164.938	5982
1167.243	6037
1169.55	6028
1171.857	5888
1174.163	5934
1176.466	5950
1178.769	5930
1181.073	5917
1183.374	5858
1185.677	6013
1187.979	6001
1190.279	5848
1192.578	6034
1194.878	5952
1197.178	5938
1199.476	5863
1201.772	5943
1204.068	5951
1206.366	6098
1208.663	5944
1210.957	5949
1213.251	5967
1215.544	5906
1217.836	5974
1220.128	5995
1222.421	6062
1224.712	6082
1227.002	6034
1229.292	6091
1231.581	6108
1233.871	6155
1236.159	6112
1238.446	6250
1240.732	6207
1243.018	6232
1245.304	6251
1247.59	6156
1249.874	6414
1252.156	6143
1254.439	6245
1256.721	6305
1259.005	6243
1261.286	6307
1263.565	6209
1265.845	6287
1268.125	6166
1270.403	6179
1272.682	6316
1274.959	6353
1277.234	6134
1279.511	6199
1281.787	6224
1284.062	6178
1286.337	6207
1288.609	6104
1290.882	6026
1293.153	6066
1295.428	6033
1297.698	6128
1299.969	6195
1302.237	6124
1304.507	6003
1306.777	6077
1309.044	6215
1311.312	6091
1313.578	6147
1315.844	6088
1318.109	6123
1320.375	6148
1322.638	6147
1324.903	6060
1327.165	6118
1329.427	6081
1331.69	6184
1333.952	6129
1336.212	5946
1338.471	5997
1340.73	6099
1342.988	6206
1345.248	6091
1347.505	6010
1349.763	6080
1352.019	6154
1354.274	6100
1356.53	6114
1358.784	6055
1361.038	6057
1363.291	5936
1365.543	6014
1367.797	6068
1370.048	6135
1372.296	6152
1374.546	6079
1376.796	6063
1379.045	6092
1381.295	6181
1383.542	6133
1385.787	6092
1388.034	6218
1390.28	6150
1392.527	6236
1394.772	6253
1397.014	6302
1399.258	6214
1401.501	6352
1403.741	6274
1405.985	6255
1408.226	6176
1410.465	6306
1412.705	6212
1414.943	6268
1417.184	6378
1419.42	6219
1421.658	6212
1423.894	6339
1426.13	6325
1428.366	6310
1430.602	6301
1432.835	6279
1435.069	6389
1437.301	6368
1439.535	6459
1441.767	6416
1443.997	6403
1446.229	6477
1448.458	6383
1450.687	6431
1452.916	6423
1455.146	6512
1457.372	6392
1459.599	6543
1461.824	6433
1464.051	6511
1466.277	6454
1468.501	6459
1470.725	6366
1472.948	6281
1475.17	6350
1477.393	6208
1479.614	6288
1481.837	6267
1484.057	6148
1486.276	6115
1488.497	6166
1490.715	6172
1492.932	6117
1495.148	6043
1497.364	5990
1499.58	6006
1501.798	6075
1504.012	6043
1506.227	6014
1508.44	6128
1510.653	6066
1512.866	6019
1515.078	6071
1517.289	6162
1519.5	6039
1521.711	6041
1523.92	6090
1526.13	6099
1528.338	6038
1530.544	5965
1532.752	6032
1534.959	6034
1537.165	6018
1539.371	5987
1541.574	6046
1543.779	6063
1545.983	6154
1548.187	6183
1550.39	6179
1552.59	6082
1554.792	6211
1556.991	6072
1559.19	6171
1561.392	6192
1563.59	6233
1565.789	6229
1567.986	6168
1570.182	6228
1572.381	6203
1574.576	6325
1576.771	6174
1578.966	6233
1581.16	6177
1583.354	6203
1585.546	6282
1587.74	6256
1589.931	6194
1592.121	6336
1594.311	6221
1596.502	6096
1598.693	6322
1600.881	6294
1603.069	6255
1605.256	6342
1607.445	6287
1609.631	6260
1611.816	6297
1614.001	6319
1616.186	6322
1618.37	6264
1620.555	6330
1622.737	6285
1624.919	6261
1627.101	6280
1629.282	6392
1631.463	6467
1633.643	6333
1635.822	6431
1638.001	6420
1640.179	6283
1642.359	6427
1644.534	6457
1646.711	6372
1648.887	6411
1651.062	6404
1653.235	6367
1655.412	6345
1657.586	6521
1659.757	6487
1661.93	6439
1664.1	6423
1666.274	6586
1668.445	6465
1670.614	6458
1672.784	6446
1674.951	6498
1677.12	6540
1679.289	6472
1681.457	6338
1683.622	6460
1685.789	6427
1687.953	6398
1690.121	6439
1692.284	6361
1694.447	6331
1696.611	6410
1698.772	6375
1700.935	6272
1703.098	6276
1705.258	6209
1707.417	6227
1709.576	6292
1711.736	6213
1713.896	6233
1716.053	6325
1718.21	6179
1720.366	6239
1722.522	6188
1724.68	6250
1726.835	6188
1728.989	6130
1731.142	6191
1733.295	6149
1735.449	6208
1737.601	6199
1739.753	6281
1741.903	6217
1744.054	6313
1746.203	6213
1748.354	6246
1750.503	6229
1752.651	6170
1754.798	6203
1756.944	6295
1759.092	6300
1761.238	6190
1763.383	6376
1765.528	6307
1767.672	6210
1769.814	6183
1771.959	6277
1774.102	6236
1776.242	6335
1778.384	6340
1780.525	6361
1782.665	6253
1784.805	6341
1786.945	6300
1789.082	6335
1791.22	6164
1793.36	6154
1795.495	6346
1797.632	6339
1799.766	6179
1801.902	6369
1804.035	6369
1806.172	6288
1808.304	6366
1810.436	6221
1812.569	6198
1814.699	6305
1816.833	6292
1818.963	6293
1821.092	6333
1823.222	6245
1825.35	6121
1827.478	6227
1829.608	6241
1831.734	6164
1833.86	6250
1835.986	6272
1838.11	6290
1840.238	6244
1842.362	6104
1844.485	6238
1846.608	6178
1848.73	6214
1850.853	6089
1852.974	6198
1855.097	6102
1857.217	6173
1859.336	6208
1861.455	6167
1863.576	6248
1865.693	6189
1867.811	6226
1869.926	6153
1872.042	6195
1874.16	6146
1876.275	6230
1878.39	6234
1880.504	6138
1882.618	6247
1884.731	6232
1886.843	6265
1888.956	6251
1891.067	6243
1893.178	6236
1895.287	6249
1897.399	6201
1899.508	6379
1901.617	6216
1903.724	6219
1905.832	6343
1907.941	6225
1910.046	6355
1912.152	6220
1914.256	6262
1916.361	6250
1918.464	6190
1920.57	6257
1922.672	6290
1924.775	6249
1926.876	6190
1928.978	6413
1931.08	6326
1933.181	6230
1935.28	6292
1937.38	6297
1939.478	6232
1941.577	6233
1943.675	6321
1945.771	6219
1947.867	6353
1949.964	6376
1952.058	6262
1954.154	6214
1956.248	6263
1958.343	6268
1960.435	6337
1962.527	6266
1964.62	6159
1966.711	6253
1968.802	6297
1970.892	6359
1972.983	6273
1975.072	6375
1977.162	6248
1979.25	6325
1981.337	6290
1983.424	6323
1985.51	6176
1987.598	6307
1989.683	6260
1991.768	6252
1993.852	6208
1995.934	6227
1998.019	6285
2000.102	6164
2002.184	6256
2004.266	6226
2006.347	6327
2008.427	6142
2010.508	6149
2012.587	6111
2014.666	6195
2016.745	6111
2018.821	6253
2020.9	6176
2022.977	6083
2025.052	6220
2027.128	6180
2029.204	6218
2031.277	6225
2033.353	6118
2035.425	6228
2037.499	6129
2039.57	6031
2041.642	6274
2043.714	6265
2045.786	6114
2047.855	6264
2049.925	6174
2051.993	6209
2054.064	6229
2056.132	6119
2058.2	6183
2060.266	6158
2062.332	6226
2064.398	6290
2066.465	6239
2068.529	6181
2070.592	6201
2072.657	6248
2074.719	6188
2076.783	6153
2078.845	6149
2080.907	6248
2082.968	6139
2085.028	6242
2087.087	6158
2089.148	6311
2091.207	6201
2093.264	6260
2095.322	6271
2097.379	6221
2099.439	6250
2101.495	6231
2103.55	6216
2105.605	6240
2107.658	6227
2109.713	6241
2111.767	6182
2113.82	6234
2115.872	6101
2117.924	6251
2119.975	6164
2122.028	6185
2124.078	6208
2126.126	6040
2128.176	6237
2130.225	6245
2132.275	6207
2134.321	6199
2136.368	6245
2138.415	6228
2140.461	6087
2142.505	6226
2144.552	6215
2146.597	6101
2148.64	6087
2150.684	6087
2152.725	6224
2154.77	6216
2156.811	6128
2158.852	6118
2160.894	6088
2162.933	6157
2164.973	6100
2167.013	6051
2169.051	6030
2171.089	6255
2173.126	6196
2175.164	6163
2177.201	6089
2179.236	6118
2181.273	6051
2183.307	6133
2185.341	6154
2187.377	5988
2189.41	6088
2191.442	6136
2193.473	6068
2195.506	5995
2197.539	6099
2199.569	6078
2201.598	6036
2203.628	5946
2205.656	6083
2207.686	6014
2209.716	6106
2211.743	6063
2213.769	5976
2215.796	6027
2217.821	6000
2219.848	6049
2221.873	6041
2223.897	5923
2225.921	5923
2227.944	6091
2229.967	6139
2231.991	6180
2234.011	5998
2236.032	6009
2238.053	6004
2240.073	6021
2242.094	6095
2244.114	6067
2246.131	6090
2248.149	6020
2250.167	5977
2252.186	6056
2254.201	6062
2256.218	5988
2258.233	5945
2260.247	5992
2262.262	6068
2264.278	6014
2266.29	6072
2268.303	5954
2270.315	5987
2272.327	5945
2274.341	6081
2276.35	5988
2278.361	5927
2280.37	6029
2282.38	6024
2284.388	6047
2286.397	5989
2288.405	6000
2290.412	5989
2292.419	5963
2294.425	5987
2296.431	6015
2298.437	6002
2300.441	6017
2302.445	6059
2304.449	6039
2306.453	5937
2308.455	6067
2310.457	5979
2312.459	6044
2314.46	5957
2316.46	5975
2318.461	6058
2320.46	5946
2322.458	5976
2324.458	6105
2326.456	5951
2328.455	5928
2330.451	5955
2332.447	5870
2334.443	5924
2336.438	5788
2338.433	5872
2340.429	5904
2342.422	5889
2344.416	5942
2346.408	5963
2348.399	5848
2350.393	5878
2352.384	5873
2354.375	5850
2356.365	5859
2358.355	5854
2360.344	5989
2362.333	5898
2364.322	5781
2366.309	5882
2368.295	5869
2370.282	5818
2372.27	5842
2374.256	5814
2376.24	5888
2378.225	5843
2380.208	5805
2382.194	5967
2384.177	5833
2386.159	5809
2388.142	5822
2390.122	5826
2392.105	5876
2394.085	5718
2396.066	5763
2398.044	5709
2400.024	5862
2402.002	5826
2403.982	5825
2405.959	5793
2407.935	5932
2409.913	5752
2411.888	5754
2413.865	5821
2415.84	5836
2417.814	5733
2419.788	5780
2421.762	5820
2423.735	5849
2425.708	5725
2427.68	5719
2429.651	5878
2431.623	5800
2433.593	5809
2435.564	5824
2437.533	5796
2439.502	5835
2441.47	5862
2443.438	5800
2445.406	5732
2447.373	5733
2449.34	5773
2451.305	5761
2453.271	5781
2455.235	5653
2457.201	5805
2459.165	5857
2461.129	5682
2463.092	5778
2465.054	5741
2467.018	5743
2468.978	5823
2470.939	5719
2472.899	5670
2474.86	5627
2476.819	5690
2478.778	5797
2480.737	5779
2482.695	5695
2484.653	5652
2486.609	5593
2488.567	5711
2490.524	5746
2492.478	5713
2494.433	5718
2496.387	5736
2498.343	5708
2500.297	5566
2502.249	5696
2504.202	5675
2506.153	5709
2508.105	5622
2510.057	5685
2512.008	5680
2513.957	5686
2515.906	5634
2517.855	5715
2519.805	5673
2521.754	5577
2523.7	5722
2525.647	5625
2527.594	5579
2529.54	5658
2531.486	5641
2533.431	5630
2535.376	5691
2537.32	5644
2539.263	5635
2541.207	5638
2543.151	5647
2545.093	5575
2547.034	5793
2548.975	5769
2550.917	5770
2552.856	5566
2554.796	5576
2556.735	5668
2558.673	5510
2560.611	5633
2562.55	5774
2564.487	5560
2566.424	5585
2568.36	5571
2570.296	5654
2572.232	5703
2574.167	5662
2576.101	5553
2578.035	5551
2579.969	5551
2581.902	5598
2583.834	5708
2585.766	5637
2587.698	5706
2589.628	5744
2591.557	5604
2593.489	5651
2595.419	5778
2597.348	5605
2599.275	5727
2601.204	5636
2603.131	5647
2605.059	5721
2606.986	5688
2608.911	5762
2610.837	5664
2612.76	5671
2614.687	5790
2616.61	5664
2618.534	5620
2620.457	5783
2622.38	5673
2624.302	5736
2626.225	5705
2628.145	5740
2630.067	5609
2631.986	5679
2633.906	5731
2635.827	5694
2637.745	5613
2639.662	5698
2641.581	5730
2643.498	5675
2645.415	5686
2647.331	5699
2649.248	5554
2651.163	5641
2653.077	5673
2654.993	5682
2656.906	5718
2658.821	5650
2660.733	5628
2662.646	5658
2664.557	5620
2666.47	5656
2668.381	5619
2670.291	5570
2672.201	5697
2674.11	5587
2676.021	5649
2677.929	5571
2679.837	5635
2681.745	5688
2683.652	5573
2685.56	5626
2687.466	5506
2689.371	5566
2691.276	5639
2693.181	5559
2695.085	5568
2696.991	5546
2698.893	5602
2700.796	5660
2702.698	5650
2704.601	5571
2706.502	5605
2708.404	5577
2710.304	5565
2712.203	5604
2714.103	5551
2716.003	5593
2717.902	5616
2719.8	5587
2721.697	5544
2723.594	5490
2725.49	5542
2727.389	5540
2729.283	5605
2731.179	5534
2733.073	5497
2734.968	5640
2736.863	5537
2738.757	5573
2740.649	5550
2742.541	5590
2744.433	5608
2746.324	5535
2748.216	5581
2750.107	5535
2751.997	5489
2753.886	5568
2755.776	5476
2757.666	5512
2759.553	5550
2761.44	5589
2763.327	5577
2765.215	5438
2767.102	5521
2768.988	5566
2770.873	5497
2772.757	5557
2774.641	5471
2776.525	5545
2778.41	5496
2780.292	5506
2782.175	5485
2784.057	5416
2785.938	5433
2787.821	5496
2789.701	5582
2791.581	5401
2793.461	5448
2795.34	5523
2797.219	5448
2799.099	5485
2800.975	5487
2802.853	5479
2804.73	5483
2806.606	5475
2808.484	5504
2810.358	5533
2812.233	5570
2814.108	5419
2815.981	5561
2817.857	5468
2819.73	5401
2821.602	5424
2823.474	5518
2825.346	5402
2827.217	5554
2829.089	5524
2830.959	5418
2832.829	5386
2834.698	5409
2836.567	5475
2838.436	5490
2840.305	5416
2842.172	5514
2844.04	5454
2845.905	5425
2847.772	5524
2849.639	5513
2851.503	5571
2853.369	5665
2855.232	5631
2857.096	5569
2858.961	5631
2860.824	5567
2862.686	5685
2864.547	5631
2866.41	5766
2868.272	5708
2870.132	5852
2871.992	5817
2873.851	5881
2875.711	5899
2877.57	5959
2879.429	6004
2881.287	5970
2883.144	6078
2885.001	6175
2886.857	6154
2888.714	6065
2890.57	6171
2892.425	6083
2894.279	6088
2896.133	6074
2897.987	6033
2899.842	6078
2901.694	6009
2903.547	6059
2905.397	6044
2907.249	6123
2909.101	6034
2910.952	6142
2912.802	6190
2914.652	6148
2916.5	6193
2918.35	6295
2920.198	6308
2922.045	6310
2923.893	6427
2925.74	6457
2927.585	6508
2929.433	6503
2931.279	6595
2933.123	6636
2934.968	6708
2936.811	6831
2938.656	6862
2940.5	6874
2942.342	6979
2944.185	7026
2946.026	7089
2947.87	7062
2949.71	6990
2951.549	7018
2953.39	6996
2955.229	6779
2957.069	6876
2958.908	6793
2960.746	6819
2962.584	6680
2964.421	6577
2966.257	6540
2968.094	6450
2969.931	6312
2971.766	6436
2973.601	6373
2975.435	6248
2977.27	6230
2979.105	6153
2980.938	6233
2982.77	6110
2984.602	6114
2986.434	6078
2988.267	6155
2990.097	5963
2991.927	5979
2993.757	6029
2995.587	5924
2997.417	5877
2999.246	5806
3001.074	5784
3002.902	5666
3004.729	5685
3006.556	5680
3008.384	5620
3010.21	5622
3012.036	5527
3013.861	5475
3015.684	5313
3017.51	5456
3019.334	5302
3021.157	5372
3022.981	5399
3024.802	5306
3026.624	5270
3028.448	5296
3030.267	5301
3032.088	5253
3033.909	5243
3035.728	5212
3037.549	5170
3039.368	5161
3041.186	5182
3043.004	5228
3044.821	5197
3046.64	5114
3048.455	5231
3050.272	5163
3052.087	5163
3053.903	5169
3055.717	5082
3057.534	5124
3059.347	5108
3061.16	5102
3062.974	5155
3064.785	5154
3066.598	5143
3068.411	5226
3070.222	5124
3072.032	5027
3073.844	5083
3075.653	5162
3077.463	5086
3079.272	5154
3081.08	5039
3082.889	5061
3084.697	5100
3086.505	5058
3088.312	5029
3090.118	4984
3091.924	5108
3093.729	5114
3095.535	4955
3097.34	4971
3099.144	5059
3100.947	4963
3102.75	4987
3104.553	5005
3106.357	5048
3108.159	4911
3109.961	4951
3111.762	4979
3113.562	4975
3115.365	4944
3117.164	4964
3118.964	4982
3120.761	4973
3122.56	4915
3124.36	5055
3126.158	5018
3127.954	4861
3129.75	5018
3131.547	4893
3133.343	4845
3135.139	5059
3136.934	4934
3138.729	4856
3140.522	4901
3142.317	4870
3144.11	4832
3145.904	4857
3147.695	4910
3149.488	4910
3151.28	4989
3153.07	4839
3154.863	4932
3156.652	4945
3158.441	4787
3160.231	4845
3162.019	4875
3163.81	4823
3165.597	4765
3167.384	4930
3169.172	4794
3170.958	4745
3172.745	4795
3174.532	4811
3176.317	4800
3178.101	4874
3179.885	4881
3181.67	4884
3183.455	4907
3185.238	4815
3187.02	4767
3188.802	4747
3190.585	4928
3192.368	4824
3194.149	4774
3195.929	4867
3197.709	4816
3199.489	4799
3201.268	4718
3203.048	4878
3204.826	4845
3206.604	4835
3208.382	4785
3210.159	4738
3211.937	4778
3213.713	4788
3215.489	4817
3217.263	4687
3219.038	4806
3220.815	4814
3222.589	4764
3224.363	4754
3226.136	4691
3227.908	4740
3229.681	4897
3231.454	4767
3233.226	4763
3234.996	4806
3236.767	4781
3238.538	4779
3240.308	4784
3242.078	4841
3243.847	4760
3245.615	4732
3247.384	4914
3249.15	4720
3250.92	4813
3252.686	4671
3254.453	4821
3256.218	4729
3257.984	4772
3259.75	4830
3261.515	4743
3263.279	4790
3265.044	4813
3266.806	4785
3268.57	4759
3270.334	4751
3272.095	4795
3273.856	4843
3275.619	4872
3277.379	4761
3279.14	4816
3280.9	4843
3282.661	4724
3284.419	4796
3286.178	4787
3287.937	4809
3289.695	4776
3291.453	4899
3293.21	4790
3294.967	4827
3296.723	4733
3298.48	4782
3300.235	4819
3301.99	4753
3303.744	4762
3305.498	4822
3307.253	4805
3309.006	4796
3310.759	4711
3312.511	4765
3314.263	4823
3316.017	4730
3317.768	4767
3319.519	4609
3321.268	4745
3323.018	4764
3324.767	4827
3326.518	4893
3328.267	4771
3330.014	4832
3331.762	4696
3333.509	4710
3335.258	4652
3337.003	4721
3338.75	4695
3340.496	4746
3342.24	4699
3343.987	4735
3345.732	4787
3347.475	4723
3349.219	4708
3350.961	4669
3352.705	4822
3354.448	4638
3356.19	4768
3357.931	4666
3359.672	4658
3361.412	4629
3363.155	4664
3364.894	4752
3366.633	4746
3368.372	4714
3370.11	4711
3371.849	4636
3373.588	4708
3375.325	4579
3377.061	4643
3378.799	4647
3380.534	4657
3382.271	4667
3384.006	4695
3385.741	4586
3387.475	4664
3389.209	4522
3390.944	4550
3392.677	4684
3394.409	4642
3396.143	4622
3397.874	4560
3399.606	4570
3401.338	4616
3403.069	4574
3404.799	4639
3406.528	4579
3408.258	4536
3409.988	4556
3411.717	4510
3413.445	4599
3415.173	4596
3416.899	4554
3418.626	4558
3420.354	4553
3422.08	4533
3423.806	4604
3425.531	4566
3427.255	4497
3428.981	4500
3430.705	4440
3432.429	4478
3434.151	4462
3435.875	4446
3437.599	4542
3439.321	4572
3441.042	4512
3442.763	4472
3444.483	4432
3446.204	4462
3447.926	4502
3449.645	4353
3451.364	4480
3453.082	4473
3454.801	4435
3456.52	4507
3458.238	4412
3459.954	4379
3461.671	4469
3463.387	4460
3465.104	4435
3466.82	4351
3468.534	4380
3470.25	4389
3471.963	4370
3473.676	4261
3475.392	4333
3477.104	4378
3478.817	4323
3480.528	4333
3482.241	4472
3483.954	4341
3485.664	4467
3487.374	4240
3489.084	4367
3490.795	4283
3492.504	4295
3494.214	4197
3495.922	4355
3497.63	4322
3499.338	4334
3501.045	4305
3502.753	4245
3504.459	4273
3506.166	4343
3507.871	4290
3509.576	4276
3511.283	4227
3512.987	4336
3514.691	4287
3516.395	4259
3518.098	4286
3519.8	4218
3521.504	4188
3523.206	4237
3524.908	4147
3526.609	4178
3528.309	4195
3530.011	4182
3531.711	4235
3533.411	4264
3535.109	4223
3536.808	4142
3538.507	4258
3540.206	4213
3541.904	4143
3543.601	4138
3545.297	4190
3546.994	4103
3548.69	4142
3550.387	4123
3552.081	4229
3553.776	4176
3555.47	4167
3557.166	4133
3558.859	4207
3560.553	4154
3562.245	4105
3563.938	4155
3565.629	4197
3567.322	4108
3569.014	4065
3570.704	4067
3572.394	4105
3574.084	4169
3575.775	3949
3577.464	4121
3579.152	4087
3580.842	4061
3582.529	4122
3584.216	4147
3585.905	4061
3587.591	4099
3589.279	4071
3590.964	3993
3592.649	4078
3594.336	4024
3596.021	4121
3597.705	3993
3599.388	4128
3601.072	4006
3602.757	4069
3604.439	3981
3606.122	3973
3607.803	3948
3609.485	4041
3611.167	3890
3612.849	3946
3614.529	3949
3616.208	3984
3617.888	3936
3619.567	3866
3621.247	3975
3622.926	3946
3624.603	3856
3626.281	3882
3627.958	3948
3629.635	3913
3631.312	3939
3632.989	3879
3634.665	3828
3636.339	3792
3638.014	3840
3639.691	3844
3641.364	3865
3643.038	3887
3644.71	3855
3646.384	3910
3648.058	3786
3649.729	3862
3651.402	3802
3653.073	3835
3654.744	3793
3656.414	3843
3658.085	3765
3659.755	3802
3661.424	3780
3663.094	3770
3664.762	3788
3666.431	3826
3668.099	3788
3669.766	3745
3671.433	3755
3673.099	3773
3674.768	3732
3676.433	3744
3678.098	3768
3679.763	3831
3681.428	3813
3683.093	3775
3684.757	3753
3686.421	3709
3688.083	3749
3689.746	3761
3691.408	3743
3693.071	3728
3694.733	3741
3696.394	3733
3698.054	3815
3699.715	3796
3701.375	3712
3703.036	3736
3704.695	3677
3706.354	3664
3708.012	3712
3709.67	3689
3711.329	3708
3712.987	3702
3714.644	3726
3716.299	3702
3717.955	3686
3719.613	3640
3721.268	3690
3722.923	3686
3724.577	3598
3726.231	3640
3727.885	3682
3729.539	3624
3731.192	3704
3732.845	3700
3734.497	3707
3736.149	3663
3737.802	3641
3739.453	3677
3741.104	3680
3742.753	3665
3744.404	3638
3746.052	3654
3747.704	3645
3749.352	3593
3751	3691
3752.648	3649
3754.296	3661
3755.944	3559
3757.59	3654
3759.238	3521
3760.883	3638
3762.528	3616
3764.176	3634
3765.82	3544
3767.464	3624
3769.109	3523
3770.753	3637
3772.396	3611
3774.04	3592
3775.683	3591
3777.325	3547
3778.967	3609
3780.608	3534
3782.25	3538
3783.89	3593
3785.531	3520
3787.17	3564
3788.81	3511
3790.45	3565
3792.09	3593
3793.729	3504
3795.366	3572
3797.003	3537
3798.64	3545
3800.278	3578
3801.915	3508
3803.551	3565
3805.187	3494
3806.822	3593
3808.458	3498
3810.093	3504
3811.726	3532
3813.36	3542
3814.994	3521
3816.627	3506
3818.262	3440
3819.893	3483
3821.525	3511
3823.157	3490
3824.787	3503
3826.42	3423
3828.051	3484
3829.68	3402
3831.31	3536
3832.938	3492
3834.569	3521
3836.198	3434
3837.825	3474
3839.454	3437
3841.08	3522
3842.708	3394
3844.335	3424
3845.962	3404
3847.587	3519
3849.212	3413
3850.838	3451
3852.463	3492
3854.089	3386
3855.712	3388
3857.335	3416
3858.959	3498
3860.582	3358
3862.205	3490
3863.827	3383
3865.449	3472
3867.07	3358
3868.691	3423
3870.312	3350
3871.933	3339
3873.553	3432
3875.173	3361
3876.792	3365
3878.411	3348
3880.03	3349
3881.647	3408
3883.265	3369
3884.882	3314
3886.499	3378
3888.116	3354
3889.732	3324
3891.348	3326
3892.964	3451
3894.579	3291
3896.195	3396
3897.809	3319
3899.423	3440
3901.036	3375
3902.648	3307
3904.261	3340
3905.875	3378
3907.487	3354
3909.099	3356
3910.709	3348
3912.321	3314
3913.933	3330
3915.542	3332
3917.152	3432
3918.762	3283
3920.37	3369
3921.98	3227
3923.589	3369
3925.196	3326
3926.804	3361
3928.41	3340
3930.018	3332
3931.626	3263
3933.231	3347
3934.838	3276
3936.442	3262
3938.046	3379
3939.653	3291
3941.257	3317
3942.861	3313
3944.464	3333
3946.068	3324
3947.67	3305
3949.273	3309
3950.876	3272
3952.477	3340
3954.078	3309
3955.678	3294
3957.281	3309
3958.881	3284
3960.48	3267
3962.079	3326
3963.678	3317
3965.279	3162
3966.877	3327
3968.475	3285
3970.072	3262
3971.669	3291
3973.266	3345
3974.864	3204
3976.459	3220
3978.055	3253
3979.65	3298
3981.245	3222
3982.841	3256
3984.436	3176
3986.03	3254
3987.623	3293
3989.216	3175
3990.809	3223
3992.403	3156
3993.995	3132
3995.586	3153
3997.177	3201
3998.768	3202
4000.361	3183
4001.951	3166
4003.54	3126
4005.13	3211
4006.719	3279
4008.31	3156
4009.897	3133
4011.485	3202
4013.073	3221
4014.66	3128
4016.247	3238
4017.834	3169
4019.421	3174
4021.006	3114
4022.592	3100
4024.178	3126
4025.763	3176
4027.348	3054
4028.932	3132
4030.515	3131
4032.099	3047
4033.682	3115
4035.266	3096
4036.847	3086
4038.429	3130
4040.011	3097
4041.592	3114
4043.173	3152
4044.755	3152
4046.334	3023
4047.913	3048
4049.494	3047
4051.074	3106
4052.652	3054
4054.23	3038
4055.807	3081
4057.385	2978
4058.963	3042
4060.541	3103
4062.117	3081
4063.693	3027
4065.269	3030
4066.844	3086
4068.42	2977
4069.995	3107
4071.569	3047
4073.143	3062
4074.716	3027
4076.291	2930
4077.864	2994
4079.436	3044
4081.009	2990
4082.58	2992
4084.152	3080
4085.723	2911
4087.294	3025
4088.865	2998
4090.435	3057
4092.005	2968
4093.574	3018
4095.143	3032
4096.712	3002
4098.279	3030
4099.848	3024
4101.416	3025
4102.984	3018
4104.55	2952
4106.117	3049
4107.682	3031
4109.248	2895
4110.815	2971
4112.379	2915
4113.945	3002
4115.508	2953
4117.073	3034
4118.637	2964
4120.201	3026
4121.763	3006
4123.325	2933
4124.888	2954
4126.449	2903
4128.013	2992
4129.573	2959
4131.133	2970
4132.694	2956
4134.254	2971
4135.814	2937
4137.374	2947
4138.933	2920
4140.491	3009
4142.049	2930
4143.607	2947
4145.167	2904
4146.724	2926
4148.28	2865
4149.836	2843
4151.392	2837
4152.949	2849
4154.504	2928
4156.059	2921
4157.614	2954
4159.168	2935
4160.723	2873
4162.277	2906
4163.83	2834
4165.383	2851
4166.936	2829
4168.488	2834
4170.041	2877
4171.593	2846
4173.144	2810
4174.695	2948
4176.246	2902
4177.796	2940
4179.346	2841
4180.896	2841
4182.445	2850
4183.994	2850
4185.542	2823
4187.091	2854
4188.639	2784
4190.185	2923
4191.732	2833
4193.279	2830
4194.826	2804
4196.373	2816
4197.918	2819
4199.463	2813
4201.008	2907
4202.553	2766
4204.098	2853
4205.641	2764
4207.185	2791
4208.728	2755
4210.271	2758
4211.814	2763
4213.357	2793
4214.898	2792
4216.439	2806
4217.98	2841
4219.522	2737
4221.062	2835
4222.603	2725
4224.142	2772
4225.681	2750
4227.222	2780
4228.76	2809
4230.298	2799
4231.835	2733
4233.373	2739
4234.911	2789
4236.449	2709
4237.985	2737
4239.521	2723
4241.057	2742
4242.592	2773
4244.128	2699
4245.663	2712
4247.197	2661
4248.731	2748
4250.265	2753
4251.798	2758
4253.333	2723
4254.865	2704
4256.397	2740
4257.93	2776
4259.461	2700
4260.994	2797
4262.525	2725
4264.056	2702
4265.586	2710
4267.115	2761
4268.646	2713
4270.176	2658
4271.705	2730
4273.232	2676
4274.761	2744
4276.289	2726
4277.818	2763
4279.345	2654
4280.872	2679
4282.399	2658
4283.924	2680
4285.452	2683
4286.976	2678
4288.502	2677
4290.026	2740
4291.551	2691
4293.074	2801
4294.6	2663
4296.123	2733
4297.646	2686
4299.168	2671
4300.691	2646
4302.214	2657
4303.736	2647
4305.257	2673
4306.778	2648
4308.299	2728
4309.82	2673
4311.34	2656
4312.86	2643
4314.379	2683
