400.0745	5016
402.597	4916
405.1208	4928
407.6419	5037
410.1623	5056
412.6819	5092
415.201	5069
417.7172	5117
420.2369	5019
422.7538	5202
425.2701	5217
427.7856	5186
430.3005	5230
432.8147	5243
435.3282	5328
437.841	5316
440.3511	5362
442.8625	5301
445.3753	5381
447.8854	5429
450.3927	5337
452.9014	5363
455.4073	5395
457.9146	5404
460.4233	5368
462.9272	5343
465.4325	5438
467.935	5326
470.4389	5353
472.9421	5426
475.4446	5413
477.9444	5474
480.4456	5447
482.944	5454
485.4417	5447
487.9429	5456
490.4393	5431
492.935	5461
495.4321	5610
497.9264	5458
500.4221	5597
502.9171	5540
505.4094	5541
507.9011	5543
510.392	5518
512.8864	5582
515.3759	5612
517.8649	5642
520.3531	5527
522.8406	5507
525.3275	5634
527.8178	5594
530.3033	5575
532.7881	5499
535.2723	5636
537.7558	5712
540.2407	5682
542.7228	5617
545.2043	5624
547.6851	5574
550.1652	5756
552.6467	5592
555.1255	5696
557.6016	5651
560.079	5659
562.5557	5739
565.0318	5670
567.5092	5753
569.984	5735
572.456	5725
574.9294	5641
577.4022	5866
579.8762	5792
582.3456	5764
584.8163	5743
587.2863	5762
589.7557	5858
592.2224	5960
594.6924	5830
597.1578	5769
599.6245	5793
602.0905	5863
604.5538	5900
607.0206	5896
609.4825	5767
611.9459	5758
614.4066	5803
616.8686	5890
619.33	5826
621.7906	5913
624.2487	5833
626.708	5879
629.1647	5727
631.6207	5757
634.0801	5832
636.5348	5796
638.9888	5841
641.4442	5855
643.8969	5883
646.3509	5741
648.8022	5945
651.255	5932
653.705	5929
656.1544	5974
658.6031	5900
661.0532	6005
663.5026	5943
665.9493	5969
668.3954	6013
670.8409	6027
673.2877	5971
675.7318	6010
678.1752	6030
680.618	5984
683.0601	6101
685.5035	6162
687.9444	6012
690.3845	6115
692.824	6129
695.2628	5985
697.701	5950
700.1406	6053
702.5774	6195
705.0116	6155
707.4472	6190
709.8821	6186
712.3183	6195
714.7519	6094
717.1829	6032
719.6151	6331
722.0468	6149
724.4777	6250
726.908	6284
729.3377	6279
731.7667	6216
734.1931	6271
736.6208	6244
739.0498	6290
741.4742	6251
743.9	6308
746.3231	6364
748.7476	6291
751.1713	6302
753.5945	6355
756.015	6487
758.4368	6456
760.856	6364
763.2766	6456
765.6965	6417
768.1157	6476
770.5323	6462
772.9483	6554
775.3656	6478
777.7822	6537
780.1963	6473
782.6116	6620
785.0244	6439
787.4365	6419
789.8499	6437
792.2626	6397
794.6728	6382
797.0823	6477
799.4911	6527
801.8994	6510
804.3109	6636
806.7178	6605
809.124	6581
811.5297	6613
813.9347	6583
816.341	6604
818.7447	6627
821.1478	6522
823.5502	6574
825.952	6644
828.3531	6470
830.7556	6573
833.1554	6522
835.5546	6562
837.9532	6656
840.3511	6662
842.7504	6651
845.1451	6698
847.5411	6684
849.9365	6681
852.3312	6781
854.7272	6699
857.1187	6652
859.5115	6796
861.9037	6672
864.2952	6706
866.6842	6631
869.0764	6767
871.4661	6692
873.8531	6703
876.2415	6728
878.6272	6799
881.0162	6661
883.4026	6595
885.7866	6762
888.1717	6726
890.5543	6684
892.9382	6574
895.3215	6698
897.7041	6621
900.0842	6587
902.4655	6585
904.8443	6667
907.2244	6791
909.6039	6705
911.9808	6775
914.357	6766
916.7346	6881
919.1115	6833
921.4859	6913
923.8616	6934
926.2347	7092
928.6071	6783
930.979	6921
933.3541	6930
935.7247	7020
938.0946	6973
940.4639	7008
942.8326	7016
945.2026	7119
947.5701	7104
949.9369	7378
952.305	7448
954.6705	7489
957.0355	7648
959.4017	7806
961.7654	7944
964.1284	7803
966.4908	7564
968.8527	7507
971.2138	7307
973.5743	7211
975.9343	7063
978.2936	7059
980.6522	6993
983.0122	6980
985.3696	7050
987.7245	7003
990.0807	6937
992.4362	6915
994.7911	6889
997.1474	6899
999.4991	6986
1001.852	6941
1004.205	6909
1006.555	6941
1008.908	7083
1011.258	7093
1013.606	7027
1015.956	6991
1018.302	7016
1020.652	6885
1022.998	6986
1025.345	7038
1027.691	6869
1030.035	7047
1032.378	6947
1034.724	6955
1037.066	6990
1039.409	7045
1041.75	6949
1044.092	6998
1046.433	7110
1048.771	6983
1051.112	7059
1053.449	7102
1055.786	7018
1058.124	7065
1060.462	7109
1062.797	7081
1065.131	7075
1067.467	7101
1069.8	7110
1072.135	7054
1074.467	7193
1076.798	7057
1079.129	7049
1081.459	7116
1083.792	7144
1086.121	7201
1088.449	7196
1090.777	7060
1093.104	7251
1095.431	7184
1097.759	7084
1100.084	6943
1102.408	7008
1104.732	7041
1107.056	7172
1109.379	7168
1111.701	7129
1114.022	7156
1116.343	7098
1118.664	7062
1120.983	7086
1123.303	7179
1125.621	7193
1127.939	7043
1130.256	7069
1132.573	7131
1134.889	7248
1137.205	7199
1139.52	7214
1141.832	7106
1144.146	7079
1146.461	7059
1148.771	7196
1151.083	7102
1153.392	7135
1155.703	7071
1158.011	7164
1160.323	7139
1162.629	7240
1164.938	7183
1167.243	7182
1169.55	7245
1171.857	7075
1174.163	7067
1176.466	7179
1178.769	7081
1181.073	7074
1183.374	7199
1185.677	7137
1187.979	7176
1190.279	7142
1192.578	7215
1194.878	7140
1197.178	7113
1199.476	7127
1201.772	7196
1204.068	7175
1206.366	7087
1208.663	7125
1210.957	7188
1213.251	7224
1215.544	7177
1217.836	7238
1220.128	7279
1222.421	7216
1224.712	7266
1227.002	7233
1229.292	7383
1231.581	7193
1233.871	7388
1236.159	7420
1238.446	7274
1240.732	7249
1243.018	7414
1245.304	7323
1247.59	7312
1249.874	7403
1252.156	7378
1254.439	7427
1256.721	7356
1259.005	7428
1261.286	7363
1263.565	7352
1265.845	7406
1268.125	7419
1270.403	7396
1272.682	7438
1274.959	7352
1277.234	7325
1279.511	7424
1281.787	7474
1284.062	7321
1286.337	7348
1288.609	7211
1290.882	7301
1293.153	7253
1295.428	7275
1297.698	7243
1299.969	7245
1302.237	7313
1304.507	7270
1306.777	7349
1309.044	7331
1311.312	7272
1313.578	7322
1315.844	7307
1318.109	7312
1320.375	7262
1322.638	7270
1324.903	7310
1327.165	7285
1329.427	7274
1331.69	7271
1333.952	7247
1336.212	7340
1338.471	7321
1340.73	7309
1342.988	7378
1345.248	7352
1347.505	7458
1349.763	7219
1352.019	7373
1354.274	7259
1356.53	7286
1358.784	7213
1361.038	7312
1363.291	7418
1365.543	7334
1367.797	7158
1370.048	7389
1372.296	7246
1374.546	7295
1376.796	7280
1379.045	7309
1381.295	7453
1383.542	7414
1385.787	7305
1388.034	7433
1390.28	7404
1392.527	7352
1394.772	7401
1397.014	7423
1399.258	7411
1401.501	7497
1403.741	7295
1405.985	7441
1408.226	7345
1410.465	7532
1412.705	7472
1414.943	7400
1417.184	7493
1419.42	7392
1421.658	7513
1423.894	7532
1426.13	7442
1428.366	7491
1430.602	7544
1432.835	7378
1435.069	7490
1437.301	7534
1439.535	7557
1441.767	7687
1443.997	7529
1446.229	7543
1448.458	7599
1450.687	7627
1452.916	7653
1455.146	7660
1457.372	7575
1459.599	7663
1461.824	7574
1464.051	7609
1466.277	7644
1468.501	7588
1470.725	7559
1472.948	7504
1475.17	7490
1477.393	7547
1479.614	7533
1481.837	7502
1484.057	7418
1486.276	7371
1488.497	7336
1490.715	7323
1492.932	7425
1495.148	7304
1497.364	7401
1499.58	7293
1501.798	7429
1504.012	7335
1506.227	7390
1508.44	7262
1510.653	7342
1512.866	7396
1515.078	7287
1517.289	7272
1519.5	7424
1521.711	7323
1523.92	7384
1526.13	7237
1528.338	7383
1530.544	7272
1532.752	7317
1534.959	7270
1537.165	7455
1539.371	7315
1541.574	7303
1543.779	7364
1545.983	7232
1548.187	7502
1550.39	7455
1552.59	7451
1554.792	7375
1556.991	7405
1559.19	7436
1561.392	7450
1563.59	7397
1565.789	7486
1567.986	7516
1570.182	7366
1572.381	7429
1574.576	7592
1576.771	7464
1578.966	7538
1581.16	7492
1583.354	7488
1585.546	7438
1587.74	7590
1589.931	7516
1592.121	7594
1594.311	7496
1596.502	7518
1598.693	7484
1600.881	7611
1603.069	7613
1605.256	7536
1607.445	7590
1609.631	7498
1611.816	7641
1614.001	7593
1616.186	7681
1618.37	7519
1620.555	7544
1622.737	7584
1624.919	7482
1627.101	7593
1629.282	7721
1631.463	7499
1633.643	7604
1635.822	7614
1638.001	7569
1640.179	7640
1642.359	7598
1644.534	7642
1646.711	7622
1648.887	7656
1651.062	7578
1653.235	7582
1655.412	7739
1657.586	7641
1659.757	7752
1661.93	7747
1664.1	7598
1666.274	7681
1668.445	7600
1670.614	7668
1672.784	7625
1674.951	7790
1677.12	7675
1679.289	7722
1681.457	7466
1683.622	7607
1685.789	7694
1687.953	7591
1690.121	7648
1692.284	7729
1694.447	7618
1696.611	7773
1698.772	7572
1700.935	7581
1703.098	7658
1705.258	7455
1707.417	7521
1709.576	7619
1711.736	7428
1713.896	7507
1716.053	7570
1718.21	7512
1720.366	7495
1722.522	7485
1724.68	7471
1726.835	7611
1728.989	7538
1731.142	7561
1733.295	7537
1735.449	7613
1737.601	7478
1739.753	7403
1741.903	7439
1744.054	7513
1746.203	7551
1748.354	7496
1750.503	7395
1752.651	7546
1754.798	7611
1756.944	7482
1759.092	7583
1761.238	7454
1763.383	7583
1765.528	7643
1767.672	7629
1769.814	7556
1771.959	7605
1774.102	7525
1776.242	7636
1778.384	7592
1780.525	7723
1782.665	7549
1784.805	7638
1786.945	7596
1789.082	7698
1791.22	7719
1793.36	7614
1795.495	7540
1797.632	7647
1799.766	7598
1801.902	7673
1804.035	7676
1806.172	7576
1808.304	7710
1810.436	7490
1812.569	7690
1814.699	7593
1816.833	7581
1818.963	7615
1821.092	7571
1823.222	7592
1825.35	7575
1827.478	7585
1829.608	7590
1831.734	7586
1833.86	7656
1835.986	7441
1838.11	7490
1840.238	7616
1842.362	7553
1844.485	7522
1846.608	7649
1848.73	7562
1850.853	7467
1852.974	7655
1855.097	7566
1857.217	7524
1859.336	7534
1861.455	7460
1863.576	7595
1865.693	7455
1867.811	7520
1869.926	7612
1872.042	7577
1874.16	7453
1876.275	7462
1878.39	7553
1880.504	7557
1882.618	7597
1884.731	7496
1886.843	7572
1888.956	7548
1891.067	7601
1893.178	7607
1895.287	7580
1897.399	7634
1899.508	7541
1901.617	7432
1903.724	7582
1905.832	7670
1907.941	7461
1910.046	7581
1912.152	7604
1914.256	7545
1916.361	7701
1918.464	7689
1920.57	7651
1922.672	7540
1924.775	7757
1926.876	7631
1928.978	7555
1931.08	7792
1933.181	7583
1935.28	7650
1937.38	7626
1939.478	7652
1941.577	7657
1943.675	7653
1945.771	7804
1947.867	7622
1949.964	7654
1952.058	7618
1954.154	7535
1956.248	7669
1958.343	7810
1960.435	7615
1962.527	7641
1964.62	7563
1966.711	7647
1968.802	7535
1970.892	7541
1972.983	7532
1975.072	7587
1977.162	7577
1979.25	7601
1981.337	7531
1983.424	7529
1985.51	7641
1987.598	7624
1989.683	7589
1991.768	7521
1993.852	7541
1995.934	7658
1998.019	7565
2000.102	7555
2002.184	7667
2004.266	7517
2006.347	7516
2008.427	7467
2010.508	7494
2012.587	7515
2014.666	7569
2016.745	7483
2018.821	7618
2020.9	7494
2022.977	7497
2025.052	7485
2027.128	7506
2029.204	7504
2031.277	7668
2033.353	7554
2035.425	7608
2037.499	7530
2039.57	7478
2041.642	7467
2043.714	7508
2045.786	7569
2047.855	7495
2049.925	7528
2051.993	7463
2054.064	7592
2056.132	7522
2058.2	7528
2060.266	7470
2062.332	7563
2064.398	7491
2066.465	7516
2068.529	7472
2070.592	7526
2072.657	7511
2074.719	7547
2076.783	7537
2078.845	7618
2080.907	7452
2082.968	7604
2085.028	7637
2087.087	7508
2089.148	7609
2091.207	7505
2093.264	7641
2095.322	7560
2097.379	7383
2099.439	7613
2101.495	7514
2103.55	7537
2105.605	7647
2107.658	7521
2109.713	7569
2111.767	7588
2113.82	7469
2115.872	7636
2117.924	7478
2119.975	7520
2122.028	7497
2124.078	7414
2126.126	7561
2128.176	7502
2130.225	7473
2132.275	7419
2134.321	7463
2136.368	7490
2138.415	7543
2140.461	7460
2142.505	7534
2144.552	7406
2146.597	7413
2148.64	7486
2150.684	7499
2152.725	7495
2154.77	7462
2156.811	7495
2158.852	7367
2160.894	7530
2162.933	7337
2164.973	7429
2167.013	7451
2169.051	7400
2171.089	7446
2173.126	7353
2175.164	7401
2177.201	7321
2179.236	7439
2181.273	7537
2183.307	7436
2185.341	7451
2187.377	7385
2189.41	7359
2191.442	7345
2193.473	7372
2195.506	7396
2197.539	7275
2199.569	7473
2201.598	7283
2203.628	7346
2205.656	7380
2207.686	7285
2209.716	7378
2211.743	7298
2213.769	7262
2215.796	7382
2217.821	7214
2219.848	7263
2221.873	7230
2223.897	7359
2225.921	7274
2227.944	7364
2229.967	7207
2231.991	7330
2234.011	7300
2236.032	7200
2238.053	7189
2240.073	7323
2242.094	7299
2244.114	7288
2246.131	7257
2248.149	7209
2250.167	7256
2252.186	7200
2254.201	7208
2256.218	7208
2258.233	7174
2260.247	7263
2262.262	7345
2264.278	7169
2266.29	7222
2268.303	7260
2270.315	7353
2272.327	7176
2274.341	7288
2276.35	7171
2278.361	7252
2280.37	7293
2282.38	7288
2284.388	7270
2286.397	7163
2288.405	7254
2290.412	7107
2292.419	7277
2294.425	7227
2296.431	7249
2298.437	7194
2300.441	7310
2302.445	7311
2304.449	7244
2306.453	7330
2308.455	7319
2310.457	7180
2312.459	7294
2314.46	7150
2316.46	7222
2318.461	7233
2320.46	7227
2322.458	7127
2324.458	7232
2326.456	7168
2328.455	7217
2330.451	7228
2332.447	7151
2334.443	7202
2336.438	7080
2338.433	7131
2340.429	7169
2342.422	7102
2344.416	7113
2346.408	7165
2348.399	7072
2350.393	7122
2352.384	7209
2354.375	7095
2356.365	6999
2358.355	7113
2360.344	7167
2362.333	7028
2364.322	7040
2366.309	7068
2368.295	7115
2370.282	7094
2372.27	7068
2374.256	7056
2376.24	7068
2378.225	7123
2380.208	7012
2382.194	7032
2384.177	6981
2386.159	7020
2388.142	6943
2390.122	7015
2392.105	6991
2394.085	6827
2396.066	7064
2398.044	7075
2400.024	6948
2402.002	6980
2403.982	7028
2405.959	6912
2407.935	7002
2409.913	6985
2411.888	7054
2413.865	7082
2415.84	6938
2417.814	6917
2419.788	7050
2421.762	7014
2423.735	7026
2425.708	6917
2427.68	7067
2429.651	7047
2431.623	7055
2433.593	7057
2435.564	7024
2437.533	7000
2439.502	7070
2441.47	6944
2443.438	7039
2445.406	6928
2447.373	6868
2449.34	6938
2451.305	6871
2453.271	7002
2455.235	6928
2457.201	6913
2459.165	6922
2461.129	7048
2463.092	6949
2465.054	7076
2467.018	7043
2468.978	6972
2470.939	6973
2472.899	6814
2474.86	6925
2476.819	6874
2478.778	6920
2480.737	6958
2482.695	6923
2484.653	6890
2486.609	6872
2488.567	6864
2490.524	6864
2492.478	6801
2494.433	6950
2496.387	6911
2498.343	6865
2500.297	6875
2502.249	6913
2504.202	6835
2506.153	6862
2508.105	6893
2510.057	6818
2512.008	6918
2513.957	6849
2515.906	6705
2517.855	6820
2519.805	6845
2521.754	6953
2523.7	6821
2525.647	6849
2527.594	6884
2529.54	6830
2531.486	6723
2533.431	6835
2535.376	6867
2537.32	6842
2539.263	6780
2541.207	6836
2543.151	6881
2545.093	6924
2547.034	6798
2548.975	6811
2550.917	6684
2552.856	6766
2554.796	6954
2556.735	6869
2558.673	6775
2560.611	6751
2562.55	6805
2564.487	6816
2566.424	6920
2568.36	6788
2570.296	6746
2572.232	6792
2574.167	6963
2576.101	6899
2578.035	6860
2579.969	6838
2581.902	6764
2583.834	6809
2585.766	7037
2587.698	6872
2589.628	6889
2591.557	6801
2593.489	6846
2595.419	6902
2597.348	6716
2599.275	6849
2601.204	6826
2603.131	6832
2605.059	6802
2606.986	6762
2608.911	6883
2610.837	6841
2612.76	6782
2614.687	6821
2616.61	6815
2618.534	6731
2620.457	6855
2622.38	6738
2624.302	6733
2626.225	6767
2628.145	6884
2630.067	6758
2631.986	6743
2633.906	6832
2635.827	6777
2637.745	6816
2639.662	6779
2641.581	6790
2643.498	6824
2645.415	6875
2647.331	6911
2649.248	6764
2651.163	6790
2653.077	6874
2654.993	6807
2656.906	6759
2658.821	6794
2660.733	6851
2662.646	6787
2664.557	6657
2666.47	6803
2668.381	6846
2670.291	6752
2672.201	6757
2674.11	6828
2676.021	6771
2677.929	6737
2679.837	6776
2681.745	6701
2683.652	6763
2685.56	6702
2687.466	6693
2689.371	6840
2691.276	6780
2693.181	6728
2695.085	6697
2696.991	6667
2698.893	6768
2700.796	6643
2702.698	6692
2704.601	6634
2706.502	6787
2708.404	6585
2710.304	6743
2712.203	6552
2714.103	6652
2716.003	6692
2717.902	6654
2719.8	6705
2721.697	6539
2723.594	6609
2725.49	6708
2727.389	6667
2729.283	6615
2731.179	6639
2733.073	6616
2734.968	6647
2736.863	6646
2738.757	6665
2740.649	6584
2742.541	6686
2744.433	6568
2746.324	6543
2748.216	6579
2750.107	6511
2751.997	6659
2753.886	6630
2755.776	6513
2757.666	6577
2759.553	6698
2761.44	6518
2763.327	6562
2765.215	6620
2767.102	6639
2768.988	6544
2770.873	6586
2772.757	6573
2774.641	6526
2776.525	6695
2778.41	6624
2780.292	6470
2782.175	6600
2784.057	6663
2785.938	6475
2787.821	6531
2789.701	6596
2791.581	6527
2793.461	6576
2795.34	6557
2797.219	6599
2799.099	6538
2800.975	6420
2802.853	6531
2804.73	6554
2806.606	6617
2808.484	6488
2810.358	6547
2812.233	6461
2814.108	6502
2815.981	6486
2817.857	6427
2819.73	6536
2821.602	6568
2823.474	6492
2825.346	6537
2827.217	6385
2829.089	6438
2830.959	6547
2832.829	6440
2834.698	6445
2836.567	6437
2838.436	6499
2840.305	6599
2842.172	6502
2844.04	6377
2845.905	6551
2847.772	6466
2849.639	6563
2851.503	6499
2853.369	6473
2855.232	6643
2857.096	6510
2858.961	6743
2860.824	6562
2862.686	6657
2864.547	6511
2866.41	6680
2868.272	6516
2870.132	6607
2871.992	6698
2873.851	6616
2875.711	6824
2877.57	6769
2879.429	6778
2881.287	6890
2883.144	6905
2885.001	6831
2886.857	6922
2888.714	6940
2890.57	6922
2892.425	6877
2894.279	6749
2896.133	6756
2897.987	6824
2899.842	6807
2901.694	6864
2903.547	6723
2905.397	6884
2907.249	6799
2909.101	6848
2910.952	6837
2912.802	6922
2914.652	6853
2916.5	6861
2918.35	6978
2920.198	6895
2922.045	6962
2923.893	6989
2925.74	7208
2927.585	7075
2929.433	7175
2931.279	7104
2933.123	7269
2934.968	7244
2936.811	7232
2938.656	7328
2940.5	7376
2942.342	7361
2944.185	7380
2946.026	7357
2947.87	7426
2949.71	7419
2951.549	7348
2953.39	7441
2955.229	7318
2957.069	7258
2958.908	7261
2960.746	7127
2962.584	7141
2964.421	7096
2966.257	7118
2968.094	6865
2969.931	7001
2971.766	7025
2973.601	6868
2975.435	6893
2977.27	7073
2979.105	6938
2980.938	6935
2982.77	6765
2984.602	6790
2986.434	6809
2988.267	6699
2990.097	6583
2991.927	6713
2993.757	6655
2995.587	6704
2997.417	6640
2999.246	6621
3001.074	6601
3002.902	6574
3004.729	6442
3006.556	6440
3008.384	6322
3010.21	6408
3012.036	6391
3013.861	6246
3015.684	6297
3017.51	6286
3019.334	6152
3021.157	6259
3022.981	6220
3024.802	6130
3026.624	6166
3028.448	6058
3030.267	6277
3032.088	6171
3033.909	6062
3035.728	6184
3037.549	6024
3039.368	6047
3041.186	6157
3043.004	6016
3044.821	6152
3046.64	6000
3048.455	6004
3050.272	5972
3052.087	6046
3053.903	6062
3055.717	6004
3057.534	6060
3059.347	6028
3061.16	6016
3062.974	6020
3064.785	6090
3066.598	6027
3068.411	6092
3070.222	6047
3072.032	5868
3073.844	6023
3075.653	5941
3077.463	6005
3079.272	6002
3081.08	6013
3082.889	5993
3084.697	5897
3086.505	5936
3088.312	5947
3090.118	5995
3091.924	5928
3093.729	5893
3095.535	5947
3097.34	5878
3099.144	5823
3100.947	5900
3102.75	5882
3104.553	5836
3106.357	5759
3108.159	5870
3109.961	5892
3111.762	5773
3113.562	5806
3115.365	5837
3117.164	5815
3118.964	5961
3120.761	5746
3122.56	5828
3124.36	5895
3126.158	5792
3127.954	5778
3129.75	5830
3131.547	5717
3133.343	5642
3135.139	5687
3136.934	5693
3138.729	5817
3140.522	5757
3142.317	5744
3144.11	5666
3145.904	5743
3147.695	5778
3149.488	5692
3151.28	5708
3153.07	5806
3154.863	5583
3156.652	5569
3158.441	5697
3160.231	5621
3162.019	5669
3163.81	5683
3165.597	5709
3167.384	5764
3169.172	5699
3170.958	5732
3172.745	5674
3174.532	5669
3176.317	5710
3178.101	5671
3179.885	5636
3181.67	5633
3183.455	5765
3185.238	5626
3187.02	5632
3188.802	5601
3190.585	5618
3192.368	5697
3194.149	5660
3195.929	5618
3197.709	5602
3199.489	5657
3201.268	5693
3203.048	5639
3204.826	5512
3206.604	5528
3208.382	5720
3210.159	5523
3211.937	5626
3213.713	5574
3215.489	5548
3217.263	5552
3219.038	5638
3220.815	5605
3222.589	5691
3224.363	5625
3226.136	5615
3227.908	5511
3229.681	5557
3231.454	5514
3233.226	5654
3234.996	5625
3236.767	5488
3238.538	5550
3240.308	5577
3242.078	5538
3243.847	5558
3245.615	5591
3247.384	5528
3249.15	5527
3250.92	5502
3252.686	5641
3254.453	5517
3256.218	5539
3257.984	5557
3259.75	5571
3261.515	5555
3263.279	5615
3265.044	5460
3266.806	5448
3268.57	5611
3270.334	5551
3272.095	5526
3273.856	5463
3275.619	5541
3277.379	5552
3279.14	5601
3280.9	5508
3282.661	5537
3284.419	5600
3286.178	5463
3287.937	5547
3289.695	5567
3291.453	5548
3293.21	5547
3294.967	5535
3296.723	5555
3298.48	5414
3300.235	5466
3301.99	5530
3303.744	5550
3305.498	5533
3307.253	5545
3309.006	5547
3310.759	5543
3312.511	5517
3314.263	5449
3316.017	5514
3317.768	5577
3319.519	5531
3321.268	5481
3323.018	5551
3324.767	5505
3326.518	5445
3328.267	5433
3330.014	5544
3331.762	5486
3333.509	5510
3335.258	5484
3337.003	5372
3338.75	5544
3340.496	5506
3342.24	5407
3343.987	5576
3345.732	5472
3347.475	5405
3349.219	5445
3350.961	5425
3352.705	5543
3354.448	5430
3356.19	5526
3357.931	5389
3359.672	5425
3361.412	5301
3363.155	5403
3364.894	5509
3366.633	5324
3368.372	5373
3370.11	5321
3371.849	5337
3373.588	5340
3375.325	5356
3377.061	5408
3378.799	5340
3380.534	5360
3382.271	5350
3384.006	5293
3385.741	5300
3387.475	5243
3389.209	5384
3390.944	5374
3392.677	5278
3394.409	5269
3396.143	5361
3397.874	5349
3399.606	5370
3401.338	5219
3403.069	5384
3404.799	5252
3406.528	5163
3408.258	5264
3409.988	5322
3411.717	5332
3413.445	5252
3415.173	5220
3416.899	5167
3418.626	5196
3420.354	5200
3422.08	5256
3423.806	5290
3425.531	5232
3427.255	5245
3428.981	5191
3430.705	5357
3432.429	5247
3434.151	5202
3435.875	5196
3437.599	5252
3439.321	5160
3441.042	5242
3442.763	5166
3444.483	5209
3446.204	5111
3447.926	5179
3449.645	5187
3451.364	5164
3453.082	5151
3454.801	5221
3456.52	5157
3458.238	5185
3459.954	5115
3461.671	4991
3463.387	5221
3465.104	5109
3466.82	5077
3468.534	5083
3470.25	5145
3471.963	5158
3473.676	5146
3475.392	5111
3477.104	5036
3478.817	5049
3480.528	5020
3482.241	5075
3483.954	5057
3485.664	5001
3487.374	5016
3489.084	4968
3490.795	4982
3492.504	4978
3494.214	4962
3495.922	4942
3497.63	5022
3499.338	4951
3501.045	4906
3502.753	4925
3504.459	4957
3506.166	4896
3507.871	4927
3509.576	4893
3511.283	4965
3512.987	4906
3514.691	4979
3516.395	4911
3518.098	4945
3519.8	5001
3521.504	4950
3523.206	4908
3524.908	4925
3526.609	4966
3528.309	4894
3530.011	5017
3531.711	4994
3533.411	4820
3535.109	4890
3536.808	4825
3538.507	4872
3540.206	4831
3541.904	4828
3543.601	4773
3545.297	4852
3546.994	4851
3548.69	4752
3550.387	4919
3552.081	4897
3553.776	4898
3555.47	4787
3557.166	4859
3558.859	4892
3560.553	4854
3562.245	4842
3563.938	4823
3565.629	4802
3567.322	4865
3569.014	4755
3570.704	4857
3572.394	4800
3574.084	4821
3575.775	4786
3577.464	4746
3579.152	4722
3580.842	4772
3582.529	4767
3584.216	4759
3585.905	4783
3587.591	4774
3589.279	4590
3590.964	4773
3592.649	4691
3594.336	4750
3596.021	4760
3597.705	4693
3599.388	4692
3601.072	4616
3602.757	4739
3604.439	4692
3606.122	4701
3607.803	4740
3609.485	4707
3611.167	4685
3612.849	4681
3614.529	4706
3616.208	4577
3617.888	4681
3619.567	4580
3621.247	4650
3622.926	4553
3624.603	4711
3626.281	4646
3627.958	4560
3629.635	4613
3631.312	4564
3632.989	4547
3634.665	4581
3636.339	4452
3638.014	4563
3639.691	4575
3641.364	4568
3643.038	4603
3644.71	4584
3646.384	4534
3648.058	4572
3649.729	4628
3651.402	4530
3653.073	4628
3654.744	4511
3656.414	4524
3658.085	4521
3659.755	4583
3661.424	4448
3663.094	4455
3664.762	4512
3666.431	4525
3668.099	4495
3669.766	4443
3671.433	4556
3673.099	4486
3674.768	4493
3676.433	4458
3678.098	4506
3679.763	4487
3681.428	4401
3683.093	4419
3684.757	4368
3686.421	4477
3688.083	4326
3689.746	4470
3691.408	4433
3693.071	4493
3694.733	4465
3696.394	4457
3698.054	4375
3699.715	4387
3701.375	4418
3703.036	4397
3704.695	4403
3706.354	4491
3708.012	4499
3709.67	4354
3711.329	4415
3712.987	4417
3714.644	4463
3716.299	4366
3717.955	4405
3719.613	4434
3721.268	4446
3722.923	4384
3724.577	4392
3726.231	4374
3727.885	4280
3729.539	4406
3731.192	4434
3732.845	4328
3734.497	4315
3736.149	4349
3737.802	4345
3739.453	4352
3741.104	4418
3742.753	4363
3744.404	4336
3746.052	4309
3747.704	4274
3749.352	4385
3751	4348
3752.648	4215
3754.296	4382
3755.944	4324
3757.59	4316
3759.238	4307
3760.883	4266
3762.528	4345
3764.176	4339
3765.82	4253
3767.464	4249
3769.109	4245
3770.753	4293
3772.396	4215
3774.04	4263
3775.683	4334
3777.325	4294
3778.967	4193
3780.608	4274
3782.25	4323
3783.89	4227
3785.531	4298
3787.17	4192
3788.81	4342
3790.45	4180
3792.09	4278
3793.729	4208
3795.366	4235
3797.003	4169
3798.64	4323
3800.278	4229
3801.915	4266
3803.551	4192
3805.187	4226
3806.822	4205
3808.458	4236
3810.093	4196
3811.726	4234
3813.36	4127
3814.994	4127
3816.627	4174
3818.262	4205
3819.893	4144
3821.525	4167
3823.157	4152
3824.787	4106
3826.42	4092
3828.051	4099
3829.68	4230
3831.31	4158
3832.938	4136
3834.569	4116
3836.198	4148
3837.825	4077
3839.454	4109
3841.08	4134
3842.708	4034
3844.335	4062
3845.962	4023
3847.587	4179
3849.212	4072
3850.838	4122
3852.463	4034
3854.089	4112
3855.712	4051
3857.335	4129
3858.959	4077
3860.582	4107
3862.205	4113
3863.827	4125
3865.449	4054
3867.07	4039
3868.691	4084
3870.312	4097
3871.933	4024
3873.553	4125
3875.173	4052
3876.792	4025
3878.411	4040
3880.03	4061
3881.647	4040
3883.265	4045
3884.882	4029
3886.499	4011
3888.116	4000
3889.732	3993
3891.348	4034
3892.964	3971
3894.579	4021
3896.195	4087
3897.809	4015
3899.423	3968
3901.036	4073
3902.648	4020
3904.261	3973
3905.875	4037
3907.487	3974
3909.099	4068
3910.709	3953
3912.321	4031
3913.933	3947
3915.542	3945
3917.152	3971
3918.762	3906
3920.37	4106
3921.98	4033
3923.589	3852
3925.196	3937
3926.804	3975
3928.41	3947
3930.018	3878
3931.626	3962
3933.231	4009
3934.838	3915
3936.442	3898
3938.046	4010
3939.653	4026
3941.257	3975
3942.861	4003
3944.464	4015
3946.068	3961
3947.67	3949
3949.273	3845
3950.876	3969
3952.477	3937
3954.078	3904
3955.678	3895
3957.281	3840
3958.881	3922
3960.48	3845
3962.079	3844
3963.678	3900
3965.279	3893
3966.877	3870
3968.475	3963
3970.072	3910
3971.669	3861
3973.266	3888
3974.864	3841
3976.459	3906
3978.055	3873
3979.65	3846
3981.245	3829
3982.841	3793
3984.436	3871
3986.03	3823
3987.623	3910
3989.216	3812
3990.809	3826
3992.403	3804
3993.995	3820
3995.586	3792
3997.177	3767
3998.768	3824
4000.361	3824
4001.951	3761
4003.54	3851
4005.13	3763
4006.719	3786
4008.31	3788
4009.897	3814
4011.485	3764
4013.073	3761
4014.66	3747
4016.247	3807
4017.834	3722
4019.421	3727
4021.006	3747
4022.592	3682
4024.178	3708
4025.763	3682
4027.348	3726
4028.932	3716
4030.515	3727
4032.099	3753
4033.682	3602
4035.266	3672
4036.847	3769
4038.429	3680
4040.011	3709
4041.592	3746
4043.173	3700
4044.755	3698
4046.334	3626
4047.913	3741
4049.494	3666
4051.074	3620
4052.652	3695
4054.23	3708
4055.807	3576
4057.385	3731
4058.963	3668
4060.541	3630
4062.117	3599
4063.693	3621
4065.269	3710
4066.844	3639
4068.42	3629
4069.995	3701
4071.569	3625
4073.143	3605
4074.716	3614
4076.291	3671
4077.864	3622
4079.436	3636
4081.009	3650
4082.58	3624
4084.152	3614
4085.723	3581
4087.294	3611
4088.865	3634
4090.435	3609
4092.005	3596
4093.574	3584
4095.143	3587
4096.712	3649
4098.279	3550
4099.848	3517
4101.416	3570
4102.984	3580
4104.55	3495
4106.117	3569
4107.682	3580
4109.248	3461
4110.815	3564
4112.379	3578
4113.945	3613
4115.508	3517
4117.073	3537
4118.637	3593
4120.201	3521
4121.763	3540
4123.325	3478
4124.888	3447
4126.449	3532
4128.013	3486
4129.573	3579
4131.133	3561
4132.694	3474
4134.254	3493
4135.814	3500
4137.374	3554
4138.933	3515
4140.491	3474
4142.049	3543
4143.607	3454
4145.167	3572
4146.724	3444
4148.28	3493
4149.836	3524
4151.392	3495
4152.949	3473
4154.504	3519
4156.059	3354
4157.614	3443
4159.168	3491
4160.723	3445
4162.277	3470
4163.83	3415
4165.383	3434
4166.936	3444
4168.488	3481
4170.041	3405
4171.593	3387
4173.144	3420
4174.695	3381
4176.246	3394
4177.796	3479
4179.346	3395
4180.896	3453
4182.445	3437
4183.994	3354
4185.542	3446
4187.091	3459
4188.639	3404
4190.185	3369
4191.732	3342
4193.279	3473
4194.826	3357
4196.373	3384
4197.918	3420
4199.463	3307
4201.008	3333
4202.553	3356
4204.098	3393
4205.641	3443
4207.185	3384
4208.728	3382
4210.271	3287
4211.814	3353
4213.357	3377
4214.898	3387
4216.439	3310
4217.98	3354
4219.522	3376
4221.062	3343
4222.603	3413
4224.142	3330
4225.681	3266
4227.222	3332
4228.76	3336
4230.298	3380
4231.835	3348
4233.373	3339
4234.911	3369
4236.449	3327
4237.985	3316
4239.521	3318
4241.057	3322
4242.592	3348
4244.128	3280
4245.663	3302
4247.197	3267
4248.731	3283
4250.265	3305
4251.798	3300
4253.333	3286
4254.865	3287
4256.397	3294
4257.93	3294
4259.461	3296
4260.994	3209
4262.525	3326
4264.056	3270
4265.586	3286
4267.115	3180
4268.646	3289
4270.176	3283
4271.705	3270
4273.232	3259
4274.761	3147
4276.289	3244
4277.818	3202
4279.345	3231
4280.872	3205
4282.399	3302
4283.924	3232
4285.452	3199
4286.976	3226
4288.502	3146
4290.026	3197
4291.551	3212
4293.074	3180
4294.6	3220
4296.123	3233
4297.646	3165
4299.168	3195
4300.691	3166
4302.214	3193
4303.736	3214
4305.257	3176
4306.778	3258
4308.299	3236
4309.82	3216
4311.34	3194
4312.86	3231
4314.379	3167
