400.0745	4291
402.597	4310
405.1208	4261
407.6419	4287
410.1623	4221
412.6819	4224
415.201	4372
417.7172	4328
420.2369	4427
422.7538	4364
425.2701	4412
427.7856	4486
430.3005	4577
432.8147	4461
435.3282	4631
437.841	4573
440.3511	4513
442.8625	4550
445.3753	4515
447.8854	4578
450.3927	4575
452.9014	4656
455.4073	4506
457.9146	4590
460.4233	4532
462.9272	4594
465.4325	4535
467.935	4607
470.4389	4576
472.9421	4518
475.4446	4503
477.9444	4603
480.4456	4600
482.944	4670
485.4417	4610
487.9429	4631
490.4393	4617
492.935	4649
495.4321	4651
497.9264	4661
500.4221	4704
502.9171	4720
505.4094	4673
507.9011	4684
510.392	4815
512.8864	4770
515.3759	4779
517.8649	4678
520.3531	4668
522.8406	4749
525.3275	4761
527.8178	4752
530.3033	4677
532.7881	4727
535.2723	4758
537.7558	4724
540.2407	4785
542.7228	4738
545.2043	4697
547.6851	4853
550.1652	4766
552.6467	4803
555.1255	4820
557.6016	4805
560.079	4814
562.5557	4816
565.0318	4681
567.5092	4844
569.984	4822
572.456	4908
574.9294	4894
577.4022	4860
579.8762	4976
582.3456	4935
584.8163	4988
587.2863	5033
589.7557	4949
592.2224	4953
594.6924	5112
597.1578	4855
599.6245	4910
602.0905	4961
604.5538	4867
607.0206	5007
609.4825	4942
611.9459	4936
614.4066	4965
616.8686	5028
619.33	4974
621.7906	4945
624.2487	4904
626.708	4794
629.1647	4883
631.6207	4973
634.0801	4939
636.5348	4876
638.9888	4952
641.4442	5020
643.8969	4929
646.3509	4914
648.8022	4933
651.255	4985
653.705	5047
656.1544	5079
658.6031	4996
661.0532	4969
663.5026	4935
665.9493	5075
668.3954	5105
670.8409	4962
673.2877	5072
675.7318	5035
678.1752	4988
680.618	5084
683.0601	5080
685.5035	5051
687.9444	5125
690.3845	5121
692.824	5020
695.2628	5181
697.701	5161
700.1406	5103
702.5774	5126
705.0116	5166
707.4472	5145
709.8821	5067
712.3183	5223
714.7519	5126
717.1829	5105
719.6151	5201
722.0468	5182
724.4777	5216
726.908	5254
729.3377	5263
731.7667	5293
734.1931	5329
736.6208	5254
739.0498	5418
741.4742	5315
743.9	5314
746.3231	5348
748.7476	5381
751.1713	5328
753.5945	5346
756.015	5482
758.4368	5459
760.856	5378
763.2766	5474
765.6965	5477
768.1157	5352
770.5323	5448
772.9483	5458
775.3656	5491
777.7822	5463
780.1963	5556
782.6116	5432
785.0244	5463
787.4365	5426
789.8499	5508
792.2626	5525
794.6728	5588
797.0823	5477
799.4911	5531
801.8994	5519
804.3109	5433
806.7178	5570
809.124	5520
811.5297	5501
813.9347	5578
816.341	5472
818.7447	5548
821.1478	5498
823.5502	5572
825.952	5528
828.3531	5621
830.7556	5553
833.1554	5646
835.5546	5608
837.9532	5592
840.3511	5687
842.7504	5667
845.1451	5649
847.5411	5658
849.9365	5657
852.3312	5634
854.7272	5722
857.1187	5647
859.5115	5660
861.9037	5715
864.2952	5717
866.6842	5629
869.0764	5647
871.4661	5755
873.8531	5552
876.2415	5609
878.6272	5649
881.0162	5647
883.4026	5664
885.7866	5739
888.1717	5684
890.5543	5575
892.9382	5722
895.3215	5665
897.7041	5589
900.0842	5597
902.4655	5553
904.8443	5717
907.2244	5688
909.6039	5695
911.9808	5669
914.357	5863
916.7346	5761
919.1115	5845
921.4859	5806
923.8616	5947
926.2347	5984
928.6071	5998
930.979	5979
933.3541	5917
935.7247	5955
938.0946	6046
940.4639	6012
942.8326	6080
945.2026	6045
947.5701	6209
949.9369	6218
952.305	6427
954.6705	6596
957.0355	6730
959.4017	6789
961.7654	6991
964.1284	6904
966.4908	6773
968.8527	6630
971.2138	6395
973.5743	6325
975.9343	6069
978.2936	5962
980.6522	5864
983.0122	5781
985.3696	5817
987.7245	5741
990.0807	5833
992.4362	5850
994.7911	5877
997.1474	5837
999.4991	5825
1001.852	5932
1004.205	5898
1006.555	5922
1008.908	5870
1011.258	5892
1013.606	5868
1015.956	5938
1018.302	5924
1020.652	5919
1022.998	5984
1025.345	5935
1027.691	5911
1030.035	5950
1032.378	5971
1034.724	5936
1037.066	6063
1039.409	5950
1041.75	5952
1044.092	6018
1046.433	5926
1048.771	6035
1051.112	5983
1053.449	6012
1055.786	5998
1058.124	6057
1060.462	6036
1062.797	5930
1065.131	5956
1067.467	5986
1069.8	6032
1072.135	6053
1074.467	6158
1076.798	5920
1079.129	5983
1081.459	6070
1083.792	5936
1086.121	6002
1088.449	5932
1090.777	6012
1093.104	5984
1095.431	5910
1097.759	5944
1100.084	6018
1102.408	5998
1104.732	6123
1107.056	5973
1109.379	5948
1111.701	5941
1114.022	5993
1116.343	6085
1118.664	5967
1120.983	6006
1123.303	6007
1125.621	5978
1127.939	6042
1130.256	5995
1132.573	5992
1134.889	5823
1137.205	6079
1139.52	6029
1141.832	5993
1144.146	5901
1146.461	6039
1148.771	5995
1151.083	5936
1153.392	6063
1155.703	5991
1158.011	6013
1160.323	5931
1162.629	6049
1164.938	6079
1167.243	6082
1169.55	6027
1171.857	6003
1174.163	6024
1176.466	6021
1178.769	5997
1181.073	6130
1183.374	6077
1185.677	6075
1187.979	5980
1190.279	6121
1192.578	6024
1194.878	6105
1197.178	6038
1199.476	6000
1201.772	6152
1204.068	6052
1206.366	6129
1208.663	5927
1210.957	5987
1213.251	6016
1215.544	6064
1217.836	6103
1220.128	6068
1222.421	6065
1224.712	6078
1227.002	6060
1229.292	6054
1231.581	6233
1233.871	6191
1236.159	6180
1238.446	6137
1240.732	6231
1243.018	6236
1245.304	6183
1247.59	6298
1249.874	6265
1252.156	6202
1254.439	6225
1256.721	6363
1259.005	6216
1261.286	6217
1263.565	6198
1265.845	6246
1268.125	6306
1270.403	6229
1272.682	6198
1274.959	6183
1277.234	6196
1279.511	6250
1281.787	6106
1284.062	6229
1286.337	6190
1288.609	6114
1290.882	6162
1293.153	6208
1295.428	6091
1297.698	6127
1299.969	6080
1302.237	6161
1304.507	6177
1306.777	6072
1309.044	6041
1311.312	6130
1313.578	6139
1315.844	6124
1318.109	6159
1320.375	6113
1322.638	6223
1324.903	6045
1327.165	6177
1329.427	6061
1331.69	6210
1333.952	6135
1336.212	6218
1338.471	6209
1340.73	6183
1342.988	6146
1345.248	6219
1347.505	6167
1349.763	6192
1352.019	6141
1354.274	6058
1356.53	6180
1358.784	6149
1361.038	6079
1363.291	6178
1365.543	6145
1367.797	6039
1370.048	6199
1372.296	6205
1374.546	6089
1376.796	6154
1379.045	6199
1381.295	6192
1383.542	6301
1385.787	6155
1388.034	6184
1390.28	6257
1392.527	6283
1394.772	6395
1397.014	6256
1399.258	6309
1401.501	6379
1403.741	6299
1405.985	6337
1408.226	6328
1410.465	6248
1412.705	6226
1414.943	6250
1417.184	6381
1419.42	6318
1421.658	6351
1423.894	6280
1426.13	6455
1428.366	6302
1430.602	6304
1432.835	6290
1435.069	6355
1437.301	6423
1439.535	6394
1441.767	6363
1443.997	6354
1446.229	6566
1448.458	6400
1450.687	6561
1452.916	6458
1455.146	6527
1457.372	6525
1459.599	6560
1461.824	6426
1464.051	6525
1466.277	6465
1468.501	6347
1470.725	6407
1472.948	6317
1475.17	6387
1477.393	6329
1479.614	6289
1481.837	6317
1484.057	6236
1486.276	6238
1488.497	6252
1490.715	6182
1492.932	6189
1495.148	6189
1497.364	6135
1499.58	6264
1501.798	6161
1504.012	6139
1506.227	6124
1508.44	6229
1510.653	5982
1512.866	6137
1515.078	6138
1517.289	6128
1519.5	6121
1521.711	6286
1523.92	6237
1526.13	6250
1528.338	6112
1530.544	6117
1532.752	6185
1534.959	6217
1537.165	6105
1539.371	6207
1541.574	6198
1543.779	6138
1545.983	6053
1548.187	6138
1550.39	6216
1552.59	6236
1554.792	6205
1556.991	6092
1559.19	6271
1561.392	6209
1563.59	6205
1565.789	6218
1567.986	6324
1570.182	6276
1572.381	6308
1574.576	6283
1576.771	6227
1578.966	6270
1581.16	6149
1583.354	6250
1585.546	6247
1587.74	6451
1589.931	6206
1592.121	6312
1594.311	6336
1596.502	6518
1598.693	6240
1600.881	6323
1603.069	6294
1605.256	6442
1607.445	6335
1609.631	6325
1611.816	6358
1614.001	6377
1616.186	6374
1618.37	6447
1620.555	6186
1622.737	6425
1624.919	6454
1627.101	6354
1629.282	6398
1631.463	6412
1633.643	6438
1635.822	6547
1638.001	6379
1640.179	6446
1642.359	6448
1644.534	6373
1646.711	6523
1648.887	6313
1651.062	6483
1653.235	6457
1655.412	6399
1657.586	6337
1659.757	6472
1661.93	6405
1664.1	6489
1666.274	6435
1668.445	6357
1670.614	6572
1672.784	6622
1674.951	6470
1677.12	6604
1679.289	6511
1681.457	6410
1683.622	6444
1685.789	6496
1687.953	6444
1690.121	6459
1692.284	6460
1694.447	6466
1696.611	6424
1698.772	6444
1700.935	6421
1703.098	6403
1705.258	6413
1707.417	6446
1709.576	6338
1711.736	6238
1713.896	6324
1716.053	6347
1718.21	6289
1720.366	6333
1722.522	6285
1724.68	6349
1726.835	6289
1728.989	6310
1731.142	6373
1733.295	6264
1735.449	6491
1737.601	6348
1739.753	6348
1741.903	6443
1744.054	6315
1746.203	6295
1748.354	6392
1750.503	6331
1752.651	6417
1754.798	6304
1756.944	6305
1759.092	6329
1761.238	6346
1763.383	6310
1765.528	6259
1767.672	6397
1769.814	6306
1771.959	6324
1774.102	6499
1776.242	6310
1778.384	6280
1780.525	6431
1782.665	6385
1784.805	6353
1786.945	6413
1789.082	6359
1791.22	6495
1793.36	6425
1795.495	6452
1797.632	6326
1799.766	6432
1801.902	6456
1804.035	6459
1806.172	6321
1808.304	6395
1810.436	6348
1812.569	6305
1814.699	6299
1816.833	6373
1818.963	6385
1821.092	6285
1823.222	6361
1825.35	6373
1827.478	6372
1829.608	6366
1831.734	6291
1833.86	6372
1835.986	6319
1838.11	6337
1840.238	6424
1842.362	6400
1844.485	6313
1846.608	6403
1848.73	6327
1850.853	6247
1852.974	6376
1855.097	6329
1857.217	6345
1859.336	6315
1861.455	6244
1863.576	6295
1865.693	6420
1867.811	6211
1869.926	6263
1872.042	6308
1874.16	6370
1876.275	6333
1878.39	6277
1880.504	6405
1882.618	6443
1884.731	6255
1886.843	6366
1888.956	6452
1891.067	6342
1893.178	6259
1895.287	6338
1897.399	6431
1899.508	6286
1901.617	6449
1903.724	6348
1905.832	6395
1907.941	6353
1910.046	6396
1912.152	6374
1914.256	6424
1916.361	6342
1918.464	6370
1920.57	6408
1922.672	6471
1924.775	6404
1926.876	6321
1928.978	6470
1931.08	6473
1933.181	6449
1935.28	6494
1937.38	6424
1939.478	6356
1941.577	6394
1943.675	6449
1945.771	6459
1947.867	6455
1949.964	6473
1952.058	6406
1954.154	6422
1956.248	6357
1958.343	6517
1960.435	6582
1962.527	6464
1964.62	6375
1966.711	6426
1968.802	6397
1970.892	6416
1972.983	6365
1975.072	6402
1977.162	6426
1979.25	6281
1981.337	6276
1983.424	6425
1985.51	6394
1987.598	6331
1989.683	6348
1991.768	6396
1993.852	6364
1995.934	6363
1998.019	6395
2000.102	6354
2002.184	6322
2004.266	6343
2006.347	6241
2008.427	6342
2010.508	6561
2012.587	6327
2014.666	6386
2016.745	6355
2018.821	6272
2020.9	6297
2022.977	6271
2025.052	6370
2027.128	6366
2029.204	6399
2031.277	6400
2033.353	6317
2035.425	6282
2037.499	6338
2039.57	6358
2041.642	6350
2043.714	6178
2045.786	6299
2047.855	6409
2049.925	6248
2051.993	6399
2054.064	6329
2056.132	6258
2058.2	6286
2060.266	6364
2062.332	6244
2064.398	6216
2066.465	6265
2068.529	6386
2070.592	6343
2072.657	6360
2074.719	6434
2076.783	6302
2078.845	6422
2080.907	6275
2082.968	6348
2085.028	6345
2087.087	6357
2089.148	6317
2091.207	6306
2093.264	6352
2095.322	6295
2097.379	6303
2099.439	6249
2101.495	6290
2103.55	6412
2105.605	6295
2107.658	6375
2109.713	6285
2111.767	6355
2113.82	6314
2115.872	6244
2117.924	6472
2119.975	6217
2122.028	6206
2124.078	6349
2126.126	6381
2128.176	6170
2130.225	6297
2132.275	6294
2134.321	6197
2136.368	6269
2138.415	6356
2140.461	6333
2142.505	6273
2144.552	6303
2146.597	6314
2148.64	6195
2150.684	6218
2152.725	6284
2154.77	6342
2156.811	6259
2158.852	6237
2160.894	6234
2162.933	6219
2164.973	6229
2167.013	6177
2169.051	6254
2171.089	6200
2173.126	6351
2175.164	6158
2177.201	6218
2179.236	6143
2181.273	6155
2183.307	6183
2185.341	6197
2187.377	6098
2189.41	6062
2191.442	6146
2193.473	6069
2195.506	6205
2197.539	6119
2199.569	6077
2201.598	6176
2203.628	6150
2205.656	6123
2207.686	6200
2209.716	6186
2211.743	6045
2213.769	6052
2215.796	6156
2217.821	6091
2219.848	6093
2221.873	6060
2223.897	6151
2225.921	6058
2227.944	6075
2229.967	6008
2231.991	6002
2234.011	6044
2236.032	6033
2238.053	6010
2240.073	6042
2242.094	6129
2244.114	5952
2246.131	6043
2248.149	5982
2250.167	6097
2252.186	6049
2254.201	6064
2256.218	6114
2258.233	6114
2260.247	6116
2262.262	6132
2264.278	6120
2266.29	6003
2268.303	6113
2270.315	6030
2272.327	6172
2274.341	5976
2276.35	6154
2278.361	6103
2280.37	6034
2282.38	6087
2284.388	6133
2286.397	6007
2288.405	6019
2290.412	6081
2292.419	6123
2294.425	5918
2296.431	6103
2298.437	6076
2300.441	5954
2302.445	6095
2304.449	6110
2306.453	5997
2308.455	5932
2310.457	6037
2312.459	6107
2314.46	6010
2316.46	6072
2318.461	5956
2320.46	5927
2322.458	6084
2324.458	6064
2326.456	5905
2328.455	6021
2330.451	5994
2332.447	5963
2334.443	5976
2336.438	5921
2338.433	5941
2340.429	5866
2342.422	5971
2344.416	5951
2346.408	5919
2348.399	6021
2350.393	5933
2352.384	5913
2354.375	5958
2356.365	5798
2358.355	5991
2360.344	5891
2362.333	5983
2364.322	5944
2366.309	6007
2368.295	5845
2370.282	5916
2372.27	5884
2374.256	5881
2376.24	5872
2378.225	5903
2380.208	5898
2382.194	5770
2384.177	5845
2386.159	5850
2388.142	5881
2390.122	5815
2392.105	5841
2394.085	5834
2396.066	5899
2398.044	5880
2400.024	5823
2402.002	5884
2403.982	5876
2405.959	5885
2407.935	5770
2409.913	5883
2411.888	5821
2413.865	5971
2415.84	5767
2417.814	5789
2419.788	5859
2421.762	5861
2423.735	5914
2425.708	5809
2427.68	5862
2429.651	5848
2431.623	5806
2433.593	5812
2435.564	5762
2437.533	5719
2439.502	5772
2441.47	5847
2443.438	5842
2445.406	5832
2447.373	5834
2449.34	5832
2451.305	5794
2453.271	5798
2455.235	5752
2457.201	5835
2459.165	5809
2461.129	5767
2463.092	5814
2465.054	5907
2467.018	5735
2468.978	5688
2470.939	5777
2472.899	5774
2474.86	5777
2476.819	5714
2478.778	5683
2480.737	5769
2482.695	5689
2484.653	5736
2486.609	5720
2488.567	5725
2490.524	5748
2492.478	5745
2494.433	5714
2496.387	5781
2498.343	5815
2500.297	5764
2502.249	5673
2504.202	5653
2506.153	5735
2508.105	5786
2510.057	5632
2512.008	5664
2513.957	5747
2515.906	5641
2517.855	5660
2519.805	5631
2521.754	5705
2523.7	5727
2525.647	5664
2527.594	5671
2529.54	5731
2531.486	5611
2533.431	5562
2535.376	5680
2537.32	5623
2539.263	5643
2541.207	5690
2543.151	5592
2545.093	5580
2547.034	5646
2548.975	5695
2550.917	5722
2552.856	5720
2554.796	5697
2556.735	5704
2558.673	5684
2560.611	5647
2562.55	5676
2564.487	5634
2566.424	5627
2568.36	5701
2570.296	5660
2572.232	5638
2574.167	5615
2576.101	5568
2578.035	5647
2579.969	5630
2581.902	5591
2583.834	5613
2585.766	5707
2587.698	5672
2589.628	5581
2591.557	5699
2593.489	5666
2595.419	5647
2597.348	5569
2599.275	5621
2601.204	5585
2603.131	5623
2605.059	5766
2606.986	5671
2608.911	5611
2610.837	5748
2612.76	5641
2614.687	5675
2616.61	5718
2618.534	5631
2620.457	5561
2622.38	5663
2624.302	5689
2626.225	5600
2628.145	5559
2630.067	5680
2631.986	5655
2633.906	5706
2635.827	5619
2637.745	5672
2639.662	5695
2641.581	5573
2643.498	5635
2645.415	5645
2647.331	5575
2649.248	5681
2651.163	5585
2653.077	5728
2654.993	5584
2656.906	5508
2658.821	5691
2660.733	5596
2662.646	5702
2664.557	5572
2666.47	5601
2668.381	5603
2670.291	5577
2672.201	5677
2674.11	5584
2676.021	5599
2677.929	5689
2679.837	5695
2681.745	5472
2683.652	5499
2685.56	5549
2687.466	5589
2689.371	5662
2691.276	5608
2693.181	5567
2695.085	5568
2696.991	5508
2698.893	5553
2700.796	5564
2702.698	5591
2704.601	5593
2706.502	5597
2708.404	5532
2710.304	5579
2712.203	5538
2714.103	5537
2716.003	5613
2717.902	5613
2719.8	5438
2721.697	5441
2723.594	5496
2725.49	5449
2727.389	5474
2729.283	5500
2731.179	5509
2733.073	5515
2734.968	5665
2736.863	5467
2738.757	5496
2740.649	5498
2742.541	5549
2744.433	5538
2746.324	5498
2748.216	5484
2750.107	5379
2751.997	5462
2753.886	5571
2755.776	5452
2757.666	5507
2759.553	5575
2761.44	5450
2763.327	5418
2765.215	5576
2767.102	5439
2768.988	5485
2770.873	5375
2772.757	5440
2774.641	5519
2776.525	5498
2778.41	5469
2780.292	5423
2782.175	5365
2784.057	5387
2785.938	5327
2787.821	5453
2789.701	5484
2791.581	5399
2793.461	5334
2795.34	5422
2797.219	5434
2799.099	5362
2800.975	5403
2802.853	5412
2804.73	5316
2806.606	5384
2808.484	5492
2810.358	5415
2812.233	5496
2814.108	5436
2815.981	5343
2817.857	5350
2819.73	5460
2821.602	5341
2823.474	5339
2825.346	5338
2827.217	5355
2829.089	5369
2830.959	5375
2832.829	5430
2834.698	5314
2836.567	5388
2838.436	5352
2840.305	5305
2842.172	5408
2844.04	5356
2845.905	5400
2847.772	5371
2849.639	5404
2851.503	5476
2853.369	5390
2855.232	5489
2857.096	5437
2858.961	5438
2860.824	5525
2862.686	5444
2864.547	5440
2866.41	5546
2868.272	5520
2870.132	5505
2871.992	5744
2873.851	5678
2875.711	5683
2877.57	5754
2879.429	5739
2881.287	5860
2883.144	5806
2885.001	5858
2886.857	5758
2888.714	5799
2890.57	5776
2892.425	5849
2894.279	5856
2896.133	5835
2897.987	5844
2899.842	5872
2901.694	5863
2903.547	5797
2905.397	5794
2907.249	5702
2909.101	5894
2910.952	5815
2912.802	5972
2914.652	5773
2916.5	5932
2918.35	6069
2920.198	5958
2922.045	6007
2923.893	6074
2925.74	6048
2927.585	6160
2929.433	6264
2931.279	6241
2933.123	6274
2934.968	6309
2936.811	6317
2938.656	6354
2940.5	6338
2942.342	6541
2944.185	6547
2946.026	6404
2947.87	6417
2949.71	6500
2951.549	6473
2953.39	6519
2955.229	6268
2957.069	6275
2958.908	6279
2960.746	6181
2962.584	6128
2964.421	6111
2966.257	6148
2968.094	5972
2969.931	5949
2971.766	6001
2973.601	5939
2975.435	5866
2977.27	5885
2979.105	5845
2980.938	5909
2982.77	5788
2984.602	5891
2986.434	5836
2988.267	5741
2990.097	5725
2991.927	5668
2993.757	5666
2995.587	5587
2997.417	5540
2999.246	5545
3001.074	5587
3002.902	5507
3004.729	5402
3006.556	5346
3008.384	5458
3010.21	5415
3012.036	5271
3013.861	5342
3015.684	5234
3017.51	5306
3019.334	5188
3021.157	5159
3022.981	5096
3024.802	5106
3026.624	5147
3028.448	5086
3030.267	5193
3032.088	5078
3033.909	5189
3035.728	5055
3037.549	5030
3039.368	5049
3041.186	5069
3043.004	5021
3044.821	4993
3046.64	4946
3048.455	5002
3050.272	5045
3052.087	5028
3053.903	5094
3055.717	4973
3057.534	4975
3059.347	5039
3061.16	5137
3062.974	5001
3064.785	5008
3066.598	5085
3068.411	5010
3070.222	5056
3072.032	4968
3073.844	4907
3075.653	4998
3077.463	5071
3079.272	4923
3081.08	4866
3082.889	4896
3084.697	4891
3086.505	4936
3088.312	4829
3090.118	4916
3091.924	4894
3093.729	4947
3095.535	4934
3097.34	4820
3099.144	4882
3100.947	4806
3102.75	4884
3104.553	4906
3106.357	4854
3108.159	4892
3109.961	4772
3111.762	4837
3113.562	4924
3115.365	4788
3117.164	4938
3118.964	4910
3120.761	4785
3122.56	4853
3124.36	4741
3126.158	4769
3127.954	4729
3129.75	4802
3131.547	4796
3133.343	4743
3135.139	4753
3136.934	4798
3138.729	4820
3140.522	4626
3142.317	4705
3144.11	4774
3145.904	4786
3147.695	4662
3149.488	4694
3151.28	4680
3153.07	4707
3154.863	4682
3156.652	4676
3158.441	4736
3160.231	4796
3162.019	4693
3163.81	4754
3165.597	4787
3167.384	4695
3169.172	4612
3170.958	4762
3172.745	4675
3174.532	4779
3176.317	4665
3178.101	4701
3179.885	4636
3181.67	4606
3183.455	4645
3185.238	4694
3187.02	4629
3188.802	4671
3190.585	4706
3192.368	4667
3194.149	4627
3195.929	4585
3197.709	4670
3199.489	4573
3201.268	4664
3203.048	4648
3204.826	4652
3206.604	4593
3208.382	4659
3210.159	4692
3211.937	4556
3213.713	4689
3215.489	4669
3217.263	4544
3219.038	4678
3220.815	4634
3222.589	4684
3224.363	4558
3226.136	4528
3227.908	4640
3229.681	4675
3231.454	4639
3233.226	4586
3234.996	4566
3236.767	4584
3238.538	4570
3240.308	4604
3242.078	4558
3243.847	4672
3245.615	4642
3247.384	4587
3249.15	4628
3250.92	4666
3252.686	4692
3254.453	4644
3256.218	4621
3257.984	4615
3259.75	4528
3261.515	4632
3263.279	4660
3265.044	4546
3266.806	4613
3268.57	4639
3270.334	4656
3272.095	4657
3273.856	4560
3275.619	4660
3277.379	4524
3279.14	4663
3280.9	4481
3282.661	4663
3284.419	4654
3286.178	4594
3287.937	4605
3289.695	4633
3291.453	4633
3293.21	4618
3294.967	4563
3296.723	4649
3298.48	4649
3300.235	4606
3301.99	4507
3303.744	4604
3305.498	4579
3307.253	4642
3309.006	4603
3310.759	4559
3312.511	4578
3314.263	4521
3316.017	4565
3317.768	4621
3319.519	4577
3321.268	4567
3323.018	4618
3324.767	4554
3326.518	4549
3328.267	4550
3330.014	4639
3331.762	4571
3333.509	4575
3335.258	4619
3337.003	4603
3338.75	4630
3340.496	4547
3342.24	4520
3343.987	4597
3345.732	4628
3347.475	4592
3349.219	4461
3350.961	4439
3352.705	4510
3354.448	4510
3356.19	4468
3357.931	4555
3359.672	4527
3361.412	4455
3363.155	4546
3364.894	4434
3366.633	4516
3368.372	4389
3370.11	4452
3371.849	4468
3373.588	4436
3375.325	4396
3377.061	4445
3378.799	4372
3380.534	4458
3382.271	4379
3384.006	4454
3385.741	4431
3387.475	4367
3389.209	4412
3390.944	4409
3392.677	4397
3394.409	4448
3396.143	4429
3397.874	4442
3399.606	4455
3401.338	4436
3403.069	4460
3404.799	4550
3406.528	4415
3408.258	4368
3409.988	4418
3411.717	4446
3413.445	4297
3415.173	4555
3416.899	4404
3418.626	4297
3420.354	4440
3422.08	4351
3423.806	4340
3425.531	4335
3427.255	4365
3428.981	4345
3430.705	4249
3432.429	4339
3434.151	4286
3435.875	4345
3437.599	4358
3439.321	4300
3441.042	4311
3442.763	4307
3444.483	4269
3446.204	4286
3447.926	4230
3449.645	4281
3451.364	4329
3453.082	4261
3454.801	4275
3456.52	4241
3458.238	4182
3459.954	4178
3461.671	4156
3463.387	4300
3465.104	4257
3466.82	4165
3468.534	4163
3470.25	4116
3471.963	4118
3473.676	4180
3475.392	4133
3477.104	4147
3478.817	4171
3480.528	4084
3482.241	4188
3483.954	4185
3485.664	4141
3487.374	4177
3489.084	4157
3490.795	4153
3492.504	4171
3494.214	4161
3495.922	4111
3497.63	4121
3499.338	4131
3501.045	4061
3502.753	4119
3504.459	4061
3506.166	3995
3507.871	4093
3509.576	4073
3511.283	4030
3512.987	4114
3514.691	4030
3516.395	4131
3518.098	4029
3519.8	4060
3521.504	4045
3523.206	4008
3524.908	3962
3526.609	4058
3528.309	3989
3530.011	3989
3531.711	4150
3533.411	4014
3535.109	3974
3536.808	3953
3538.507	4004
3540.206	4009
3541.904	4038
3543.601	3970
3545.297	4024
3546.994	3883
3548.69	3961
3550.387	3949
3552.081	3997
3553.776	3934
3555.47	3981
3557.166	3979
3558.859	3917
3560.553	3882
3562.245	3895
3563.938	4005
3565.629	3953
3567.322	3940
3569.014	3932
3570.704	3937
3572.394	3927
3574.084	3892
3575.775	3832
3577.464	3849
3579.152	3903
3580.842	3856
3582.529	3823
3584.216	3829
3585.905	3819
3587.591	3762
3589.279	3810
3590.964	3880
3592.649	3808
3594.336	3753
3596.021	3785
3597.705	3691
3599.388	3759
3601.072	3884
3602.757	3812
3604.439	3771
3606.122	3866
3607.803	3798
3609.485	3757
3611.167	3773
3612.849	3827
3614.529	3777
3616.208	3752
3617.888	3811
3619.567	3822
3621.247	3771
3622.926	3708
3624.603	3741
3626.281	3746
3627.958	3837
3629.635	3674
3631.312	3725
3632.989	3747
3634.665	3697
3636.339	3691
3638.014	3707
3639.691	3744
3641.364	3671
3643.038	3682
3644.71	3606
3646.384	3720
3648.058	3662
3649.729	3703
3651.402	3625
3653.073	3616
3654.744	3690
3656.414	3672
3658.085	3675
3659.755	3671
3661.424	3635
3663.094	3582
3664.762	3465
3666.431	3624
3668.099	3606
3669.766	3555
3671.433	3527
3673.099	3549
3674.768	3599
3676.433	3638
3678.098	3570
3679.763	3592
3681.428	3646
3683.093	3626
3684.757	3549
3686.421	3562
3688.083	3578
3689.746	3556
3691.408	3523
3693.071	3523
3694.733	3582
3696.394	3585
3698.054	3584
3699.715	3569
3701.375	3508
3703.036	3647
3704.695	3579
3706.354	3543
3708.012	3550
3709.67	3507
3711.329	3587
3712.987	3496
3714.644	3490
3716.299	3513
3717.955	3488
3719.613	3529
3721.268	3529
3722.923	3463
3724.577	3385
3726.231	3473
3727.885	3488
3729.539	3513
3731.192	3472
3732.845	3547
3734.497	3459
3736.149	3466
3737.802	3466
3739.453	3430
3741.104	3450
3742.753	3476
3744.404	3480
3746.052	3503
3747.704	3406
3749.352	3486
3751	3543
3752.648	3490
3754.296	3444
3755.944	3480
3757.59	3462
3759.238	3464
3760.883	3437
3762.528	3473
3764.176	3453
3765.82	3433
3767.464	3426
3769.109	3421
3770.753	3461
3772.396	3445
3774.04	3425
3775.683	3452
3777.325	3405
3778.967	3441
3780.608	3377
3782.25	3383
3783.89	3386
3785.531	3488
3787.17	3260
3788.81	3365
3790.45	3326
3792.09	3402
3793.729	3422
3795.366	3343
3797.003	3314
3798.64	3428
3800.278	3324
3801.915	3299
3803.551	3380
3805.187	3349
3806.822	3324
3808.458	3371
3810.093	3380
3811.726	3294
3813.36	3334
3814.994	3251
3816.627	3360
3818.262	3388
3819.893	3317
3821.525	3287
3823.157	3312
3824.787	3296
3826.42	3267
3828.051	3270
3829.68	3305
3831.31	3312
3832.938	3304
3834.569	3250
3836.198	3300
3837.825	3266
3839.454	3258
3841.08	3324
3842.708	3256
3844.335	3298
3845.962	3277
3847.587	3214
3849.212	3293
3850.838	3237
3852.463	3272
3854.089	3281
3855.712	3214
3857.335	3269
3858.959	3213
3860.582	3251
3862.205	3308
3863.827	3280
3865.449	3127
3867.07	3236
3868.691	3224
3870.312	3291
3871.933	3191
3873.553	3214
3875.173	3222
3876.792	3122
3878.411	3144
3880.03	3156
3881.647	3179
3883.265	3234
3884.882	3228
3886.499	3170
3888.116	3202
3889.732	3216
3891.348	3185
3892.964	3165
3894.579	3141
3896.195	3195
3897.809	3129
3899.423	3203
3901.036	3189
3902.648	3206
3904.261	3109
3905.875	3135
3907.487	3185
3909.099	3147
3910.709	3121
3912.321	3151
3913.933	3139
3915.542	3148
3917.152	3135
3918.762	3173
3920.37	3136
3921.98	3137
3923.589	3193
3925.196	3142
3926.804	3137
3928.41	3135
3930.018	3098
3931.626	3164
3933.231	3065
3934.838	3111
3936.442	3074
3938.046	3077
3939.653	3123
3941.257	3079
3942.861	3134
3944.464	3077
3946.068	3096
3947.67	3085
3949.273	3092
3950.876	3053
3952.477	3047
3954.078	3124
3955.678	3084
3957.281	3073
3958.881	3048
3960.48	3114
3962.079	3057
3963.678	3076
3965.279	3081
3966.877	3069
3968.475	3106
3970.072	3094
3971.669	3006
3973.266	3053
3974.864	3096
3976.459	2958
3978.055	3051
3979.65	3004
3981.245	3035
3982.841	3022
3984.436	2987
3986.03	3065
3987.623	3030
3989.216	2978
3990.809	3014
3992.403	2935
3993.995	2976
3995.586	2953
3997.177	3026
3998.768	2989
4000.361	2974
4001.951	2977
4003.54	2952
4005.13	2900
4006.719	2879
4008.31	2967
4009.897	2979
4011.485	2983
4013.073	2950
4014.66	2982
4016.247	2842
4017.834	2863
4019.421	2952
4021.006	2983
4022.592	2952
4024.178	2870
4025.763	2912
4027.348	2904
4028.932	2834
4030.515	2898
4032.099	2918
4033.682	2952
4035.266	2878
4036.847	2837
4038.429	2952
4040.011	2820
4041.592	2950
4043.173	2863
4044.755	2897
4046.334	2830
4047.913	2852
4049.494	2888
4051.074	2822
4052.652	2842
4054.23	2869
4055.807	2853
4057.385	2858
4058.963	2861
4060.541	2846
4062.117	2898
4063.693	2775
4065.269	2811
4066.844	2811
4068.42	2847
4069.995	2826
4071.569	2884
4073.143	2886
4074.716	2792
4076.291	2842
4077.864	2741
4079.436	2861
4081.009	2845
4082.58	2808
4084.152	2784
4085.723	2772
4087.294	2793
4088.865	2877
4090.435	2814
4092.005	2794
4093.574	2784
4095.143	2844
4096.712	2764
4098.279	2827
4099.848	2762
4101.416	2776
4102.984	2818
4104.55	2733
4106.117	2759
4107.682	2767
4109.248	2663
4110.815	2723
4112.379	2732
4113.945	2757
4115.508	2743
4117.073	2769
4118.637	2773
4120.201	2706
4121.763	2749
4123.325	2731
4124.888	2672
4126.449	2720
4128.013	2707
4129.573	2729
4131.133	2702
4132.694	2758
4134.254	2779
4135.814	2703
4137.374	2684
4138.933	2666
4140.491	2771
4142.049	2698
4143.607	2666
4145.167	2717
4146.724	2696
4148.28	2704
4149.836	2671
4151.392	2680
4152.949	2646
4154.504	2664
4156.059	2607
4157.614	2645
4159.168	2667
4160.723	2674
4162.277	2643
4163.83	2678
4165.383	2652
4166.936	2616
4168.488	2646
4170.041	2657
4171.593	2607
4173.144	2585
4174.695	2616
4176.246	2619
4177.796	2611
4179.346	2596
4180.896	2556
4182.445	2602
4183.994	2557
4185.542	2585
4187.091	2635
4188.639	2625
4190.185	2560
4191.732	2561
4193.279	2599
4194.826	2608
4196.373	2638
4197.918	2544
4199.463	2582
4201.008	2605
4202.553	2571
4204.098	2549
4205.641	2555
4207.185	2580
4208.728	2568
4210.271	2584
4211.814	2605
4213.357	2530
4214.898	2590
4216.439	2566
4217.98	2515
4219.522	2609
4221.062	2536
4222.603	2542
4224.142	2607
4225.681	2533
4227.222	2510
4228.76	2459
4230.298	2546
4231.835	2568
4233.373	2457
4234.911	2565
4236.449	2525
4237.985	2512
4239.521	2431
4241.057	2554
4242.592	2450
4244.128	2544
4245.663	2542
4247.197	2537
4248.731	2556
4250.265	2502
4251.798	2493
4253.333	2515
4254.865	2533
4256.397	2473
4257.93	2547
4259.461	2521
4260.994	2427
4262.525	2527
4264.056	2484
4265.586	2535
4267.115	2525
4268.646	2481
4270.176	2481
4271.705	2491
4273.232	2475
4274.761	2457
4276.289	2478
4277.818	2436
4279.345	2525
4280.872	2427
4282.399	2420
4283.924	2481
4285.452	2415
4286.976	2456
4288.502	2442
4290.026	2497
4291.551	2426
4293.074	2382
4294.6	2437
4296.123	2490
4297.646	2437
4299.168	2458
4300.691	2406
4302.214	2437
4303.736	2403
4305.257	2419
4306.778	2417
4308.299	2420
4309.82	2425
4311.34	2410
4312.86	2394
4314.379	2429
