400.0745	4687
402.597	4698
405.1208	4744
407.6419	4724
410.1623	4806
412.6819	4684
415.201	4788
417.7172	4806
420.2369	4904
422.7538	5022
425.2701	4928
427.7856	4961
430.3005	5068
432.8147	5083
435.3282	5003
437.841	5109
440.3511	5054
442.8625	4960
445.3753	5018
447.8854	5053
450.3927	5096
452.9014	5095
455.4073	5085
457.9146	4980
460.4233	5067
462.9272	5035
465.4325	5015
467.935	5068
470.4389	4995
472.9421	5009
475.4446	5010
477.9444	5099
480.4456	5036
482.944	5041
485.4417	5124
487.9429	5126
490.4393	5122
492.935	5210
495.4321	5177
497.9264	5188
500.4221	5251
502.9171	5297
505.4094	5229
507.9011	5260
510.392	5184
512.8864	5184
515.3759	5198
517.8649	5344
520.3531	5249
522.8406	5248
525.3275	5239
527.8178	5275
530.3033	5240
532.7881	5319
535.2723	5226
537.7558	5311
540.2407	5262
542.7228	5163
545.2043	5213
547.6851	5294
550.1652	5295
552.6467	5288
555.1255	5344
557.6016	5363
560.079	5316
562.5557	5338
565.0318	5389
567.5092	5424
569.984	5429
572.456	5393
574.9294	5441
577.4022	5471
579.8762	5582
582.3456	5545
584.8163	5446
587.2863	5510
589.7557	5439
592.2224	5562
594.6924	5385
597.1578	5630
599.6245	5464
602.0905	5444
604.5538	5508
607.0206	5399
609.4825	5488
611.9459	5598
614.4066	5457
616.8686	5530
619.33	5500
621.7906	5435
624.2487	5458
626.708	5420
629.1647	5340
631.6207	5501
634.0801	5457
636.5348	5431
638.9888	5436
641.4442	5468
643.8969	5505
646.3509	5398
648.8022	5387
651.255	5491
653.705	5474
656.1544	5543
658.6031	5571
661.0532	5616
663.5026	5496
665.9493	5518
668.3954	5543
670.8409	5490
673.2877	5634
675.7318	5583
678.1752	5581
680.618	5492
683.0601	5617
685.5035	5641
687.9444	5736
690.3845	5700
692.824	5618
695.2628	5644
697.701	5584
700.1406	5637
702.5774	5586
705.0116	5711
707.4472	5739
709.8821	5732
712.3183	5665
714.7519	5720
717.1829	5746
719.6151	5850
722.0468	5739
724.4777	5950
726.908	5742
729.3377	5834
731.7667	5880
734.1931	5913
736.6208	5933
739.0498	5911
741.4742	5768
743.9	5805
746.3231	5923
748.7476	5951
751.1713	5880
753.5945	5991
756.015	6013
758.4368	5953
760.856	5962
763.2766	6060
765.6965	5989
768.1157	6054
770.5323	6055
772.9483	6042
775.3656	6034
777.7822	5998
780.1963	6039
782.6116	6100
785.0244	6055
787.4365	6042
789.8499	6157
792.2626	6136
794.6728	6092
797.0823	6109
799.4911	6011
801.8994	6153
804.3109	6141
806.7178	6065
809.124	6109
811.5297	6022
813.9347	6214
816.341	6122
818.7447	6117
821.1478	6058
823.5502	6092
825.952	6322
828.3531	6212
830.7556	6084
833.1554	6188
835.5546	6160
837.9532	6120
840.3511	6172
842.7504	6314
845.1451	6285
847.5411	6119
849.9365	6269
852.3312	6286
854.7272	6405
857.1187	6366
859.5115	6385
861.9037	6233
864.2952	6302
866.6842	6195
869.0764	6366
871.4661	6244
873.8531	6262
876.2415	6274
878.6272	6347
881.0162	6303
883.4026	6301
885.7866	6269
888.1717	6276
890.5543	6363
892.9382	6364
895.3215	6235
897.7041	6300
900.0842	6341
902.4655	6299
904.8443	6280
907.2244	6250
909.6039	6322
911.9808	6238
914.357	6365
916.7346	6429
919.1115	6540
921.4859	6575
923.8616	6624
926.2347	6632
928.6071	6673
930.979	6606
933.3541	6605
935.7247	6762
938.0946	6647
940.4639	6497
942.8326	6777
945.2026	6741
947.5701	7010
949.9369	7130
952.305	7106
954.6705	7333
957.0355	7610
959.4017	7776
961.7654	7958
964.1284	7850
966.4908	7819
968.8527	7478
971.2138	7098
973.5743	7022
975.9343	6831
978.2936	6635
980.6522	6656
983.0122	6510
985.3696	6479
987.7245	6530
990.0807	6529
992.4362	6418
994.7911	6488
997.1474	6438
999.4991	6485
1001.852	6545
1004.205	6604
1006.555	6460
1008.908	6578
1011.258	6552
1013.606	6550
1015.956	6578
1018.302	6373
1020.652	6634
1022.998	6546
1025.345	6653
1027.691	6584
1030.035	6600
1032.378	6567
1034.724	6637
1037.066	6652
1039.409	6712
1041.75	6662
1044.092	6640
1046.433	6482
1048.771	6577
1051.112	6581
1053.449	6501
1055.786	6734
1058.124	6595
1060.462	6663
1062.797	6549
1065.131	6765
1067.467	6688
1069.8	6737
1072.135	6821
1074.467	6789
1076.798	6704
1079.129	6764
1081.459	6782
1083.792	6737
1086.121	6651
1088.449	6598
1090.777	6616
1093.104	6618
1095.431	6715
1097.759	6644
1100.084	6674
1102.408	6628
1104.732	6584
1107.056	6666
1109.379	6643
1111.701	6713
1114.022	6665
1116.343	6615
1118.664	6682
1120.983	6729
1123.303	6608
1125.621	6667
1127.939	6680
1130.256	6624
1132.573	6692
1134.889	6623
1137.205	6674
1139.52	6651
1141.832	6649
1144.146	6645
1146.461	6682
1148.771	6730
1151.083	6742
1153.392	6650
1155.703	6666
1158.011	6620
1160.323	6658
1162.629	6801
1164.938	6702
1167.243	6681
1169.55	6573
1171.857	6581
1174.163	6764
1176.466	6577
1178.769	6656
1181.073	6672
1183.374	6736
1185.677	6603
1187.979	6858
1190.279	6458
1192.578	6732
1194.878	6658
1197.178	6654
1199.476	6667
1201.772	6674
1204.068	6601
1206.366	6718
1208.663	6676
1210.957	6778
1213.251	6666
1215.544	6639
1217.836	6736
1220.128	6580
1222.421	6664
1224.712	6828
1227.002	6768
1229.292	6902
1231.581	6743
1233.871	6875
1236.159	6789
1238.446	6650
1240.732	6853
1243.018	6821
1245.304	6980
1247.59	6938
1249.874	6952
1252.156	6896
1254.439	7038
1256.721	6909
1259.005	6846
1261.286	6958
1263.565	6911
1265.845	6835
1268.125	6884
1270.403	7018
1272.682	6935
1274.959	6813
1277.234	6999
1279.511	6811
1281.787	6918
1284.062	6818
1286.337	6903
1288.609	6918
1290.882	6851
1293.153	6835
1295.428	6791
1297.698	6885
1299.969	6789
1302.237	6815
1304.507	6755
1306.777	6801
1309.044	6910
1311.312	6835
1313.578	6852
1315.844	6756
1318.109	6819
1320.375	6763
1322.638	6787
1324.903	6821
1327.165	6803
1329.427	6855
1331.69	6853
1333.952	6837
1336.212	6816
1338.471	6809
1340.73	6868
1342.988	6863
1345.248	6754
1347.505	6956
1349.763	6867
1352.019	6780
1354.274	6827
1356.53	6856
1358.784	6804
1361.038	6907
1363.291	6814
1365.543	6822
1367.797	6883
1370.048	6684
1372.296	6804
1374.546	6868
1376.796	6867
1379.045	6874
1381.295	6811
1383.542	6804
1385.787	6918
1388.034	6794
1390.28	6987
1392.527	6992
1394.772	7083
1397.014	7017
1399.258	7006
1401.501	6962
1403.741	7075
1405.985	7052
1408.226	6936
1410.465	6914
1412.705	7036
1414.943	6958
1417.184	6962
1419.42	7021
1421.658	6986
1423.894	6993
1426.13	6945
1428.366	6920
1430.602	7087
1432.835	7044
1435.069	7030
1437.301	7106
1439.535	7060
1441.767	6962
1443.997	7045
1446.229	7004
1448.458	7033
1450.687	6973
1452.916	7236
1455.146	7155
1457.372	7224
1459.599	7155
1461.824	7155
1464.051	7113
1466.277	7175
1468.501	7108
1470.725	7075
1472.948	6934
1475.17	6951
1477.393	6997
1479.614	7020
1481.837	6853
1484.057	6849
1486.276	6849
1488.497	6864
1490.715	6862
1492.932	6804
1495.148	6835
1497.364	6866
1499.58	6792
1501.798	6831
1504.012	6811
1506.227	6761
1508.44	6649
1510.653	6805
1512.866	6744
1515.078	6826
1517.289	6785
1519.5	6858
1521.711	6812
1523.92	6785
1526.13	6762
1528.338	6890
1530.544	6741
1532.752	6752
1534.959	6878
1537.165	6752
1539.371	6889
1541.574	6848
1543.779	6775
1545.983	6833
1548.187	6730
1550.39	6833
1552.59	6754
1554.792	6833
1556.991	6823
1559.19	6896
1561.392	6887
1563.59	6934
1565.789	6926
1567.986	6832
1570.182	6901
1572.381	6815
1574.576	6938
1576.771	6941
1578.966	7024
1581.16	6900
1583.354	6878
1585.546	6939
1587.74	7002
1589.931	6935
1592.121	7062
1594.311	6952
1596.502	6968
1598.693	6934
1600.881	7032
1603.069	6960
1605.256	7104
1607.445	7044
1609.631	7093
1611.816	6958
1614.001	7066
1616.186	7025
1618.37	7031
1620.555	6985
1622.737	7011
1624.919	7097
1627.101	7003
1629.282	7075
1631.463	7080
1633.643	7077
1635.822	7014
1638.001	7162
1640.179	6982
1642.359	7208
1644.534	7038
1646.711	7152
1648.887	7013
1651.062	6996
1653.235	7136
1655.412	7122
1657.586	7086
1659.757	7218
1661.93	7170
1664.1	7060
1666.274	7120
1668.445	7182
1670.614	7283
1672.784	7165
1674.951	7128
1677.12	7095
1679.289	7183
1681.457	7124
1683.622	7225
1685.789	7264
1687.953	7202
1690.121	7042
1692.284	7073
1694.447	7157
1696.611	7059
1698.772	7109
1700.935	7072
1703.098	7072
1705.258	6977
1707.417	7074
1709.576	6994
1711.736	7008
1713.896	6915
1716.053	6888
1718.21	6959
1720.366	6863
1722.522	6930
1724.68	6925
1726.835	6876
1728.989	6926
1731.142	6955
1733.295	6912
1735.449	6864
1737.601	6948
1739.753	6912
1741.903	6818
1744.054	6984
1746.203	7025
1748.354	6869
1750.503	6900
1752.651	7032
1754.798	6904
1756.944	7002
1759.092	6972
1761.238	7063
1763.383	6985
1765.528	7000
1767.672	6875
1769.814	6956
1771.959	7006
1774.102	7028
1776.242	7089
1778.384	6946
1780.525	6980
1782.665	7135
1784.805	6920
1786.945	6935
1789.082	7037
1791.22	7107
1793.36	6959
1795.495	6988
1797.632	7037
1799.766	6950
1801.902	7010
1804.035	7042
1806.172	6974
1808.304	7076
1810.436	7073
1812.569	6955
1814.699	7216
1816.833	6950
1818.963	7017
1821.092	7114
1823.222	6912
1825.35	6970
1827.478	7028
1829.608	7018
1831.734	7083
1833.86	6999
1835.986	7000
1838.11	6976
1840.238	6884
1842.362	6935
1844.485	6946
1846.608	6988
1848.73	6871
1850.853	6997
1852.974	6930
1855.097	6952
1857.217	6915
1859.336	6824
1861.455	6920
1863.576	6997
1865.693	6944
1867.811	6978
1869.926	6948
1872.042	6975
1874.16	6879
1876.275	6945
1878.39	6930
1880.504	6997
1882.618	6846
1884.731	6946
1886.843	6921
1888.956	6948
1891.067	6910
1893.178	6992
1895.287	6951
1897.399	6860
1899.508	6980
1901.617	6871
1903.724	7062
1905.832	7041
1907.941	7094
1910.046	7012
1912.152	7052
1914.256	7034
1916.361	7121
1918.464	7005
1920.57	7050
1922.672	7003
1924.775	7185
1926.876	6922
1928.978	7167
1931.08	7076
1933.181	7043
1935.28	6968
1937.38	7052
1939.478	7063
1941.577	7092
1943.675	7129
1945.771	7076
1947.867	7018
1949.964	7108
1952.058	6897
1954.154	7070
1956.248	6973
1958.343	7081
1960.435	7007
1962.527	7006
1964.62	7085
1966.711	6950
1968.802	7030
1970.892	6914
1972.983	6980
1975.072	7047
1977.162	7059
1979.25	6834
1981.337	7042
1983.424	6966
1985.51	7008
1987.598	6967
1989.683	6918
1991.768	6972
1993.852	7033
1995.934	7004
1998.019	7065
2000.102	7032
2002.184	6978
2004.266	6979
2006.347	6973
2008.427	7033
2010.508	7027
2012.587	7022
2014.666	7021
2016.745	6885
2018.821	6964
2020.9	6817
2022.977	7082
2025.052	6877
2027.128	7033
2029.204	7015
2031.277	6945
2033.353	6963
2035.425	7002
2037.499	7059
2039.57	6943
2041.642	6903
2043.714	6944
2045.786	7048
2047.855	7001
2049.925	6895
2051.993	7044
2054.064	6967
2056.132	6949
2058.2	7056
2060.266	6922
2062.332	7064
2064.398	6949
2066.465	7006
2068.529	6998
2070.592	7024
2072.657	7049
2074.719	7076
2076.783	6953
2078.845	6989
2080.907	6996
2082.968	7032
2085.028	7043
2087.087	7062
2089.148	6953
2091.207	6943
2093.264	6999
2095.322	7030
2097.379	7055
2099.439	6956
2101.495	6987
2103.55	7015
2105.605	6929
2107.658	6979
2109.713	7034
2111.767	7004
2113.82	7005
2115.872	7086
2117.924	6960
2119.975	6903
2122.028	7001
2124.078	6964
2126.126	7017
2128.176	7009
2130.225	6924
2132.275	6901
2134.321	6890
2136.368	7002
2138.415	6867
2140.461	6876
2142.505	6948
2144.552	7129
2146.597	7049
2148.64	6915
2150.684	6975
2152.725	7003
2154.77	6936
2156.811	6988
2158.852	7008
2160.894	6882
2162.933	7005
2164.973	7026
2167.013	7100
2169.051	6962
2171.089	6948
2173.126	6975
2175.164	7020
2177.201	6924
2179.236	6943
2181.273	6916
2183.307	6891
2185.341	6872
2187.377	6772
2189.41	6837
2191.442	6908
2193.473	6758
2195.506	6869
2197.539	6858
2199.569	6823
2201.598	6826
2203.628	6796
2205.656	6860
2207.686	6875
2209.716	6755
2211.743	6707
2213.769	6838
2215.796	6897
2217.821	6705
2219.848	6856
2221.873	6718
2223.897	6866
2225.921	6776
2227.944	6858
2229.967	6836
2231.991	6846
2234.011	6734
2236.032	6819
2238.053	6874
2240.073	6735
2242.094	6944
2244.114	6856
2246.131	6866
2248.149	6797
2250.167	6909
2252.186	6811
2254.201	6959
2256.218	6879
2258.233	6768
2260.247	6739
2262.262	6909
2264.278	6847
2266.29	6872
2268.303	6829
2270.315	6801
2272.327	6867
2274.341	6800
2276.35	6791
2278.361	6662
2280.37	6788
2282.38	6849
2284.388	6786
2286.397	6748
2288.405	6806
2290.412	6805
2292.419	6772
2294.425	6751
2296.431	6747
2298.437	6903
2300.441	6832
2302.445	6843
2304.449	6857
2306.453	6785
2308.455	6789
2310.457	6735
2312.459	6888
2314.46	6835
2316.46	6727
2318.461	6730
2320.46	6728
2322.458	6755
2324.458	6752
2326.456	6858
2328.455	6763
2330.451	6741
2332.447	6675
2334.443	6790
2336.438	6611
2338.433	6698
2340.429	6723
2342.422	6648
2344.416	6647
2346.408	6678
2348.399	6612
2350.393	6636
2352.384	6665
2354.375	6593
2356.365	6601
2358.355	6584
2360.344	6707
2362.333	6764
2364.322	6576
2366.309	6596
2368.295	6774
2370.282	6586
2372.27	6521
2374.256	6503
2376.24	6762
2378.225	6545
2380.208	6674
2382.194	6648
2384.177	6537
2386.159	6595
2388.142	6553
2390.122	6606
2392.105	6595
2394.085	6533
2396.066	6552
2398.044	6603
2400.024	6461
2402.002	6501
2403.982	6484
2405.959	6613
2407.935	6629
2409.913	6479
2411.888	6602
2413.865	6499
2415.84	6447
2417.814	6558
2419.788	6591
2421.762	6406
2423.735	6567
2425.708	6567
2427.68	6552
2429.651	6515
2431.623	6585
2433.593	6514
2435.564	6567
2437.533	6454
2439.502	6577
2441.47	6449
2443.438	6549
2445.406	6515
2447.373	6505
2449.34	6535
2451.305	6505
2453.271	6417
2455.235	6437
2457.201	6501
2459.165	6454
2461.129	6435
2463.092	6398
2465.054	6378
2467.018	6434
2468.978	6454
2470.939	6450
2472.899	6417
2474.86	6515
2476.819	6473
2478.778	6391
2480.737	6446
2482.695	6431
2484.653	6424
2486.609	6451
2488.567	6444
2490.524	6329
2492.478	6450
2494.433	6419
2496.387	6437
2498.343	6411
2500.297	6288
2502.249	6381
2504.202	6393
2506.153	6424
2508.105	6338
2510.057	6395
2512.008	6508
2513.957	6384
2515.906	6330
2517.855	6304
2519.805	6390
2521.754	6342
2523.7	6388
2525.647	6403
2527.594	6336
2529.54	6364
2531.486	6368
2533.431	6405
2535.376	6351
2537.32	6321
2539.263	6389
2541.207	6339
2543.151	6260
2545.093	6222
2547.034	6305
2548.975	6241
2550.917	6376
2552.856	6250
2554.796	6339
2556.735	6293
2558.673	6418
2560.611	6238
2562.55	6268
2564.487	6282
2566.424	6437
2568.36	6302
2570.296	6266
2572.232	6328
2574.167	6342
2576.101	6371
2578.035	6399
2579.969	6350
2581.902	6280
2583.834	6249
2585.766	6347
2587.698	6359
2589.628	6325
2591.557	6312
2593.489	6338
2595.419	6256
2597.348	6260
2599.275	6362
2601.204	6265
2603.131	6269
2605.059	6285
2606.986	6458
2608.911	6248
2610.837	6278
2612.76	6336
2614.687	6322
2616.61	6362
2618.534	6197
2620.457	6428
2622.38	6315
2624.302	6305
2626.225	6179
2628.145	6305
2630.067	6274
2631.986	6332
2633.906	6283
2635.827	6291
2637.745	6323
2639.662	6428
2641.581	6325
2643.498	6306
2645.415	6318
2647.331	6224
2649.248	6310
2651.163	6404
2653.077	6357
2654.993	6372
2656.906	6325
2658.821	6247
2660.733	6260
2662.646	6221
2664.557	6267
2666.47	6220
2668.381	6338
2670.291	6246
2672.201	6299
2674.11	6259
2676.021	6239
2677.929	6222
2679.837	6298
2681.745	6255
2683.652	6209
2685.56	6193
2687.466	6238
2689.371	6263
2691.276	6121
2693.181	6206
2695.085	6107
2696.991	6087
2698.893	6289
2700.796	6215
2702.698	6196
2704.601	6245
2706.502	6221
2708.404	6243
2710.304	6051
2712.203	6174
2714.103	6130
2716.003	6136
2717.902	6170
2719.8	6121
2721.697	6101
2723.594	6066
2725.49	6055
2727.389	6236
2729.283	6045
2731.179	6116
2733.073	6177
2734.968	6173
2736.863	6113
2738.757	6080
2740.649	6042
2742.541	6016
2744.433	6184
2746.324	6039
2748.216	6111
2750.107	6191
2751.997	6082
2753.886	6116
2755.776	6100
2757.666	6167
2759.553	6107
2761.44	6033
2763.327	6036
2765.215	6153
2767.102	6102
2768.988	5966
2770.873	6072
2772.757	6140
2774.641	6022
2776.525	6073
2778.41	6031
2780.292	5979
2782.175	6197
2784.057	6047
2785.938	6034
2787.821	6093
2789.701	6186
2791.581	6068
2793.461	5933
2795.34	6080
2797.219	5967
2799.099	5942
2800.975	6188
2802.853	5963
2804.73	5950
2806.606	6015
2808.484	6038
2810.358	6005
2812.233	6001
2814.108	6044
2815.981	5965
2817.857	6057
2819.73	5999
2821.602	6040
2823.474	5978
2825.346	5919
2827.217	5998
2829.089	6029
2830.959	6000
2832.829	5941
2834.698	6229
2836.567	5935
2838.436	6032
2840.305	5928
2842.172	5958
2844.04	6039
2845.905	6011
2847.772	6003
2849.639	6022
2851.503	6119
2853.369	6017
2855.232	6054
2857.096	6120
2858.961	6099
2860.824	6050
2862.686	6237
2864.547	6244
2866.41	6161
2868.272	6206
2870.132	6152
2871.992	6162
2873.851	6361
2875.711	6422
2877.57	6400
2879.429	6407
2881.287	6439
2883.144	6628
2885.001	6561
2886.857	6488
2888.714	6526
2890.57	6636
2892.425	6481
2894.279	6570
2896.133	6562
2897.987	6545
2899.842	6548
2901.694	6502
2903.547	6477
2905.397	6410
2907.249	6550
2909.101	6525
2910.952	6488
2912.802	6574
2914.652	6578
2916.5	6626
2918.35	6710
2920.198	6683
2922.045	6745
2923.893	6803
2925.74	6737
2927.585	6962
2929.433	6875
2931.279	6994
2933.123	6891
2934.968	7044
2936.811	7056
2938.656	7099
2940.5	7206
2942.342	7259
2944.185	7258
2946.026	7316
2947.87	7316
2949.71	7326
2951.549	7184
2953.39	7286
2955.229	7124
2957.069	7035
2958.908	7013
2960.746	7131
2962.584	7069
2964.421	6949
2966.257	6973
2968.094	6829
2969.931	6731
2971.766	6636
2973.601	6781
2975.435	6707
2977.27	6631
2979.105	6668
2980.938	6542
2982.77	6503
2984.602	6387
2986.434	6555
2988.267	6403
2990.097	6432
2991.927	6341
2993.757	6360
2995.587	6298
2997.417	6243
2999.246	6275
3001.074	6176
3002.902	6139
3004.729	5979
3006.556	6088
3008.384	6029
3010.21	5913
3012.036	5922
3013.861	5865
3015.684	5856
3017.51	5801
3019.334	5770
3021.157	5801
3022.981	5664
3024.802	5663
3026.624	5605
3028.448	5775
3030.267	5734
3032.088	5707
3033.909	5708
3035.728	5678
3037.549	5729
3039.368	5532
3041.186	5599
3043.004	5610
3044.821	5594
3046.64	5615
3048.455	5559
3050.272	5662
3052.087	5602
3053.903	5526
3055.717	5583
3057.534	5500
3059.347	5588
3061.16	5516
3062.974	5526
3064.785	5495
3066.598	5550
3068.411	5630
3070.222	5448
3072.032	5639
3073.844	5582
3075.653	5533
3077.463	5587
3079.272	5509
3081.08	5575
3082.889	5520
3084.697	5453
3086.505	5483
3088.312	5412
3090.118	5454
3091.924	5341
3093.729	5534
3095.535	5461
3097.34	5417
3099.144	5463
3100.947	5407
3102.75	5407
3104.553	5458
3106.357	5450
3108.159	5279
3109.961	5415
3111.762	5336
3113.562	5505
3115.365	5318
3117.164	5194
3118.964	5329
3120.761	5407
3122.56	5279
3124.36	5290
3126.158	5279
3127.954	5310
3129.75	5412
3131.547	5392
3133.343	5219
3135.139	5322
3136.934	5435
3138.729	5366
3140.522	5175
3142.317	5311
3144.11	5272
3145.904	5287
3147.695	5275
3149.488	5313
3151.28	5243
3153.07	5246
3154.863	5182
3156.652	5288
3158.441	5266
3160.231	5225
3162.019	5197
3163.81	5278
3165.597	5328
3167.384	5180
3169.172	5121
3170.958	5243
3172.745	5224
3174.532	5259
3176.317	5138
3178.101	5206
3179.885	5253
3181.67	5171
3183.455	5255
3185.238	5166
3187.02	5176
3188.802	5272
3190.585	5243
3192.368	5171
3194.149	5173
3195.929	5119
3197.709	5162
3199.489	5091
3201.268	5028
3203.048	5158
3204.826	5266
3206.604	5173
3208.382	5176
3210.159	5064
3211.937	5074
3213.713	5102
3215.489	5095
3217.263	5134
3219.038	5093
3220.815	5245
3222.589	5114
3224.363	5298
3226.136	5203
3227.908	5139
3229.681	5223
3231.454	5166
3233.226	5175
3234.996	5182
3236.767	5108
3238.538	5177
3240.308	5156
3242.078	5194
3243.847	5194
3245.615	5051
3247.384	5152
3249.15	5148
3250.92	5038
3252.686	5125
3254.453	5107
3256.218	5141
3257.984	5097
3259.75	5152
3261.515	5060
3263.279	5165
3265.044	5094
3266.806	5122
3268.57	5064
3270.334	5064
3272.095	5050
3273.856	5064
3275.619	5019
3277.379	5147
3279.14	5137
3280.9	5073
3282.661	5146
3284.419	5165
3286.178	5124
3287.937	5117
3289.695	5089
3291.453	5103
3293.21	5178
3294.967	5142
3296.723	5169
3298.48	5092
3300.235	5108
3301.99	5138
3303.744	5090
3305.498	5109
3307.253	5170
3309.006	5218
3310.759	5092
3312.511	5124
3314.263	5105
3316.017	5100
3317.768	5210
3319.519	4975
3321.268	5120
3323.018	5168
3324.767	5104
3326.518	4997
3328.267	5095
3330.014	5146
3331.762	5091
3333.509	5031
3335.258	5133
3337.003	5081
3338.75	5054
3340.496	5014
3342.24	5133
3343.987	5115
3345.732	5126
3347.475	5040
3349.219	5166
3350.961	5103
3352.705	5049
3354.448	4956
3356.19	5059
3357.931	5039
3359.672	4974
3361.412	5089
3363.155	5072
3364.894	5021
3366.633	4865
3368.372	5025
3370.11	5029
3371.849	4923
3373.588	4985
3375.325	5016
3377.061	5053
3378.799	4986
3380.534	4992
3382.271	4967
3384.006	5042
3385.741	4874
3387.475	4958
3389.209	4864
3390.944	4983
3392.677	5018
3394.409	4830
3396.143	4908
3397.874	4925
3399.606	4920
3401.338	4916
3403.069	4919
3404.799	4983
3406.528	4878
3408.258	4942
3409.988	4943
3411.717	4839
3413.445	4925
3415.173	4839
3416.899	4727
3418.626	4890
3420.354	4873
3422.08	4796
3423.806	4883
3425.531	4757
3427.255	4785
3428.981	4832
3430.705	4832
3432.429	4793
3434.151	4862
3435.875	4809
3437.599	4787
3439.321	4754
3441.042	4844
3442.763	4757
3444.483	4723
3446.204	4740
3447.926	4767
3449.645	4670
3451.364	4721
3453.082	4673
3454.801	4745
3456.52	4699
3458.238	4769
3459.954	4777
3461.671	4667
3463.387	4765
3465.104	4668
3466.82	4703
3468.534	4762
3470.25	4656
3471.963	4635
3473.676	4589
3475.392	4757
3477.104	4687
3478.817	4721
3480.528	4706
3482.241	4584
3483.954	4677
3485.664	4613
3487.374	4620
3489.084	4618
3490.795	4509
3492.504	4651
3494.214	4597
3495.922	4652
3497.63	4632
3499.338	4591
3501.045	4569
3502.753	4500
3504.459	4580
3506.166	4556
3507.871	4677
3509.576	4547
3511.283	4523
3512.987	4581
3514.691	4495
3516.395	4523
3518.098	4599
3519.8	4537
3521.504	4479
3523.206	4443
3524.908	4453
3526.609	4549
3528.309	4531
3530.011	4471
3531.711	4526
3533.411	4515
3535.109	4509
3536.808	4500
3538.507	4509
3540.206	4520
3541.904	4516
3543.601	4431
3545.297	4450
3546.994	4354
3548.69	4366
3550.387	4395
3552.081	4366
3553.776	4425
3555.47	4364
3557.166	4364
3558.859	4417
3560.553	4313
3562.245	4442
3563.938	4428
3565.629	4382
3567.322	4427
3569.014	4395
3570.704	4474
3572.394	4363
3574.084	4370
3575.775	4378
3577.464	4349
3579.152	4350
3580.842	4312
3582.529	4423
3584.216	4274
3585.905	4334
3587.591	4332
3589.279	4306
3590.964	4213
3592.649	4332
3594.336	4228
3596.021	4252
3597.705	4358
3599.388	4244
3601.072	4239
3602.757	4223
3604.439	4193
3606.122	4267
3607.803	4300
3609.485	4184
3611.167	4282
3612.849	4187
3614.529	4260
3616.208	4288
3617.888	4209
3619.567	4184
3621.247	4212
3622.926	4042
3624.603	4143
3626.281	4108
3627.958	4147
3629.635	4217
3631.312	4208
3632.989	4129
3634.665	4114
3636.339	4179
3638.014	4111
3639.691	4115
3641.364	4148
3643.038	4098
3644.71	4212
3646.384	4049
3648.058	4080
3649.729	4189
3651.402	4053
3653.073	4077
3654.744	4091
3656.414	4122
3658.085	4075
3659.755	4089
3661.424	4034
3663.094	4085
3664.762	4098
3666.431	3983
3668.099	4098
3669.766	4008
3671.433	4096
3673.099	3930
3674.768	4037
3676.433	4040
3678.098	4081
3679.763	4133
3681.428	4036
3683.093	4035
3684.757	3948
3686.421	4026
3688.083	3895
3689.746	4070
3691.408	4109
3693.071	4000
3694.733	4005
3696.394	3921
3698.054	4018
3699.715	3953
3701.375	3941
3703.036	3989
3704.695	4001
3706.354	3935
3708.012	3978
3709.67	3918
3711.329	3934
3712.987	3919
3714.644	3953
3716.299	3934
3717.955	3897
3719.613	3916
3721.268	3889
3722.923	3903
3724.577	3885
3726.231	3919
3727.885	3943
3729.539	3916
3731.192	3935
3732.845	3887
3734.497	3972
3736.149	3974
3737.802	3906
3739.453	3936
3741.104	3868
3742.753	3866
3744.404	3783
3746.052	3841
3747.704	3864
3749.352	3870
3751	3871
3752.648	3841
3754.296	3821
3755.944	3822
3757.59	3850
3759.238	3823
3760.883	3803
3762.528	3818
3764.176	3818
3765.82	3803
3767.464	3813
3769.109	3870
3770.753	3798
3772.396	3810
3774.04	3847
3775.683	3832
3777.325	3895
3778.967	3850
3780.608	3867
3782.25	3784
3783.89	3837
3785.531	3770
3787.17	3717
3788.81	3750
3790.45	3782
3792.09	3750
3793.729	3836
3795.366	3716
3797.003	3778
3798.64	3737
3800.278	3808
3801.915	3796
3803.551	3709
3805.187	3692
3806.822	3794
3808.458	3799
3810.093	3726
3811.726	3657
3813.36	3741
3814.994	3710
3816.627	3739
3818.262	3725
3819.893	3696
3821.525	3661
3823.157	3707
3824.787	3707
3826.42	3658
3828.051	3725
3829.68	3699
3831.31	3669
3832.938	3626
3834.569	3649
3836.198	3684
3837.825	3687
3839.454	3720
3841.08	3631
3842.708	3703
3844.335	3596
3845.962	3714
3847.587	3612
3849.212	3573
3850.838	3666
3852.463	3661
3854.089	3567
3855.712	3662
3857.335	3588
3858.959	3543
3860.582	3632
3862.205	3584
3863.827	3587
3865.449	3563
3867.07	3541
3868.691	3615
3870.312	3572
3871.933	3575
3873.553	3599
3875.173	3619
3876.792	3500
3878.411	3574
3880.03	3625
3881.647	3491
3883.265	3572
3884.882	3596
3886.499	3586
3888.116	3525
3889.732	3585
3891.348	3574
3892.964	3533
3894.579	3517
3896.195	3553
3897.809	3538
3899.423	3511
3901.036	3570
3902.648	3559
3904.261	3517
3905.875	3622
3907.487	3506
3909.099	3493
3910.709	3529
3912.321	3537
3913.933	3521
3915.542	3459
3917.152	3518
3918.762	3488
3920.37	3458
3921.98	3453
3923.589	3507
3925.196	3433
3926.804	3521
3928.41	3461
3930.018	3550
3931.626	3446
3933.231	3412
3934.838	3403
3936.442	3453
3938.046	3497
3939.653	3544
3941.257	3511
3942.861	3485
3944.464	3439
3946.068	3371
3947.67	3348
3949.273	3418
3950.876	3487
3952.477	3424
3954.078	3412
3955.678	3414
3957.281	3442
3958.881	3418
3960.48	3400
3962.079	3452
3963.678	3328
3965.279	3434
3966.877	3415
3968.475	3460
3970.072	3379
3971.669	3400
3973.266	3400
3974.864	3373
3976.459	3350
3978.055	3295
3979.65	7114
3981.245	3577
3982.841	3330
3984.436	3341
3986.03	3290
3987.623	3258
3989.216	3300
3990.809	3375
3992.403	3350
3993.995	3321
3995.586	3263
3997.177	3284
3998.768	3339
4000.361	3262
4001.951	3212
4003.54	3266
4005.13	3258
4006.719	3303
4008.31	3304
4009.897	3283
4011.485	3253
4013.073	3205
4014.66	3198
4016.247	3216
4017.834	3241
4019.421	3264
4021.006	3274
4022.592	3218
4024.178	3214
4025.763	3191
4027.348	3285
4028.932	3191
4030.515	3273
4032.099	3171
4033.682	3236
4035.266	3198
4036.847	3170
4038.429	3230
4040.011	3177
4041.592	3269
4043.173	3198
4044.755	3139
4046.334	3119
4047.913	3216
4049.494	3252
4051.074	3194
4052.652	3131
4054.23	3151
4055.807	3090
4057.385	3158
4058.963	3179
4060.541	3129
4062.117	3083
4063.693	3151
4065.269	3150
4066.844	3198
4068.42	3182
4069.995	3161
4071.569	3129
4073.143	3132
4074.716	3118
4076.291	3166
4077.864	3081
4079.436	3179
4081.009	3153
4082.58	3066
4084.152	3104
4085.723	3128
4087.294	3115
4088.865	3138
4090.435	3120
4092.005	3091
4093.574	3108
4095.143	3100
4096.712	3122
4098.279	2988
4099.848	3104
4101.416	3094
4102.984	3137
4104.55	3008
4106.117	3045
4107.682	3121
4109.248	3100
4110.815	3023
4112.379	3058
4113.945	3140
4115.508	3047
4117.073	3056
4118.637	3069
4120.201	3030
4121.763	2995
4123.325	3047
4124.888	3057
4126.449	3012
4128.013	2910
4129.573	3033
4131.133	3019
4132.694	3031
4134.254	3016
4135.814	3078
4137.374	3040
4138.933	2906
4140.491	2974
4142.049	2921
4143.607	2963
4145.167	3075
4146.724	3027
4148.28	2956
4149.836	2958
4151.392	2980
4152.949	3036
4154.504	2994
4156.059	3025
4157.614	3003
4159.168	2980
4160.723	2966
4162.277	2936
4163.83	2975
4165.383	2912
4166.936	2883
4168.488	2965
4170.041	2893
4171.593	2879
4173.144	2919
4174.695	2918
4176.246	2890
4177.796	2875
4179.346	2866
4180.896	2846
4182.445	2883
4183.994	2919
4185.542	2896
4187.091	2989
4188.639	2896
4190.185	2855
4191.732	2892
4193.279	2769
4194.826	2891
4196.373	2937
4197.918	2846
4199.463	2810
4201.008	2874
4202.553	2808
4204.098	2800
4205.641	2843
4207.185	2773
4208.728	2843
4210.271	2869
4211.814	2844
4213.357	2772
4214.898	2840
4216.439	2772
4217.98	2855
4219.522	2843
4221.062	2848
4222.603	2826
4224.142	2815
4225.681	2824
4227.222	2932
4228.76	2743
4230.298	2834
4231.835	2811
4233.373	2783
4234.911	2793
4236.449	2794
4237.985	2767
4239.521	2795
4241.057	2795
4242.592	2807
4244.128	2740
4245.663	2809
4247.197	2800
4248.731	2780
4250.265	2827
4251.798	2742
4253.333	2806
4254.865	2695
4256.397	2673
4257.93	2734
4259.461	2769
4260.994	2744
4262.525	2748
4264.056	2695
4265.586	2726
4267.115	2781
4268.646	2691
4270.176	2740
4271.705	2747
4273.232	2757
4274.761	2769
4276.289	2775
4277.818	2745
4279.345	2708
4280.872	2737
4282.399	2729
4283.924	2702
4285.452	2711
4286.976	2695
4288.502	2730
4290.026	2754
4291.551	2686
4293.074	2746
4294.6	2679
4296.123	2676
4297.646	2681
4299.168	2789
4300.691	2712
4302.214	2746
4303.736	2727
4305.257	2655
4306.778	2693
4308.299	2698
4309.82	2649
4311.34	2664
4312.86	2704
4314.379	2624
