400.0745	5724
402.597	5668
405.1208	5766
407.6419	5721
410.1623	5792
412.6819	5763
415.201	5750
417.7172	5878
420.2369	5926
422.7538	5890
425.2701	6000
427.7856	6060
430.3005	6066
432.8147	5963
435.3282	5951
437.841	6025
440.3511	6106
442.8625	6132
445.3753	6096
447.8854	6074
450.3927	6115
452.9014	6134
455.4073	6045
457.9146	6069
460.4233	6065
462.9272	6082
465.4325	6049
467.935	6099
470.4389	6189
472.9421	6127
475.4446	6148
477.9444	6118
480.4456	6128
482.944	6218
485.4417	6162
487.9429	6231
490.4393	6241
492.935	6257
495.4321	6162
497.9264	6177
500.4221	6248
502.9171	6406
505.4094	6276
507.9011	6342
510.392	6414
512.8864	6290
515.3759	6346
517.8649	6318
520.3531	6426
522.8406	6409
525.3275	6372
527.8178	6523
530.3033	6378
532.7881	6454
535.2723	6316
537.7558	6438
540.2407	6441
542.7228	6463
545.2043	6357
547.6851	6374
550.1652	6512
552.6467	6351
555.1255	6443
557.6016	6408
560.079	6493
562.5557	6433
565.0318	6500
567.5092	6502
569.984	6633
572.456	6565
574.9294	6602
577.4022	6636
579.8762	6769
582.3456	6718
584.8163	6717
587.2863	6758
589.7557	6712
592.2224	6692
594.6924	6765
597.1578	6718
599.6245	6552
602.0905	6668
604.5538	6681
607.0206	6641
609.4825	6674
611.9459	6694
614.4066	6496
616.8686	6558
619.33	6717
621.7906	6638
624.2487	6596
626.708	6547
629.1647	6718
631.6207	6665
634.0801	6700
636.5348	6728
638.9888	6725
641.4442	6731
643.8969	6616
646.3509	6620
648.8022	6809
651.255	6723
653.705	6685
656.1544	6741
658.6031	6673
661.0532	6832
663.5026	6837
665.9493	6856
668.3954	6830
670.8409	6811
673.2877	6831
675.7318	6755
678.1752	6803
680.618	6855
683.0601	6875
685.5035	6822
687.9444	6840
690.3845	6761
692.824	6847
695.2628	6897
697.701	6957
700.1406	7005
702.5774	6802
705.0116	6913
707.4472	6932
709.8821	7031
712.3183	7123
714.7519	6970
717.1829	7026
719.6151	7061
722.0468	7121
724.4777	7087
726.908	7131
729.3377	7119
731.7667	7006
734.1931	7063
736.6208	7216
739.0498	7267
741.4742	7159
743.9	7247
746.3231	7169
748.7476	7394
751.1713	7326
753.5945	7427
756.015	7305
758.4368	7354
760.856	7374
763.2766	7380
765.6965	7369
768.1157	7386
770.5323	7302
772.9483	7497
775.3656	7338
777.7822	7419
780.1963	7375
782.6116	7497
785.0244	7226
787.4365	7447
789.8499	7506
792.2626	7339
794.6728	7447
797.0823	7418
799.4911	7479
801.8994	7357
804.3109	7411
806.7178	7565
809.124	7517
811.5297	7525
813.9347	7462
816.341	7457
818.7447	7448
821.1478	7538
823.5502	7572
825.952	7555
828.3531	7506
830.7556	7443
833.1554	7541
835.5546	7505
837.9532	7578
840.3511	7640
842.7504	7643
845.1451	7592
847.5411	7573
849.9365	7591
852.3312	7710
854.7272	7603
857.1187	7648
859.5115	7706
861.9037	7568
864.2952	7755
866.6842	7596
869.0764	7663
871.4661	7658
873.8531	7717
876.2415	7605
878.6272	7601
881.0162	7711
883.4026	7638
885.7866	7719
888.1717	7617
890.5543	7692
892.9382	7528
895.3215	7558
897.7041	7762
900.0842	7683
902.4655	7658
904.8443	7643
907.2244	7750
909.6039	7719
911.9808	7653
914.357	7736
916.7346	7735
919.1115	7898
921.4859	7856
923.8616	7963
926.2347	7987
928.6071	7860
930.979	7949
933.3541	7898
935.7247	8053
938.0946	8016
940.4639	8122
942.8326	8170
945.2026	8163
947.5701	8370
949.9369	8537
952.305	8688
954.6705	8964
957.0355	9258
959.4017	9447
961.7654	9576
964.1284	9613
966.4908	9447
968.8527	9071
971.2138	8800
973.5743	8586
975.9343	8323
978.2936	8200
980.6522	8001
983.0122	7937
985.3696	7971
987.7245	7698
990.0807	7757
992.4362	7900
994.7911	7883
997.1474	7934
999.4991	7805
1001.852	7983
1004.205	7997
1006.555	7931
1008.908	7952
1011.258	7986
1013.606	7972
1015.956	7923
1018.302	7941
1020.652	7952
1022.998	7922
1025.345	7884
1027.691	8029
1030.035	8010
1032.378	7970
1034.724	7991
1037.066	7890
1039.409	8048
1041.75	7956
1044.092	8134
1046.433	8006
1048.771	8099
1051.112	8030
1053.449	7963
1055.786	8036
1058.124	8121
1060.462	8040
1062.797	8106
1065.131	8202
1067.467	8048
1069.8	8286
1072.135	8193
1074.467	8140
1076.798	8076
1079.129	8144
1081.459	8175
1083.792	8190
1086.121	8074
1088.449	8166
1090.777	8011
1093.104	8020
1095.431	8120
1097.759	8052
1100.084	8035
1102.408	8133
1104.732	8112
1107.056	8191
1109.379	8023
1111.701	8117
1114.022	8161
1116.343	8189
1118.664	8069
1120.983	8101
1123.303	8135
1125.621	8053
1127.939	8153
1130.256	8202
1132.573	8059
1134.889	8037
1137.205	8011
1139.52	8115
1141.832	8139
1144.146	8111
1146.461	8017
1148.771	8185
1151.083	8045
1153.392	8145
1155.703	8225
1158.011	8090
1160.323	8088
1162.629	8086
1164.938	8114
1167.243	8121
1169.55	8152
1171.857	8129
1174.163	8185
1176.466	7971
1178.769	8160
1181.073	8151
1183.374	8157
1185.677	8082
1187.979	8175
1190.279	8161
1192.578	8009
1194.878	8269
1197.178	8088
1199.476	8134
1201.772	8113
1204.068	8174
1206.366	8251
1208.663	8162
1210.957	8190
1213.251	8068
1215.544	8244
1217.836	8022
1220.128	8144
1222.421	8139
1224.712	8157
1227.002	8131
1229.292	8273
1231.581	8190
1233.871	8221
1236.159	8476
1238.446	8316
1240.732	8385
1243.018	8435
1245.304	8328
1247.59	8425
1249.874	8353
1252.156	8408
1254.439	8494
1256.721	8411
1259.005	8364
1261.286	8304
1263.565	8531
1265.845	8422
1268.125	8402
1270.403	8431
1272.682	8205
1274.959	8288
1277.234	8438
1279.511	8373
1281.787	8461
1284.062	8384
1286.337	8328
1288.609	8339
1290.882	8345
1293.153	8350
1295.428	8282
1297.698	8285
1299.969	8286
1302.237	8231
1304.507	8270
1306.777	8161
1309.044	8234
1311.312	8140
1313.578	8220
1315.844	8231
1318.109	8241
1320.375	8164
1322.638	8188
1324.903	8264
1327.165	8187
1329.427	8123
1331.69	8277
1333.952	8284
1336.212	8185
1338.471	8376
1340.73	8291
1342.988	8238
1345.248	8235
1347.505	8379
1349.763	8321
1352.019	8289
1354.274	8128
1356.53	8280
1358.784	8283
1361.038	8294
1363.291	8134
1365.543	8217
1367.797	8370
1370.048	8348
1372.296	8297
1374.546	8367
1376.796	8304
1379.045	8224
1381.295	8350
1383.542	8269
1385.787	8351
1388.034	8354
1390.28	8489
1392.527	8347
1394.772	8287
1397.014	8301
1399.258	8355
1401.501	8454
1403.741	8462
1405.985	8374
1408.226	8490
1410.465	8289
1412.705	8441
1414.943	8342
1417.184	8451
1419.42	8408
1421.658	8353
1423.894	8503
1426.13	8419
1428.366	8588
1430.602	8460
1432.835	8346
1435.069	8629
1437.301	8513
1439.535	8577
1441.767	8612
1443.997	8463
1446.229	8583
1448.458	8649
1450.687	8686
1452.916	8570
1455.146	8804
1457.372	8655
1459.599	8563
1461.824	8626
1464.051	8713
1466.277	8611
1468.501	8583
1470.725	8398
1472.948	8477
1475.17	8502
1477.393	8599
1479.614	8386
1481.837	8357
1484.057	8498
1486.276	8329
1488.497	8317
1490.715	8414
1492.932	8241
1495.148	8242
1497.364	8234
1499.58	8397
1501.798	8203
1504.012	8253
1506.227	8202
1508.44	8247
1510.653	8181
1512.866	8186
1515.078	8252
1517.289	8108
1519.5	8299
1521.711	8261
1523.92	8355
1526.13	8167
1528.338	8316
1530.544	8156
1532.752	8169
1534.959	8221
1537.165	8196
1539.371	8180
1541.574	8244
1543.779	8308
1545.983	8283
1548.187	8308
1550.39	8327
1552.59	8291
1554.792	8180
1556.991	8266
1559.19	8389
1561.392	8374
1563.59	8428
1565.789	8276
1567.986	8375
1570.182	8378
1572.381	8352
1574.576	8457
1576.771	8324
1578.966	8402
1581.16	8401
1583.354	8462
1585.546	8504
1587.74	8533
1589.931	8469
1592.121	8536
1594.311	8463
1596.502	8527
1598.693	8424
1600.881	8492
1603.069	8444
1605.256	8518
1607.445	8500
1609.631	8488
1611.816	8479
1614.001	8455
1616.186	8592
1618.37	8585
1620.555	8567
1622.737	8580
1624.919	8501
1627.101	8555
1629.282	8677
1631.463	8648
1633.643	8637
1635.822	8543
1638.001	8624
1640.179	8510
1642.359	8573
1644.534	8719
1646.711	8603
1648.887	8573
1651.062	8608
1653.235	8653
1655.412	8682
1657.586	8605
1659.757	8778
1661.93	8598
1664.1	8678
1666.274	8625
1668.445	8690
1670.614	8817
1672.784	8638
1674.951	8581
1677.12	8630
1679.289	8684
1681.457	8688
1683.622	8667
1685.789	8638
1687.953	8731
1690.121	8638
1692.284	8672
1694.447	8497
1696.611	8580
1698.772	8525
1700.935	8330
1703.098	8625
1705.258	8475
1707.417	8445
1709.576	8482
1711.736	8516
1713.896	8485
1716.053	8435
1718.21	8427
1720.366	8484
1722.522	8364
1724.68	8530
1726.835	8380
1728.989	8343
1731.142	8522
1733.295	8531
1735.449	8429
1737.601	8398
1739.753	8451
1741.903	8479
1744.054	8408
1746.203	8462
1748.354	8400
1750.503	8562
1752.651	8512
1754.798	8560
1756.944	8440
1759.092	8570
1761.238	8457
1763.383	8417
1765.528	8500
1767.672	8405
1769.814	8559
1771.959	8474
1774.102	8347
1776.242	8562
1778.384	8521
1780.525	8428
1782.665	8520
1784.805	8418
1786.945	8503
1789.082	8505
1791.22	8527
1793.36	8597
1795.495	8588
1797.632	8690
1799.766	8595
1801.902	8647
1804.035	8437
1806.172	8442
1808.304	8544
1810.436	8626
1812.569	8509
1814.699	8526
1816.833	8436
1818.963	8337
1821.092	8549
1823.222	8449
1825.35	8459
1827.478	8405
1829.608	8533
1831.734	8467
1833.86	8423
1835.986	8447
1838.11	8482
1840.238	8560
1842.362	8514
1844.485	8500
1846.608	8384
1848.73	8372
1850.853	8408
1852.974	8409
1855.097	8513
1857.217	8400
1859.336	8369
1861.455	8361
1863.576	8523
1865.693	8360
1867.811	8559
1869.926	8536
1872.042	8504
1874.16	8401
1876.275	8465
1878.39	8328
1880.504	8344
1882.618	8447
1884.731	8340
1886.843	8505
1888.956	8350
1891.067	8508
1893.178	8444
1895.287	8276
1897.399	8478
1899.508	8324
1901.617	8466
1903.724	8372
1905.832	8555
1907.941	8558
1910.046	8447
1912.152	8572
1914.256	8651
1916.361	8453
1918.464	8606
1920.57	8441
1922.672	8551
1924.775	8560
1926.876	8571
1928.978	8616
1931.08	8466
1933.181	8588
1935.28	8495
1937.38	8523
1939.478	8505
1941.577	8543
1943.675	8522
1945.771	8433
1947.867	8591
1949.964	8576
1952.058	8503
1954.154	8506
1956.248	8641
1958.343	8529
1960.435	8547
1962.527	8385
1964.62	8497
1966.711	8476
1968.802	8585
1970.892	8506
1972.983	8408
1975.072	8645
1977.162	8467
1979.25	8555
1981.337	8415
1983.424	8513
1985.51	8529
1987.598	8488
1989.683	8397
1991.768	8359
1993.852	8472
1995.934	8479
1998.019	8333
2000.102	8317
2002.184	8388
2004.266	8454
2006.347	8338
2008.427	8388
2010.508	8478
2012.587	8381
2014.666	8457
2016.745	8295
2018.821	8344
2020.9	8338
2022.977	8580
2025.052	8358
2027.128	8398
2029.204	8385
2031.277	8315
2033.353	8486
2035.425	8356
2037.499	8435
2039.57	8465
2041.642	8321
2043.714	8231
2045.786	8597
2047.855	8294
2049.925	8468
2051.993	8368
2054.064	8392
2056.132	8352
2058.2	8443
2060.266	8407
2062.332	8482
2064.398	8376
2066.465	8289
2068.529	8347
2070.592	8329
2072.657	8439
2074.719	8351
2076.783	8368
2078.845	8505
2080.907	8308
2082.968	8323
2085.028	8438
2087.087	8413
2089.148	8402
2091.207	8402
2093.264	8454
2095.322	8489
2097.379	8401
2099.439	8296
2101.495	8368
2103.55	8359
2105.605	8395
2107.658	8367
2109.713	8375
2111.767	8390
2113.82	8304
2115.872	8376
2117.924	8374
2119.975	8409
2122.028	8383
2124.078	8333
2126.126	8470
2128.176	8336
2130.225	8320
2132.275	8252
2134.321	8326
2136.368	8374
2138.415	8380
2140.461	8427
2142.505	8311
2144.552	8377
2146.597	8363
2148.64	8437
2150.684	8369
2152.725	8489
2154.77	8334
2156.811	8328
2158.852	8168
2160.894	8321
2162.933	8296
2164.973	8284
2167.013	8327
2169.051	8347
2171.089	8247
2173.126	8222
2175.164	8314
2177.201	8246
2179.236	8205
2181.273	8340
2183.307	8271
2185.341	8208
2187.377	8230
2189.41	8403
2191.442	8261
2193.473	8177
2195.506	8170
2197.539	8225
2199.569	8117
2201.598	8180
2203.628	8150
2205.656	8173
2207.686	8089
2209.716	8189
2211.743	8117
2213.769	8149
2215.796	8233
2217.821	8021
2219.848	8141
2221.873	8068
2223.897	8042
2225.921	8185
2227.944	8241
2229.967	8164
2231.991	8057
2234.011	8139
2236.032	8153
2238.053	8115
2240.073	8074
2242.094	8150
2244.114	8188
2246.131	8097
2248.149	8141
2250.167	8123
2252.186	7965
2254.201	8093
2256.218	8177
2258.233	8160
2260.247	8236
2262.262	8176
2264.278	8014
2266.29	7977
2268.303	8146
2270.315	8025
2272.327	8052
2274.341	7981
2276.35	8091
2278.361	7941
2280.37	8141
2282.38	8145
2284.388	8134
2286.397	8135
2288.405	7916
2290.412	8155
2292.419	8229
2294.425	8179
2296.431	8063
2298.437	8114
2300.441	8098
2302.445	8016
2304.449	8003
2306.453	8153
2308.455	8114
2310.457	7992
2312.459	8231
2314.46	8070
2316.46	8073
2318.461	8097
2320.46	7991
2322.458	8039
2324.458	7963
2326.456	8071
2328.455	8012
2330.451	8069
2332.447	7923
2334.443	8006
2336.438	7953
2338.433	7969
2340.429	7987
2342.422	7933
2344.416	7825
2346.408	7963
2348.399	7899
2350.393	7885
2352.384	7967
2354.375	7930
2356.365	7938
2358.355	7836
2360.344	7759
2362.333	8036
2364.322	7818
2366.309	7781
2368.295	7961
2370.282	7831
2372.27	7809
2374.256	7843
2376.24	7923
2378.225	7800
2380.208	7810
2382.194	7893
2384.177	7749
2386.159	7764
2388.142	7729
2390.122	7725
2392.105	7754
2394.085	7813
2396.066	7850
2398.044	7754
2400.024	7797
2402.002	7715
2403.982	7621
2405.959	7686
2407.935	7671
2409.913	7657
2411.888	7621
2413.865	7726
2415.84	7687
2417.814	7745
2419.788	7818
2421.762	7763
2423.735	7711
2425.708	7855
2427.68	7677
2429.651	7740
2431.623	7798
2433.593	7782
2435.564	7619
2437.533	7744
2439.502	7737
2441.47	7712
2443.438	7858
2445.406	7789
2447.373	7765
2449.34	7716
2451.305	7796
2453.271	7738
2455.235	7642
2457.201	7785
2459.165	7742
2461.129	7768
2463.092	7674
2465.054	7619
2467.018	7586
2468.978	7711
2470.939	7546
2472.899	7708
2474.86	7618
2476.819	7621
2478.778	7458
2480.737	7685
2482.695	7570
2484.653	7690
2486.609	7614
2488.567	7648
2490.524	7653
2492.478	7574
2494.433	7503
2496.387	7514
2498.343	7511
2500.297	7666
2502.249	7641
2504.202	7699
2506.153	7462
2508.105	7694
2510.057	7505
2512.008	7518
2513.957	7523
2515.906	7546
2517.855	7644
2519.805	7548
2521.754	7581
2523.7	7503
2525.647	7512
2527.594	7476
2529.54	7406
2531.486	7488
2533.431	7598
2535.376	7581
2537.32	7421
2539.263	7513
2541.207	7468
2543.151	7475
2545.093	7545
2547.034	7633
2548.975	7502
2550.917	7503
2552.856	7631
2554.796	7524
2556.735	7618
2558.673	7484
2560.611	7560
2562.55	7456
2564.487	7438
2566.424	7585
2568.36	7472
2570.296	7415
2572.232	7572
2574.167	7535
2576.101	7506
2578.035	7493
2579.969	7604
2581.902	7582
2583.834	7538
2585.766	7583
2587.698	7344
2589.628	7456
2591.557	7472
2593.489	7481
2595.419	7501
2597.348	7486
2599.275	7514
2601.204	7448
2603.131	7460
2605.059	7344
2606.986	7602
2608.911	7552
2610.837	7591
2612.76	7519
2614.687	7606
2616.61	7483
2618.534	7497
2620.457	7474
2622.38	7571
2624.302	7578
2626.225	7496
2628.145	7481
2630.067	7517
2631.986	7460
2633.906	7479
2635.827	7567
2637.745	7488
2639.662	7556
2641.581	7608
2643.498	7622
2645.415	7586
2647.331	7541
2649.248	7514
2651.163	7598
2653.077	7566
2654.993	7493
2656.906	7483
2658.821	7395
2660.733	7529
2662.646	7458
2664.557	7529
2666.47	7547
2668.381	7497
2670.291	7467
2672.201	7431
2674.11	7501
2676.021	7413
2677.929	7395
2679.837	7458
2681.745	7429
2683.652	7553
2685.56	7430
2687.466	7391
2689.371	7493
2691.276	7218
2693.181	7348
2695.085	7505
2696.991	7456
2698.893	7352
2700.796	7352
2702.698	7478
2704.601	7410
2706.502	7388
2708.404	7468
2710.304	7295
2712.203	7329
2714.103	7312
2716.003	7414
2717.902	7282
2719.8	7259
2721.697	7373
2723.594	7265
2725.49	7429
2727.389	7317
2729.283	7406
2731.179	7265
2733.073	7356
2734.968	7361
2736.863	7285
2738.757	7312
2740.649	7332
2742.541	7258
2744.433	7216
2746.324	7225
2748.216	7132
2750.107	7307
2751.997	7295
2753.886	7261
2755.776	7292
2757.666	7291
2759.553	7180
2761.44	7303
2763.327	7193
2765.215	7262
2767.102	7306
2768.988	7150
2770.873	7107
2772.757	7262
2774.641	7332
2776.525	7207
2778.41	7160
2780.292	7261
2782.175	7280
2784.057	7163
2785.938	7119
2787.821	7146
2789.701	7258
2791.581	7157
2793.461	7131
2795.34	7231
2797.219	7140
2799.099	7159
2800.975	7141
2802.853	7168
2804.73	7159
2806.606	7172
2808.484	7114
2810.358	7114
2812.233	7093
2814.108	7181
2815.981	7082
2817.857	7206
2819.73	7124
2821.602	7349
2823.474	7172
2825.346	7162
2827.217	7013
2829.089	7181
2830.959	7080
2832.829	7105
2834.698	7082
2836.567	7123
2838.436	7147
2840.305	7097
2842.172	7183
2844.04	7157
2845.905	7189
2847.772	7216
2849.639	7204
2851.503	7134
2853.369	7247
2855.232	7310
2857.096	7088
2858.961	7259
2860.824	7166
2862.686	7093
2864.547	7155
2866.41	7193
2868.272	7285
2870.132	7342
2871.992	7470
2873.851	7375
2875.711	7509
2877.57	7574
2879.429	7536
2881.287	7615
2883.144	7567
2885.001	7564
2886.857	7617
2888.714	7620
2890.57	7711
2892.425	7612
2894.279	7610
2896.133	7560
2897.987	7485
2899.842	7696
2901.694	7659
2903.547	7554
2905.397	7600
2907.249	7520
2909.101	7536
2910.952	7661
2912.802	7584
2914.652	7711
2916.5	7703
2918.35	7775
2920.198	7852
2922.045	7853
2923.893	7988
2925.74	7998
2927.585	8113
2929.433	8061
2931.279	8027
2933.123	8208
2934.968	8235
2936.811	8271
2938.656	8327
2940.5	8485
2942.342	8429
2944.185	8444
2946.026	8488
2947.87	8559
2949.71	8520
2951.549	8363
2953.39	8340
2955.229	8232
2957.069	8280
2958.908	8126
2960.746	8096
2962.584	7970
2964.421	8027
2966.257	8030
2968.094	7865
2969.931	7793
2971.766	7663
2973.601	7734
2975.435	7656
2977.27	7629
2979.105	7608
2980.938	7664
2982.77	7629
2984.602	7585
2986.434	7737
2988.267	7629
2990.097	7723
2991.927	7629
2993.757	7272
2995.587	7393
2997.417	7309
2999.246	7268
3001.074	7320
3002.902	7208
3004.729	7216
3006.556	7121
3008.384	7094
3010.21	7135
3012.036	6939
3013.861	7081
3015.684	7080
3017.51	6920
3019.334	6882
3021.157	6866
3022.981	6873
3024.802	6705
3026.624	6745
3028.448	6691
3030.267	6768
3032.088	6759
3033.909	6658
3035.728	6743
3037.549	6602
3039.368	6702
3041.186	6672
3043.004	6590
3044.821	6682
3046.64	6637
3048.455	6667
3050.272	6685
3052.087	6598
3053.903	6674
3055.717	6568
3057.534	6751
3059.347	6559
3061.16	6622
3062.974	6516
3064.785	6577
3066.598	6614
3068.411	6687
3070.222	6559
3072.032	6611
3073.844	6483
3075.653	6614
3077.463	6588
3079.272	6595
3081.08	6475
3082.889	6463
3084.697	6581
3086.505	6510
3088.312	6384
3090.118	6547
3091.924	6451
3093.729	6521
3095.535	6370
3097.34	6507
3099.144	6450
3100.947	6521
3102.75	6321
3104.553	6394
3106.357	6368
3108.159	6397
3109.961	6434
3111.762	6317
3113.562	6474
3115.365	6288
3117.164	6439
3118.964	6376
3120.761	6275
3122.56	6283
3124.36	6255
3126.158	6419
3127.954	6250
3129.75	6314
3131.547	6436
3133.343	6171
3135.139	6362
3136.934	6250
3138.729	6215
3140.522	6311
3142.317	6273
3144.11	6163
3145.904	6307
3147.695	6188
3149.488	6278
3151.28	6212
3153.07	6332
3154.863	6272
3156.652	6257
3158.441	6273
3160.231	6259
3162.019	6295
3163.81	6253
3165.597	6128
3167.384	6187
3169.172	6267
3170.958	6126
3172.745	6185
3174.532	6220
3176.317	6221
3178.101	6169
3179.885	6181
3181.67	6175
3183.455	6142
3185.238	6151
3187.02	6187
3188.802	5983
3190.585	6158
3192.368	6204
3194.149	6135
3195.929	6090
3197.709	5982
3199.489	6122
3201.268	6165
3203.048	6276
3204.826	6077
3206.604	6039
3208.382	6149
3210.159	6160
3211.937	6139
3213.713	6059
3215.489	6039
3217.263	6042
3219.038	6115
3220.815	6114
3222.589	6098
3224.363	6030
3226.136	5997
3227.908	6100
3229.681	6063
3231.454	6040
3233.226	6065
3234.996	6124
3236.767	6124
3238.538	6106
3240.308	6022
3242.078	6021
3243.847	6104
3245.615	6000
3247.384	6018
3249.15	6139
3250.92	6057
3252.686	5973
3254.453	6107
3256.218	6093
3257.984	6175
3259.75	6083
3261.515	5936
3263.279	6031
3265.044	6048
3266.806	5992
3268.57	6157
3270.334	5981
3272.095	6008
3273.856	5943
3275.619	6066
3277.379	6052
3279.14	6096
3280.9	6093
3282.661	6063
3284.419	6051
3286.178	5931
3287.937	5955
3289.695	6117
3291.453	6029
3293.21	6056
3294.967	5983
3296.723	5967
3298.48	6019
3300.235	5979
3301.99	6052
3303.744	5980
3305.498	5999
3307.253	5918
3309.006	6066
3310.759	6001
3312.511	6028
3314.263	5948
3316.017	6060
3317.768	5951
3319.519	6177
3321.268	6068
3323.018	6051
3324.767	5890
3326.518	5986
3328.267	6027
3330.014	6044
3331.762	6031
3333.509	5858
3335.258	6012
3337.003	5982
3338.75	5902
3340.496	5851
3342.24	5987
3343.987	5976
3345.732	5998
3347.475	5867
3349.219	5882
3350.961	5940
3352.705	6017
3354.448	5927
3356.19	5836
3357.931	5959
3359.672	5847
3361.412	5898
3363.155	5956
3364.894	5963
3366.633	5835
3368.372	5902
3370.11	5832
3371.849	5846
3373.588	5879
3375.325	5840
3377.061	5900
3378.799	5839
3380.534	5917
3382.271	5738
3384.006	5817
3385.741	5729
3387.475	5883
3389.209	5788
3390.944	5817
3392.677	5883
3394.409	5828
3396.143	5769
3397.874	5734
3399.606	5761
3401.338	5819
3403.069	5721
3404.799	5741
3406.528	5805
3408.258	5750
3409.988	5790
3411.717	5635
3413.445	5734
3415.173	5770
3416.899	5665
3418.626	5678
3420.354	5718
3422.08	5758
3423.806	5664
3425.531	5737
3427.255	5711
3428.981	5728
3430.705	5642
3432.429	5581
3434.151	5678
3435.875	5617
3437.599	5731
3439.321	5728
3441.042	5699
3442.763	5605
3444.483	5525
3446.204	5601
3447.926	5601
3449.645	5592
3451.364	5551
3453.082	5504
3454.801	5573
3456.52	5580
3458.238	5666
3459.954	5541
3461.671	5586
3463.387	5608
3465.104	5520
3466.82	5444
3468.534	5528
3470.25	5488
3471.963	5465
3473.676	5586
3475.392	5485
3477.104	5398
3478.817	5415
3480.528	5517
3482.241	5465
3483.954	5447
3485.664	5430
3487.374	5353
3489.084	5463
3490.795	5463
3492.504	5478
3494.214	5327
3495.922	5411
3497.63	5435
3499.338	5397
3501.045	5268
3502.753	5443
3504.459	5375
3506.166	5320
3507.871	5374
3509.576	5370
3511.283	5269
3512.987	5347
3514.691	5403
3516.395	5426
3518.098	5314
3519.8	5365
3521.504	5188
3523.206	5252
3524.908	5239
3526.609	5301
3528.309	5237
3530.011	5247
3531.711	5213
3533.411	5249
3535.109	5289
3536.808	5228
3538.507	5197
3540.206	5343
3541.904	5238
3543.601	5198
3545.297	5124
3546.994	5169
3548.69	5175
3550.387	5220
3552.081	5190
3553.776	5273
3555.47	5120
3557.166	5118
3558.859	5260
3560.553	5044
3562.245	5183
3563.938	5123
3565.629	5098
3567.322	5142
3569.014	5179
3570.704	5071
3572.394	5085
3574.084	5162
3575.775	5097
3577.464	5129
3579.152	5094
3580.842	5155
3582.529	5156
3584.216	5100
3585.905	5093
3587.591	5080
3589.279	5026
3590.964	5004
3592.649	5003
3594.336	5081
3596.021	5046
3597.705	5014
3599.388	5019
3601.072	4878
3602.757	4941
3604.439	4976
3606.122	5003
3607.803	4945
3609.485	4878
3611.167	4953
3612.849	4961
3614.529	4978
3616.208	4940
3617.888	4870
3619.567	4807
3621.247	4982
3622.926	4837
3624.603	4948
3626.281	4841
3627.958	4868
3629.635	4843
3631.312	4921
3632.989	4838
3634.665	4862
3636.339	4865
3638.014	4844
3639.691	4836
3641.364	4812
3643.038	4719
3644.71	4858
3646.384	4767
3648.058	4736
3649.729	4786
3651.402	4643
3653.073	4793
3654.744	4768
3656.414	4837
3658.085	4666
3659.755	4776
3661.424	4768
3663.094	4663
3664.762	4748
3666.431	4679
3668.099	4669
3669.766	4607
3671.433	4659
3673.099	4679
3674.768	4730
3676.433	4612
3678.098	4658
3679.763	4664
3681.428	4665
3683.093	4643
3684.757	4583
3686.421	4638
3688.083	4619
3689.746	4724
3691.408	4599
3693.071	4668
3694.733	4633
3696.394	4623
3698.054	4703
3699.715	4616
3701.375	4659
3703.036	4605
3704.695	4659
3706.354	4673
3708.012	4693
3709.67	4524
3711.329	4640
3712.987	4575
3714.644	4646
3716.299	4588
3717.955	4580
3719.613	4508
3721.268	4569
3722.923	4563
3724.577	4598
3726.231	4561
3727.885	4524
3729.539	4613
3731.192	4539
3732.845	4563
3734.497	4556
3736.149	4593
3737.802	4540
3739.453	4518
3741.104	4444
3742.753	4545
3744.404	4632
3746.052	4585
3747.704	4520
3749.352	4457
3751	4524
3752.648	4504
3754.296	4503
3755.944	4513
3757.59	4469
3759.238	4448
3760.883	4479
3762.528	4345
3764.176	4503
3765.82	4469
3767.464	4464
3769.109	4509
3770.753	4423
3772.396	4445
3774.04	4509
3775.683	4437
3777.325	4466
3778.967	4438
3780.608	4413
3782.25	4418
3783.89	4336
3785.531	4439
3787.17	4372
3788.81	4461
3790.45	4513
3792.09	4415
3793.729	4397
3795.366	4461
3797.003	4355
3798.64	4415
3800.278	4379
3801.915	4351
3803.551	4427
3805.187	4320
3806.822	4340
3808.458	4281
3810.093	4287
3811.726	4246
3813.36	4380
3814.994	4316
3816.627	4290
3818.262	4389
3819.893	4349
3821.525	4256
3823.157	4354
3824.787	4283
3826.42	4217
3828.051	4238
3829.68	4258
3831.31	4283
3832.938	4338
3834.569	4205
3836.198	4281
3837.825	4246
3839.454	4316
3841.08	4323
3842.708	4255
3844.335	4328
3845.962	4309
3847.587	4207
3849.212	4272
3850.838	4226
3852.463	4280
3854.089	4222
3855.712	4196
3857.335	4119
3858.959	4187
3860.582	4215
3862.205	4267
3863.827	4220
3865.449	4214
3867.07	4114
3868.691	4144
3870.312	4176
3871.933	4226
3873.553	4221
3875.173	4117
3876.792	4130
3878.411	4129
3880.03	4273
3881.647	4224
3883.265	4171
3884.882	4136
3886.499	4172
3888.116	4207
3889.732	4085
3891.348	4206
3892.964	4152
3894.579	4047
3896.195	4132
3897.809	4124
3899.423	4135
3901.036	4148
3902.648	4108
3904.261	4158
3905.875	4155
3907.487	4137
3909.099	4107
3910.709	4135
3912.321	4109
3913.933	4080
3915.542	4032
3917.152	4237
3918.762	3964
3920.37	4113
3921.98	4039
3923.589	4098
3925.196	4136
3926.804	4058
3928.41	3969
3930.018	4062
3931.626	4051
3933.231	4095
3934.838	4063
3936.442	4025
3938.046	4070
3939.653	4039
3941.257	3981
3942.861	4009
3944.464	4061
3946.068	4040
3947.67	4083
3949.273	4047
3950.876	3963
3952.477	4124
3954.078	3973
3955.678	3944
3957.281	4041
3958.881	3995
3960.48	3998
3962.079	4019
3963.678	3919
3965.279	4027
3966.877	4030
3968.475	3997
3970.072	3998
3971.669	3970
3973.266	3964
3974.864	3926
3976.459	3887
3978.055	3947
3979.65	3920
3981.245	3906
3982.841	3895
3984.436	3936
3986.03	3948
3987.623	3844
3989.216	3910
3990.809	3963
3992.403	3902
3993.995	3897
3995.586	4011
3997.177	3849
3998.768	3848
4000.361	3829
4001.951	3817
4003.54	3855
4005.13	3836
4006.719	3854
4008.31	3864
4009.897	3757
4011.485	3833
4013.073	3871
4014.66	3753
4016.247	3742
4017.834	3783
4019.421	3746
4021.006	3783
4022.592	3811
4024.178	3793
4025.763	3817
4027.348	3821
4028.932	3742
4030.515	3734
4032.099	3757
4033.682	3750
4035.266	3755
4036.847	3768
4038.429	3716
4040.011	3771
4041.592	3675
4043.173	3708
4044.755	3711
4046.334	3732
4047.913	3796
4049.494	3693
4051.074	3722
4052.652	3780
4054.23	3662
4055.807	3704
4057.385	3639
4058.963	3672
4060.541	3746
4062.117	3684
4063.693	3675
4065.269	3678
4066.844	3653
4068.42	3641
4069.995	3717
4071.569	3589
4073.143	3675
4074.716	3676
4076.291	3669
4077.864	3662
4079.436	3620
4081.009	3637
4082.58	3644
4084.152	3682
4085.723	3609
4087.294	3695
4088.865	3535
4090.435	3630
4092.005	3619
4093.574	3557
4095.143	3582
4096.712	3611
4098.279	3680
4099.848	3627
4101.416	3570
4102.984	3578
4104.55	3627
4106.117	3568
4107.682	3686
4109.248	3525
4110.815	3660
4112.379	3521
4113.945	3570
4115.508	3552
4117.073	3523
4118.637	3659
4120.201	3542
4121.763	3494
4123.325	3532
4124.888	3590
4126.449	3556
4128.013	3511
4129.573	3507
4131.133	3486
4132.694	3539
4134.254	3479
4135.814	3529
4137.374	3468
4138.933	3511
4140.491	3458
4142.049	3467
4143.607	3455
4145.167	3501
4146.724	3357
4148.28	3446
4149.836	3459
4151.392	3407
4152.949	3431
4154.504	3421
4156.059	3428
4157.614	3453
4159.168	3503
4160.723	3433
4162.277	3433
4163.83	3392
4165.383	3436
4166.936	3421
4168.488	3378
4170.041	3365
4171.593	3413
4173.144	3364
4174.695	3357
4176.246	3452
4177.796	3362
4179.346	3346
4180.896	3435
4182.445	3403
4183.994	3413
4185.542	3356
4187.091	3409
4188.639	3352
4190.185	3333
4191.732	3301
4193.279	3334
4194.826	3366
4196.373	3365
4197.918	3316
4199.463	3269
4201.008	3276
4202.553	3294
4204.098	3327
4205.641	3352
4207.185	3310
4208.728	3234
4210.271	3296
4211.814	3308
4213.357	3258
4214.898	3268
4216.439	3314
4217.98	3311
4219.522	3215
4221.062	3298
4222.603	3324
4224.142	3272
4225.681	3182
4227.222	3266
4228.76	3323
4230.298	3241
4231.835	3338
4233.373	3227
4234.911	3218
4236.449	3278
4237.985	3235
4239.521	3278
4241.057	3246
4242.592	3320
4244.128	3149
4245.663	3234
4247.197	3181
4248.731	3223
4250.265	3235
4251.798	3236
4253.333	3233
4254.865	3239
4256.397	3193
4257.93	3283
4259.461	3123
4260.994	3238
4262.525	3241
4264.056	3124
4265.586	3175
4267.115	3196
4268.646	3223
4270.176	3135
4271.705	3190
4273.232	3252
4274.761	3259
4276.289	3136
4277.818	3194
4279.345	3176
4280.872	3156
4282.399	3159
4283.924	3116
4285.452	3191
4286.976	3059
4288.502	3127
4290.026	3177
4291.551	3128
4293.074	3082
4294.6	3205
4296.123	3154
4297.646	3114
4299.168	3172
4300.691	3107
4302.214	3077
4303.736	3045
4305.257	3090
4306.778	3096
4308.299	3056
4309.82	3106
4311.34	3079
4312.86	3084
4314.379	3102
