400.0745	4387
402.597	4432
405.1208	4492
407.6419	4461
410.1623	4430
412.6819	4564
415.201	4475
417.7172	4455
420.2369	4566
422.7538	4763
425.2701	4650
427.7856	4794
430.3005	4879
432.8147	4800
435.3282	4854
437.841	4850
440.3511	4851
442.8625	4720
445.3753	4635
447.8854	4764
450.3927	4783
452.9014	4730
455.4073	4716
457.9146	4715
460.4233	4653
462.9272	4760
465.4325	4597
467.935	4678
470.4389	4670
472.9421	4650
475.4446	4701
477.9444	4617
480.4456	4668
482.944	4720
485.4417	4743
487.9429	4722
490.4393	4606
492.935	4683
495.4321	4739
497.9264	4721
500.4221	4698
502.9171	4722
505.4094	4765
507.9011	4816
510.392	4714
512.8864	4731
515.3759	4818
517.8649	4875
520.3531	4813
522.8406	4840
525.3275	4879
527.8178	4869
530.3033	4835
532.7881	4883
535.2723	4866
537.7558	4881
540.2407	4825
542.7228	4885
545.2043	4855
547.6851	4794
550.1652	4871
552.6467	4926
555.1255	5011
557.6016	4869
560.079	4997
562.5557	4962
565.0318	4969
567.5092	4990
569.984	4949
572.456	5081
574.9294	5117
577.4022	5140
579.8762	5164
582.3456	5215
584.8163	5185
587.2863	5224
589.7557	5188
592.2224	5194
594.6924	5227
597.1578	5157
599.6245	5064
602.0905	5020
604.5538	5099
607.0206	4974
609.4825	5038
611.9459	5086
614.4066	5111
616.8686	5055
619.33	4966
621.7906	5066
624.2487	4993
626.708	4947
629.1647	4895
631.6207	4985
634.0801	4973
636.5348	4864
638.9888	4967
641.4442	5031
643.8969	5003
646.3509	5002
648.8022	4949
651.255	4953
653.705	4990
656.1544	4929
658.6031	5065
661.0532	5026
663.5026	4961
665.9493	5114
668.3954	5012
670.8409	5004
673.2877	5091
675.7318	5175
678.1752	5033
680.618	5090
683.0601	5152
685.5035	5192
687.9444	5167
690.3845	5319
692.824	5183
695.2628	5245
697.701	5144
700.1406	5170
702.5774	5249
705.0116	5180
707.4472	5214
709.8821	5161
712.3183	5274
714.7519	5169
717.1829	5230
719.6151	5274
722.0468	5301
724.4777	5186
726.908	5270
729.3377	5426
731.7667	5312
734.1931	5346
736.6208	5369
739.0498	5319
741.4742	5399
743.9	5405
746.3231	5490
748.7476	5432
751.1713	5379
753.5945	5456
756.015	5457
758.4368	5469
760.856	5575
763.2766	5464
765.6965	5455
768.1157	5516
770.5323	5392
772.9483	5626
775.3656	5510
777.7822	5546
780.1963	5533
782.6116	5628
785.0244	5592
787.4365	5556
789.8499	5510
792.2626	5441
794.6728	5516
797.0823	5533
799.4911	5530
801.8994	5663
804.3109	5595
806.7178	5674
809.124	5624
811.5297	5588
813.9347	5584
816.341	5697
818.7447	5619
821.1478	5628
823.5502	5596
825.952	5696
828.3531	5542
830.7556	5641
833.1554	5646
835.5546	5605
837.9532	5679
840.3511	5709
842.7504	5724
845.1451	5868
847.5411	5774
849.9365	5901
852.3312	5916
854.7272	5894
857.1187	5925
859.5115	5941
861.9037	5807
864.2952	5802
866.6842	5906
869.0764	5774
871.4661	5876
873.8531	5795
876.2415	5789
878.6272	5831
881.0162	5679
883.4026	5818
885.7866	5827
888.1717	5776
890.5543	5751
892.9382	5789
895.3215	5880
897.7041	5608
900.0842	5669
902.4655	5832
904.8443	5733
907.2244	5839
909.6039	5939
911.9808	5908
914.357	5926
916.7346	5993
919.1115	6059
921.4859	6112
923.8616	6135
926.2347	6045
928.6071	6203
930.979	6192
933.3541	6254
935.7247	6216
938.0946	6414
940.4639	6350
942.8326	6520
945.2026	6619
947.5701	6746
949.9369	7086
952.305	7288
954.6705	7961
957.0355	8313
959.4017	8805
961.7654	9029
964.1284	8908
966.4908	8551
968.8527	7830
971.2138	7318
973.5743	6957
975.9343	6556
978.2936	6383
980.6522	6142
983.0122	6098
985.3696	6016
987.7245	6033
990.0807	6010
992.4362	5964
994.7911	6002
997.1474	6042
999.4991	6014
1001.852	6096
1004.205	6158
1006.555	6093
1008.908	6049
1011.258	6104
1013.606	6041
1015.956	5969
1018.302	6040
1020.652	6081
1022.998	6213
1025.345	6000
1027.691	6112
1030.035	6158
1032.378	6158
1034.724	6173
1037.066	6295
1039.409	6135
1041.75	6190
1044.092	6208
1046.433	6224
1048.771	6228
1051.112	6128
1053.449	6133
1055.786	6202
1058.124	6232
1060.462	6156
1062.797	6253
1065.131	6427
1067.467	6556
1069.8	6346
1072.135	6444
1074.467	6468
1076.798	6327
1079.129	6357
1081.459	6349
1083.792	6283
1086.121	6311
1088.449	6131
1090.777	6072
1093.104	6125
1095.431	6204
1097.759	6145
1100.084	6112
1102.408	6150
1104.732	6237
1107.056	6156
1109.379	6103
1111.701	6179
1114.022	6092
1116.343	6012
1118.664	6016
1120.983	6032
1123.303	6168
1125.621	6036
1127.939	6119
1130.256	6175
1132.573	6113
1134.889	6125
1137.205	6126
1139.52	6111
1141.832	6091
1144.146	6018
1146.461	6013
1148.771	6178
1151.083	6143
1153.392	6129
1155.703	6095
1158.011	6013
1160.323	6024
1162.629	6159
1164.938	6170
1167.243	6132
1169.55	6227
1171.857	6017
1174.163	6159
1176.466	6019
1178.769	6123
1181.073	6058
1183.374	6011
1185.677	5989
1187.979	6036
1190.279	6053
1192.578	6090
1194.878	6039
1197.178	6019
1199.476	6222
1201.772	6071
1204.068	6076
1206.366	6130
1208.663	6049
1210.957	5990
1213.251	6164
1215.544	6044
1217.836	6138
1220.128	6144
1222.421	6281
1224.712	6154
1227.002	6259
1229.292	6301
1231.581	6243
1233.871	6287
1236.159	6332
1238.446	6393
1240.732	6398
1243.018	6406
1245.304	6368
1247.59	6366
1249.874	6399
1252.156	6386
1254.439	6472
1256.721	6405
1259.005	6417
1261.286	6425
1263.565	6383
1265.845	6531
1268.125	6476
1270.403	6545
1272.682	6332
1274.959	6467
1277.234	6422
1279.511	6328
1281.787	6335
1284.062	6329
1286.337	6327
1288.609	6297
1290.882	6245
1293.153	6387
1295.428	6223
1297.698	6215
1299.969	6246
1302.237	6176
1304.507	6148
1306.777	6225
1309.044	6324
1311.312	6257
1313.578	6227
1315.844	6334
1318.109	6209
1320.375	6193
1322.638	6114
1324.903	6256
1327.165	6182
1329.427	6243
1331.69	6224
1333.952	6100
1336.212	6238
1338.471	6207
1340.73	6152
1342.988	6140
1345.248	6264
1347.505	6214
1349.763	6233
1352.019	6033
1354.274	6199
1356.53	6201
1358.784	6235
1361.038	6150
1363.291	6128
1365.543	6286
1367.797	6190
1370.048	6240
1372.296	6220
1374.546	6182
1376.796	6268
1379.045	6243
1381.295	6321
1383.542	6192
1385.787	6228
1388.034	6261
1390.28	6289
1392.527	6348
1394.772	6362
1397.014	6332
1399.258	6390
1401.501	6339
1403.741	6370
1405.985	6339
1408.226	6206
1410.465	6276
1412.705	6369
1414.943	6375
1417.184	6388
1419.42	6426
1421.658	6462
1423.894	6420
1426.13	6361
1428.366	6415
1430.602	6539
1432.835	6522
1435.069	6302
1437.301	6459
1439.535	6606
1441.767	6550
1443.997	6546
1446.229	6570
1448.458	6647
1450.687	6707
1452.916	6762
1455.146	6679
1457.372	6659
1459.599	6687
1461.824	6697
1464.051	6666
1466.277	6640
1468.501	6619
1470.725	6413
1472.948	6462
1475.17	6408
1477.393	6275
1479.614	6319
1481.837	6364
1484.057	6280
1486.276	6191
1488.497	6260
1490.715	6229
1492.932	6066
1495.148	6217
1497.364	6055
1499.58	6196
1501.798	6098
1504.012	6165
1506.227	6120
1508.44	6053
1510.653	6154
1512.866	6138
1515.078	6189
1517.289	6157
1519.5	6093
1521.711	6101
1523.92	6106
1526.13	6034
1528.338	6191
1530.544	6273
1532.752	6057
1534.959	6098
1537.165	6163
1539.371	6205
1541.574	6047
1543.779	6114
1545.983	6269
1548.187	6212
1550.39	6212
1552.59	6225
1554.792	6256
1556.991	6134
1559.19	6215
1561.392	6065
1563.59	6192
1565.789	6209
1567.986	6267
1570.182	6330
1572.381	6234
1574.576	6204
1576.771	6333
1578.966	6172
1581.16	6329
1583.354	6319
1585.546	6247
1587.74	6353
1589.931	6385
1592.121	6316
1594.311	6338
1596.502	6450
1598.693	6283
1600.881	6393
1603.069	6334
1605.256	6346
1607.445	6357
1609.631	6367
1611.816	6400
1614.001	6346
1616.186	6312
1618.37	6236
1620.555	6414
1622.737	6409
1624.919	6372
1627.101	6456
1629.282	6435
1631.463	6468
1633.643	6550
1635.822	6514
1638.001	6510
1640.179	6482
1642.359	6648
1644.534	6627
1646.711	6524
1648.887	6502
1651.062	6662
1653.235	6567
1655.412	6580
1657.586	6587
1659.757	6559
1661.93	6555
1664.1	6690
1666.274	6715
1668.445	6565
1670.614	6690
1672.784	6609
1674.951	6684
1677.12	6659
1679.289	6740
1681.457	6501
1683.622	6706
1685.789	6657
1687.953	6555
1690.121	6488
1692.284	6531
1694.447	6513
1696.611	6481
1698.772	6510
1700.935	6317
1703.098	6415
1705.258	6323
1707.417	6442
1709.576	6306
1711.736	6163
1713.896	6260
1716.053	6192
1718.21	6227
1720.366	6235
1722.522	6183
1724.68	6266
1726.835	6138
1728.989	6263
1731.142	6220
1733.295	6282
1735.449	6217
1737.601	6289
1739.753	6306
1741.903	6228
1744.054	6257
1746.203	6237
1748.354	6294
1750.503	6405
1752.651	6197
1754.798	6231
1756.944	6291
1759.092	6231
1761.238	6379
1763.383	6305
1765.528	6244
1767.672	6213
1769.814	6207
1771.959	6383
1774.102	6204
1776.242	6335
1778.384	6378
1780.525	6407
1782.665	6240
1784.805	6245
1786.945	6330
1789.082	6337
1791.22	6368
1793.36	6324
1795.495	6406
1797.632	6283
1799.766	6406
1801.902	6207
1804.035	6248
1806.172	6292
1808.304	6368
1810.436	6318
1812.569	6322
1814.699	6479
1816.833	6314
1818.963	6235
1821.092	6307
1823.222	6296
1825.35	6304
1827.478	6373
1829.608	6246
1831.734	6185
1833.86	6272
1835.986	6329
1838.11	6158
1840.238	6319
1842.362	6249
1844.485	6251
1846.608	6317
1848.73	6191
1850.853	6201
1852.974	6288
1855.097	6245
1857.217	6251
1859.336	6259
1861.455	6143
1863.576	6217
1865.693	6263
1867.811	6128
1869.926	6216
1872.042	6173
1874.16	6383
1876.275	6207
1878.39	6227
1880.504	6135
1882.618	6267
1884.731	6221
1886.843	6229
1888.956	6251
1891.067	6246
1893.178	6259
1895.287	6282
1897.399	6290
1899.508	6208
1901.617	6362
1903.724	6270
1905.832	6422
1907.941	6351
1910.046	6283
1912.152	6260
1914.256	6210
1916.361	6319
1918.464	6348
1920.57	6333
1922.672	6351
1924.775	6303
1926.876	6346
1928.978	6345
1931.08	6273
1933.181	6403
1935.28	6305
1937.38	6370
1939.478	6344
1941.577	6376
1943.675	6271
1945.771	6345
1947.867	6387
1949.964	6381
1952.058	6278
1954.154	6291
1956.248	6310
1958.343	6408
1960.435	6271
1962.527	6278
1964.62	6225
1966.711	6379
1968.802	6237
1970.892	6289
1972.983	6190
1975.072	6226
1977.162	6399
1979.25	6212
1981.337	6403
1983.424	6244
1985.51	6269
1987.598	6308
1989.683	6351
1991.768	6138
1993.852	6272
1995.934	6281
1998.019	6275
2000.102	6225
2002.184	6301
2004.266	6395
2006.347	6252
2008.427	6178
2010.508	6326
2012.587	6321
2014.666	6278
2016.745	6222
2018.821	6176
2020.9	6256
2022.977	6242
2025.052	6240
2027.128	6230
2029.204	6109
2031.277	6245
2033.353	6265
2035.425	6254
2037.499	6150
2039.57	6231
2041.642	6308
2043.714	6290
2045.786	6103
2047.855	6249
2049.925	6289
2051.993	6283
2054.064	6207
2056.132	6191
2058.2	6313
2060.266	6323
2062.332	6237
2064.398	6191
2066.465	6232
2068.529	6181
2070.592	6307
2072.657	6135
2074.719	6373
2076.783	6277
2078.845	6250
2080.907	6183
2082.968	6303
2085.028	6175
2087.087	6344
2089.148	6282
2091.207	6194
2093.264	6245
2095.322	6186
2097.379	6285
2099.439	6251
2101.495	6161
2103.55	6247
2105.605	6256
2107.658	6266
2109.713	6206
2111.767	6293
2113.82	6234
2115.872	6272
2117.924	6130
2119.975	6141
2122.028	6217
2124.078	6205
2126.126	6225
2128.176	6263
2130.225	6193
2132.275	6327
2134.321	6158
2136.368	6269
2138.415	6242
2140.461	6240
2142.505	6204
2144.552	6264
2146.597	6127
2148.64	6248
2150.684	6115
2152.725	6123
2154.77	6136
2156.811	6194
2158.852	6219
2160.894	6255
2162.933	6116
2164.973	6126
2167.013	6226
2169.051	6055
2171.089	6155
2173.126	6149
2175.164	6128
2177.201	6170
2179.236	6153
2181.273	6163
2183.307	6084
2185.341	6086
2187.377	6069
2189.41	6202
2191.442	6147
2193.473	6225
2195.506	6191
2197.539	6070
2199.569	6141
2201.598	6208
2203.628	6077
2205.656	6048
2207.686	6158
2209.716	6101
2211.743	6111
2213.769	6091
2215.796	6081
2217.821	6059
2219.848	6129
2221.873	6078
2223.897	6086
2225.921	6157
2227.944	6027
2229.967	6102
2231.991	6180
2234.011	5991
2236.032	5945
2238.053	5974
2240.073	6058
2242.094	6061
2244.114	6058
2246.131	5939
2248.149	5930
2250.167	6028
2252.186	6022
2254.201	6021
2256.218	5982
2258.233	6008
2260.247	5968
2262.262	6048
2264.278	5926
2266.29	6048
2268.303	5986
2270.315	6018
2272.327	5948
2274.341	6050
2276.35	6170
2278.361	6065
2280.37	5956
2282.38	5996
2284.388	6063
2286.397	6001
2288.405	6134
2290.412	6143
2292.419	6054
2294.425	6023
2296.431	5972
2298.437	5995
2300.441	5972
2302.445	6080
2304.449	6065
2306.453	5940
2308.455	6030
2310.457	5907
2312.459	6020
2314.46	5994
2316.46	6023
2318.461	6012
2320.46	5928
2322.458	5916
2324.458	6043
2326.456	5942
2328.455	5994
2330.451	6008
2332.447	5902
2334.443	6080
2336.438	5988
2338.433	5816
2340.429	5937
2342.422	6028
2344.416	5871
2346.408	6005
2348.399	5892
2350.393	5835
2352.384	5951
2354.375	5945
2356.365	5913
2358.355	5881
2360.344	5878
2362.333	5916
2364.322	5907
2366.309	5892
2368.295	5878
2370.282	5879
2372.27	5887
2374.256	5880
2376.24	5892
2378.225	5907
2380.208	5872
2382.194	5866
2384.177	5764
2386.159	5839
2388.142	5883
2390.122	5812
2392.105	5787
2394.085	5800
2396.066	5886
2398.044	5743
2400.024	5859
2402.002	5738
2403.982	5833
2405.959	5839
2407.935	5855
2409.913	5756
2411.888	5769
2413.865	5854
2415.84	5877
2417.814	5868
2419.788	5845
2421.762	5677
2423.735	5760
2425.708	5837
2427.68	5847
2429.651	5778
2431.623	5805
2433.593	5835
2435.564	5757
2437.533	5705
2439.502	5827
2441.47	5730
2443.438	5870
2445.406	5887
2447.373	5689
2449.34	5848
2451.305	5795
2453.271	5806
2455.235	5780
2457.201	5836
2459.165	5697
2461.129	5849
2463.092	5816
2465.054	5619
2467.018	5787
2468.978	5850
2470.939	5695
2472.899	5797
2474.86	5844
2476.819	5708
2478.778	5695
2480.737	5663
2482.695	5644
2484.653	5725
2486.609	5719
2488.567	5743
2490.524	5774
2492.478	5698
2494.433	5626
2496.387	5583
2498.343	5607
2500.297	5644
2502.249	5579
2504.202	5607
2506.153	5745
2508.105	5728
2510.057	5605
2512.008	5677
2513.957	5674
2515.906	5538
2517.855	5540
2519.805	5631
2521.754	5691
2523.7	5587
2525.647	5607
2527.594	5582
2529.54	5706
2531.486	5716
2533.431	5625
2535.376	5692
2537.32	5685
2539.263	5634
2541.207	5738
2543.151	5660
2545.093	5674
2547.034	5663
2548.975	5533
2550.917	5650
2552.856	5713
2554.796	5799
2556.735	5726
2558.673	5710
2560.611	5684
2562.55	5768
2564.487	5632
2566.424	5710
2568.36	5657
2570.296	5675
2572.232	5675
2574.167	5764
2576.101	5699
2578.035	5589
2579.969	5594
2581.902	5659
2583.834	5631
2585.766	5707
2587.698	5681
2589.628	5693
2591.557	5631
2593.489	5755
2595.419	5570
2597.348	5639
2599.275	5643
2601.204	5651
2603.131	5655
2605.059	5587
2606.986	5659
2608.911	5654
2610.837	5623
2612.76	5693
2614.687	5600
2616.61	5716
2618.534	5678
2620.457	5680
2622.38	5551
2624.302	5622
2626.225	5546
2628.145	5699
2630.067	5640
2631.986	5631
2633.906	5576
2635.827	5721
2637.745	5716
2639.662	5660
2641.581	5674
2643.498	5658
2645.415	5746
2647.331	5647
2649.248	5676
2651.163	5676
2653.077	5745
2654.993	5704
2656.906	5592
2658.821	5696
2660.733	5594
2662.646	5716
2664.557	5645
2666.47	5645
2668.381	5544
2670.291	5594
2672.201	5609
2674.11	5592
2676.021	5654
2677.929	5662
2679.837	5538
2681.745	5596
2683.652	5587
2685.56	5610
2687.466	5661
2689.371	5520
2691.276	5581
2693.181	5616
2695.085	5505
2696.991	5640
2698.893	5614
2700.796	5558
2702.698	5555
2704.601	5489
2706.502	5644
2708.404	5532
2710.304	5631
2712.203	5632
2714.103	5602
2716.003	5565
2717.902	5592
2719.8	5492
2721.697	5582
2723.594	5574
2725.49	5575
2727.389	5501
2729.283	5610
2731.179	5557
2733.073	5627
2734.968	5676
2736.863	5478
2738.757	5565
2740.649	5567
2742.541	5482
2744.433	5583
2746.324	5432
2748.216	5451
2750.107	5493
2751.997	5548
2753.886	5536
2755.776	5458
2757.666	5570
2759.553	5427
2761.44	5552
2763.327	5441
2765.215	5584
2767.102	5479
2768.988	5491
2770.873	5536
2772.757	5477
2774.641	5535
2776.525	5498
2778.41	5449
2780.292	5524
2782.175	5491
2784.057	5501
2785.938	5470
2787.821	5355
2789.701	5444
2791.581	5407
2793.461	5310
2795.34	5438
2797.219	5491
2799.099	5478
2800.975	5392
2802.853	5488
2804.73	5459
2806.606	5385
2808.484	5498
2810.358	5396
2812.233	5401
2814.108	5430
2815.981	5390
2817.857	5365
2819.73	5449
2821.602	5475
2823.474	5482
2825.346	5410
2827.217	5493
2829.089	5461
2830.959	5428
2832.829	5510
2834.698	5520
2836.567	5432
2838.436	5503
2840.305	5502
2842.172	5585
2844.04	5503
2845.905	5459
2847.772	5573
2849.639	5514
2851.503	5543
2853.369	5567
2855.232	5668
2857.096	5541
2858.961	5581
2860.824	5706
2862.686	5637
2864.547	5709
2866.41	5740
2868.272	5832
2870.132	5788
2871.992	5834
2873.851	5978
2875.711	6117
2877.57	6227
2879.429	6218
2881.287	6181
2883.144	6278
2885.001	6224
2886.857	6335
2888.714	6258
2890.57	6249
2892.425	6311
2894.279	6163
2896.133	6348
2897.987	6177
2899.842	6290
2901.694	6152
2903.547	6268
2905.397	6224
2907.249	6257
2909.101	6309
2910.952	6395
2912.802	6441
2914.652	6359
2916.5	6445
2918.35	6544
2920.198	6703
2922.045	6739
2923.893	6872
2925.74	6859
2927.585	7027
2929.433	7118
2931.279	7098
2933.123	7173
2934.968	7394
2936.811	7407
2938.656	7665
2940.5	7618
2942.342	7656
2944.185	7675
2946.026	7738
2947.87	7742
2949.71	7551
2951.549	7564
2953.39	7599
2955.229	7311
2957.069	7122
2958.908	7179
2960.746	7119
2962.584	7137
2964.421	6999
2966.257	7020
2968.094	6788
2969.931	6724
2971.766	6749
2973.601	6708
2975.435	6629
2977.27	6664
2979.105	6686
2980.938	6659
2982.77	6692
2984.602	6498
2986.434	6547
2988.267	6485
2990.097	6348
2991.927	6307
2993.757	6256
2995.587	6316
2997.417	6193
2999.246	6129
3001.074	5980
3002.902	6018
3004.729	5831
3006.556	5839
3008.384	5705
3010.21	5685
3012.036	5714
3013.861	5626
3015.684	5592
3017.51	5609
3019.334	5396
3021.157	5436
3022.981	5584
3024.802	5374
3026.624	5281
3028.448	5380
3030.267	5305
3032.088	5269
3033.909	5314
3035.728	5204
3037.549	5149
3039.368	5148
3041.186	5294
3043.004	5230
3044.821	5174
3046.64	5138
3048.455	5148
3050.272	5213
3052.087	5144
3053.903	5188
3055.717	5190
3057.534	5155
3059.347	5169
3061.16	5229
3062.974	5226
3064.785	5157
3066.598	5162
3068.411	5205
3070.222	5255
3072.032	5162
3073.844	5091
3075.653	5105
3077.463	5133
3079.272	5185
3081.08	5102
3082.889	5109
3084.697	5104
3086.505	5060
3088.312	5039
3090.118	5094
3091.924	4954
3093.729	5070
3095.535	5011
3097.34	5004
3099.144	4967
3100.947	4922
3102.75	4980
3104.553	4938
3106.357	4985
3108.159	5081
3109.961	4987
3111.762	5030
3113.562	5057
3115.365	4971
3117.164	4982
3118.964	4808
3120.761	4951
3122.56	4971
3124.36	5007
3126.158	4963
3127.954	4998
3129.75	4923
3131.547	4879
3133.343	4896
3135.139	4834
3136.934	4908
3138.729	4927
3140.522	4878
3142.317	4905
3144.11	4891
3145.904	4883
3147.695	4868
3149.488	4881
3151.28	4860
3153.07	4852
3154.863	4833
3156.652	4909
3158.441	4799
3160.231	4871
3162.019	4817
3163.81	4906
3165.597	4822
3167.384	4841
3169.172	4902
3170.958	4910
3172.745	4788
3174.532	4917
3176.317	4870
3178.101	4868
3179.885	4884
3181.67	4744
3183.455	4909
3185.238	4835
3187.02	4800
3188.802	4818
3190.585	4836
3192.368	4834
3194.149	4787
3195.929	4930
3197.709	4814
3199.489	4763
3201.268	4872
3203.048	4935
3204.826	4780
3206.604	4773
3208.382	4891
3210.159	4861
3211.937	4859
3213.713	4874
3215.489	4888
3217.263	4741
3219.038	4800
3220.815	4865
3222.589	4835
3224.363	4828
3226.136	4824
3227.908	4776
3229.681	4870
3231.454	4837
3233.226	4829
3234.996	4801
3236.767	4788
3238.538	4834
3240.308	4881
3242.078	4853
3243.847	4814
3245.615	4889
3247.384	4850
3249.15	4788
3250.92	4889
3252.686	4861
3254.453	4880
3256.218	4755
3257.984	4761
3259.75	4849
3261.515	4890
3263.279	4858
3265.044	4902
3266.806	4918
3268.57	4958
3270.334	4961
3272.095	4907
3273.856	4888
3275.619	4960
3277.379	4800
3279.14	4888
3280.9	4799
3282.661	4875
3284.419	4899
3286.178	4843
3287.937	4879
3289.695	4903
3291.453	4905
3293.21	4913
3294.967	4928
3296.723	4873
3298.48	4886
3300.235	4851
3301.99	4938
3303.744	4900
3305.498	4873
3307.253	4849
3309.006	4875
3310.759	4835
3312.511	4891
3314.263	4896
3316.017	4879
3317.768	4993
3319.519	4936
3321.268	4965
3323.018	4891
3324.767	4955
3326.518	4908
3328.267	4916
3330.014	4822
3331.762	4875
3333.509	4951
3335.258	4932
3337.003	4903
3338.75	4913
3340.496	4923
3342.24	4839
3343.987	4942
3345.732	4793
3347.475	4984
3349.219	4860
3350.961	4933
3352.705	4871
3354.448	4863
3356.19	4890
3357.931	4882
3359.672	4815
3361.412	4760
3363.155	4761
3364.894	4742
3366.633	4813
3368.372	4761
3370.11	4738
3371.849	4743
3373.588	4821
3375.325	4751
3377.061	4751
3378.799	4782
3380.534	4769
3382.271	4704
3384.006	4740
3385.741	4743
3387.475	4709
3389.209	4666
3390.944	4659
3392.677	4802
3394.409	4707
3396.143	4671
3397.874	4787
3399.606	4710
3401.338	4668
3403.069	4671
3404.799	4700
3406.528	4668
3408.258	4584
3409.988	4613
3411.717	4735
3413.445	4629
3415.173	4583
3416.899	4655
3418.626	4700
3420.354	4694
3422.08	4620
3423.806	4610
3425.531	4596
3427.255	4677
3428.981	4555
3430.705	4657
3432.429	4621
3434.151	4531
3435.875	4649
3437.599	4587
3439.321	4539
3441.042	4514
3442.763	4551
3444.483	4585
3446.204	4496
3447.926	4545
3449.645	4552
3451.364	4508
3453.082	4575
3454.801	4502
3456.52	4473
3458.238	4506
3459.954	4460
3461.671	4402
3463.387	4466
3465.104	4336
3466.82	4524
3468.534	4419
3470.25	4436
3471.963	4433
3473.676	4372
3475.392	4430
3477.104	4450
3478.817	4446
3480.528	4440
3482.241	4356
3483.954	4385
3485.664	4412
3487.374	4242
3489.084	4334
3490.795	4272
3492.504	4391
3494.214	4359
3495.922	4318
3497.63	4371
3499.338	4326
3501.045	4392
3502.753	4249
3504.459	4288
3506.166	4304
3507.871	4247
3509.576	4227
3511.283	4372
3512.987	4241
3514.691	4243
3516.395	4320
3518.098	4252
3519.8	4259
3521.504	4149
3523.206	4178
3524.908	4279
3526.609	4198
3528.309	4154
3530.011	4201
3531.711	4233
3533.411	4198
3535.109	4181
3536.808	4119
3538.507	4240
3540.206	4215
3541.904	4157
3543.601	4067
3545.297	4192
3546.994	4126
3548.69	4172
3550.387	4192
3552.081	4193
3553.776	4176
3555.47	4113
3557.166	4044
3558.859	4076
3560.553	4061
3562.245	4051
3563.938	4066
3565.629	4104
3567.322	4019
3569.014	4136
3570.704	4108
3572.394	4077
3574.084	4055
3575.775	4057
3577.464	4043
3579.152	4053
3580.842	4062
3582.529	4025
3584.216	4026
3585.905	4144
3587.591	4001
3589.279	4027
3590.964	3899
3592.649	4002
3594.336	4058
3596.021	3932
3597.705	3905
3599.388	3964
3601.072	3953
3602.757	3866
3604.439	3969
3606.122	3948
3607.803	4017
3609.485	3935
3611.167	3976
3612.849	3930
3614.529	3977
3616.208	3866
3617.888	3854
3619.567	3930
3621.247	3856
3622.926	3862
3624.603	3768
3626.281	3871
3627.958	3858
3629.635	3850
3631.312	3815
3632.989	3709
3634.665	3834
3636.339	3772
3638.014	3762
3639.691	3786
3641.364	3827
3643.038	3791
3644.71	3733
3646.384	3700
3648.058	3748
3649.729	3751
3651.402	3747
3653.073	3690
3654.744	3675
3656.414	3692
3658.085	3789
3659.755	3690
3661.424	3716
3663.094	3630
3664.762	3788
3666.431	3730
3668.099	3767
3669.766	3692
3671.433	3654
3673.099	3731
3674.768	3619
3676.433	3683
3678.098	3572
3679.763	3746
3681.428	3681
3683.093	3695
3684.757	3728
3686.421	3615
3688.083	3625
3689.746	3692
3691.408	3692
3693.071	3689
3694.733	3570
3696.394	3633
3698.054	3577
3699.715	3504
3701.375	3647
3703.036	3651
3704.695	3545
3706.354	3606
3708.012	3661
3709.67	3555
3711.329	3623
3712.987	3635
3714.644	3640
3716.299	3562
3717.955	3548
3719.613	3567
3721.268	3522
3722.923	3553
3724.577	3615
3726.231	3540
3727.885	3548
3729.539	3479
3731.192	3603
3732.845	3552
3734.497	3572
3736.149	3599
3737.802	3503
3739.453	3544
3741.104	3621
3742.753	3554
3744.404	3512
3746.052	3502
3747.704	3520
3749.352	3430
3751	3571
3752.648	3498
3754.296	3466
3755.944	3596
3757.59	3516
3759.238	3456
3760.883	3499
3762.528	3563
3764.176	3477
3765.82	3424
3767.464	3454
3769.109	3496
3770.753	3452
3772.396	3472
3774.04	3453
3775.683	3459
3777.325	3470
3778.967	3433
3780.608	3472
3782.25	3499
3783.89	3410
3785.531	3490
3787.17	3526
3788.81	3386
3790.45	3474
3792.09	3416
3793.729	3418
3795.366	3380
3797.003	3415
3798.64	3348
3800.278	3366
3801.915	3432
3803.551	3431
3805.187	3292
3806.822	3391
3808.458	3306
3810.093	3319
3811.726	3420
3813.36	3330
3814.994	3403
3816.627	3347
3818.262	3393
3819.893	3356
3821.525	3389
3823.157	3475
3824.787	3337
3826.42	3398
3828.051	3350
3829.68	3352
3831.31	3402
3832.938	3440
3834.569	3257
3836.198	3392
3837.825	3299
3839.454	3319
3841.08	3340
3842.708	3333
3844.335	3312
3845.962	3358
3847.587	3293
3849.212	3278
3850.838	3286
3852.463	3302
3854.089	3261
3855.712	3278
3857.335	3206
3858.959	3259
3860.582	3288
3862.205	3255
3863.827	3317
3865.449	3313
3867.07	3274
3868.691	3185
3870.312	3222
3871.933	3295
3873.553	3276
3875.173	3220
3876.792	3249
3878.411	3238
3880.03	3227
3881.647	3209
3883.265	3174
3884.882	3240
3886.499	3278
3888.116	3220
3889.732	3201
3891.348	3246
3892.964	3215
3894.579	3158
3896.195	3226
3897.809	3202
3899.423	3169
3901.036	3218
3902.648	3289
3904.261	3315
3905.875	3258
3907.487	3188
3909.099	3183
3910.709	3182
3912.321	3158
3913.933	3176
3915.542	3291
3917.152	3224
3918.762	3207
3920.37	3193
3921.98	3249
3923.589	3183
3925.196	3169
3926.804	3199
3928.41	3211
3930.018	3071
3931.626	3177
3933.231	3181
3934.838	3184
3936.442	3204
3938.046	3212
3939.653	3139
3941.257	3149
3942.861	3205
3944.464	3156
3946.068	3188
3947.67	3137
3949.273	3149
3950.876	3228
3952.477	3138
3954.078	3105
3955.678	3100
3957.281	3192
3958.881	3092
3960.48	3193
3962.079	3116
3963.678	3151
3965.279	3105
3966.877	3082
3968.475	3104
3970.072	3169
3971.669	3091
3973.266	3080
3974.864	3135
3976.459	3037
3978.055	3104
3979.65	3066
3981.245	3117
3982.841	3055
3984.436	3141
3986.03	3015
3987.623	3058
3989.216	3086
3990.809	3066
3992.403	3038
3993.995	3029
3995.586	3009
3997.177	2935
3998.768	3060
4000.361	3048
4001.951	3038
4003.54	3009
4005.13	2987
4006.719	3068
4008.31	3045
4009.897	3059
4011.485	3056
4013.073	2935
4014.66	3030
4016.247	3017
4017.834	2979
4019.421	3027
4021.006	2979
4022.592	2912
4024.178	3012
4025.763	3041
4027.348	2966
4028.932	2936
4030.515	2950
4032.099	2955
4033.682	2986
4035.266	2994
4036.847	2959
4038.429	2889
4040.011	2912
4041.592	2981
4043.173	2867
4044.755	2919
4046.334	2935
4047.913	2930
4049.494	2947
4051.074	2970
4052.652	2856
4054.23	2941
4055.807	2930
4057.385	2942
4058.963	2866
4060.541	2846
4062.117	2909
4063.693	2955
4065.269	2900
4066.844	2890
4068.42	2906
4069.995	2920
4071.569	2822
4073.143	2885
4074.716	2842
4076.291	2891
4077.864	2857
4079.436	2879
4081.009	2897
4082.58	2848
4084.152	2873
4085.723	2861
4087.294	2838
4088.865	2822
4090.435	2920
4092.005	2828
4093.574	2839
4095.143	2879
4096.712	2855
4098.279	2842
4099.848	2841
4101.416	2814
4102.984	2896
4104.55	2892
4106.117	2845
4107.682	2821
4109.248	2756
4110.815	2859
4112.379	2815
4113.945	2840
4115.508	2828
4117.073	2865
4118.637	2794
4120.201	2831
4121.763	2752
4123.325	2823
4124.888	2729
4126.449	2808
4128.013	2825
4129.573	2850
4131.133	2798
4132.694	2758
4134.254	2768
4135.814	2781
4137.374	2764
4138.933	2790
4140.491	2806
4142.049	2683
4143.607	2758
4145.167	2830
4146.724	2750
4148.28	2691
4149.836	2744
4151.392	2763
4152.949	2701
4154.504	2710
4156.059	2699
4157.614	2763
4159.168	2751
4160.723	2667
4162.277	2714
4163.83	2694
4165.383	2710
4166.936	2765
4168.488	2707
4170.041	2665
4171.593	2753
4173.144	2697
4174.695	2653
4176.246	2670
4177.796	2713
4179.346	2605
4180.896	2685
4182.445	2655
4183.994	2713
4185.542	2641
4187.091	2634
4188.639	2669
4190.185	2648
4191.732	2661
4193.279	2662
4194.826	2651
4196.373	2617
4197.918	2670
4199.463	2615
4201.008	2619
4202.553	2636
4204.098	2554
4205.641	2655
4207.185	2657
4208.728	2657
4210.271	2589
4211.814	2628
4213.357	2549
4214.898	2611
4216.439	2560
4217.98	2628
4219.522	2583
4221.062	2579
4222.603	2564
4224.142	2664
4225.681	2617
4227.222	2588
4228.76	2621
4230.298	2668
4231.835	2549
4233.373	2577
4234.911	2614
4236.449	2582
4237.985	2568
4239.521	2527
4241.057	2609
4242.592	2587
4244.128	2519
4245.663	2614
4247.197	2586
4248.731	2504
4250.265	2510
4251.798	2604
4253.333	2543
4254.865	2608
4256.397	2515
4257.93	2498
4259.461	2554
4260.994	2542
4262.525	2514
4264.056	2570
4265.586	2495
4267.115	2575
4268.646	2519
4270.176	2553
4271.705	2510
4273.232	2542
4274.761	2516
4276.289	2536
4277.818	2581
4279.345	2527
4280.872	2528
4282.399	2506
4283.924	2517
4285.452	2506
4286.976	2503
4288.502	2567
4290.026	2532
4291.551	2489
4293.074	2493
4294.6	2504
4296.123	2556
4297.646	2456
4299.168	2489
4300.691	2529
4302.214	2419
4303.736	2440
4305.257	2498
4306.778	2476
4308.299	2424
4309.82	2447
4311.34	2419
4312.86	2502
4314.379	2441
