400.0745	4185
402.597	4156
405.1208	4253
407.6419	4188
410.1623	4127
412.6819	4299
415.201	4220
417.7172	4284
420.2369	4353
422.7538	4392
425.2701	4293
427.7856	4415
430.3005	4488
432.8147	4515
435.3282	4451
437.841	4591
440.3511	4390
442.8625	4576
445.3753	4415
447.8854	4497
450.3927	4461
452.9014	4449
455.4073	4432
457.9146	4386
460.4233	4411
462.9272	4536
465.4325	4408
467.935	4429
470.4389	4500
472.9421	4483
475.4446	4431
477.9444	4460
480.4456	4524
482.944	4474
485.4417	4524
487.9429	4516
490.4393	4452
492.935	4525
495.4321	4530
497.9264	4583
500.4221	4630
502.9171	4574
505.4094	4469
507.9011	4559
510.392	4572
512.8864	4596
515.3759	4669
517.8649	4713
520.3531	4626
522.8406	4548
525.3275	4728
527.8178	4605
530.3033	4622
532.7881	4647
535.2723	4687
537.7558	4686
540.2407	4682
542.7228	4612
545.2043	4564
547.6851	4641
550.1652	4726
552.6467	4726
555.1255	4716
557.6016	4535
560.079	4772
562.5557	4621
565.0318	4669
567.5092	4759
569.984	4726
572.456	4679
574.9294	4839
577.4022	4769
579.8762	4861
582.3456	4767
584.8163	4854
587.2863	4820
589.7557	4892
592.2224	4895
594.6924	4902
597.1578	4846
599.6245	4882
602.0905	4812
604.5538	4802
607.0206	4857
609.4825	4739
611.9459	4854
614.4066	4761
616.8686	4733
619.33	4760
621.7906	4856
624.2487	4785
626.708	4726
629.1647	4730
631.6207	4821
634.0801	4771
636.5348	4835
638.9888	4788
641.4442	4745
643.8969	4753
646.3509	4883
648.8022	4902
651.255	4938
653.705	4840
656.1544	4891
658.6031	4924
661.0532	4920
663.5026	4819
665.9493	4942
668.3954	4950
670.8409	4925
673.2877	4847
675.7318	4931
678.1752	4951
680.618	4921
683.0601	4905
685.5035	4925
687.9444	5065
690.3845	5036
692.824	4978
695.2628	4990
697.701	5026
700.1406	4998
702.5774	4967
705.0116	5082
707.4472	4985
709.8821	5116
712.3183	5076
714.7519	5033
717.1829	4925
719.6151	5070
722.0468	5082
724.4777	5077
726.908	5133
729.3377	5159
731.7667	5137
734.1931	5096
736.6208	5102
739.0498	5105
741.4742	5184
743.9	5200
746.3231	5176
748.7476	5299
751.1713	5256
753.5945	5224
756.015	5216
758.4368	5256
760.856	5336
763.2766	5258
765.6965	5361
768.1157	5202
770.5323	5298
772.9483	5333
775.3656	5387
777.7822	5356
780.1963	5298
782.6116	5292
785.0244	5324
787.4365	5301
789.8499	5286
792.2626	5343
794.6728	5358
797.0823	5373
799.4911	5304
801.8994	5346
804.3109	5437
806.7178	5387
809.124	5370
811.5297	5407
813.9347	5402
816.341	5417
818.7447	5410
821.1478	5454
823.5502	5409
825.952	5364
828.3531	5437
830.7556	5360
833.1554	5485
835.5546	5458
837.9532	5382
840.3511	5546
842.7504	5473
845.1451	5466
847.5411	5555
849.9365	5579
852.3312	5656
854.7272	5536
857.1187	5514
859.5115	5640
861.9037	5552
864.2952	5485
866.6842	5626
869.0764	5503
871.4661	5525
873.8531	5532
876.2415	5501
878.6272	5469
881.0162	5470
883.4026	5459
885.7866	5516
888.1717	5520
890.5543	5510
892.9382	5491
895.3215	5417
897.7041	5491
900.0842	5467
902.4655	5527
904.8443	5538
907.2244	5602
909.6039	5622
911.9808	5628
914.357	5670
916.7346	5511
919.1115	5679
921.4859	5809
923.8616	5842
926.2347	5813
928.6071	5824
930.979	5805
933.3541	5782
935.7247	5963
938.0946	5857
940.4639	5849
942.8326	5980
945.2026	5997
947.5701	6108
949.9369	6366
952.305	6404
954.6705	6774
957.0355	7028
959.4017	7306
961.7654	7317
964.1284	7246
966.4908	7153
968.8527	6778
971.2138	6470
973.5743	6251
975.9343	6028
978.2936	5925
980.6522	5764
983.0122	5791
985.3696	5923
987.7245	5744
990.0807	5697
992.4362	5756
994.7911	5632
997.1474	5616
999.4991	5701
1001.852	5795
1004.205	5761
1006.555	5659
1008.908	5829
1011.258	5690
1013.606	5714
1015.956	5751
1018.302	5779
1020.652	5797
1022.998	5638
1025.345	5799
1027.691	5726
1030.035	5775
1032.378	5733
1034.724	5826
1037.066	5822
1039.409	5820
1041.75	5801
1044.092	5860
1046.433	5808
1048.771	5818
1051.112	5818
1053.449	5883
1055.786	5842
1058.124	5855
1060.462	5933
1062.797	5873
1065.131	5974
1067.467	5913
1069.8	5981
1072.135	5920
1074.467	5978
1076.798	5870
1079.129	5876
1081.459	5907
1083.792	5973
1086.121	5959
1088.449	5944
1090.777	5862
1093.104	5723
1095.431	5854
1097.759	5780
1100.084	5736
1102.408	5815
1104.732	5823
1107.056	5871
1109.379	5869
1111.701	5794
1114.022	5845
1116.343	5769
1118.664	5767
1120.983	5890
1123.303	5881
1125.621	5936
1127.939	5985
1130.256	5892
1132.573	5855
1134.889	5838
1137.205	5875
1139.52	5860
1141.832	5829
1144.146	5910
1146.461	5947
1148.771	5818
1151.083	5786
1153.392	5788
1155.703	5805
1158.011	5811
1160.323	5869
1162.629	5911
1164.938	5850
1167.243	5844
1169.55	5878
1171.857	5917
1174.163	5749
1176.466	5759
1178.769	5939
1181.073	5849
1183.374	5900
1185.677	5746
1187.979	5805
1190.279	5846
1192.578	5862
1194.878	5845
1197.178	5720
1199.476	5851
1201.772	5843
1204.068	5941
1206.366	5875
1208.663	5992
1210.957	5862
1213.251	5873
1215.544	5929
1217.836	5772
1220.128	6022
1222.421	5872
1224.712	5942
1227.002	5926
1229.292	5994
1231.581	6019
1233.871	6025
1236.159	6027
1238.446	6066
1240.732	6180
1243.018	6077
1245.304	6113
1247.59	6185
1249.874	6141
1252.156	6078
1254.439	6151
1256.721	6131
1259.005	6079
1261.286	6130
1263.565	6111
1265.845	6045
1268.125	6033
1270.403	6091
1272.682	6110
1274.959	6120
1277.234	6029
1279.511	6081
1281.787	6024
1284.062	5985
1286.337	6000
1288.609	5996
1290.882	5999
1293.153	5954
1295.428	5984
1297.698	6048
1299.969	6166
1302.237	5984
1304.507	5896
1306.777	6068
1309.044	5957
1311.312	6068
1313.578	5939
1315.844	5882
1318.109	6017
1320.375	5957
1322.638	6037
1324.903	5981
1327.165	5919
1329.427	6051
1331.69	6029
1333.952	6068
1336.212	6031
1338.471	5954
1340.73	5987
1342.988	5937
1345.248	5967
1347.505	5983
1349.763	6001
1352.019	5923
1354.274	5916
1356.53	5904
1358.784	5973
1361.038	5933
1363.291	5980
1365.543	5982
1367.797	6032
1370.048	6017
1372.296	5957
1374.546	5985
1376.796	6012
1379.045	5963
1381.295	5871
1383.542	5979
1385.787	6059
1388.034	6045
1390.28	6069
1392.527	6081
1394.772	6132
1397.014	6116
1399.258	6070
1401.501	6199
1403.741	6177
1405.985	6024
1408.226	6167
1410.465	6077
1412.705	6145
1414.943	6024
1417.184	6206
1419.42	6173
1421.658	6206
1423.894	6242
1426.13	6101
1428.366	6113
1430.602	6139
1432.835	6257
1435.069	6265
1437.301	6245
1439.535	6286
1441.767	6308
1443.997	6305
1446.229	6309
1448.458	6191
1450.687	6282
1452.916	6308
1455.146	6366
1457.372	6364
1459.599	6343
1461.824	6332
1464.051	6416
1466.277	6315
1468.501	6149
1470.725	6188
1472.948	6140
1475.17	5977
1477.393	6189
1479.614	6141
1481.837	6061
1484.057	5966
1486.276	6057
1488.497	6032
1490.715	6067
1492.932	6026
1495.148	5897
1497.364	5925
1499.58	6142
1501.798	5991
1504.012	5966
1506.227	5867
1508.44	5948
1510.653	5981
1512.866	5972
1515.078	5975
1517.289	5892
1519.5	5914
1521.711	5900
1523.92	5981
1526.13	6008
1528.338	5834
1530.544	5837
1532.752	6084
1534.959	5984
1537.165	6000
1539.371	6070
1541.574	6024
1543.779	5893
1545.983	5997
1548.187	5880
1550.39	6035
1552.59	5997
1554.792	6022
1556.991	6037
1559.19	5946
1561.392	5969
1563.59	5979
1565.789	6046
1567.986	6081
1570.182	6088
1572.381	6179
1574.576	6010
1576.771	6039
1578.966	6125
1581.16	6099
1583.354	6097
1585.546	6114
1587.74	6090
1589.931	6145
1592.121	6122
1594.311	6014
1596.502	6231
1598.693	6109
1600.881	6216
1603.069	6092
1605.256	6217
1607.445	6081
1609.631	6250
1611.816	6167
1614.001	6230
1616.186	6226
1618.37	6097
1620.555	6141
1622.737	6174
1624.919	6247
1627.101	6215
1629.282	6233
1631.463	6270
1633.643	6183
1635.822	6226
1638.001	6273
1640.179	6234
1642.359	6294
1644.534	6269
1646.711	6351
1648.887	6147
1651.062	6267
1653.235	6293
1655.412	6228
1657.586	6289
1659.757	6349
1661.93	6226
1664.1	6309
1666.274	6343
1668.445	6256
1670.614	6342
1672.784	6357
1674.951	6191
1677.12	6299
1679.289	6313
1681.457	6288
1683.622	6371
1685.789	6299
1687.953	6177
1690.121	6220
1692.284	6171
1694.447	6111
1696.611	6303
1698.772	6293
1700.935	6228
1703.098	6236
1705.258	6023
1707.417	6128
1709.576	6267
1711.736	6119
1713.896	6175
1716.053	6261
1718.21	6122
1720.366	6034
1722.522	6129
1724.68	6190
1726.835	6008
1728.989	6147
1731.142	6059
1733.295	6163
1735.449	6121
1737.601	6015
1739.753	6114
1741.903	6230
1744.054	6079
1746.203	6090
1748.354	6055
1750.503	6159
1752.651	6204
1754.798	6088
1756.944	6212
1759.092	6157
1761.238	6213
1763.383	6115
1765.528	6174
1767.672	6215
1769.814	6206
1771.959	6125
1774.102	6147
1776.242	6150
1778.384	6202
1780.525	6231
1782.665	6002
1784.805	6129
1786.945	6017
1789.082	6159
1791.22	6158
1793.36	6251
1795.495	6204
1797.632	6143
1799.766	6161
1801.902	6280
1804.035	6230
1806.172	6174
1808.304	6153
1810.436	6132
1812.569	6073
1814.699	6143
1816.833	6189
1818.963	6037
1821.092	6135
1823.222	6167
1825.35	6105
1827.478	6143
1829.608	6157
1831.734	6146
1833.86	6119
1835.986	6090
1838.11	6241
1840.238	6157
1842.362	6055
1844.485	6168
1846.608	6163
1848.73	5955
1850.853	6057
1852.974	6096
1855.097	6064
1857.217	6113
1859.336	6074
1861.455	6092
1863.576	6089
1865.693	6046
1867.811	6016
1869.926	6141
1872.042	6085
1874.16	6019
1876.275	6116
1878.39	6045
1880.504	6119
1882.618	6196
1884.731	6217
1886.843	6084
1888.956	6102
1891.067	6065
1893.178	6142
1895.287	6158
1897.399	6060
1899.508	6087
1901.617	6092
1903.724	6085
1905.832	6056
1907.941	6189
1910.046	6047
1912.152	6136
1914.256	6223
1916.361	6173
1918.464	6144
1920.57	6216
1922.672	6087
1924.775	6107
1926.876	6157
1928.978	6171
1931.08	6145
1933.181	6191
1935.28	6187
1937.38	6156
1939.478	6242
1941.577	6124
1943.675	6309
1945.771	6147
1947.867	6152
1949.964	6141
1952.058	6175
1954.154	6189
1956.248	6127
1958.343	6099
1960.435	6191
1962.527	6245
1964.62	6155
1966.711	6214
1968.802	6085
1970.892	6208
1972.983	6104
1975.072	6300
1977.162	6137
1979.25	6185
1981.337	6146
1983.424	6268
1985.51	6091
1987.598	6129
1989.683	6239
1991.768	6085
1993.852	6147
1995.934	6115
1998.019	6115
2000.102	6072
2002.184	5985
2004.266	6078
2006.347	6114
2008.427	6089
2010.508	6186
2012.587	6169
2014.666	6025
2016.745	6091
2018.821	6143
2020.9	6139
2022.977	6158
2025.052	6015
2027.128	6077
2029.204	6053
2031.277	6072
2033.353	6061
2035.425	6106
2037.499	6067
2039.57	6054
2041.642	6050
2043.714	6093
2045.786	6074
2047.855	6001
2049.925	6006
2051.993	6139
2054.064	6108
2056.132	6103
2058.2	6175
2060.266	6039
2062.332	6235
2064.398	6114
2066.465	6178
2068.529	6142
2070.592	6022
2072.657	6073
2074.719	6033
2076.783	6099
2078.845	6061
2080.907	6076
2082.968	6094
2085.028	6073
2087.087	6002
2089.148	6103
2091.207	6052
2093.264	6052
2095.322	6154
2097.379	6217
2099.439	6007
2101.495	6117
2103.55	6196
2105.605	6060
2107.658	6144
2109.713	6030
2111.767	6125
2113.82	6098
2115.872	6073
2117.924	5984
2119.975	6057
2122.028	6081
2124.078	6189
2126.126	6046
2128.176	6207
2130.225	6096
2132.275	5970
2134.321	6013
2136.368	5946
2138.415	6078
2140.461	6093
2142.505	6014
2144.552	5926
2146.597	6011
2148.64	6097
2150.684	6077
2152.725	6116
2154.77	5971
2156.811	6117
2158.852	6063
2160.894	6052
2162.933	6041
2164.973	6053
2167.013	6017
2169.051	6113
2171.089	6008
2173.126	6093
2175.164	6066
2177.201	5943
2179.236	5867
2181.273	6039
2183.307	6033
2185.341	5921
2187.377	5875
2189.41	5954
2191.442	5923
2193.473	5955
2195.506	5873
2197.539	5995
2199.569	5996
2201.598	5991
2203.628	5851
2205.656	5925
2207.686	5954
2209.716	5900
2211.743	5972
2213.769	5851
2215.796	5872
2217.821	5810
2219.848	5922
2221.873	5868
2223.897	5830
2225.921	5989
2227.944	5852
2229.967	5920
2231.991	5823
2234.011	5957
2236.032	5947
2238.053	5909
2240.073	5752
2242.094	5957
2244.114	5906
2246.131	5843
2248.149	5802
2250.167	5902
2252.186	5941
2254.201	5893
2256.218	5831
2258.233	5816
2260.247	5953
2262.262	5865
2264.278	5843
2266.29	5775
2268.303	5871
2270.315	5843
2272.327	5872
2274.341	5944
2276.35	5832
2278.361	5845
2280.37	5887
2282.38	5781
2284.388	5950
2286.397	5932
2288.405	5901
2290.412	5901
2292.419	5846
2294.425	5892
2296.431	5829
2298.437	5965
2300.441	5971
2302.445	5906
2304.449	5855
2306.453	5880
2308.455	5830
2310.457	5818
2312.459	5858
2314.46	5765
2316.46	5826
2318.461	5835
2320.46	5814
2322.458	5800
2324.458	5794
2326.456	5806
2328.455	5812
2330.451	5859
2332.447	5921
2334.443	5867
2336.438	5759
2338.433	5781
2340.429	5834
2342.422	5768
2344.416	5790
2346.408	5807
2348.399	5836
2350.393	5728
2352.384	5764
2354.375	5771
2356.365	5777
2358.355	5766
2360.344	5800
2362.333	5753
2364.322	5650
2366.309	5624
2368.295	5831
2370.282	5631
2372.27	5719
2374.256	5673
2376.24	5850
2378.225	5630
2380.208	5799
2382.194	5572
2384.177	5605
2386.159	5634
2388.142	5603
2390.122	5630
2392.105	5656
2394.085	5813
2396.066	5601
2398.044	5710
2400.024	5655
2402.002	5732
2403.982	5701
2405.959	5675
2407.935	5711
2409.913	5582
2411.888	5573
2413.865	5689
2415.84	5672
2417.814	5638
2419.788	5613
2421.762	5588
2423.735	5649
2425.708	5593
2427.68	5619
2429.651	5762
2431.623	5665
2433.593	5639
2435.564	5699
2437.533	5674
2439.502	5707
2441.47	5668
2443.438	5585
2445.406	5667
2447.373	5639
2449.34	5742
2451.305	5603
2453.271	5680
2455.235	5531
2457.201	5673
2459.165	5669
2461.129	5626
2463.092	5579
2465.054	5553
2467.018	5604
2468.978	5611
2470.939	5532
2472.899	5596
2474.86	5736
2476.819	5462
2478.778	5615
2480.737	5596
2482.695	5550
2484.653	5571
2486.609	5446
2488.567	5589
2490.524	5452
2492.478	5650
2494.433	5487
2496.387	5522
2498.343	5510
2500.297	5547
2502.249	5516
2504.202	5467
2506.153	5711
2508.105	5496
2510.057	5538
2512.008	5559
2513.957	5519
2515.906	5498
2517.855	5482
2519.805	5518
2521.754	5586
2523.7	5516
2525.647	5597
2527.594	5425
2529.54	5460
2531.486	5515
2533.431	5562
2535.376	5470
2537.32	5518
2539.263	5549
2541.207	5470
2543.151	5518
2545.093	5440
2547.034	5551
2548.975	5535
2550.917	5416
2552.856	5554
2554.796	5480
2556.735	5508
2558.673	5518
2560.611	5446
2562.55	5380
2564.487	5481
2566.424	5523
2568.36	5424
2570.296	5545
2572.232	5364
2574.167	5491
2576.101	5507
2578.035	5456
2579.969	5537
2581.902	5439
2583.834	5591
2585.766	5574
2587.698	5512
2589.628	5396
2591.557	5591
2593.489	5466
2595.419	5609
2597.348	5482
2599.275	5518
2601.204	5469
2603.131	5549
2605.059	5530
2606.986	5496
2608.911	5418
2610.837	5514
2612.76	5435
2614.687	5551
2616.61	5557
2618.534	5473
2620.457	5498
2622.38	5449
2624.302	5456
2626.225	5492
2628.145	5402
2630.067	5487
2631.986	5576
2633.906	5467
2635.827	5450
2637.745	5621
2639.662	5499
2641.581	5525
2643.498	5599
2645.415	5509
2647.331	5424
2649.248	5574
2651.163	5364
2653.077	5560
2654.993	5506
2656.906	5479
2658.821	5524
2660.733	5483
2662.646	5427
2664.557	5454
2666.47	5515
2668.381	5428
2670.291	5495
2672.201	5473
2674.11	5510
2676.021	5563
2677.929	5499
2679.837	5521
2681.745	5488
2683.652	5484
2685.56	5444
2687.466	5497
2689.371	5462
2691.276	5461
2693.181	5379
2695.085	5386
2696.991	5573
2698.893	5474
2700.796	5365
2702.698	5406
2704.601	5407
2706.502	5443
2708.404	5459
2710.304	5365
2712.203	5405
2714.103	5345
2716.003	5334
2717.902	5506
2719.8	5391
2721.697	5391
2723.594	5224
2725.49	5388
2727.389	5331
2729.283	5373
2731.179	5387
2733.073	5307
2734.968	5418
2736.863	5280
2738.757	5317
2740.649	5312
2742.541	5414
2744.433	5388
2746.324	5416
2748.216	5310
2750.107	5365
2751.997	5400
2753.886	5304
2755.776	5354
2757.666	5408
2759.553	5342
2761.44	5317
2763.327	5323
2765.215	5309
2767.102	5383
2768.988	5246
2770.873	5244
2772.757	5326
2774.641	5316
2776.525	5272
2778.41	5247
2780.292	5246
2782.175	5358
2784.057	5307
2785.938	5350
2787.821	5299
2789.701	5262
2791.581	5253
2793.461	5300
2795.34	5312
2797.219	5317
2799.099	5218
2800.975	5293
2802.853	5246
2804.73	5218
2806.606	5311
2808.484	5267
2810.358	5213
2812.233	5360
2814.108	5310
2815.981	5416
2817.857	5255
2819.73	5349
2821.602	5230
2823.474	5207
2825.346	5202
2827.217	5130
2829.089	5264
2830.959	5305
2832.829	5239
2834.698	5326
2836.567	5199
2838.436	5284
2840.305	5254
2842.172	5296
2844.04	5270
2845.905	5354
2847.772	5262
2849.639	5302
2851.503	5378
2853.369	5256
2855.232	5267
2857.096	5384
2858.961	5331
2860.824	5309
2862.686	5381
2864.547	5479
2866.41	5447
2868.272	5499
2870.132	5584
2871.992	5645
2873.851	5705
2875.711	5682
2877.57	5634
2879.429	5766
2881.287	5782
2883.144	5864
2885.001	5864
2886.857	5815
2888.714	5800
2890.57	5768
2892.425	5850
2894.279	5819
2896.133	5815
2897.987	5772
2899.842	5716
2901.694	5771
2903.547	5822
2905.397	5789
2907.249	5802
2909.101	5851
2910.952	5653
2912.802	5773
2914.652	5790
2916.5	5956
2918.35	5975
2920.198	5976
2922.045	6006
2923.893	6158
2925.74	6189
2927.585	6178
2929.433	6324
2931.279	6243
2933.123	6306
2934.968	6430
2936.811	6441
2938.656	6459
2940.5	6420
2942.342	6534
2944.185	6676
2946.026	6622
2947.87	6586
2949.71	6583
2951.549	6502
2953.39	6532
2955.229	6508
2957.069	6410
2958.908	6277
2960.746	6446
2962.584	6193
2964.421	6212
2966.257	6172
2968.094	6023
2969.931	6075
2971.766	6057
2973.601	5916
2975.435	5968
2977.27	5966
2979.105	5959
2980.938	5859
2982.77	5744
2984.602	5809
2986.434	5854
2988.267	5740
2990.097	5736
2991.927	5679
2993.757	5701
2995.587	5585
2997.417	5580
2999.246	5623
3001.074	5456
3002.902	5390
3004.729	5391
3006.556	5361
3008.384	5391
3010.21	5283
3012.036	5345
3013.861	5231
3015.684	5287
3017.51	5068
3019.334	5135
3021.157	5069
3022.981	5116
3024.802	5010
3026.624	5082
3028.448	4986
3030.267	5137
3032.088	5015
3033.909	4996
3035.728	4991
3037.549	5075
3039.368	5037
3041.186	4878
3043.004	4932
3044.821	4946
3046.64	4928
3048.455	4950
3050.272	4953
3052.087	4915
3053.903	5011
3055.717	4956
3057.534	4895
3059.347	4908
3061.16	4921
3062.974	4829
3064.785	5031
3066.598	4762
3068.411	5015
3070.222	4833
3072.032	4981
3073.844	4934
3075.653	4940
3077.463	4846
3079.272	4825
3081.08	4915
3082.889	4758
3084.697	4921
3086.505	4813
3088.312	4835
3090.118	4794
3091.924	4755
3093.729	4840
3095.535	4720
3097.34	4797
3099.144	4827
3100.947	4822
3102.75	4770
3104.553	4766
3106.357	4734
3108.159	4867
3109.961	4766
3111.762	4684
3113.562	4907
3115.365	4630
3117.164	4750
3118.964	4707
3120.761	4727
3122.56	4820
3124.36	4720
3126.158	4711
3127.954	4670
3129.75	4688
3131.547	4803
3133.343	4651
3135.139	4663
3136.934	4708
3138.729	4744
3140.522	4627
3142.317	4683
3144.11	4660
3145.904	4698
3147.695	4650
3149.488	4710
3151.28	4674
3153.07	4597
3154.863	4574
3156.652	4628
3158.441	4626
3160.231	4702
3162.019	4543
3163.81	4729
3165.597	4684
3167.384	4715
3169.172	4713
3170.958	4640
3172.745	4562
3174.532	4623
3176.317	4665
3178.101	4628
3179.885	4622
3181.67	4650
3183.455	4662
3185.238	4651
3187.02	4582
3188.802	4711
3190.585	4545
3192.368	4498
3194.149	4613
3195.929	4621
3197.709	4600
3199.489	4570
3201.268	4572
3203.048	4613
3204.826	4571
3206.604	4643
3208.382	4604
3210.159	4583
3211.937	4571
3213.713	4593
3215.489	4527
3217.263	4606
3219.038	4585
3220.815	4623
3222.589	4643
3224.363	4546
3226.136	4676
3227.908	4562
3229.681	4537
3231.454	4532
3233.226	4526
3234.996	4567
3236.767	4668
3238.538	4613
3240.308	4581
3242.078	4571
3243.847	4596
3245.615	4579
3247.384	4453
3249.15	4608
3250.92	4576
3252.686	4609
3254.453	4585
3256.218	4503
3257.984	4486
3259.75	4539
3261.515	4580
3263.279	4558
3265.044	4582
3266.806	4542
3268.57	4525
3270.334	4576
3272.095	4545
3273.856	4561
3275.619	4542
3277.379	4539
3279.14	4634
3280.9	4508
3282.661	4668
3284.419	4578
3286.178	4606
3287.937	4480
3289.695	4570
3291.453	4592
3293.21	4519
3294.967	4529
3296.723	4594
3298.48	4561
3300.235	4588
3301.99	4590
3303.744	4553
3305.498	4507
3307.253	4590
3309.006	4532
3310.759	4538
3312.511	4659
3314.263	4548
3316.017	4580
3317.768	4554
3319.519	4512
3321.268	4531
3323.018	4567
3324.767	4572
3326.518	4535
3328.267	4553
3330.014	4659
3331.762	4500
3333.509	4541
3335.258	4560
3337.003	4626
3338.75	4509
3340.496	4612
3342.24	4450
3343.987	4494
3345.732	4554
3347.475	4527
3349.219	4498
3350.961	4430
3352.705	4576
3354.448	4538
3356.19	4415
3357.931	4528
3359.672	4424
3361.412	4555
3363.155	4389
3364.894	4564
3366.633	4477
3368.372	4462
3370.11	4531
3371.849	4382
3373.588	4389
3375.325	4530
3377.061	4476
3378.799	4402
3380.534	4433
3382.271	4429
3384.006	4416
3385.741	4347
3387.475	4477
3389.209	4403
3390.944	4301
3392.677	4400
3394.409	4354
3396.143	4367
3397.874	4372
3399.606	4350
3401.338	4383
3403.069	4409
3404.799	4397
3406.528	4353
3408.258	4286
3409.988	4337
3411.717	4337
3413.445	4380
3415.173	4360
3416.899	4196
3418.626	4402
3420.354	4299
3422.08	4364
3423.806	4312
3425.531	4307
3427.255	4313
3428.981	4321
3430.705	4297
3432.429	4349
3434.151	4277
3435.875	4320
3437.599	4273
3439.321	4371
3441.042	4355
3442.763	4330
3444.483	4337
3446.204	4200
3447.926	4343
3449.645	4134
3451.364	4237
3453.082	4222
3454.801	4264
3456.52	4228
3458.238	4205
3459.954	4186
3461.671	4221
3463.387	4221
3465.104	4040
3466.82	4184
3468.534	4169
3470.25	4219
3471.963	4184
3473.676	4131
3475.392	4186
3477.104	4130
3478.817	4073
3480.528	4117
3482.241	4091
3483.954	4145
3485.664	4198
3487.374	4147
3489.084	4109
3490.795	4082
3492.504	4100
3494.214	4038
3495.922	4105
3497.63	4103
3499.338	4115
3501.045	4037
3502.753	4095
3504.459	4102
3506.166	4133
3507.871	4164
3509.576	4043
3511.283	3996
3512.987	3965
3514.691	4010
3516.395	4020
3518.098	3982
3519.8	4101
3521.504	4011
3523.206	4019
3524.908	3931
3526.609	4004
3528.309	3989
3530.011	3997
3531.711	3970
3533.411	4015
3535.109	3951
3536.808	3858
3538.507	3897
3540.206	3969
3541.904	3956
3543.601	3983
3545.297	3886
3546.994	3950
3548.69	3888
3550.387	3945
3552.081	3850
3553.776	3904
3555.47	3946
3557.166	3858
3558.859	3963
3560.553	3902
3562.245	3916
3563.938	3988
3565.629	3925
3567.322	3898
3569.014	3871
3570.704	3860
3572.394	3866
3574.084	3806
3575.775	3890
3577.464	3930
3579.152	3910
3580.842	3819
3582.529	3812
3584.216	3816
3585.905	3730
3587.591	3804
3589.279	3783
3590.964	3791
3592.649	3806
3594.336	3776
3596.021	3743
3597.705	3758
3599.388	3828
3601.072	3720
3602.757	3767
3604.439	3767
3606.122	3740
3607.803	3755
3609.485	3737
3611.167	3735
3612.849	3775
3614.529	3634
3616.208	3708
3617.888	3646
3619.567	3684
3621.247	3721
3622.926	3681
3624.603	3688
3626.281	3671
3627.958	3689
3629.635	3556
3631.312	3708
3632.989	3630
3634.665	3640
3636.339	3601
3638.014	3666
3639.691	3661
3641.364	3686
3643.038	3624
3644.71	3618
3646.384	3676
3648.058	3592
3649.729	3581
3651.402	3531
3653.073	3663
3654.744	3560
3656.414	3627
3658.085	3553
3659.755	3549
3661.424	3606
3663.094	3591
3664.762	3506
3666.431	3538
3668.099	3557
3669.766	3519
3671.433	3649
3673.099	3592
3674.768	3540
3676.433	3528
3678.098	3539
3679.763	3541
3681.428	3488
3683.093	3499
3684.757	3496
3686.421	3540
3688.083	3491
3689.746	3441
3691.408	3575
3693.071	3453
3694.733	3544
3696.394	3476
3698.054	3548
3699.715	3485
3701.375	3444
3703.036	3421
3704.695	3474
3706.354	3473
3708.012	3475
3709.67	3475
3711.329	3497
3712.987	3474
3714.644	3491
3716.299	3418
3717.955	3497
3719.613	3518
3721.268	3417
3722.923	3453
3724.577	3381
3726.231	3431
3727.885	3384
3729.539	3403
3731.192	3433
3732.845	3481
3734.497	3376
3736.149	3454
3737.802	3462
3739.453	3462
3741.104	3415
3742.753	3400
3744.404	3507
3746.052	3387
3747.704	3455
3749.352	3361
3751	3355
3752.648	3416
3754.296	3480
3755.944	3446
3757.59	3410
3759.238	3421
3760.883	3286
3762.528	3409
3764.176	3370
3765.82	3340
3767.464	3421
3769.109	3322
3770.753	3428
3772.396	3318
3774.04	3343
3775.683	3311
3777.325	3301
3778.967	3264
3780.608	3271
3782.25	3300
3783.89	3399
3785.531	3263
3787.17	3324
3788.81	3358
3790.45	3348
3792.09	3286
3793.729	3319
3795.366	3227
3797.003	3281
3798.64	3339
3800.278	3250
3801.915	3278
3803.551	3290
3805.187	3251
3806.822	3241
3808.458	3328
3810.093	3320
3811.726	3307
3813.36	3308
3814.994	3220
3816.627	3210
3818.262	3296
3819.893	3220
3821.525	3240
3823.157	3258
3824.787	3277
3826.42	3228
3828.051	3267
3829.68	3185
3831.31	3231
3832.938	3218
3834.569	3202
3836.198	3202
3837.825	3218
3839.454	3245
3841.08	3289
3842.708	3196
3844.335	3210
3845.962	3217
3847.587	3205
3849.212	3221
3850.838	3210
3852.463	3190
3854.089	3152
3855.712	3172
3857.335	3183
3858.959	3159
3860.582	3178
3862.205	3180
3863.827	3204
3865.449	3188
3867.07	3223
3868.691	3158
3870.312	3131
3871.933	3112
3873.553	3209
3875.173	3176
3876.792	3120
3878.411	3141
3880.03	3132
3881.647	3173
3883.265	3108
3884.882	3113
3886.499	3135
3888.116	3149
3889.732	3202
3891.348	3144
3892.964	3174
3894.579	3167
3896.195	3178
3897.809	3075
3899.423	3117
3901.036	3094
3902.648	3075
3904.261	3146
3905.875	3136
3907.487	3140
3909.099	3121
3910.709	3128
3912.321	3124
3913.933	3144
3915.542	3183
3917.152	3064
3918.762	3030
3920.37	3095
3921.98	3103
3923.589	3082
3925.196	3015
3926.804	3152
3928.41	3142
3930.018	3017
3931.626	3047
3933.231	3045
3934.838	3059
3936.442	3125
3938.046	3037
3939.653	3067
3941.257	3045
3942.861	3075
3944.464	3037
3946.068	3029
3947.67	3028
3949.273	3116
3950.876	3022
3952.477	2994
3954.078	3055
3955.678	3046
3957.281	3011
3958.881	2973
3960.48	2970
3962.079	3022
3963.678	3062
3965.279	3039
3966.877	3055
3968.475	3007
3970.072	3076
3971.669	3010
3973.266	3060
3974.864	2978
3976.459	3030
3978.055	2920
3979.65	3011
3981.245	2935
3982.841	2987
3984.436	3046
3986.03	2944
3987.623	2958
3989.216	2942
3990.809	2960
3992.403	2903
3993.995	2953
3995.586	2915
3997.177	2925
3998.768	2920
4000.361	3021
4001.951	3023
4003.54	2911
4005.13	2903
4006.719	2937
4008.31	2924
4009.897	2948
4011.485	2962
4013.073	2925
4014.66	2894
4016.247	2900
4017.834	2928
4019.421	2935
4021.006	2891
4022.592	2879
4024.178	2921
4025.763	2878
4027.348	2860
4028.932	2866
4030.515	2877
4032.099	2931
4033.682	2846
4035.266	2895
4036.847	2918
4038.429	2865
4040.011	2848
4041.592	2840
4043.173	2832
4044.755	2852
4046.334	2833
4047.913	2822
4049.494	2848
4051.074	2858
4052.652	2841
4054.23	2821
4055.807	2873
4057.385	2817
4058.963	2861
4060.541	2824
4062.117	2830
4063.693	2763
4065.269	2779
4066.844	2768
4068.42	2727
4069.995	2817
4071.569	2800
4073.143	2863
4074.716	2762
4076.291	2763
4077.864	2749
4079.436	2791
4081.009	2776
4082.58	2796
4084.152	2807
4085.723	2751
4087.294	2754
4088.865	2802
4090.435	2781
4092.005	2788
4093.574	2734
4095.143	2781
4096.712	2775
4098.279	2788
4099.848	2717
4101.416	2744
4102.984	2734
4104.55	2721
4106.117	2719
4107.682	2728
4109.248	2785
4110.815	2792
4112.379	2687
4113.945	2748
4115.508	2771
4117.073	2689
4118.637	2684
4120.201	2735
4121.763	2684
4123.325	2679
4124.888	2682
4126.449	2693
4128.013	2654
4129.573	2739
4131.133	2682
4132.694	2708
4134.254	2668
4135.814	2727
4137.374	2710
4138.933	2666
4140.491	2749
4142.049	2636
4143.607	2637
4145.167	2603
4146.724	2589
4148.28	2667
4149.836	2625
4151.392	2653
4152.949	2703
4154.504	2587
4156.059	2631
4157.614	2637
4159.168	2705
4160.723	2620
4162.277	2626
4163.83	2632
4165.383	2612
4166.936	2634
4168.488	2572
4170.041	2561
4171.593	2540
4173.144	2556
4174.695	2642
4176.246	2640
4177.796	2649
4179.346	2620
4180.896	2614
4182.445	2611
4183.994	2477
4185.542	2637
4187.091	2589
4188.639	2577
4190.185	2585
4191.732	2511
4193.279	2516
4194.826	2621
4196.373	2545
4197.918	2593
4199.463	2518
4201.008	2515
4202.553	2571
4204.098	2504
4205.641	2505
4207.185	2518
4208.728	2526
4210.271	2591
4211.814	2615
4213.357	2530
4214.898	2523
4216.439	2547
4217.98	2539
4219.522	2489
4221.062	2533
4222.603	2507
4224.142	2456
4225.681	2519
4227.222	2520
4228.76	2564
4230.298	2479
4231.835	2617
4233.373	2494
4234.911	2548
4236.449	2461
4237.985	2507
4239.521	2584
4241.057	2505
4242.592	2546
4244.128	2522
4245.663	2517
4247.197	2458
4248.731	2467
4250.265	2448
4251.798	2518
4253.333	2428
4254.865	2465
4256.397	2472
4257.93	2520
4259.461	2445
4260.994	2509
4262.525	2487
4264.056	2508
4265.586	2468
4267.115	2445
4268.646	2495
4270.176	2406
4271.705	2465
4273.232	2444
4274.761	2418
4276.289	2444
4277.818	2392
4279.345	2411
4280.872	2421
4282.399	2419
4283.924	2383
4285.452	2416
4286.976	2463
4288.502	2404
4290.026	2477
4291.551	2460
4293.074	2430
4294.6	2402
4296.123	2395
4297.646	2405
4299.168	2349
4300.691	2410
4302.214	2398
4303.736	2471
4305.257	2446
4306.778	2343
4308.299	2457
4309.82	2373
4311.34	2410
4312.86	2430
4314.379	2381
