400.0745	3830
402.597	3730
405.1208	3689
407.6419	3794
410.1623	3671
412.6819	3763
415.201	3816
417.7172	3852
420.2369	3875
422.7538	3999
425.2701	3943
427.7856	3892
430.3005	4001
432.8147	3859
435.3282	4024
437.841	4020
440.3511	3857
442.8625	3997
445.3753	4003
447.8854	4000
450.3927	4087
452.9014	4035
455.4073	4101
457.9146	4093
460.4233	4041
462.9272	3961
465.4325	4082
467.935	4038
470.4389	4102
472.9421	4097
475.4446	4023
477.9444	4082
480.4456	4117
482.944	4103
485.4417	4063
487.9429	4063
490.4393	4183
492.935	4143
495.4321	4174
497.9264	4150
500.4221	4118
502.9171	4129
505.4094	4176
507.9011	4185
510.392	4189
512.8864	4219
515.3759	4196
517.8649	4194
520.3531	4237
522.8406	4212
525.3275	4257
527.8178	4192
530.3033	4189
532.7881	4196
535.2723	4260
537.7558	4242
540.2407	4247
542.7228	4186
545.2043	4219
547.6851	4235
550.1652	4304
552.6467	4186
555.1255	4317
557.6016	4227
560.079	4263
562.5557	4350
565.0318	4254
567.5092	4312
569.984	4302
572.456	4332
574.9294	4330
577.4022	4327
579.8762	4276
582.3456	4307
584.8163	4447
587.2863	4354
589.7557	4461
592.2224	4418
594.6924	4418
597.1578	4459
599.6245	4355
602.0905	4348
604.5538	4465
607.0206	4371
609.4825	4386
611.9459	4335
614.4066	4273
616.8686	4434
619.33	4343
621.7906	4456
624.2487	4325
626.708	4381
629.1647	4430
631.6207	4344
634.0801	4302
636.5348	4396
638.9888	4333
641.4442	4387
643.8969	4351
646.3509	4316
648.8022	4368
651.255	4355
653.705	4438
656.1544	4423
658.6031	4437
661.0532	4382
663.5026	4458
665.9493	4497
668.3954	4454
670.8409	4496
673.2877	4464
675.7318	4590
678.1752	4489
680.618	4525
683.0601	4462
685.5035	4509
687.9444	4562
690.3845	4521
692.824	4504
695.2628	4500
697.701	4528
700.1406	4519
702.5774	4472
705.0116	4591
707.4472	4484
709.8821	4574
712.3183	4644
714.7519	4613
717.1829	4611
719.6151	4655
722.0468	4646
724.4777	4641
726.908	4707
729.3377	4711
731.7667	4679
734.1931	4723
736.6208	4756
739.0498	4722
741.4742	4827
743.9	4780
746.3231	4755
748.7476	4657
751.1713	4823
753.5945	4802
756.015	4694
758.4368	4796
760.856	4866
763.2766	4838
765.6965	4832
768.1157	4844
770.5323	4931
772.9483	4913
775.3656	4833
777.7822	4888
780.1963	4933
782.6116	4904
785.0244	4787
787.4365	4891
789.8499	4921
792.2626	4937
794.6728	4790
797.0823	4877
799.4911	4843
801.8994	4867
804.3109	4833
806.7178	4865
809.124	4809
811.5297	4936
813.9347	4839
816.341	4835
818.7447	5062
821.1478	4916
823.5502	5039
825.952	4954
828.3531	4989
830.7556	4845
833.1554	5011
835.5546	4927
837.9532	4970
840.3511	4957
842.7504	4994
845.1451	4939
847.5411	5003
849.9365	4948
852.3312	5049
854.7272	4914
857.1187	5029
859.5115	4966
861.9037	5056
864.2952	5051
866.6842	5026
869.0764	5025
871.4661	5071
873.8531	4932
876.2415	4976
878.6272	5044
881.0162	4952
883.4026	4917
885.7866	5113
888.1717	4955
890.5543	4917
892.9382	4924
895.3215	4991
897.7041	4987
900.0842	4991
902.4655	5001
904.8443	5029
907.2244	5050
909.6039	4955
911.9808	5079
914.357	5103
916.7346	5106
919.1115	5203
921.4859	5162
923.8616	5139
926.2347	5117
928.6071	5135
930.979	5161
933.3541	5291
935.7247	5302
938.0946	5195
940.4639	5302
942.8326	5273
945.2026	5433
947.5701	5586
949.9369	5465
952.305	5581
954.6705	5833
957.0355	5964
959.4017	6211
961.7654	6217
964.1284	6069
966.4908	5954
968.8527	5911
971.2138	5638
973.5743	5590
975.9343	5480
978.2936	5325
980.6522	5340
983.0122	5253
985.3696	5159
987.7245	5186
990.0807	5107
992.4362	5195
994.7911	5124
997.1474	5201
999.4991	5179
1001.852	5288
1004.205	5187
1006.555	5229
1008.908	5310
1011.258	5196
1013.606	5251
1015.956	5187
1018.302	5107
1020.652	5307
1022.998	5204
1025.345	5208
1027.691	5236
1030.035	5220
1032.378	5281
1034.724	5220
1037.066	5309
1039.409	5268
1041.75	5246
1044.092	5288
1046.433	5349
1048.771	5322
1051.112	5374
1053.449	5251
1055.786	5290
1058.124	5255
1060.462	5293
1062.797	5359
1065.131	5403
1067.467	5273
1069.8	5283
1072.135	5424
1074.467	5298
1076.798	5296
1079.129	5337
1081.459	5384
1083.792	5339
1086.121	5393
1088.449	5327
1090.777	5250
1093.104	5242
1095.431	5275
1097.759	5384
1100.084	5283
1102.408	5325
1104.732	5312
1107.056	5265
1109.379	5306
1111.701	5330
1114.022	5252
1116.343	5294
1118.664	5346
1120.983	5419
1123.303	5314
1125.621	5428
1127.939	5353
1130.256	5220
1132.573	5350
1134.889	5362
1137.205	5348
1139.52	5214
1141.832	5443
1144.146	5345
1146.461	5432
1148.771	5366
1151.083	5286
1153.392	5435
1155.703	5291
1158.011	5467
1160.323	5333
1162.629	5306
1164.938	5276
1167.243	5305
1169.55	5419
1171.857	5392
1174.163	5386
1176.466	5259
1178.769	5410
1181.073	5407
1183.374	5375
1185.677	5352
1187.979	5285
1190.279	5460
1192.578	5334
1194.878	5358
1197.178	5316
1199.476	5360
1201.772	5364
1204.068	5338
1206.366	5387
1208.663	5401
1210.957	5382
1213.251	5387
1215.544	5238
1217.836	5463
1220.128	5407
1222.421	5414
1224.712	5425
1227.002	5512
1229.292	5437
1231.581	5532
1233.871	5489
1236.159	5500
1238.446	5491
1240.732	5446
1243.018	5512
1245.304	5518
1247.59	5502
1249.874	5516
1252.156	5637
1254.439	5535
1256.721	5487
1259.005	5539
1261.286	5562
1263.565	5629
1265.845	5559
1268.125	5486
1270.403	5564
1272.682	5425
1274.959	5535
1277.234	5572
1279.511	5545
1281.787	5508
1284.062	5562
1286.337	5595
1288.609	5528
1290.882	5394
1293.153	5580
1295.428	5324
1297.698	5470
1299.969	5409
1302.237	5410
1304.507	5364
1306.777	5400
1309.044	5467
1311.312	5485
1313.578	5387
1315.844	5436
1318.109	5448
1320.375	5416
1322.638	5521
1324.903	5499
1327.165	5465
1329.427	5505
1331.69	5505
1333.952	5450
1336.212	5528
1338.471	5417
1340.73	5607
1342.988	5467
1345.248	5473
1347.505	5564
1349.763	5485
1352.019	5619
1354.274	5467
1356.53	5461
1358.784	5483
1361.038	5425
1363.291	5475
1365.543	5446
1367.797	5526
1370.048	5468
1372.296	5442
1374.546	5450
1376.796	5602
1379.045	5558
1381.295	5468
1383.542	5515
1385.787	5444
1388.034	5495
1390.28	5574
1392.527	5603
1394.772	5640
1397.014	5589
1399.258	5609
1401.501	5528
1403.741	5639
1405.985	5579
1408.226	5627
1410.465	5580
1412.705	5582
1414.943	5569
1417.184	5626
1419.42	5689
1421.658	5719
1423.894	5603
1426.13	5590
1428.366	5679
1430.602	5625
1432.835	5677
1435.069	5676
1437.301	5693
1439.535	5661
1441.767	5764
1443.997	5691
1446.229	5756
1448.458	5608
1450.687	5719
1452.916	5790
1455.146	5708
1457.372	5731
1459.599	5835
1461.824	5638
1464.051	5746
1466.277	5741
1468.501	5749
1470.725	5641
1472.948	5671
1475.17	5643
1477.393	5732
1479.614	5645
1481.837	5689
1484.057	5575
1486.276	5589
1488.497	5577
1490.715	5589
1492.932	5624
1495.148	5548
1497.364	5466
1499.58	5546
1501.798	5545
1504.012	5585
1506.227	5557
1508.44	5524
1510.653	5497
1512.866	5466
1515.078	5529
1517.289	5474
1519.5	5595
1521.711	5602
1523.92	5596
1526.13	5524
1528.338	5518
1530.544	5451
1532.752	5606
1534.959	5546
1537.165	5545
1539.371	5529
1541.574	5566
1543.779	5566
1545.983	5592
1548.187	5545
1550.39	5661
1552.59	5633
1554.792	5529
1556.991	5618
1559.19	5705
1561.392	5579
1563.59	5754
1565.789	5558
1567.986	5629
1570.182	5754
1572.381	5666
1574.576	5663
1576.771	5738
1578.966	5733
1581.16	5675
1583.354	5839
1585.546	5584
1587.74	5783
1589.931	5650
1592.121	5730
1594.311	5885
1596.502	5830
1598.693	5731
1600.881	5736
1603.069	5722
1605.256	5759
1607.445	5796
1609.631	5775
1611.816	5717
1614.001	5784
1616.186	5830
1618.37	5860
1620.555	5900
1622.737	5848
1624.919	5849
1627.101	5828
1629.282	5906
1631.463	5928
1633.643	5855
1635.822	5901
1638.001	5916
1640.179	5832
1642.359	5962
1644.534	5899
1646.711	5837
1648.887	5878
1651.062	5895
1653.235	5836
1655.412	5862
1657.586	5861
1659.757	5901
1661.93	5823
1664.1	5883
1666.274	5866
1668.445	5924
1670.614	5839
1672.784	5977
1674.951	5909
1677.12	5947
1679.289	5916
1681.457	5932
1683.622	6032
1685.789	5965
1687.953	5967
1690.121	5903
1692.284	5970
1694.447	5954
1696.611	5849
1698.772	5919
1700.935	5743
1703.098	5819
1705.258	5887
1707.417	5901
1709.576	5744
1711.736	5727
1713.896	5914
1716.053	5870
1718.21	5838
1720.366	5846
1722.522	5772
1724.68	5836
1726.835	5754
1728.989	5862
1731.142	5869
1733.295	5876
1735.449	5819
1737.601	5846
1739.753	5838
1741.903	5873
1744.054	5827
1746.203	5864
1748.354	5904
1750.503	5830
1752.651	5861
1754.798	5862
1756.944	5810
1759.092	5884
1761.238	5853
1763.383	5901
1765.528	5797
1767.672	5968
1769.814	5849
1771.959	5823
1774.102	5826
1776.242	5956
1778.384	5991
1780.525	5893
1782.665	5930
1784.805	5959
1786.945	5942
1789.082	5959
1791.22	5929
1793.36	5917
1795.495	5856
1797.632	5916
1799.766	5991
1801.902	5920
1804.035	6008
1806.172	5893
1808.304	6016
1810.436	5882
1812.569	5982
1814.699	6016
1816.833	5886
1818.963	5942
1821.092	5955
1823.222	5792
1825.35	5902
1827.478	5851
1829.608	5882
1831.734	5875
1833.86	5918
1835.986	5968
1838.11	5943
1840.238	5914
1842.362	5882
1844.485	5831
1846.608	5898
1848.73	5957
1850.853	5888
1852.974	5918
1855.097	5829
1857.217	5832
1859.336	5901
1861.455	5823
1863.576	5931
1865.693	5858
1867.811	5905
1869.926	5881
1872.042	5805
1874.16	5827
1876.275	5878
1878.39	5831
1880.504	5872
1882.618	5910
1884.731	5876
1886.843	5935
1888.956	5847
1891.067	5965
1893.178	5827
1895.287	5804
1897.399	5753
1899.508	5833
1901.617	5906
1903.724	5946
1905.832	5957
1907.941	5872
1910.046	5985
1912.152	6057
1914.256	5816
1916.361	5917
1918.464	5914
1920.57	5849
1922.672	6055
1924.775	5918
1926.876	5964
1928.978	5913
1931.08	5889
1933.181	5962
1935.28	5980
1937.38	5927
1939.478	5980
1941.577	5924
1943.675	5882
1945.771	5945
1947.867	5922
1949.964	5895
1952.058	5905
1954.154	6011
1956.248	5921
1958.343	5887
1960.435	5966
1962.527	5888
1964.62	5911
1966.711	5850
1968.802	5910
1970.892	5863
1972.983	5780
1975.072	5936
1977.162	5958
1979.25	5900
1981.337	5948
1983.424	5774
1985.51	5988
1987.598	5878
1989.683	5849
1991.768	5825
1993.852	5812
1995.934	5900
1998.019	6008
2000.102	5853
2002.184	5863
2004.266	5925
2006.347	5899
2008.427	5809
2010.508	5863
2012.587	5891
2014.666	5927
2016.745	5923
2018.821	5774
2020.9	5945
2022.977	5911
2025.052	5841
2027.128	5877
2029.204	5923
2031.277	5814
2033.353	5875
2035.425	5862
2037.499	5761
2039.57	5855
2041.642	5826
2043.714	5901
2045.786	5764
2047.855	5815
2049.925	5782
2051.993	5786
2054.064	5847
2056.132	5970
2058.2	5911
2060.266	5892
2062.332	5819
2064.398	5868
2066.465	5826
2068.529	5885
2070.592	5845
2072.657	5872
2074.719	5849
2076.783	5820
2078.845	5821
2080.907	5853
2082.968	5845
2085.028	5916
2087.087	5693
2089.148	5828
2091.207	5899
2093.264	5947
2095.322	5964
2097.379	5805
2099.439	5807
2101.495	5878
2103.55	5842
2105.605	5770
2107.658	5868
2109.713	5705
2111.767	5901
2113.82	5784
2115.872	5864
2117.924	5841
2119.975	5928
2122.028	5839
2124.078	5809
2126.126	5808
2128.176	5803
2130.225	5863
2132.275	5760
2134.321	5830
2136.368	5710
2138.415	5866
2140.461	5794
2142.505	5921
2144.552	5754
2146.597	5773
2148.64	5876
2150.684	5850
2152.725	5848
2154.77	5780
2156.811	5752
2158.852	5812
2160.894	5746
2162.933	5622
2164.973	5867
2167.013	5688
2169.051	5670
2171.089	5733
2173.126	5713
2175.164	5786
2177.201	5750
2179.236	5780
2181.273	5751
2183.307	5750
2185.341	5698
2187.377	5681
2189.41	5656
2191.442	5721
2193.473	5679
2195.506	5654
2197.539	5762
2199.569	5648
2201.598	5741
2203.628	5631
2205.656	5777
2207.686	5647
2209.716	5729
2211.743	5743
2213.769	5642
2215.796	5648
2217.821	5706
2219.848	5615
2221.873	5634
2223.897	5641
2225.921	5649
2227.944	5593
2229.967	5629
2231.991	5657
2234.011	5665
2236.032	5508
2238.053	5680
2240.073	5556
2242.094	5592
2244.114	5798
2246.131	5600
2248.149	5573
2250.167	5630
2252.186	5648
2254.201	5509
2256.218	5601
2258.233	5748
2260.247	5683
2262.262	5579
2264.278	5617
2266.29	5597
2268.303	5633
2270.315	5585
2272.327	5677
2274.341	5647
2276.35	5608
2278.361	5651
2280.37	5730
2282.38	5615
2284.388	5691
2286.397	5637
2288.405	5604
2290.412	5536
2292.419	5642
2294.425	5504
2296.431	5530
2298.437	5542
2300.441	5645
2302.445	5652
2304.449	5438
2306.453	5621
2308.455	5565
2310.457	5683
2312.459	5617
2314.46	5518
2316.46	5626
2318.461	5584
2320.46	5590
2322.458	5618
2324.458	5667
2326.456	5580
2328.455	5488
2330.451	5533
2332.447	5569
2334.443	5623
2336.438	5484
2338.433	5575
2340.429	5487
2342.422	5636
2344.416	5571
2346.408	5484
2348.399	5387
2350.393	5527
2352.384	5470
2354.375	5499
2356.365	5530
2358.355	5468
2360.344	5477
2362.333	5458
2364.322	5568
2366.309	5502
2368.295	5525
2370.282	5389
2372.27	5368
2374.256	5439
2376.24	5385
2378.225	5605
2380.208	5402
2382.194	5509
2384.177	5434
2386.159	5413
2388.142	5422
2390.122	5366
2392.105	5407
2394.085	5397
2396.066	5509
2398.044	5368
2400.024	5462
2402.002	5404
2403.982	5466
2405.959	5363
2407.935	5496
2409.913	5396
2411.888	5410
2413.865	5335
2415.84	5374
2417.814	5418
2419.788	5396
2421.762	5328
2423.735	5314
2425.708	5371
2427.68	5402
2429.651	5399
2431.623	5367
2433.593	5323
2435.564	5244
2437.533	5309
2439.502	5390
2441.47	5284
2443.438	5351
2445.406	5340
2447.373	5234
2449.34	5334
2451.305	5251
2453.271	5325
2455.235	5345
2457.201	5349
2459.165	5396
2461.129	5291
2463.092	5233
2465.054	5338
2467.018	5308
2468.978	5328
2470.939	5258
2472.899	5234
2474.86	5226
2476.819	5253
2478.778	5274
2480.737	5402
2482.695	5271
2484.653	5348
2486.609	5223
2488.567	5235
2490.524	5328
2492.478	5267
2494.433	5287
2496.387	5184
2498.343	5256
2500.297	5204
2502.249	5256
2504.202	5203
2506.153	5272
2508.105	5222
2510.057	5236
2512.008	5252
2513.957	5322
2515.906	5206
2517.855	5226
2519.805	5260
2521.754	5268
2523.7	5141
2525.647	5225
2527.594	5248
2529.54	5134
2531.486	5216
2533.431	5303
2535.376	5212
2537.32	5222
2539.263	5249
2541.207	5145
2543.151	5252
2545.093	5117
2547.034	5273
2548.975	5225
2550.917	5086
2552.856	5228
2554.796	5125
2556.735	5290
2558.673	5131
2560.611	5254
2562.55	5167
2564.487	5240
2566.424	5139
2568.36	5291
2570.296	5152
2572.232	5314
2574.167	5253
2576.101	5145
2578.035	5235
2579.969	5213
2581.902	5226
2583.834	5136
2585.766	5155
2587.698	5151
2589.628	5268
2591.557	5132
2593.489	5301
2595.419	5176
2597.348	5191
2599.275	5102
2601.204	5210
2603.131	5105
2605.059	5186
2606.986	5231
2608.911	5214
2610.837	5145
2612.76	5230
2614.687	5197
2616.61	5206
2618.534	5207
2620.457	5312
2622.38	5306
2624.302	5175
2626.225	5178
2628.145	5249
2630.067	5239
2631.986	5229
2633.906	5172
2635.827	5135
2637.745	5188
2639.662	5327
2641.581	5149
2643.498	5224
2645.415	5197
2647.331	5238
2649.248	5074
2651.163	5144
2653.077	5198
2654.993	5152
2656.906	5237
2658.821	5198
2660.733	5201
2662.646	5219
2664.557	5184
2666.47	5225
2668.381	5117
2670.291	5265
2672.201	5125
2674.11	5129
2676.021	5132
2677.929	5137
2679.837	5226
2681.745	5163
2683.652	5092
2685.56	5026
2687.466	5067
2689.371	5148
2691.276	5153
2693.181	5038
2695.085	5068
2696.991	5152
2698.893	5154
2700.796	5059
2702.698	5075
2704.601	5142
2706.502	5143
2708.404	5112
2710.304	5069
2712.203	5229
2714.103	5084
2716.003	5036
2717.902	5013
2719.8	5141
2721.697	5033
2723.594	5009
2725.49	5185
2727.389	5065
2729.283	5019
2731.179	5113
2733.073	5087
2734.968	5005
2736.863	4958
2738.757	5151
2740.649	5096
2742.541	5074
2744.433	5022
2746.324	5111
2748.216	5033
2750.107	5107
2751.997	5042
2753.886	5013
2755.776	5032
2757.666	5038
2759.553	5077
2761.44	5017
2763.327	5036
2765.215	4994
2767.102	5088
2768.988	5014
2770.873	5047
2772.757	5006
2774.641	5097
2776.525	4964
2778.41	5089
2780.292	5040
2782.175	4999
2784.057	5003
2785.938	4966
2787.821	5102
2789.701	5033
2791.581	4967
2793.461	5046
2795.34	5020
2797.219	5019
2799.099	4962
2800.975	4970
2802.853	5012
2804.73	4945
2806.606	4916
2808.484	4999
2810.358	4920
2812.233	5010
2814.108	4960
2815.981	4931
2817.857	5048
2819.73	4912
2821.602	5019
2823.474	4939
2825.346	4967
2827.217	5041
2829.089	4939
2830.959	5023
2832.829	4935
2834.698	5027
2836.567	5021
2838.436	5073
2840.305	4965
2842.172	5016
2844.04	5000
2845.905	5005
2847.772	5024
2849.639	5073
2851.503	5040
2853.369	5000
2855.232	5104
2857.096	5010
2858.961	5031
2860.824	4964
2862.686	4982
2864.547	5033
2866.41	5100
2868.272	5123
2870.132	5156
2871.992	5136
2873.851	5181
2875.711	5174
2877.57	5266
2879.429	5254
2881.287	5265
2883.144	5082
2885.001	5317
2886.857	5205
2888.714	5270
2890.57	5245
2892.425	5179
2894.279	5208
2896.133	5271
2897.987	5217
2899.842	5199
2901.694	5319
2903.547	5174
2905.397	5259
2907.249	5151
2909.101	5131
2910.952	5155
2912.802	5284
2914.652	5250
2916.5	5200
2918.35	5400
2920.198	5366
2922.045	5430
2923.893	5320
2925.74	5499
2927.585	5488
2929.433	5495
2931.279	5533
2933.123	5593
2934.968	5515
2936.811	5497
2938.656	5658
2940.5	5747
2942.342	5682
2944.185	5746
2946.026	5638
2947.87	5751
2949.71	5659
2951.549	5546
2953.39	5654
2955.229	5609
2957.069	5591
2958.908	5519
2960.746	5394
2962.584	5454
2964.421	5403
2966.257	5407
2968.094	5298
2969.931	5336
2971.766	5325
2973.601	5199
2975.435	5306
2977.27	5215
2979.105	5343
2980.938	5259
2982.77	5258
2984.602	5275
2986.434	5342
2988.267	5246
2990.097	5158
2991.927	5124
2993.757	5201
2995.587	5162
2997.417	5032
2999.246	5147
3001.074	5114
3002.902	4976
3004.729	5008
3006.556	4996
3008.384	4997
3010.21	4948
3012.036	4875
3013.861	4876
3015.684	4881
3017.51	4868
3019.334	4839
3021.157	4846
3022.981	4815
3024.802	4748
3026.624	4892
3028.448	4755
3030.267	4783
3032.088	4807
3033.909	4809
3035.728	4810
3037.549	4805
3039.368	4853
3041.186	4761
3043.004	4740
3044.821	4768
3046.64	4727
3048.455	4716
3050.272	4850
3052.087	4718
3053.903	4752
3055.717	4745
3057.534	4813
3059.347	4736
3061.16	4770
3062.974	4740
3064.785	4820
3066.598	4729
3068.411	4800
3070.222	4710
3072.032	4653
3073.844	4709
3075.653	4715
3077.463	4764
3079.272	4669
3081.08	4688
3082.889	4699
3084.697	4592
3086.505	4672
3088.312	4630
3090.118	4581
3091.924	4602
3093.729	4550
3095.535	4639
3097.34	4692
3099.144	4572
3100.947	4603
3102.75	4591
3104.553	4578
3106.357	4577
3108.159	4665
3109.961	4664
3111.762	4680
3113.562	4552
3115.365	4582
3117.164	4622
3118.964	4604
3120.761	4561
3122.56	4568
3124.36	4572
3126.158	4525
3127.954	4554
3129.75	4575
3131.547	4577
3133.343	4579
3135.139	4493
3136.934	4558
3138.729	4529
3140.522	4428
3142.317	4523
3144.11	4513
3145.904	4519
3147.695	4488
3149.488	4593
3151.28	4500
3153.07	4503
3154.863	4562
3156.652	4475
3158.441	4596
3160.231	4562
3162.019	4496
3163.81	4489
3165.597	4488
3167.384	4535
3169.172	4569
3170.958	4469
3172.745	4514
3174.532	4536
3176.317	4470
3178.101	4448
3179.885	4448
3181.67	4470
3183.455	4478
3185.238	4537
3187.02	4471
3188.802	4466
3190.585	4372
3192.368	4417
3194.149	4423
3195.929	4490
3197.709	4437
3199.489	4369
3201.268	4406
3203.048	4384
3204.826	4443
3206.604	4421
3208.382	4415
3210.159	4427
3211.937	4424
3213.713	4431
3215.489	4399
3217.263	4538
3219.038	4429
3220.815	4447
3222.589	4425
3224.363	4352
3226.136	4424
3227.908	4366
3229.681	4422
3231.454	4482
3233.226	4475
3234.996	4409
3236.767	4519
3238.538	4396
3240.308	4450
3242.078	4406
3243.847	4417
3245.615	4421
3247.384	4427
3249.15	4392
3250.92	4389
3252.686	4369
3254.453	4450
3256.218	4494
3257.984	4418
3259.75	4470
3261.515	4431
3263.279	4515
3265.044	4431
3266.806	4418
3268.57	4374
3270.334	4406
3272.095	4316
3273.856	4385
3275.619	4368
3277.379	4390
3279.14	4502
3280.9	4450
3282.661	4409
3284.419	4372
3286.178	4460
3287.937	4363
3289.695	4328
3291.453	4405
3293.21	4427
3294.967	4397
3296.723	4346
3298.48	4436
3300.235	4497
3301.99	4425
3303.744	4398
3305.498	4389
3307.253	4455
3309.006	4378
3310.759	4444
3312.511	4278
3314.263	4384
3316.017	4397
3317.768	4443
3319.519	4360
3321.268	4385
3323.018	4385
3324.767	4350
3326.518	4387
3328.267	4326
3330.014	4361
3331.762	4285
3333.509	4372
3335.258	4309
3337.003	4343
3338.75	4400
3340.496	4373
3342.24	4424
3343.987	4360
3345.732	4384
3347.475	4363
3349.219	4421
3350.961	4317
3352.705	4424
3354.448	4271
3356.19	4371
3357.931	4259
3359.672	4304
3361.412	4301
3363.155	4364
3364.894	4367
3366.633	4259
3368.372	4362
3370.11	4311
3371.849	4311
3373.588	4195
3375.325	4318
3377.061	4292
3378.799	4201
3380.534	4346
3382.271	4387
3384.006	4347
3385.741	4322
3387.475	4265
3389.209	4324
3390.944	4325
3392.677	4266
3394.409	4239
3396.143	4262
3397.874	4210
3399.606	4211
3401.338	4302
3403.069	4366
3404.799	4275
3406.528	4259
3408.258	4267
3409.988	4210
3411.717	4276
3413.445	4329
3415.173	4291
3416.899	4288
3418.626	4241
3420.354	4298
3422.08	4241
3423.806	4237
3425.531	4208
3427.255	4203
3428.981	4169
3430.705	4178
3432.429	4196
3434.151	4179
3435.875	4277
3437.599	4156
3439.321	4209
3441.042	4228
3442.763	4108
3444.483	4172
3446.204	4196
3447.926	4168
3449.645	4160
3451.364	4156
3453.082	4065
3454.801	4199
3456.52	4181
3458.238	4213
3459.954	4040
3461.671	4059
3463.387	4090
3465.104	4091
3466.82	4140
3468.534	4058
3470.25	4119
3471.963	4056
3473.676	4098
3475.392	4009
3477.104	4072
3478.817	4098
3480.528	4119
3482.241	4091
3483.954	4099
3485.664	4204
3487.374	4088
3489.084	4092
3490.795	4063
3492.504	4039
3494.214	3979
3495.922	4036
3497.63	4084
3499.338	4026
3501.045	4052
3502.753	3992
3504.459	4062
3506.166	4037
3507.871	4047
3509.576	3920
3511.283	4136
3512.987	4007
3514.691	4008
3516.395	4005
3518.098	3954
3519.8	3978
3521.504	4003
3523.206	3986
3524.908	4111
3526.609	4019
3528.309	3997
3530.011	3894
3531.711	3985
3533.411	3959
3535.109	4039
3536.808	3967
3538.507	4044
3540.206	3982
3541.904	3906
3543.601	3967
3545.297	3989
3546.994	4040
3548.69	4000
3550.387	3947
3552.081	3916
3553.776	3976
3555.47	3991
3557.166	3952
3558.859	3997
3560.553	3943
3562.245	4054
3563.938	3889
3565.629	3901
3567.322	3961
3569.014	3914
3570.704	3899
3572.394	3871
3574.084	3906
3575.775	3964
3577.464	3895
3579.152	3816
3580.842	3815
3582.529	3944
3584.216	3907
3585.905	3878
3587.591	3908
3589.279	3842
3590.964	3836
3592.649	3841
3594.336	3816
3596.021	3830
3597.705	3803
3599.388	3880
3601.072	3778
3602.757	3902
3604.439	3763
3606.122	3780
3607.803	3805
3609.485	3810
3611.167	3777
3612.849	3754
3614.529	3850
3616.208	3775
3617.888	3808
3619.567	3784
3621.247	3834
3622.926	3721
3624.603	3814
3626.281	3761
3627.958	3782
3629.635	3790
3631.312	3763
3632.989	3705
3634.665	3874
3636.339	3751
3638.014	3838
3639.691	3732
3641.364	3763
3643.038	3711
3644.71	3759
3646.384	3706
3648.058	3640
3649.729	3689
3651.402	3705
3653.073	3689
3654.744	3726
3656.414	3733
3658.085	3783
3659.755	3687
3661.424	3719
3663.094	3729
3664.762	3639
3666.431	3766
3668.099	3693
3669.766	3719
3671.433	3645
3673.099	3692
3674.768	3711
3676.433	3783
3678.098	3698
3679.763	3676
3681.428	3664
3683.093	3701
3684.757	3711
3686.421	3775
3688.083	3664
3689.746	3661
3691.408	3651
3693.071	3696
3694.733	3706
3696.394	3712
3698.054	3691
3699.715	3619
3701.375	3563
3703.036	3660
3704.695	3632
3706.354	3643
3708.012	3658
3709.67	3667
3711.329	3678
3712.987	3621
3714.644	3650
3716.299	3669
3717.955	3621
3719.613	3634
3721.268	3711
3722.923	3710
3724.577	3608
3726.231	3588
3727.885	3674
3729.539	3622
3731.192	3554
3732.845	3583
3734.497	3525
3736.149	3507
3737.802	3633
3739.453	3671
3741.104	3581
3742.753	3645
3744.404	3706
3746.052	3628
3747.704	3586
3749.352	3637
3751	3653
3752.648	3622
3754.296	3579
3755.944	3643
3757.59	3660
3759.238	3649
3760.883	3478
3762.528	3512
3764.176	3624
3765.82	3559
3767.464	3577
3769.109	3612
3770.753	3533
3772.396	3440
3774.04	3616
3775.683	3542
3777.325	3535
3778.967	3550
3780.608	3585
3782.25	3586
3783.89	3574
3785.531	3571
3787.17	3599
3788.81	3451
3790.45	3533
3792.09	3497
3793.729	3594
3795.366	3611
3797.003	3491
3798.64	3594
3800.278	3530
3801.915	3538
3803.551	3547
3805.187	3502
3806.822	3478
3808.458	3508
3810.093	3426
3811.726	3474
3813.36	3471
3814.994	3503
3816.627	3566
3818.262	3482
3819.893	3523
3821.525	3459
3823.157	3472
3824.787	3527
3826.42	3480
3828.051	3509
3829.68	3420
3831.31	3459
3832.938	3504
3834.569	3455
3836.198	3486
3837.825	3508
3839.454	3501
3841.08	3430
3842.708	3444
3844.335	3520
3845.962	3491
3847.587	3453
3849.212	3534
3850.838	3480
3852.463	3458
3854.089	3410
3855.712	3463
3857.335	3456
3858.959	3453
3860.582	3475
3862.205	3473
3863.827	3382
3865.449	3412
3867.07	3505
3868.691	3446
3870.312	3473
3871.933	3427
3873.553	3428
3875.173	3447
3876.792	3379
3878.411	3415
3880.03	3396
3881.647	3475
3883.265	3526
3884.882	3442
3886.499	3470
3888.116	3404
3889.732	3380
3891.348	3506
3892.964	3418
3894.579	3426
3896.195	3460
3897.809	3370
3899.423	3444
3901.036	3402
3902.648	3364
3904.261	3416
3905.875	3395
3907.487	3394
3909.099	3423
3910.709	3422
3912.321	3386
3913.933	3432
3915.542	3460
3917.152	3340
3918.762	3412
3920.37	3378
3921.98	3397
3923.589	3350
3925.196	3371
3926.804	3328
3928.41	3417
3930.018	3360
3931.626	3367
3933.231	3327
3934.838	3404
3936.442	3407
3938.046	3369
3939.653	3439
3941.257	3409
3942.861	3365
3944.464	3416
3946.068	3354
3947.67	3340
3949.273	3392
3950.876	3383
3952.477	3351
3954.078	3330
3955.678	3395
3957.281	3352
3958.881	3345
3960.48	3449
3962.079	3361
3963.678	3401
3965.279	3395
3966.877	3303
3968.475	3251
3970.072	3325
3971.669	3278
3973.266	3316
3974.864	3367
3976.459	3306
3978.055	3255
3979.65	3363
3981.245	3337
3982.841	3302
3984.436	3320
3986.03	3270
3987.623	3294
3989.216	3277
3990.809	3266
3992.403	3309
3993.995	3306
3995.586	3314
3997.177	3305
3998.768	3282
4000.361	3269
4001.951	3294
4003.54	3377
4005.13	3326
4006.719	3259
4008.31	3248
4009.897	3352
4011.485	3321
4013.073	3267
4014.66	3270
4016.247	3287
4017.834	3210
4019.421	3252
4021.006	3237
4022.592	3273
4024.178	3236
4025.763	3264
4027.348	3219
4028.932	3259
4030.515	3334
4032.099	3163
4033.682	3274
4035.266	3273
4036.847	3295
4038.429	3217
4040.011	3215
4041.592	3141
4043.173	3212
4044.755	3222
4046.334	3217
4047.913	3185
4049.494	3165
4051.074	3232
4052.652	3193
4054.23	3233
4055.807	3206
4057.385	3143
4058.963	3247
4060.541	3155
4062.117	3225
4063.693	3196
4065.269	3156
4066.844	3245
4068.42	3178
4069.995	3221
4071.569	3127
4073.143	3187
4074.716	3143
4076.291	3187
4077.864	3187
4079.436	3256
4081.009	3149
4082.58	3208
4084.152	3229
4085.723	3212
4087.294	3191
4088.865	3162
4090.435	3160
4092.005	3172
4093.574	3171
4095.143	3196
4096.712	3150
4098.279	3179
4099.848	3161
4101.416	3175
4102.984	3180
4104.55	3134
4106.117	3168
4107.682	3209
4109.248	3187
4110.815	3201
4112.379	3181
4113.945	3164
4115.508	3143
4117.073	3143
4118.637	3157
4120.201	3150
4121.763	3172
4123.325	3140
4124.888	3112
4126.449	3133
4128.013	3143
4129.573	3118
4131.133	3155
4132.694	3130
4134.254	3179
4135.814	3214
4137.374	3136
4138.933	3125
4140.491	3106
4142.049	3136
4143.607	3155
4145.167	3141
4146.724	3162
4148.28	3124
4149.836	3108
4151.392	3175
4152.949	3172
4154.504	3183
4156.059	3120
4157.614	3066
4159.168	3120
4160.723	3126
4162.277	3141
4163.83	3089
4165.383	3107
4166.936	3079
4168.488	3083
4170.041	3109
4171.593	3111
4173.144	3073
4174.695	3096
4176.246	3074
4177.796	3085
4179.346	3051
4180.896	3103
4182.445	3044
4183.994	3139
4185.542	3087
4187.091	3065
4188.639	3079
4190.185	3004
4191.732	3036
4193.279	3065
4194.826	3013
4196.373	2992
4197.918	3092
4199.463	2991
4201.008	3018
4202.553	2998
4204.098	3098
4205.641	3025
4207.185	3029
4208.728	3078
4210.271	3134
4211.814	3025
4213.357	3055
4214.898	2951
4216.439	3040
4217.98	3053
4219.522	3018
4221.062	2993
4222.603	3065
4224.142	3116
4225.681	3036
4227.222	3038
4228.76	3101
4230.298	3048
4231.835	2966
4233.373	3029
4234.911	3047
4236.449	3018
4237.985	2974
4239.521	3055
4241.057	3052
4242.592	3051
4244.128	2995
4245.663	3016
4247.197	3072
4248.731	2996
4250.265	3048
4251.798	2987
4253.333	2962
4254.865	3050
4256.397	3016
4257.93	3062
4259.461	3032
4260.994	3032
4262.525	3045
4264.056	2931
4265.586	2973
4267.115	3041
4268.646	3062
4270.176	3076
4271.705	2990
4273.232	3025
4274.761	2954
4276.289	3086
4277.818	2956
4279.345	3029
4280.872	2981
4282.399	3032
4283.924	2986
4285.452	2951
4286.976	3012
4288.502	3000
4290.026	3042
4291.551	3021
4293.074	3022
4294.6	2967
4296.123	2970
4297.646	2978
4299.168	3012
4300.691	3040
4302.214	2939
4303.736	2960
4305.257	2921
4306.778	2948
4308.299	2970
4309.82	3074
4311.34	2928
4312.86	2988
4314.379	2958
