400.0745	4299
402.597	4298
405.1208	4306
407.6419	4331
410.1623	4394
412.6819	4365
415.201	4479
417.7172	4395
420.2369	4463
422.7538	4584
425.2701	4509
427.7856	4516
430.3005	4589
432.8147	4652
435.3282	4567
437.841	4580
440.3511	4586
442.8625	4638
445.3753	4538
447.8854	4646
450.3927	4666
452.9014	4648
455.4073	4649
457.9146	4652
460.4233	4545
462.9272	4612
465.4325	4628
467.935	4678
470.4389	4611
472.9421	4661
475.4446	4623
477.9444	4593
480.4456	4588
482.944	4610
485.4417	4675
487.9429	4677
490.4393	4602
492.935	4666
495.4321	4689
497.9264	4687
500.4221	4766
502.9171	4671
505.4094	4732
507.9011	4738
510.392	4769
512.8864	4649
515.3759	4827
517.8649	4760
520.3531	4789
522.8406	4743
525.3275	4726
527.8178	4849
530.3033	4806
532.7881	4849
535.2723	4774
537.7558	4888
540.2407	4761
542.7228	4847
545.2043	4848
547.6851	4844
550.1652	4828
552.6467	4769
555.1255	4857
557.6016	4926
560.079	4859
562.5557	4917
565.0318	4880
567.5092	4937
569.984	4903
572.456	4963
574.9294	4939
577.4022	5018
579.8762	5030
582.3456	4963
584.8163	5124
587.2863	5049
589.7557	4956
592.2224	5042
594.6924	5066
597.1578	5044
599.6245	5014
602.0905	4955
604.5538	4961
607.0206	4925
609.4825	5001
611.9459	5002
614.4066	5039
616.8686	4997
619.33	5028
621.7906	5020
624.2487	4962
626.708	4947
629.1647	4904
631.6207	5034
634.0801	5047
636.5348	4994
638.9888	5010
641.4442	5065
643.8969	4963
646.3509	5079
648.8022	4985
651.255	5105
653.705	5092
656.1544	4996
658.6031	5094
661.0532	5073
663.5026	5030
665.9493	5112
668.3954	5082
670.8409	5075
673.2877	5115
675.7318	5215
678.1752	5170
680.618	5215
683.0601	5193
685.5035	5100
687.9444	5229
690.3845	5197
692.824	5196
695.2628	5174
697.701	5209
700.1406	5242
702.5774	5187
705.0116	5246
707.4472	5310
709.8821	5151
712.3183	5294
714.7519	5268
717.1829	5276
719.6151	5362
722.0468	5278
724.4777	5271
726.908	5449
729.3377	5471
731.7667	5414
734.1931	5375
736.6208	5290
739.0498	5477
741.4742	5422
743.9	5403
746.3231	5416
748.7476	5545
751.1713	5512
753.5945	5459
756.015	5373
758.4368	5693
760.856	5419
763.2766	5555
765.6965	5466
768.1157	5543
770.5323	5575
772.9483	5628
775.3656	5399
777.7822	5568
780.1963	5569
782.6116	5566
785.0244	5544
787.4365	5532
789.8499	5547
792.2626	5548
794.6728	5587
797.0823	5494
799.4911	5519
801.8994	5610
804.3109	5536
806.7178	5698
809.124	5633
811.5297	5631
813.9347	5645
816.341	5607
818.7447	5565
821.1478	5700
823.5502	5658
825.952	5731
828.3531	5620
830.7556	5596
833.1554	5611
835.5546	5767
837.9532	5615
840.3511	5662
842.7504	5731
845.1451	5665
847.5411	5733
849.9365	5749
852.3312	5817
854.7272	5649
857.1187	5809
859.5115	5792
861.9037	5713
864.2952	5754
866.6842	5736
869.0764	5786
871.4661	5735
873.8531	5753
876.2415	5824
878.6272	5777
881.0162	5671
883.4026	5729
885.7866	5725
888.1717	5675
890.5543	5760
892.9382	5766
895.3215	5774
897.7041	5813
900.0842	5674
902.4655	5763
904.8443	5852
907.2244	5734
909.6039	5876
911.9808	5742
914.357	5877
916.7346	5914
919.1115	5879
921.4859	5849
923.8616	6015
926.2347	5951
928.6071	5922
930.979	6044
933.3541	6057
935.7247	5990
938.0946	5998
940.4639	6147
942.8326	6071
945.2026	6202
947.5701	6250
949.9369	6365
952.305	6421
954.6705	6597
957.0355	6827
959.4017	6837
961.7654	6995
964.1284	7063
966.4908	6958
968.8527	6746
971.2138	6504
973.5743	6384
975.9343	6183
978.2936	6116
980.6522	6010
983.0122	5943
985.3696	6007
987.7245	5980
990.0807	5996
992.4362	6027
994.7911	5860
997.1474	5899
999.4991	5975
1001.852	5925
1004.205	6027
1006.555	5910
1008.908	5953
1011.258	5949
1013.606	5892
1015.956	5919
1018.302	5913
1020.652	5900
1022.998	5978
1025.345	5903
1027.691	5983
1030.035	5986
1032.378	6056
1034.724	6138
1037.066	6013
1039.409	5981
1041.75	5999
1044.092	6066
1046.433	6053
1048.771	6136
1051.112	6055
1053.449	6071
1055.786	5969
1058.124	6156
1060.462	6028
1062.797	6137
1065.131	6127
1067.467	6159
1069.8	6227
1072.135	6238
1074.467	6127
1076.798	6108
1079.129	6123
1081.459	6069
1083.792	6149
1086.121	6190
1088.449	6115
1090.777	6113
1093.104	6059
1095.431	6143
1097.759	6102
1100.084	6080
1102.408	6029
1104.732	6110
1107.056	6019
1109.379	6156
1111.701	6078
1114.022	6131
1116.343	6020
1118.664	6101
1120.983	6086
1123.303	6095
1125.621	6076
1127.939	6256
1130.256	6051
1132.573	6123
1134.889	6118
1137.205	6185
1139.52	6100
1141.832	6104
1144.146	6096
1146.461	6192
1148.771	6108
1151.083	6085
1153.392	6200
1155.703	6057
1158.011	6032
1160.323	6230
1162.629	5999
1164.938	6030
1167.243	6117
1169.55	6090
1171.857	6035
1174.163	6062
1176.466	6138
1178.769	6201
1181.073	6148
1183.374	6103
1185.677	6156
1187.979	6178
1190.279	6006
1192.578	5981
1194.878	6028
1197.178	6119
1199.476	6150
1201.772	6150
1204.068	6091
1206.366	5977
1208.663	6059
1210.957	6126
1213.251	6119
1215.544	6114
1217.836	6029
1220.128	6152
1222.421	6119
1224.712	6131
1227.002	6215
1229.292	6178
1231.581	6221
1233.871	6278
1236.159	6306
1238.446	6184
1240.732	6272
1243.018	6233
1245.304	6373
1247.59	6365
1249.874	6455
1252.156	6273
1254.439	6319
1256.721	6346
1259.005	6287
1261.286	6348
1263.565	6315
1265.845	6368
1268.125	6350
1270.403	6311
1272.682	6338
1274.959	6326
1277.234	6357
1279.511	6262
1281.787	6340
1284.062	6306
1286.337	6370
1288.609	6318
1290.882	6204
1293.153	6265
1295.428	6182
1297.698	6280
1299.969	6169
1302.237	6244
1304.507	6260
1306.777	6148
1309.044	6212
1311.312	6206
1313.578	6141
1315.844	6223
1318.109	6231
1320.375	6318
1322.638	6132
1324.903	6289
1327.165	6258
1329.427	6310
1331.69	6334
1333.952	6191
1336.212	6250
1338.471	6261
1340.73	6266
1342.988	6170
1345.248	6221
1347.505	6239
1349.763	6417
1352.019	6186
1354.274	6239
1356.53	6272
1358.784	6240
1361.038	6182
1363.291	6216
1365.543	6230
1367.797	6296
1370.048	6321
1372.296	6243
1374.546	6297
1376.796	6266
1379.045	6271
1381.295	6190
1383.542	6227
1385.787	6378
1388.034	6385
1390.28	6280
1392.527	6307
1394.772	6296
1397.014	6349
1399.258	6315
1401.501	6353
1403.741	6356
1405.985	6344
1408.226	6356
1410.465	6393
1412.705	6470
1414.943	6397
1417.184	6383
1419.42	6288
1421.658	6452
1423.894	6423
1426.13	6356
1428.366	6465
1430.602	6483
1432.835	6330
1435.069	6448
1437.301	6418
1439.535	6510
1441.767	6519
1443.997	6493
1446.229	6495
1448.458	6511
1450.687	6495
1452.916	6565
1455.146	6529
1457.372	6626
1459.599	6591
1461.824	6535
1464.051	6647
1466.277	6567
1468.501	6633
1470.725	6506
1472.948	6529
1475.17	6355
1477.393	6444
1479.614	6300
1481.837	6433
1484.057	6215
1486.276	6393
1488.497	6262
1490.715	6327
1492.932	6162
1495.148	6269
1497.364	6166
1499.58	6259
1501.798	6234
1504.012	6245
1506.227	6356
1508.44	6328
1510.653	6327
1512.866	6237
1515.078	6167
1517.289	6268
1519.5	6188
1521.711	6250
1523.92	6171
1526.13	6330
1528.338	6208
1530.544	6217
1532.752	6245
1534.959	6321
1537.165	6151
1539.371	6239
1541.574	6300
1543.779	6136
1545.983	6181
1548.187	6233
1550.39	6256
1552.59	6284
1554.792	6385
1556.991	6282
1559.19	6310
1561.392	6231
1563.59	6357
1565.789	6315
1567.986	6267
1570.182	6401
1572.381	6321
1574.576	6382
1576.771	6248
1578.966	6429
1581.16	6422
1583.354	6417
1585.546	6478
1587.74	6474
1589.931	6340
1592.121	6431
1594.311	6463
1596.502	6480
1598.693	6400
1600.881	6343
1603.069	6499
1605.256	6423
1607.445	6271
1609.631	6339
1611.816	6486
1614.001	6489
1616.186	6394
1618.37	6379
1620.555	6485
1622.737	6607
1624.919	6421
1627.101	6401
1629.282	6534
1631.463	6400
1633.643	6465
1635.822	6506
1638.001	6531
1640.179	6519
1642.359	6590
1644.534	6469
1646.711	6589
1648.887	6495
1651.062	6655
1653.235	6534
1655.412	6651
1657.586	6513
1659.757	6580
1661.93	6535
1664.1	6583
1666.274	6562
1668.445	6573
1670.614	6608
1672.784	6669
1674.951	6590
1677.12	6709
1679.289	6473
1681.457	6569
1683.622	6525
1685.789	6501
1687.953	6569
1690.121	6456
1692.284	6614
1694.447	6591
1696.611	6420
1698.772	6492
1700.935	6401
1703.098	6476
1705.258	6372
1707.417	6471
1709.576	6469
1711.736	6394
1713.896	6357
1716.053	6456
1718.21	6329
1720.366	6450
1722.522	6446
1724.68	6324
1726.835	6398
1728.989	6422
1731.142	6368
1733.295	6425
1735.449	6453
1737.601	6428
1739.753	6456
1741.903	6356
1744.054	6463
1746.203	6314
1748.354	6427
1750.503	6459
1752.651	6416
1754.798	6434
1756.944	6484
1759.092	6494
1761.238	6428
1763.383	6508
1765.528	6426
1767.672	6409
1769.814	6475
1771.959	6398
1774.102	6437
1776.242	6330
1778.384	6441
1780.525	6490
1782.665	6458
1784.805	6475
1786.945	6361
1789.082	6361
1791.22	6461
1793.36	6514
1795.495	6480
1797.632	6542
1799.766	6433
1801.902	6484
1804.035	6353
1806.172	6426
1808.304	6407
1810.436	6280
1812.569	6412
1814.699	6475
1816.833	6426
1818.963	6514
1821.092	6520
1823.222	6436
1825.35	6415
1827.478	6447
1829.608	6355
1831.734	6406
1833.86	6477
1835.986	6333
1838.11	6456
1840.238	6454
1842.362	6494
1844.485	6488
1846.608	6387
1848.73	6427
1850.853	6423
1852.974	6478
1855.097	6362
1857.217	6431
1859.336	6308
1861.455	6464
1863.576	6454
1865.693	6435
1867.811	6465
1869.926	6521
1872.042	6241
1874.16	6394
1876.275	6339
1878.39	6320
1880.504	6439
1882.618	6385
1884.731	6433
1886.843	6490
1888.956	6426
1891.067	6390
1893.178	6480
1895.287	6483
1897.399	6458
1899.508	6397
1901.617	6513
1903.724	6359
1905.832	6376
1907.941	6407
1910.046	6544
1912.152	6448
1914.256	6486
1916.361	6500
1918.464	6478
1920.57	6487
1922.672	6542
1924.775	6510
1926.876	6474
1928.978	6535
1931.08	6428
1933.181	6599
1935.28	6457
1937.38	6392
1939.478	6347
1941.577	6497
1943.675	6551
1945.771	6448
1947.867	6483
1949.964	6582
1952.058	6509
1954.154	6607
1956.248	6546
1958.343	6618
1960.435	6465
1962.527	6422
1964.62	6465
1966.711	6522
1968.802	6493
1970.892	6459
1972.983	6398
1975.072	6450
1977.162	6460
1979.25	6394
1981.337	6513
1983.424	6496
1985.51	6444
1987.598	6501
1989.683	6549
1991.768	6437
1993.852	6431
1995.934	6508
1998.019	6496
2000.102	6446
2002.184	6516
2004.266	6526
2006.347	6423
2008.427	6301
2010.508	6311
2012.587	6431
2014.666	6462
2016.745	6390
2018.821	6521
2020.9	6399
2022.977	6450
2025.052	6388
2027.128	6560
2029.204	6473
2031.277	6485
2033.353	6416
2035.425	6487
2037.499	6434
2039.57	6548
2041.642	6526
2043.714	6361
2045.786	6469
2047.855	6465
2049.925	6478
2051.993	6389
2054.064	6540
2056.132	6513
2058.2	6511
2060.266	6507
2062.332	6518
2064.398	6442
2066.465	6384
2068.529	6372
2070.592	6427
2072.657	6442
2074.719	6438
2076.783	6514
2078.845	6572
2080.907	6450
2082.968	6438
2085.028	6410
2087.087	6452
2089.148	6438
2091.207	6468
2093.264	6406
2095.322	6509
2097.379	6453
2099.439	6479
2101.495	6416
2103.55	6406
2105.605	6476
2107.658	6424
2109.713	6374
2111.767	6426
2113.82	6381
2115.872	6385
2117.924	6433
2119.975	6442
2122.028	6415
2124.078	6469
2126.126	6457
2128.176	6387
2130.225	6379
2132.275	6458
2134.321	6446
2136.368	6494
2138.415	6278
2140.461	6477
2142.505	6352
2144.552	6309
2146.597	6385
2148.64	6485
2150.684	6332
2152.725	6387
2154.77	6234
2156.811	6384
2158.852	6320
2160.894	6537
2162.933	6381
2164.973	6295
2167.013	6505
2169.051	6317
2171.089	6407
2173.126	6257
2175.164	6383
2177.201	6347
2179.236	6446
2181.273	6350
2183.307	6317
2185.341	6200
2187.377	6238
2189.41	6246
2191.442	6307
2193.473	6363
2195.506	6269
2197.539	6232
2199.569	6332
2201.598	6263
2203.628	6188
2205.656	6286
2207.686	6363
2209.716	6370
2211.743	6195
2213.769	6260
2215.796	6114
2217.821	6267
2219.848	6333
2221.873	6126
2223.897	6248
2225.921	6158
2227.944	6243
2229.967	6232
2231.991	6256
2234.011	6204
2236.032	6229
2238.053	6128
2240.073	6199
2242.094	6160
2244.114	6252
2246.131	6218
2248.149	6166
2250.167	6108
2252.186	6167
2254.201	6148
2256.218	6206
2258.233	6145
2260.247	6148
2262.262	6213
2264.278	6165
2266.29	6191
2268.303	6190
2270.315	6294
2272.327	6151
2274.341	6127
2276.35	6292
2278.361	6081
2280.37	6087
2282.38	6148
2284.388	6222
2286.397	6049
2288.405	6098
2290.412	6117
2292.419	6155
2294.425	6132
2296.431	6137
2298.437	6079
2300.441	6196
2302.445	6288
2304.449	6170
2306.453	6223
2308.455	6173
2310.457	6083
2312.459	6174
2314.46	6214
2316.46	6126
2318.461	6083
2320.46	6217
2322.458	6146
2324.458	6139
2326.456	6056
2328.455	6098
2330.451	6183
2332.447	6142
2334.443	6179
2336.438	6185
2338.433	6004
2340.429	6062
2342.422	6097
2344.416	6019
2346.408	6175
2348.399	6005
2350.393	5993
2352.384	6098
2354.375	6007
2356.365	6085
2358.355	5949
2360.344	5969
2362.333	5986
2364.322	6024
2366.309	5973
2368.295	5985
2370.282	5989
2372.27	6012
2374.256	6007
2376.24	6070
2378.225	6111
2380.208	5908
2382.194	5985
2384.177	5903
2386.159	6043
2388.142	5873
2390.122	5928
2392.105	5977
2394.085	5911
2396.066	5891
2398.044	5922
2400.024	5953
2402.002	5925
2403.982	6049
2405.959	5869
2407.935	5956
2409.913	5959
2411.888	5875
2413.865	5925
2415.84	6024
2417.814	5884
2419.788	6056
2421.762	5963
2423.735	6054
2425.708	6022
2427.68	5890
2429.651	5948
2431.623	6018
2433.593	6045
2435.564	5928
2437.533	5975
2439.502	5996
2441.47	5944
2443.438	5872
2445.406	5968
2447.373	5894
2449.34	5933
2451.305	5846
2453.271	5809
2455.235	5931
2457.201	5894
2459.165	5916
2461.129	5880
2463.092	5860
2465.054	5968
2467.018	5890
2468.978	5824
2470.939	5747
2472.899	5960
2474.86	5871
2476.819	5940
2478.778	5900
2480.737	5738
2482.695	5792
2484.653	5974
2486.609	5921
2488.567	5847
2490.524	5755
2492.478	5804
2494.433	5842
2496.387	5787
2498.343	5813
2500.297	5747
2502.249	5773
2504.202	5861
2506.153	5781
2508.105	5861
2510.057	5799
2512.008	5731
2513.957	5756
2515.906	5784
2517.855	5835
2519.805	5769
2521.754	5791
2523.7	5822
2525.647	5895
2527.594	5713
2529.54	5708
2531.486	5658
2533.431	5693
2535.376	5747
2537.32	5810
2539.263	5751
2541.207	5769
2543.151	5728
2545.093	5800
2547.034	5807
2548.975	5824
2550.917	5808
2552.856	5700
2554.796	5695
2556.735	5793
2558.673	5796
2560.611	5800
2562.55	5635
2564.487	5793
2566.424	5833
2568.36	5782
2570.296	5641
2572.232	5792
2574.167	5772
2576.101	5848
2578.035	5748
2579.969	5760
2581.902	5768
2583.834	5800
2585.766	5769
2587.698	5710
2589.628	5759
2591.557	5775
2593.489	5811
2595.419	5715
2597.348	5747
2599.275	5822
2601.204	5786
2603.131	5767
2605.059	5723
2606.986	5722
2608.911	5679
2610.837	5757
2612.76	5812
2614.687	5700
2616.61	5731
2618.534	5820
2620.457	5764
2622.38	5655
2624.302	5600
2626.225	5749
2628.145	5761
2630.067	5867
2631.986	5688
2633.906	5853
2635.827	5681
2637.745	5836
2639.662	5870
2641.581	5802
2643.498	5834
2645.415	5756
2647.331	5776
2649.248	5713
2651.163	5674
2653.077	5720
2654.993	5749
2656.906	5630
2658.821	5806
2660.733	5812
2662.646	5604
2664.557	5831
2666.47	5677
2668.381	5718
2670.291	5780
2672.201	5707
2674.11	5723
2676.021	5828
2677.929	5715
2679.837	5769
2681.745	5746
2683.652	5663
2685.56	5664
2687.466	5709
2689.371	5621
2691.276	5674
2693.181	5689
2695.085	5686
2696.991	5643
2698.893	5628
2700.796	5695
2702.698	5669
2704.601	5606
2706.502	5639
2708.404	5658
2710.304	5697
2712.203	5627
2714.103	5588
2716.003	5621
2717.902	5596
2719.8	5484
2721.697	5640
2723.594	5551
2725.49	5534
2727.389	5649
2729.283	5704
2731.179	5643
2733.073	5540
2734.968	5567
2736.863	5588
2738.757	5525
2740.649	5677
2742.541	5524
2744.433	5544
2746.324	5646
2748.216	5549
2750.107	5722
2751.997	5540
2753.886	5531
2755.776	5563
2757.666	5431
2759.553	5610
2761.44	5500
2763.327	5617
2765.215	5482
2767.102	5407
2768.988	5504
2770.873	5517
2772.757	5471
2774.641	5538
2776.525	5549
2778.41	5455
2780.292	5508
2782.175	5569
2784.057	5503
2785.938	5564
2787.821	5476
2789.701	5507
2791.581	5412
2793.461	5488
2795.34	5439
2797.219	5545
2799.099	5489
2800.975	5465
2802.853	5483
2804.73	5430
2806.606	5436
2808.484	5685
2810.358	5405
2812.233	5500
2814.108	5449
2815.981	5495
2817.857	5467
2819.73	5492
2821.602	5604
2823.474	5392
2825.346	5525
2827.217	5358
2829.089	5448
2830.959	5415
2832.829	5405
2834.698	5495
2836.567	5485
2838.436	5466
2840.305	5329
2842.172	5556
2844.04	5492
2845.905	5460
2847.772	5544
2849.639	5498
2851.503	5588
2853.369	5425
2855.232	5521
2857.096	5652
2858.961	5618
2860.824	5476
2862.686	5519
2864.547	5603
2866.41	5662
2868.272	5633
2870.132	5679
2871.992	5759
2873.851	5708
2875.711	5722
2877.57	5813
2879.429	5783
2881.287	5857
2883.144	5890
2885.001	5988
2886.857	5953
2888.714	5806
2890.57	5869
2892.425	5919
2894.279	5832
2896.133	5786
2897.987	5967
2899.842	5810
2901.694	5775
2903.547	5843
2905.397	5926
2907.249	5827
2909.101	5823
2910.952	5885
2912.802	5961
2914.652	5875
2916.5	5931
2918.35	5994
2920.198	5971
2922.045	6040
2923.893	6128
2925.74	6169
2927.585	6265
2929.433	6184
2931.279	6338
2933.123	6333
2934.968	6412
2936.811	6503
2938.656	6463
2940.5	6545
2942.342	6565
2944.185	6613
2946.026	6540
2947.87	6596
2949.71	6589
2951.549	6479
2953.39	6491
2955.229	6295
2957.069	6442
2958.908	6246
2960.746	6320
2962.584	6261
2964.421	6165
2966.257	6083
2968.094	6156
2969.931	6021
2971.766	5978
2973.601	5962
2975.435	5922
2977.27	6046
2979.105	5977
2980.938	6014
2982.77	5898
2984.602	5935
2986.434	5886
2988.267	5796
2990.097	5764
2991.927	5623
2993.757	5692
2995.587	5690
2997.417	5832
2999.246	5703
3001.074	5546
3002.902	5654
3004.729	5576
3006.556	5412
3008.384	5444
3010.21	5401
3012.036	5403
3013.861	5382
3015.684	5452
3017.51	5342
3019.334	5318
3021.157	5274
3022.981	5226
3024.802	5231
3026.624	5273
3028.448	5142
3030.267	5108
3032.088	5172
3033.909	5137
3035.728	5147
3037.549	5123
3039.368	5195
3041.186	5088
3043.004	5153
3044.821	5206
3046.64	5127
3048.455	5144
3050.272	5066
3052.087	5128
3053.903	5178
3055.717	5036
3057.534	5002
3059.347	5170
3061.16	5119
3062.974	5079
3064.785	5072
3066.598	5041
3068.411	5069
3070.222	5024
3072.032	5116
3073.844	5035
3075.653	4979
3077.463	5060
3079.272	5059
3081.08	5066
3082.889	4980
3084.697	4980
3086.505	4983
3088.312	5000
3090.118	4992
3091.924	4947
3093.729	4956
3095.535	4881
3097.34	4970
3099.144	4918
3100.947	4899
3102.75	4927
3104.553	4947
3106.357	5043
3108.159	4887
3109.961	4899
3111.762	4900
3113.562	5011
3115.365	4890
3117.164	4874
3118.964	4905
3120.761	4916
3122.56	4847
3124.36	4944
3126.158	4894
3127.954	4811
3129.75	4857
3131.547	4803
3133.343	4788
3135.139	4920
3136.934	4877
3138.729	4916
3140.522	4881
3142.317	4885
3144.11	4773
3145.904	4857
3147.695	4860
3149.488	4759
3151.28	4813
3153.07	4930
3154.863	4756
3156.652	4750
3158.441	4683
3160.231	4787
3162.019	4805
3163.81	4814
3165.597	4774
3167.384	4741
3169.172	4720
3170.958	4709
3172.745	4765
3174.532	4829
3176.317	4748
3178.101	4704
3179.885	4775
3181.67	4806
3183.455	4771
3185.238	4680
3187.02	4759
3188.802	4628
3190.585	4703
3192.368	4672
3194.149	4709
3195.929	4788
3197.709	4719
3199.489	4708
3201.268	4766
3203.048	4782
3204.826	4705
3206.604	4693
3208.382	4772
3210.159	4704
3211.937	4768
3213.713	4590
3215.489	4650
3217.263	4796
3219.038	4667
3220.815	4676
3222.589	4679
3224.363	4742
3226.136	4721
3227.908	4708
3229.681	4725
3231.454	4755
3233.226	4691
3234.996	4701
3236.767	4661
3238.538	4717
3240.308	4658
3242.078	4740
3243.847	4703
3245.615	4697
3247.384	4703
3249.15	4747
3250.92	4763
3252.686	4679
3254.453	4646
3256.218	4735
3257.984	4707
3259.75	4636
3261.515	4724
3263.279	4663
3265.044	4631
3266.806	4630
3268.57	4649
3270.334	4513
3272.095	4639
3273.856	4710
3275.619	4710
3277.379	4644
3279.14	4697
3280.9	4714
3282.661	4667
3284.419	4756
3286.178	4724
3287.937	4653
3289.695	4666
3291.453	4689
3293.21	4684
3294.967	4793
3296.723	4647
3298.48	4702
3300.235	4704
3301.99	4701
3303.744	4705
3305.498	4723
3307.253	4742
3309.006	4711
3310.759	4673
3312.511	4684
3314.263	4637
3316.017	4671
3317.768	4707
3319.519	4647
3321.268	4737
3323.018	4721
3324.767	4565
3326.518	4717
3328.267	4684
3330.014	4607
3331.762	4635
3333.509	4795
3335.258	4617
3337.003	4635
3338.75	4702
3340.496	4656
3342.24	4557
3343.987	4661
3345.732	4627
3347.475	4706
3349.219	4561
3350.961	4559
3352.705	4609
3354.448	4526
3356.19	4634
3357.931	4585
3359.672	4668
3361.412	4575
3363.155	4583
3364.894	4656
3366.633	4534
3368.372	4608
3370.11	4643
3371.849	4518
3373.588	4663
3375.325	4540
3377.061	4567
3378.799	4446
3380.534	4593
3382.271	4593
3384.006	4597
3385.741	4522
3387.475	4608
3389.209	4554
3390.944	4579
3392.677	4564
3394.409	4608
3396.143	4452
3397.874	4452
3399.606	4513
3401.338	4554
3403.069	4542
3404.799	4485
3406.528	4508
3408.258	4450
3409.988	4419
3411.717	4464
3413.445	4510
3415.173	4448
3416.899	4468
3418.626	4463
3420.354	4442
3422.08	4425
3423.806	4458
3425.531	4434
3427.255	4405
3428.981	4461
3430.705	4415
3432.429	4506
3434.151	4560
3435.875	4394
3437.599	4388
3439.321	4475
3441.042	4409
3442.763	4429
3444.483	4273
3446.204	4311
3447.926	4456
3449.645	4405
3451.364	4379
3453.082	4343
3454.801	4307
3456.52	4339
3458.238	4353
3459.954	4349
3461.671	4378
3463.387	4349
3465.104	4237
3466.82	4303
3468.534	4321
3470.25	4221
3471.963	4337
3473.676	4288
3475.392	4315
3477.104	4283
3478.817	4344
3480.528	4167
3482.241	4291
3483.954	4254
3485.664	4221
3487.374	4255
3489.084	4322
3490.795	4151
3492.504	4217
3494.214	4165
3495.922	4278
3497.63	4203
3499.338	4166
3501.045	4205
3502.753	4132
3504.459	4246
3506.166	4169
3507.871	4233
3509.576	4081
3511.283	4152
3512.987	4155
3514.691	4282
3516.395	4108
3518.098	4163
3519.8	4158
3521.504	4119
3523.206	4119
3524.908	4141
3526.609	4081
3528.309	4201
3530.011	4073
3531.711	4034
3533.411	4117
3535.109	4113
3536.808	4117
3538.507	4111
3540.206	4050
3541.904	4065
3543.601	4020
3545.297	4079
3546.994	4077
3548.69	4105
3550.387	4049
3552.081	4060
3553.776	4118
3555.47	4033
3557.166	3953
3558.859	4060
3560.553	4062
3562.245	4031
3563.938	4128
3565.629	3998
3567.322	3979
3569.014	3990
3570.704	3996
3572.394	3948
3574.084	4001
3575.775	3978
3577.464	3964
3579.152	3974
3580.842	4019
3582.529	3909
3584.216	3996
3585.905	3976
3587.591	3949
3589.279	3956
3590.964	3947
3592.649	3880
3594.336	3954
3596.021	3875
3597.705	3887
3599.388	3958
3601.072	3826
3602.757	3917
3604.439	3837
3606.122	3892
3607.803	4012
3609.485	3829
3611.167	3796
3612.849	3832
3614.529	3837
3616.208	3834
3617.888	3892
3619.567	3832
3621.247	3814
3622.926	3875
3624.603	3756
3626.281	3814
3627.958	3728
3629.635	3833
3631.312	3810
3632.989	3801
3634.665	3867
3636.339	3777
3638.014	3835
3639.691	3703
3641.364	3733
3643.038	3752
3644.71	3735
3646.384	3828
3648.058	3713
3649.729	3780
3651.402	3725
3653.073	3776
3654.744	3671
3656.414	3707
3658.085	3682
3659.755	3728
3661.424	3750
3663.094	3597
3664.762	3664
3666.431	3732
3668.099	3684
3669.766	3684
3671.433	3715
3673.099	3631
3674.768	3647
3676.433	3691
3678.098	3609
3679.763	3692
3681.428	3657
3683.093	3591
3684.757	3692
3686.421	3624
3688.083	3673
3689.746	3635
3691.408	3611
3693.071	3566
3694.733	3683
3696.394	3600
3698.054	3624
3699.715	3669
3701.375	3624
3703.036	3567
3704.695	3671
3706.354	3585
3708.012	3590
3709.67	3618
3711.329	3666
3712.987	3564
3714.644	3576
3716.299	3603
3717.955	3480
3719.613	3599
3721.268	3556
3722.923	3568
3724.577	3571
3726.231	3581
3727.885	3607
3729.539	3621
3731.192	3556
3732.845	3535
3734.497	3587
3736.149	3500
3737.802	3523
3739.453	3573
3741.104	3581
3742.753	3604
3744.404	3570
3746.052	3567
3747.704	3517
3749.352	3620
3751	3488
3752.648	3550
3754.296	3523
3755.944	3612
3757.59	3562
3759.238	3521
3760.883	3441
3762.528	3547
3764.176	3459
3765.82	3454
3767.464	3596
3769.109	3516
3770.753	3484
3772.396	3475
3774.04	3466
3775.683	3471
3777.325	3532
3778.967	3448
3780.608	3516
3782.25	3441
3783.89	3483
3785.531	3465
3787.17	3419
3788.81	3457
3790.45	3407
3792.09	3442
3793.729	3468
3795.366	3459
3797.003	3504
3798.64	3409
3800.278	3383
3801.915	3386
3803.551	3473
3805.187	3377
3806.822	3381
3808.458	3441
3810.093	3544
3811.726	3360
3813.36	3388
3814.994	3353
3816.627	3402
3818.262	3514
3819.893	3352
3821.525	3352
3823.157	3396
3824.787	3351
3826.42	3274
3828.051	3336
3829.68	3409
3831.31	3371
3832.938	3343
3834.569	3305
3836.198	3311
3837.825	3364
3839.454	3352
3841.08	3303
3842.708	3333
3844.335	3374
3845.962	3284
3847.587	3353
3849.212	3297
3850.838	3255
3852.463	3369
3854.089	3305
3855.712	3320
3857.335	3297
3858.959	3205
3860.582	3344
3862.205	3335
3863.827	3354
3865.449	3238
3867.07	3288
3868.691	3201
3870.312	3277
3871.933	3325
3873.553	3218
3875.173	3212
3876.792	3222
3878.411	3283
3880.03	3297
3881.647	3182
3883.265	3333
3884.882	3317
3886.499	3175
3888.116	3304
3889.732	3203
3891.348	3245
3892.964	3108
3894.579	3196
3896.195	3242
3897.809	3211
3899.423	3205
3901.036	3221
3902.648	3186
3904.261	3228
3905.875	3215
3907.487	3322
3909.099	3325
3910.709	3088
3912.321	3172
3913.933	3172
3915.542	3164
3917.152	3191
3918.762	3237
3920.37	3170
3921.98	3221
3923.589	3213
3925.196	3238
3926.804	3134
3928.41	3281
3930.018	3240
3931.626	3164
3933.231	3110
3934.838	3157
3936.442	3133
3938.046	3223
3939.653	3185
3941.257	3158
3942.861	3209
3944.464	3134
3946.068	3130
3947.67	3214
3949.273	3136
3950.876	3171
3952.477	3129
3954.078	3133
3955.678	3106
3957.281	3125
3958.881	3054
3960.48	3158
3962.079	3140
3963.678	3138
3965.279	3160
3966.877	3159
3968.475	3156
3970.072	3044
3971.669	3078
3973.266	3092
3974.864	3073
3976.459	3136
3978.055	3109
3979.65	3106
3981.245	3050
3982.841	3088
3984.436	3130
3986.03	3062
3987.623	3001
3989.216	3060
3990.809	3124
3992.403	3044
3993.995	3046
3995.586	2967
3997.177	3053
3998.768	3013
4000.361	3064
4001.951	2979
4003.54	3037
4005.13	3078
4006.719	2913
4008.31	3043
4009.897	2994
4011.485	2994
4013.073	3009
4014.66	3002
4016.247	3048
4017.834	2996
4019.421	3014
4021.006	2972
4022.592	3049
4024.178	2986
4025.763	2950
4027.348	3006
4028.932	3011
4030.515	2936
4032.099	2970
4033.682	2931
4035.266	2995
4036.847	3034
4038.429	2970
4040.011	2960
4041.592	2947
4043.173	2895
4044.755	2953
4046.334	2967
4047.913	2905
4049.494	2981
4051.074	3015
4052.652	2903
4054.23	2876
4055.807	2976
4057.385	2836
4058.963	2903
4060.541	2896
4062.117	2903
4063.693	2925
4065.269	2925
4066.844	2931
4068.42	2922
4069.995	2850
4071.569	2949
4073.143	2878
4074.716	2881
4076.291	2895
4077.864	2926
4079.436	2898
4081.009	2910
4082.58	2831
4084.152	2829
4085.723	2843
4087.294	2863
4088.865	2934
4090.435	2892
4092.005	2858
4093.574	2869
4095.143	2889
4096.712	2851
4098.279	2860
4099.848	2883
4101.416	2835
4102.984	2871
4104.55	2785
4106.117	2796
4107.682	2829
4109.248	2810
4110.815	2865
4112.379	2835
4113.945	2785
4115.508	2837
4117.073	2780
4118.637	2844
4120.201	2839
4121.763	2859
4123.325	2760
4124.888	2771
4126.449	2798
4128.013	2806
4129.573	2819
4131.133	2700
4132.694	2751
4134.254	2751
4135.814	2777
4137.374	2739
4138.933	2774
4140.491	2796
4142.049	2762
4143.607	2782
4145.167	2820
4146.724	2727
4148.28	2736
4149.836	2726
4151.392	2748
4152.949	2752
4154.504	2720
4156.059	2692
4157.614	2756
4159.168	2701
4160.723	2712
4162.277	2709
4163.83	2672
4165.383	2681
4166.936	2719
4168.488	2634
4170.041	2741
4171.593	2658
4173.144	2727
4174.695	2678
4176.246	2667
4177.796	2685
4179.346	2735
4180.896	2697
4182.445	2597
4183.994	2692
4185.542	2686
4187.091	2674
4188.639	2567
4190.185	2622
4191.732	2586
4193.279	2587
4194.826	2641
4196.373	2667
4197.918	2570
4199.463	2613
4201.008	2626
4202.553	2622
4204.098	2610
4205.641	2666
4207.185	2599
4208.728	2628
4210.271	2648
4211.814	2542
4213.357	2603
4214.898	2605
4216.439	2659
4217.98	2578
4219.522	2620
4221.062	2555
4222.603	2634
4224.142	2596
4225.681	2560
4227.222	2611
4228.76	2571
4230.298	2614
4231.835	2537
4233.373	2590
4234.911	2618
4236.449	2560
4237.985	2622
4239.521	2610
4241.057	2615
4242.592	2580
4244.128	2556
4245.663	2544
4247.197	2606
4248.731	2505
4250.265	2530
4251.798	2581
4253.333	2570
4254.865	2532
4256.397	2559
4257.93	2560
4259.461	2508
4260.994	2555
4262.525	2497
4264.056	2570
4265.586	2527
4267.115	2508
4268.646	2502
4270.176	2529
4271.705	2540
4273.232	2498
4274.761	2544
4276.289	2536
4277.818	2503
4279.345	2533
4280.872	2436
4282.399	2628
4283.924	2533
4285.452	2403
4286.976	2571
4288.502	2485
4290.026	2464
4291.551	2469
4293.074	2562
4294.6	2583
4296.123	2472
4297.646	2459
4299.168	2473
4300.691	2470
4302.214	2507
4303.736	2477
4305.257	2487
4306.778	2499
4308.299	2433
4309.82	2430
4311.34	2509
4312.86	2389
4314.379	2461
