400.0745	4536
402.597	4544
405.1208	4494
407.6419	4428
410.1623	4483
412.6819	4559
415.201	4568
417.7172	4549
420.2369	4579
422.7538	4646
425.2701	4667
427.7856	4762
430.3005	4772
432.8147	4708
435.3282	4700
437.841	4744
440.3511	4682
442.8625	4782
445.3753	4777
447.8854	4884
450.3927	4739
452.9014	4773
455.4073	4874
457.9146	4843
460.4233	4819
462.9272	4781
465.4325	4853
467.935	4749
470.4389	4876
472.9421	4824
475.4446	4890
477.9444	4763
480.4456	4790
482.944	4917
485.4417	4891
487.9429	4857
490.4393	4981
492.935	4901
495.4321	4945
497.9264	4923
500.4221	5001
502.9171	5007
505.4094	4978
507.9011	4966
510.392	5052
512.8864	5067
515.3759	5063
517.8649	5013
520.3531	5027
522.8406	5077
525.3275	5093
527.8178	5051
530.3033	5054
532.7881	5057
535.2723	5009
537.7558	5050
540.2407	4998
542.7228	5092
545.2043	5065
547.6851	5015
550.1652	5024
552.6467	5261
555.1255	5084
557.6016	5060
560.079	5046
562.5557	5099
565.0318	5093
567.5092	5136
569.984	5193
572.456	5082
574.9294	5190
577.4022	5180
579.8762	5232
582.3456	5232
584.8163	5298
587.2863	5255
589.7557	5364
592.2224	5226
594.6924	5247
597.1578	5216
599.6245	5254
602.0905	5223
604.5538	5244
607.0206	5160
609.4825	5287
611.9459	5191
614.4066	5224
616.8686	5310
619.33	5191
621.7906	5209
624.2487	5250
626.708	5219
629.1647	5217
631.6207	5291
634.0801	5272
636.5348	5251
638.9888	5234
641.4442	5201
643.8969	5279
646.3509	5218
648.8022	5301
651.255	5274
653.705	5359
656.1544	5409
658.6031	5435
661.0532	5348
663.5026	5389
665.9493	5325
668.3954	5368
670.8409	5398
673.2877	5394
675.7318	5432
678.1752	5374
680.618	5426
683.0601	5365
685.5035	5484
687.9444	5343
690.3845	5518
692.824	5531
695.2628	5488
697.701	5403
700.1406	5454
702.5774	5406
705.0116	5561
707.4472	5407
709.8821	5476
712.3183	5629
714.7519	5501
717.1829	5521
719.6151	5606
722.0468	5595
724.4777	5625
726.908	5641
729.3377	5649
731.7667	5558
734.1931	5616
736.6208	5581
739.0498	5718
741.4742	5660
743.9	5678
746.3231	5584
748.7476	5639
751.1713	5844
753.5945	5782
756.015	5730
758.4368	5756
760.856	5805
763.2766	5816
765.6965	5813
768.1157	5776
770.5323	5926
772.9483	5830
775.3656	5866
777.7822	5898
780.1963	5870
782.6116	5851
785.0244	5811
787.4365	5841
789.8499	5897
792.2626	5757
794.6728	5825
797.0823	5812
799.4911	5869
801.8994	5875
804.3109	5901
806.7178	5946
809.124	5968
811.5297	5994
813.9347	5965
816.341	5958
818.7447	5862
821.1478	5918
823.5502	5918
825.952	5861
828.3531	5959
830.7556	5943
833.1554	5867
835.5546	5852
837.9532	5976
840.3511	5994
842.7504	5975
845.1451	6064
847.5411	6116
849.9365	6029
852.3312	6175
854.7272	5971
857.1187	5978
859.5115	6088
861.9037	5967
864.2952	6052
866.6842	5921
869.0764	6016
871.4661	6009
873.8531	6073
876.2415	5949
878.6272	6042
881.0162	5989
883.4026	6046
885.7866	5981
888.1717	6006
890.5543	5998
892.9382	6005
895.3215	6014
897.7041	5933
900.0842	5927
902.4655	6054
904.8443	6079
907.2244	6043
909.6039	6023
911.9808	6103
914.357	6055
916.7346	6139
919.1115	6157
921.4859	6114
923.8616	6144
926.2347	6287
928.6071	6261
930.979	6229
933.3541	6232
935.7247	6235
938.0946	6292
940.4639	6318
942.8326	6357
945.2026	6349
947.5701	6381
949.9369	6561
952.305	6491
954.6705	6731
957.0355	6820
959.4017	6997
961.7654	7151
964.1284	7022
966.4908	7026
968.8527	6693
971.2138	6583
973.5743	6540
975.9343	6341
978.2936	6421
980.6522	6217
983.0122	6287
985.3696	6147
987.7245	6107
990.0807	6230
992.4362	6363
994.7911	6255
997.1474	6111
999.4991	6130
1001.852	6326
1004.205	6232
1006.555	6201
1008.908	6175
1011.258	6145
1013.606	6210
1015.956	6250
1018.302	6315
1020.652	6173
1022.998	6295
1025.345	6292
1027.691	6224
1030.035	6147
1032.378	6378
1034.724	6340
1037.066	6349
1039.409	6387
1041.75	6297
1044.092	6267
1046.433	6355
1048.771	6325
1051.112	6345
1053.449	6331
1055.786	6290
1058.124	6276
1060.462	6341
1062.797	6316
1065.131	6426
1067.467	6328
1069.8	6352
1072.135	6399
1074.467	6490
1076.798	6468
1079.129	6330
1081.459	6381
1083.792	6312
1086.121	6493
1088.449	6490
1090.777	6429
1093.104	6317
1095.431	6423
1097.759	6321
1100.084	6350
1102.408	6423
1104.732	6359
1107.056	6311
1109.379	6414
1111.701	6422
1114.022	6405
1116.343	6539
1118.664	6410
1120.983	6300
1123.303	6417
1125.621	6390
1127.939	6500
1130.256	6400
1132.573	6547
1134.889	6446
1137.205	6428
1139.52	6405
1141.832	6468
1144.146	6385
1146.461	6388
1148.771	6446
1151.083	6455
1153.392	6372
1155.703	6357
1158.011	6521
1160.323	6459
1162.629	6570
1164.938	6466
1167.243	6336
1169.55	6313
1171.857	6498
1174.163	6405
1176.466	6459
1178.769	6427
1181.073	6457
1183.374	6503
1185.677	6472
1187.979	6357
1190.279	6357
1192.578	6439
1194.878	6420
1197.178	6466
1199.476	6450
1201.772	6505
1204.068	6472
1206.366	6487
1208.663	6369
1210.957	6378
1213.251	6453
1215.544	6570
1217.836	6532
1220.128	6350
1222.421	6341
1224.712	6368
1227.002	6494
1229.292	6489
1231.581	6539
1233.871	6536
1236.159	6584
1238.446	6562
1240.732	6686
1243.018	6554
1245.304	6639
1247.59	6683
1249.874	6705
1252.156	6637
1254.439	6593
1256.721	6652
1259.005	6639
1261.286	6606
1263.565	6664
1265.845	6609
1268.125	6631
1270.403	6625
1272.682	6491
1274.959	6560
1277.234	6551
1279.511	6619
1281.787	6539
1284.062	6535
1286.337	6616
1288.609	6614
1290.882	6627
1293.153	6630
1295.428	6461
1297.698	6592
1299.969	6589
1302.237	6595
1304.507	6619
1306.777	6583
1309.044	6588
1311.312	6620
1313.578	6587
1315.844	6393
1318.109	6589
1320.375	6511
1322.638	6636
1324.903	6629
1327.165	6491
1329.427	6601
1331.69	6579
1333.952	6708
1336.212	6512
1338.471	6601
1340.73	6621
1342.988	6603
1345.248	6675
1347.505	6573
1349.763	6592
1352.019	6497
1354.274	6533
1356.53	6570
1358.784	6526
1361.038	6571
1363.291	6492
1365.543	6484
1367.797	6550
1370.048	6771
1372.296	6444
1374.546	6562
1376.796	6518
1379.045	6549
1381.295	6469
1383.542	6636
1385.787	6734
1388.034	6658
1390.28	6586
1392.527	6684
1394.772	6657
1397.014	6576
1399.258	6693
1401.501	6670
1403.741	6589
1405.985	6771
1408.226	6715
1410.465	6624
1412.705	6623
1414.943	6630
1417.184	6653
1419.42	6829
1421.658	6828
1423.894	6590
1426.13	6679
1428.366	6677
1430.602	6733
1432.835	6781
1435.069	6704
1437.301	6780
1439.535	6842
1441.767	6737
1443.997	6860
1446.229	6760
1448.458	6755
1450.687	6748
1452.916	6823
1455.146	6792
1457.372	6802
1459.599	6858
1461.824	6857
1464.051	6835
1466.277	6745
1468.501	6749
1470.725	6811
1472.948	6725
1475.17	6783
1477.393	6784
1479.614	6652
1481.837	6683
1484.057	6696
1486.276	6656
1488.497	6611
1490.715	6571
1492.932	6572
1495.148	6569
1497.364	6476
1499.58	6663
1501.798	6570
1504.012	6552
1506.227	6638
1508.44	6558
1510.653	6597
1512.866	6594
1515.078	6462
1517.289	6536
1519.5	6547
1521.711	6487
1523.92	6530
1526.13	6595
1528.338	6599
1530.544	6442
1532.752	6600
1534.959	6547
1537.165	6543
1539.371	6636
1541.574	6643
1543.779	6661
1545.983	6559
1548.187	6517
1550.39	6535
1552.59	6470
1554.792	6589
1556.991	6593
1559.19	6633
1561.392	6602
1563.59	6639
1565.789	6688
1567.986	6699
1570.182	6735
1572.381	6662
1574.576	6700
1576.771	6576
1578.966	6673
1581.16	6676
1583.354	6683
1585.546	6755
1587.74	6630
1589.931	6780
1592.121	6774
1594.311	6703
1596.502	6703
1598.693	6753
1600.881	6724
1603.069	6703
1605.256	6787
1607.445	6793
1609.631	6714
1611.816	6850
1614.001	6798
1616.186	6787
1618.37	6734
1620.555	6805
1622.737	6727
1624.919	6804
1627.101	6701
1629.282	6779
1631.463	6846
1633.643	6767
1635.822	6903
1638.001	6763
1640.179	6803
1642.359	6783
1644.534	6805
1646.711	6873
1648.887	6770
1651.062	6808
1653.235	6921
1655.412	6807
1657.586	6681
1659.757	6953
1661.93	6838
1664.1	6896
1666.274	6829
1668.445	6795
1670.614	6731
1672.784	6951
1674.951	6959
1677.12	6814
1679.289	6892
1681.457	6745
1683.622	6823
1685.789	6899
1687.953	6912
1690.121	6815
1692.284	6796
1694.447	6810
1696.611	6674
1698.772	6753
1700.935	6735
1703.098	6723
1705.258	6689
1707.417	6690
1709.576	6728
1711.736	6692
1713.896	6667
1716.053	6792
1718.21	6703
1720.366	6793
1722.522	6616
1724.68	6855
1726.835	6625
1728.989	6652
1731.142	6751
1733.295	6665
1735.449	6807
1737.601	6598
1739.753	6712
1741.903	6745
1744.054	6697
1746.203	6705
1748.354	6767
1750.503	6784
1752.651	6731
1754.798	6747
1756.944	6759
1759.092	6667
1761.238	6622
1763.383	6710
1765.528	6853
1767.672	6680
1769.814	6809
1771.959	6781
1774.102	6721
1776.242	6807
1778.384	6831
1780.525	6825
1782.665	6852
1784.805	6736
1786.945	6876
1789.082	6780
1791.22	6774
1793.36	6767
1795.495	6831
1797.632	6708
1799.766	6767
1801.902	6783
1804.035	6746
1806.172	6747
1808.304	6771
1810.436	6725
1812.569	6725
1814.699	6866
1816.833	6758
1818.963	6711
1821.092	6701
1823.222	6727
1825.35	6756
1827.478	6654
1829.608	6701
1831.734	6628
1833.86	6665
1835.986	6832
1838.11	6604
1840.238	6651
1842.362	6768
1844.485	6645
1846.608	6716
1848.73	6676
1850.853	6790
1852.974	6735
1855.097	6642
1857.217	6769
1859.336	6666
1861.455	6519
1863.576	6738
1865.693	6648
1867.811	6723
1869.926	6746
1872.042	6568
1874.16	6892
1876.275	6703
1878.39	6657
1880.504	6750
1882.618	6688
1884.731	6663
1886.843	6697
1888.956	6803
1891.067	6718
1893.178	6723
1895.287	6669
1897.399	6759
1899.508	6721
1901.617	6820
1903.724	6842
1905.832	6842
1907.941	6728
1910.046	6780
1912.152	6654
1914.256	6698
1916.361	6870
1918.464	6805
1920.57	6760
1922.672	6834
1924.775	6675
1926.876	6725
1928.978	6735
1931.08	6747
1933.181	6716
1935.28	6828
1937.38	6808
1939.478	6836
1941.577	6847
1943.675	6878
1945.771	6809
1947.867	6806
1949.964	6763
1952.058	6756
1954.154	6826
1956.248	6871
1958.343	6756
1960.435	6787
1962.527	6697
1964.62	6926
1966.711	6784
1968.802	6737
1970.892	6764
1972.983	6670
1975.072	6740
1977.162	6715
1979.25	6877
1981.337	6695
1983.424	6686
1985.51	6770
1987.598	6732
1989.683	6714
1991.768	6746
1993.852	6763
1995.934	6802
1998.019	6678
2000.102	6704
2002.184	6707
2004.266	6820
2006.347	6602
2008.427	6755
2010.508	6574
2012.587	6568
2014.666	6695
2016.745	6697
2018.821	6637
2020.9	6672
2022.977	6663
2025.052	6593
2027.128	6528
2029.204	6670
2031.277	6572
2033.353	6696
2035.425	6631
2037.499	6701
2039.57	6713
2041.642	6694
2043.714	6698
2045.786	6729
2047.855	6586
2049.925	6704
2051.993	6617
2054.064	6685
2056.132	6797
2058.2	6701
2060.266	6704
2062.332	6773
2064.398	6612
2066.465	6649
2068.529	6741
2070.592	6749
2072.657	6704
2074.719	6542
2076.783	6668
2078.845	6595
2080.907	6629
2082.968	6643
2085.028	6716
2087.087	6605
2089.148	6589
2091.207	6661
2093.264	6649
2095.322	6695
2097.379	6673
2099.439	6560
2101.495	6666
2103.55	6697
2105.605	6617
2107.658	6567
2109.713	6658
2111.767	6631
2113.82	6674
2115.872	6657
2117.924	6639
2119.975	6684
2122.028	6628
2124.078	6607
2126.126	6731
2128.176	6672
2130.225	6618
2132.275	6603
2134.321	6634
2136.368	6715
2138.415	6722
2140.461	6613
2142.505	6712
2144.552	6661
2146.597	6488
2148.64	6688
2150.684	6504
2152.725	6674
2154.77	6553
2156.811	6527
2158.852	6698
2160.894	6575
2162.933	6578
2164.973	6533
2167.013	6565
2169.051	6585
2171.089	6538
2173.126	6473
2175.164	6684
2177.201	6565
2179.236	6508
2181.273	6639
2183.307	6547
2185.341	6559
2187.377	6419
2189.41	6543
2191.442	6504
2193.473	6532
2195.506	6396
2197.539	6562
2199.569	6428
2201.598	6472
2203.628	6477
2205.656	6446
2207.686	6484
2209.716	6453
2211.743	6402
2213.769	6507
2215.796	6515
2217.821	6477
2219.848	6342
2221.873	6485
2223.897	6345
2225.921	6484
2227.944	6437
2229.967	6388
2231.991	6487
2234.011	6484
2236.032	6441
2238.053	6404
2240.073	6441
2242.094	6420
2244.114	6434
2246.131	6422
2248.149	6315
2250.167	6402
2252.186	6348
2254.201	6404
2256.218	6430
2258.233	6363
2260.247	6360
2262.262	6430
2264.278	6441
2266.29	6417
2268.303	6449
2270.315	6434
2272.327	6473
2274.341	6403
2276.35	6348
2278.361	6405
2280.37	6338
2282.38	6543
2284.388	6356
2286.397	6463
2288.405	6491
2290.412	6405
2292.419	6473
2294.425	6437
2296.431	6312
2298.437	6367
2300.441	6399
2302.445	6415
2304.449	6319
2306.453	6443
2308.455	6450
2310.457	6444
2312.459	6520
2314.46	6302
2316.46	6306
2318.461	6405
2320.46	6397
2322.458	6276
2324.458	6393
2326.456	6439
2328.455	6321
2330.451	6365
2332.447	6239
2334.443	6258
2336.438	6328
2338.433	6218
2340.429	6335
2342.422	6287
2344.416	6262
2346.408	6217
2348.399	6309
2350.393	6331
2352.384	6327
2354.375	6301
2356.365	6245
2358.355	6286
2360.344	6218
2362.333	6335
2364.322	6265
2366.309	6286
2368.295	6089
2370.282	6225
2372.27	6273
2374.256	6207
2376.24	6284
2378.225	6309
2380.208	6247
2382.194	6290
2384.177	6216
2386.159	6116
2388.142	6245
2390.122	6105
2392.105	6174
2394.085	6068
2396.066	6113
2398.044	6124
2400.024	6237
2402.002	6183
2403.982	6143
2405.959	6245
2407.935	6220
2409.913	6050
2411.888	6146
2413.865	6131
2415.84	6218
2417.814	6155
2419.788	6197
2421.762	6100
2423.735	6195
2425.708	6182
2427.68	6072
2429.651	6201
2431.623	6029
2433.593	6143
2435.564	6111
2437.533	6160
2439.502	6044
2441.47	6068
2443.438	6212
2445.406	6121
2447.373	6064
2449.34	6131
2451.305	6067
2453.271	6129
2455.235	6068
2457.201	6067
2459.165	6187
2461.129	6120
2463.092	6189
2465.054	6167
2467.018	6156
2468.978	6189
2470.939	6106
2472.899	6119
2474.86	6150
2476.819	6045
2478.778	6047
2480.737	5973
2482.695	6099
2484.653	6028
2486.609	6021
2488.567	6032
2490.524	6023
2492.478	6054
2494.433	6015
2496.387	6047
2498.343	6054
2500.297	6039
2502.249	6077
2504.202	5999
2506.153	6045
2508.105	5932
2510.057	5933
2512.008	6049
2513.957	6178
2515.906	6077
2517.855	5985
2519.805	6023
2521.754	5985
2523.7	5952
2525.647	5969
2527.594	5985
2529.54	5950
2531.486	5874
2533.431	6076
2535.376	5900
2537.32	5877
2539.263	5984
2541.207	5916
2543.151	5979
2545.093	5964
2547.034	6033
2548.975	5986
2550.917	5981
2552.856	5907
2554.796	5833
2556.735	5985
2558.673	5992
2560.611	5838
2562.55	5961
2564.487	6023
2566.424	6013
2568.36	5965
2570.296	5935
2572.232	6013
2574.167	5996
2576.101	5943
2578.035	5995
2579.969	5985
2581.902	5909
2583.834	5968
2585.766	6004
2587.698	5880
2589.628	6077
2591.557	5947
2593.489	5919
2595.419	5956
2597.348	5951
2599.275	6040
2601.204	5918
2603.131	5862
2605.059	5923
2606.986	5995
2608.911	5917
2610.837	6017
2612.76	6031
2614.687	6027
2616.61	5854
2618.534	5950
2620.457	5979
2622.38	5914
2624.302	5918
2626.225	5975
2628.145	5917
2630.067	5980
2631.986	5914
2633.906	6017
2635.827	5917
2637.745	5938
2639.662	6046
2641.581	5969
2643.498	5996
2645.415	5976
2647.331	5927
2649.248	5865
2651.163	5889
2653.077	5871
2654.993	5936
2656.906	5864
2658.821	5988
2660.733	5890
2662.646	5852
2664.557	5893
2666.47	5954
2668.381	5867
2670.291	5938
2672.201	5947
2674.11	5878
2676.021	5916
2677.929	5969
2679.837	5830
2681.745	5986
2683.652	5929
2685.56	5813
2687.466	5917
2689.371	5941
2691.276	5843
2693.181	5850
2695.085	5960
2696.991	5860
2698.893	5942
2700.796	5901
2702.698	5835
2704.601	5850
2706.502	5796
2708.404	5850
2710.304	5812
2712.203	5785
2714.103	5835
2716.003	5767
2717.902	5772
2719.8	5829
2721.697	5772
2723.594	5757
2725.49	5793
2727.389	5729
2729.283	5715
2731.179	5740
2733.073	5798
2734.968	5753
2736.863	5819
2738.757	5716
2740.649	5824
2742.541	5706
2744.433	5794
2746.324	5731
2748.216	5764
2750.107	5710
2751.997	5688
2753.886	5807
2755.776	5727
2757.666	5645
2759.553	5699
2761.44	5668
2763.327	5816
2765.215	5661
2767.102	5732
2768.988	5727
2770.873	5684
2772.757	5651
2774.641	5736
2776.525	5790
2778.41	5599
2780.292	5752
2782.175	5683
2784.057	5688
2785.938	5741
2787.821	5741
2789.701	5713
2791.581	5676
2793.461	5660
2795.34	5681
2797.219	5727
2799.099	5634
2800.975	5713
2802.853	5826
2804.73	5658
2806.606	5539
2808.484	5703
2810.358	5671
2812.233	5720
2814.108	5616
2815.981	5658
2817.857	5602
2819.73	5645
2821.602	5724
2823.474	5684
2825.346	5603
2827.217	5583
2829.089	5650
2830.959	5570
2832.829	5728
2834.698	5689
2836.567	5650
2838.436	5687
2840.305	5718
2842.172	5644
2844.04	5603
2845.905	5643
2847.772	5673
2849.639	5590
2851.503	5626
2853.369	5690
2855.232	5708
2857.096	5641
2858.961	5694
2860.824	5663
2862.686	5780
2864.547	5742
2866.41	5687
2868.272	5754
2870.132	5758
2871.992	5826
2873.851	5818
2875.711	5982
2877.57	5829
2879.429	5965
2881.287	6023
2883.144	5871
2885.001	5922
2886.857	5969
2888.714	5973
2890.57	5864
2892.425	5941
2894.279	6008
2896.133	5992
2897.987	5957
2899.842	5937
2901.694	5960
2903.547	5890
2905.397	5863
2907.249	5912
2909.101	5951
2910.952	5918
2912.802	6001
2914.652	5995
2916.5	5957
2918.35	6096
2920.198	6087
2922.045	6162
2923.893	6116
2925.74	6213
2927.585	6254
2929.433	6195
2931.279	6325
2933.123	6300
2934.968	6285
2936.811	6369
2938.656	6414
2940.5	6326
2942.342	6341
2944.185	6544
2946.026	6546
2947.87	6482
2949.71	6407
2951.549	6371
2953.39	6458
2955.229	6358
2957.069	6301
2958.908	6230
2960.746	6258
2962.584	6223
2964.421	6271
2966.257	6180
2968.094	6125
2969.931	5992
2971.766	6076
2973.601	5935
2975.435	5901
2977.27	5920
2979.105	5850
2980.938	6018
2982.77	5806
2984.602	5821
2986.434	5951
2988.267	5808
2990.097	5761
2991.927	5855
2993.757	5725
2995.587	5766
2997.417	5762
2999.246	5712
3001.074	5777
3002.902	5598
3004.729	5696
3006.556	5525
3008.384	5526
3010.21	5531
3012.036	5466
3013.861	5409
3015.684	5450
3017.51	5315
3019.334	5414
3021.157	5312
3022.981	5408
3024.802	5340
3026.624	5325
3028.448	5295
3030.267	5314
3032.088	5276
3033.909	5320
3035.728	5359
3037.549	5328
3039.368	5344
3041.186	5187
3043.004	5213
3044.821	5286
3046.64	5270
3048.455	5190
3050.272	5254
3052.087	5269
3053.903	5282
3055.717	5196
3057.534	5267
3059.347	5257
3061.16	5175
3062.974	5225
3064.785	5287
3066.598	5180
3068.411	5200
3070.222	5183
3072.032	5151
3073.844	5194
3075.653	5156
3077.463	5121
3079.272	5070
3081.08	5034
3082.889	5193
3084.697	5089
3086.505	5109
3088.312	5119
3090.118	5172
3091.924	5040
3093.729	5071
3095.535	5009
3097.34	5039
3099.144	5042
3100.947	5094
3102.75	5102
3104.553	4983
3106.357	4985
3108.159	5028
3109.961	4993
3111.762	5022
3113.562	4974
3115.365	4963
3117.164	5065
3118.964	5053
3120.761	5041
3122.56	5016
3124.36	4977
3126.158	4974
3127.954	5074
3129.75	4985
3131.547	5020
3133.343	4960
3135.139	5019
3136.934	4866
3138.729	5035
3140.522	4983
3142.317	4987
3144.11	4890
3145.904	5006
3147.695	4869
3149.488	4817
3151.28	4904
3153.07	4931
3154.863	4930
3156.652	4911
3158.441	4923
3160.231	4905
3162.019	4884
3163.81	4856
3165.597	4942
3167.384	4892
3169.172	4871
3170.958	4872
3172.745	4843
3174.532	4889
3176.317	4758
3178.101	4862
3179.885	4790
3181.67	4903
3183.455	4843
3185.238	4894
3187.02	4779
3188.802	4818
3190.585	4863
3192.368	4845
3194.149	4882
3195.929	4809
3197.709	4772
3199.489	4776
3201.268	4806
3203.048	4799
3204.826	4875
3206.604	4758
3208.382	4798
3210.159	4819
3211.937	4789
3213.713	4849
3215.489	4833
3217.263	4765
3219.038	4855
3220.815	4843
3222.589	4781
3224.363	4872
3226.136	4883
3227.908	4822
3229.681	4821
3231.454	4772
3233.226	4765
3234.996	4843
3236.767	4801
3238.538	4847
3240.308	4816
3242.078	4665
3243.847	4779
3245.615	4660
3247.384	4890
3249.15	4785
3250.92	4781
3252.686	4756
3254.453	4727
3256.218	4863
3257.984	4761
3259.75	4739
3261.515	4780
3263.279	4705
3265.044	4801
3266.806	4753
3268.57	4834
3270.334	4809
3272.095	4794
3273.856	4716
3275.619	4737
3277.379	4772
3279.14	4725
3280.9	4779
3282.661	4733
3284.419	4776
3286.178	4764
3287.937	4750
3289.695	4621
3291.453	4711
3293.21	4830
3294.967	4768
3296.723	4750
3298.48	4728
3300.235	4763
3301.99	4765
3303.744	4717
3305.498	4768
3307.253	4757
3309.006	4679
3310.759	4803
3312.511	4602
3314.263	4710
3316.017	4781
3317.768	4734
3319.519	4772
3321.268	4892
3323.018	4653
3324.767	4727
3326.518	4681
3328.267	4784
3330.014	4677
3331.762	4734
3333.509	4684
3335.258	4658
3337.003	4709
3338.75	4755
3340.496	4677
3342.24	4700
3343.987	4717
3345.732	4715
3347.475	4733
3349.219	4634
3350.961	4634
3352.705	4676
3354.448	4694
3356.19	4681
3357.931	4661
3359.672	4668
3361.412	4570
3363.155	4637
3364.894	4619
3366.633	4639
3368.372	4696
3370.11	4568
3371.849	4579
3373.588	4642
3375.325	4586
3377.061	4617
3378.799	4524
3380.534	4617
3382.271	4505
3384.006	4600
3385.741	4472
3387.475	4604
3389.209	4473
3390.944	4485
3392.677	4543
3394.409	4478
3396.143	4441
3397.874	4515
3399.606	4516
3401.338	4511
3403.069	4509
3404.799	4606
3406.528	4566
3408.258	4479
3409.988	4549
3411.717	4510
3413.445	4452
3415.173	4530
3416.899	4590
3418.626	4532
3420.354	4484
3422.08	4483
3423.806	4423
3425.531	4513
3427.255	4496
3428.981	4505
3430.705	4416
3432.429	4456
3434.151	4455
3435.875	4479
3437.599	4429
3439.321	4443
3441.042	4474
3442.763	4524
3444.483	4490
3446.204	4401
3447.926	4412
3449.645	4379
3451.364	4379
3453.082	4351
3454.801	4308
3456.52	4450
3458.238	4255
3459.954	4355
3461.671	4361
3463.387	4350
3465.104	4390
3466.82	4281
3468.534	4395
3470.25	4259
3471.963	4293
3473.676	4313
3475.392	4283
3477.104	4283
3478.817	4316
3480.528	4357
3482.241	4341
3483.954	4393
3485.664	4200
3487.374	4326
3489.084	4277
3490.795	4264
3492.504	4275
3494.214	4170
3495.922	4186
3497.63	4157
3499.338	4219
3501.045	4244
3502.753	4260
3504.459	4128
3506.166	4266
3507.871	4241
3509.576	4221
3511.283	4168
3512.987	4171
3514.691	4159
3516.395	4285
3518.098	4221
3519.8	4226
3521.504	4205
3523.206	4165
3524.908	4206
3526.609	4097
3528.309	4080
3530.011	4148
3531.711	4166
3533.411	4163
3535.109	4002
3536.808	4103
3538.507	4165
3540.206	4190
3541.904	4132
3543.601	4180
3545.297	4171
3546.994	4223
3548.69	4188
3550.387	4059
3552.081	4070
3553.776	4061
3555.47	4039
3557.166	4032
3558.859	4106
3560.553	3968
3562.245	4115
3563.938	4135
3565.629	4030
3567.322	4025
3569.014	4023
3570.704	4039
3572.394	4123
3574.084	4052
3575.775	4000
3577.464	4123
3579.152	4047
3580.842	3947
3582.529	4086
3584.216	3999
3585.905	3979
3587.591	4019
3589.279	3897
3590.964	4049
3592.649	4050
3594.336	3978
3596.021	3925
3597.705	3965
3599.388	3974
3601.072	3961
3602.757	3920
3604.439	3943
3606.122	3911
3607.803	3979
3609.485	3957
3611.167	3950
3612.849	3939
3614.529	3960
3616.208	3903
3617.888	3878
3619.567	3887
3621.247	3997
3622.926	3886
3624.603	3955
3626.281	3948
3627.958	3838
3629.635	3882
3631.312	3896
3632.989	3860
3634.665	3830
3636.339	3857
3638.014	3849
3639.691	3831
3641.364	3861
3643.038	3821
3644.71	3700
3646.384	3795
3648.058	3831
3649.729	3770
3651.402	3788
3653.073	3744
3654.744	3726
3656.414	3834
3658.085	3721
3659.755	3791
3661.424	3834
3663.094	3806
3664.762	3834
3666.431	3769
3668.099	3802
3669.766	3760
3671.433	3789
3673.099	3682
3674.768	3768
3676.433	3713
3678.098	3755
3679.763	3819
3681.428	3719
3683.093	3782
3684.757	3765
3686.421	3688
3688.083	3737
3689.746	3663
3691.408	3692
3693.071	3757
3694.733	3599
3696.394	3730
3698.054	3727
3699.715	3708
3701.375	3756
3703.036	3648
3704.695	3715
3706.354	3621
3708.012	3705
3709.67	3636
3711.329	3623
3712.987	3650
3714.644	3660
3716.299	3653
3717.955	3728
3719.613	3624
3721.268	3666
3722.923	3652
3724.577	3733
3726.231	3697
3727.885	3624
3729.539	3692
3731.192	3685
3732.845	3639
3734.497	3662
3736.149	3618
3737.802	3727
3739.453	3746
3741.104	3606
3742.753	3554
3744.404	3689
3746.052	3562
3747.704	3593
3749.352	3569
3751	3690
3752.648	3632
3754.296	3641
3755.944	3578
3757.59	3656
3759.238	3564
3760.883	3613
3762.528	3632
3764.176	3597
3765.82	3541
3767.464	3559
3769.109	3587
3770.753	3630
3772.396	3487
3774.04	3581
3775.683	3504
3777.325	3555
3778.967	3546
3780.608	3554
3782.25	3620
3783.89	3554
3785.531	3551
3787.17	3481
3788.81	3465
3790.45	3602
3792.09	3497
3793.729	3508
3795.366	3546
3797.003	3544
3798.64	3491
3800.278	3555
3801.915	3537
3803.551	3461
3805.187	3466
3806.822	3572
3808.458	3521
3810.093	3546
3811.726	3500
3813.36	3467
3814.994	3453
3816.627	3541
3818.262	3541
3819.893	3447
3821.525	3479
3823.157	3421
3824.787	3524
3826.42	3446
3828.051	3385
3829.68	3482
3831.31	3396
3832.938	3370
3834.569	3365
3836.198	3437
3837.825	3352
3839.454	3351
3841.08	3422
3842.708	3401
3844.335	3376
3845.962	3463
3847.587	3369
3849.212	3452
3850.838	3334
3852.463	3379
3854.089	3409
3855.712	3426
3857.335	3374
3858.959	3336
3860.582	3424
3862.205	3322
3863.827	3354
3865.449	3392
3867.07	3286
3868.691	3249
3870.312	3332
3871.933	3350
3873.553	3380
3875.173	3374
3876.792	3362
3878.411	3324
3880.03	3327
3881.647	3348
3883.265	3275
3884.882	3296
3886.499	3237
3888.116	3350
3889.732	3325
3891.348	3309
3892.964	3299
3894.579	3333
3896.195	3337
3897.809	3347
3899.423	3254
3901.036	3290
3902.648	3385
3904.261	3311
3905.875	3304
3907.487	3316
3909.099	3250
3910.709	3318
3912.321	3333
3913.933	3269
3915.542	3368
3917.152	3332
3918.762	3250
3920.37	3232
3921.98	3262
3923.589	3286
3925.196	3219
3926.804	3293
3928.41	3278
3930.018	3283
3931.626	3270
3933.231	3249
3934.838	3292
3936.442	3253
3938.046	3224
3939.653	3255
3941.257	3222
3942.861	3209
3944.464	3281
3946.068	3280
3947.67	3269
3949.273	3223
3950.876	3175
3952.477	3261
3954.078	3184
3955.678	3179
3957.281	3218
3958.881	3171
3960.48	3203
3962.079	3206
3963.678	3173
3965.279	3228
3966.877	3178
3968.475	3236
3970.072	3239
3971.669	3110
3973.266	3185
3974.864	3190
3976.459	3185
3978.055	3175
3979.65	3164
3981.245	3078
3982.841	3192
3984.436	3189
3986.03	3169
3987.623	3138
3989.216	3143
3990.809	3158
3992.403	3190
3993.995	3130
3995.586	3170
3997.177	3108
3998.768	3056
4000.361	3169
4001.951	3079
4003.54	3075
4005.13	3155
4006.719	3103
4008.31	3058
4009.897	3093
4011.485	2996
4013.073	3090
4014.66	3108
4016.247	3073
4017.834	3016
4019.421	3139
4021.006	3095
4022.592	2998
4024.178	2997
4025.763	3025
4027.348	3064
4028.932	3034
4030.515	2971
4032.099	3024
4033.682	3040
4035.266	2992
4036.847	3022
4038.429	2976
4040.011	3051
4041.592	3029
4043.173	3022
4044.755	2989
4046.334	2942
4047.913	3001
4049.494	3009
4051.074	3000
4052.652	3041
4054.23	2971
4055.807	2980
4057.385	3003
4058.963	3026
4060.541	2961
4062.117	3000
4063.693	2897
4065.269	2981
4066.844	2974
4068.42	3026
4069.995	2930
4071.569	3040
4073.143	2880
4074.716	2948
4076.291	2902
4077.864	2914
4079.436	2890
4081.009	2913
4082.58	3005
4084.152	2990
4085.723	2859
4087.294	2934
4088.865	2917
4090.435	2895
4092.005	2900
4093.574	2939
4095.143	2873
4096.712	2887
4098.279	2918
4099.848	2924
4101.416	2908
4102.984	2940
4104.55	2862
4106.117	2888
4107.682	2919
4109.248	2848
4110.815	2861
4112.379	2855
4113.945	2851
4115.508	2893
4117.073	2814
4118.637	2870
4120.201	2833
4121.763	2881
4123.325	2875
4124.888	2878
4126.449	2841
4128.013	2772
4129.573	2833
4131.133	2833
4132.694	2794
4134.254	2852
4135.814	2890
4137.374	2794
4138.933	2816
4140.491	2799
4142.049	2800
4143.607	2805
4145.167	2790
4146.724	2782
4148.28	2782
4149.836	2769
4151.392	2857
4152.949	2779
4154.504	2739
4156.059	2774
4157.614	2822
4159.168	2775
4160.723	2776
4162.277	2732
4163.83	2791
4165.383	2720
4166.936	2701
4168.488	2716
4170.041	2730
4171.593	2759
4173.144	2741
4174.695	2734
4176.246	2742
4177.796	2748
4179.346	2724
4180.896	2835
4182.445	2730
4183.994	2701
4185.542	2762
4187.091	2687
4188.639	2728
4190.185	2724
4191.732	2730
4193.279	2689
4194.826	2758
4196.373	2694
4197.918	2709
4199.463	2668
4201.008	2685
4202.553	2693
4204.098	2727
4205.641	2641
4207.185	2706
4208.728	2680
4210.271	2687
4211.814	2710
4213.357	2715
4214.898	2607
4216.439	2602
4217.98	2660
4219.522	2671
4221.062	2646
4222.603	2597
4224.142	2615
4225.681	2597
4227.222	2623
4228.76	2602
4230.298	2635
4231.835	2625
4233.373	2571
4234.911	2680
4236.449	2622
4237.985	2609
4239.521	2642
4241.057	2623
4242.592	2633
4244.128	2673
4245.663	2654
4247.197	2668
4248.731	2659
4250.265	2563
4251.798	2590
4253.333	2639
4254.865	2617
4256.397	2645
4257.93	2595
4259.461	2541
4260.994	2587
4262.525	2596
4264.056	2587
4265.586	2584
4267.115	2582
4268.646	2585
4270.176	2544
4271.705	2568
4273.232	2605
4274.761	2569
4276.289	2556
4277.818	2600
4279.345	2566
4280.872	2569
4282.399	2526
4283.924	2576
4285.452	2610
4286.976	2563
4288.502	2491
4290.026	2558
4291.551	2447
4293.074	2525
4294.6	2535
4296.123	2518
4297.646	2491
4299.168	2511
4300.691	2471
4302.214	2520
4303.736	2443
4305.257	2468
4306.778	2514
4308.299	2539
4309.82	2478
4311.34	2565
4312.86	2465
4314.379	2517
