400.0745	3872
402.597	3891
405.1208	3912
407.6419	3856
410.1623	3889
412.6819	3968
415.201	3885
417.7172	4006
420.2369	3987
422.7538	4089
425.2701	4051
427.7856	4088
430.3005	4082
432.8147	4188
435.3282	4169
437.841	4167
440.3511	4059
442.8625	4230
445.3753	4132
447.8854	4122
450.3927	4125
452.9014	4151
455.4073	4164
457.9146	4278
460.4233	4102
462.9272	4174
465.4325	4197
467.935	4038
470.4389	4122
472.9421	4173
475.4446	4187
477.9444	4166
480.4456	4238
482.944	4189
485.4417	4239
487.9429	4211
490.4393	4207
492.935	4217
495.4321	4247
497.9264	4215
500.4221	4248
502.9171	4359
505.4094	4250
507.9011	4337
510.392	4276
512.8864	4302
515.3759	4314
517.8649	4416
520.3531	4285
522.8406	4357
525.3275	4267
527.8178	4361
530.3033	4363
532.7881	4224
535.2723	4342
537.7558	4276
540.2407	4401
542.7228	4350
545.2043	4390
547.6851	4367
550.1652	4254
552.6467	4394
555.1255	4371
557.6016	4294
560.079	4424
562.5557	4382
565.0318	4444
567.5092	4339
569.984	4408
572.456	4472
574.9294	4476
577.4022	4482
579.8762	4475
582.3456	4513
584.8163	4458
587.2863	4519
589.7557	4471
592.2224	4545
594.6924	4538
597.1578	4484
599.6245	4489
602.0905	4480
604.5538	4546
607.0206	4504
609.4825	4343
611.9459	4468
614.4066	4481
616.8686	4468
619.33	4464
621.7906	4524
624.2487	4414
626.708	4447
629.1647	4496
631.6207	4558
634.0801	4439
636.5348	4524
638.9888	4430
641.4442	4425
643.8969	4479
646.3509	4564
648.8022	4567
651.255	4495
653.705	4645
656.1544	4576
658.6031	4584
661.0532	4571
663.5026	4650
665.9493	4608
668.3954	4564
670.8409	4579
673.2877	4614
675.7318	4596
678.1752	4644
680.618	4560
683.0601	4644
685.5035	4600
687.9444	4707
690.3845	4740
692.824	4700
695.2628	4629
697.701	4639
700.1406	4726
702.5774	4705
705.0116	4629
707.4472	4652
709.8821	4672
712.3183	4742
714.7519	4698
717.1829	4746
719.6151	4761
722.0468	4767
724.4777	4752
726.908	4749
729.3377	4770
731.7667	4766
734.1931	4897
736.6208	4782
739.0498	4881
741.4742	4858
743.9	4920
746.3231	4987
748.7476	4865
751.1713	4912
753.5945	4887
756.015	4966
758.4368	4957
760.856	4997
763.2766	4946
765.6965	4919
768.1157	4931
770.5323	5041
772.9483	4937
775.3656	4971
777.7822	5010
780.1963	4973
782.6116	5045
785.0244	4945
787.4365	5039
789.8499	4926
792.2626	5112
794.6728	4970
797.0823	5009
799.4911	4954
801.8994	5062
804.3109	4929
806.7178	4996
809.124	5055
811.5297	5115
813.9347	5108
816.341	5107
818.7447	4983
821.1478	5074
823.5502	5189
825.952	5135
828.3531	5122
830.7556	5054
833.1554	5016
835.5546	4937
837.9532	5092
840.3511	5109
842.7504	5184
845.1451	5129
847.5411	5112
849.9365	5083
852.3312	5203
854.7272	5141
857.1187	5161
859.5115	5215
861.9037	5144
864.2952	5120
866.6842	5127
869.0764	5097
871.4661	5237
873.8531	5198
876.2415	5129
878.6272	5145
881.0162	5115
883.4026	5096
885.7866	5231
888.1717	5189
890.5543	5164
892.9382	5070
895.3215	5167
897.7041	5116
900.0842	5258
902.4655	5100
904.8443	5098
907.2244	5102
909.6039	5158
911.9808	5187
914.357	5271
916.7346	5180
919.1115	5208
921.4859	5249
923.8616	5426
926.2347	5392
928.6071	5363
930.979	5437
933.3541	5367
935.7247	5274
938.0946	5498
940.4639	5489
942.8326	5523
945.2026	5507
947.5701	5644
949.9369	5748
952.305	5805
954.6705	6038
957.0355	6087
959.4017	6265
961.7654	6333
964.1284	6378
966.4908	6173
968.8527	6046
971.2138	5747
973.5743	5669
975.9343	5551
978.2936	5445
980.6522	5389
983.0122	5366
985.3696	5323
987.7245	5284
990.0807	5359
992.4362	5347
994.7911	5440
997.1474	5342
999.4991	5295
1001.852	5319
1004.205	5385
1006.555	5328
1008.908	5400
1011.258	5295
1013.606	5428
1015.956	5351
1018.302	5444
1020.652	5372
1022.998	5225
1025.345	5428
1027.691	5350
1030.035	5350
1032.378	5424
1034.724	5425
1037.066	5460
1039.409	5594
1041.75	5416
1044.092	5485
1046.433	5408
1048.771	5349
1051.112	5477
1053.449	5437
1055.786	5511
1058.124	5416
1060.462	5448
1062.797	5549
1065.131	5342
1067.467	5523
1069.8	5614
1072.135	5520
1074.467	5526
1076.798	5491
1079.129	5522
1081.459	5489
1083.792	5492
1086.121	5442
1088.449	5470
1090.777	5459
1093.104	5406
1095.431	5501
1097.759	5415
1100.084	5557
1102.408	5354
1104.732	5442
1107.056	5503
1109.379	5451
1111.701	5509
1114.022	5428
1116.343	5405
1118.664	5505
1120.983	5595
1123.303	5479
1125.621	5480
1127.939	5578
1130.256	5506
1132.573	5538
1134.889	5518
1137.205	5498
1139.52	5466
1141.832	5513
1144.146	5450
1146.461	5495
1148.771	5483
1151.083	5442
1153.392	5516
1155.703	5422
1158.011	5387
1160.323	5547
1162.629	5478
1164.938	5479
1167.243	5527
1169.55	5389
1171.857	5479
1174.163	5506
1176.466	5533
1178.769	5457
1181.073	5545
1183.374	5556
1185.677	5564
1187.979	5513
1190.279	5498
1192.578	5352
1194.878	5487
1197.178	5435
1199.476	5449
1201.772	5473
1204.068	5401
1206.366	5509
1208.663	5457
1210.957	5511
1213.251	5532
1215.544	5550
1217.836	5553
1220.128	5490
1222.421	5521
1224.712	5545
1227.002	5512
1229.292	5571
1231.581	5709
1233.871	5703
1236.159	5605
1238.446	5600
1240.732	5732
1243.018	5726
1245.304	5709
1247.59	5555
1249.874	5638
1252.156	5648
1254.439	5684
1256.721	5565
1259.005	5699
1261.286	5638
1263.565	5689
1265.845	5706
1268.125	5701
1270.403	5758
1272.682	5681
1274.959	5698
1277.234	5664
1279.511	5638
1281.787	5560
1284.062	5642
1286.337	5732
1288.609	5633
1290.882	5567
1293.153	5594
1295.428	5606
1297.698	5671
1299.969	5652
1302.237	5649
1304.507	5688
1306.777	5637
1309.044	5634
1311.312	5568
1313.578	5495
1315.844	5571
1318.109	5572
1320.375	5489
1322.638	5588
1324.903	5581
1327.165	5513
1329.427	5543
1331.69	5668
1333.952	5568
1336.212	5546
1338.471	5598
1340.73	5606
1342.988	5600
1345.248	5674
1347.505	5590
1349.763	5581
1352.019	5606
1354.274	5574
1356.53	5588
1358.784	5625
1361.038	5570
1363.291	5555
1365.543	5600
1367.797	5688
1370.048	5651
1372.296	5668
1374.546	5680
1376.796	5622
1379.045	5733
1381.295	5681
1383.542	5608
1385.787	5704
1388.034	5674
1390.28	5692
1392.527	5743
1394.772	5738
1397.014	5767
1399.258	5721
1401.501	5702
1403.741	5737
1405.985	5702
1408.226	5591
1410.465	5618
1412.705	5601
1414.943	5749
1417.184	5825
1419.42	5739
1421.658	5794
1423.894	5736
1426.13	5790
1428.366	5742
1430.602	5645
1432.835	5753
1435.069	5758
1437.301	5785
1439.535	5811
1441.767	5840
1443.997	5766
1446.229	5918
1448.458	5842
1450.687	5896
1452.916	5732
1455.146	5840
1457.372	5963
1459.599	5754
1461.824	5893
1464.051	5759
1466.277	5958
1468.501	5881
1470.725	5763
1472.948	5734
1475.17	5727
1477.393	5784
1479.614	5690
1481.837	5706
1484.057	5706
1486.276	5524
1488.497	5713
1490.715	5683
1492.932	5638
1495.148	5666
1497.364	5595
1499.58	5615
1501.798	5556
1504.012	5649
1506.227	5484
1508.44	5745
1510.653	5656
1512.866	5580
1515.078	5592
1517.289	5561
1519.5	5565
1521.711	5550
1523.92	5614
1526.13	5654
1528.338	5695
1530.544	5605
1532.752	5633
1534.959	5665
1537.165	5594
1539.371	5726
1541.574	5596
1543.779	5570
1545.983	5620
1548.187	5542
1550.39	5686
1552.59	5712
1554.792	5612
1556.991	5689
1559.19	5725
1561.392	5701
1563.59	5688
1565.789	5708
1567.986	5773
1570.182	5722
1572.381	5655
1574.576	5784
1576.771	5636
1578.966	5735
1581.16	5751
1583.354	5784
1585.546	5692
1587.74	5778
1589.931	5812
1592.121	5891
1594.311	5753
1596.502	5704
1598.693	5777
1600.881	5719
1603.069	5780
1605.256	5804
1607.445	5746
1609.631	5784
1611.816	5831
1614.001	5919
1616.186	5758
1618.37	5810
1620.555	5846
1622.737	5865
1624.919	5835
1627.101	5796
1629.282	5850
1631.463	5885
1633.643	5825
1635.822	5725
1638.001	5854
1640.179	5778
1642.359	5839
1644.534	5901
1646.711	6016
1648.887	5762
1651.062	5896
1653.235	5775
1655.412	5828
1657.586	5684
1659.757	5904
1661.93	5875
1664.1	5752
1666.274	5869
1668.445	5864
1670.614	5920
1672.784	5848
1674.951	5840
1677.12	5764
1679.289	5865
1681.457	5894
1683.622	5860
1685.789	5935
1687.953	5762
1690.121	5744
1692.284	5851
1694.447	5752
1696.611	5797
1698.772	5775
1700.935	5720
1703.098	5754
1705.258	5744
1707.417	5843
1709.576	5731
1711.736	5769
1713.896	5596
1716.053	5791
1718.21	5801
1720.366	5785
1722.522	5817
1724.68	5796
1726.835	5800
1728.989	5738
1731.142	5685
1733.295	5761
1735.449	5720
1737.601	5667
1739.753	5754
1741.903	5686
1744.054	5721
1746.203	5863
1748.354	5806
1750.503	5755
1752.651	5747
1754.798	5776
1756.944	5718
1759.092	5865
1761.238	5833
1763.383	5756
1765.528	5810
1767.672	5716
1769.814	5751
1771.959	5771
1774.102	5820
1776.242	5639
1778.384	5770
1780.525	5808
1782.665	5797
1784.805	5822
1786.945	5789
1789.082	5754
1791.22	5808
1793.36	5841
1795.495	5756
1797.632	5883
1799.766	5845
1801.902	5806
1804.035	5795
1806.172	5838
1808.304	5762
1810.436	5810
1812.569	5761
1814.699	5687
1816.833	5717
1818.963	5795
1821.092	5788
1823.222	5857
1825.35	5717
1827.478	5762
1829.608	5876
1831.734	5669
1833.86	5750
1835.986	5832
1838.11	5788
1840.238	5753
1842.362	5760
1844.485	5755
1846.608	5730
1848.73	5698
1850.853	5723
1852.974	5774
1855.097	5653
1857.217	5708
1859.336	5691
1861.455	5853
1863.576	5704
1865.693	5735
1867.811	5674
1869.926	5792
1872.042	5724
1874.16	5706
1876.275	5699
1878.39	5705
1880.504	5732
1882.618	5907
1884.731	5646
1886.843	5780
1888.956	5749
1891.067	5740
1893.178	5811
1895.287	5680
1897.399	5765
1899.508	5795
1901.617	5776
1903.724	5685
1905.832	5756
1907.941	5829
1910.046	5716
1912.152	5841
1914.256	5828
1916.361	5756
1918.464	5790
1920.57	5855
1922.672	5739
1924.775	5773
1926.876	5837
1928.978	5844
1931.08	5843
1933.181	5704
1935.28	5804
1937.38	5817
1939.478	5797
1941.577	5859
1943.675	5833
1945.771	5848
1947.867	5819
1949.964	5805
1952.058	5834
1954.154	5722
1956.248	5794
1958.343	5736
1960.435	5817
1962.527	5861
1964.62	5720
1966.711	5742
1968.802	5764
1970.892	5755
1972.983	5696
1975.072	5735
1977.162	5865
1979.25	5680
1981.337	5863
1983.424	5841
1985.51	5774
1987.598	5780
1989.683	5738
1991.768	5734
1993.852	5820
1995.934	5696
1998.019	5771
2000.102	5735
2002.184	5748
2004.266	5693
2006.347	5653
2008.427	5649
2010.508	5789
2012.587	5737
2014.666	5788
2016.745	5769
2018.821	5759
2020.9	5729
2022.977	5712
2025.052	5821
2027.128	5673
2029.204	5775
2031.277	5773
2033.353	5628
2035.425	5697
2037.499	5614
2039.57	5733
2041.642	5680
2043.714	5729
2045.786	5684
2047.855	5587
2049.925	5708
2051.993	5683
2054.064	5751
2056.132	5763
2058.2	5805
2060.266	5711
2062.332	5776
2064.398	5846
2066.465	5623
2068.529	5730
2070.592	5811
2072.657	5801
2074.719	5790
2076.783	5764
2078.845	5759
2080.907	5763
2082.968	5620
2085.028	5758
2087.087	5698
2089.148	5708
2091.207	5756
2093.264	5785
2095.322	5707
2097.379	5622
2099.439	5739
2101.495	5781
2103.55	5764
2105.605	5737
2107.658	5760
2109.713	5604
2111.767	5670
2113.82	5714
2115.872	5771
2117.924	5700
2119.975	5652
2122.028	5722
2124.078	5859
2126.126	5746
2128.176	5736
2130.225	5677
2132.275	5705
2134.321	5738
2136.368	5751
2138.415	5799
2140.461	5707
2142.505	5717
2144.552	5712
2146.597	5605
2148.64	5711
2150.684	5629
2152.725	5678
2154.77	5655
2156.811	5720
2158.852	5549
2160.894	5583
2162.933	5551
2164.973	5651
2167.013	5558
2169.051	5677
2171.089	5661
2173.126	5542
2175.164	5704
2177.201	5709
2179.236	5493
2181.273	5659
2183.307	5531
2185.341	5613
2187.377	5613
2189.41	5597
2191.442	5580
2193.473	5615
2195.506	5600
2197.539	5595
2199.569	5579
2201.598	5579
2203.628	5633
2205.656	5602
2207.686	5503
2209.716	5493
2211.743	5590
2213.769	5588
2215.796	5609
2217.821	5498
2219.848	5563
2221.873	5536
2223.897	5469
2225.921	5494
2227.944	5561
2229.967	5586
2231.991	5449
2234.011	5552
2236.032	5633
2238.053	5483
2240.073	5501
2242.094	5490
2244.114	5667
2246.131	5575
2248.149	5462
2250.167	5527
2252.186	5433
2254.201	5486
2256.218	5604
2258.233	5534
2260.247	5623
2262.262	5465
2264.278	5576
2266.29	5465
2268.303	5496
2270.315	5549
2272.327	5571
2274.341	5570
2276.35	5522
2278.361	5561
2280.37	5449
2282.38	5548
2284.388	5480
2286.397	5536
2288.405	5530
2290.412	5542
2292.419	5531
2294.425	5449
2296.431	5448
2298.437	5505
2300.441	5536
2302.445	5563
2304.449	5403
2306.453	5596
2308.455	5502
2310.457	5545
2312.459	5602
2314.46	5460
2316.46	5413
2318.461	5468
2320.46	5445
2322.458	5466
2324.458	5492
2326.456	5422
2328.455	5531
2330.451	5421
2332.447	5460
2334.443	5512
2336.438	5445
2338.433	5523
2340.429	5455
2342.422	5432
2344.416	5322
2346.408	5514
2348.399	5437
2350.393	5384
2352.384	5497
2354.375	5409
2356.365	5406
2358.355	5421
2360.344	5360
2362.333	5370
2364.322	5308
2366.309	5307
2368.295	5313
2370.282	5358
2372.27	5457
2374.256	5374
2376.24	5499
2378.225	5438
2380.208	5352
2382.194	5319
2384.177	5411
2386.159	5435
2388.142	5323
2390.122	5398
2392.105	5326
2394.085	5436
2396.066	5315
2398.044	5393
2400.024	5287
2402.002	5303
2403.982	5271
2405.959	5341
2407.935	5312
2409.913	5233
2411.888	5300
2413.865	5309
2415.84	5329
2417.814	5241
2419.788	5398
2421.762	5272
2423.735	5289
2425.708	5371
2427.68	5366
2429.651	5390
2431.623	5325
2433.593	5341
2435.564	5391
2437.533	5321
2439.502	5396
2441.47	5348
2443.438	5355
2445.406	5305
2447.373	5295
2449.34	5328
2451.305	5310
2453.271	5248
2455.235	5267
2457.201	5379
2459.165	5256
2461.129	5310
2463.092	5340
2465.054	5284
2467.018	5344
2468.978	5284
2470.939	5276
2472.899	5217
2474.86	5223
2476.819	5223
2478.778	5255
2480.737	5256
2482.695	5234
2484.653	5371
2486.609	5259
2488.567	5270
2490.524	5243
2492.478	5251
2494.433	5352
2496.387	5150
2498.343	5268
2500.297	5154
2502.249	5236
2504.202	5235
2506.153	5208
2508.105	5238
2510.057	5186
2512.008	5316
2513.957	5236
2515.906	5207
2517.855	5250
2519.805	5179
2521.754	5273
2523.7	5184
2525.647	5231
2527.594	5133
2529.54	5256
2531.486	5145
2533.431	5286
2535.376	5257
2537.32	5203
2539.263	5115
2541.207	5102
2543.151	5245
2545.093	5166
2547.034	5141
2548.975	5112
2550.917	5202
2552.856	5180
2554.796	5085
2556.735	5185
2558.673	5214
2560.611	5182
2562.55	5130
2564.487	5213
2566.424	5211
2568.36	5193
2570.296	5124
2572.232	5183
2574.167	5206
2576.101	5122
2578.035	5176
2579.969	5121
2581.902	5140
2583.834	5119
2585.766	5044
2587.698	5241
2589.628	5165
2591.557	5188
2593.489	5168
2595.419	5246
2597.348	5170
2599.275	5151
2601.204	5210
2603.131	5216
2605.059	5017
2606.986	5213
2608.911	5249
2610.837	5100
2612.76	5122
2614.687	5169
2616.61	5079
2618.534	5175
2620.457	5191
2622.38	5098
2624.302	5235
2626.225	5134
2628.145	5272
2630.067	5199
2631.986	5131
2633.906	5119
2635.827	5164
2637.745	5138
2639.662	5208
2641.581	5184
2643.498	5251
2645.415	5083
2647.331	5141
2649.248	5167
2651.163	5086
2653.077	5196
2654.993	5105
2656.906	5071
2658.821	5196
2660.733	5148
2662.646	5074
2664.557	5188
2666.47	5173
2668.381	5087
2670.291	5181
2672.201	5189
2674.11	5088
2676.021	5110
2677.929	5094
2679.837	5109
2681.745	5045
2683.652	5153
2685.56	5097
2687.466	5139
2689.371	5145
2691.276	5080
2693.181	5120
2695.085	5106
2696.991	4991
2698.893	5117
2700.796	5037
2702.698	5009
2704.601	5103
2706.502	5170
2708.404	4991
2710.304	5045
2712.203	5031
2714.103	5038
2716.003	5042
2717.902	5105
2719.8	5071
2721.697	4967
2723.594	5008
2725.49	5065
2727.389	5055
2729.283	5100
2731.179	5006
2733.073	4942
2734.968	4994
2736.863	5034
2738.757	5111
2740.649	5023
2742.541	5034
2744.433	4987
2746.324	4935
2748.216	4895
2750.107	5112
2751.997	4973
2753.886	5016
2755.776	5016
2757.666	4992
2759.553	4975
2761.44	5043
2763.327	4948
2765.215	4942
2767.102	4972
2768.988	4893
2770.873	5062
2772.757	5022
2774.641	4943
2776.525	5112
2778.41	4962
2780.292	4958
2782.175	4909
2784.057	5002
2785.938	5001
2787.821	4894
2789.701	4924
2791.581	4949
2793.461	4899
2795.34	4960
2797.219	4985
2799.099	4845
2800.975	4995
2802.853	4951
2804.73	4893
2806.606	4912
2808.484	4998
2810.358	4840
2812.233	4930
2814.108	4914
2815.981	4978
2817.857	4933
2819.73	4899
2821.602	4940
2823.474	4880
2825.346	4900
2827.217	4915
2829.089	4846
2830.959	4857
2832.829	4873
2834.698	4896
2836.567	4900
2838.436	4881
2840.305	4892
2842.172	4920
2844.04	4849
2845.905	4970
2847.772	4950
2849.639	4955
2851.503	4964
2853.369	4968
2855.232	4893
2857.096	4903
2858.961	4962
2860.824	5037
2862.686	4831
2864.547	4968
2866.41	5016
2868.272	5026
2870.132	5160
2871.992	5062
2873.851	5064
2875.711	5099
2877.57	5150
2879.429	5149
2881.287	5222
2883.144	5063
2885.001	5194
2886.857	5163
2888.714	5217
2890.57	5220
2892.425	5157
2894.279	5224
2896.133	5256
2897.987	5222
2899.842	5172
2901.694	5138
2903.547	5245
2905.397	5193
2907.249	5160
2909.101	5070
2910.952	5116
2912.802	5243
2914.652	5264
2916.5	5224
2918.35	5244
2920.198	5254
2922.045	5396
2923.893	5428
2925.74	5376
2927.585	5412
2929.433	5321
2931.279	5391
2933.123	5460
2934.968	5557
2936.811	5525
2938.656	5593
2940.5	5554
2942.342	5509
2944.185	5567
2946.026	5546
2947.87	5564
2949.71	5632
2951.549	5495
2953.39	5585
2955.229	5508
2957.069	5499
2958.908	5446
2960.746	5357
2962.584	5386
2964.421	5372
2966.257	5293
2968.094	5257
2969.931	5336
2971.766	5315
2973.601	5150
2975.435	5204
2977.27	5161
2979.105	5184
2980.938	5147
2982.77	5125
2984.602	5149
2986.434	5124
2988.267	5159
2990.097	5044
2991.927	5063
2993.757	5034
2995.587	5060
2997.417	4880
2999.246	4993
3001.074	4952
3002.902	4887
3004.729	4838
3006.556	4881
3008.384	4816
3010.21	4773
3012.036	4803
3013.861	4785
3015.684	4717
3017.51	4718
3019.334	4726
3021.157	4586
3022.981	4648
3024.802	4560
3026.624	4754
3028.448	4702
3030.267	4657
3032.088	4572
3033.909	4589
3035.728	4582
3037.549	4554
3039.368	4631
3041.186	4653
3043.004	4579
3044.821	4535
3046.64	4584
3048.455	4573
3050.272	4457
3052.087	4596
3053.903	4541
3055.717	4501
3057.534	4579
3059.347	4650
3061.16	4441
3062.974	4577
3064.785	4625
3066.598	4497
3068.411	4603
3070.222	4621
3072.032	4518
3073.844	4551
3075.653	4574
3077.463	4452
3079.272	4524
3081.08	4520
3082.889	4543
3084.697	4466
3086.505	4503
3088.312	4517
3090.118	4431
3091.924	4373
3093.729	4360
3095.535	4383
3097.34	4394
3099.144	4492
3100.947	4425
3102.75	4392
3104.553	4364
3106.357	4444
3108.159	4497
3109.961	4440
3111.762	4327
3113.562	4458
3115.365	4420
3117.164	4472
3118.964	4434
3120.761	4476
3122.56	4384
3124.36	4318
3126.158	4361
3127.954	4384
3129.75	4374
3131.547	4405
3133.343	4388
3135.139	4361
3136.934	4307
3138.729	4338
3140.522	4244
3142.317	4391
3144.11	4287
3145.904	4275
3147.695	4293
3149.488	4412
3151.28	4302
3153.07	4321
3154.863	4311
3156.652	4267
3158.441	4281
3160.231	4334
3162.019	4332
3163.81	4254
3165.597	4350
3167.384	4230
3169.172	4204
3170.958	4236
3172.745	4188
3174.532	4215
3176.317	4252
3178.101	4252
3179.885	4328
3181.67	4239
3183.455	4243
3185.238	4243
3187.02	4262
3188.802	4233
3190.585	4260
3192.368	4243
3194.149	4214
3195.929	4241
3197.709	4235
3199.489	4282
3201.268	4213
3203.048	4295
3204.826	4253
3206.604	4203
3208.382	4239
3210.159	4217
3211.937	4191
3213.713	4241
3215.489	4206
3217.263	4192
3219.038	4213
3220.815	4154
3222.589	4196
3224.363	4159
3226.136	4256
3227.908	4234
3229.681	4078
3231.454	4168
3233.226	4116
3234.996	4219
3236.767	4232
3238.538	4135
3240.308	4106
3242.078	4198
3243.847	4109
3245.615	4254
3247.384	4204
3249.15	4175
3250.92	4190
3252.686	4230
3254.453	4184
3256.218	4165
3257.984	4148
3259.75	4185
3261.515	4169
3263.279	4210
3265.044	4206
3266.806	4115
3268.57	4204
3270.334	4151
3272.095	4065
3273.856	4217
3275.619	4157
3277.379	4165
3279.14	4153
3280.9	4135
3282.661	4177
3284.419	4097
3286.178	4095
3287.937	4168
3289.695	4061
3291.453	4190
3293.21	4170
3294.967	4195
3296.723	4077
3298.48	4107
3300.235	4104
3301.99	4078
3303.744	4161
3305.498	4133
3307.253	4066
3309.006	4161
3310.759	4139
3312.511	4100
3314.263	4259
3316.017	4062
3317.768	4118
3319.519	4105
3321.268	4066
3323.018	4147
3324.767	4080
3326.518	4055
3328.267	4046
3330.014	4170
3331.762	4043
3333.509	4167
3335.258	4131
3337.003	4111
3338.75	4118
3340.496	4024
3342.24	4094
3343.987	4090
3345.732	4046
3347.475	4026
3349.219	4096
3350.961	4078
3352.705	4094
3354.448	4083
3356.19	4084
3357.931	4166
3359.672	4108
3361.412	4022
3363.155	4036
3364.894	4128
3366.633	4008
3368.372	3996
3370.11	4056
3371.849	4020
3373.588	4003
3375.325	4046
3377.061	4008
3378.799	3982
3380.534	4145
3382.271	4003
3384.006	4017
3385.741	4063
3387.475	4029
3389.209	4063
3390.944	4013
3392.677	3934
3394.409	3973
3396.143	3953
3397.874	3990
3399.606	3872
3401.338	4007
3403.069	3967
3404.799	3976
3406.528	3965
3408.258	3962
3409.988	3929
3411.717	3938
3413.445	3973
3415.173	3966
3416.899	4028
3418.626	4029
3420.354	3989
3422.08	3913
3423.806	3970
3425.531	3902
3427.255	3960
3428.981	3985
3430.705	3954
3432.429	3906
3434.151	3859
3435.875	3981
3437.599	3914
3439.321	3850
3441.042	3989
3442.763	3906
3444.483	3845
3446.204	3853
3447.926	3924
3449.645	3820
3451.364	3784
3453.082	3814
3454.801	3881
3456.52	3779
3458.238	3863
3459.954	3812
3461.671	3836
3463.387	3862
3465.104	3753
3466.82	3821
3468.534	3768
3470.25	3783
3471.963	3764
3473.676	3842
3475.392	3799
3477.104	3776
3478.817	3748
3480.528	3723
3482.241	3733
3483.954	3688
3485.664	3756
3487.374	3748
3489.084	3788
3490.795	3783
3492.504	3805
3494.214	3797
3495.922	3696
3497.63	3678
3499.338	3720
3501.045	3693
3502.753	3756
3504.459	3691
3506.166	3661
3507.871	3709
3509.576	3687
3511.283	3732
3512.987	3664
3514.691	3699
3516.395	3722
3518.098	3682
3519.8	3697
3521.504	3687
3523.206	3762
3524.908	3667
3526.609	3665
3528.309	3690
3530.011	3665
3531.711	3664
3533.411	3684
3535.109	3653
3536.808	3661
3538.507	3572
3540.206	3576
3541.904	3558
3543.601	3581
3545.297	3579
3546.994	3585
3548.69	3609
3550.387	3598
3552.081	3584
3553.776	3638
3555.47	3628
3557.166	3557
3558.859	3649
3560.553	3505
3562.245	3632
3563.938	3626
3565.629	3593
3567.322	3522
3569.014	3556
3570.704	3625
3572.394	3608
3574.084	3551
3575.775	3588
3577.464	3557
3579.152	3513
3580.842	3449
3582.529	3544
3584.216	3504
3585.905	3502
3587.591	3489
3589.279	3548
3590.964	3576
3592.649	3461
3594.336	3479
3596.021	3559
3597.705	3498
3599.388	3513
3601.072	3432
3602.757	3457
3604.439	3496
3606.122	3432
3607.803	3517
3609.485	3434
3611.167	3407
3612.849	3494
3614.529	3443
3616.208	3397
3617.888	3442
3619.567	3460
3621.247	3444
3622.926	3444
3624.603	3434
3626.281	3439
3627.958	3399
3629.635	3409
3631.312	3352
3632.989	3371
3634.665	3336
3636.339	3439
3638.014	3387
3639.691	3351
3641.364	3354
3643.038	3401
3644.71	3321
3646.384	3329
3648.058	3351
3649.729	3396
3651.402	3307
3653.073	3411
3654.744	3277
3656.414	3386
3658.085	3387
3659.755	3306
3661.424	3322
3663.094	3368
3664.762	3363
3666.431	3369
3668.099	3317
3669.766	3357
3671.433	3262
3673.099	3376
3674.768	3324
3676.433	3304
3678.098	3309
3679.763	3289
3681.428	3314
3683.093	3354
3684.757	3286
3686.421	3274
3688.083	3258
3689.746	3283
3691.408	3345
3693.071	3309
3694.733	3282
3696.394	3268
3698.054	3311
3699.715	3335
3701.375	3300
3703.036	3363
3704.695	3299
3706.354	3289
3708.012	3296
3709.67	3261
3711.329	3138
3712.987	3219
3714.644	3173
3716.299	3242
3717.955	3188
3719.613	3301
3721.268	3229
3722.923	3225
3724.577	3245
3726.231	3248
3727.885	3294
3729.539	3262
3731.192	3228
3732.845	3243
3734.497	3220
3736.149	3306
3737.802	3233
3739.453	3288
3741.104	3216
3742.753	3205
3744.404	3177
3746.052	3199
3747.704	3192
3749.352	3218
3751	3237
3752.648	3153
3754.296	3147
3755.944	3144
3757.59	3173
3759.238	3213
3760.883	3228
3762.528	3187
3764.176	3170
3765.82	3197
3767.464	3126
3769.109	3120
3770.753	3160
3772.396	3103
3774.04	3189
3775.683	3165
3777.325	3163
3778.967	3076
3780.608	3142
3782.25	3144
3783.89	3170
3785.531	3077
3787.17	3080
3788.81	3118
3790.45	3155
3792.09	3102
3793.729	3104
3795.366	3104
3797.003	3154
3798.64	3084
3800.278	3133
3801.915	3094
3803.551	3104
3805.187	3036
3806.822	3057
3808.458	3068
3810.093	3060
3811.726	3095
3813.36	3162
3814.994	3027
3816.627	3061
3818.262	3024
3819.893	3044
3821.525	3042
3823.157	3005
3824.787	3068
3826.42	3006
3828.051	3070
3829.68	3101
3831.31	2982
3832.938	3071
3834.569	3046
3836.198	3041
3837.825	3052
3839.454	3018
3841.08	3019
3842.708	3028
3844.335	3036
3845.962	3079
3847.587	2980
3849.212	3035
3850.838	3005
3852.463	3056
3854.089	3037
3855.712	2977
3857.335	2979
3858.959	2949
3860.582	2992
3862.205	3005
3863.827	2984
3865.449	2961
3867.07	3024
3868.691	3089
3870.312	2975
3871.933	2961
3873.553	2924
3875.173	3010
3876.792	2906
3878.411	2930
3880.03	3055
3881.647	3012
3883.265	2957
3884.882	2965
3886.499	2936
3888.116	2916
3889.732	2897
3891.348	2974
3892.964	2933
3894.579	2889
3896.195	2882
3897.809	2916
3899.423	3038
3901.036	2879
3902.648	2880
3904.261	2996
3905.875	2974
3907.487	2968
3909.099	2907
3910.709	2932
3912.321	2964
3913.933	2889
3915.542	2885
3917.152	2924
3918.762	2899
3920.37	2898
3921.98	2904
3923.589	2961
3925.196	2897
3926.804	2938
3928.41	2934
3930.018	2917
3931.626	2900
3933.231	2897
3934.838	2894
3936.442	2870
3938.046	2933
3939.653	2906
3941.257	2851
3942.861	2878
3944.464	2788
3946.068	2924
3947.67	2890
3949.273	2896
3950.876	2870
3952.477	2933
3954.078	2931
3955.678	2804
3957.281	2831
3958.881	2857
3960.48	2865
3962.079	2826
3963.678	2776
3965.279	2860
3966.877	2786
3968.475	2859
3970.072	2850
3971.669	2848
3973.266	2834
3974.864	2865
3976.459	2804
3978.055	2751
3979.65	2859
3981.245	2724
3982.841	2856
3984.436	2868
3986.03	2805
3987.623	2776
3989.216	2798
3990.809	2880
3992.403	2794
3993.995	2755
3995.586	2796
3997.177	2753
3998.768	2818
4000.361	2758
4001.951	2809
4003.54	2725
4005.13	2730
4006.719	2741
4008.31	2725
4009.897	2701
4011.485	2700
4013.073	2758
4014.66	2722
4016.247	2721
4017.834	2714
4019.421	2742
4021.006	2741
4022.592	2715
4024.178	2744
4025.763	2679
4027.348	2697
4028.932	2723
4030.515	2666
4032.099	2691
4033.682	2605
4035.266	2680
4036.847	2688
4038.429	2672
4040.011	2693
4041.592	2650
4043.173	2738
4044.755	2673
4046.334	2703
4047.913	2620
4049.494	2580
4051.074	2652
4052.652	2706
4054.23	2695
4055.807	2609
4057.385	2616
4058.963	2598
4060.541	2658
4062.117	2671
4063.693	2626
4065.269	2596
4066.844	2558
4068.42	2637
4069.995	2679
4071.569	2616
4073.143	2652
4074.716	2584
4076.291	2676
4077.864	2606
4079.436	2599
4081.009	2599
4082.58	2671
4084.152	2651
4085.723	2608
4087.294	2620
4088.865	2559
4090.435	2597
4092.005	2631
4093.574	2614
4095.143	2569
4096.712	2583
4098.279	2633
4099.848	2628
4101.416	2538
4102.984	2559
4104.55	2599
4106.117	2559
4107.682	2587
4109.248	2556
4110.815	2575
4112.379	2555
4113.945	2528
4115.508	2552
4117.073	2585
4118.637	2511
4120.201	2465
4121.763	2624
4123.325	2542
4124.888	2470
4126.449	2549
4128.013	2484
4129.573	2512
4131.133	2525
4132.694	2479
4134.254	2499
4135.814	2518
4137.374	2487
4138.933	2446
4140.491	2558
4142.049	2521
4143.607	2451
4145.167	2499
4146.724	2478
4148.28	2447
4149.836	2548
4151.392	2482
4152.949	2406
4154.504	2495
4156.059	2419
4157.614	2448
4159.168	2393
4160.723	2449
4162.277	2451
4163.83	2467
4165.383	2476
4166.936	2477
4168.488	2468
4170.041	2393
4171.593	2466
4173.144	2418
4174.695	2435
4176.246	2442
4177.796	2464
4179.346	2461
4180.896	2505
4182.445	2461
4183.994	2424
4185.542	2422
4187.091	2437
4188.639	2444
4190.185	2422
4191.732	2409
4193.279	2451
4194.826	2442
4196.373	2394
4197.918	2404
4199.463	2386
4201.008	2363
4202.553	2395
4204.098	2367
4205.641	2325
4207.185	2424
4208.728	2354
4210.271	2420
4211.814	2344
4213.357	2345
4214.898	2337
4216.439	2367
4217.98	2403
4219.522	2339
4221.062	2332
4222.603	2334
4224.142	2395
4225.681	2377
4227.222	2302
4228.76	2355
4230.298	2317
4231.835	2278
4233.373	2330
4234.911	2312
4236.449	2348
4237.985	2327
4239.521	2346
4241.057	2406
4242.592	2354
4244.128	2338
4245.663	2314
4247.197	2335
4248.731	2312
4250.265	2355
4251.798	2340
4253.333	2365
4254.865	2300
4256.397	2359
4257.93	2332
4259.461	2353
4260.994	2363
4262.525	2323
4264.056	2293
4265.586	2346
4267.115	2331
4268.646	2310
4270.176	2361
4271.705	2300
4273.232	2303
4274.761	2253
4276.289	2287
4277.818	2352
4279.345	2306
4280.872	2289
4282.399	2355
4283.924	2289
4285.452	2225
4286.976	2293
4288.502	2267
4290.026	2251
4291.551	2265
4293.074	2326
4294.6	2266
4296.123	2265
4297.646	2219
4299.168	2249
4300.691	2289
4302.214	2279
4303.736	2235
4305.257	2258
4306.778	2265
4308.299	2282
4309.82	2287
4311.34	2239
4312.86	2285
4314.379	2237
