400.0745	3830
402.597	3844
405.1208	3866
407.6419	3866
410.1623	3852
412.6819	3893
415.201	3865
417.7172	3943
420.2369	3949
422.7538	3987
425.2701	4001
427.7856	4015
430.3005	3990
432.8147	4039
435.3282	4084
437.841	4089
440.3511	4040
442.8625	4118
445.3753	4134
447.8854	4107
450.3927	4119
452.9014	4047
455.4073	4134
457.9146	4043
460.4233	4044
462.9272	4131
465.4325	4181
467.935	4121
470.4389	4146
472.9421	4093
475.4446	4207
477.9444	4080
480.4456	4220
482.944	4216
485.4417	4102
487.9429	4219
490.4393	4180
492.935	4243
495.4321	4264
497.9264	4248
500.4221	4236
502.9171	4249
505.4094	4230
507.9011	4295
510.392	4321
512.8864	4182
515.3759	4365
517.8649	4322
520.3531	4344
522.8406	4338
525.3275	4339
527.8178	4352
530.3033	4236
532.7881	4362
535.2723	4372
537.7558	4349
540.2407	4353
542.7228	4343
545.2043	4296
547.6851	4236
550.1652	4329
552.6467	4312
555.1255	4288
557.6016	4344
560.079	4325
562.5557	4472
565.0318	4442
567.5092	4309
569.984	4346
572.456	4489
574.9294	4420
577.4022	4365
579.8762	4464
582.3456	4568
584.8163	4483
587.2863	4486
589.7557	4463
592.2224	4522
594.6924	4404
597.1578	4583
599.6245	4423
602.0905	4471
604.5538	4417
607.0206	4524
609.4825	4415
611.9459	4387
614.4066	4379
616.8686	4501
619.33	4560
621.7906	4500
624.2487	4426
626.708	4456
629.1647	4450
631.6207	4425
634.0801	4433
636.5348	4447
638.9888	4482
641.4442	4434
643.8969	4444
646.3509	4563
648.8022	4526
651.255	4511
653.705	4549
656.1544	4662
658.6031	4516
661.0532	4482
663.5026	4622
665.9493	4552
668.3954	4536
670.8409	4557
673.2877	4573
675.7318	4663
678.1752	4670
680.618	4666
683.0601	4601
685.5035	4620
687.9444	4602
690.3845	4638
692.824	4681
695.2628	4655
697.701	4675
700.1406	4574
702.5774	4533
705.0116	4665
707.4472	4737
709.8821	4794
712.3183	4745
714.7519	4655
717.1829	4714
719.6151	4787
722.0468	4727
724.4777	4809
726.908	4787
729.3377	4823
731.7667	4754
734.1931	4892
736.6208	4751
739.0498	4909
741.4742	4806
743.9	4847
746.3231	4882
748.7476	4897
751.1713	4870
753.5945	4959
756.015	4894
758.4368	4871
760.856	4909
763.2766	4901
765.6965	4950
768.1157	4970
770.5323	4953
772.9483	4949
775.3656	4947
777.7822	4975
780.1963	4900
782.6116	4965
785.0244	5017
787.4365	4924
789.8499	4936
792.2626	5005
794.6728	4953
797.0823	4932
799.4911	5043
801.8994	5004
804.3109	5109
806.7178	5104
809.124	4990
811.5297	5010
813.9347	5075
816.341	5048
818.7447	5058
821.1478	5131
823.5502	5105
825.952	5085
828.3531	5048
830.7556	4957
833.1554	5080
835.5546	5084
837.9532	5119
840.3511	5058
842.7504	5108
845.1451	5124
847.5411	5166
849.9365	5103
852.3312	5015
854.7272	5226
857.1187	5153
859.5115	5246
861.9037	5069
864.2952	5113
866.6842	5104
869.0764	5101
871.4661	5025
873.8531	5202
876.2415	5122
878.6272	5070
881.0162	5097
883.4026	5048
885.7866	5158
888.1717	5108
890.5543	5107
892.9382	5130
895.3215	5112
897.7041	5088
900.0842	5032
902.4655	5172
904.8443	5108
907.2244	5134
909.6039	5279
911.9808	5137
914.357	5025
916.7346	5205
919.1115	5266
921.4859	5169
923.8616	5232
926.2347	5229
928.6071	5300
930.979	5275
933.3541	5226
935.7247	5360
938.0946	5378
940.4639	5327
942.8326	5377
945.2026	5413
947.5701	5534
949.9369	5543
952.305	5576
954.6705	5742
957.0355	5905
959.4017	5974
961.7654	6002
964.1284	5939
966.4908	5984
968.8527	5844
971.2138	5702
973.5743	5557
975.9343	5451
978.2936	5440
980.6522	5420
983.0122	5343
985.3696	5406
987.7245	5406
990.0807	5217
992.4362	5291
994.7911	5287
997.1474	5205
999.4991	5278
1001.852	5234
1004.205	5319
1006.555	5244
1008.908	5428
1011.258	5316
1013.606	5377
1015.956	5281
1018.302	5402
1020.652	5330
1022.998	5283
1025.345	5373
1027.691	5334
1030.035	5319
1032.378	5367
1034.724	5393
1037.066	5354
1039.409	5425
1041.75	5404
1044.092	5458
1046.433	5422
1048.771	5309
1051.112	5342
1053.449	5388
1055.786	5494
1058.124	5498
1060.462	5377
1062.797	5489
1065.131	5555
1067.467	5458
1069.8	5399
1072.135	5437
1074.467	5491
1076.798	5547
1079.129	5473
1081.459	5466
1083.792	5582
1086.121	5430
1088.449	5441
1090.777	5516
1093.104	5472
1095.431	5528
1097.759	5461
1100.084	5498
1102.408	5556
1104.732	5467
1107.056	5574
1109.379	5499
1111.701	5487
1114.022	5521
1116.343	5505
1118.664	5550
1120.983	5592
1123.303	5467
1125.621	5465
1127.939	5455
1130.256	5466
1132.573	5518
1134.889	5530
1137.205	5474
1139.52	5417
1141.832	5578
1144.146	5630
1146.461	5540
1148.771	5609
1151.083	5519
1153.392	5611
1155.703	5478
1158.011	5586
1160.323	5590
1162.629	5480
1164.938	5554
1167.243	5574
1169.55	5634
1171.857	5611
1174.163	5528
1176.466	5521
1178.769	5544
1181.073	5627
1183.374	5526
1185.677	5573
1187.979	5497
1190.279	5545
1192.578	5533
1194.878	5564
1197.178	5561
1199.476	5606
1201.772	5676
1204.068	5453
1206.366	5532
1208.663	5698
1210.957	5562
1213.251	5583
1215.544	5563
1217.836	5574
1220.128	5502
1222.421	5522
1224.712	5570
1227.002	5566
1229.292	5648
1231.581	5582
1233.871	5633
1236.159	5716
1238.446	5647
1240.732	5630
1243.018	5643
1245.304	5773
1247.59	5756
1249.874	5753
1252.156	5590
1254.439	5732
1256.721	5667
1259.005	5660
1261.286	5701
1263.565	5720
1265.845	5735
1268.125	5682
1270.403	5682
1272.682	5694
1274.959	5743
1277.234	5686
1279.511	5747
1281.787	5652
1284.062	5666
1286.337	5671
1288.609	5620
1290.882	5631
1293.153	5711
1295.428	5609
1297.698	5578
1299.969	5613
1302.237	5614
1304.507	5687
1306.777	5721
1309.044	5658
1311.312	5628
1313.578	5628
1315.844	5703
1318.109	5629
1320.375	5689
1322.638	5606
1324.903	5698
1327.165	5717
1329.427	5557
1331.69	5748
1333.952	5716
1336.212	5744
1338.471	5640
1340.73	5784
1342.988	5625
1345.248	5866
1347.505	5654
1349.763	5714
1352.019	5649
1354.274	5745
1356.53	5595
1358.784	5723
1361.038	5754
1363.291	5813
1365.543	5596
1367.797	5674
1370.048	5690
1372.296	5669
1374.546	5731
1376.796	5692
1379.045	5695
1381.295	5676
1383.542	5761
1385.787	5759
1388.034	5675
1390.28	5717
1392.527	5744
1394.772	5790
1397.014	5713
1399.258	5802
1401.501	5627
1403.741	5705
1405.985	5768
1408.226	5735
1410.465	5738
1412.705	5776
1414.943	5741
1417.184	5801
1419.42	5751
1421.658	5739
1423.894	5811
1426.13	5686
1428.366	5812
1430.602	5783
1432.835	5777
1435.069	5805
1437.301	5739
1439.535	5834
1441.767	5930
1443.997	5951
1446.229	5854
1448.458	5851
1450.687	5918
1452.916	5877
1455.146	5954
1457.372	5867
1459.599	6018
1461.824	5827
1464.051	5924
1466.277	5822
1468.501	5770
1470.725	5803
1472.948	5870
1475.17	5715
1477.393	5886
1479.614	5835
1481.837	5769
1484.057	5804
1486.276	5779
1488.497	5852
1490.715	5768
1492.932	5714
1495.148	5757
1497.364	5767
1499.58	5700
1501.798	5699
1504.012	5768
1506.227	5772
1508.44	5730
1510.653	5656
1512.866	5711
1515.078	5700
1517.289	5636
1519.5	5687
1521.711	5731
1523.92	5758
1526.13	5835
1528.338	5625
1530.544	5708
1532.752	5769
1534.959	5842
1537.165	5752
1539.371	5818
1541.574	5812
1543.779	5742
1545.983	5720
1548.187	5744
1550.39	5799
1552.59	5812
1554.792	5809
1556.991	5649
1559.19	5823
1561.392	5805
1563.59	5804
1565.789	5779
1567.986	5791
1570.182	5829
1572.381	5905
1574.576	5857
1576.771	5898
1578.966	5929
1581.16	5879
1583.354	5958
1585.546	5859
1587.74	5831
1589.931	5900
1592.121	5839
1594.311	5924
1596.502	5935
1598.693	5879
1600.881	5841
1603.069	5794
1605.256	5825
1607.445	5847
1609.631	5957
1611.816	5964
1614.001	5892
1616.186	6027
1618.37	6015
1620.555	5849
1622.737	5905
1624.919	5933
1627.101	5890
1629.282	5916
1631.463	5861
1633.643	5882
1635.822	5925
1638.001	6031
1640.179	6033
1642.359	6016
1644.534	6012
1646.711	6022
1648.887	5864
1651.062	6056
1653.235	5973
1655.412	5935
1657.586	5988
1659.757	6059
1661.93	5933
1664.1	5960
1666.274	6047
1668.445	5974
1670.614	6040
1672.784	6089
1674.951	6026
1677.12	6061
1679.289	5942
1681.457	5886
1683.622	6006
1685.789	6050
1687.953	6041
1690.121	6004
1692.284	5966
1694.447	6022
1696.611	5966
1698.772	5940
1700.935	5983
1703.098	5984
1705.258	5926
1707.417	6033
1709.576	5924
1711.736	5900
1713.896	5892
1716.053	5876
1718.21	5860
1720.366	5925
1722.522	5939
1724.68	5919
1726.835	5951
1728.989	5926
1731.142	6012
1733.295	5859
1735.449	5924
1737.601	5921
1739.753	5926
1741.903	6028
1744.054	5975
1746.203	5942
1748.354	5978
1750.503	5964
1752.651	5979
1754.798	5972
1756.944	5938
1759.092	5884
1761.238	5985
1763.383	5996
1765.528	6030
1767.672	5896
1769.814	5914
1771.959	5979
1774.102	5917
1776.242	5974
1778.384	6081
1780.525	6003
1782.665	5944
1784.805	5970
1786.945	5965
1789.082	5999
1791.22	6040
1793.36	5901
1795.495	6037
1797.632	6084
1799.766	6096
1801.902	6106
1804.035	5995
1806.172	5976
1808.304	6010
1810.436	6077
1812.569	6073
1814.699	6144
1816.833	6040
1818.963	6009
1821.092	6009
1823.222	6024
1825.35	5977
1827.478	5989
1829.608	6051
1831.734	5905
1833.86	5994
1835.986	5990
1838.11	6018
1840.238	6029
1842.362	5967
1844.485	5980
1846.608	6033
1848.73	5952
1850.853	5935
1852.974	5984
1855.097	5999
1857.217	5934
1859.336	5911
1861.455	6068
1863.576	6008
1865.693	5945
1867.811	5968
1869.926	5965
1872.042	6010
1874.16	5941
1876.275	5984
1878.39	6012
1880.504	6057
1882.618	5983
1884.731	5948
1886.843	6085
1888.956	6039
1891.067	5953
1893.178	6064
1895.287	6113
1897.399	6144
1899.508	5920
1901.617	6024
1903.724	6092
1905.832	6081
1907.941	6020
1910.046	6149
1912.152	6094
1914.256	6113
1916.361	6027
1918.464	6061
1920.57	6098
1922.672	6122
1924.775	6190
1926.876	6022
1928.978	6101
1931.08	6051
1933.181	6084
1935.28	6189
1937.38	6139
1939.478	6185
1941.577	6083
1943.675	6137
1945.771	6236
1947.867	6161
1949.964	6171
1952.058	6080
1954.154	6132
1956.248	6184
1958.343	6062
1960.435	6271
1962.527	6164
1964.62	6166
1966.711	6115
1968.802	6163
1970.892	6159
1972.983	6131
1975.072	6107
1977.162	6141
1979.25	6271
1981.337	6131
1983.424	6174
1985.51	6126
1987.598	6043
1989.683	6149
1991.768	6064
1993.852	6085
1995.934	6074
1998.019	6028
2000.102	6130
2002.184	6054
2004.266	6157
2006.347	6146
2008.427	6047
2010.508	6150
2012.587	6204
2014.666	6208
2016.745	6175
2018.821	6203
2020.9	6108
2022.977	6151
2025.052	6156
2027.128	6159
2029.204	6157
2031.277	6083
2033.353	6122
2035.425	6173
2037.499	6127
2039.57	6024
2041.642	6109
2043.714	6088
2045.786	6224
2047.855	6082
2049.925	6143
2051.993	6063
2054.064	6142
2056.132	6171
2058.2	6193
2060.266	6026
2062.332	6168
2064.398	6165
2066.465	6032
2068.529	6239
2070.592	6140
2072.657	6240
2074.719	6086
2076.783	6170
2078.845	6099
2080.907	6233
2082.968	6086
2085.028	6309
2087.087	6128
2089.148	6026
2091.207	6130
2093.264	6140
2095.322	6253
2097.379	6178
2099.439	6056
2101.495	6185
2103.55	6218
2105.605	6103
2107.658	6186
2109.713	6105
2111.767	6114
2113.82	6137
2115.872	6120
2117.924	6175
2119.975	6222
2122.028	6163
2124.078	6075
2126.126	6268
2128.176	6055
2130.225	6187
2132.275	6131
2134.321	6212
2136.368	6101
2138.415	6137
2140.461	6155
2142.505	6112
2144.552	6022
2146.597	6058
2148.64	6114
2150.684	6056
2152.725	6150
2154.77	6191
2156.811	6111
2158.852	6131
2160.894	6147
2162.933	6088
2164.973	6136
2167.013	6151
2169.051	6005
2171.089	6018
2173.126	6099
2175.164	6061
2177.201	6128
2179.236	5962
2181.273	6053
2183.307	6069
2185.341	5932
2187.377	5975
2189.41	6030
2191.442	6114
2193.473	6033
2195.506	5956
2197.539	5960
2199.569	5972
2201.598	6046
2203.628	6005
2205.656	5886
2207.686	6004
2209.716	6053
2211.743	5965
2213.769	6056
2215.796	5960
2217.821	5991
2219.848	5988
2221.873	5865
2223.897	5897
2225.921	5943
2227.944	5979
2229.967	6009
2231.991	5944
2234.011	5948
2236.032	5874
2238.053	5846
2240.073	5974
2242.094	5945
2244.114	5966
2246.131	5940
2248.149	5963
2250.167	5865
2252.186	5895
2254.201	6080
2256.218	5944
2258.233	6048
2260.247	6017
2262.262	6031
2264.278	5898
2266.29	5844
2268.303	5939
2270.315	5866
2272.327	5927
2274.341	5969
2276.35	5935
2278.361	6048
2280.37	6001
2282.38	5930
2284.388	5855
2286.397	5932
2288.405	6034
2290.412	6023
2292.419	6011
2294.425	5950
2296.431	5882
2298.437	6025
2300.441	5919
2302.445	5911
2304.449	6007
2306.453	6006
2308.455	5888
2310.457	5868
2312.459	5856
2314.46	5875
2316.46	5851
2318.461	5863
2320.46	5929
2322.458	5811
2324.458	5891
2326.456	5802
2328.455	5853
2330.451	5849
2332.447	5781
2334.443	5819
2336.438	5893
2338.433	5857
2340.429	5906
2342.422	5778
2344.416	5869
2346.408	5846
2348.399	5808
2350.393	5805
2352.384	5733
2354.375	5832
2356.365	5720
2358.355	5792
2360.344	5859
2362.333	5840
2364.322	5699
2366.309	5861
2368.295	5864
2370.282	5768
2372.27	5686
2374.256	5820
2376.24	5853
2378.225	5692
2380.208	5697
2382.194	5632
2384.177	5690
2386.159	5728
2388.142	5647
2390.122	5726
2392.105	5726
2394.085	5715
2396.066	5711
2398.044	5651
2400.024	5863
2402.002	5722
2403.982	5690
2405.959	5767
2407.935	5705
2409.913	5717
2411.888	5702
2413.865	5706
2415.84	5755
2417.814	5708
2419.788	5620
2421.762	5752
2423.735	5750
2425.708	5666
2427.68	5650
2429.651	5723
2431.623	5655
2433.593	5729
2435.564	5615
2437.533	5717
2439.502	5685
2441.47	5705
2443.438	5680
2445.406	5759
2447.373	5551
2449.34	5723
2451.305	5778
2453.271	5577
2455.235	5675
2457.201	5659
2459.165	5672
2461.129	5601
2463.092	5646
2465.054	5671
2467.018	5532
2468.978	5806
2470.939	5551
2472.899	5628
2474.86	5711
2476.819	5713
2478.778	5616
2480.737	5612
2482.695	5625
2484.653	5705
2486.609	5601
2488.567	5686
2490.524	5694
2492.478	5574
2494.433	5621
2496.387	5611
2498.343	5560
2500.297	5609
2502.249	5701
2504.202	5580
2506.153	5522
2508.105	5625
2510.057	5450
2512.008	5610
2513.957	5757
2515.906	5614
2517.855	5644
2519.805	5616
2521.754	5457
2523.7	5551
2525.647	5751
2527.594	5589
2529.54	5607
2531.486	5554
2533.431	5642
2535.376	5505
2537.32	5511
2539.263	5479
2541.207	5595
2543.151	5565
2545.093	5555
2547.034	5542
2548.975	5536
2550.917	5589
2552.856	5534
2554.796	5453
2556.735	5585
2558.673	5475
2560.611	5419
2562.55	5524
2564.487	5476
2566.424	5511
2568.36	5526
2570.296	5620
2572.232	5593
2574.167	5463
2576.101	5519
2578.035	5546
2579.969	5622
2581.902	5575
2583.834	5536
2585.766	5528
2587.698	5555
2589.628	5568
2591.557	5590
2593.489	5472
2595.419	5612
2597.348	5565
2599.275	5573
2601.204	5558
2603.131	5518
2605.059	5544
2606.986	5579
2608.911	5518
2610.837	5517
2612.76	5551
2614.687	5561
2616.61	5584
2618.534	5597
2620.457	5451
2622.38	5588
2624.302	5464
2626.225	5434
2628.145	5581
2630.067	5539
2631.986	5526
2633.906	5583
2635.827	5473
2637.745	5536
2639.662	5635
2641.581	5615
2643.498	5501
2645.415	5512
2647.331	5552
2649.248	5554
2651.163	5587
2653.077	5546
2654.993	5529
2656.906	5483
2658.821	5554
2660.733	5491
2662.646	5514
2664.557	5468
2666.47	5458
2668.381	5458
2670.291	5507
2672.201	5535
2674.11	5405
2676.021	5478
2677.929	5447
2679.837	5509
2681.745	5525
2683.652	5389
2685.56	5407
2687.466	5414
2689.371	5502
2691.276	5466
2693.181	5425
2695.085	5439
2696.991	5416
2698.893	5452
2700.796	5500
2702.698	5531
2704.601	5450
2706.502	5468
2708.404	5414
2710.304	5526
2712.203	5495
2714.103	5414
2716.003	5474
2717.902	5414
2719.8	5333
2721.697	5368
2723.594	5464
2725.49	5361
2727.389	5459
2729.283	5384
2731.179	5341
2733.073	5420
2734.968	5323
2736.863	5381
2738.757	5389
2740.649	5426
2742.541	5346
2744.433	5412
2746.324	5390
2748.216	5337
2750.107	5360
2751.997	5355
2753.886	5374
2755.776	5324
2757.666	5359
2759.553	5275
2761.44	5357
2763.327	5358
2765.215	5343
2767.102	5361
2768.988	5303
2770.873	5306
2772.757	5343
2774.641	5290
2776.525	5395
2778.41	5305
2780.292	5361
2782.175	5318
2784.057	5317
2785.938	5290
2787.821	5358
2789.701	5215
2791.581	5322
2793.461	5252
2795.34	5240
2797.219	5208
2799.099	5332
2800.975	5235
2802.853	5282
2804.73	5207
2806.606	5337
2808.484	5323
2810.358	5209
2812.233	5342
2814.108	5242
2815.981	5294
2817.857	5230
2819.73	5170
2821.602	5271
2823.474	5299
2825.346	5245
2827.217	5159
2829.089	5255
2830.959	5302
2832.829	5211
2834.698	5199
2836.567	5208
2838.436	5245
2840.305	5216
2842.172	5159
2844.04	5213
2845.905	5277
2847.772	5239
2849.639	5259
2851.503	5240
2853.369	5100
2855.232	5310
2857.096	5239
2858.961	5237
2860.824	5210
2862.686	5246
2864.547	5262
2866.41	5279
2868.272	5232
2870.132	5287
2871.992	5325
2873.851	5298
2875.711	5279
2877.57	5331
2879.429	5359
2881.287	5443
2883.144	5436
2885.001	5417
2886.857	5380
2888.714	5395
2890.57	5341
2892.425	5378
2894.279	5389
2896.133	5272
2897.987	5352
2899.842	5344
2901.694	5370
2903.547	5352
2905.397	5348
2907.249	5371
2909.101	5471
2910.952	5362
2912.802	5428
2914.652	5326
2916.5	5481
2918.35	5431
2920.198	5426
2922.045	5371
2923.893	5427
2925.74	5562
2927.585	5580
2929.433	5537
2931.279	5563
2933.123	5565
2934.968	5664
2936.811	5609
2938.656	5645
2940.5	5567
2942.342	5723
2944.185	5563
2946.026	5506
2947.87	5674
2949.71	5554
2951.549	5656
2953.39	5542
2955.229	5576
2957.069	5490
2958.908	5482
2960.746	5574
2962.584	5431
2964.421	5445
2966.257	5458
2968.094	5394
2969.931	5354
2971.766	5385
2973.601	5422
2975.435	5312
2977.27	5343
2979.105	5304
2980.938	5198
2982.77	5313
2984.602	5386
2986.434	5258
2988.267	5263
2990.097	5278
2991.927	5264
2993.757	5251
2995.587	5161
2997.417	5193
2999.246	5295
3001.074	5170
3002.902	5092
3004.729	5184
3006.556	5051
3008.384	5147
3010.21	4991
3012.036	5020
3013.861	5032
3015.684	5006
3017.51	5044
3019.334	4928
3021.157	4969
3022.981	4947
3024.802	4925
3026.624	4965
3028.448	4941
3030.267	4917
3032.088	4962
3033.909	4821
3035.728	4830
3037.549	4984
3039.368	4813
3041.186	4872
3043.004	4872
3044.821	4902
3046.64	4811
3048.455	4883
3050.272	4834
3052.087	4887
3053.903	4876
3055.717	4912
3057.534	4957
3059.347	4874
3061.16	4831
3062.974	4941
3064.785	4852
3066.598	4965
3068.411	4867
3070.222	4859
3072.032	4859
3073.844	4832
3075.653	4801
3077.463	4769
3079.272	4759
3081.08	4878
3082.889	4765
3084.697	4803
3086.505	4782
3088.312	4775
3090.118	4769
3091.924	4781
3093.729	4789
3095.535	4739
3097.34	4643
3099.144	4764
3100.947	4741
3102.75	4759
3104.553	4744
3106.357	4748
3108.159	4726
3109.961	4675
3111.762	4600
3113.562	4803
3115.365	4696
3117.164	4591
3118.964	4738
3120.761	4746
3122.56	4579
3124.36	4661
3126.158	4691
3127.954	4658
3129.75	4576
3131.547	4635
3133.343	4688
3135.139	4657
3136.934	4629
3138.729	4678
3140.522	4629
3142.317	4656
3144.11	4668
3145.904	4637
3147.695	4567
3149.488	4612
3151.28	4618
3153.07	4581
3154.863	4573
3156.652	4636
3158.441	4565
3160.231	4645
3162.019	4599
3163.81	4551
3165.597	4535
3167.384	4670
3169.172	4552
3170.958	4484
3172.745	4574
3174.532	4542
3176.317	4636
3178.101	4551
3179.885	4415
3181.67	4527
3183.455	4527
3185.238	4565
3187.02	4562
3188.802	4504
3190.585	4551
3192.368	4529
3194.149	4566
3195.929	4470
3197.709	4513
3199.489	4462
3201.268	4500
3203.048	4444
3204.826	4504
3206.604	4520
3208.382	4541
3210.159	4507
3211.937	4493
3213.713	4491
3215.489	4518
3217.263	4476
3219.038	4466
3220.815	4477
3222.589	4541
3224.363	4495
3226.136	4582
3227.908	4530
3229.681	4510
3231.454	4476
3233.226	4481
3234.996	4567
3236.767	4544
3238.538	4495
3240.308	4483
3242.078	4392
3243.847	4471
3245.615	4499
3247.384	4522
3249.15	4478
3250.92	4467
3252.686	4392
3254.453	4474
3256.218	4442
3257.984	4445
3259.75	4441
3261.515	4416
3263.279	4408
3265.044	4435
3266.806	4469
3268.57	4486
3270.334	4483
3272.095	4409
3273.856	4469
3275.619	4461
3277.379	4425
3279.14	4419
3280.9	4436
3282.661	4360
3284.419	4455
3286.178	4446
3287.937	4421
3289.695	4493
3291.453	4438
3293.21	4355
3294.967	4391
3296.723	4394
3298.48	4472
3300.235	4448
3301.99	4397
3303.744	4372
3305.498	4489
3307.253	4421
3309.006	4422
3310.759	4340
3312.511	4427
3314.263	4492
3316.017	4453
3317.768	4499
3319.519	4444
3321.268	4458
3323.018	4455
3324.767	4287
3326.518	4422
3328.267	4395
3330.014	4434
3331.762	4342
3333.509	4417
3335.258	4361
3337.003	4424
3338.75	4385
3340.496	4300
3342.24	4349
3343.987	4377
3345.732	4393
3347.475	4255
3349.219	4371
3350.961	4329
3352.705	4477
3354.448	4477
3356.19	4405
3357.931	4356
3359.672	4329
3361.412	4327
3363.155	4327
3364.894	4357
3366.633	4236
3368.372	4373
3370.11	4407
3371.849	4268
3373.588	4311
3375.325	4308
3377.061	4238
3378.799	4347
3380.534	4395
3382.271	4287
3384.006	4346
3385.741	4398
3387.475	4264
3389.209	4316
3390.944	4337
3392.677	4272
3394.409	4346
3396.143	4307
3397.874	4367
3399.606	4297
3401.338	4300
3403.069	4312
3404.799	4262
3406.528	4261
3408.258	4257
3409.988	4305
3411.717	4200
3413.445	4267
3415.173	4207
3416.899	4304
3418.626	4217
3420.354	4218
3422.08	4191
3423.806	4195
3425.531	4300
3427.255	4190
3428.981	4250
3430.705	4221
3432.429	4217
3434.151	4170
3435.875	4179
3437.599	4283
3439.321	4223
3441.042	4250
3442.763	4228
3444.483	4180
3446.204	4177
3447.926	4193
3449.645	3955
3451.364	4163
3453.082	4184
3454.801	4126
3456.52	4157
3458.238	4165
3459.954	4093
3461.671	4134
3463.387	4186
3465.104	4108
3466.82	4123
3468.534	4076
3470.25	4048
3471.963	4167
3473.676	4075
3475.392	4107
3477.104	4034
3478.817	4088
3480.528	4066
3482.241	4126
3483.954	4124
3485.664	4107
3487.374	4069
3489.084	4016
3490.795	4148
3492.504	4017
3494.214	4165
3495.922	4061
3497.63	4143
3499.338	4059
3501.045	4076
3502.753	4112
3504.459	3958
3506.166	3961
3507.871	4013
3509.576	3955
3511.283	3993
3512.987	4042
3514.691	4090
3516.395	3933
3518.098	3961
3519.8	3976
3521.504	3965
3523.206	4016
3524.908	3976
3526.609	4037
3528.309	3966
3530.011	3970
3531.711	4051
3533.411	4015
3535.109	4009
3536.808	3999
3538.507	4011
3540.206	3930
3541.904	3956
3543.601	3948
3545.297	3902
3546.994	3898
3548.69	3885
3550.387	3985
3552.081	3907
3553.776	3852
3555.47	3859
3557.166	3878
3558.859	3936
3560.553	3872
3562.245	3851
3563.938	3911
3565.629	3938
3567.322	3972
3569.014	3899
3570.704	3819
3572.394	3870
3574.084	3834
3575.775	3841
3577.464	3887
3579.152	3821
3580.842	3761
3582.529	3898
3584.216	3893
3585.905	3934
3587.591	3822
3589.279	3849
3590.964	3767
3592.649	3801
3594.336	3826
3596.021	3713
3597.705	3789
3599.388	3908
3601.072	3756
3602.757	3831
3604.439	3796
3606.122	3773
3607.803	3717
3609.485	3731
3611.167	3797
3612.849	3673
3614.529	3755
3616.208	3791
3617.888	3734
3619.567	3802
3621.247	3750
3622.926	3700
3624.603	3697
3626.281	3687
3627.958	3710
3629.635	3656
3631.312	3816
3632.989	3746
3634.665	3725
3636.339	3704
3638.014	3706
3639.691	3679
3641.364	3688
3643.038	3587
3644.71	3629
3646.384	3705
3648.058	3746
3649.729	3681
3651.402	3703
3653.073	3725
3654.744	3601
3656.414	3740
3658.085	3634
3659.755	3595
3661.424	3615
3663.094	3549
3664.762	3558
3666.431	3699
3668.099	3605
3669.766	3637
3671.433	3597
3673.099	3568
3674.768	3707
3676.433	3660
3678.098	3545
3679.763	3621
3681.428	3609
3683.093	3723
3684.757	3603
3686.421	3605
3688.083	3660
3689.746	3587
3691.408	3571
3693.071	3569
3694.733	3499
3696.394	3641
3698.054	3558
3699.715	3543
3701.375	3544
3703.036	3518
3704.695	3533
3706.354	3546
3708.012	3578
3709.67	3541
3711.329	3522
3712.987	3595
3714.644	3534
3716.299	3508
3717.955	3508
3719.613	3590
3721.268	3539
3722.923	3591
3724.577	3519
3726.231	3483
3727.885	3491
3729.539	3566
3731.192	3509
3732.845	3560
3734.497	3558
3736.149	3474
3737.802	3495
3739.453	3478
3741.104	3516
3742.753	3504
3744.404	3550
3746.052	3478
3747.704	3460
3749.352	3440
3751	3460
3752.648	3452
3754.296	3485
3755.944	3422
3757.59	3452
3759.238	3454
3760.883	3440
3762.528	3481
3764.176	3455
3765.82	3394
3767.464	3404
3769.109	3433
3770.753	3507
3772.396	3417
3774.04	3439
3775.683	3485
3777.325	3444
3778.967	3465
3780.608	3457
3782.25	3457
3783.89	3435
3785.531	3498
3787.17	3382
3788.81	3431
3790.45	3493
3792.09	3403
3793.729	3383
3795.366	3339
3797.003	3460
3798.64	3460
3800.278	3463
3801.915	3308
3803.551	3364
3805.187	3386
3806.822	3396
3808.458	3319
3810.093	3293
3811.726	3376
3813.36	3372
3814.994	3338
3816.627	3352
3818.262	3412
3819.893	3379
3821.525	3341
3823.157	3391
3824.787	3274
3826.42	3354
3828.051	3355
3829.68	3355
3831.31	3347
3832.938	3341
3834.569	3272
3836.198	3345
3837.825	3270
3839.454	3318
3841.08	3272
3842.708	3358
3844.335	3299
3845.962	3284
3847.587	3367
3849.212	3268
3850.838	3298
3852.463	3262
3854.089	3348
3855.712	3227
3857.335	3293
3858.959	3275
3860.582	3197
3862.205	3244
3863.827	3171
3865.449	3220
3867.07	3234
3868.691	3290
3870.312	3251
3871.933	3277
3873.553	3272
3875.173	3256
3876.792	3302
3878.411	3127
3880.03	3189
3881.647	3248
3883.265	3205
3884.882	3192
3886.499	3189
3888.116	3245
3889.732	3236
3891.348	3285
3892.964	3201
3894.579	3267
3896.195	3233
3897.809	3205
3899.423	3200
3901.036	3187
3902.648	3222
3904.261	3136
3905.875	3234
3907.487	3146
3909.099	3152
3910.709	3166
3912.321	3166
3913.933	3255
3915.542	3211
3917.152	3234
3918.762	3148
3920.37	3197
3921.98	3219
3923.589	3149
3925.196	3209
3926.804	3203
3928.41	3162
3930.018	3161
3931.626	3207
3933.231	3181
3934.838	3110
3936.442	3104
3938.046	3131
3939.653	3185
3941.257	3177
3942.861	3131
3944.464	3069
3946.068	3167
3947.67	3171
3949.273	3159
3950.876	3184
3952.477	3078
3954.078	3103
3955.678	3163
3957.281	3115
3958.881	3077
3960.48	3146
3962.079	3073
3963.678	3072
3965.279	3127
3966.877	3082
3968.475	3106
3970.072	3040
3971.669	3061
3973.266	3141
3974.864	3118
3976.459	3069
3978.055	3033
3979.65	3049
3981.245	3067
3982.841	3071
3984.436	3117
3986.03	3094
3987.623	3080
3989.216	2976
3990.809	3031
3992.403	2990
3993.995	3041
3995.586	2995
3997.177	3058
3998.768	3005
4000.361	2987
4001.951	2964
4003.54	2980
4005.13	3018
4006.719	3024
4008.31	2992
4009.897	2967
4011.485	2980
4013.073	2935
4014.66	2977
4016.247	2963
4017.834	2972
4019.421	2962
4021.006	2929
4022.592	3016
4024.178	3001
4025.763	2953
4027.348	2925
4028.932	3007
4030.515	2867
4032.099	2943
4033.682	2937
4035.266	2961
4036.847	2968
4038.429	2850
4040.011	2949
4041.592	2911
4043.173	2966
4044.755	2929
4046.334	2865
4047.913	2897
4049.494	2883
4051.074	2881
4052.652	2873
4054.23	2877
4055.807	2850
4057.385	2937
4058.963	2866
4060.541	2907
4062.117	2916
4063.693	2910
4065.269	2886
4066.844	2885
4068.42	2916
4069.995	2856
4071.569	2925
4073.143	2853
4074.716	2840
4076.291	2840
4077.864	2857
4079.436	2794
4081.009	2811
4082.58	2789
4084.152	2840
4085.723	2876
4087.294	2871
4088.865	2769
4090.435	2886
4092.005	2825
4093.574	2781
4095.143	2765
4096.712	2826
4098.279	2842
4099.848	2773
4101.416	2797
4102.984	2771
4104.55	2830
4106.117	2863
4107.682	2792
4109.248	2809
4110.815	2811
4112.379	2764
4113.945	2850
4115.508	2787
4117.073	2779
4118.637	2737
4120.201	2788
4121.763	2749
4123.325	2760
4124.888	2768
4126.449	2801
4128.013	2678
4129.573	2805
4131.133	2793
4132.694	2759
4134.254	2716
4135.814	2761
4137.374	2749
4138.933	2705
4140.491	2773
4142.049	2768
4143.607	2755
4145.167	2684
4146.724	2706
4148.28	2714
4149.836	2727
4151.392	2696
4152.949	2757
4154.504	2677
4156.059	2662
4157.614	2752
4159.168	2644
4160.723	2697
4162.277	2732
4163.83	2628
4165.383	2605
4166.936	2670
4168.488	2651
4170.041	2656
4171.593	2711
4173.144	2658
4174.695	2724
4176.246	2631
4177.796	2664
4179.346	2592
4180.896	2636
4182.445	2641
4183.994	2712
4185.542	2621
4187.091	2634
4188.639	2630
4190.185	2610
4191.732	2727
4193.279	2606
4194.826	2621
4196.373	2612
4197.918	2622
4199.463	2596
4201.008	2630
4202.553	2583
4204.098	2570
4205.641	2580
4207.185	2605
4208.728	2546
4210.271	2588
4211.814	2603
4213.357	2628
4214.898	2557
4216.439	2611
4217.98	2555
4219.522	2612
4221.062	2600
4222.603	2557
4224.142	2603
4225.681	2550
4227.222	2640
4228.76	2546
4230.298	2610
4231.835	2549
4233.373	2611
4234.911	2512
4236.449	2589
4237.985	2534
4239.521	2564
4241.057	2475
4242.592	2562
4244.128	2599
4245.663	2523
4247.197	2561
4248.731	2539
4250.265	2528
4251.798	2557
4253.333	2602
4254.865	2512
4256.397	2577
4257.93	2438
4259.461	2558
4260.994	2601
4262.525	2504
4264.056	2541
4265.586	2615
4267.115	2581
4268.646	2542
4270.176	2487
4271.705	2512
4273.232	2534
4274.761	2563
4276.289	2552
4277.818	2513
4279.345	2526
4280.872	2495
4282.399	2541
4283.924	2482
4285.452	2473
4286.976	2465
4288.502	2480
4290.026	2461
4291.551	2495
4293.074	2487
4294.6	2490
4296.123	2470
4297.646	2452
4299.168	2428
4300.691	2457
4302.214	2494
4303.736	2536
4305.257	2462
4306.778	2475
4308.299	2487
4309.82	2488
4311.34	2462
4312.86	2387
4314.379	2436
