400.0745	4827
402.597	4886
405.1208	4782
407.6419	4860
410.1623	5048
412.6819	4940
415.201	4945
417.7172	4950
420.2369	5066
422.7538	5009
425.2701	5047
427.7856	5114
430.3005	5099
432.8147	5216
435.3282	5177
437.841	5200
440.3511	5132
442.8625	5263
445.3753	5255
447.8854	5240
450.3927	5181
452.9014	5233
455.4073	5231
457.9146	5199
460.4233	5246
462.9272	5195
465.4325	5137
467.935	5090
470.4389	5225
472.9421	5286
475.4446	5225
477.9444	5153
480.4456	5299
482.944	5180
485.4417	5278
487.9429	5257
490.4393	5281
492.935	5349
495.4321	5377
497.9264	5378
500.4221	5345
502.9171	5387
505.4094	5393
507.9011	5366
510.392	5341
512.8864	5415
515.3759	5378
517.8649	5378
520.3531	5478
522.8406	5471
525.3275	5505
527.8178	5383
530.3033	5538
532.7881	5474
535.2723	5484
537.7558	5380
540.2407	5459
542.7228	5352
545.2043	5421
547.6851	5539
550.1652	5555
552.6467	5506
555.1255	5462
557.6016	5543
560.079	5508
562.5557	5617
565.0318	5542
567.5092	5555
569.984	5618
572.456	5615
574.9294	5541
577.4022	5598
579.8762	5628
582.3456	5630
584.8163	5564
587.2863	5647
589.7557	5704
592.2224	5706
594.6924	5620
597.1578	5779
599.6245	5580
602.0905	5698
604.5538	5671
607.0206	5673
609.4825	5615
611.9459	5712
614.4066	5624
616.8686	5596
619.33	5623
621.7906	5662
624.2487	5626
626.708	5616
629.1647	5663
631.6207	5645
634.0801	5733
636.5348	5558
638.9888	5612
641.4442	5550
643.8969	5652
646.3509	5713
648.8022	5700
651.255	5732
653.705	5616
656.1544	5772
658.6031	5694
661.0532	5773
663.5026	5803
665.9493	5623
668.3954	5828
670.8409	5738
673.2877	5809
675.7318	5861
678.1752	5809
680.618	5753
683.0601	5832
685.5035	5889
687.9444	5790
690.3845	5909
692.824	5852
695.2628	5934
697.701	5872
700.1406	5899
702.5774	5771
705.0116	5946
707.4472	5965
709.8821	5986
712.3183	5967
714.7519	5982
717.1829	5948
719.6151	6049
722.0468	5966
724.4777	6049
726.908	6004
729.3377	5988
731.7667	6083
734.1931	6037
736.6208	6099
739.0498	6073
741.4742	6157
743.9	6083
746.3231	6145
748.7476	6129
751.1713	6237
753.5945	6114
756.015	6226
758.4368	6220
760.856	6166
763.2766	6190
765.6965	6267
768.1157	6231
770.5323	6373
772.9483	6299
775.3656	6372
777.7822	6343
780.1963	6291
782.6116	6390
785.0244	6345
787.4365	6328
789.8499	6235
792.2626	6216
794.6728	6223
797.0823	6385
799.4911	6186
801.8994	6415
804.3109	6342
806.7178	6331
809.124	6314
811.5297	6287
813.9347	6380
816.341	6389
818.7447	6440
821.1478	6438
823.5502	6448
825.952	6383
828.3531	6482
830.7556	6414
833.1554	6476
835.5546	6426
837.9532	6381
840.3511	6408
842.7504	6516
845.1451	6501
847.5411	6425
849.9365	6576
852.3312	6469
854.7272	6499
857.1187	6590
859.5115	6568
861.9037	6625
864.2952	6481
866.6842	6512
869.0764	6589
871.4661	6386
873.8531	6416
876.2415	6533
878.6272	6557
881.0162	6457
883.4026	6448
885.7866	6358
888.1717	6500
890.5543	6439
892.9382	6557
895.3215	6501
897.7041	6558
900.0842	6470
902.4655	6493
904.8443	6505
907.2244	6556
909.6039	6573
911.9808	6477
914.357	6614
916.7346	6690
919.1115	6750
921.4859	6755
923.8616	6827
926.2347	6710
928.6071	6716
930.979	6734
933.3541	6810
935.7247	6795
938.0946	6793
940.4639	6885
942.8326	7011
945.2026	6937
947.5701	7057
949.9369	7249
952.305	7273
954.6705	7495
957.0355	7735
959.4017	7950
961.7654	7839
964.1284	8072
966.4908	7826
968.8527	7634
971.2138	7398
973.5743	7150
975.9343	7026
978.2936	6902
980.6522	6803
983.0122	6751
985.3696	6818
987.7245	6772
990.0807	6677
992.4362	6804
994.7911	6758
997.1474	6658
999.4991	6774
1001.852	6715
1004.205	6809
1006.555	6705
1008.908	6769
1011.258	6662
1013.606	6702
1015.956	6583
1018.302	6790
1020.652	6730
1022.998	6773
1025.345	6754
1027.691	6814
1030.035	6814
1032.378	6811
1034.724	6822
1037.066	6854
1039.409	6806
1041.75	6906
1044.092	6748
1046.433	6872
1048.771	6816
1051.112	6858
1053.449	6774
1055.786	6814
1058.124	6888
1060.462	6842
1062.797	6938
1065.131	6922
1067.467	6894
1069.8	6998
1072.135	6943
1074.467	6963
1076.798	7043
1079.129	6870
1081.459	6930
1083.792	6945
1086.121	6926
1088.449	6963
1090.777	6828
1093.104	6995
1095.431	6830
1097.759	6807
1100.084	6792
1102.408	6889
1104.732	6882
1107.056	6917
1109.379	6779
1111.701	6967
1114.022	6870
1116.343	6988
1118.664	6829
1120.983	7018
1123.303	6870
1125.621	6916
1127.939	6883
1130.256	6889
1132.573	6871
1134.889	7036
1137.205	7015
1139.52	6816
1141.832	6842
1144.146	6830
1146.461	6937
1148.771	6899
1151.083	6940
1153.392	6920
1155.703	7000
1158.011	6908
1160.323	6934
1162.629	6858
1164.938	6954
1167.243	6979
1169.55	7025
1171.857	6931
1174.163	6893
1176.466	6875
1178.769	6928
1181.073	7013
1183.374	6956
1185.677	6936
1187.979	6883
1190.279	6909
1192.578	6879
1194.878	6951
1197.178	6922
1199.476	6861
1201.772	6889
1204.068	6977
1206.366	7062
1208.663	6955
1210.957	6990
1213.251	6864
1215.544	7021
1217.836	6894
1220.128	7003
1222.421	6955
1224.712	6933
1227.002	6997
1229.292	6987
1231.581	7033
1233.871	7044
1236.159	7102
1238.446	7108
1240.732	7088
1243.018	7141
1245.304	7191
1247.59	7209
1249.874	7269
1252.156	7142
1254.439	7321
1256.721	7160
1259.005	7046
1261.286	7201
1263.565	7027
1265.845	7108
1268.125	7218
1270.403	7183
1272.682	7090
1274.959	7195
1277.234	7075
1279.511	7066
1281.787	7164
1284.062	7080
1286.337	7211
1288.609	7030
1290.882	7021
1293.153	7102
1295.428	6943
1297.698	7179
1299.969	7110
1302.237	7046
1304.507	7022
1306.777	6991
1309.044	7111
1311.312	7078
1313.578	7137
1315.844	7176
1318.109	7134
1320.375	7117
1322.638	7003
1324.903	7059
1327.165	7189
1329.427	7058
1331.69	7094
1333.952	7126
1336.212	7082
1338.471	7094
1340.73	7087
1342.988	7173
1345.248	7090
1347.505	7089
1349.763	7063
1352.019	7022
1354.274	6961
1356.53	7124
1358.784	6986
1361.038	7062
1363.291	7078
1365.543	7034
1367.797	7082
1370.048	7141
1372.296	7130
1374.546	7163
1376.796	7115
1379.045	7024
1381.295	7080
1383.542	6967
1385.787	7087
1388.034	7072
1390.28	7153
1392.527	7091
1394.772	7149
1397.014	7122
1399.258	7191
1401.501	7176
1403.741	7190
1405.985	7213
1408.226	7090
1410.465	7145
1412.705	7248
1414.943	7118
1417.184	7138
1419.42	7274
1421.658	7303
1423.894	7216
1426.13	7288
1428.366	7226
1430.602	7233
1432.835	7303
1435.069	7232
1437.301	7244
1439.535	7362
1441.767	7331
1443.997	7321
1446.229	7349
1448.458	7296
1450.687	7419
1452.916	7401
1455.146	7329
1457.372	7259
1459.599	7353
1461.824	7414
1464.051	7334
1466.277	7318
1468.501	7388
1470.725	7321
1472.948	7282
1475.17	7284
1477.393	7240
1479.614	7253
1481.837	7084
1484.057	7289
1486.276	7007
1488.497	7152
1490.715	7072
1492.932	7073
1495.148	7209
1497.364	7218
1499.58	7064
1501.798	7119
1504.012	7114
1506.227	6950
1508.44	6972
1510.653	7098
1512.866	7045
1515.078	7063
1517.289	7089
1519.5	7100
1521.711	6993
1523.92	7007
1526.13	7048
1528.338	7031
1530.544	6960
1532.752	7158
1534.959	6979
1537.165	7008
1539.371	6995
1541.574	7030
1543.779	7119
1545.983	7068
1548.187	7120
1550.39	7022
1552.59	7037
1554.792	7125
1556.991	7218
1559.19	7200
1561.392	7251
1563.59	7168
1565.789	7188
1567.986	7192
1570.182	7122
1572.381	7072
1574.576	7120
1576.771	7164
1578.966	7238
1581.16	7133
1583.354	7146
1585.546	7219
1587.74	7302
1589.931	7205
1592.121	7208
1594.311	7358
1596.502	7197
1598.693	7127
1600.881	7394
1603.069	7328
1605.256	7217
1607.445	7193
1609.631	7366
1611.816	7223
1614.001	7357
1616.186	7300
1618.37	7377
1620.555	7247
1622.737	7234
1624.919	7277
1627.101	7336
1629.282	7334
1631.463	7323
1633.643	7276
1635.822	7337
1638.001	7395
1640.179	7347
1642.359	7391
1644.534	7276
1646.711	7380
1648.887	7415
1651.062	7398
1653.235	7309
1655.412	7306
1657.586	7475
1659.757	7446
1661.93	7330
1664.1	7451
1666.274	7391
1668.445	7434
1670.614	7455
1672.784	7376
1674.951	7420
1677.12	7370
1679.289	7523
1681.457	7411
1683.622	7483
1685.789	7332
1687.953	7300
1690.121	7491
1692.284	7389
1694.447	7418
1696.611	7246
1698.772	7429
1700.935	7266
1703.098	7298
1705.258	7201
1707.417	7176
1709.576	7309
1711.736	7214
1713.896	7240
1716.053	7249
1718.21	7126
1720.366	7271
1722.522	7276
1724.68	7102
1726.835	7187
1728.989	7205
1731.142	7160
1733.295	7196
1735.449	7179
1737.601	7143
1739.753	7309
1741.903	7235
1744.054	7285
1746.203	7215
1748.354	7150
1750.503	7276
1752.651	7199
1754.798	7215
1756.944	7197
1759.092	7291
1761.238	7312
1763.383	7338
1765.528	7235
1767.672	7374
1769.814	7337
1771.959	7230
1774.102	7215
1776.242	7224
1778.384	7286
1780.525	7289
1782.665	7232
1784.805	7275
1786.945	7163
1789.082	7314
1791.22	7310
1793.36	7363
1795.495	7254
1797.632	7352
1799.766	7284
1801.902	7355
1804.035	7335
1806.172	7191
1808.304	7257
1810.436	7391
1812.569	7408
1814.699	7339
1816.833	7304
1818.963	7247
1821.092	7258
1823.222	7211
1825.35	7285
1827.478	7182
1829.608	7213
1831.734	7165
1833.86	7265
1835.986	7243
1838.11	7180
1840.238	7245
1842.362	7170
1844.485	7167
1846.608	7246
1848.73	7169
1850.853	7163
1852.974	7254
1855.097	7247
1857.217	7321
1859.336	7277
1861.455	7234
1863.576	7105
1865.693	7238
1867.811	7179
1869.926	7139
1872.042	7283
1874.16	7090
1876.275	7123
1878.39	7091
1880.504	7265
1882.618	7247
1884.731	7239
1886.843	7308
1888.956	7151
1891.067	7190
1893.178	7222
1895.287	7071
1897.399	7241
1899.508	7231
1901.617	7232
1903.724	7095
1905.832	7455
1907.941	7296
1910.046	7204
1912.152	7233
1914.256	7243
1916.361	7299
1918.464	7346
1920.57	7408
1922.672	7261
1924.775	7301
1926.876	7259
1928.978	7261
1931.08	7335
1933.181	7391
1935.28	7285
1937.38	7238
1939.478	7269
1941.577	7365
1943.675	7394
1945.771	7361
1947.867	7260
1949.964	7224
1952.058	7328
1954.154	7320
1956.248	7243
1958.343	7312
1960.435	7330
1962.527	7288
1964.62	7277
1966.711	7281
1968.802	7311
1970.892	7305
1972.983	7306
1975.072	7295
1977.162	7436
1979.25	7289
1981.337	7148
1983.424	7307
1985.51	7272
1987.598	7360
1989.683	7161
1991.768	7267
1993.852	7287
1995.934	7256
1998.019	7231
2000.102	7223
2002.184	7208
2004.266	7312
2006.347	7186
2008.427	7248
2010.508	7303
2012.587	7183
2014.666	7175
2016.745	7180
2018.821	7088
2020.9	7189
2022.977	7275
2025.052	7108
2027.128	7286
2029.204	7135
2031.277	7152
2033.353	7263
2035.425	7227
2037.499	7162
2039.57	7228
2041.642	7111
2043.714	7312
2045.786	7155
2047.855	7276
2049.925	7121
2051.993	7277
2054.064	7211
2056.132	7091
2058.2	7139
2060.266	7258
2062.332	7205
2064.398	7140
2066.465	7216
2068.529	7208
2070.592	7123
2072.657	7091
2074.719	7105
2076.783	7263
2078.845	7146
2080.907	7094
2082.968	7154
2085.028	7284
2087.087	7248
2089.148	7267
2091.207	7168
2093.264	7182
2095.322	7196
2097.379	7279
2099.439	7253
2101.495	7164
2103.55	7141
2105.605	7053
2107.658	7254
2109.713	7196
2111.767	7049
2113.82	7062
2115.872	7226
2117.924	7216
2119.975	7251
2122.028	7259
2124.078	7177
2126.126	7148
2128.176	7190
2130.225	7205
2132.275	7128
2134.321	7257
2136.368	7370
2138.415	7158
2140.461	7235
2142.505	7186
2144.552	7101
2146.597	7143
2148.64	7107
2150.684	7046
2152.725	7191
2154.77	7137
2156.811	7071
2158.852	6974
2160.894	7116
2162.933	7061
2164.973	7095
2167.013	7059
2169.051	7027
2171.089	7142
2173.126	7042
2175.164	7129
2177.201	7012
2179.236	7098
2181.273	7063
2183.307	7045
2185.341	7060
2187.377	7012
2189.41	6985
2191.442	7103
2193.473	6970
2195.506	6980
2197.539	6943
2199.569	7009
2201.598	7091
2203.628	6937
2205.656	6966
2207.686	7031
2209.716	7074
2211.743	7042
2213.769	6975
2215.796	7011
2217.821	6939
2219.848	6979
2221.873	6883
2223.897	6879
2225.921	6997
2227.944	6980
2229.967	6979
2231.991	6832
2234.011	7027
2236.032	6971
2238.053	6785
2240.073	6999
2242.094	6865
2244.114	6949
2246.131	6997
2248.149	6925
2250.167	6863
2252.186	7106
2254.201	7034
2256.218	6841
2258.233	7019
2260.247	6919
2262.262	6998
2264.278	6989
2266.29	6954
2268.303	6902
2270.315	6990
2272.327	6974
2274.341	6949
2276.35	6866
2278.361	6916
2280.37	6905
2282.38	6990
2284.388	6918
2286.397	6856
2288.405	7034
2290.412	6888
2292.419	6986
2294.425	7034
2296.431	6992
2298.437	6951
2300.441	6874
2302.445	7003
2304.449	6874
2306.453	6854
2308.455	6930
2310.457	6855
2312.459	6931
2314.46	6842
2316.46	6838
2318.461	6859
2320.46	6846
2322.458	6844
2324.458	6918
2326.456	6861
2328.455	6846
2330.451	6891
2332.447	6862
2334.443	6867
2336.438	6800
2338.433	6947
2340.429	6892
2342.422	6787
2344.416	6819
2346.408	6717
2348.399	6783
2350.393	6874
2352.384	6715
2354.375	6817
2356.365	6864
2358.355	6766
2360.344	6808
2362.333	6812
2364.322	6785
2366.309	6768
2368.295	6850
2370.282	6765
2372.27	6736
2374.256	6805
2376.24	6798
2378.225	6688
2380.208	6769
2382.194	6761
2384.177	6654
2386.159	6715
2388.142	6746
2390.122	6637
2392.105	6697
2394.085	6703
2396.066	6692
2398.044	6599
2400.024	6773
2402.002	6737
2403.982	6747
2405.959	6680
2407.935	6743
2409.913	6654
2411.888	6643
2413.865	6712
2415.84	6645
2417.814	6751
2419.788	6631
2421.762	6629
2423.735	6640
2425.708	6647
2427.68	6716
2429.651	6681
2431.623	6658
2433.593	6715
2435.564	6590
2437.533	6595
2439.502	6585
2441.47	6619
2443.438	6636
2445.406	6723
2447.373	6701
2449.34	6664
2451.305	6724
2453.271	6656
2455.235	6637
2457.201	6679
2459.165	6628
2461.129	6629
2463.092	6585
2465.054	6613
2467.018	6468
2468.978	6648
2470.939	6575
2472.899	6557
2474.86	6619
2476.819	6615
2478.778	6694
2480.737	6525
2482.695	6642
2484.653	6548
2486.609	6492
2488.567	6534
2490.524	6536
2492.478	6447
2494.433	6490
2496.387	6578
2498.343	6471
2500.297	6406
2502.249	6513
2504.202	6558
2506.153	6538
2508.105	6515
2510.057	6466
2512.008	6502
2513.957	6500
2515.906	6418
2517.855	6574
2519.805	6445
2521.754	6400
2523.7	6555
2525.647	6517
2527.594	6470
2529.54	6481
2531.486	6529
2533.431	6484
2535.376	6459
2537.32	6399
2539.263	6524
2541.207	6474
2543.151	6445
2545.093	6418
2547.034	6538
2548.975	6435
2550.917	6480
2552.856	6483
2554.796	6530
2556.735	6550
2558.673	6469
2560.611	6387
2562.55	6378
2564.487	6517
2566.424	6407
2568.36	6537
2570.296	6443
2572.232	6394
2574.167	6489
2576.101	6454
2578.035	6473
2579.969	6435
2581.902	6456
2583.834	6503
2585.766	6536
2587.698	6450
2589.628	6416
2591.557	6478
2593.489	6504
2595.419	6395
2597.348	6377
2599.275	6537
2601.204	6457
2603.131	6405
2605.059	6447
2606.986	6441
2608.911	6476
2610.837	6503
2612.76	6364
2614.687	6508
2616.61	6479
2618.534	6499
2620.457	6468
2622.38	6429
2624.302	6547
2626.225	6402
2628.145	6620
2630.067	6451
2631.986	6379
2633.906	6591
2635.827	6364
2637.745	6454
2639.662	6523
2641.581	6389
2643.498	6479
2645.415	6487
2647.331	6410
2649.248	6451
2651.163	6552
2653.077	6564
2654.993	6463
2656.906	6413
2658.821	6468
2660.733	6458
2662.646	6468
2664.557	6329
2666.47	6491
2668.381	6491
2670.291	6439
2672.201	6404
2674.11	6469
2676.021	6335
2677.929	6442
2679.837	6315
2681.745	6493
2683.652	6403
2685.56	6400
2687.466	6507
2689.371	6534
2691.276	6474
2693.181	6393
2695.085	6414
2696.991	6374
2698.893	6583
2700.796	6321
2702.698	6285
2704.601	6344
2706.502	6392
2708.404	6387
2710.304	6376
2712.203	6334
2714.103	6269
2716.003	6242
2717.902	6434
2719.8	6375
2721.697	6170
2723.594	6239
2725.49	6348
2727.389	6337
2729.283	6215
2731.179	6335
2733.073	6296
2734.968	6395
2736.863	6201
2738.757	6264
2740.649	6315
2742.541	6300
2744.433	6271
2746.324	6238
2748.216	6278
2750.107	6260
2751.997	6249
2753.886	6202
2755.776	6272
2757.666	6285
2759.553	6229
2761.44	6318
2763.327	6262
2765.215	6330
2767.102	6254
2768.988	6268
2770.873	6250
2772.757	6266
2774.641	6280
2776.525	6289
2778.41	6149
2780.292	6210
2782.175	6165
2784.057	6199
2785.938	6161
2787.821	6178
2789.701	6219
2791.581	6211
2793.461	6180
2795.34	6213
2797.219	6198
2799.099	6209
2800.975	6158
2802.853	6201
2804.73	6148
2806.606	6257
2808.484	6238
2810.358	6176
2812.233	6130
2814.108	6299
2815.981	6252
2817.857	6166
2819.73	6140
2821.602	6112
2823.474	6121
2825.346	6207
2827.217	6123
2829.089	6140
2830.959	6186
2832.829	6088
2834.698	6166
2836.567	6184
2838.436	6083
2840.305	6062
2842.172	6162
2844.04	6167
2845.905	6045
2847.772	6118
2849.639	6162
2851.503	6171
2853.369	6275
2855.232	6213
2857.096	6123
2858.961	6338
2860.824	6180
2862.686	6177
2864.547	6254
2866.41	6283
2868.272	6303
2870.132	6375
2871.992	6375
2873.851	6366
2875.711	6449
2877.57	6451
2879.429	6522
2881.287	6673
2883.144	6672
2885.001	6629
2886.857	6592
2888.714	6636
2890.57	6487
2892.425	6648
2894.279	6643
2896.133	6588
2897.987	6726
2899.842	6651
2901.694	6628
2903.547	6490
2905.397	6580
2907.249	6640
2909.101	6505
2910.952	6484
2912.802	6601
2914.652	6708
2916.5	6670
2918.35	6716
2920.198	6775
2922.045	6890
2923.893	6867
2925.74	6948
2927.585	7082
2929.433	6963
2931.279	7134
2933.123	7167
2934.968	7030
2936.811	7222
2938.656	7270
2940.5	7304
2942.342	7299
2944.185	7382
2946.026	7313
2947.87	7363
2949.71	7335
2951.549	7393
2953.39	7280
2955.229	7230
2957.069	7120
2958.908	7099
2960.746	7153
2962.584	6992
2964.421	7033
2966.257	7025
2968.094	6870
2969.931	6803
2971.766	6766
2973.601	6815
2975.435	6804
2977.27	6674
2979.105	6620
2980.938	6725
2982.77	6577
2984.602	6675
2986.434	6608
2988.267	6578
2990.097	6595
2991.927	6530
2993.757	6433
2995.587	6420
2997.417	6329
2999.246	6336
3001.074	6362
3002.902	6286
3004.729	6345
3006.556	6182
3008.384	6174
3010.21	6118
3012.036	5966
3013.861	6045
3015.684	5963
3017.51	5990
3019.334	5962
3021.157	6065
3022.981	5852
3024.802	6025
3026.624	5752
3028.448	5884
3030.267	5821
3032.088	5838
3033.909	5790
3035.728	5849
3037.549	5801
3039.368	5902
3041.186	5864
3043.004	5707
3044.821	5731
3046.64	5761
3048.455	5859
3050.272	5761
3052.087	5681
3053.903	5717
3055.717	5725
3057.534	5717
3059.347	5888
3061.16	5823
3062.974	5736
3064.785	5746
3066.598	5652
3068.411	5807
3070.222	5646
3072.032	5683
3073.844	5668
3075.653	5732
3077.463	5739
3079.272	5798
3081.08	5716
3082.889	5667
3084.697	5624
3086.505	5586
3088.312	5649
3090.118	5579
3091.924	5739
3093.729	5681
3095.535	5528
3097.34	5653
3099.144	5604
3100.947	5559
3102.75	5569
3104.553	5461
3106.357	5553
3108.159	5605
3109.961	5559
3111.762	5395
3113.562	5528
3115.365	5475
3117.164	5605
3118.964	5463
3120.761	5546
3122.56	5538
3124.36	5382
3126.158	5446
3127.954	5511
3129.75	5352
3131.547	5536
3133.343	5418
3135.139	5503
3136.934	5355
3138.729	5457
3140.522	5426
3142.317	5476
3144.11	5338
3145.904	5414
3147.695	5570
3149.488	5457
3151.28	5369
3153.07	5437
3154.863	5386
3156.652	5446
3158.441	5361
3160.231	5348
3162.019	5380
3163.81	5343
3165.597	5305
3167.384	5406
3169.172	5364
3170.958	5327
3172.745	5380
3174.532	5407
3176.317	5432
3178.101	5406
3179.885	5301
3181.67	5350
3183.455	5244
3185.238	5335
3187.02	5308
3188.802	5366
3190.585	5218
3192.368	5310
3194.149	5376
3195.929	5250
3197.709	5344
3199.489	5327
3201.268	5466
3203.048	5181
3204.826	5349
3206.604	5313
3208.382	5261
3210.159	5189
3211.937	5218
3213.713	5308
3215.489	5247
3217.263	5248
3219.038	5343
3220.815	5317
3222.589	5260
3224.363	5193
3226.136	5322
3227.908	5260
3229.681	5322
3231.454	5268
3233.226	5334
3234.996	5219
3236.767	5321
3238.538	5298
3240.308	5265
3242.078	5316
3243.847	5314
3245.615	5208
3247.384	5299
3249.15	5198
3250.92	5317
3252.686	5299
3254.453	5275
3256.218	5285
3257.984	5321
3259.75	5242
3261.515	5251
3263.279	5292
3265.044	5325
3266.806	5236
3268.57	5262
3270.334	5278
3272.095	5237
3273.856	5202
3275.619	5271
3277.379	5236
3279.14	5296
3280.9	5250
3282.661	5281
3284.419	5231
3286.178	5288
3287.937	5258
3289.695	5245
3291.453	5345
3293.21	5220
3294.967	5301
3296.723	5205
3298.48	5328
3300.235	5264
3301.99	5254
3303.744	5285
3305.498	5289
3307.253	5264
3309.006	5315
3310.759	5151
3312.511	5273
3314.263	5175
3316.017	5203
3317.768	5213
3319.519	5130
3321.268	5181
3323.018	5229
3324.767	5244
3326.518	5254
3328.267	5260
3330.014	5246
3331.762	5201
3333.509	5189
3335.258	5209
3337.003	5198
3338.75	5193
3340.496	5137
3342.24	5242
3343.987	5269
3345.732	5252
3347.475	5112
3349.219	5181
3350.961	5153
3352.705	5150
3354.448	5111
3356.19	5220
3357.931	5131
3359.672	5092
3361.412	5163
3363.155	5126
3364.894	5145
3366.633	5128
3368.372	5063
3370.11	5067
3371.849	5178
3373.588	5145
3375.325	5104
3377.061	5087
3378.799	5060
3380.534	5061
3382.271	5039
3384.006	5035
3385.741	5032
3387.475	5032
3389.209	5055
3390.944	5150
3392.677	5009
3394.409	5001
3396.143	5038
3397.874	5014
3399.606	4990
3401.338	5047
3403.069	5012
3404.799	5088
3406.528	5013
3408.258	4991
3409.988	4894
3411.717	5019
3413.445	4891
3415.173	4971
3416.899	4978
3418.626	5007
3420.354	4996
3422.08	5078
3423.806	4920
3425.531	4945
3427.255	4911
3428.981	5043
3430.705	4881
3432.429	4892
3434.151	4921
3435.875	4965
3437.599	4929
3439.321	4943
3441.042	4916
3442.763	4905
3444.483	4879
3446.204	4844
3447.926	4880
3449.645	4813
3451.364	4982
3453.082	4803
3454.801	4915
3456.52	4910
3458.238	4896
3459.954	4863
3461.671	4909
3463.387	4846
3465.104	4807
3466.82	4779
3468.534	4792
3470.25	4777
3471.963	4839
3473.676	4733
3475.392	4807
3477.104	4721
3478.817	4789
3480.528	4678
3482.241	4811
3483.954	4658
3485.664	4752
3487.374	4751
3489.084	4639
3490.795	4704
3492.504	4749
3494.214	4741
3495.922	4756
3497.63	4739
3499.338	4642
3501.045	4736
3502.753	4692
3504.459	4642
3506.166	4616
3507.871	4645
3509.576	4627
3511.283	4704
3512.987	4638
3514.691	4651
3516.395	4646
3518.098	4593
3519.8	4657
3521.504	4596
3523.206	4525
3524.908	4590
3526.609	4609
3528.309	4596
3530.011	4604
3531.711	4552
3533.411	4613
3535.109	4535
3536.808	4503
3538.507	4510
3540.206	4607
3541.904	4601
3543.601	4566
3545.297	4540
3546.994	4575
3548.69	4615
3550.387	4513
3552.081	4423
3553.776	4492
3555.47	4514
3557.166	4502
3558.859	4453
3560.553	4506
3562.245	4542
3563.938	4450
3565.629	4471
3567.322	4464
3569.014	4496
3570.704	4497
3572.394	4510
3574.084	4495
3575.775	4352
3577.464	4450
3579.152	4422
3580.842	4438
3582.529	4451
3584.216	4403
3585.905	4486
3587.591	4418
3589.279	4409
3590.964	4386
3592.649	4429
3594.336	4459
3596.021	4395
3597.705	4344
3599.388	4400
3601.072	4338
3602.757	4389
3604.439	4313
3606.122	4315
3607.803	4266
3609.485	4304
3611.167	4338
3612.849	4275
3614.529	4262
3616.208	4358
3617.888	4242
3619.567	4271
3621.247	4236
3622.926	4253
3624.603	4286
3626.281	4281
3627.958	4244
3629.635	4278
3631.312	4245
3632.989	4111
3634.665	4178
3636.339	4265
3638.014	4201
3639.691	4194
3641.364	4202
3643.038	4223
3644.71	4240
3646.384	4132
3648.058	4092
3649.729	4099
3651.402	4151
3653.073	4180
3654.744	4216
3656.414	4193
3658.085	4180
3659.755	4187
3661.424	4214
3663.094	4150
3664.762	4124
3666.431	4152
3668.099	4194
3669.766	4151
3671.433	4053
3673.099	4097
3674.768	4083
3676.433	4069
3678.098	4127
3679.763	4161
3681.428	4091
3683.093	4075
3684.757	4139
3686.421	4065
3688.083	4108
3689.746	4071
3691.408	4115
3693.071	4031
3694.733	4086
3696.394	4023
3698.054	4079
3699.715	4083
3701.375	4109
3703.036	4075
3704.695	4021
3706.354	4034
3708.012	4076
3709.67	4043
3711.329	4010
3712.987	4099
3714.644	4072
3716.299	4042
3717.955	4010
3719.613	4031
3721.268	4036
3722.923	4062
3724.577	4014
3726.231	4062
3727.885	4031
3729.539	4055
3731.192	3968
3732.845	3988
3734.497	4090
3736.149	4079
3737.802	3987
3739.453	3915
3741.104	3932
3742.753	3941
3744.404	3991
3746.052	3904
3747.704	3882
3749.352	3954
3751	3996
3752.648	3933
3754.296	3936
3755.944	3968
3757.59	3948
3759.238	3895
3760.883	3928
3762.528	3960
3764.176	3962
3765.82	3906
3767.464	3920
3769.109	3899
3770.753	3914
3772.396	3995
3774.04	3919
3775.683	3934
3777.325	3781
3778.967	3861
3780.608	3770
3782.25	3875
3783.89	3803
3785.531	3892
3787.17	3824
3788.81	3806
3790.45	3865
3792.09	3821
3793.729	3817
3795.366	3765
3797.003	3879
3798.64	3837
3800.278	3827
3801.915	3876
3803.551	3851
3805.187	3835
3806.822	3804
3808.458	3845
3810.093	3801
3811.726	3847
3813.36	3845
3814.994	3794
3816.627	3796
3818.262	3828
3819.893	3712
3821.525	3729
3823.157	3748
3824.787	3689
3826.42	3790
3828.051	3745
3829.68	3729
3831.31	3678
3832.938	3757
3834.569	3757
3836.198	3742
3837.825	3761
3839.454	3698
3841.08	3774
3842.708	3709
3844.335	3715
3845.962	3789
3847.587	3850
3849.212	3694
3850.838	3733
3852.463	3685
3854.089	3674
3855.712	3697
3857.335	3718
3858.959	3724
3860.582	3664
3862.205	3717
3863.827	3717
3865.449	3748
3867.07	3619
3868.691	3732
3870.312	3673
3871.933	3652
3873.553	3689
3875.173	3673
3876.792	3603
3878.411	3632
3880.03	3733
3881.647	3646
3883.265	3663
3884.882	3673
3886.499	3679
3888.116	3694
3889.732	3723
3891.348	3568
3892.964	3617
3894.579	3636
3896.195	3580
3897.809	3682
3899.423	3673
3901.036	3663
3902.648	3587
3904.261	3558
3905.875	3651
3907.487	3599
3909.099	3612
3910.709	3654
3912.321	3604
3913.933	3663
3915.542	3563
3917.152	3585
3918.762	3600
3920.37	3599
3921.98	3687
3923.589	3595
3925.196	3608
3926.804	3573
3928.41	3621
3930.018	3562
3931.626	3512
3933.231	3532
3934.838	3532
3936.442	3623
3938.046	3607
3939.653	3503
3941.257	3559
3942.861	3574
3944.464	3629
3946.068	3544
3947.67	3483
3949.273	3617
3950.876	3501
3952.477	3535
3954.078	3519
3955.678	3491
3957.281	3554
3958.881	3525
3960.48	3557
3962.079	3482
3963.678	3471
3965.279	3510
3966.877	3495
3968.475	3550
3970.072	3511
3971.669	3505
3973.266	3488
3974.864	3535
3976.459	3453
3978.055	3476
3979.65	3476
3981.245	3491
3982.841	3399
3984.436	3446
3986.03	3438
3987.623	3458
3989.216	3494
3990.809	3502
3992.403	3355
3993.995	3465
3995.586	3427
3997.177	3384
3998.768	3391
4000.361	3401
4001.951	3451
4003.54	3460
4005.13	3342
4006.719	3332
4008.31	3485
4009.897	3312
4011.485	3367
4013.073	3300
4014.66	3418
4016.247	3405
4017.834	3294
4019.421	3290
4021.006	3337
4022.592	3361
4024.178	3350
4025.763	3365
4027.348	3291
4028.932	3354
4030.515	3269
4032.099	3271
4033.682	3346
4035.266	3331
4036.847	3346
4038.429	3269
4040.011	3351
4041.592	3266
4043.173	3311
4044.755	3269
4046.334	3287
4047.913	3369
4049.494	3247
4051.074	3258
4052.652	3280
4054.23	3289
4055.807	3309
4057.385	3285
4058.963	3275
4060.541	3271
4062.117	3290
4063.693	3266
4065.269	3229
4066.844	3276
4068.42	3230
4069.995	3227
4071.569	3286
4073.143	3180
4074.716	3205
4076.291	3239
4077.864	3261
4079.436	3192
4081.009	3215
4082.58	3220
4084.152	3254
4085.723	3251
4087.294	3175
4088.865	3186
4090.435	3118
4092.005	3196
4093.574	3157
4095.143	3209
4096.712	3159
4098.279	3155
4099.848	3121
4101.416	3113
4102.984	3160
4104.55	3159
4106.117	3192
4107.682	3173
4109.248	3157
4110.815	3112
4112.379	3161
4113.945	3030
4115.508	3156
4117.073	3173
4118.637	3159
4120.201	3176
4121.763	3100
4123.325	3192
4124.888	3190
4126.449	3063
4128.013	3097
4129.573	3122
4131.133	3134
4132.694	3180
4134.254	3118
4135.814	3060
4137.374	3085
4138.933	3101
4140.491	3070
4142.049	3118
4143.607	3068
4145.167	3069
4146.724	3018
4148.28	3049
4149.836	3064
4151.392	3030
4152.949	3087
4154.504	3087
4156.059	3072
4157.614	3080
4159.168	3029
4160.723	3051
4162.277	3058
4163.83	2976
4165.383	3015
4166.936	3005
4168.488	2970
4170.041	3007
4171.593	2930
4173.144	3029
4174.695	2985
4176.246	3054
4177.796	2988
4179.346	2990
4180.896	3032
4182.445	3026
4183.994	2910
4185.542	2962
4187.091	2997
4188.639	3034
4190.185	2918
4191.732	2951
4193.279	3028
4194.826	2876
4196.373	2975
4197.918	2947
4199.463	3028
4201.008	2982
4202.553	2997
4204.098	2908
4205.641	2952
4207.185	3008
4208.728	2900
4210.271	2931
4211.814	2940
4213.357	2896
4214.898	2966
4216.439	2967
4217.98	2909
4219.522	2956
4221.062	2870
4222.603	2889
4224.142	2852
4225.681	2887
4227.222	2822
4228.76	2916
4230.298	2940
4231.835	2860
4233.373	2859
4234.911	2950
4236.449	2936
4237.985	2918
4239.521	2852
4241.057	2862
4242.592	2931
4244.128	2853
4245.663	2875
4247.197	2881
4248.731	2915
4250.265	2852
4251.798	2913
4253.333	2858
4254.865	2860
4256.397	2827
4257.93	2870
4259.461	2885
4260.994	2857
4262.525	2853
4264.056	2909
4265.586	2831
4267.115	2855
4268.646	2829
4270.176	2818
4271.705	2877
4273.232	2790
4274.761	2908
4276.289	2832
4277.818	2816
4279.345	2845
4280.872	2790
4282.399	2811
4283.924	2820
4285.452	2817
4286.976	2776
4288.502	2825
4290.026	2790
4291.551	2859
4293.074	2766
4294.6	2761
4296.123	2819
4297.646	2748
4299.168	2830
4300.691	2791
4302.214	2720
4303.736	2727
4305.257	2740
4306.778	2758
4308.299	2796
4309.82	2793
4311.34	2710
4312.86	2736
4314.379	2713
