400.0745	4342
402.597	4296
405.1208	4326
407.6419	4331
410.1623	4285
412.6819	4400
415.201	4321
417.7172	4389
420.2369	4502
422.7538	4471
425.2701	4455
427.7856	4512
430.3005	4519
432.8147	4536
435.3282	4508
437.841	4639
440.3511	4556
442.8625	4589
445.3753	4584
447.8854	4569
450.3927	4616
452.9014	4630
455.4073	4649
457.9146	4699
460.4233	4497
462.9272	4700
465.4325	4606
467.935	4629
470.4389	4655
472.9421	4667
475.4446	4676
477.9444	4608
480.4456	4658
482.944	4745
485.4417	4756
487.9429	4794
490.4393	4843
492.935	4772
495.4321	4806
497.9264	4836
500.4221	4754
502.9171	4828
505.4094	4838
507.9011	4885
510.392	4884
512.8864	4900
515.3759	4854
517.8649	4847
520.3531	4855
522.8406	4894
525.3275	4806
527.8178	4972
530.3033	4808
532.7881	4915
535.2723	4903
537.7558	4866
540.2407	4938
542.7228	4892
545.2043	4767
547.6851	4833
550.1652	4849
552.6467	4841
555.1255	4858
557.6016	4879
560.079	4968
562.5557	4975
565.0318	4912
567.5092	5018
569.984	4946
572.456	4979
574.9294	5081
577.4022	5003
579.8762	4941
582.3456	4975
584.8163	5034
587.2863	5005
589.7557	5060
592.2224	4914
594.6924	5087
597.1578	5069
599.6245	4951
602.0905	4989
604.5538	4930
607.0206	5068
609.4825	5013
611.9459	5060
614.4066	5046
616.8686	5030
619.33	5088
621.7906	5093
624.2487	5026
626.708	5023
629.1647	4975
631.6207	5121
634.0801	5103
636.5348	5086
638.9888	4980
641.4442	5003
643.8969	5035
646.3509	5071
648.8022	5166
651.255	5038
653.705	5197
656.1544	5063
658.6031	5161
661.0532	5184
663.5026	5167
665.9493	5222
668.3954	5197
670.8409	5228
673.2877	5212
675.7318	5187
678.1752	5321
680.618	5219
683.0601	5327
685.5035	5114
687.9444	5291
690.3845	5232
692.824	5308
695.2628	5248
697.701	5285
700.1406	5287
702.5774	5300
705.0116	5359
707.4472	5291
709.8821	5299
712.3183	5362
714.7519	5315
717.1829	5361
719.6151	5393
722.0468	5430
724.4777	5343
726.908	5473
729.3377	5360
731.7667	5369
734.1931	5378
736.6208	5525
739.0498	5413
741.4742	5491
743.9	5559
746.3231	5577
748.7476	5504
751.1713	5627
753.5945	5650
756.015	5538
758.4368	5572
760.856	5511
763.2766	5639
765.6965	5597
768.1157	5654
770.5323	5646
772.9483	5680
775.3656	5588
777.7822	5644
780.1963	5576
782.6116	5819
785.0244	5785
787.4365	5723
789.8499	5538
792.2626	5590
794.6728	5646
797.0823	5702
799.4911	5600
801.8994	5553
804.3109	5615
806.7178	5675
809.124	5741
811.5297	5695
813.9347	5606
816.341	5703
818.7447	5678
821.1478	5638
823.5502	5692
825.952	5780
828.3531	5621
830.7556	5661
833.1554	5713
835.5546	5793
837.9532	5694
840.3511	5752
842.7504	5744
845.1451	5707
847.5411	5910
849.9365	5627
852.3312	5903
854.7272	5842
857.1187	5881
859.5115	5911
861.9037	5901
864.2952	5761
866.6842	5649
869.0764	5770
871.4661	5723
873.8531	5868
876.2415	5801
878.6272	5763
881.0162	5789
883.4026	5776
885.7866	5707
888.1717	5688
890.5543	5839
892.9382	5722
895.3215	5861
897.7041	5766
900.0842	5804
902.4655	5809
904.8443	5844
907.2244	5816
909.6039	5802
911.9808	5895
914.357	5897
916.7346	5893
919.1115	5928
921.4859	5985
923.8616	5972
926.2347	5983
928.6071	5978
930.979	5987
933.3541	5964
935.7247	6062
938.0946	6064
940.4639	6144
942.8326	6139
945.2026	6082
947.5701	6044
949.9369	6299
952.305	6276
954.6705	6502
957.0355	6517
959.4017	6608
961.7654	6690
964.1284	6624
966.4908	6556
968.8527	6413
971.2138	6349
973.5743	6296
975.9343	6141
978.2936	6037
980.6522	6061
983.0122	6024
985.3696	5988
987.7245	5991
990.0807	5832
992.4362	5953
994.7911	5933
997.1474	6052
999.4991	5971
1001.852	6081
1004.205	5968
1006.555	6084
1008.908	6009
1011.258	6046
1013.606	5938
1015.956	6079
1018.302	6040
1020.652	6061
1022.998	6018
1025.345	6015
1027.691	5989
1030.035	6068
1032.378	6016
1034.724	6066
1037.066	6122
1039.409	6164
1041.75	6025
1044.092	5978
1046.433	6077
1048.771	6095
1051.112	6097
1053.449	6103
1055.786	6165
1058.124	6132
1060.462	6259
1062.797	6014
1065.131	6147
1067.467	6201
1069.8	6170
1072.135	6205
1074.467	6092
1076.798	6172
1079.129	6211
1081.459	6191
1083.792	6033
1086.121	6156
1088.449	6147
1090.777	6128
1093.104	6084
1095.431	6021
1097.759	6137
1100.084	6061
1102.408	6082
1104.732	6153
1107.056	6154
1109.379	6148
1111.701	6233
1114.022	6211
1116.343	6123
1118.664	6151
1120.983	6127
1123.303	6128
1125.621	6107
1127.939	6208
1130.256	6215
1132.573	6169
1134.889	6056
1137.205	6091
1139.52	6179
1141.832	6168
1144.146	6125
1146.461	6126
1148.771	6190
1151.083	6137
1153.392	6238
1155.703	6164
1158.011	6189
1160.323	6279
1162.629	6278
1164.938	6283
1167.243	6173
1169.55	6200
1171.857	6204
1174.163	6198
1176.466	6140
1178.769	6264
1181.073	6225
1183.374	6213
1185.677	6168
1187.979	6161
1190.279	6218
1192.578	6220
1194.878	6173
1197.178	6202
1199.476	6247
1201.772	6168
1204.068	6272
1206.366	6247
1208.663	6267
1210.957	6183
1213.251	6216
1215.544	6238
1217.836	6225
1220.128	6286
1222.421	6295
1224.712	6249
1227.002	6251
1229.292	6275
1231.581	6310
1233.871	6376
1236.159	6372
1238.446	6386
1240.732	6418
1243.018	6454
1245.304	6278
1247.59	6458
1249.874	6417
1252.156	6350
1254.439	6461
1256.721	6448
1259.005	6401
1261.286	6322
1263.565	6367
1265.845	6334
1268.125	6289
1270.403	6445
1272.682	6404
1274.959	6428
1277.234	6550
1279.511	6377
1281.787	6434
1284.062	6422
1286.337	6243
1288.609	6304
1290.882	6373
1293.153	6279
1295.428	6332
1297.698	6359
1299.969	6377
1302.237	6268
1304.507	6281
1306.777	6263
1309.044	6236
1311.312	6349
1313.578	6352
1315.844	6194
1318.109	6221
1320.375	6293
1322.638	6291
1324.903	6391
1327.165	6293
1329.427	6488
1331.69	6365
1333.952	6347
1336.212	6212
1338.471	6239
1340.73	6390
1342.988	6265
1345.248	6270
1347.505	6294
1349.763	6369
1352.019	6425
1354.274	6276
1356.53	6409
1358.784	6408
1361.038	6302
1363.291	6379
1365.543	6259
1367.797	6372
1370.048	6327
1372.296	6521
1374.546	6350
1376.796	6539
1379.045	6387
1381.295	6413
1383.542	6329
1385.787	6489
1388.034	6387
1390.28	6384
1392.527	6410
1394.772	6405
1397.014	6452
1399.258	6503
1401.501	6381
1403.741	6489
1405.985	6498
1408.226	6500
1410.465	6577
1412.705	6505
1414.943	6481
1417.184	6578
1419.42	6520
1421.658	6489
1423.894	6567
1426.13	6498
1428.366	6530
1430.602	6422
1432.835	6419
1435.069	6549
1437.301	6604
1439.535	6518
1441.767	6709
1443.997	6480
1446.229	6583
1448.458	6770
1450.687	6552
1452.916	6648
1455.146	6566
1457.372	6536
1459.599	6662
1461.824	6574
1464.051	6619
1466.277	6574
1468.501	6539
1470.725	6519
1472.948	6634
1475.17	6480
1477.393	6683
1479.614	6480
1481.837	6461
1484.057	6512
1486.276	6337
1488.497	6503
1490.715	6462
1492.932	6456
1495.148	6412
1497.364	6399
1499.58	6310
1501.798	6307
1504.012	6483
1506.227	6398
1508.44	6374
1510.653	6345
1512.866	6379
1515.078	6423
1517.289	6293
1519.5	6338
1521.711	6363
1523.92	6296
1526.13	6382
1528.338	6324
1530.544	6397
1532.752	6338
1534.959	6398
1537.165	6326
1539.371	6345
1541.574	6450
1543.779	6402
1545.983	6413
1548.187	6427
1550.39	6510
1552.59	6497
1554.792	6484
1556.991	6439
1559.19	6485
1561.392	6545
1563.59	6526
1565.789	6361
1567.986	6517
1570.182	6407
1572.381	6500
1574.576	6408
1576.771	6421
1578.966	6451
1581.16	6530
1583.354	6584
1585.546	6544
1587.74	6533
1589.931	6574
1592.121	6553
1594.311	6570
1596.502	6560
1598.693	6457
1600.881	6543
1603.069	6540
1605.256	6652
1607.445	6589
1609.631	6668
1611.816	6600
1614.001	6619
1616.186	6643
1618.37	6702
1620.555	6560
1622.737	6679
1624.919	6635
1627.101	6634
1629.282	6643
1631.463	6653
1633.643	6604
1635.822	6615
1638.001	6592
1640.179	6569
1642.359	6630
1644.534	6572
1646.711	6708
1648.887	6639
1651.062	6694
1653.235	6540
1655.412	6624
1657.586	6650
1659.757	6654
1661.93	6658
1664.1	6699
1666.274	6705
1668.445	6669
1670.614	6798
1672.784	6699
1674.951	6719
1677.12	6622
1679.289	6614
1681.457	6667
1683.622	6659
1685.789	6543
1687.953	6579
1690.121	6629
1692.284	6516
1694.447	6620
1696.611	6494
1698.772	6629
1700.935	6519
1703.098	6723
1705.258	6581
1707.417	6678
1709.576	6615
1711.736	6696
1713.896	6639
1716.053	6567
1718.21	6567
1720.366	6558
1722.522	6574
1724.68	6493
1726.835	6431
1728.989	6405
1731.142	6543
1733.295	6436
1735.449	6539
1737.601	6546
1739.753	6456
1741.903	6564
1744.054	6511
1746.203	6540
1748.354	6504
1750.503	6648
1752.651	6583
1754.798	6608
1756.944	6643
1759.092	6503
1761.238	6626
1763.383	6576
1765.528	6698
1767.672	6623
1769.814	6627
1771.959	6623
1774.102	6658
1776.242	6539
1778.384	6598
1780.525	6602
1782.665	6628
1784.805	6648
1786.945	6681
1789.082	6602
1791.22	6648
1793.36	6791
1795.495	6811
1797.632	6601
1799.766	6654
1801.902	6539
1804.035	6659
1806.172	6675
1808.304	6616
1810.436	6613
1812.569	6661
1814.699	6668
1816.833	6668
1818.963	6699
1821.092	6648
1823.222	6548
1825.35	6591
1827.478	6674
1829.608	6576
1831.734	6609
1833.86	6622
1835.986	6667
1838.11	6572
1840.238	6533
1842.362	6597
1844.485	6501
1846.608	6552
1848.73	6541
1850.853	6600
1852.974	6555
1855.097	6657
1857.217	6477
1859.336	6559
1861.455	6453
1863.576	6561
1865.693	6607
1867.811	6560
1869.926	6662
1872.042	6506
1874.16	6501
1876.275	6666
1878.39	6631
1880.504	6671
1882.618	6536
1884.731	6575
1886.843	6575
1888.956	6717
1891.067	6559
1893.178	6540
1895.287	6657
1897.399	6547
1899.508	6535
1901.617	6652
1903.724	6581
1905.832	6570
1907.941	6708
1910.046	6591
1912.152	6531
1914.256	6754
1916.361	6489
1918.464	6650
1920.57	6677
1922.672	6621
1924.775	6745
1926.876	6758
1928.978	6635
1931.08	6670
1933.181	6716
1935.28	6774
1937.38	6666
1939.478	6695
1941.577	6740
1943.675	6682
1945.771	6571
1947.867	6698
1949.964	6630
1952.058	6628
1954.154	6749
1956.248	6731
1958.343	6636
1960.435	6667
1962.527	6603
1964.62	6612
1966.711	6783
1968.802	6679
1970.892	6650
1972.983	6624
1975.072	6692
1977.162	6694
1979.25	6561
1981.337	6576
1983.424	6626
1985.51	6601
1987.598	6618
1989.683	6643
1991.768	6573
1993.852	6557
1995.934	6598
1998.019	6566
2000.102	6579
2002.184	6678
2004.266	6695
2006.347	6656
2008.427	6650
2010.508	6669
2012.587	6677
2014.666	6591
2016.745	6531
2018.821	6641
2020.9	6509
2022.977	6485
2025.052	6541
2027.128	6607
2029.204	6586
2031.277	6590
2033.353	6610
2035.425	6731
2037.499	6583
2039.57	6616
2041.642	6680
2043.714	6643
2045.786	6616
2047.855	6647
2049.925	6681
2051.993	6542
2054.064	6657
2056.132	6609
2058.2	6569
2060.266	6698
2062.332	6472
2064.398	6525
2066.465	6616
2068.529	6645
2070.592	6657
2072.657	6674
2074.719	6619
2076.783	6655
2078.845	6703
2080.907	6613
2082.968	6687
2085.028	6676
2087.087	6633
2089.148	6557
2091.207	6545
2093.264	6604
2095.322	6655
2097.379	6709
2099.439	6698
2101.495	6618
2103.55	6788
2105.605	6541
2107.658	6573
2109.713	6627
2111.767	6569
2113.82	6560
2115.872	6672
2117.924	6587
2119.975	6710
2122.028	6627
2124.078	6598
2126.126	6578
2128.176	6475
2130.225	6667
2132.275	6506
2134.321	6645
2136.368	6612
2138.415	6617
2140.461	6572
2142.505	6497
2144.552	6646
2146.597	6627
2148.64	6592
2150.684	6568
2152.725	6609
2154.77	6553
2156.811	6693
2158.852	6648
2160.894	6540
2162.933	6523
2164.973	6591
2167.013	6616
2169.051	6534
2171.089	6521
2173.126	6539
2175.164	6632
2177.201	6569
2179.236	6493
2181.273	6587
2183.307	6479
2185.341	6564
2187.377	6400
2189.41	6539
2191.442	6512
2193.473	6473
2195.506	6463
2197.539	6497
2199.569	6508
2201.598	6403
2203.628	6470
2205.656	6442
2207.686	6435
2209.716	6425
2211.743	6480
2213.769	6446
2215.796	6474
2217.821	6462
2219.848	6510
2221.873	6436
2223.897	6417
2225.921	6441
2227.944	6396
2229.967	6420
2231.991	6425
2234.011	6399
2236.032	6473
2238.053	6453
2240.073	6432
2242.094	6466
2244.114	6508
2246.131	6492
2248.149	6435
2250.167	6562
2252.186	6482
2254.201	6460
2256.218	6387
2258.233	6426
2260.247	6514
2262.262	6462
2264.278	6365
2266.29	6409
2268.303	6373
2270.315	6461
2272.327	6431
2274.341	6411
2276.35	6327
2278.361	6556
2280.37	6445
2282.38	6366
2284.388	6478
2286.397	6429
2288.405	6412
2290.412	6330
2292.419	6432
2294.425	6466
2296.431	6445
2298.437	6496
2300.441	6430
2302.445	6388
2304.449	6379
2306.453	6402
2308.455	6345
2310.457	6412
2312.459	6481
2314.46	6397
2316.46	6416
2318.461	6308
2320.46	6420
2322.458	6336
2324.458	6288
2326.456	6434
2328.455	6372
2330.451	6317
2332.447	6369
2334.443	6417
2336.438	6424
2338.433	6294
2340.429	6365
2342.422	6251
2344.416	6308
2346.408	6292
2348.399	6389
2350.393	6276
2352.384	6319
2354.375	6386
2356.365	6197
2358.355	6252
2360.344	6214
2362.333	6329
2364.322	6241
2366.309	6324
2368.295	6299
2370.282	6255
2372.27	6390
2374.256	6076
2376.24	6313
2378.225	6245
2380.208	6223
2382.194	6338
2384.177	6280
2386.159	6228
2388.142	6232
2390.122	6215
2392.105	6198
2394.085	6136
2396.066	6241
2398.044	6206
2400.024	6285
2402.002	6190
2403.982	6206
2405.959	6217
2407.935	6065
2409.913	6095
2411.888	6169
2413.865	6154
2415.84	6231
2417.814	6206
2419.788	6229
2421.762	6041
2423.735	6186
2425.708	6271
2427.68	6190
2429.651	6307
2431.623	6086
2433.593	6293
2435.564	6164
2437.533	6120
2439.502	6029
2441.47	6228
2443.438	6192
2445.406	6083
2447.373	6169
2449.34	6106
2451.305	6227
2453.271	6145
2455.235	6081
2457.201	6156
2459.165	6146
2461.129	6202
2463.092	6074
2465.054	6132
2467.018	6162
2468.978	6209
2470.939	6135
2472.899	6064
2474.86	5998
2476.819	5974
2478.778	6096
2480.737	6047
2482.695	6113
2484.653	5984
2486.609	6016
2488.567	6037
2490.524	6092
2492.478	6090
2494.433	6020
2496.387	6090
2498.343	6120
2500.297	5967
2502.249	6049
2504.202	6096
2506.153	6013
2508.105	6024
2510.057	5947
2512.008	6072
2513.957	6018
2515.906	5973
2517.855	6156
2519.805	6109
2521.754	6034
2523.7	6139
2525.647	6124
2527.594	6026
2529.54	6076
2531.486	5979
2533.431	6076
2535.376	6137
2537.32	6123
2539.263	6095
2541.207	5976
2543.151	5939
2545.093	5977
2547.034	6002
2548.975	6023
2550.917	5976
2552.856	6063
2554.796	5851
2556.735	6147
2558.673	5966
2560.611	5962
2562.55	5932
2564.487	6093
2566.424	5998
2568.36	5955
2570.296	5947
2572.232	6011
2574.167	6003
2576.101	5993
2578.035	6048
2579.969	5955
2581.902	6007
2583.834	5988
2585.766	6097
2587.698	6020
2589.628	5966
2591.557	5938
2593.489	6116
2595.419	5949
2597.348	5944
2599.275	6054
2601.204	6011
2603.131	6031
2605.059	6026
2606.986	5972
2608.911	5995
2610.837	5974
2612.76	6002
2614.687	5958
2616.61	5939
2618.534	6005
2620.457	5983
2622.38	5969
2624.302	5898
2626.225	6035
2628.145	5962
2630.067	6110
2631.986	5981
2633.906	6044
2635.827	5970
2637.745	5962
2639.662	5919
2641.581	5976
2643.498	5882
2645.415	5989
2647.331	6086
2649.248	5909
2651.163	5954
2653.077	6005
2654.993	5857
2656.906	6043
2658.821	5998
2660.733	6059
2662.646	5940
2664.557	5887
2666.47	6032
2668.381	5862
2670.291	6050
2672.201	5902
2674.11	5933
2676.021	5857
2677.929	5985
2679.837	6038
2681.745	5874
2683.652	5936
2685.56	5904
2687.466	5857
2689.371	5957
2691.276	5956
2693.181	5898
2695.085	6090
2696.991	5886
2698.893	5991
2700.796	5766
2702.698	5891
2704.601	5980
2706.502	5890
2708.404	5809
2710.304	5889
2712.203	5916
2714.103	5930
2716.003	5737
2717.902	5818
2719.8	5818
2721.697	5796
2723.594	5852
2725.49	5833
2727.389	5841
2729.283	5869
2731.179	5794
2733.073	5903
2734.968	5921
2736.863	5827
2738.757	5836
2740.649	5894
2742.541	5883
2744.433	5760
2746.324	5833
2748.216	5788
2750.107	5955
2751.997	5774
2753.886	5730
2755.776	5832
2757.666	5844
2759.553	5736
2761.44	5819
2763.327	5772
2765.215	5855
2767.102	5771
2768.988	5778
2770.873	5706
2772.757	5736
2774.641	5802
2776.525	5648
2778.41	5740
2780.292	5785
2782.175	5694
2784.057	5735
2785.938	5783
2787.821	5719
2789.701	5836
2791.581	5782
2793.461	5708
2795.34	5691
2797.219	5643
2799.099	5719
2800.975	5637
2802.853	5777
2804.73	5740
2806.606	5688
2808.484	5728
2810.358	5670
2812.233	5660
2814.108	5775
2815.981	5760
2817.857	5602
2819.73	5785
2821.602	5733
2823.474	5619
2825.346	5637
2827.217	5564
2829.089	5602
2830.959	5659
2832.829	5612
2834.698	5704
2836.567	5709
2838.436	5753
2840.305	5576
2842.172	5780
2844.04	5734
2845.905	5708
2847.772	5611
2849.639	5778
2851.503	5739
2853.369	5650
2855.232	5721
2857.096	5758
2858.961	5753
2860.824	5793
2862.686	5833
2864.547	5696
2866.41	5721
2868.272	5846
2870.132	5837
2871.992	5757
2873.851	5913
2875.711	5901
2877.57	5835
2879.429	5882
2881.287	5919
2883.144	5904
2885.001	6092
2886.857	5986
2888.714	5962
2890.57	5890
2892.425	6006
2894.279	5943
2896.133	5977
2897.987	5955
2899.842	5914
2901.694	5980
2903.547	5956
2905.397	6051
2907.249	5999
2909.101	5966
2910.952	5999
2912.802	6041
2914.652	5902
2916.5	5988
2918.35	6143
2920.198	6045
2922.045	6027
2923.893	6159
2925.74	6136
2927.585	6052
2929.433	6197
2931.279	6277
2933.123	6146
2934.968	6273
2936.811	6360
2938.656	6311
2940.5	6227
2942.342	6431
2944.185	6424
2946.026	6396
2947.87	6394
2949.71	6324
2951.549	6296
2953.39	6400
2955.229	6285
2957.069	6319
2958.908	6131
2960.746	6191
2962.584	6144
2964.421	6234
2966.257	6050
2968.094	6091
2969.931	5970
2971.766	6007
2973.601	5956
2975.435	6017
2977.27	5958
2979.105	5853
2980.938	6017
2982.77	5790
2984.602	5843
2986.434	5788
2988.267	5867
2990.097	5748
2991.927	5722
2993.757	5772
2995.587	5853
2997.417	5662
2999.246	5649
3001.074	5550
3002.902	5550
3004.729	5610
3006.556	5602
3008.384	5601
3010.21	5478
3012.036	5507
3013.861	5426
3015.684	5412
3017.51	5515
3019.334	5324
3021.157	5415
3022.981	5336
3024.802	5353
3026.624	5480
3028.448	5324
3030.267	5383
3032.088	5355
3033.909	5253
3035.728	5319
3037.549	5266
3039.368	5283
3041.186	5261
3043.004	5192
3044.821	5212
3046.64	5276
3048.455	5267
3050.272	5255
3052.087	5348
3053.903	5286
3055.717	5241
3057.534	5344
3059.347	5308
3061.16	5133
3062.974	5124
3064.785	5218
3066.598	5190
3068.411	5205
3070.222	5182
3072.032	5280
3073.844	5071
3075.653	5191
3077.463	5215
3079.272	5109
3081.08	5104
3082.889	5219
3084.697	5116
3086.505	5159
3088.312	5165
3090.118	5157
3091.924	5155
3093.729	5117
3095.535	5109
3097.34	5087
3099.144	5123
3100.947	5185
3102.75	5038
3104.553	5106
3106.357	5007
3108.159	5077
3109.961	5059
3111.762	5129
3113.562	5116
3115.365	5178
3117.164	5015
3118.964	5106
3120.761	4989
3122.56	5000
3124.36	4985
3126.158	5050
3127.954	4952
3129.75	5014
3131.547	4981
3133.343	4931
3135.139	5028
3136.934	5003
3138.729	4952
3140.522	4939
3142.317	5010
3144.11	4809
3145.904	4976
3147.695	4957
3149.488	4906
3151.28	4898
3153.07	4889
3154.863	4915
3156.652	4925
3158.441	4903
3160.231	4960
3162.019	4944
3163.81	4847
3165.597	4997
3167.384	4905
3169.172	4850
3170.958	4951
3172.745	4954
3174.532	4902
3176.317	4920
3178.101	4880
3179.885	4768
3181.67	4922
3183.455	4910
3185.238	4841
3187.02	4829
3188.802	4820
3190.585	4790
3192.368	4840
3194.149	4800
3195.929	4833
3197.709	4773
3199.489	4925
3201.268	4821
3203.048	4857
3204.826	4805
3206.604	4744
3208.382	4861
3210.159	4740
3211.937	4859
3213.713	4894
3215.489	4798
3217.263	4734
3219.038	4859
3220.815	4802
3222.589	4824
3224.363	4845
3226.136	4794
3227.908	4766
3229.681	4714
3231.454	4769
3233.226	4804
3234.996	4839
3236.767	4743
3238.538	4858
3240.308	4763
3242.078	4770
3243.847	4818
3245.615	4824
3247.384	4785
3249.15	4787
3250.92	4793
3252.686	4754
3254.453	4811
3256.218	4805
3257.984	4796
3259.75	4777
3261.515	4775
3263.279	4737
3265.044	4750
3266.806	4713
3268.57	4663
3270.334	4745
3272.095	4851
3273.856	4787
3275.619	4681
3277.379	4847
3279.14	4769
3280.9	4720
3282.661	4620
3284.419	4717
3286.178	4673
3287.937	4810
3289.695	4763
3291.453	4816
3293.21	4726
3294.967	4751
3296.723	4734
3298.48	4763
3300.235	4721
3301.99	4688
3303.744	4758
3305.498	4737
3307.253	4767
3309.006	4693
3310.759	4702
3312.511	4725
3314.263	4685
3316.017	4744
3317.768	4871
3319.519	4634
3321.268	4699
3323.018	4733
3324.767	4733
3326.518	4761
3328.267	4753
3330.014	4709
3331.762	4688
3333.509	4719
3335.258	4660
3337.003	4668
3338.75	4665
3340.496	4714
3342.24	4619
3343.987	4724
3345.732	4631
3347.475	4763
3349.219	4569
3350.961	4669
3352.705	4698
3354.448	4725
3356.19	4644
3357.931	4600
3359.672	4627
3361.412	4665
3363.155	4624
3364.894	4649
3366.633	4566
3368.372	4618
3370.11	4607
3371.849	4569
3373.588	4617
3375.325	4609
3377.061	4609
3378.799	4586
3380.534	4612
3382.271	4628
3384.006	4559
3385.741	4530
3387.475	4651
3389.209	4589
3390.944	4526
3392.677	4571
3394.409	4486
3396.143	4524
3397.874	4534
3399.606	4545
3401.338	4582
3403.069	4528
3404.799	4602
3406.528	4581
3408.258	4511
3409.988	4496
3411.717	4545
3413.445	4564
3415.173	4428
3416.899	4511
3418.626	4530
3420.354	4581
3422.08	4579
3423.806	4546
3425.531	4549
3427.255	4430
3428.981	4456
3430.705	4513
3432.429	4412
3434.151	4476
3435.875	4453
3437.599	4426
3439.321	4441
3441.042	4479
3442.763	4526
3444.483	4372
3446.204	4422
3447.926	4459
3449.645	4373
3451.364	4328
3453.082	4452
3454.801	4505
3456.52	4382
3458.238	4311
3459.954	4522
3461.671	4384
3463.387	4340
3465.104	4322
3466.82	4265
3468.534	4382
3470.25	4416
3471.963	4393
3473.676	4312
3475.392	4254
3477.104	4352
3478.817	4293
3480.528	4293
3482.241	4298
3483.954	4394
3485.664	4367
3487.374	4341
3489.084	4290
3490.795	4294
3492.504	4338
3494.214	4280
3495.922	4219
3497.63	4287
3499.338	4261
3501.045	4332
3502.753	4269
3504.459	4279
3506.166	4272
3507.871	4348
3509.576	4175
3511.283	4132
3512.987	4266
3514.691	4274
3516.395	4215
3518.098	4135
3519.8	4287
3521.504	4177
3523.206	4298
3524.908	4235
3526.609	4141
3528.309	4158
3530.011	4239
3531.711	4085
3533.411	4270
3535.109	4149
3536.808	4216
3538.507	4199
3540.206	4185
3541.904	4156
3543.601	4168
3545.297	4185
3546.994	4186
3548.69	4208
3550.387	4122
3552.081	4129
3553.776	4196
3555.47	4136
3557.166	4123
3558.859	4111
3560.553	4231
3562.245	4156
3563.938	4130
3565.629	4100
3567.322	4203
3569.014	4166
3570.704	4122
3572.394	4127
3574.084	4095
3575.775	4073
3577.464	4092
3579.152	4096
3580.842	4088
3582.529	4051
3584.216	4002
3585.905	4137
3587.591	4068
3589.279	4041
3590.964	4095
3592.649	4046
3594.336	4010
3596.021	4028
3597.705	3970
3599.388	4073
3601.072	3977
3602.757	4026
3604.439	4056
3606.122	3938
3607.803	4049
3609.485	4024
3611.167	3896
3612.849	4002
3614.529	4010
3616.208	3855
3617.888	3917
3619.567	3931
3621.247	3918
3622.926	3964
3624.603	3889
3626.281	3947
3627.958	3996
3629.635	3930
3631.312	3882
3632.989	3902
3634.665	3948
3636.339	3868
3638.014	3955
3639.691	3908
3641.364	3895
3643.038	3859
3644.71	3836
3646.384	3903
3648.058	3838
3649.729	3864
3651.402	3888
3653.073	3914
3654.744	3856
3656.414	3909
3658.085	3880
3659.755	3814
3661.424	3862
3663.094	3863
3664.762	3749
3666.431	3894
3668.099	3829
3669.766	3839
3671.433	3840
3673.099	3777
3674.768	3854
3676.433	3712
3678.098	3813
3679.763	3789
3681.428	3760
3683.093	3838
3684.757	3800
3686.421	3776
3688.083	3679
3689.746	3779
3691.408	3784
3693.071	3764
3694.733	3748
3696.394	3747
3698.054	3718
3699.715	3735
3701.375	3695
3703.036	3827
3704.695	3664
3706.354	3814
3708.012	3769
3709.67	3749
3711.329	3702
3712.987	3677
3714.644	3768
3716.299	3771
3717.955	3742
3719.613	3698
3721.268	3782
3722.923	3721
3724.577	3685
3726.231	3726
3727.885	3665
3729.539	3695
3731.192	3731
3732.845	3747
3734.497	3660
3736.149	3689
3737.802	3659
3739.453	3713
3741.104	3622
3742.753	3637
3744.404	3684
3746.052	3662
3747.704	3627
3749.352	3698
3751	3627
3752.648	3659
3754.296	3680
3755.944	3666
3757.59	3675
3759.238	3709
3760.883	3662
3762.528	3702
3764.176	3734
3765.82	3685
3767.464	3588
3769.109	3650
3770.753	3596
3772.396	3553
3774.04	3720
3775.683	3530
3777.325	3636
3778.967	3622
3780.608	3543
3782.25	3663
3783.89	3583
3785.531	3630
3787.17	3674
3788.81	3606
3790.45	3474
3792.09	3592
3793.729	3569
3795.366	3580
3797.003	3572
3798.64	3561
3800.278	3608
3801.915	3529
3803.551	3493
3805.187	3447
3806.822	3574
3808.458	3503
3810.093	3443
3811.726	3621
3813.36	3482
3814.994	3508
3816.627	3504
3818.262	3559
3819.893	3514
3821.525	3505
3823.157	3447
3824.787	3501
3826.42	3471
3828.051	3474
3829.68	3536
3831.31	3483
3832.938	3441
3834.569	3421
3836.198	3484
3837.825	3474
3839.454	3471
3841.08	3496
3842.708	3470
3844.335	3501
3845.962	3432
3847.587	3397
3849.212	3452
3850.838	3411
3852.463	3427
3854.089	3420
3855.712	3415
3857.335	3435
3858.959	3439
3860.582	3445
3862.205	3427
3863.827	3436
3865.449	3479
3867.07	3509
3868.691	3390
3870.312	3384
3871.933	3420
3873.553	3367
3875.173	3372
3876.792	3369
3878.411	3455
3880.03	3308
3881.647	3345
3883.265	3356
3884.882	3413
3886.499	3362
3888.116	3428
3889.732	3341
3891.348	3355
3892.964	3287
3894.579	3368
3896.195	3403
3897.809	3274
3899.423	3322
3901.036	3369
3902.648	3342
3904.261	3361
3905.875	3355
3907.487	3386
3909.099	3304
3910.709	3310
3912.321	3279
3913.933	3351
3915.542	3351
3917.152	3331
3918.762	3320
3920.37	3360
3921.98	3264
3923.589	3337
3925.196	3311
3926.804	3351
3928.41	3322
3930.018	3353
3931.626	3307
3933.231	3398
3934.838	3315
3936.442	3295
3938.046	3360
3939.653	3307
3941.257	3249
3942.861	3300
3944.464	3297
3946.068	3245
3947.67	3356
3949.273	3218
3950.876	3269
3952.477	3249
3954.078	3353
3955.678	3255
3957.281	3247
3958.881	3191
3960.48	3320
3962.079	3237
3963.678	3279
3965.279	3216
3966.877	3203
3968.475	3286
3970.072	3252
3971.669	3202
3973.266	3235
3974.864	3217
3976.459	3279
3978.055	3241
3979.65	3169
3981.245	3221
3982.841	3174
3984.436	3248
3986.03	3231
3987.623	3184
3989.216	3126
3990.809	3151
3992.403	3216
3993.995	3197
3995.586	3203
3997.177	3167
3998.768	3170
4000.361	3161
4001.951	3146
4003.54	3209
4005.13	3129
4006.719	3104
4008.31	3131
4009.897	3079
4011.485	3161
4013.073	3146
4014.66	3063
4016.247	3126
4017.834	3057
4019.421	3160
4021.006	3139
4022.592	3076
4024.178	3076
4025.763	3058
4027.348	3068
4028.932	3093
4030.515	3045
4032.099	3053
4033.682	3058
4035.266	3067
4036.847	3073
4038.429	3029
4040.011	3076
4041.592	3034
4043.173	3050
4044.755	3029
4046.334	3109
4047.913	2989
4049.494	2993
4051.074	3040
4052.652	2947
4054.23	2995
4055.807	2954
4057.385	2987
4058.963	2985
4060.541	2971
4062.117	2958
4063.693	3025
4065.269	3002
4066.844	3025
4068.42	2940
4069.995	3065
4071.569	3025
4073.143	2918
4074.716	2923
4076.291	2954
4077.864	3009
4079.436	2996
4081.009	2936
4082.58	2937
4084.152	2975
4085.723	2929
4087.294	2913
4088.865	2992
4090.435	2950
4092.005	2940
4093.574	2948
4095.143	2983
4096.712	2871
4098.279	2978
4099.848	2957
4101.416	2966
4102.984	2944
4104.55	2929
4106.117	2939
4107.682	2902
4109.248	2948
4110.815	2931
4112.379	2901
4113.945	2908
4115.508	2876
4117.073	2882
4118.637	2911
4120.201	2834
4121.763	2897
4123.325	2940
4124.888	2900
4126.449	2851
4128.013	2880
4129.573	2851
4131.133	2918
4132.694	2866
4134.254	2876
4135.814	2843
4137.374	2897
4138.933	2848
4140.491	2781
4142.049	2836
4143.607	2836
4145.167	2867
4146.724	2854
4148.28	2822
4149.836	2836
4151.392	2821
4152.949	2847
4154.504	2794
4156.059	2858
4157.614	2826
4159.168	2795
4160.723	2803
4162.277	2774
4163.83	2823
4165.383	2807
4166.936	2822
4168.488	2852
4170.041	2766
4171.593	2752
4173.144	2793
4174.695	2721
4176.246	2787
4177.796	2732
4179.346	2690
4180.896	2729
4182.445	2732
4183.994	2791
4185.542	2751
4187.091	2756
4188.639	2718
4190.185	2712
4191.732	2743
4193.279	2710
4194.826	2758
4196.373	2771
4197.918	2737
4199.463	2654
4201.008	2740
4202.553	2682
4204.098	2749
4205.641	2718
4207.185	2744
4208.728	2701
4210.271	2721
4211.814	2699
4213.357	2584
4214.898	2678
4216.439	2707
4217.98	2699
4219.522	2681
4221.062	2712
4222.603	2665
4224.142	2650
4225.681	2613
4227.222	2670
4228.76	2672
4230.298	2680
4231.835	2687
4233.373	2641
4234.911	2698
4236.449	2640
4237.985	2601
4239.521	2669
4241.057	2510
4242.592	2654
4244.128	2621
4245.663	2712
4247.197	2683
4248.731	2599
4250.265	2655
4251.798	2644
4253.333	2621
4254.865	2681
4256.397	2620
4257.93	2658
4259.461	2662
4260.994	2596
4262.525	2579
4264.056	2644
4265.586	2601
4267.115	2654
4268.646	2535
4270.176	2584
4271.705	2535
4273.232	2634
4274.761	2623
4276.289	2654
4277.818	2652
4279.345	2631
4280.872	2541
4282.399	2656
4283.924	2556
4285.452	2591
4286.976	2548
4288.502	2627
4290.026	2607
4291.551	2630
4293.074	2555
4294.6	2595
4296.123	2595
4297.646	2556
4299.168	2600
4300.691	2564
4302.214	2487
4303.736	2563
4305.257	2469
4306.778	2555
4308.299	2508
4309.82	2571
4311.34	2500
4312.86	2556
4314.379	2514
