400.0745	4831
402.597	4837
405.1208	4795
407.6419	4834
410.1623	4974
412.6819	4833
415.201	4859
417.7172	5049
420.2369	4985
422.7538	4975
425.2701	5134
427.7856	5106
430.3005	5186
432.8147	5192
435.3282	5162
437.841	5205
440.3511	5125
442.8625	5213
445.3753	5224
447.8854	5233
450.3927	5216
452.9014	5232
455.4073	5197
457.9146	5216
460.4233	5076
462.9272	5089
465.4325	5194
467.935	5093
470.4389	5245
472.9421	5107
475.4446	5169
477.9444	5204
480.4456	5074
482.944	5243
485.4417	5206
487.9429	5309
490.4393	5294
492.935	5288
495.4321	5314
497.9264	5295
500.4221	5334
502.9171	5263
505.4094	5346
507.9011	5289
510.392	5211
512.8864	5312
515.3759	5341
517.8649	5323
520.3531	5431
522.8406	5446
525.3275	5442
527.8178	5296
530.3033	5378
532.7881	5333
535.2723	5380
537.7558	5347
540.2407	5380
542.7228	5377
545.2043	5342
547.6851	5402
550.1652	5451
552.6467	5343
555.1255	5475
557.6016	5495
560.079	5553
562.5557	5540
565.0318	5478
567.5092	5559
569.984	5557
572.456	5618
574.9294	5693
577.4022	5685
579.8762	5621
582.3456	5588
584.8163	5677
587.2863	5722
589.7557	5675
592.2224	5750
594.6924	5648
597.1578	5631
599.6245	5596
602.0905	5659
604.5538	5571
607.0206	5647
609.4825	5640
611.9459	5705
614.4066	5577
616.8686	5586
619.33	5567
621.7906	5442
624.2487	5510
626.708	5527
629.1647	5588
631.6207	5496
634.0801	5664
636.5348	5548
638.9888	5560
641.4442	5643
643.8969	5589
646.3509	5635
648.8022	5670
651.255	5632
653.705	5700
656.1544	5731
658.6031	5670
661.0532	5589
663.5026	5703
665.9493	5537
668.3954	5644
670.8409	5699
673.2877	5671
675.7318	5782
678.1752	5819
680.618	5754
683.0601	5816
685.5035	5745
687.9444	5801
690.3845	5777
692.824	5804
695.2628	5703
697.701	5781
700.1406	5762
702.5774	5777
705.0116	5785
707.4472	5886
709.8821	5860
712.3183	5859
714.7519	5883
717.1829	5790
719.6151	5924
722.0468	5896
724.4777	5955
726.908	6046
729.3377	5947
731.7667	6027
734.1931	6019
736.6208	5898
739.0498	6034
741.4742	6001
743.9	5978
746.3231	6112
748.7476	6068
751.1713	6086
753.5945	6040
756.015	6112
758.4368	6140
760.856	6143
763.2766	6150
765.6965	6136
768.1157	6083
770.5323	6063
772.9483	6247
775.3656	6289
777.7822	6243
780.1963	6162
782.6116	6164
785.0244	6216
787.4365	6291
789.8499	6219
792.2626	6126
794.6728	6128
797.0823	6116
799.4911	6273
801.8994	6196
804.3109	6069
806.7178	6206
809.124	6309
811.5297	6266
813.9347	6290
816.341	6373
818.7447	6271
821.1478	6242
823.5502	6279
825.952	6415
828.3531	6277
830.7556	6257
833.1554	6296
835.5546	6307
837.9532	6327
840.3511	6300
842.7504	6509
845.1451	6499
847.5411	6313
849.9365	6475
852.3312	6481
854.7272	6463
857.1187	6537
859.5115	6470
861.9037	6434
864.2952	6448
866.6842	6430
869.0764	6401
871.4661	6523
873.8531	6467
876.2415	6388
878.6272	6397
881.0162	6367
883.4026	6347
885.7866	6365
888.1717	6365
890.5543	6355
892.9382	6351
895.3215	6413
897.7041	6339
900.0842	6520
902.4655	6460
904.8443	6409
907.2244	6529
909.6039	6454
911.9808	6469
914.357	6461
916.7346	6551
919.1115	6655
921.4859	6574
923.8616	6581
926.2347	6706
928.6071	6679
930.979	6787
933.3541	6703
935.7247	6727
938.0946	6755
940.4639	6860
942.8326	6940
945.2026	7053
947.5701	7210
949.9369	7275
952.305	7515
954.6705	7883
957.0355	8274
959.4017	8480
961.7654	8664
964.1284	8530
966.4908	8282
968.8527	7745
971.2138	7662
973.5743	7322
975.9343	7132
978.2936	6853
980.6522	6771
983.0122	6720
985.3696	6663
987.7245	6712
990.0807	6676
992.4362	6696
994.7911	6626
997.1474	6756
999.4991	6542
1001.852	6900
1004.205	6693
1006.555	6627
1008.908	6618
1011.258	6677
1013.606	6630
1015.956	6735
1018.302	6705
1020.652	6673
1022.998	6766
1025.345	6680
1027.691	6765
1030.035	6745
1032.378	6815
1034.724	6799
1037.066	6671
1039.409	6845
1041.75	6764
1044.092	6876
1046.433	6842
1048.771	6827
1051.112	6800
1053.449	6742
1055.786	6882
1058.124	6779
1060.462	6738
1062.797	6789
1065.131	6893
1067.467	7005
1069.8	6987
1072.135	7026
1074.467	7007
1076.798	7029
1079.129	7034
1081.459	6702
1083.792	6934
1086.121	6925
1088.449	6757
1090.777	6767
1093.104	6798
1095.431	6817
1097.759	6834
1100.084	6810
1102.408	6808
1104.732	6849
1107.056	6804
1109.379	6786
1111.701	6823
1114.022	6803
1116.343	6806
1118.664	6917
1120.983	6770
1123.303	6871
1125.621	6711
1127.939	6761
1130.256	6782
1132.573	6745
1134.889	6781
1137.205	6849
1139.52	6890
1141.832	6761
1144.146	6781
1146.461	6829
1148.771	6767
1151.083	6717
1153.392	6740
1155.703	6666
1158.011	6782
1160.323	6845
1162.629	6742
1164.938	6871
1167.243	6730
1169.55	6818
1171.857	6772
1174.163	6769
1176.466	6677
1178.769	6844
1181.073	6873
1183.374	6791
1185.677	6787
1187.979	6866
1190.279	6843
1192.578	6782
1194.878	6764
1197.178	6860
1199.476	6787
1201.772	6851
1204.068	6849
1206.366	6909
1208.663	6844
1210.957	6804
1213.251	6776
1215.544	6780
1217.836	6755
1220.128	6919
1222.421	6848
1224.712	6836
1227.002	7000
1229.292	6909
1231.581	7030
1233.871	6989
1236.159	6954
1238.446	7069
1240.732	7158
1243.018	6919
1245.304	7150
1247.59	6965
1249.874	7136
1252.156	7110
1254.439	7087
1256.721	7000
1259.005	7047
1261.286	6932
1263.565	7076
1265.845	6978
1268.125	7051
1270.403	7118
1272.682	7065
1274.959	7015
1277.234	6995
1279.511	6966
1281.787	7047
1284.062	7065
1286.337	6983
1288.609	6985
1290.882	7038
1293.153	7005
1295.428	6926
1297.698	6913
1299.969	6953
1302.237	6871
1304.507	6917
1306.777	6907
1309.044	6884
1311.312	6947
1313.578	6845
1315.844	6879
1318.109	6969
1320.375	6882
1322.638	6959
1324.903	6966
1327.165	6909
1329.427	6957
1331.69	6935
1333.952	6951
1336.212	6985
1338.471	6962
1340.73	6853
1342.988	6965
1345.248	6924
1347.505	7009
1349.763	7020
1352.019	6911
1354.274	6979
1356.53	6933
1358.784	7010
1361.038	6912
1363.291	6995
1365.543	6929
1367.797	7037
1370.048	6880
1372.296	6880
1374.546	7064
1376.796	6911
1379.045	7040
1381.295	6988
1383.542	7018
1385.787	7013
1388.034	7099
1390.28	7044
1392.527	7002
1394.772	7218
1397.014	6936
1399.258	7055
1401.501	6968
1403.741	7155
1405.985	7057
1408.226	7089
1410.465	7086
1412.705	7127
1414.943	6943
1417.184	7011
1419.42	7156
1421.658	7141
1423.894	7007
1426.13	7150
1428.366	7212
1430.602	7193
1432.835	7123
1435.069	7154
1437.301	7332
1439.535	7153
1441.767	7129
1443.997	7248
1446.229	7331
1448.458	7280
1450.687	7282
1452.916	7234
1455.146	7369
1457.372	7370
1459.599	7280
1461.824	7327
1464.051	7317
1466.277	7328
1468.501	7115
1470.725	7108
1472.948	7213
1475.17	7141
1477.393	7178
1479.614	7060
1481.837	7172
1484.057	7024
1486.276	7053
1488.497	6996
1490.715	7068
1492.932	7121
1495.148	7055
1497.364	6937
1499.58	7093
1501.798	6894
1504.012	6911
1506.227	6904
1508.44	6902
1510.653	6880
1512.866	6896
1515.078	6956
1517.289	6961
1519.5	6860
1521.711	6940
1523.92	6771
1526.13	6900
1528.338	6987
1530.544	6840
1532.752	7001
1534.959	6953
1537.165	6844
1539.371	6941
1541.574	6938
1543.779	7009
1545.983	6872
1548.187	6842
1550.39	7065
1552.59	6957
1554.792	6976
1556.991	7001
1559.19	7067
1561.392	7099
1563.59	6939
1565.789	7041
1567.986	7056
1570.182	7039
1572.381	7017
1574.576	7017
1576.771	7108
1578.966	7101
1581.16	7158
1583.354	7176
1585.546	7162
1587.74	7043
1589.931	7116
1592.121	7136
1594.311	7207
1596.502	7172
1598.693	7138
1600.881	7150
1603.069	7111
1605.256	7210
1607.445	7216
1609.631	7278
1611.816	7193
1614.001	7194
1616.186	7037
1618.37	7160
1620.555	7167
1622.737	7117
1624.919	7226
1627.101	7227
1629.282	7231
1631.463	7292
1633.643	7243
1635.822	7255
1638.001	7146
1640.179	7185
1642.359	7239
1644.534	7276
1646.711	7378
1648.887	7193
1651.062	7255
1653.235	7288
1655.412	7236
1657.586	7252
1659.757	7288
1661.93	7331
1664.1	7270
1666.274	7211
1668.445	7322
1670.614	7441
1672.784	7364
1674.951	7360
1677.12	7230
1679.289	7438
1681.457	7336
1683.622	7291
1685.789	7301
1687.953	7304
1690.121	7204
1692.284	7225
1694.447	7249
1696.611	7219
1698.772	7095
1700.935	7202
1703.098	7077
1705.258	7262
1707.417	7092
1709.576	7174
1711.736	7165
1713.896	7085
1716.053	7106
1718.21	7182
1720.366	7016
1722.522	7060
1724.68	7041
1726.835	6986
1728.989	7024
1731.142	7086
1733.295	6957
1735.449	7201
1737.601	7041
1739.753	7041
1741.903	7058
1744.054	7034
1746.203	7135
1748.354	7134
1750.503	7207
1752.651	7100
1754.798	7146
1756.944	7126
1759.092	7208
1761.238	7141
1763.383	7056
1765.528	7233
1767.672	7042
1769.814	7032
1771.959	7127
1774.102	7020
1776.242	7155
1778.384	7168
1780.525	7113
1782.665	7124
1784.805	7147
1786.945	7198
1789.082	7103
1791.22	7273
1793.36	7173
1795.495	7305
1797.632	7261
1799.766	7200
1801.902	7099
1804.035	7235
1806.172	7194
1808.304	7118
1810.436	7182
1812.569	7183
1814.699	7138
1816.833	7120
1818.963	7110
1821.092	7228
1823.222	7114
1825.35	7214
1827.478	7229
1829.608	7141
1831.734	7224
1833.86	7002
1835.986	7174
1838.11	7062
1840.238	7216
1842.362	7084
1844.485	6920
1846.608	7149
1848.73	7063
1850.853	7187
1852.974	7020
1855.097	7183
1857.217	7032
1859.336	7073
1861.455	7079
1863.576	7063
1865.693	6968
1867.811	7175
1869.926	6995
1872.042	7013
1874.16	7044
1876.275	7070
1878.39	7049
1880.504	7066
1882.618	7028
1884.731	7239
1886.843	7119
1888.956	7111
1891.067	7113
1893.178	7185
1895.287	7080
1897.399	7149
1899.508	7166
1901.617	7137
1903.724	7137
1905.832	7247
1907.941	7133
1910.046	7182
1912.152	7204
1914.256	7209
1916.361	7117
1918.464	7122
1920.57	7096
1922.672	7417
1924.775	7185
1926.876	7072
1928.978	7233
1931.08	7211
1933.181	7293
1935.28	7186
1937.38	7239
1939.478	7186
1941.577	7261
1943.675	7144
1945.771	7160
1947.867	7261
1949.964	7216
1952.058	7298
1954.154	7205
1956.248	7315
1958.343	7040
1960.435	7219
1962.527	7131
1964.62	7182
1966.711	7181
1968.802	7149
1970.892	7200
1972.983	7268
1975.072	7193
1977.162	7126
1979.25	7150
1981.337	7217
1983.424	7172
1985.51	7173
1987.598	7138
1989.683	6997
1991.768	7099
1993.852	7037
1995.934	7195
1998.019	7190
2000.102	7070
2002.184	7207
2004.266	7196
2006.347	7051
2008.427	7069
2010.508	7152
2012.587	7136
2014.666	7086
2016.745	7187
2018.821	7063
2020.9	7156
2022.977	7086
2025.052	7037
2027.128	7196
2029.204	7092
2031.277	7108
2033.353	7161
2035.425	7117
2037.499	7143
2039.57	7055
2041.642	7012
2043.714	6990
2045.786	7091
2047.855	7173
2049.925	7111
2051.993	7075
2054.064	7039
2056.132	7024
2058.2	6925
2060.266	7139
2062.332	7022
2064.398	7049
2066.465	7001
2068.529	7231
2070.592	7115
2072.657	7043
2074.719	7090
2076.783	7081
2078.845	7130
2080.907	7072
2082.968	7063
2085.028	7068
2087.087	7040
2089.148	7100
2091.207	7085
2093.264	7057
2095.322	7102
2097.379	7046
2099.439	7062
2101.495	6982
2103.55	7110
2105.605	7119
2107.658	7046
2109.713	7247
2111.767	7000
2113.82	7114
2115.872	7112
2117.924	7090
2119.975	7032
2122.028	7117
2124.078	7034
2126.126	7118
2128.176	7022
2130.225	7127
2132.275	6946
2134.321	6963
2136.368	7057
2138.415	7148
2140.461	7100
2142.505	7044
2144.552	7044
2146.597	6989
2148.64	7029
2150.684	7011
2152.725	6932
2154.77	6962
2156.811	7017
2158.852	7059
2160.894	7043
2162.933	6995
2164.973	7024
2167.013	7022
2169.051	6913
2171.089	6934
2173.126	7028
2175.164	7042
2177.201	6868
2179.236	6915
2181.273	7037
2183.307	6807
2185.341	6933
2187.377	6883
2189.41	6980
2191.442	6872
2193.473	7028
2195.506	6880
2197.539	6945
2199.569	6903
2201.598	6863
2203.628	6870
2205.656	6976
2207.686	6806
2209.716	7034
2211.743	6901
2213.769	6822
2215.796	6854
2217.821	6880
2219.848	6846
2221.873	6884
2223.897	6810
2225.921	6866
2227.944	6836
2229.967	6921
2231.991	6844
2234.011	6939
2236.032	6870
2238.053	6791
2240.073	6926
2242.094	6850
2244.114	6804
2246.131	6821
2248.149	6846
2250.167	6918
2252.186	6841
2254.201	6885
2256.218	6905
2258.233	6775
2260.247	6832
2262.262	6862
2264.278	6884
2266.29	6928
2268.303	6867
2270.315	6885
2272.327	6908
2274.341	6863
2276.35	6835
2278.361	6781
2280.37	6804
2282.38	6849
2284.388	6770
2286.397	6855
2288.405	6767
2290.412	6778
2292.419	6816
2294.425	6823
2296.431	6806
2298.437	6842
2300.441	6664
2302.445	6848
2304.449	6859
2306.453	6842
2308.455	6716
2310.457	6766
2312.459	6807
2314.46	6692
2316.46	6739
2318.461	6812
2320.46	6732
2322.458	6782
2324.458	6813
2326.456	6722
2328.455	6787
2330.451	6740
2332.447	6688
2334.443	6799
2336.438	6818
2338.433	6720
2340.429	6703
2342.422	6645
2344.416	6663
2346.408	6773
2348.399	6768
2350.393	6633
2352.384	6737
2354.375	6681
2356.365	6636
2358.355	6695
2360.344	6668
2362.333	6745
2364.322	6654
2366.309	6726
2368.295	6690
2370.282	6606
2372.27	6701
2374.256	6593
2376.24	6558
2378.225	6557
2380.208	6568
2382.194	6530
2384.177	6570
2386.159	6649
2388.142	6483
2390.122	6613
2392.105	6545
2394.085	6591
2396.066	6673
2398.044	6645
2400.024	6664
2402.002	6537
2403.982	6525
2405.959	6497
2407.935	6550
2409.913	6611
2411.888	6553
2413.865	6585
2415.84	6641
2417.814	6566
2419.788	6467
2421.762	6453
2423.735	6472
2425.708	6604
2427.68	6576
2429.651	6537
2431.623	6563
2433.593	6510
2435.564	6551
2437.533	6582
2439.502	6602
2441.47	6583
2443.438	6530
2445.406	6663
2447.373	6478
2449.34	6476
2451.305	6561
2453.271	6442
2455.235	6474
2457.201	6426
2459.165	6425
2461.129	6461
2463.092	6463
2465.054	6522
2467.018	6460
2468.978	6571
2470.939	6507
2472.899	6536
2474.86	6590
2476.819	6434
2478.778	6520
2480.737	6527
2482.695	6430
2484.653	6397
2486.609	6507
2488.567	6422
2490.524	6462
2492.478	6378
2494.433	6477
2496.387	6406
2498.343	6405
2500.297	6506
2502.249	6459
2504.202	6372
2506.153	6413
2508.105	6496
2510.057	6447
2512.008	6456
2513.957	6366
2515.906	6418
2517.855	6475
2519.805	6427
2521.754	6467
2523.7	6444
2525.647	6300
2527.594	6394
2529.54	6344
2531.486	6507
2533.431	6425
2535.376	6420
2537.32	6351
2539.263	6354
2541.207	6461
2543.151	6422
2545.093	6293
2547.034	6360
2548.975	6406
2550.917	6271
2552.856	6290
2554.796	6440
2556.735	6383
2558.673	6434
2560.611	6339
2562.55	6324
2564.487	6389
2566.424	6490
2568.36	6385
2570.296	6315
2572.232	6386
2574.167	6375
2576.101	6371
2578.035	6378
2579.969	6406
2581.902	6327
2583.834	6360
2585.766	6439
2587.698	6282
2589.628	6459
2591.557	6230
2593.489	6398
2595.419	6316
2597.348	6401
2599.275	6324
2601.204	6401
2603.131	6418
2605.059	6304
2606.986	6444
2608.911	6354
2610.837	6419
2612.76	6359
2614.687	6302
2616.61	6382
2618.534	6309
2620.457	6297
2622.38	6356
2624.302	6334
2626.225	6255
2628.145	6319
2630.067	6438
2631.986	6270
2633.906	6450
2635.827	6385
2637.745	6435
2639.662	6300
2641.581	6402
2643.498	6463
2645.415	6372
2647.331	6310
2649.248	6339
2651.163	6345
2653.077	6402
2654.993	6415
2656.906	6349
2658.821	6355
2660.733	6295
2662.646	6281
2664.557	6341
2666.47	6539
2668.381	6352
2670.291	6267
2672.201	6322
2674.11	6241
2676.021	6323
2677.929	6262
2679.837	6444
2681.745	6298
2683.652	6336
2685.56	6325
2687.466	6142
2689.371	6214
2691.276	6279
2693.181	6231
2695.085	6320
2696.991	6117
2698.893	6417
2700.796	6299
2702.698	6249
2704.601	6284
2706.502	6300
2708.404	6295
2710.304	6224
2712.203	6117
2714.103	6170
2716.003	6200
2717.902	6206
2719.8	6197
2721.697	6178
2723.594	6176
2725.49	6275
2727.389	6159
2729.283	6251
2731.179	6123
2733.073	6278
2734.968	6363
2736.863	6153
2738.757	6152
2740.649	6314
2742.541	6133
2744.433	6164
2746.324	6214
2748.216	6085
2750.107	6259
2751.997	6212
2753.886	6241
2755.776	6202
2757.666	6106
2759.553	6161
2761.44	6144
2763.327	6215
2765.215	6233
2767.102	6300
2768.988	6119
2770.873	6082
2772.757	6062
2774.641	6133
2776.525	6130
2778.41	6115
2780.292	6168
2782.175	6160
2784.057	6147
2785.938	6033
2787.821	6063
2789.701	6156
2791.581	6157
2793.461	6261
2795.34	6128
2797.219	6130
2799.099	6169
2800.975	6041
2802.853	6176
2804.73	6026
2806.606	6098
2808.484	6155
2810.358	6097
2812.233	6167
2814.108	6095
2815.981	5981
2817.857	6106
2819.73	6174
2821.602	6132
2823.474	6089
2825.346	6023
2827.217	6102
2829.089	6170
2830.959	6054
2832.829	6189
2834.698	6051
2836.567	6064
2838.436	6088
2840.305	6106
2842.172	6105
2844.04	6055
2845.905	6153
2847.772	6203
2849.639	6088
2851.503	6124
2853.369	6142
2855.232	6263
2857.096	6098
2858.961	6134
2860.824	6169
2862.686	6124
2864.547	6327
2866.41	6193
2868.272	6215
2870.132	6343
2871.992	6483
2873.851	6428
2875.711	6423
2877.57	6469
2879.429	6480
2881.287	6610
2883.144	6679
2885.001	6626
2886.857	6706
2888.714	6608
2890.57	6640
2892.425	6611
2894.279	6610
2896.133	6615
2897.987	6529
2899.842	6516
2901.694	6664
2903.547	6505
2905.397	6627
2907.249	6570
2909.101	6704
2910.952	6624
2912.802	6652
2914.652	6706
2916.5	6826
2918.35	6720
2920.198	6886
2922.045	6899
2923.893	6869
2925.74	6954
2927.585	7073
2929.433	7106
2931.279	7198
2933.123	7108
2934.968	7301
2936.811	7300
2938.656	7343
2940.5	7478
2942.342	7504
2944.185	7451
2946.026	7460
2947.87	7431
2949.71	7525
2951.549	7383
2953.39	7269
2955.229	7332
2957.069	7147
2958.908	7229
2960.746	7035
2962.584	7140
2964.421	6977
2966.257	7018
2968.094	6981
2969.931	6874
2971.766	6921
2973.601	6852
2975.435	6799
2977.27	6762
2979.105	6636
2980.938	6677
2982.77	6615
2984.602	6589
2986.434	6667
2988.267	6732
2990.097	6578
2991.927	6488
2993.757	6494
2995.587	6546
2997.417	6337
2999.246	6422
3001.074	6353
3002.902	6252
3004.729	6173
3006.556	6257
3008.384	6219
3010.21	6153
3012.036	6129
3013.861	6135
3015.684	5953
3017.51	5925
3019.334	5915
3021.157	5833
3022.981	5882
3024.802	5779
3026.624	5792
3028.448	5732
3030.267	5688
3032.088	5673
3033.909	5792
3035.728	5617
3037.549	5746
3039.368	5784
3041.186	5774
3043.004	5633
3044.821	5752
3046.64	5740
3048.455	5638
3050.272	5699
3052.087	5772
3053.903	5781
3055.717	5600
3057.534	5776
3059.347	5661
3061.16	5699
3062.974	5708
3064.785	5695
3066.598	5639
3068.411	5643
3070.222	5623
3072.032	5654
3073.844	5691
3075.653	5588
3077.463	5608
3079.272	5578
3081.08	5665
3082.889	5607
3084.697	5598
3086.505	5416
3088.312	5560
3090.118	5530
3091.924	5630
3093.729	5635
3095.535	5436
3097.34	5485
3099.144	5566
3100.947	5463
3102.75	5523
3104.553	5524
3106.357	5522
3108.159	5565
3109.961	5571
3111.762	5512
3113.562	5515
3115.365	5471
3117.164	5503
3118.964	5590
3120.761	5472
3122.56	5439
3124.36	5438
3126.158	5456
3127.954	5444
3129.75	5467
3131.547	5427
3133.343	5358
3135.139	5407
3136.934	5316
3138.729	5486
3140.522	5471
3142.317	5458
3144.11	5427
3145.904	5368
3147.695	5402
3149.488	5432
3151.28	5345
3153.07	5407
3154.863	5409
3156.652	5411
3158.441	5420
3160.231	5379
3162.019	5366
3163.81	5410
3165.597	5387
3167.384	5258
3169.172	5397
3170.958	5467
3172.745	5290
3174.532	5412
3176.317	5251
3178.101	5357
3179.885	5291
3181.67	5310
3183.455	5362
3185.238	5403
3187.02	5346
3188.802	5351
3190.585	5285
3192.368	5220
3194.149	5274
3195.929	5349
3197.709	5320
3199.489	5283
3201.268	5401
3203.048	5240
3204.826	5242
3206.604	5215
3208.382	5309
3210.159	5264
3211.937	5331
3213.713	5313
3215.489	5302
3217.263	5270
3219.038	5345
3220.815	5409
3222.589	5277
3224.363	5264
3226.136	5298
3227.908	5284
3229.681	5273
3231.454	5255
3233.226	5216
3234.996	5304
3236.767	5197
3238.538	5216
3240.308	5238
3242.078	5349
3243.847	5230
3245.615	5273
3247.384	5323
3249.15	5352
3250.92	5259
3252.686	5155
3254.453	5268
3256.218	5242
3257.984	5262
3259.75	5180
3261.515	5227
3263.279	5281
3265.044	5202
3266.806	5129
3268.57	5312
3270.334	5246
3272.095	5271
3273.856	5274
3275.619	5200
3277.379	5277
3279.14	5272
3280.9	5239
3282.661	5282
3284.419	5330
3286.178	5207
3287.937	5309
3289.695	5257
3291.453	5319
3293.21	5207
3294.967	5232
3296.723	5211
3298.48	5320
3300.235	5264
3301.99	5235
3303.744	5258
3305.498	5254
3307.253	5224
3309.006	5257
3310.759	5350
3312.511	5219
3314.263	5292
3316.017	5272
3317.768	5275
3319.519	5176
3321.268	5233
3323.018	5329
3324.767	5246
3326.518	5160
3328.267	5269
3330.014	5281
3331.762	5142
3333.509	5220
3335.258	5330
3337.003	5152
3338.75	5245
3340.496	5197
3342.24	5175
3343.987	5131
3345.732	5170
3347.475	5337
3349.219	5140
3350.961	5139
3352.705	5219
3354.448	5122
3356.19	5086
3357.931	5164
3359.672	5205
3361.412	5104
3363.155	5067
3364.894	5055
3366.633	5110
3368.372	5185
3370.11	5215
3371.849	5052
3373.588	5099
3375.325	5040
3377.061	5136
3378.799	5089
3380.534	5069
3382.271	4984
3384.006	5017
3385.741	5084
3387.475	5109
3389.209	5091
3390.944	5172
3392.677	5079
3394.409	5098
3396.143	5113
3397.874	5065
3399.606	5063
3401.338	4999
3403.069	5178
3404.799	5094
3406.528	5014
3408.258	5022
3409.988	4949
3411.717	5004
3413.445	4975
3415.173	5022
3416.899	5091
3418.626	4929
3420.354	5009
3422.08	4911
3423.806	4920
3425.531	4930
3427.255	4965
3428.981	5024
3430.705	5017
3432.429	4927
3434.151	4944
3435.875	4962
3437.599	4941
3439.321	4915
3441.042	4917
3442.763	4953
3444.483	4918
3446.204	4818
3447.926	4970
3449.645	4864
3451.364	4814
3453.082	4967
3454.801	4791
3456.52	4829
3458.238	4791
3459.954	4808
3461.671	4820
3463.387	4843
3465.104	4835
3466.82	4765
3468.534	4787
3470.25	4751
3471.963	4639
3473.676	4739
3475.392	4803
3477.104	4732
3478.817	4728
3480.528	4680
3482.241	4726
3483.954	4787
3485.664	4821
3487.374	4712
3489.084	4696
3490.795	4728
3492.504	4750
3494.214	4672
3495.922	4771
3497.63	4691
3499.338	4707
3501.045	4659
3502.753	4602
3504.459	4657
3506.166	4669
3507.871	4616
3509.576	4667
3511.283	4736
3512.987	4508
3514.691	4653
3516.395	4620
3518.098	4606
3519.8	4606
3521.504	4571
3523.206	4627
3524.908	4496
3526.609	4657
3528.309	4505
3530.011	4620
3531.711	4515
3533.411	4623
3535.109	4476
3536.808	4537
3538.507	4609
3540.206	4558
3541.904	4551
3543.601	4450
3545.297	4584
3546.994	4478
3548.69	4515
3550.387	4498
3552.081	4565
3553.776	4561
3555.47	4519
3557.166	4455
3558.859	4457
3560.553	4506
3562.245	4465
3563.938	4469
3565.629	4418
3567.322	4387
3569.014	4356
3570.704	4487
3572.394	4495
3574.084	4392
3575.775	4518
3577.464	4362
3579.152	4456
3580.842	4407
3582.529	4414
3584.216	4371
3585.905	4419
3587.591	4498
3589.279	4290
3590.964	4400
3592.649	4351
3594.336	4395
3596.021	4358
3597.705	4342
3599.388	4300
3601.072	4251
3602.757	4329
3604.439	4281
3606.122	4300
3607.803	4361
3609.485	4196
3611.167	4420
3612.849	4334
3614.529	4305
3616.208	4287
3617.888	4323
3619.567	4237
3621.247	4221
3622.926	4271
3624.603	4275
3626.281	4171
3627.958	4219
3629.635	4281
3631.312	4248
3632.989	4231
3634.665	4195
3636.339	4212
3638.014	4267
3639.691	4240
3641.364	4230
3643.038	4174
3644.71	4098
3646.384	4161
3648.058	4078
3649.729	4167
3651.402	4071
3653.073	4132
3654.744	4206
3656.414	4150
3658.085	4159
3659.755	4068
3661.424	4161
3663.094	4120
3664.762	4124
3666.431	4079
3668.099	4140
3669.766	4063
3671.433	4126
3673.099	4131
3674.768	4066
3676.433	4109
3678.098	4091
3679.763	4054
3681.428	4107
3683.093	4115
3684.757	4045
3686.421	4064
3688.083	4067
3689.746	4075
3691.408	4087
3693.071	4059
3694.733	4054
3696.394	4011
3698.054	4011
3699.715	4053
3701.375	4035
3703.036	3997
3704.695	4076
3706.354	3998
3708.012	3996
3709.67	4052
3711.329	4008
3712.987	4025
3714.644	3993
3716.299	3953
3717.955	3959
3719.613	4072
3721.268	3970
3722.923	3980
3724.577	4023
3726.231	3925
3727.885	3870
3729.539	3914
3731.192	3949
3732.845	3926
3734.497	3942
3736.149	3962
3737.802	3995
3739.453	3957
3741.104	3907
3742.753	3920
3744.404	3942
3746.052	3915
3747.704	3905
3749.352	3929
3751	3878
3752.648	3907
3754.296	3858
3755.944	3880
3757.59	3876
3759.238	3902
3760.883	3876
3762.528	3867
3764.176	3888
3765.82	3891
3767.464	3818
3769.109	3889
3770.753	3917
3772.396	3818
3774.04	3940
3775.683	3833
3777.325	3816
3778.967	3879
3780.608	3869
3782.25	3812
3783.89	3872
3785.531	3907
3787.17	3900
3788.81	3859
3790.45	3760
3792.09	3829
3793.729	3778
3795.366	3795
3797.003	3802
3798.64	3826
3800.278	3849
3801.915	3791
3803.551	3776
3805.187	3742
3806.822	3750
3808.458	3801
3810.093	3739
3811.726	3726
3813.36	3796
3814.994	3824
3816.627	3704
3818.262	3773
3819.893	3815
3821.525	3852
3823.157	3732
3824.787	3779
3826.42	3776
3828.051	3748
3829.68	3643
3831.31	3739
3832.938	3806
3834.569	3696
3836.198	3669
3837.825	3694
3839.454	3727
3841.08	3653
3842.708	3727
3844.335	3622
3845.962	3682
3847.587	3697
3849.212	3714
3850.838	3679
3852.463	3783
3854.089	3592
3855.712	3618
3857.335	3642
3858.959	3686
3860.582	3691
3862.205	3696
3863.827	3664
3865.449	3633
3867.07	3643
3868.691	3644
3870.312	3710
3871.933	3637
3873.553	3664
3875.173	3694
3876.792	3523
3878.411	3564
3880.03	3596
3881.647	3659
3883.265	3630
3884.882	3551
3886.499	3565
3888.116	3678
3889.732	3666
3891.348	3679
3892.964	3615
3894.579	3581
3896.195	3641
3897.809	3542
3899.423	3679
3901.036	3510
3902.648	3597
3904.261	3571
3905.875	3588
3907.487	3643
3909.099	3584
3910.709	3551
3912.321	3589
3913.933	3584
3915.542	3617
3917.152	3583
3918.762	3616
3920.37	3597
3921.98	3556
3923.589	3584
3925.196	3492
3926.804	3589
3928.41	3572
3930.018	3525
3931.626	3560
3933.231	3539
3934.838	3598
3936.442	3518
3938.046	3501
3939.653	3595
3941.257	3482
3942.861	3530
3944.464	3515
3946.068	3535
3947.67	3538
3949.273	3602
3950.876	3564
3952.477	3465
3954.078	3486
3955.678	3435
3957.281	3550
3958.881	3461
3960.48	3401
3962.079	3468
3963.678	3485
3965.279	3348
3966.877	3496
3968.475	3546
3970.072	3470
3971.669	3471
3973.266	3401
3974.864	3464
3976.459	3404
3978.055	3467
3979.65	3419
3981.245	3387
3982.841	3426
3984.436	3461
3986.03	3440
3987.623	3424
3989.216	3405
3990.809	3388
3992.403	3369
3993.995	3387
3995.586	3353
3997.177	3503
3998.768	3286
4000.361	3360
4001.951	3411
4003.54	3362
4005.13	3472
4006.719	3384
4008.31	3350
4009.897	3381
4011.485	3310
4013.073	3353
4014.66	3346
4016.247	3359
4017.834	3242
4019.421	3378
4021.006	3248
4022.592	3213
4024.178	3336
4025.763	3294
4027.348	3274
4028.932	3215
4030.515	3301
4032.099	3311
4033.682	3266
4035.266	3282
4036.847	3317
4038.429	3291
4040.011	3272
4041.592	3229
4043.173	3212
4044.755	3265
4046.334	3286
4047.913	3266
4049.494	3262
4051.074	3321
4052.652	3289
4054.23	3269
4055.807	3281
4057.385	3293
4058.963	3229
4060.541	3177
4062.117	3142
4063.693	3230
4065.269	3222
4066.844	3234
4068.42	3174
4069.995	3279
4071.569	3219
4073.143	3244
4074.716	3276
4076.291	3188
4077.864	3195
4079.436	3177
4081.009	3177
4082.58	3137
4084.152	3129
4085.723	3170
4087.294	3128
4088.865	3176
4090.435	3228
4092.005	3150
4093.574	3057
4095.143	3171
4096.712	3147
4098.279	3158
4099.848	3104
4101.416	3090
4102.984	3125
4104.55	3166
4106.117	3149
4107.682	3120
4109.248	3118
4110.815	3135
4112.379	3109
4113.945	3166
4115.508	3157
4117.073	3130
4118.637	3109
4120.201	3027
4121.763	3098
4123.325	3154
4124.888	3054
4126.449	3124
4128.013	3165
4129.573	3122
4131.133	3066
4132.694	3028
4134.254	3126
4135.814	3099
4137.374	2990
4138.933	3047
4140.491	3012
4142.049	3068
4143.607	3037
4145.167	3030
4146.724	3073
4148.28	3058
4149.836	3117
4151.392	2979
4152.949	2987
4154.504	3017
4156.059	2995
4157.614	2967
4159.168	3025
4160.723	3047
4162.277	3026
4163.83	2943
4165.383	3011
4166.936	2904
4168.488	2950
4170.041	2978
4171.593	2989
4173.144	2998
4174.695	2955
4176.246	2954
4177.796	2903
4179.346	2934
4180.896	2963
4182.445	2965
4183.994	2970
4185.542	2984
4187.091	2928
4188.639	2951
4190.185	2895
4191.732	2929
4193.279	2930
4194.826	2961
4196.373	2932
4197.918	2915
4199.463	2998
4201.008	2962
4202.553	2898
4204.098	3002
4205.641	2896
4207.185	3012
4208.728	2906
4210.271	2910
4211.814	2876
4213.357	2925
4214.898	2906
4216.439	2868
4217.98	2925
4219.522	2851
4221.062	2896
4222.603	2881
4224.142	2857
4225.681	2897
4227.222	2889
4228.76	2879
4230.298	2874
4231.835	2845
4233.373	2880
4234.911	2888
4236.449	2925
4237.985	2880
4239.521	2936
4241.057	2828
4242.592	2844
4244.128	2880
4245.663	2854
4247.197	2882
4248.731	2839
4250.265	2806
4251.798	2837
4253.333	2852
4254.865	2836
4256.397	2801
4257.93	2820
4259.461	2854
4260.994	2808
4262.525	2831
4264.056	2818
4265.586	2752
4267.115	2867
4268.646	2812
4270.176	2826
4271.705	2816
4273.232	2784
4274.761	2799
4276.289	2821
4277.818	2811
4279.345	2783
4280.872	2738
4282.399	2751
4283.924	2778
4285.452	2803
4286.976	2735
4288.502	2763
4290.026	2802
4291.551	2755
4293.074	2783
4294.6	2715
4296.123	2826
4297.646	2726
4299.168	2774
4300.691	2731
4302.214	2690
4303.736	2728
4305.257	2758
4306.778	2829
4308.299	2741
4309.82	2756
4311.34	2704
4312.86	2736
4314.379	2713
