400.0745	4214
402.597	4223
405.1208	4183
407.6419	4298
410.1623	4287
412.6819	4291
415.201	4311
417.7172	4259
420.2369	4343
422.7538	4408
425.2701	4367
427.7856	4328
430.3005	4448
432.8147	4412
435.3282	4447
437.841	4499
440.3511	4447
442.8625	4502
445.3753	4495
447.8854	4505
450.3927	4419
452.9014	4464
455.4073	4466
457.9146	4485
460.4233	4537
462.9272	4554
465.4325	4490
467.935	4538
470.4389	4436
472.9421	4521
475.4446	4554
477.9444	4519
480.4456	4582
482.944	4586
485.4417	4583
487.9429	4634
490.4393	4536
492.935	4576
495.4321	4656
497.9264	4754
500.4221	4617
502.9171	4678
505.4094	4659
507.9011	4637
510.392	4766
512.8864	4702
515.3759	4731
517.8649	4845
520.3531	4784
522.8406	4729
525.3275	4705
527.8178	4641
530.3033	4697
532.7881	4697
535.2723	4732
537.7558	4695
540.2407	4713
542.7228	4701
545.2043	4747
547.6851	4729
550.1652	4736
552.6467	4762
555.1255	4862
557.6016	4786
560.079	4734
562.5557	4796
565.0318	4858
567.5092	4844
569.984	4908
572.456	4794
574.9294	4857
577.4022	4877
579.8762	4842
582.3456	4997
584.8163	4926
587.2863	4959
589.7557	4895
592.2224	4943
594.6924	4960
597.1578	4990
599.6245	4924
602.0905	4956
604.5538	4994
607.0206	5021
609.4825	4932
611.9459	4832
614.4066	4921
616.8686	4939
619.33	4921
621.7906	4950
624.2487	4939
626.708	5074
629.1647	4876
631.6207	4915
634.0801	4846
636.5348	4921
638.9888	4934
641.4442	4955
643.8969	4950
646.3509	4986
648.8022	4983
651.255	4987
653.705	4987
656.1544	4966
658.6031	5011
661.0532	4997
663.5026	4972
665.9493	4927
668.3954	5063
670.8409	5051
673.2877	5028
675.7318	5070
678.1752	4961
680.618	5143
683.0601	4980
685.5035	5114
687.9444	4984
690.3845	5052
692.824	5083
695.2628	5191
697.701	5174
700.1406	5140
702.5774	5195
705.0116	5141
707.4472	5151
709.8821	5066
712.3183	5210
714.7519	5182
717.1829	5147
719.6151	5222
722.0468	5232
724.4777	5183
726.908	5306
729.3377	5182
731.7667	5256
734.1931	5345
736.6208	5294
739.0498	5333
741.4742	5258
743.9	5420
746.3231	5371
748.7476	5440
751.1713	5377
753.5945	5355
756.015	5323
758.4368	5431
760.856	5472
763.2766	5473
765.6965	5418
768.1157	5477
770.5323	5519
772.9483	5467
775.3656	5579
777.7822	5430
780.1963	5438
782.6116	5501
785.0244	5528
787.4365	5319
789.8499	5441
792.2626	5522
794.6728	5427
797.0823	5512
799.4911	5595
801.8994	5480
804.3109	5511
806.7178	5523
809.124	5489
811.5297	5509
813.9347	5552
816.341	5537
818.7447	5564
821.1478	5527
823.5502	5616
825.952	5463
828.3531	5577
830.7556	5577
833.1554	5598
835.5546	5534
837.9532	5659
840.3511	5581
842.7504	5741
845.1451	5587
847.5411	5659
849.9365	5650
852.3312	5618
854.7272	5665
857.1187	5657
859.5115	5671
861.9037	5707
864.2952	5583
866.6842	5755
869.0764	5653
871.4661	5690
873.8531	5564
876.2415	5622
878.6272	5635
881.0162	5602
883.4026	5636
885.7866	5628
888.1717	5667
890.5543	5654
892.9382	5647
895.3215	5500
897.7041	5664
900.0842	5618
902.4655	5671
904.8443	5640
907.2244	5589
909.6039	5708
911.9808	5705
914.357	5697
916.7346	5614
919.1115	5655
921.4859	5670
923.8616	5689
926.2347	5823
928.6071	5830
930.979	5639
933.3541	5877
935.7247	5815
938.0946	5816
940.4639	5818
942.8326	5921
945.2026	5927
947.5701	5969
949.9369	6056
952.305	6202
954.6705	6414
957.0355	6463
959.4017	6550
961.7654	6630
964.1284	6710
966.4908	6540
968.8527	6421
971.2138	6288
973.5743	6113
975.9343	5864
978.2936	5931
980.6522	5852
983.0122	5831
985.3696	5763
987.7245	5791
990.0807	5799
992.4362	5795
994.7911	5823
997.1474	5790
999.4991	5778
1001.852	5830
1004.205	5847
1006.555	5806
1008.908	5868
1011.258	5973
1013.606	5854
1015.956	5790
1018.302	5814
1020.652	5916
1022.998	5907
1025.345	5980
1027.691	5887
1030.035	5921
1032.378	5819
1034.724	5997
1037.066	5896
1039.409	5932
1041.75	5945
1044.092	5958
1046.433	5846
1048.771	5999
1051.112	5982
1053.449	5954
1055.786	5944
1058.124	5974
1060.462	5870
1062.797	5913
1065.131	5982
1067.467	5873
1069.8	5982
1072.135	6031
1074.467	6011
1076.798	6009
1079.129	6016
1081.459	5977
1083.792	5936
1086.121	5948
1088.449	5896
1090.777	5968
1093.104	5924
1095.431	6072
1097.759	5883
1100.084	5933
1102.408	5905
1104.732	6003
1107.056	5966
1109.379	5947
1111.701	5863
1114.022	5919
1116.343	5995
1118.664	5999
1120.983	5883
1123.303	5982
1125.621	6048
1127.939	6127
1130.256	5955
1132.573	6073
1134.889	6030
1137.205	6024
1139.52	6014
1141.832	6053
1144.146	5897
1146.461	6047
1148.771	6082
1151.083	6010
1153.392	5910
1155.703	6141
1158.011	5976
1160.323	6081
1162.629	6074
1164.938	5989
1167.243	6047
1169.55	5832
1171.857	6086
1174.163	6060
1176.466	5985
1178.769	6012
1181.073	6014
1183.374	6018
1185.677	6041
1187.979	6005
1190.279	6027
1192.578	6020
1194.878	6081
1197.178	5981
1199.476	6059
1201.772	6027
1204.068	5965
1206.366	6034
1208.663	6079
1210.957	6018
1213.251	6022
1215.544	6001
1217.836	6007
1220.128	6036
1222.421	6073
1224.712	6102
1227.002	6158
1229.292	5992
1231.581	6002
1233.871	6129
1236.159	6180
1238.446	6145
1240.732	6189
1243.018	6227
1245.304	6218
1247.59	6242
1249.874	6160
1252.156	6226
1254.439	6133
1256.721	6118
1259.005	6185
1261.286	6141
1263.565	6134
1265.845	6136
1268.125	6144
1270.403	6174
1272.682	6215
1274.959	6304
1277.234	6100
1279.511	6205
1281.787	6204
1284.062	6155
1286.337	6072
1288.609	6125
1290.882	6131
1293.153	6089
1295.428	6031
1297.698	6180
1299.969	6200
1302.237	6140
1304.507	6089
1306.777	6080
1309.044	6044
1311.312	6276
1313.578	6182
1315.844	6110
1318.109	6134
1320.375	6149
1322.638	6143
1324.903	6130
1327.165	6180
1329.427	6022
1331.69	6146
1333.952	6148
1336.212	6051
1338.471	6136
1340.73	6158
1342.988	6131
1345.248	6301
1347.505	6069
1349.763	6116
1352.019	6082
1354.274	6078
1356.53	6214
1358.784	6118
1361.038	6124
1363.291	6152
1365.543	6197
1367.797	6135
1370.048	6266
1372.296	6148
1374.546	6215
1376.796	6190
1379.045	6292
1381.295	6202
1383.542	6199
1385.787	6193
1388.034	5987
1390.28	6211
1392.527	6114
1394.772	6211
1397.014	6129
1399.258	6146
1401.501	6153
1403.741	6137
1405.985	6231
1408.226	6240
1410.465	6196
1412.705	6242
1414.943	6268
1417.184	6246
1419.42	6313
1421.658	6238
1423.894	6219
1426.13	6252
1428.366	6326
1430.602	6209
1432.835	6349
1435.069	6388
1437.301	6333
1439.535	6365
1441.767	6319
1443.997	6302
1446.229	6264
1448.458	6405
1450.687	6347
1452.916	6416
1455.146	6390
1457.372	6313
1459.599	6350
1461.824	6494
1464.051	6342
1466.277	6425
1468.501	6324
1470.725	6227
1472.948	6416
1475.17	6289
1477.393	6270
1479.614	6304
1481.837	6109
1484.057	6275
1486.276	6220
1488.497	6201
1490.715	6191
1492.932	6173
1495.148	6170
1497.364	6126
1499.58	6197
1501.798	6078
1504.012	6226
1506.227	6150
1508.44	6100
1510.653	6208
1512.866	6053
1515.078	6183
1517.289	6167
1519.5	6161
1521.711	6064
1523.92	6107
1526.13	6255
1528.338	6105
1530.544	6269
1532.752	6187
1534.959	6149
1537.165	6138
1539.371	6122
1541.574	6275
1543.779	6262
1545.983	6254
1548.187	6143
1550.39	6231
1552.59	6178
1554.792	6162
1556.991	6142
1559.19	6243
1561.392	6203
1563.59	6312
1565.789	6276
1567.986	6268
1570.182	6282
1572.381	6354
1574.576	6317
1576.771	6341
1578.966	6319
1581.16	6296
1583.354	6355
1585.546	6371
1587.74	6225
1589.931	6336
1592.121	6285
1594.311	6320
1596.502	6278
1598.693	6302
1600.881	6389
1603.069	6261
1605.256	6393
1607.445	6343
1609.631	6382
1611.816	6273
1614.001	6384
1616.186	6331
1618.37	6309
1620.555	6383
1622.737	6378
1624.919	6303
1627.101	6242
1629.282	6265
1631.463	6312
1633.643	6441
1635.822	6336
1638.001	6299
1640.179	6381
1642.359	6394
1644.534	6353
1646.711	6434
1648.887	6356
1651.062	6499
1653.235	6420
1655.412	6381
1657.586	6371
1659.757	6378
1661.93	6442
1664.1	6520
1666.274	6307
1668.445	6452
1670.614	6329
1672.784	6472
1674.951	6388
1677.12	6357
1679.289	6422
1681.457	6347
1683.622	6481
1685.789	6446
1687.953	6464
1690.121	6376
1692.284	6388
1694.447	6278
1696.611	6379
1698.772	6299
1700.935	6386
1703.098	6293
1705.258	6456
1707.417	6338
1709.576	6450
1711.736	6316
1713.896	6315
1716.053	6291
1718.21	6307
1720.366	6321
1722.522	6356
1724.68	6280
1726.835	6334
1728.989	6360
1731.142	6279
1733.295	6380
1735.449	6419
1737.601	6272
1739.753	6337
1741.903	6358
1744.054	6321
1746.203	6372
1748.354	6319
1750.503	6439
1752.651	6350
1754.798	6415
1756.944	6281
1759.092	6340
1761.238	6282
1763.383	6395
1765.528	6439
1767.672	6264
1769.814	6370
1771.959	6388
1774.102	6370
1776.242	6383
1778.384	6403
1780.525	6281
1782.665	6360
1784.805	6412
1786.945	6364
1789.082	6391
1791.22	6374
1793.36	6473
1795.495	6438
1797.632	6305
1799.766	6434
1801.902	6453
1804.035	6483
1806.172	6328
1808.304	6450
1810.436	6351
1812.569	6407
1814.699	6507
1816.833	6411
1818.963	6420
1821.092	6313
1823.222	6392
1825.35	6351
1827.478	6398
1829.608	6315
1831.734	6419
1833.86	6241
1835.986	6369
1838.11	6377
1840.238	6355
1842.362	6425
1844.485	6424
1846.608	6313
1848.73	6357
1850.853	6440
1852.974	6267
1855.097	6218
1857.217	6491
1859.336	6245
1861.455	6286
1863.576	6329
1865.693	6241
1867.811	6296
1869.926	6246
1872.042	6332
1874.16	6323
1876.275	6366
1878.39	6335
1880.504	6287
1882.618	6341
1884.731	6456
1886.843	6334
1888.956	6345
1891.067	6210
1893.178	6479
1895.287	6265
1897.399	6357
1899.508	6380
1901.617	6273
1903.724	6257
1905.832	6432
1907.941	6354
1910.046	6293
1912.152	6434
1914.256	6301
1916.361	6422
1918.464	6358
1920.57	6385
1922.672	6437
1924.775	6418
1926.876	6481
1928.978	6385
1931.08	6335
1933.181	6423
1935.28	6353
1937.38	6362
1939.478	6533
1941.577	6540
1943.675	6402
1945.771	6302
1947.867	6411
1949.964	6418
1952.058	6411
1954.154	6446
1956.248	6398
1958.343	6399
1960.435	6413
1962.527	6388
1964.62	6437
1966.711	6436
1968.802	6310
1970.892	6383
1972.983	6401
1975.072	6339
1977.162	6363
1979.25	6259
1981.337	6341
1983.424	6320
1985.51	6432
1987.598	6377
1989.683	6354
1991.768	6364
1993.852	6326
1995.934	6293
1998.019	6283
2000.102	6339
2002.184	6370
2004.266	6323
2006.347	6287
2008.427	6329
2010.508	6321
2012.587	6316
2014.666	6294
2016.745	6325
2018.821	6273
2020.9	6234
2022.977	6289
2025.052	6375
2027.128	6249
2029.204	6336
2031.277	6267
2033.353	6303
2035.425	6253
2037.499	6384
2039.57	6337
2041.642	6227
2043.714	6273
2045.786	6170
2047.855	6302
2049.925	6374
2051.993	6340
2054.064	6360
2056.132	6364
2058.2	6282
2060.266	6348
2062.332	6323
2064.398	6360
2066.465	6226
2068.529	6241
2070.592	6326
2072.657	6407
2074.719	6380
2076.783	6406
2078.845	6347
2080.907	6306
2082.968	6243
2085.028	6410
2087.087	6352
2089.148	6385
2091.207	6378
2093.264	6285
2095.322	6380
2097.379	6220
2099.439	6322
2101.495	6277
2103.55	6417
2105.605	6242
2107.658	6317
2109.713	6337
2111.767	6284
2113.82	6315
2115.872	6284
2117.924	6228
2119.975	6404
2122.028	6290
2124.078	6371
2126.126	6255
2128.176	6393
2130.225	6274
2132.275	6315
2134.321	6311
2136.368	6248
2138.415	6309
2140.461	6312
2142.505	6332
2144.552	6307
2146.597	6216
2148.64	6222
2150.684	6296
2152.725	6235
2154.77	6193
2156.811	6201
2158.852	6209
2160.894	6223
2162.933	6222
2164.973	6227
2167.013	6410
2169.051	6313
2171.089	6219
2173.126	6264
2175.164	6392
2177.201	6188
2179.236	6337
2181.273	6286
2183.307	6185
2185.341	6026
2187.377	6138
2189.41	6201
2191.442	6266
2193.473	6163
2195.506	6163
2197.539	6193
2199.569	6177
2201.598	6195
2203.628	6080
2205.656	6184
2207.686	6043
2209.716	6155
2211.743	6014
2213.769	6071
2215.796	6135
2217.821	6078
2219.848	6120
2221.873	6116
2223.897	6079
2225.921	6182
2227.944	6013
2229.967	6054
2231.991	6099
2234.011	6164
2236.032	6136
2238.053	6012
2240.073	6085
2242.094	5987
2244.114	6201
2246.131	6120
2248.149	6050
2250.167	6151
2252.186	5998
2254.201	6079
2256.218	6171
2258.233	6106
2260.247	6066
2262.262	6085
2264.278	6129
2266.29	6024
2268.303	6128
2270.315	6105
2272.327	6120
2274.341	6169
2276.35	6139
2278.361	6092
2280.37	6085
2282.38	6076
2284.388	6127
2286.397	6091
2288.405	6064
2290.412	6064
2292.419	6038
2294.425	6100
2296.431	6126
2298.437	6099
2300.441	6047
2302.445	6146
2304.449	6037
2306.453	5972
2308.455	6069
2310.457	6067
2312.459	6128
2314.46	6035
2316.46	6160
2318.461	6046
2320.46	6004
2322.458	5972
2324.458	5874
2326.456	5961
2328.455	5962
2330.451	6026
2332.447	5988
2334.443	6016
2336.438	6053
2338.433	6013
2340.429	5959
2342.422	6045
2344.416	6075
2346.408	5954
2348.399	5978
2350.393	6040
2352.384	5855
2354.375	5965
2356.365	5989
2358.355	5869
2360.344	5901
2362.333	5907
2364.322	5977
2366.309	5878
2368.295	5836
2370.282	5920
2372.27	5979
2374.256	5941
2376.24	5867
2378.225	5893
2380.208	5833
2382.194	5957
2384.177	5806
2386.159	5896
2388.142	5880
2390.122	5797
2392.105	5914
2394.085	5837
2396.066	5865
2398.044	5842
2400.024	5894
2402.002	5769
2403.982	5877
2405.959	5914
2407.935	5811
2409.913	5895
2411.888	5773
2413.865	5767
2415.84	5831
2417.814	5863
2419.788	5805
2421.762	5840
2423.735	5764
2425.708	5752
2427.68	5906
2429.651	5942
2431.623	5837
2433.593	5902
2435.564	5842
2437.533	5773
2439.502	5779
2441.47	5779
2443.438	5812
2445.406	5799
2447.373	5740
2449.34	5809
2451.305	5790
2453.271	5740
2455.235	5843
2457.201	5800
2459.165	5863
2461.129	5774
2463.092	5785
2465.054	5871
2467.018	5701
2468.978	5856
2470.939	5779
2472.899	5831
2474.86	5930
2476.819	5659
2478.778	5801
2480.737	5760
2482.695	5687
2484.653	5833
2486.609	5757
2488.567	5704
2490.524	5883
2492.478	5681
2494.433	5802
2496.387	5741
2498.343	5610
2500.297	5721
2502.249	5725
2504.202	5674
2506.153	5743
2508.105	5685
2510.057	5698
2512.008	5765
2513.957	5769
2515.906	5672
2517.855	5769
2519.805	5653
2521.754	5617
2523.7	5657
2525.647	5744
2527.594	5697
2529.54	5674
2531.486	5711
2533.431	5720
2535.376	5616
2537.32	5713
2539.263	5595
2541.207	5671
2543.151	5693
2545.093	5559
2547.034	5720
2548.975	5652
2550.917	5582
2552.856	5701
2554.796	5656
2556.735	5679
2558.673	5709
2560.611	5673
2562.55	5666
2564.487	5671
2566.424	5661
2568.36	5686
2570.296	5603
2572.232	5654
2574.167	5675
2576.101	5602
2578.035	5610
2579.969	5629
2581.902	5750
2583.834	5689
2585.766	5720
2587.698	5663
2589.628	5721
2591.557	5688
2593.489	5784
2595.419	5701
2597.348	5631
2599.275	5565
2601.204	5612
2603.131	5691
2605.059	5743
2606.986	5636
2608.911	5600
2610.837	5586
2612.76	5728
2614.687	5736
2616.61	5694
2618.534	5705
2620.457	5718
2622.38	5709
2624.302	5658
2626.225	5667
2628.145	5645
2630.067	5698
2631.986	5688
2633.906	5748
2635.827	5589
2637.745	5618
2639.662	5677
2641.581	5729
2643.498	5629
2645.415	5655
2647.331	5661
2649.248	5633
2651.163	5527
2653.077	5678
2654.993	5573
2656.906	5622
2658.821	5707
2660.733	5691
2662.646	5746
2664.557	5811
2666.47	5559
2668.381	5676
2670.291	5609
2672.201	5624
2674.11	5615
2676.021	5662
2677.929	5638
2679.837	5643
2681.745	5594
2683.652	5474
2685.56	5628
2687.466	5738
2689.371	5563
2691.276	5488
2693.181	5528
2695.085	5534
2696.991	5565
2698.893	5623
2700.796	5461
2702.698	5708
2704.601	5595
2706.502	5594
2708.404	5544
2710.304	5537
2712.203	5538
2714.103	5636
2716.003	5539
2717.902	5521
2719.8	5516
2721.697	5461
2723.594	5602
2725.49	5511
2727.389	5543
2729.283	5457
2731.179	5520
2733.073	5548
2734.968	5527
2736.863	5443
2738.757	5497
2740.649	5587
2742.541	5519
2744.433	5518
2746.324	5454
2748.216	5567
2750.107	5596
2751.997	5457
2753.886	5422
2755.776	5461
2757.666	5487
2759.553	5495
2761.44	5464
2763.327	5403
2765.215	5463
2767.102	5479
2768.988	5393
2770.873	5433
2772.757	5444
2774.641	5359
2776.525	5498
2778.41	5453
2780.292	5444
2782.175	5481
2784.057	5422
2785.938	5390
2787.821	5477
2789.701	5493
2791.581	5347
2793.461	5427
2795.34	5343
2797.219	5368
2799.099	5452
2800.975	5409
2802.853	5420
2804.73	5354
2806.606	5477
2808.484	5466
2810.358	5522
2812.233	5331
2814.108	5421
2815.981	5308
2817.857	5350
2819.73	5406
2821.602	5458
2823.474	5348
2825.346	5309
2827.217	5346
2829.089	5343
2830.959	5315
2832.829	5345
2834.698	5286
2836.567	5410
2838.436	5295
2840.305	5392
2842.172	5344
2844.04	5401
2845.905	5271
2847.772	5360
2849.639	5393
2851.503	5431
2853.369	5309
2855.232	5381
2857.096	5307
2858.961	5312
2860.824	5390
2862.686	5210
2864.547	5371
2866.41	5444
2868.272	5383
2870.132	5470
2871.992	5414
2873.851	5406
2875.711	5482
2877.57	5636
2879.429	5503
2881.287	5567
2883.144	5479
2885.001	5515
2886.857	5522
2888.714	5450
2890.57	5564
2892.425	5460
2894.279	5508
2896.133	5553
2897.987	5396
2899.842	5540
2901.694	5461
2903.547	5598
2905.397	5494
2907.249	5548
2909.101	5463
2910.952	5462
2912.802	5637
2914.652	5557
2916.5	5690
2918.35	5744
2920.198	5753
2922.045	5639
2923.893	5641
2925.74	5667
2927.585	5779
2929.433	5644
2931.279	5806
2933.123	5717
2934.968	5729
2936.811	5829
2938.656	5903
2940.5	5754
2942.342	5767
2944.185	5827
2946.026	5971
2947.87	5790
2949.71	5788
2951.549	5790
2953.39	5798
2955.229	5737
2957.069	5831
2958.908	5704
2960.746	5695
2962.584	5648
2964.421	5605
2966.257	5629
2968.094	5544
2969.931	5631
2971.766	5494
2973.601	5418
2975.435	5504
2977.27	5598
2979.105	5454
2980.938	5507
2982.77	5451
2984.602	5483
2986.434	5518
2988.267	5497
2990.097	5503
2991.927	5354
2993.757	5366
2995.587	5337
2997.417	5348
2999.246	5396
3001.074	5173
3002.902	5266
3004.729	5222
3006.556	5167
3008.384	5306
3010.21	5222
3012.036	5086
3013.861	5219
3015.684	5251
3017.51	5156
3019.334	5119
3021.157	5162
3022.981	5140
3024.802	5064
3026.624	4936
3028.448	5169
3030.267	5062
3032.088	5008
3033.909	5110
3035.728	4950
3037.549	4970
3039.368	5013
3041.186	4921
3043.004	4887
3044.821	5080
3046.64	5021
3048.455	5013
3050.272	4937
3052.087	4968
3053.903	4926
3055.717	4975
3057.534	4937
3059.347	5063
3061.16	4930
3062.974	4967
3064.785	5021
3066.598	4901
3068.411	4954
3070.222	4962
3072.032	5008
3073.844	5045
3075.653	4908
3077.463	4928
3079.272	4904
3081.08	4869
3082.889	4961
3084.697	4826
3086.505	4874
3088.312	4818
3090.118	4890
3091.924	4848
3093.729	4808
3095.535	4720
3097.34	4906
3099.144	4910
3100.947	4690
3102.75	4709
3104.553	4880
3106.357	4744
3108.159	4794
3109.961	4859
3111.762	4817
3113.562	4740
3115.365	4834
3117.164	4694
3118.964	4789
3120.761	4846
3122.56	4749
3124.36	4687
3126.158	4802
3127.954	4778
3129.75	4729
3131.547	4741
3133.343	4635
3135.139	4659
3136.934	4777
3138.729	4672
3140.522	4642
3142.317	4780
3144.11	4698
3145.904	4701
3147.695	4758
3149.488	4636
3151.28	4736
3153.07	4705
3154.863	4657
3156.652	4735
3158.441	4699
3160.231	4640
3162.019	4596
3163.81	4733
3165.597	4550
3167.384	4679
3169.172	4627
3170.958	4643
3172.745	4647
3174.532	4671
3176.317	4664
3178.101	4688
3179.885	4669
3181.67	4678
3183.455	4624
3185.238	4641
3187.02	4588
3188.802	4667
3190.585	4587
3192.368	4536
3194.149	4617
3195.929	4504
3197.709	4639
3199.489	4588
3201.268	4604
3203.048	4608
3204.826	4623
3206.604	4524
3208.382	4561
3210.159	4581
3211.937	4516
3213.713	4494
3215.489	4597
3217.263	4548
3219.038	4588
3220.815	4546
3222.589	4573
3224.363	4549
3226.136	4551
3227.908	4622
3229.681	4630
3231.454	4589
3233.226	4579
3234.996	4588
3236.767	4568
3238.538	4608
3240.308	4558
3242.078	4473
3243.847	4511
3245.615	4566
3247.384	4493
3249.15	4584
3250.92	4597
3252.686	4515
3254.453	4491
3256.218	4509
3257.984	4458
3259.75	4475
3261.515	4455
3263.279	4563
3265.044	4497
3266.806	4471
3268.57	4514
3270.334	4444
3272.095	4512
3273.856	4480
3275.619	4563
3277.379	4589
3279.14	4485
3280.9	4505
3282.661	4474
3284.419	4578
3286.178	4459
3287.937	4534
3289.695	4451
3291.453	4571
3293.21	4505
3294.967	4522
3296.723	4532
3298.48	4524
3300.235	4479
3301.99	4530
3303.744	4607
3305.498	4578
3307.253	4494
3309.006	4555
3310.759	4584
3312.511	4437
3314.263	4497
3316.017	4550
3317.768	4564
3319.519	4479
3321.268	4523
3323.018	4445
3324.767	4411
3326.518	4514
3328.267	4485
3330.014	4535
3331.762	4462
3333.509	4431
3335.258	4454
3337.003	4385
3338.75	4487
3340.496	4291
3342.24	4515
3343.987	4380
3345.732	4485
3347.475	4393
3349.219	4363
3350.961	4444
3352.705	4427
3354.448	4295
3356.19	4432
3357.931	4344
3359.672	4312
3361.412	4435
3363.155	4388
3364.894	4392
3366.633	4369
3368.372	4396
3370.11	4389
3371.849	4373
3373.588	4462
3375.325	4420
3377.061	4259
3378.799	4286
3380.534	4377
3382.271	4436
3384.006	4400
3385.741	4400
3387.475	4299
3389.209	4306
3390.944	4343
3392.677	4381
3394.409	4303
3396.143	4374
3397.874	4297
3399.606	4257
3401.338	4388
3403.069	4277
3404.799	4279
3406.528	4267
3408.258	4310
3409.988	4249
3411.717	4170
3413.445	4251
3415.173	4297
3416.899	4272
3418.626	4264
3420.354	4322
3422.08	4242
3423.806	4207
3425.531	4209
3427.255	4276
3428.981	4211
3430.705	4280
3432.429	4189
3434.151	4298
3435.875	4182
3437.599	4227
3439.321	4253
3441.042	4171
3442.763	4293
3444.483	4174
3446.204	4311
3447.926	4224
3449.645	4144
3451.364	4226
3453.082	4192
3454.801	4204
3456.52	4104
3458.238	4212
3459.954	4205
3461.671	4135
3463.387	4156
3465.104	4159
3466.82	4127
3468.534	4170
3470.25	4119
3471.963	4073
3473.676	4125
3475.392	4095
3477.104	4169
3478.817	4063
3480.528	4144
3482.241	4015
3483.954	4160
3485.664	4032
3487.374	4059
3489.084	4120
3490.795	4035
3492.504	3997
3494.214	4093
3495.922	4088
3497.63	4109
3499.338	4140
3501.045	4024
3502.753	4091
3504.459	4093
3506.166	4092
3507.871	4080
3509.576	4066
3511.283	4034
3512.987	3970
3514.691	4014
3516.395	3906
3518.098	4025
3519.8	4001
3521.504	3952
3523.206	4093
3524.908	4026
3526.609	3936
3528.309	3909
3530.011	3987
3531.711	3952
3533.411	4001
3535.109	3965
3536.808	3990
3538.507	3996
3540.206	3936
3541.904	3989
3543.601	3973
3545.297	3995
3546.994	3838
3548.69	3927
3550.387	3888
3552.081	3920
3553.776	3869
3555.47	3935
3557.166	3890
3558.859	3931
3560.553	3900
3562.245	3970
3563.938	3906
3565.629	3895
3567.322	3927
3569.014	3912
3570.704	3905
3572.394	3797
3574.084	3909
3575.775	3936
3577.464	3870
3579.152	3872
3580.842	3876
3582.529	3861
3584.216	3902
3585.905	3812
3587.591	3910
3589.279	3785
3590.964	3863
3592.649	3874
3594.336	3925
3596.021	3768
3597.705	3746
3599.388	3834
3601.072	3781
3602.757	3833
3604.439	3851
3606.122	3745
3607.803	3821
3609.485	3764
3611.167	3841
3612.849	3743
3614.529	3818
3616.208	3763
3617.888	3781
3619.567	3779
3621.247	3710
3622.926	3774
3624.603	3730
3626.281	3750
3627.958	3714
3629.635	3704
3631.312	3725
3632.989	3669
3634.665	3694
3636.339	3752
3638.014	3683
3639.691	3666
3641.364	3717
3643.038	3748
3644.71	3721
3646.384	3697
3648.058	3693
3649.729	3666
3651.402	3669
3653.073	3755
3654.744	3670
3656.414	3570
3658.085	3646
3659.755	3600
3661.424	3565
3663.094	3566
3664.762	3673
3666.431	3620
3668.099	3536
3669.766	3682
3671.433	3672
3673.099	3568
3674.768	3672
3676.433	3581
3678.098	3664
3679.763	3594
3681.428	3598
3683.093	3713
3684.757	3665
3686.421	3583
3688.083	3545
3689.746	3580
3691.408	3547
3693.071	3531
3694.733	3547
3696.394	3556
3698.054	3585
3699.715	3591
3701.375	3551
3703.036	3518
3704.695	3576
3706.354	3607
3708.012	3636
3709.67	3620
3711.329	3581
3712.987	3589
3714.644	3496
3716.299	3489
3717.955	3543
3719.613	3563
3721.268	3613
3722.923	3548
3724.577	3527
3726.231	3582
3727.885	3488
3729.539	3518
3731.192	3471
3732.845	3511
3734.497	3446
3736.149	3461
3737.802	3506
3739.453	3510
3741.104	3477
3742.753	3473
3744.404	3516
3746.052	3530
3747.704	3428
3749.352	3480
3751	3516
3752.648	3447
3754.296	3398
3755.944	3498
3757.59	3454
3759.238	3420
3760.883	3486
3762.528	3465
3764.176	3435
3765.82	3446
3767.464	3364
3769.109	3458
3770.753	3446
3772.396	3386
3774.04	3450
3775.683	3421
3777.325	3424
3778.967	3432
3780.608	3339
3782.25	3481
3783.89	3362
3785.531	3358
3787.17	3401
3788.81	3386
3790.45	3405
3792.09	3431
3793.729	3437
3795.366	3384
3797.003	3442
3798.64	3382
3800.278	3382
3801.915	3394
3803.551	3359
3805.187	3318
3806.822	3329
3808.458	3398
3810.093	3334
3811.726	3286
3813.36	3322
3814.994	3310
3816.627	3384
3818.262	3357
3819.893	3365
3821.525	3303
3823.157	3304
3824.787	3326
3826.42	3321
3828.051	3326
3829.68	3298
3831.31	3299
3832.938	3349
3834.569	3280
3836.198	3367
3837.825	3298
3839.454	3349
3841.08	3266
3842.708	3243
3844.335	3273
3845.962	3230
3847.587	3349
3849.212	3260
3850.838	3300
3852.463	3275
3854.089	3232
3855.712	3202
3857.335	3327
3858.959	3266
3860.582	3253
3862.205	3292
3863.827	3238
3865.449	3272
3867.07	3229
3868.691	3215
3870.312	3279
3871.933	3164
3873.553	3231
3875.173	3187
3876.792	3191
3878.411	3128
3880.03	3209
3881.647	3225
3883.265	3212
3884.882	3235
3886.499	3261
3888.116	3182
3889.732	3195
3891.348	3153
3892.964	3164
3894.579	3209
3896.195	3255
3897.809	3186
3899.423	3204
3901.036	3246
3902.648	3192
3904.261	3195
3905.875	3212
3907.487	3111
3909.099	3270
3910.709	3217
3912.321	3217
3913.933	3165
3915.542	3158
3917.152	3100
3918.762	3269
3920.37	3205
3921.98	3107
3923.589	3157
3925.196	3214
3926.804	3169
3928.41	3139
3930.018	3114
3931.626	3128
3933.231	3132
3934.838	3124
3936.442	3194
3938.046	3210
3939.653	3144
3941.257	3085
3942.861	3097
3944.464	3115
3946.068	3114
3947.67	3130
3949.273	3091
3950.876	3095
3952.477	3119
3954.078	3120
3955.678	3063
3957.281	3156
3958.881	3116
3960.48	3112
3962.079	3107
3963.678	3150
3965.279	3049
3966.877	3051
3968.475	3065
3970.072	3011
3971.669	3055
3973.266	3012
3974.864	3114
3976.459	3045
3978.055	3029
3979.65	3092
3981.245	3095
3982.841	2991
3984.436	3061
3986.03	3058
3987.623	3043
3989.216	3054
3990.809	2975
3992.403	2976
3993.995	2997
3995.586	3041
3997.177	3086
3998.768	3009
4000.361	2954
4001.951	2982
4003.54	3086
4005.13	3059
4006.719	2906
4008.31	2988
4009.897	2923
4011.485	2992
4013.073	2992
4014.66	2950
4016.247	2969
4017.834	2986
4019.421	2929
4021.006	2909
4022.592	2944
4024.178	2843
4025.763	2910
4027.348	2925
4028.932	2876
4030.515	2954
4032.099	2908
4033.682	2970
4035.266	2890
4036.847	2943
4038.429	2942
4040.011	2902
4041.592	2894
4043.173	2930
4044.755	2926
4046.334	2916
4047.913	2820
4049.494	2904
4051.074	2854
4052.652	2884
4054.23	2922
4055.807	2888
4057.385	2953
4058.963	2941
4060.541	2808
4062.117	2838
4063.693	2796
4065.269	2892
4066.844	2843
4068.42	2807
4069.995	2855
4071.569	2873
4073.143	2890
4074.716	2797
4076.291	2854
4077.864	2817
4079.436	2821
4081.009	2868
4082.58	2863
4084.152	2784
4085.723	2818
4087.294	2844
4088.865	2878
4090.435	2838
4092.005	2830
4093.574	2763
4095.143	2896
4096.712	2855
4098.279	2807
4099.848	2823
4101.416	2800
4102.984	2879
4104.55	2799
4106.117	2867
4107.682	2726
4109.248	2783
4110.815	2808
4112.379	2816
4113.945	2757
4115.508	2820
4117.073	2806
4118.637	2748
4120.201	2688
4121.763	2782
4123.325	2781
4124.888	2708
4126.449	2754
4128.013	2715
4129.573	2704
4131.133	2719
4132.694	2765
4134.254	2757
4135.814	2771
4137.374	2761
4138.933	2760
4140.491	2723
4142.049	2683
4143.607	2727
4145.167	2706
4146.724	2725
4148.28	2663
4149.836	2664
4151.392	2669
4152.949	2764
4154.504	2644
4156.059	2690
4157.614	2662
4159.168	2686
4160.723	2689
4162.277	2702
4163.83	2691
4165.383	2705
4166.936	2688
4168.488	2653
4170.041	2705
4171.593	2643
4173.144	2657
4174.695	2627
4176.246	2649
4177.796	2577
4179.346	2636
4180.896	2600
4182.445	2643
4183.994	2634
4185.542	2605
4187.091	2632
4188.639	2617
4190.185	2565
4191.732	2578
4193.279	2598
4194.826	2647
4196.373	2621
4197.918	2536
4199.463	2625
4201.008	2589
4202.553	2621
4204.098	2575
4205.641	2568
4207.185	2562
4208.728	2596
4210.271	2546
4211.814	2568
4213.357	2584
4214.898	2577
4216.439	2610
4217.98	2579
4219.522	2582
4221.062	2529
4222.603	2514
4224.142	2556
4225.681	2559
4227.222	2541
4228.76	2521
4230.298	2609
4231.835	2606
4233.373	2516
4234.911	2615
4236.449	2542
4237.985	2551
4239.521	2489
4241.057	2543
4242.592	2532
4244.128	2604
4245.663	2585
4247.197	2520
4248.731	2546
4250.265	2480
4251.798	2553
4253.333	2547
4254.865	2561
4256.397	2498
4257.93	2510
4259.461	2460
4260.994	2493
4262.525	2444
4264.056	2500
4265.586	2485
4267.115	2524
4268.646	2498
4270.176	2550
4271.705	2516
4273.232	2480
4274.761	2497
4276.289	2497
4277.818	2491
4279.345	2538
4280.872	2458
4282.399	2461
4283.924	2514
4285.452	2475
4286.976	2465
4288.502	2409
4290.026	2472
4291.551	2507
4293.074	2474
4294.6	2503
4296.123	2455
4297.646	2442
4299.168	2389
4300.691	2394
4302.214	2507
4303.736	2449
4305.257	2492
4306.778	2449
4308.299	2364
4309.82	2468
4311.34	2409
4312.86	2415
4314.379	2433
