400.0745	4494
402.597	4467
405.1208	4562
407.6419	4537
410.1623	4574
412.6819	4678
415.201	4617
417.7172	4603
420.2369	4762
422.7538	4751
425.2701	4753
427.7856	4851
430.3005	4858
432.8147	4731
435.3282	4830
437.841	4798
440.3511	4763
442.8625	4804
445.3753	4877
447.8854	4921
450.3927	4818
452.9014	4841
455.4073	5011
457.9146	4930
460.4233	4854
462.9272	4745
465.4325	4890
467.935	4877
470.4389	4865
472.9421	4839
475.4446	4736
477.9444	4838
480.4456	4943
482.944	4907
485.4417	4864
487.9429	4919
490.4393	4929
492.935	4895
495.4321	4986
497.9264	5058
500.4221	5072
502.9171	5051
505.4094	5024
507.9011	5048
510.392	5008
512.8864	5038
515.3759	5074
517.8649	5174
520.3531	4962
522.8406	5128
525.3275	5078
527.8178	5005
530.3033	5103
532.7881	5118
535.2723	5106
537.7558	5166
540.2407	5119
542.7228	4987
545.2043	5154
547.6851	5180
550.1652	5067
552.6467	5131
555.1255	5108
557.6016	5067
560.079	5109
562.5557	5172
565.0318	5211
567.5092	5212
569.984	5209
572.456	5322
574.9294	5228
577.4022	5342
579.8762	5198
582.3456	5379
584.8163	5308
587.2863	5331
589.7557	5347
592.2224	5326
594.6924	5299
597.1578	5299
599.6245	5269
602.0905	5158
604.5538	5194
607.0206	5312
609.4825	5277
611.9459	5253
614.4066	5299
616.8686	5288
619.33	5333
621.7906	5260
624.2487	5200
626.708	5291
629.1647	5223
631.6207	5316
634.0801	5302
636.5348	5207
638.9888	5325
641.4442	5396
643.8969	5332
646.3509	5423
648.8022	5366
651.255	5342
653.705	5380
656.1544	5449
658.6031	5292
661.0532	5345
663.5026	5397
665.9493	5460
668.3954	5434
670.8409	5432
673.2877	5381
675.7318	5400
678.1752	5551
680.618	5420
683.0601	5461
685.5035	5407
687.9444	5551
690.3845	5519
692.824	5523
695.2628	5533
697.701	5558
700.1406	5532
702.5774	5496
705.0116	5463
707.4472	5568
709.8821	5555
712.3183	5545
714.7519	5510
717.1829	5510
719.6151	5585
722.0468	5525
724.4777	5699
726.908	5586
729.3377	5591
731.7667	5582
734.1931	5680
736.6208	5696
739.0498	5713
741.4742	5729
743.9	5640
746.3231	5746
748.7476	5671
751.1713	5781
753.5945	5907
756.015	5791
758.4368	5802
760.856	5784
763.2766	5756
765.6965	5805
768.1157	5851
770.5323	5849
772.9483	5873
775.3656	5866
777.7822	5794
780.1963	5815
782.6116	5919
785.0244	5840
787.4365	5921
789.8499	5953
792.2626	5769
794.6728	5893
797.0823	5893
799.4911	5926
801.8994	5859
804.3109	5891
806.7178	5944
809.124	5971
811.5297	5957
813.9347	6013
816.341	5992
818.7447	6078
821.1478	5947
823.5502	5962
825.952	5930
828.3531	5869
830.7556	5840
833.1554	5953
835.5546	6049
837.9532	5992
840.3511	6007
842.7504	6058
845.1451	6103
847.5411	6012
849.9365	6001
852.3312	6167
854.7272	5977
857.1187	5993
859.5115	6165
861.9037	6095
864.2952	6084
866.6842	6036
869.0764	6009
871.4661	6113
873.8531	6110
876.2415	5957
878.6272	6084
881.0162	6135
883.4026	5987
885.7866	5989
888.1717	5972
890.5543	6082
892.9382	6031
895.3215	6113
897.7041	6044
900.0842	6065
902.4655	6011
904.8443	6069
907.2244	6038
909.6039	5998
911.9808	6125
914.357	6198
916.7346	6181
919.1115	6177
921.4859	6152
923.8616	6267
926.2347	6353
928.6071	6238
930.979	6225
933.3541	6299
935.7247	6393
938.0946	6382
940.4639	6370
942.8326	6398
945.2026	6579
947.5701	6526
949.9369	6594
952.305	6775
954.6705	6956
957.0355	6919
959.4017	7255
961.7654	7387
964.1284	7426
966.4908	7157
968.8527	7063
971.2138	6848
973.5743	6580
975.9343	6507
978.2936	6322
980.6522	6358
983.0122	6312
985.3696	6281
987.7245	6239
990.0807	6279
992.4362	6147
994.7911	6195
997.1474	6229
999.4991	6220
1001.852	6349
1004.205	6303
1006.555	6185
1008.908	6362
1011.258	6259
1013.606	6253
1015.956	6255
1018.302	6255
1020.652	6206
1022.998	6261
1025.345	6253
1027.691	6251
1030.035	6252
1032.378	6316
1034.724	6329
1037.066	6373
1039.409	6341
1041.75	6371
1044.092	6399
1046.433	6339
1048.771	6432
1051.112	6331
1053.449	6368
1055.786	6376
1058.124	6428
1060.462	6485
1062.797	6336
1065.131	6407
1067.467	6402
1069.8	6398
1072.135	6520
1074.467	6501
1076.798	6592
1079.129	6381
1081.459	6455
1083.792	6361
1086.121	6394
1088.449	6425
1090.777	6419
1093.104	6307
1095.431	6537
1097.759	6356
1100.084	6501
1102.408	6402
1104.732	6365
1107.056	6348
1109.379	6325
1111.701	6481
1114.022	6367
1116.343	6419
1118.664	6441
1120.983	6298
1123.303	6456
1125.621	6460
1127.939	6357
1130.256	6452
1132.573	6311
1134.889	6481
1137.205	6523
1139.52	6375
1141.832	6495
1144.146	6351
1146.461	6536
1148.771	6516
1151.083	6349
1153.392	6487
1155.703	6520
1158.011	6418
1160.323	6464
1162.629	6386
1164.938	6441
1167.243	6442
1169.55	6498
1171.857	6455
1174.163	6514
1176.466	6339
1178.769	6443
1181.073	6530
1183.374	6405
1185.677	6455
1187.979	6529
1190.279	6286
1192.578	6426
1194.878	6450
1197.178	6426
1199.476	6450
1201.772	6336
1204.068	6460
1206.366	6431
1208.663	6510
1210.957	6444
1213.251	6428
1215.544	6521
1217.836	6446
1220.128	6417
1222.421	6574
1224.712	6505
1227.002	6641
1229.292	6569
1231.581	6526
1233.871	6605
1236.159	6488
1238.446	6683
1240.732	6667
1243.018	6755
1245.304	6636
1247.59	6709
1249.874	6724
1252.156	6602
1254.439	6695
1256.721	6598
1259.005	6674
1261.286	6615
1263.565	6718
1265.845	6685
1268.125	6689
1270.403	6569
1272.682	6751
1274.959	6610
1277.234	6798
1279.511	6712
1281.787	6584
1284.062	6731
1286.337	6552
1288.609	6567
1290.882	6574
1293.153	6448
1295.428	6632
1297.698	6584
1299.969	6551
1302.237	6513
1304.507	6573
1306.777	6657
1309.044	6499
1311.312	6562
1313.578	6462
1315.844	6688
1318.109	6533
1320.375	6505
1322.638	6602
1324.903	6652
1327.165	6517
1329.427	6480
1331.69	6622
1333.952	6581
1336.212	6625
1338.471	6582
1340.73	6634
1342.988	6681
1345.248	6677
1347.505	6633
1349.763	6603
1352.019	6549
1354.274	6562
1356.53	6592
1358.784	6538
1361.038	6568
1363.291	6515
1365.543	6556
1367.797	6653
1370.048	6621
1372.296	6605
1374.546	6567
1376.796	6602
1379.045	6445
1381.295	6549
1383.542	6591
1385.787	6575
1388.034	6666
1390.28	6747
1392.527	6616
1394.772	6577
1397.014	6741
1399.258	6668
1401.501	6662
1403.741	6729
1405.985	6629
1408.226	6585
1410.465	6635
1412.705	6743
1414.943	6661
1417.184	6830
1419.42	6701
1421.658	6711
1423.894	6765
1426.13	6687
1428.366	6769
1430.602	6833
1432.835	6621
1435.069	6872
1437.301	6704
1439.535	6747
1441.767	6866
1443.997	6852
1446.229	6706
1448.458	6878
1450.687	6828
1452.916	6903
1455.146	6857
1457.372	6937
1459.599	6722
1461.824	7007
1464.051	6776
1466.277	6752
1468.501	6831
1470.725	6761
1472.948	6799
1475.17	6811
1477.393	6695
1479.614	6751
1481.837	6666
1484.057	6701
1486.276	6734
1488.497	6621
1490.715	6689
1492.932	6575
1495.148	6593
1497.364	6642
1499.58	6691
1501.798	6588
1504.012	6518
1506.227	6652
1508.44	6499
1510.653	6451
1512.866	6624
1515.078	6593
1517.289	6588
1519.5	6679
1521.711	6492
1523.92	6624
1526.13	6545
1528.338	6528
1530.544	6470
1532.752	6692
1534.959	6554
1537.165	6547
1539.371	6731
1541.574	6606
1543.779	6603
1545.983	6561
1548.187	6653
1550.39	6561
1552.59	6693
1554.792	6624
1556.991	6661
1559.19	6581
1561.392	6697
1563.59	6662
1565.789	6701
1567.986	6781
1570.182	6721
1572.381	6636
1574.576	6709
1576.771	6698
1578.966	6767
1581.16	6730
1583.354	6832
1585.546	6840
1587.74	6708
1589.931	6839
1592.121	6809
1594.311	6835
1596.502	6657
1598.693	6783
1600.881	6744
1603.069	6705
1605.256	6928
1607.445	6764
1609.631	6826
1611.816	6846
1614.001	6838
1616.186	6740
1618.37	6749
1620.555	6816
1622.737	6799
1624.919	6733
1627.101	6913
1629.282	6862
1631.463	6774
1633.643	6904
1635.822	6904
1638.001	6861
1640.179	6815
1642.359	6925
1644.534	6933
1646.711	6939
1648.887	6737
1651.062	6846
1653.235	6844
1655.412	6895
1657.586	6782
1659.757	6912
1661.93	6894
1664.1	6936
1666.274	6885
1668.445	6838
1670.614	7057
1672.784	6942
1674.951	6893
1677.12	6849
1679.289	6855
1681.457	6838
1683.622	6936
1685.789	6889
1687.953	6876
1690.121	6807
1692.284	6796
1694.447	6755
1696.611	6762
1698.772	6802
1700.935	6805
1703.098	6789
1705.258	6888
1707.417	6778
1709.576	6854
1711.736	6629
1713.896	6761
1716.053	6775
1718.21	6654
1720.366	6778
1722.522	6825
1724.68	6797
1726.835	6672
1728.989	6763
1731.142	6696
1733.295	6699
1735.449	6718
1737.601	6707
1739.753	6771
1741.903	6766
1744.054	6732
1746.203	6770
1748.354	6724
1750.503	6821
1752.651	6794
1754.798	6723
1756.944	6787
1759.092	6741
1761.238	6758
1763.383	6730
1765.528	6781
1767.672	6863
1769.814	6841
1771.959	6722
1774.102	6853
1776.242	6774
1778.384	6825
1780.525	6765
1782.665	6844
1784.805	6798
1786.945	6754
1789.082	6822
1791.22	6729
1793.36	6749
1795.495	6828
1797.632	6749
1799.766	6754
1801.902	6678
1804.035	6734
1806.172	6828
1808.304	6879
1810.436	6812
1812.569	6768
1814.699	6873
1816.833	6843
1818.963	6816
1821.092	6761
1823.222	6833
1825.35	6583
1827.478	6745
1829.608	6792
1831.734	6723
1833.86	6698
1835.986	6859
1838.11	6779
1840.238	6756
1842.362	6823
1844.485	6716
1846.608	6791
1848.73	6704
1850.853	6769
1852.974	6789
1855.097	6638
1857.217	6675
1859.336	6697
1861.455	6748
1863.576	6820
1865.693	6789
1867.811	6716
1869.926	6675
1872.042	6700
1874.16	6685
1876.275	6708
1878.39	6701
1880.504	6784
1882.618	6788
1884.731	6655
1886.843	6699
1888.956	6722
1891.067	6804
1893.178	6832
1895.287	6718
1897.399	6829
1899.508	6653
1901.617	6816
1903.724	6750
1905.832	6831
1907.941	6842
1910.046	6783
1912.152	6793
1914.256	6815
1916.361	6848
1918.464	6809
1920.57	6829
1922.672	6840
1924.775	6784
1926.876	6851
1928.978	6806
1931.08	6867
1933.181	6860
1935.28	6822
1937.38	6788
1939.478	6891
1941.577	6885
1943.675	6886
1945.771	6752
1947.867	6758
1949.964	6870
1952.058	6827
1954.154	6857
1956.248	6826
1958.343	6711
1960.435	6825
1962.527	6801
1964.62	6822
1966.711	6761
1968.802	6788
1970.892	6776
1972.983	6670
1975.072	6799
1977.162	6822
1979.25	6809
1981.337	6706
1983.424	6708
1985.51	6820
1987.598	6788
1989.683	6689
1991.768	6705
1993.852	6813
1995.934	6688
1998.019	6742
2000.102	6660
2002.184	6702
2004.266	6708
2006.347	6763
2008.427	6689
2010.508	6815
2012.587	6744
2014.666	6811
2016.745	6649
2018.821	6794
2020.9	6751
2022.977	6641
2025.052	6751
2027.128	6663
2029.204	6706
2031.277	6815
2033.353	6820
2035.425	6684
2037.499	6704
2039.57	6690
2041.642	6780
2043.714	6701
2045.786	6776
2047.855	6681
2049.925	6614
2051.993	6765
2054.064	6662
2056.132	6811
2058.2	6557
2060.266	6755
2062.332	6743
2064.398	6589
2066.465	6758
2068.529	6717
2070.592	6710
2072.657	6672
2074.719	6801
2076.783	6808
2078.845	6739
2080.907	6572
2082.968	6596
2085.028	6687
2087.087	6807
2089.148	6649
2091.207	6766
2093.264	6785
2095.322	6748
2097.379	6849
2099.439	6711
2101.495	6685
2103.55	6653
2105.605	6732
2107.658	6718
2109.713	6747
2111.767	6629
2113.82	6739
2115.872	6722
2117.924	6689
2119.975	6736
2122.028	6692
2124.078	6740
2126.126	6707
2128.176	6753
2130.225	6696
2132.275	6768
2134.321	6658
2136.368	6698
2138.415	6660
2140.461	6664
2142.505	6674
2144.552	6730
2146.597	6645
2148.64	6697
2150.684	6617
2152.725	6698
2154.77	6498
2156.811	6660
2158.852	6689
2160.894	6554
2162.933	6660
2164.973	6687
2167.013	6643
2169.051	6736
2171.089	6562
2173.126	6663
2175.164	6582
2177.201	6631
2179.236	6609
2181.273	6672
2183.307	6486
2185.341	6613
2187.377	6590
2189.41	6525
2191.442	6643
2193.473	6569
2195.506	6656
2197.539	6735
2199.569	6504
2201.598	6645
2203.628	6576
2205.656	6588
2207.686	6534
2209.716	6520
2211.743	6604
2213.769	6446
2215.796	6490
2217.821	6392
2219.848	6509
2221.873	6415
2223.897	6545
2225.921	6463
2227.944	6477
2229.967	6432
2231.991	6479
2234.011	6557
2236.032	6515
2238.053	6519
2240.073	6392
2242.094	6464
2244.114	6460
2246.131	6547
2248.149	6518
2250.167	6450
2252.186	6352
2254.201	6565
2256.218	6508
2258.233	6488
2260.247	6584
2262.262	6578
2264.278	6475
2266.29	6532
2268.303	6473
2270.315	6592
2272.327	6504
2274.341	6483
2276.35	6488
2278.361	6435
2280.37	6557
2282.38	6534
2284.388	6406
2286.397	6560
2288.405	6514
2290.412	6538
2292.419	6526
2294.425	6489
2296.431	6549
2298.437	6464
2300.441	6381
2302.445	6477
2304.449	6500
2306.453	6455
2308.455	6478
2310.457	6442
2312.459	6445
2314.46	6401
2316.46	6479
2318.461	6466
2320.46	6400
2322.458	6528
2324.458	6391
2326.456	6408
2328.455	6388
2330.451	6409
2332.447	6374
2334.443	6394
2336.438	6352
2338.433	6483
2340.429	6333
2342.422	6535
2344.416	6270
2346.408	6457
2348.399	6379
2350.393	6391
2352.384	6258
2354.375	6219
2356.365	6288
2358.355	6364
2360.344	6412
2362.333	6367
2364.322	6392
2366.309	6326
2368.295	6223
2370.282	6340
2372.27	6264
2374.256	6232
2376.24	6284
2378.225	6241
2380.208	6368
2382.194	6280
2384.177	6219
2386.159	6319
2388.142	6303
2390.122	6419
2392.105	6352
2394.085	6236
2396.066	6197
2398.044	6170
2400.024	6342
2402.002	6333
2403.982	6196
2405.959	6226
2407.935	6313
2409.913	6280
2411.888	6225
2413.865	6253
2415.84	6325
2417.814	6277
2419.788	6339
2421.762	6134
2423.735	6173
2425.708	6314
2427.68	6193
2429.651	6265
2431.623	6224
2433.593	6290
2435.564	6225
2437.533	6245
2439.502	6256
2441.47	6174
2443.438	6248
2445.406	6165
2447.373	6225
2449.34	6170
2451.305	6221
2453.271	6078
2455.235	6292
2457.201	6192
2459.165	6169
2461.129	6196
2463.092	6069
2465.054	6264
2467.018	6149
2468.978	6276
2470.939	6148
2472.899	6157
2474.86	6171
2476.819	6129
2478.778	6116
2480.737	6158
2482.695	6020
2484.653	6145
2486.609	6081
2488.567	6191
2490.524	6143
2492.478	6063
2494.433	6220
2496.387	6102
2498.343	6070
2500.297	6156
2502.249	6161
2504.202	6099
2506.153	6071
2508.105	6097
2510.057	6109
2512.008	6118
2513.957	6006
2515.906	5977
2517.855	6093
2519.805	6150
2521.754	5963
2523.7	6060
2525.647	5990
2527.594	6165
2529.54	6152
2531.486	6092
2533.431	6060
2535.376	6163
2537.32	6063
2539.263	5993
2541.207	6094
2543.151	5963
2545.093	6043
2547.034	6123
2548.975	6017
2550.917	6003
2552.856	5996
2554.796	6123
2556.735	6130
2558.673	6029
2560.611	6179
2562.55	5948
2564.487	6042
2566.424	6158
2568.36	6150
2570.296	6124
2572.232	6157
2574.167	6078
2576.101	6035
2578.035	6127
2579.969	6076
2581.902	6035
2583.834	6034
2585.766	6046
2587.698	6007
2589.628	6001
2591.557	6066
2593.489	6086
2595.419	6051
2597.348	6072
2599.275	6114
2601.204	5990
2603.131	6038
2605.059	6035
2606.986	6100
2608.911	6135
2610.837	6063
2612.76	5986
2614.687	6095
2616.61	6032
2618.534	6122
2620.457	6051
2622.38	5977
2624.302	6109
2626.225	5979
2628.145	6089
2630.067	6042
2631.986	6052
2633.906	6147
2635.827	6031
2637.745	5953
2639.662	5978
2641.581	6089
2643.498	5981
2645.415	6044
2647.331	6050
2649.248	6119
2651.163	6030
2653.077	6045
2654.993	6000
2656.906	6072
2658.821	6007
2660.733	6058
2662.646	6055
2664.557	5958
2666.47	5989
2668.381	6015
2670.291	5947
2672.201	6009
2674.11	6008
2676.021	6039
2677.929	6043
2679.837	6120
2681.745	6024
2683.652	5965
2685.56	6154
2687.466	5913
2689.371	5923
2691.276	6012
2693.181	6063
2695.085	5989
2696.991	5991
2698.893	5854
2700.796	5933
2702.698	5914
2704.601	6018
2706.502	5951
2708.404	5812
2710.304	6028
2712.203	5995
2714.103	5787
2716.003	5902
2717.902	5859
2719.8	5922
2721.697	5906
2723.594	5892
2725.49	5825
2727.389	5919
2729.283	5857
2731.179	5829
2733.073	5925
2734.968	5937
2736.863	5898
2738.757	5760
2740.649	5903
2742.541	6020
2744.433	5835
2746.324	5901
2748.216	5875
2750.107	5846
2751.997	5858
2753.886	5800
2755.776	5936
2757.666	5900
2759.553	5833
2761.44	5879
2763.327	5870
2765.215	5784
2767.102	5906
2768.988	5911
2770.873	5833
2772.757	5784
2774.641	5903
2776.525	5934
2778.41	5766
2780.292	5836
2782.175	5838
2784.057	5831
2785.938	5847
2787.821	5770
2789.701	5754
2791.581	5840
2793.461	5761
2795.34	5750
2797.219	5768
2799.099	5784
2800.975	5846
2802.853	5770
2804.73	5750
2806.606	5812
2808.484	5703
2810.358	5760
2812.233	5855
2814.108	5811
2815.981	5719
2817.857	5738
2819.73	5805
2821.602	5794
2823.474	5726
2825.346	5787
2827.217	5711
2829.089	5836
2830.959	5741
2832.829	5697
2834.698	5723
2836.567	5705
2838.436	5787
2840.305	5810
2842.172	5772
2844.04	5684
2845.905	5781
2847.772	5790
2849.639	5731
2851.503	5733
2853.369	5684
2855.232	5700
2857.096	5853
2858.961	5737
2860.824	5849
2862.686	5817
2864.547	5959
2866.41	5909
2868.272	5828
2870.132	5949
2871.992	6011
2873.851	5977
2875.711	6111
2877.57	6123
2879.429	6131
2881.287	6122
2883.144	6078
2885.001	6154
2886.857	6202
2888.714	6153
2890.57	6094
2892.425	6230
2894.279	6117
2896.133	6112
2897.987	6100
2899.842	6224
2901.694	6136
2903.547	6154
2905.397	6037
2907.249	6063
2909.101	6104
2910.952	6128
2912.802	6267
2914.652	6164
2916.5	6129
2918.35	6321
2920.198	6286
2922.045	6384
2923.893	6435
2925.74	6357
2927.585	6400
2929.433	6514
2931.279	6566
2933.123	6681
2934.968	6645
2936.811	6616
2938.656	6711
2940.5	6643
2942.342	6695
2944.185	6733
2946.026	6734
2947.87	6715
2949.71	6765
2951.549	6722
2953.39	6723
2955.229	6582
2957.069	6498
2958.908	6593
2960.746	6501
2962.584	6454
2964.421	6379
2966.257	6506
2968.094	6272
2969.931	6260
2971.766	6210
2973.601	6196
2975.435	6145
2977.27	6242
2979.105	6293
2980.938	6202
2982.77	6135
2984.602	6061
2986.434	6131
2988.267	6136
2990.097	6034
2991.927	6047
2993.757	6002
2995.587	6092
2997.417	5815
2999.246	5994
3001.074	5840
3002.902	5809
3004.729	5697
3006.556	5662
3008.384	5621
3010.21	5688
3012.036	5596
3013.861	5555
3015.684	5545
3017.51	5599
3019.334	5561
3021.157	5479
3022.981	5526
3024.802	5348
3026.624	5518
3028.448	5501
3030.267	5485
3032.088	5400
3033.909	5449
3035.728	5334
3037.549	5361
3039.368	5436
3041.186	5476
3043.004	5329
3044.821	5294
3046.64	5436
3048.455	5429
3050.272	5417
3052.087	5274
3053.903	5439
3055.717	5310
3057.534	5423
3059.347	5274
3061.16	5383
3062.974	5438
3064.785	5462
3066.598	5314
3068.411	5365
3070.222	5310
3072.032	5357
3073.844	5326
3075.653	5317
3077.463	5416
3079.272	5359
3081.08	5288
3082.889	5257
3084.697	5275
3086.505	5324
3088.312	5283
3090.118	5249
3091.924	5230
3093.729	5275
3095.535	5246
3097.34	5201
3099.144	5175
3100.947	5185
3102.75	5297
3104.553	5221
3106.357	5110
3108.159	5146
3109.961	5202
3111.762	5114
3113.562	5222
3115.365	5157
3117.164	5177
3118.964	5127
3120.761	5157
3122.56	5145
3124.36	5072
3126.158	5143
3127.954	5152
3129.75	4988
3131.547	5197
3133.343	5086
3135.139	5238
3136.934	5097
3138.729	5139
3140.522	5069
3142.317	5121
3144.11	4979
3145.904	5117
3147.695	5061
3149.488	5092
3151.28	5050
3153.07	5106
3154.863	5091
3156.652	5008
3158.441	5134
3160.231	5190
3162.019	5001
3163.81	5003
3165.597	5013
3167.384	4986
3169.172	4981
3170.958	4945
3172.745	5018
3174.532	4989
3176.317	5045
3178.101	5019
3179.885	4963
3181.67	5081
3183.455	5020
3185.238	5061
3187.02	4988
3188.802	4965
3190.585	5002
3192.368	4863
3194.149	5052
3195.929	5074
3197.709	4908
3199.489	4890
3201.268	4957
3203.048	4936
3204.826	4930
3206.604	4991
3208.382	5026
3210.159	4931
3211.937	4941
3213.713	4936
3215.489	4938
3217.263	4998
3219.038	4954
3220.815	5025
3222.589	5014
3224.363	4942
3226.136	4974
3227.908	4936
3229.681	4935
3231.454	4898
3233.226	4911
3234.996	4863
3236.767	5036
3238.538	5021
3240.308	4883
3242.078	4898
3243.847	4953
3245.615	4905
3247.384	4896
3249.15	4930
3250.92	4896
3252.686	4892
3254.453	4936
3256.218	4985
3257.984	4841
3259.75	4794
3261.515	4928
3263.279	4931
3265.044	4934
3266.806	4910
3268.57	4897
3270.334	4957
3272.095	4970
3273.856	4963
3275.619	4933
3277.379	4860
3279.14	4990
3280.9	4929
3282.661	4955
3284.419	4934
3286.178	4850
3287.937	4887
3289.695	4925
3291.453	4913
3293.21	4924
3294.967	4976
3296.723	5001
3298.48	4987
3300.235	4809
3301.99	5045
3303.744	4840
3305.498	4910
3307.253	4913
3309.006	4899
3310.759	4918
3312.511	4893
3314.263	4793
3316.017	4849
3317.768	4868
3319.519	4976
3321.268	4866
3323.018	4874
3324.767	4847
3326.518	4820
3328.267	4833
3330.014	4887
3331.762	4759
3333.509	4850
3335.258	4891
3337.003	4825
3338.75	4852
3340.496	4938
3342.24	4787
3343.987	4879
3345.732	4865
3347.475	4795
3349.219	4773
3350.961	4880
3352.705	4789
3354.448	4864
3356.19	4849
3357.931	4762
3359.672	4735
3361.412	4814
3363.155	4652
3364.894	4787
3366.633	4788
3368.372	4751
3370.11	4869
3371.849	4819
3373.588	4884
3375.325	4847
3377.061	4763
3378.799	4715
3380.534	4742
3382.271	4724
3384.006	4813
3385.741	4831
3387.475	4752
3389.209	4748
3390.944	4766
3392.677	4628
3394.409	4681
3396.143	4789
3397.874	4746
3399.606	4658
3401.338	4664
3403.069	4674
3404.799	4636
3406.528	4682
3408.258	4642
3409.988	4699
3411.717	4685
3413.445	4609
3415.173	4653
3416.899	4622
3418.626	4610
3420.354	4689
3422.08	4618
3423.806	4634
3425.531	4641
3427.255	4646
3428.981	4609
3430.705	4656
3432.429	4599
3434.151	4678
3435.875	4656
3437.599	4523
3439.321	4676
3441.042	4584
3442.763	4622
3444.483	4544
3446.204	4605
3447.926	4533
3449.645	4539
3451.364	4590
3453.082	4582
3454.801	4559
3456.52	4539
3458.238	4603
3459.954	4428
3461.671	4553
3463.387	4427
3465.104	4550
3466.82	4546
3468.534	4489
3470.25	4508
3471.963	4492
3473.676	4445
3475.392	4492
3477.104	4462
3478.817	4447
3480.528	4417
3482.241	4475
3483.954	4433
3485.664	4438
3487.374	4397
3489.084	4496
3490.795	4463
3492.504	4386
3494.214	4414
3495.922	4438
3497.63	4403
3499.338	4339
3501.045	4422
3502.753	4437
3504.459	4428
3506.166	4367
3507.871	4313
3509.576	4408
3511.283	4373
3512.987	4407
3514.691	4335
3516.395	4465
3518.098	4306
3519.8	4280
3521.504	4306
3523.206	4287
3524.908	4364
3526.609	4283
3528.309	4276
3530.011	4226
3531.711	4307
3533.411	4266
3535.109	4321
3536.808	4335
3538.507	4315
3540.206	4288
3541.904	4212
3543.601	4265
3545.297	4222
3546.994	4232
3548.69	4158
3550.387	4182
3552.081	4225
3553.776	4277
3555.47	4337
3557.166	4273
3558.859	4207
3560.553	4200
3562.245	4264
3563.938	4233
3565.629	4223
3567.322	4278
3569.014	4165
3570.704	4153
3572.394	4230
3574.084	4180
3575.775	4199
3577.464	4120
3579.152	4269
3580.842	4160
3582.529	4202
3584.216	4091
3585.905	4169
3587.591	4209
3589.279	4176
3590.964	4119
3592.649	4041
3594.336	4175
3596.021	4221
3597.705	4103
3599.388	4131
3601.072	4087
3602.757	4058
3604.439	4082
3606.122	4001
3607.803	4036
3609.485	4022
3611.167	4050
3612.849	4103
3614.529	4110
3616.208	4101
3617.888	4009
3619.567	4012
3621.247	4004
3622.926	3946
3624.603	4063
3626.281	4054
3627.958	4005
3629.635	3933
3631.312	3982
3632.989	3976
3634.665	4067
3636.339	3965
3638.014	3946
3639.691	4010
3641.364	3976
3643.038	4017
3644.71	3904
3646.384	3995
3648.058	3886
3649.729	3989
3651.402	3994
3653.073	4000
3654.744	3926
3656.414	3913
3658.085	3940
3659.755	3991
3661.424	3876
3663.094	3933
3664.762	3930
3666.431	3930
3668.099	3821
3669.766	3825
3671.433	3912
3673.099	3907
3674.768	3887
3676.433	3885
3678.098	3775
3679.763	3878
3681.428	3794
3683.093	3903
3684.757	3895
3686.421	3861
3688.083	3884
3689.746	3812
3691.408	3850
3693.071	3920
3694.733	3818
3696.394	3794
3698.054	3896
3699.715	3819
3701.375	3766
3703.036	3878
3704.695	3828
3706.354	3832
3708.012	3883
3709.67	3810
3711.329	3807
3712.987	3828
3714.644	3853
3716.299	3791
3717.955	3756
3719.613	3725
3721.268	3802
3722.923	3860
3724.577	3798
3726.231	3708
3727.885	3727
3729.539	3821
3731.192	3764
3732.845	3837
3734.497	3725
3736.149	3676
3737.802	3886
3739.453	3793
3741.104	3728
3742.753	3749
3744.404	3757
3746.052	3739
3747.704	3819
3749.352	3734
3751	3733
3752.648	3784
3754.296	3735
3755.944	3766
3757.59	3721
3759.238	3749
3760.883	3683
3762.528	3744
3764.176	3696
3765.82	3641
3767.464	3671
3769.109	3724
3770.753	3677
3772.396	3709
3774.04	3814
3775.683	3659
3777.325	3552
3778.967	3601
3780.608	3699
3782.25	3699
3783.89	3673
3785.531	3696
3787.17	3665
3788.81	3674
3790.45	3663
3792.09	3606
3793.729	3585
3795.366	3574
3797.003	3620
3798.64	3582
3800.278	3662
3801.915	3559
3803.551	3670
3805.187	3682
3806.822	3536
3808.458	3658
3810.093	3624
3811.726	3619
3813.36	3591
3814.994	3550
3816.627	3601
3818.262	3543
3819.893	3579
3821.525	3581
3823.157	3569
3824.787	3615
3826.42	3616
3828.051	3595
3829.68	3609
3831.31	3542
3832.938	3562
3834.569	3545
3836.198	3569
3837.825	3501
3839.454	3507
3841.08	3572
3842.708	3506
3844.335	3643
3845.962	3439
3847.587	3490
3849.212	3406
3850.838	3559
3852.463	3595
3854.089	3492
3855.712	3508
3857.335	3445
3858.959	3521
3860.582	3460
3862.205	3470
3863.827	3470
3865.449	3516
3867.07	3510
3868.691	3486
3870.312	3452
3871.933	3490
3873.553	3497
3875.173	3468
3876.792	3478
3878.411	3380
3880.03	3506
3881.647	3413
3883.265	3427
3884.882	3458
3886.499	3454
3888.116	3410
3889.732	3413
3891.348	3422
3892.964	3407
3894.579	3332
3896.195	3466
3897.809	3361
3899.423	3375
3901.036	3417
3902.648	3382
3904.261	3331
3905.875	3381
3907.487	3353
3909.099	3390
3910.709	3409
3912.321	3456
3913.933	3336
3915.542	3393
3917.152	3364
3918.762	3443
3920.37	3381
3921.98	3381
3923.589	3412
3925.196	3370
3926.804	3298
3928.41	3403
3930.018	3432
3931.626	3364
3933.231	3375
3934.838	3367
3936.442	3292
3938.046	3418
3939.653	3350
3941.257	3298
3942.861	3392
3944.464	3386
3946.068	3372
3947.67	3302
3949.273	3402
3950.876	3352
3952.477	3390
3954.078	3295
3955.678	3323
3957.281	3364
3958.881	3293
3960.48	3375
3962.079	3279
3963.678	3295
3965.279	3245
3966.877	3311
3968.475	3314
3970.072	3233
3971.669	3334
3973.266	3268
3974.864	3293
3976.459	3237
3978.055	3322
3979.65	3271
3981.245	3312
3982.841	3256
3984.436	3246
3986.03	3265
3987.623	3257
3989.216	3265
3990.809	3193
3992.403	3192
3993.995	3278
3995.586	3215
3997.177	3222
3998.768	3181
4000.361	3211
4001.951	3190
4003.54	3236
4005.13	3276
4006.719	3186
4008.31	3224
4009.897	3225
4011.485	3164
4013.073	3154
4014.66	3122
4016.247	3160
4017.834	3236
4019.421	3192
4021.006	3173
4022.592	3085
4024.178	3197
4025.763	3151
4027.348	3133
4028.932	3120
4030.515	3133
4032.099	3176
4033.682	3135
4035.266	3056
4036.847	3095
4038.429	3150
4040.011	3127
4041.592	3144
4043.173	3160
4044.755	3163
4046.334	3147
4047.913	3077
4049.494	3182
4051.074	3058
4052.652	3088
4054.23	3101
4055.807	3136
4057.385	3044
4058.963	3117
4060.541	3071
4062.117	3062
4063.693	3072
4065.269	3118
4066.844	3075
4068.42	3104
4069.995	3072
4071.569	3048
4073.143	3010
4074.716	3119
4076.291	3050
4077.864	3074
4079.436	3023
4081.009	3092
4082.58	3077
4084.152	3087
4085.723	3037
4087.294	3027
4088.865	3092
4090.435	3121
4092.005	2977
4093.574	2997
4095.143	3010
4096.712	3004
4098.279	3042
4099.848	3020
4101.416	2975
4102.984	3067
4104.55	3022
4106.117	3020
4107.682	2929
4109.248	2943
4110.815	2999
4112.379	2985
4113.945	3009
4115.508	2970
4117.073	2973
4118.637	3013
4120.201	2937
4121.763	2948
4123.325	2991
4124.888	2916
4126.449	2960
4128.013	2942
4129.573	2967
4131.133	2928
4132.694	2943
4134.254	2891
4135.814	2916
4137.374	2867
4138.933	2889
4140.491	2878
4142.049	2903
4143.607	2940
4145.167	2954
4146.724	2863
4148.28	2836
4149.836	2938
4151.392	2885
4152.949	2897
4154.504	2870
4156.059	2891
4157.614	2940
4159.168	2904
4160.723	2891
4162.277	2856
4163.83	2807
4165.383	2813
4166.936	2821
4168.488	2877
4170.041	2851
4171.593	2840
4173.144	2911
4174.695	2860
4176.246	2841
4177.796	2858
4179.346	2788
4180.896	2813
4182.445	2844
4183.994	2789
4185.542	2843
4187.091	2776
4188.639	2766
4190.185	2827
4191.732	2842
4193.279	2830
4194.826	2810
4196.373	2829
4197.918	2721
4199.463	2768
4201.008	2786
4202.553	2816
4204.098	2762
4205.641	2757
4207.185	2781
4208.728	2754
4210.271	2795
4211.814	2811
4213.357	2756
4214.898	2756
4216.439	2762
4217.98	2832
4219.522	2821
4221.062	2776
4222.603	2727
4224.142	2758
4225.681	2664
4227.222	2805
4228.76	2716
4230.298	2760
4231.835	2762
4233.373	2733
4234.911	2785
4236.449	2786
4237.985	2737
4239.521	2714
4241.057	2749
4242.592	2761
4244.128	2743
4245.663	2749
4247.197	2743
4248.731	2818
4250.265	2697
4251.798	2676
4253.333	2695
4254.865	2710
4256.397	2699
4257.93	2761
4259.461	2679
4260.994	2753
4262.525	2725
4264.056	2692
4265.586	2671
4267.115	2702
4268.646	2688
4270.176	2685
4271.705	2701
4273.232	2678
4274.761	2638
4276.289	2684
4277.818	2673
4279.345	2707
4280.872	2675
4282.399	2717
4283.924	2637
4285.452	2702
4286.976	2650
4288.502	2638
4290.026	2647
4291.551	2650
4293.074	2654
4294.6	2627
4296.123	2642
4297.646	2541
4299.168	2689
4300.691	2628
4302.214	2590
4303.736	2599
4305.257	2624
4306.778	2629
4308.299	2647
4309.82	2590
4311.34	2588
4312.86	2584
4314.379	2613
