400.0745	4294
402.597	4381
405.1208	4363
407.6419	4374
410.1623	4403
412.6819	4453
415.201	4449
417.7172	4450
420.2369	4528
422.7538	4531
425.2701	4591
427.7856	4629
430.3005	4670
432.8147	4595
435.3282	4589
437.841	4524
440.3511	4616
442.8625	4523
445.3753	4624
447.8854	4660
450.3927	4679
452.9014	4594
455.4073	4722
457.9146	4633
460.4233	4668
462.9272	4638
465.4325	4679
467.935	4690
470.4389	4781
472.9421	4697
475.4446	4604
477.9444	4618
480.4456	4835
482.944	4736
485.4417	4695
487.9429	4836
490.4393	4825
492.935	4899
495.4321	4678
497.9264	4805
500.4221	4913
502.9171	4943
505.4094	4952
507.9011	4794
510.392	4903
512.8864	4889
515.3759	4897
517.8649	4989
520.3531	4912
522.8406	4959
525.3275	4827
527.8178	4915
530.3033	4901
532.7881	4900
535.2723	4808
537.7558	4905
540.2407	4904
542.7228	4930
545.2043	4913
547.6851	5007
550.1652	5049
552.6467	4894
555.1255	4901
557.6016	4945
560.079	4896
562.5557	4915
565.0318	4975
567.5092	4998
569.984	5002
572.456	4985
574.9294	5081
577.4022	5142
579.8762	5040
582.3456	5049
584.8163	5049
587.2863	5096
589.7557	5128
592.2224	5136
594.6924	5079
597.1578	5147
599.6245	5083
602.0905	5074
604.5538	5137
607.0206	5112
609.4825	5112
611.9459	5106
614.4066	5132
616.8686	5115
619.33	5052
621.7906	4995
624.2487	5110
626.708	5061
629.1647	5047
631.6207	5001
634.0801	5080
636.5348	5098
638.9888	5142
641.4442	5116
643.8969	5122
646.3509	4988
648.8022	5164
651.255	5167
653.705	5163
656.1544	5225
658.6031	5162
661.0532	5173
663.5026	5141
665.9493	5251
668.3954	5189
670.8409	5243
673.2877	5263
675.7318	5164
678.1752	5303
680.618	5219
683.0601	5256
685.5035	5361
687.9444	5349
690.3845	5368
692.824	5256
695.2628	5370
697.701	5312
700.1406	5313
702.5774	5393
705.0116	5404
707.4472	5279
709.8821	5309
712.3183	5332
714.7519	5344
717.1829	5345
719.6151	5502
722.0468	5342
724.4777	5407
726.908	5469
729.3377	5423
731.7667	5446
734.1931	5619
736.6208	5447
739.0498	5546
741.4742	5544
743.9	5623
746.3231	5477
748.7476	5574
751.1713	5591
753.5945	5636
756.015	5517
758.4368	5622
760.856	5604
763.2766	5672
765.6965	5604
768.1157	5601
770.5323	5619
772.9483	5689
775.3656	5650
777.7822	5662
780.1963	5695
782.6116	5598
785.0244	5705
787.4365	5619
789.8499	5681
792.2626	5685
794.6728	5677
797.0823	5597
799.4911	5636
801.8994	5655
804.3109	5597
806.7178	5717
809.124	5685
811.5297	5769
813.9347	5756
816.341	5824
818.7447	5847
821.1478	5755
823.5502	5814
825.952	5806
828.3531	5771
830.7556	5786
833.1554	5771
835.5546	5709
837.9532	5772
840.3511	5805
842.7504	5828
845.1451	5791
847.5411	5847
849.9365	5861
852.3312	5843
854.7272	5874
857.1187	5839
859.5115	5776
861.9037	5773
864.2952	5875
866.6842	5836
869.0764	5807
871.4661	5781
873.8531	5960
876.2415	5808
878.6272	5845
881.0162	5796
883.4026	5810
885.7866	5841
888.1717	5776
890.5543	5766
892.9382	5833
895.3215	5839
897.7041	5791
900.0842	5883
902.4655	5836
904.8443	5821
907.2244	5820
909.6039	5782
911.9808	5955
914.357	5847
916.7346	5905
919.1115	5988
921.4859	5935
923.8616	5946
926.2347	6042
928.6071	6010
930.979	6010
933.3541	6074
935.7247	6038
938.0946	6039
940.4639	6163
942.8326	6203
945.2026	6240
947.5701	6278
949.9369	6347
952.305	6429
954.6705	6603
957.0355	6580
959.4017	6799
961.7654	6875
964.1284	6957
966.4908	6767
968.8527	6628
971.2138	6542
973.5743	6364
975.9343	6285
978.2936	6207
980.6522	6154
983.0122	6131
985.3696	5947
987.7245	5974
990.0807	6006
992.4362	6086
994.7911	5944
997.1474	6033
999.4991	6043
1001.852	6021
1004.205	6030
1006.555	6121
1008.908	6043
1011.258	6022
1013.606	6035
1015.956	6086
1018.302	6075
1020.652	5985
1022.998	6076
1025.345	6041
1027.691	6103
1030.035	6102
1032.378	6080
1034.724	6100
1037.066	6158
1039.409	6276
1041.75	6175
1044.092	6156
1046.433	6177
1048.771	6202
1051.112	6224
1053.449	6076
1055.786	6151
1058.124	6197
1060.462	6203
1062.797	6265
1065.131	6156
1067.467	6224
1069.8	6239
1072.135	6200
1074.467	6209
1076.798	6202
1079.129	6251
1081.459	6151
1083.792	6222
1086.121	6093
1088.449	6306
1090.777	6220
1093.104	6229
1095.431	6257
1097.759	6156
1100.084	6247
1102.408	6136
1104.732	6186
1107.056	6166
1109.379	6163
1111.701	6218
1114.022	6249
1116.343	6187
1118.664	6231
1120.983	6148
1123.303	6167
1125.621	6172
1127.939	6257
1130.256	6227
1132.573	6258
1134.889	6135
1137.205	6335
1139.52	6101
1141.832	6239
1144.146	6209
1146.461	6147
1148.771	6208
1151.083	6315
1153.392	6206
1155.703	6120
1158.011	6190
1160.323	6314
1162.629	6331
1164.938	6172
1167.243	6199
1169.55	6196
1171.857	6150
1174.163	6252
1176.466	6214
1178.769	6133
1181.073	6244
1183.374	6169
1185.677	6221
1187.979	6226
1190.279	6244
1192.578	6220
1194.878	6118
1197.178	6274
1199.476	6211
1201.772	6289
1204.068	6207
1206.366	6376
1208.663	6246
1210.957	6255
1213.251	6365
1215.544	6266
1217.836	6218
1220.128	6245
1222.421	6164
1224.712	6282
1227.002	6220
1229.292	6295
1231.581	6351
1233.871	6418
1236.159	6354
1238.446	6271
1240.732	6368
1243.018	6368
1245.304	6313
1247.59	6432
1249.874	6408
1252.156	6472
1254.439	6338
1256.721	6404
1259.005	6315
1261.286	6418
1263.565	6362
1265.845	6476
1268.125	6397
1270.403	6405
1272.682	6394
1274.959	6446
1277.234	6502
1279.511	6480
1281.787	6323
1284.062	6415
1286.337	6327
1288.609	6390
1290.882	6357
1293.153	6351
1295.428	6421
1297.698	6406
1299.969	6387
1302.237	6369
1304.507	6299
1306.777	6438
1309.044	6422
1311.312	6429
1313.578	6280
1315.844	6321
1318.109	6360
1320.375	6291
1322.638	6435
1324.903	6443
1327.165	6437
1329.427	6294
1331.69	6196
1333.952	6213
1336.212	6376
1338.471	6426
1340.73	6328
1342.988	6326
1345.248	6399
1347.505	6417
1349.763	6453
1352.019	6298
1354.274	6350
1356.53	6403
1358.784	6316
1361.038	6305
1363.291	6406
1365.543	6304
1367.797	6334
1370.048	6413
1372.296	6395
1374.546	6361
1376.796	6482
1379.045	6419
1381.295	6434
1383.542	6302
1385.787	6441
1388.034	6521
1390.28	6486
1392.527	6462
1394.772	6470
1397.014	6407
1399.258	6479
1401.501	6463
1403.741	6318
1405.985	6451
1408.226	6494
1410.465	6465
1412.705	6471
1414.943	6528
1417.184	6490
1419.42	6497
1421.658	6546
1423.894	6532
1426.13	6505
1428.366	6596
1430.602	6457
1432.835	6467
1435.069	6612
1437.301	6577
1439.535	6517
1441.767	6702
1443.997	6536
1446.229	6599
1448.458	6610
1450.687	6563
1452.916	6555
1455.146	6660
1457.372	6659
1459.599	6607
1461.824	6573
1464.051	6608
1466.277	6559
1468.501	6627
1470.725	6492
1472.948	6426
1475.17	6520
1477.393	6537
1479.614	6492
1481.837	6405
1484.057	6516
1486.276	6386
1488.497	6428
1490.715	6475
1492.932	6291
1495.148	6490
1497.364	6425
1499.58	6473
1501.798	6388
1504.012	6369
1506.227	6356
1508.44	6415
1510.653	6410
1512.866	6397
1515.078	6374
1517.289	6352
1519.5	6403
1521.711	6336
1523.92	6404
1526.13	6429
1528.338	6372
1530.544	6374
1532.752	6339
1534.959	6400
1537.165	6321
1539.371	6334
1541.574	6451
1543.779	6372
1545.983	6428
1548.187	6420
1550.39	6410
1552.59	6361
1554.792	6455
1556.991	6416
1559.19	6541
1561.392	6498
1563.59	6496
1565.789	6459
1567.986	6580
1570.182	6573
1572.381	6503
1574.576	6579
1576.771	6593
1578.966	6477
1581.16	6443
1583.354	6426
1585.546	6582
1587.74	6451
1589.931	6619
1592.121	6572
1594.311	6476
1596.502	6532
1598.693	6494
1600.881	6565
1603.069	6551
1605.256	6651
1607.445	6563
1609.631	6539
1611.816	6551
1614.001	6600
1616.186	6546
1618.37	6640
1620.555	6578
1622.737	6620
1624.919	6625
1627.101	6541
1629.282	6663
1631.463	6619
1633.643	6743
1635.822	6693
1638.001	6663
1640.179	6691
1642.359	6587
1644.534	6579
1646.711	6677
1648.887	6636
1651.062	6801
1653.235	6654
1655.412	6684
1657.586	6725
1659.757	6758
1661.93	6625
1664.1	6718
1666.274	6686
1668.445	6735
1670.614	6686
1672.784	6706
1674.951	6678
1677.12	6694
1679.289	6792
1681.457	6614
1683.622	6740
1685.789	6752
1687.953	6704
1690.121	6664
1692.284	6692
1694.447	6628
1696.611	6578
1698.772	6570
1700.935	6748
1703.098	6594
1705.258	6732
1707.417	6585
1709.576	6580
1711.736	6582
1713.896	6549
1716.053	6506
1718.21	6532
1720.366	6591
1722.522	6530
1724.68	6629
1726.835	6510
1728.989	6560
1731.142	6649
1733.295	6527
1735.449	6509
1737.601	6432
1739.753	6582
1741.903	6528
1744.054	6608
1746.203	6649
1748.354	6538
1750.503	6592
1752.651	6642
1754.798	6573
1756.944	6565
1759.092	6462
1761.238	6607
1763.383	6628
1765.528	6573
1767.672	6663
1769.814	6660
1771.959	6661
1774.102	6629
1776.242	6662
1778.384	6689
1780.525	6609
1782.665	6569
1784.805	6674
1786.945	6631
1789.082	6570
1791.22	6687
1793.36	6513
1795.495	6639
1797.632	6607
1799.766	6676
1801.902	6675
1804.035	6577
1806.172	6632
1808.304	6670
1810.436	6550
1812.569	6540
1814.699	6572
1816.833	6575
1818.963	6510
1821.092	6640
1823.222	6684
1825.35	6599
1827.478	6730
1829.608	6490
1831.734	6590
1833.86	6607
1835.986	6650
1838.11	6580
1840.238	6611
1842.362	6555
1844.485	6606
1846.608	6527
1848.73	6641
1850.853	6529
1852.974	6577
1855.097	6488
1857.217	6623
1859.336	6560
1861.455	6638
1863.576	6564
1865.693	6594
1867.811	6481
1869.926	6578
1872.042	6576
1874.16	6620
1876.275	6518
1878.39	6480
1880.504	6553
1882.618	6625
1884.731	6586
1886.843	6570
1888.956	6549
1891.067	6572
1893.178	6579
1895.287	6600
1897.399	6537
1899.508	6516
1901.617	6562
1903.724	6668
1905.832	6752
1907.941	6582
1910.046	6530
1912.152	6640
1914.256	6652
1916.361	6737
1918.464	6712
1920.57	6643
1922.672	6640
1924.775	6626
1926.876	6686
1928.978	6675
1931.08	6575
1933.181	6677
1935.28	6580
1937.38	6590
1939.478	6758
1941.577	6639
1943.675	6754
1945.771	6635
1947.867	6720
1949.964	6678
1952.058	6684
1954.154	6653
1956.248	6609
1958.343	6623
1960.435	6705
1962.527	6656
1964.62	6718
1966.711	6588
1968.802	6692
1970.892	6676
1972.983	6720
1975.072	6736
1977.162	6673
1979.25	6549
1981.337	6620
1983.424	6596
1985.51	6676
1987.598	6690
1989.683	6699
1991.768	6624
1993.852	6583
1995.934	6562
1998.019	6557
2000.102	6524
2002.184	6634
2004.266	6660
2006.347	6656
2008.427	6552
2010.508	6543
2012.587	6477
2014.666	6508
2016.745	6492
2018.821	6515
2020.9	6575
2022.977	6520
2025.052	6512
2027.128	6633
2029.204	6630
2031.277	6592
2033.353	6501
2035.425	6550
2037.499	6495
2039.57	6466
2041.642	6530
2043.714	6570
2045.786	6641
2047.855	6547
2049.925	6486
2051.993	6608
2054.064	6456
2056.132	6542
2058.2	6571
2060.266	6608
2062.332	6472
2064.398	6521
2066.465	6521
2068.529	6532
2070.592	6530
2072.657	6543
2074.719	6623
2076.783	6644
2078.845	6591
2080.907	6465
2082.968	6486
2085.028	6372
2087.087	6540
2089.148	6630
2091.207	6509
2093.264	6576
2095.322	6592
2097.379	6569
2099.439	6491
2101.495	6506
2103.55	6529
2105.605	6460
2107.658	6575
2109.713	6510
2111.767	6525
2113.82	6502
2115.872	6522
2117.924	6628
2119.975	6439
2122.028	6486
2124.078	6478
2126.126	6635
2128.176	6565
2130.225	6622
2132.275	6549
2134.321	6579
2136.368	6430
2138.415	6502
2140.461	6508
2142.505	6371
2144.552	6595
2146.597	6488
2148.64	6567
2150.684	6505
2152.725	6491
2154.77	6377
2156.811	6516
2158.852	6495
2160.894	6427
2162.933	6520
2164.973	6534
2167.013	6597
2169.051	6450
2171.089	6530
2173.126	6502
2175.164	6354
2177.201	6417
2179.236	6448
2181.273	6421
2183.307	6501
2185.341	6489
2187.377	6425
2189.41	6413
2191.442	6421
2193.473	6552
2195.506	6371
2197.539	6432
2199.569	6459
2201.598	6402
2203.628	6307
2205.656	6350
2207.686	6264
2209.716	6326
2211.743	6410
2213.769	6369
2215.796	6407
2217.821	6204
2219.848	6459
2221.873	6347
2223.897	6386
2225.921	6381
2227.944	6388
2229.967	6368
2231.991	6362
2234.011	6382
2236.032	6404
2238.053	6295
2240.073	6261
2242.094	6325
2244.114	6341
2246.131	6348
2248.149	6306
2250.167	6313
2252.186	6285
2254.201	6222
2256.218	6335
2258.233	6401
2260.247	6367
2262.262	6377
2264.278	6370
2266.29	6237
2268.303	6353
2270.315	6349
2272.327	6302
2274.341	6341
2276.35	6298
2278.361	6347
2280.37	6381
2282.38	6359
2284.388	6364
2286.397	6271
2288.405	6264
2290.412	6349
2292.419	6321
2294.425	6360
2296.431	6306
2298.437	6277
2300.441	6254
2302.445	6363
2304.449	6383
2306.453	6407
2308.455	6231
2310.457	6212
2312.459	6242
2314.46	6285
2316.46	6271
2318.461	6194
2320.46	6259
2322.458	6255
2324.458	6234
2326.456	6240
2328.455	6268
2330.451	6134
2332.447	6150
2334.443	6345
2336.438	6221
2338.433	6179
2340.429	6146
2342.422	6129
2344.416	6302
2346.408	6258
2348.399	6218
2350.393	6220
2352.384	6089
2354.375	6222
2356.365	6238
2358.355	6198
2360.344	6104
2362.333	6106
2364.322	6077
2366.309	6225
2368.295	6189
2370.282	6212
2372.27	6232
2374.256	6043
2376.24	6240
2378.225	6264
2380.208	6169
2382.194	6275
2384.177	6054
2386.159	6091
2388.142	6120
2390.122	6135
2392.105	6271
2394.085	6092
2396.066	5970
2398.044	6027
2400.024	6055
2402.002	5952
2403.982	6160
2405.959	6144
2407.935	6041
2409.913	6074
2411.888	6072
2413.865	5979
2415.84	5931
2417.814	6105
2419.788	6021
2421.762	6111
2423.735	6141
2425.708	6106
2427.68	6079
2429.651	6096
2431.623	6091
2433.593	6109
2435.564	6154
2437.533	6111
2439.502	6073
2441.47	6130
2443.438	6036
2445.406	6069
2447.373	6068
2449.34	6055
2451.305	5940
2453.271	6026
2455.235	5982
2457.201	5977
2459.165	5932
2461.129	6055
2463.092	6031
2465.054	6224
2467.018	5950
2468.978	6047
2470.939	6046
2472.899	6120
2474.86	6058
2476.819	6012
2478.778	6008
2480.737	6046
2482.695	5999
2484.653	5893
2486.609	5875
2488.567	6087
2490.524	5948
2492.478	5932
2494.433	5969
2496.387	5995
2498.343	5953
2500.297	6031
2502.249	5800
2504.202	5872
2506.153	5940
2508.105	5918
2510.057	5839
2512.008	5873
2513.957	5917
2515.906	5945
2517.855	5894
2519.805	5807
2521.754	5923
2523.7	5868
2525.647	5991
2527.594	5844
2529.54	5861
2531.486	5842
2533.431	5976
2535.376	5881
2537.32	5867
2539.263	5904
2541.207	5880
2543.151	5908
2545.093	5924
2547.034	5913
2548.975	5801
2550.917	5825
2552.856	5923
2554.796	5974
2556.735	5986
2558.673	5887
2560.611	5811
2562.55	5912
2564.487	5901
2566.424	5851
2568.36	5894
2570.296	5867
2572.232	5884
2574.167	5868
2576.101	5979
2578.035	5908
2579.969	5914
2581.902	6009
2583.834	5976
2585.766	5933
2587.698	5882
2589.628	6029
2591.557	5857
2593.489	5870
2595.419	5997
2597.348	5820
2599.275	5886
2601.204	5878
2603.131	5926
2605.059	5922
2606.986	5883
2608.911	5849
2610.837	5906
2612.76	5973
2614.687	5982
2616.61	5929
2618.534	5862
2620.457	5874
2622.38	5867
2624.302	5929
2626.225	5802
2628.145	6032
2630.067	5945
2631.986	5951
2633.906	5948
2635.827	5894
2637.745	5955
2639.662	5892
2641.581	5915
2643.498	5749
2645.415	5934
2647.331	5970
2649.248	5840
2651.163	5856
2653.077	5832
2654.993	5820
2656.906	5900
2658.821	5833
2660.733	5929
2662.646	5830
2664.557	5880
2666.47	5873
2668.381	5851
2670.291	5807
2672.201	5809
2674.11	5760
2676.021	5877
2677.929	5881
2679.837	5811
2681.745	5846
2683.652	5804
2685.56	5865
2687.466	5761
2689.371	5838
2691.276	5791
2693.181	5783
2695.085	5754
2696.991	5765
2698.893	5791
2700.796	5801
2702.698	5832
2704.601	5681
2706.502	5732
2708.404	5715
2710.304	5702
2712.203	5768
2714.103	5728
2716.003	5751
2717.902	5747
2719.8	5730
2721.697	5683
2723.594	5685
2725.49	5786
2727.389	5666
2729.283	5793
2731.179	5697
2733.073	5865
2734.968	5767
2736.863	5743
2738.757	5696
2740.649	5808
2742.541	5730
2744.433	5665
2746.324	5697
2748.216	5640
2750.107	5745
2751.997	5724
2753.886	5680
2755.776	5676
2757.666	5780
2759.553	5631
2761.44	5678
2763.327	5600
2765.215	5623
2767.102	5723
2768.988	5639
2770.873	5638
2772.757	5656
2774.641	5654
2776.525	5650
2778.41	5691
2780.292	5631
2782.175	5584
2784.057	5658
2785.938	5544
2787.821	5728
2789.701	5660
2791.581	5754
2793.461	5638
2795.34	5584
2797.219	5565
2799.099	5666
2800.975	5709
2802.853	5710
2804.73	5631
2806.606	5642
2808.484	5549
2810.358	5639
2812.233	5631
2814.108	5633
2815.981	5567
2817.857	5519
2819.73	5577
2821.602	5596
2823.474	5515
2825.346	5593
2827.217	5644
2829.089	5470
2830.959	5547
2832.829	5593
2834.698	5528
2836.567	5533
2838.436	5582
2840.305	5577
2842.172	5586
2844.04	5604
2845.905	5565
2847.772	5556
2849.639	5653
2851.503	5509
2853.369	5547
2855.232	5522
2857.096	5610
2858.961	5650
2860.824	5551
2862.686	5625
2864.547	5661
2866.41	5628
2868.272	5485
2870.132	5688
2871.992	5681
2873.851	5633
2875.711	5717
2877.57	5824
2879.429	5750
2881.287	5752
2883.144	5751
2885.001	5806
2886.857	5688
2888.714	5789
2890.57	5797
2892.425	5831
2894.279	5609
2896.133	5727
2897.987	5847
2899.842	5752
2901.694	5733
2903.547	5879
2905.397	5743
2907.249	5656
2909.101	5695
2910.952	5709
2912.802	5772
2914.652	5738
2916.5	5719
2918.35	5874
2920.198	5795
2922.045	5873
2923.893	5942
2925.74	5926
2927.585	5815
2929.433	5985
2931.279	6035
2933.123	6022
2934.968	6024
2936.811	5963
2938.656	6028
2940.5	6074
2942.342	6076
2944.185	6180
2946.026	6136
2947.87	6110
2949.71	6013
2951.549	6024
2953.39	6080
2955.229	6045
2957.069	5941
2958.908	5937
2960.746	6043
2962.584	5898
2964.421	5817
2966.257	5813
2968.094	5906
2969.931	5810
2971.766	5742
2973.601	5713
2975.435	5724
2977.27	5780
2979.105	5723
2980.938	5719
2982.77	5730
2984.602	5664
2986.434	5701
2988.267	5787
2990.097	5668
2991.927	5619
2993.757	5581
2995.587	5601
2997.417	5634
2999.246	5624
3001.074	5495
3002.902	5469
3004.729	5464
3006.556	5384
3008.384	5521
3010.21	5400
3012.036	5317
3013.861	5403
3015.684	5418
3017.51	5356
3019.334	5347
3021.157	5385
3022.981	5316
3024.802	5224
3026.624	5343
3028.448	5266
3030.267	5266
3032.088	5308
3033.909	5189
3035.728	5179
3037.549	5269
3039.368	5250
3041.186	5175
3043.004	5248
3044.821	5252
3046.64	5320
3048.455	5236
3050.272	5186
3052.087	5163
3053.903	5241
3055.717	5215
3057.534	5217
3059.347	5204
3061.16	5147
3062.974	5116
3064.785	5249
3066.598	5171
3068.411	5178
3070.222	5154
3072.032	5146
3073.844	5128
3075.653	5110
3077.463	5135
3079.272	5132
3081.08	5134
3082.889	5132
3084.697	5066
3086.505	5093
3088.312	5075
3090.118	5032
3091.924	4979
3093.729	5087
3095.535	5089
3097.34	5020
3099.144	5045
3100.947	5114
3102.75	5012
3104.553	5093
3106.357	5054
3108.159	4998
3109.961	5055
3111.762	4933
3113.562	5036
3115.365	4968
3117.164	4946
3118.964	5028
3120.761	5036
3122.56	5023
3124.36	4975
3126.158	4925
3127.954	4964
3129.75	4970
3131.547	4875
3133.343	4987
3135.139	4921
3136.934	4966
3138.729	4887
3140.522	4906
3142.317	4925
3144.11	4940
3145.904	4919
3147.695	4889
3149.488	4814
3151.28	4926
3153.07	4882
3154.863	4854
3156.652	4757
3158.441	4850
3160.231	4817
3162.019	4853
3163.81	4814
3165.597	4861
3167.384	4846
3169.172	4820
3170.958	4769
3172.745	4792
3174.532	4904
3176.317	4881
3178.101	4885
3179.885	4877
3181.67	4885
3183.455	4880
3185.238	4893
3187.02	4777
3188.802	4818
3190.585	4749
3192.368	4750
3194.149	4807
3195.929	4869
3197.709	4714
3199.489	4779
3201.268	4741
3203.048	4845
3204.826	4800
3206.604	4700
3208.382	4807
3210.159	4778
3211.937	4788
3213.713	4805
3215.489	4850
3217.263	4686
3219.038	4744
3220.815	4842
3222.589	4769
3224.363	4802
3226.136	4694
3227.908	4654
3229.681	4769
3231.454	4742
3233.226	4828
3234.996	4689
3236.767	4707
3238.538	4764
3240.308	4629
3242.078	4691
3243.847	4744
3245.615	4725
3247.384	4640
3249.15	4755
3250.92	4732
3252.686	4662
3254.453	4632
3256.218	4712
3257.984	4697
3259.75	4826
3261.515	4811
3263.279	4743
3265.044	4688
3266.806	4661
3268.57	4760
3270.334	4641
3272.095	4739
3273.856	4669
3275.619	4731
3277.379	4607
3279.14	4671
3280.9	4838
3282.661	4724
3284.419	4709
3286.178	4696
3287.937	4723
3289.695	4733
3291.453	4692
3293.21	4710
3294.967	4650
3296.723	4751
3298.48	4679
3300.235	4621
3301.99	4616
3303.744	4680
3305.498	4665
3307.253	4690
3309.006	4681
3310.759	4725
3312.511	4611
3314.263	4674
3316.017	4664
3317.768	4674
3319.519	4596
3321.268	4726
3323.018	4787
3324.767	4681
3326.518	4745
3328.267	4590
3330.014	4757
3331.762	4666
3333.509	4635
3335.258	4622
3337.003	4551
3338.75	4581
3340.496	4631
3342.24	4614
3343.987	4732
3345.732	4576
3347.475	4536
3349.219	4595
3350.961	4643
3352.705	4612
3354.448	4652
3356.19	4665
3357.931	4632
3359.672	4538
3361.412	4630
3363.155	4510
3364.894	4649
3366.633	4576
3368.372	4528
3370.11	4556
3371.849	4544
3373.588	4593
3375.325	4518
3377.061	4520
3378.799	4497
3380.534	4540
3382.271	4545
3384.006	4525
3385.741	4580
3387.475	4559
3389.209	4567
3390.944	4479
3392.677	4534
3394.409	4474
3396.143	4583
3397.874	4376
3399.606	4483
3401.338	4481
3403.069	4458
3404.799	4430
3406.528	4549
3408.258	4557
3409.988	4563
3411.717	4524
3413.445	4391
3415.173	4449
3416.899	4559
3418.626	4535
3420.354	4425
3422.08	4473
3423.806	4502
3425.531	4524
3427.255	4503
3428.981	4435
3430.705	4437
3432.429	4494
3434.151	4398
3435.875	4406
3437.599	4398
3439.321	4427
3441.042	4427
3442.763	4328
3444.483	4504
3446.204	4419
3447.926	4364
3449.645	4353
3451.364	4394
3453.082	4449
3454.801	4348
3456.52	4357
3458.238	4287
3459.954	4267
3461.671	4326
3463.387	4303
3465.104	4339
3466.82	4319
3468.534	4366
3470.25	4240
3471.963	4330
3473.676	4340
3475.392	4329
3477.104	4340
3478.817	4260
3480.528	4260
3482.241	4313
3483.954	4283
3485.664	4223
3487.374	4236
3489.084	4254
3490.795	4223
3492.504	4210
3494.214	4214
3495.922	4256
3497.63	4299
3499.338	4220
3501.045	4168
3502.753	4231
3504.459	4139
3506.166	4183
3507.871	4226
3509.576	4275
3511.283	4159
3512.987	4257
3514.691	4230
3516.395	4272
3518.098	4115
3519.8	4122
3521.504	4162
3523.206	4123
3524.908	4175
3526.609	4111
3528.309	4149
3530.011	4162
3531.711	4118
3533.411	4194
3535.109	4193
3536.808	4162
3538.507	4108
3540.206	4006
3541.904	4071
3543.601	4146
3545.297	4178
3546.994	4084
3548.69	4133
3550.387	4083
3552.081	4020
3553.776	4082
3555.47	4079
3557.166	4021
3558.859	4169
3560.553	3992
3562.245	4181
3563.938	4127
3565.629	4017
3567.322	4051
3569.014	4088
3570.704	4047
3572.394	4006
3574.084	4073
3575.775	4085
3577.464	4061
3579.152	4068
3580.842	4077
3582.529	3944
3584.216	4028
3585.905	4015
3587.591	4061
3589.279	3985
3590.964	3967
3592.649	4099
3594.336	4060
3596.021	4016
3597.705	3984
3599.388	4026
3601.072	3977
3602.757	3985
3604.439	3962
3606.122	3935
3607.803	3919
3609.485	3978
3611.167	3909
3612.849	4022
3614.529	3933
3616.208	3927
3617.888	3887
3619.567	3938
3621.247	3916
3622.926	3873
3624.603	3914
3626.281	3916
3627.958	3875
3629.635	3949
3631.312	3929
3632.989	3860
3634.665	3893
3636.339	3777
3638.014	3903
3639.691	3881
3641.364	3840
3643.038	3872
3644.71	3775
3646.384	3842
3648.058	3782
3649.729	3842
3651.402	3860
3653.073	3778
3654.744	3841
3656.414	3825
3658.085	3759
3659.755	3742
3661.424	3797
3663.094	3793
3664.762	3806
3666.431	3802
3668.099	3772
3669.766	3823
3671.433	3766
3673.099	3708
3674.768	3761
3676.433	3782
3678.098	3788
3679.763	3753
3681.428	3689
3683.093	3759
3684.757	3712
3686.421	3789
3688.083	3753
3689.746	3793
3691.408	3734
3693.071	3702
3694.733	3677
3696.394	3683
3698.054	3758
3699.715	3637
3701.375	3693
3703.036	3710
3704.695	3723
3706.354	3721
3708.012	3696
3709.67	3709
3711.329	3756
3712.987	3687
3714.644	3730
3716.299	3709
3717.955	3694
3719.613	3628
3721.268	3714
3722.923	3621
3724.577	3676
3726.231	3640
3727.885	3664
3729.539	3655
3731.192	3567
3732.845	3659
3734.497	3740
3736.149	3591
3737.802	3631
3739.453	3706
3741.104	3596
3742.753	3657
3744.404	3626
3746.052	3614
3747.704	3588
3749.352	3643
3751	3674
3752.648	3602
3754.296	3608
3755.944	3656
3757.59	3547
3759.238	3572
3760.883	3643
3762.528	3566
3764.176	3613
3765.82	3568
3767.464	3551
3769.109	3583
3770.753	3650
3772.396	3650
3774.04	3593
3775.683	3527
3777.325	3586
3778.967	3512
3780.608	3564
3782.25	3480
3783.89	3546
3785.531	3499
3787.17	3511
3788.81	3607
3790.45	3627
3792.09	3518
3793.729	3480
3795.366	3526
3797.003	3534
3798.64	3607
3800.278	3521
3801.915	3461
3803.551	3511
3805.187	3456
3806.822	3479
3808.458	3495
3810.093	3465
3811.726	3482
3813.36	3494
3814.994	3482
3816.627	3446
3818.262	3506
3819.893	3448
3821.525	3547
3823.157	3449
3824.787	3457
3826.42	3416
3828.051	3445
3829.68	3486
3831.31	3449
3832.938	3431
3834.569	3488
3836.198	3462
3837.825	3497
3839.454	3414
3841.08	3461
3842.708	3350
3844.335	3453
3845.962	3416
3847.587	3454
3849.212	3400
3850.838	3359
3852.463	3435
3854.089	3322
3855.712	3340
3857.335	3311
3858.959	3366
3860.582	3428
3862.205	3414
3863.827	3451
3865.449	3432
3867.07	3378
3868.691	3291
3870.312	3422
3871.933	3376
3873.553	3416
3875.173	3353
3876.792	3316
3878.411	3277
3880.03	3332
3881.647	3311
3883.265	3336
3884.882	3424
3886.499	3337
3888.116	3318
3889.732	3341
3891.348	3403
3892.964	3337
3894.579	3264
3896.195	3342
3897.809	3336
3899.423	3308
3901.036	3337
3902.648	3322
3904.261	3393
3905.875	3334
3907.487	3298
3909.099	3309
3910.709	3228
3912.321	3286
3913.933	3289
3915.542	3333
3917.152	3338
3918.762	3298
3920.37	3377
3921.98	3360
3923.589	3219
3925.196	3316
3926.804	3351
3928.41	3253
3930.018	3355
3931.626	3250
3933.231	3334
3934.838	3265
3936.442	3319
3938.046	3262
3939.653	3323
3941.257	3250
3942.861	3323
3944.464	3178
3946.068	3294
3947.67	3312
3949.273	3221
3950.876	3207
3952.477	3264
3954.078	3217
3955.678	3285
3957.281	3242
3958.881	3276
3960.48	3214
3962.079	3161
3963.678	3265
3965.279	3229
3966.877	3192
3968.475	3262
3970.072	3253
3971.669	3157
3973.266	3205
3974.864	3190
3976.459	3156
3978.055	3181
3979.65	3198
3981.245	3165
3982.841	3158
3984.436	3209
3986.03	3134
3987.623	3136
3989.216	3155
3990.809	3152
3992.403	3105
3993.995	3104
3995.586	3140
3997.177	3192
3998.768	3097
4000.361	3146
4001.951	3120
4003.54	3152
4005.13	3090
4006.719	3074
4008.31	3074
4009.897	3119
4011.485	3151
4013.073	3134
4014.66	3065
4016.247	3113
4017.834	3045
4019.421	3103
4021.006	3031
4022.592	3084
4024.178	3027
4025.763	3110
4027.348	3032
4028.932	3010
4030.515	3035
4032.099	3077
4033.682	3131
4035.266	3004
4036.847	3008
4038.429	3057
4040.011	3074
4041.592	3062
4043.173	2969
4044.755	3051
4046.334	3086
4047.913	3017
4049.494	2953
4051.074	2936
4052.652	3011
4054.23	2979
4055.807	3002
4057.385	3029
4058.963	3024
4060.541	3049
4062.117	2981
4063.693	2969
4065.269	2974
4066.844	3011
4068.42	2978
4069.995	2986
4071.569	2957
4073.143	2942
4074.716	3011
4076.291	3001
4077.864	2968
4079.436	2918
4081.009	2913
4082.58	2953
4084.152	2977
4085.723	2951
4087.294	2921
4088.865	2962
4090.435	2964
4092.005	2919
4093.574	2950
4095.143	2958
4096.712	2963
4098.279	2855
4099.848	2868
4101.416	2917
4102.984	2908
4104.55	2871
4106.117	2900
4107.682	2985
4109.248	2837
4110.815	2903
4112.379	2960
4113.945	2819
4115.508	2873
4117.073	2899
4118.637	2912
4120.201	2899
4121.763	2855
4123.325	2901
4124.888	2849
4126.449	2965
4128.013	2886
4129.573	2906
4131.133	2847
4132.694	2760
4134.254	2845
4135.814	2883
4137.374	2810
4138.933	2801
4140.491	2819
4142.049	2897
4143.607	2920
4145.167	2794
4146.724	2889
4148.28	2777
4149.836	2749
4151.392	2809
4152.949	2890
4154.504	2752
4156.059	2824
4157.614	2798
4159.168	2810
4160.723	2735
4162.277	2689
4163.83	2793
4165.383	2800
4166.936	2740
4168.488	2764
4170.041	2788
4171.593	2810
4173.144	2782
4174.695	2698
4176.246	2772
4177.796	2675
4179.346	2712
4180.896	2690
4182.445	2747
4183.994	2725
4185.542	2708
4187.091	2730
4188.639	2721
4190.185	2826
4191.732	2726
4193.279	2793
4194.826	2769
4196.373	2694
4197.918	2700
4199.463	2706
4201.008	2675
4202.553	2701
4204.098	2663
4205.641	2637
4207.185	2713
4208.728	2709
4210.271	2626
4211.814	2666
4213.357	2685
4214.898	2635
4216.439	2694
4217.98	2678
4219.522	2622
4221.062	2703
4222.603	2707
4224.142	2682
4225.681	2566
4227.222	2682
4228.76	2579
4230.298	2703
4231.835	2660
4233.373	2698
4234.911	2645
4236.449	2722
4237.985	2657
4239.521	2741
4241.057	2630
4242.592	2605
4244.128	2695
4245.663	2696
4247.197	2627
4248.731	2658
4250.265	2597
4251.798	2717
4253.333	2590
4254.865	2637
4256.397	2588
4257.93	2617
4259.461	2612
4260.994	2578
4262.525	2667
4264.056	2657
4265.586	2594
4267.115	2607
4268.646	2573
4270.176	2582
4271.705	2579
4273.232	2631
4274.761	2540
4276.289	2583
4277.818	2606
4279.345	2602
4280.872	2633
4282.399	2564
4283.924	2553
4285.452	2561
4286.976	2623
4288.502	2538
4290.026	2555
4291.551	2573
4293.074	2535
4294.6	2571
4296.123	2522
4297.646	2558
4299.168	2577
4300.691	2593
4302.214	2474
4303.736	2547
4305.257	2542
4306.778	2547
4308.299	2481
4309.82	2611
4311.34	2530
4312.86	2523
4314.379	2516
