400.0745	4352
402.597	4392
405.1208	4391
407.6419	4415
410.1623	4389
412.6819	4344
415.201	4471
417.7172	4453
420.2369	4498
422.7538	4511
425.2701	4538
427.7856	4610
430.3005	4811
432.8147	4787
435.3282	4719
437.841	4728
440.3511	4717
442.8625	4752
445.3753	4700
447.8854	4653
450.3927	4515
452.9014	4633
455.4073	4680
457.9146	4596
460.4233	4642
462.9272	4588
465.4325	4614
467.935	4653
470.4389	4608
472.9421	4619
475.4446	4532
477.9444	4651
480.4456	4623
482.944	4618
485.4417	4572
487.9429	4636
490.4393	4722
492.935	4713
495.4321	4728
497.9264	4752
500.4221	4688
502.9171	4647
505.4094	4697
507.9011	4745
510.392	4762
512.8864	4698
515.3759	4780
517.8649	4811
520.3531	4842
522.8406	4836
525.3275	4814
527.8178	4866
530.3033	4746
532.7881	4847
535.2723	4742
537.7558	4743
540.2407	4903
542.7228	4795
545.2043	4763
547.6851	4803
550.1652	4736
552.6467	4729
555.1255	4879
557.6016	4744
560.079	4916
562.5557	4888
565.0318	4947
567.5092	4954
569.984	5016
572.456	5039
574.9294	4956
577.4022	5070
579.8762	5058
582.3456	5095
584.8163	5174
587.2863	5230
589.7557	5041
592.2224	5115
594.6924	5089
597.1578	5090
599.6245	4944
602.0905	4993
604.5538	5059
607.0206	5036
609.4825	4944
611.9459	5022
614.4066	4954
616.8686	4966
619.33	4949
621.7906	4881
624.2487	4899
626.708	4796
629.1647	4951
631.6207	4982
634.0801	4934
636.5348	4940
638.9888	4937
641.4442	4953
643.8969	4932
646.3509	4925
648.8022	5002
651.255	4984
653.705	4970
656.1544	4982
658.6031	5049
661.0532	5014
663.5026	5025
665.9493	5000
668.3954	5064
670.8409	5041
673.2877	5082
675.7318	5006
678.1752	5029
680.618	5131
683.0601	5134
685.5035	5059
687.9444	5141
690.3845	5180
692.824	5097
695.2628	5117
697.701	5081
700.1406	5127
702.5774	5109
705.0116	5098
707.4472	5216
709.8821	5132
712.3183	5142
714.7519	5155
717.1829	5236
719.6151	5229
722.0468	5119
724.4777	5286
726.908	5252
729.3377	5191
731.7667	5205
734.1931	5383
736.6208	5316
739.0498	5351
741.4742	5340
743.9	5387
746.3231	5384
748.7476	5411
751.1713	5444
753.5945	5454
756.015	5414
758.4368	5484
760.856	5495
763.2766	5532
765.6965	5472
768.1157	5553
770.5323	5494
772.9483	5558
775.3656	5536
777.7822	5426
780.1963	5504
782.6116	5549
785.0244	5381
787.4365	5542
789.8499	5478
792.2626	5443
794.6728	5435
797.0823	5378
799.4911	5473
801.8994	5558
804.3109	5521
806.7178	5547
809.124	5546
811.5297	5556
813.9347	5601
816.341	5614
818.7447	5567
821.1478	5554
823.5502	5635
825.952	5636
828.3531	5561
830.7556	5600
833.1554	5679
835.5546	5588
837.9532	5678
840.3511	5635
842.7504	5604
845.1451	5698
847.5411	5704
849.9365	5692
852.3312	5733
854.7272	5782
857.1187	5634
859.5115	5723
861.9037	5834
864.2952	5764
866.6842	5812
869.0764	5674
871.4661	5682
873.8531	5650
876.2415	5713
878.6272	5731
881.0162	5795
883.4026	5660
885.7866	5735
888.1717	5632
890.5543	5762
892.9382	5647
895.3215	5791
897.7041	5718
900.0842	5764
902.4655	5642
904.8443	5634
907.2244	5710
909.6039	5724
911.9808	5855
914.357	5833
916.7346	5843
919.1115	5929
921.4859	6037
923.8616	5950
926.2347	6059
928.6071	6036
930.979	6061
933.3541	6081
935.7247	6096
938.0946	6144
940.4639	6205
942.8326	6354
945.2026	6425
947.5701	6558
949.9369	6738
952.305	7021
954.6705	7332
957.0355	7695
959.4017	8216
961.7654	8297
964.1284	8337
966.4908	7886
968.8527	7526
971.2138	7097
973.5743	6634
975.9343	6326
978.2936	6245
980.6522	6148
983.0122	6031
985.3696	6008
987.7245	5987
990.0807	5827
992.4362	5878
994.7911	5924
997.1474	5882
999.4991	5984
1001.852	6040
1004.205	6093
1006.555	6132
1008.908	5963
1011.258	5984
1013.606	6003
1015.956	6139
1018.302	5849
1020.652	6098
1022.998	6001
1025.345	6100
1027.691	5914
1030.035	6141
1032.378	6016
1034.724	6218
1037.066	6129
1039.409	6097
1041.75	6073
1044.092	6081
1046.433	6098
1048.771	6024
1051.112	6124
1053.449	6015
1055.786	6274
1058.124	6119
1060.462	6101
1062.797	6111
1065.131	6249
1067.467	6268
1069.8	6306
1072.135	6319
1074.467	6249
1076.798	6256
1079.129	6196
1081.459	6189
1083.792	6087
1086.121	6181
1088.449	6080
1090.777	6087
1093.104	5977
1095.431	6184
1097.759	6048
1100.084	6100
1102.408	6068
1104.732	6061
1107.056	6053
1109.379	6137
1111.701	6064
1114.022	6054
1116.343	6001
1118.664	5984
1120.983	5970
1123.303	6052
1125.621	6054
1127.939	6001
1130.256	6041
1132.573	6093
1134.889	5942
1137.205	6132
1139.52	6074
1141.832	6105
1144.146	6135
1146.461	6022
1148.771	6147
1151.083	6068
1153.392	5950
1155.703	6007
1158.011	5991
1160.323	6042
1162.629	5961
1164.938	6042
1167.243	5965
1169.55	6000
1171.857	6181
1174.163	6172
1176.466	6083
1178.769	5995
1181.073	5992
1183.374	6051
1185.677	6048
1187.979	6024
1190.279	6060
1192.578	5985
1194.878	6002
1197.178	5926
1199.476	6142
1201.772	6083
1204.068	6093
1206.366	6095
1208.663	6021
1210.957	6077
1213.251	6019
1215.544	5991
1217.836	6027
1220.128	6131
1222.421	6181
1224.712	6023
1227.002	6210
1229.292	6108
1231.581	6182
1233.871	6242
1236.159	6325
1238.446	6341
1240.732	6362
1243.018	6392
1245.304	6364
1247.59	6364
1249.874	6289
1252.156	6297
1254.439	6385
1256.721	6366
1259.005	6313
1261.286	6339
1263.565	6297
1265.845	6372
1268.125	6430
1270.403	6308
1272.682	6274
1274.959	6528
1277.234	6319
1279.511	6235
1281.787	6327
1284.062	6289
1286.337	6302
1288.609	6319
1290.882	6221
1293.153	6215
1295.428	6168
1297.698	6289
1299.969	6282
1302.237	6176
1304.507	6089
1306.777	6189
1309.044	6032
1311.312	6129
1313.578	6115
1315.844	6136
1318.109	6160
1320.375	6112
1322.638	6062
1324.903	6209
1327.165	6116
1329.427	6171
1331.69	6087
1333.952	6158
1336.212	6208
1338.471	6144
1340.73	6134
1342.988	6161
1345.248	6134
1347.505	6102
1349.763	6162
1352.019	6178
1354.274	6128
1356.53	6100
1358.784	6085
1361.038	6170
1363.291	6156
1365.543	6115
1367.797	6204
1370.048	6388
1372.296	6193
1374.546	6178
1376.796	6234
1379.045	6192
1381.295	6304
1383.542	6221
1385.787	6171
1388.034	6047
1390.28	6206
1392.527	6257
1394.772	6245
1397.014	6305
1399.258	6260
1401.501	6291
1403.741	6299
1405.985	6311
1408.226	6354
1410.465	6306
1412.705	6286
1414.943	6444
1417.184	6358
1419.42	6400
1421.658	6395
1423.894	6357
1426.13	6291
1428.366	6367
1430.602	6424
1432.835	6252
1435.069	6361
1437.301	6520
1439.535	6381
1441.767	6377
1443.997	6513
1446.229	6544
1448.458	6522
1450.687	6509
1452.916	6545
1455.146	6643
1457.372	6503
1459.599	6597
1461.824	6555
1464.051	6517
1466.277	6588
1468.501	6472
1470.725	6416
1472.948	6365
1475.17	6354
1477.393	6406
1479.614	6272
1481.837	6269
1484.057	6240
1486.276	6093
1488.497	6146
1490.715	6221
1492.932	6243
1495.148	6103
1497.364	6119
1499.58	6060
1501.798	6256
1504.012	5984
1506.227	6104
1508.44	6163
1510.653	6074
1512.866	6088
1515.078	6042
1517.289	6084
1519.5	6125
1521.711	6079
1523.92	6108
1526.13	6118
1528.338	6054
1530.544	5996
1532.752	6082
1534.959	6192
1537.165	5942
1539.371	6212
1541.574	6104
1543.779	6112
1545.983	6177
1548.187	6104
1550.39	6141
1552.59	6153
1554.792	6164
1556.991	6051
1559.19	6153
1561.392	6243
1563.59	6174
1565.789	6245
1567.986	6334
1570.182	6199
1572.381	6181
1574.576	6273
1576.771	6202
1578.966	6278
1581.16	6282
1583.354	6236
1585.546	6333
1587.74	6208
1589.931	6270
1592.121	6146
1594.311	6387
1596.502	6349
1598.693	6281
1600.881	6283
1603.069	6391
1605.256	6389
1607.445	6385
1609.631	6389
1611.816	6526
1614.001	6303
1616.186	6385
1618.37	6397
1620.555	6237
1622.737	6349
1624.919	6321
1627.101	6335
1629.282	6486
1631.463	6346
1633.643	6542
1635.822	6483
1638.001	6521
1640.179	6496
1642.359	6403
1644.534	6451
1646.711	6509
1648.887	6594
1651.062	6516
1653.235	6434
1655.412	6460
1657.586	6473
1659.757	6589
1661.93	6507
1664.1	6517
1666.274	6591
1668.445	6557
1670.614	6611
1672.784	6583
1674.951	6515
1677.12	6542
1679.289	6517
1681.457	6410
1683.622	6402
1685.789	6494
1687.953	6497
1690.121	6414
1692.284	6450
1694.447	6416
1696.611	6465
1698.772	6451
1700.935	6348
1703.098	6410
1705.258	6292
1707.417	6230
1709.576	6289
1711.736	6255
1713.896	6259
1716.053	6270
1718.21	6223
1720.366	6176
1722.522	6211
1724.68	6305
1726.835	6222
1728.989	6242
1731.142	6248
1733.295	6227
1735.449	6180
1737.601	6208
1739.753	6281
1741.903	6110
1744.054	6283
1746.203	6284
1748.354	6188
1750.503	6232
1752.651	6227
1754.798	6271
1756.944	6352
1759.092	6222
1761.238	6243
1763.383	6289
1765.528	6301
1767.672	6307
1769.814	6273
1771.959	6174
1774.102	6354
1776.242	6168
1778.384	6303
1780.525	6270
1782.665	6367
1784.805	6234
1786.945	6384
1789.082	6353
1791.22	6378
1793.36	6320
1795.495	6296
1797.632	6383
1799.766	6256
1801.902	6131
1804.035	6299
1806.172	6294
1808.304	6304
1810.436	6317
1812.569	6324
1814.699	6251
1816.833	6240
1818.963	6299
1821.092	6308
1823.222	6278
1825.35	6290
1827.478	6189
1829.608	6250
1831.734	6303
1833.86	6125
1835.986	6255
1838.11	6279
1840.238	6293
1842.362	6236
1844.485	6204
1846.608	6307
1848.73	6281
1850.853	6114
1852.974	6295
1855.097	6145
1857.217	6155
1859.336	6284
1861.455	6270
1863.576	6292
1865.693	6236
1867.811	6104
1869.926	6283
1872.042	6189
1874.16	6210
1876.275	6273
1878.39	6247
1880.504	6227
1882.618	6253
1884.731	6198
1886.843	6167
1888.956	6254
1891.067	6279
1893.178	6338
1895.287	6166
1897.399	6196
1899.508	6195
1901.617	6318
1903.724	6328
1905.832	6345
1907.941	6210
1910.046	6325
1912.152	6164
1914.256	6360
1916.361	6326
1918.464	6423
1920.57	6281
1922.672	6201
1924.775	6265
1926.876	6200
1928.978	6312
1931.08	6246
1933.181	6274
1935.28	6284
1937.38	6243
1939.478	6297
1941.577	6392
1943.675	6383
1945.771	6269
1947.867	6246
1949.964	6336
1952.058	6369
1954.154	6271
1956.248	6390
1958.343	6310
1960.435	6276
1962.527	6309
1964.62	6383
1966.711	6284
1968.802	6356
1970.892	6305
1972.983	6142
1975.072	6329
1977.162	6279
1979.25	6186
1981.337	6305
1983.424	6285
1985.51	6247
1987.598	6345
1989.683	6146
1991.768	6265
1993.852	6328
1995.934	6269
1998.019	6200
2000.102	6121
2002.184	6224
2004.266	6256
2006.347	6166
2008.427	6229
2010.508	6241
2012.587	6149
2014.666	6244
2016.745	6161
2018.821	6208
2020.9	6224
2022.977	6076
2025.052	6264
2027.128	6211
2029.204	6084
2031.277	6211
2033.353	6241
2035.425	6214
2037.499	6174
2039.57	6250
2041.642	6192
2043.714	6223
2045.786	6317
2047.855	6303
2049.925	6317
2051.993	6210
2054.064	6275
2056.132	6227
2058.2	6278
2060.266	6289
2062.332	6241
2064.398	6186
2066.465	6289
2068.529	6125
2070.592	6360
2072.657	6295
2074.719	6293
2076.783	6283
2078.845	6229
2080.907	6230
2082.968	6298
2085.028	6298
2087.087	6244
2089.148	6172
2091.207	6229
2093.264	6215
2095.322	6202
2097.379	6265
2099.439	6255
2101.495	6164
2103.55	6210
2105.605	6258
2107.658	6292
2109.713	6177
2111.767	6242
2113.82	6263
2115.872	6181
2117.924	6252
2119.975	6166
2122.028	6173
2124.078	6253
2126.126	6250
2128.176	6106
2130.225	6299
2132.275	6098
2134.321	6180
2136.368	6304
2138.415	6178
2140.461	6232
2142.505	6220
2144.552	6228
2146.597	6182
2148.64	6258
2150.684	6145
2152.725	6230
2154.77	6205
2156.811	6203
2158.852	6114
2160.894	6099
2162.933	6217
2164.973	6196
2167.013	6154
2169.051	6105
2171.089	6225
2173.126	6149
2175.164	6155
2177.201	6182
2179.236	6116
2181.273	6160
2183.307	6199
2185.341	6177
2187.377	6116
2189.41	6106
2191.442	6096
2193.473	6029
2195.506	6071
2197.539	6121
2199.569	6141
2201.598	6020
2203.628	6061
2205.656	6115
2207.686	6030
2209.716	6158
2211.743	6224
2213.769	6103
2215.796	6069
2217.821	6082
2219.848	5904
2221.873	6036
2223.897	6122
2225.921	6094
2227.944	6032
2229.967	6078
2231.991	6121
2234.011	6116
2236.032	5993
2238.053	6100
2240.073	6109
2242.094	5958
2244.114	6033
2246.131	5981
2248.149	6023
2250.167	5967
2252.186	6076
2254.201	6081
2256.218	5979
2258.233	5996
2260.247	6041
2262.262	6095
2264.278	5983
2266.29	5940
2268.303	6011
2270.315	6000
2272.327	6043
2274.341	5909
2276.35	5941
2278.361	5973
2280.37	6052
2282.38	6084
2284.388	5913
2286.397	6099
2288.405	6023
2290.412	6093
2292.419	5994
2294.425	6117
2296.431	6058
2298.437	5937
2300.441	5947
2302.445	6051
2304.449	6047
2306.453	5965
2308.455	6038
2310.457	5982
2312.459	5972
2314.46	5889
2316.46	6044
2318.461	6001
2320.46	5938
2322.458	5941
2324.458	6122
2326.456	5998
2328.455	5874
2330.451	6012
2332.447	5822
2334.443	5982
2336.438	5977
2338.433	5938
2340.429	5924
2342.422	5861
2344.416	5795
2346.408	5941
2348.399	5884
2350.393	5921
2352.384	5877
2354.375	5905
2356.365	5788
2358.355	5898
2360.344	5896
2362.333	5896
2364.322	5795
2366.309	5852
2368.295	5828
2370.282	5870
2372.27	5974
2374.256	5818
2376.24	5915
2378.225	5827
2380.208	5758
2382.194	5756
2384.177	5846
2386.159	5843
2388.142	5790
2390.122	5813
2392.105	5676
2394.085	5677
2396.066	5766
2398.044	5723
2400.024	5816
2402.002	5835
2403.982	5849
2405.959	5830
2407.935	5763
2409.913	5809
2411.888	5755
2413.865	5764
2415.84	5748
2417.814	5868
2419.788	5744
2421.762	5822
2423.735	5874
2425.708	5821
2427.68	5758
2429.651	5778
2431.623	5781
2433.593	5741
2435.564	5859
2437.533	5645
2439.502	5741
2441.47	5730
2443.438	5844
2445.406	5815
2447.373	5712
2449.34	5868
2451.305	5815
2453.271	5826
2455.235	5807
2457.201	5777
2459.165	5681
2461.129	5727
2463.092	5746
2465.054	5767
2467.018	5656
2468.978	5832
2470.939	5683
2472.899	5683
2474.86	5751
2476.819	5698
2478.778	5716
2480.737	5654
2482.695	5665
2484.653	5657
2486.609	5650
2488.567	5698
2490.524	5624
2492.478	5579
2494.433	5655
2496.387	5754
2498.343	5615
2500.297	5697
2502.249	5603
2504.202	5728
2506.153	5703
2508.105	5695
2510.057	5677
2512.008	5610
2513.957	5606
2515.906	5634
2517.855	5581
2519.805	5702
2521.754	5607
2523.7	5576
2525.647	5619
2527.594	5683
2529.54	5696
2531.486	5582
2533.431	5622
2535.376	5614
2537.32	5763
2539.263	5680
2541.207	5665
2543.151	5651
2545.093	5670
2547.034	5684
2548.975	5643
2550.917	5642
2552.856	5590
2554.796	5572
2556.735	5733
2558.673	5626
2560.611	5743
2562.55	5714
2564.487	5618
2566.424	5645
2568.36	5624
2570.296	5577
2572.232	5520
2574.167	5613
2576.101	5624
2578.035	5749
2579.969	5503
2581.902	5647
2583.834	5540
2585.766	5672
2587.698	5604
2589.628	5606
2591.557	5629
2593.489	5682
2595.419	5690
2597.348	5576
2599.275	5680
2601.204	5611
2603.131	5622
2605.059	5678
2606.986	5609
2608.911	5661
2610.837	5641
2612.76	5664
2614.687	5687
2616.61	5664
2618.534	5556
2620.457	5647
2622.38	5637
2624.302	5673
2626.225	5628
2628.145	5702
2630.067	5679
2631.986	5634
2633.906	5566
2635.827	5641
2637.745	5681
2639.662	5559
2641.581	5727
2643.498	5736
2645.415	5644
2647.331	5723
2649.248	5714
2651.163	5614
2653.077	5571
2654.993	5567
2656.906	5596
2658.821	5554
2660.733	5716
2662.646	5644
2664.557	5578
2666.47	5649
2668.381	5720
2670.291	5584
2672.201	5593
2674.11	5515
2676.021	5546
2677.929	5572
2679.837	5608
2681.745	5604
2683.652	5623
2685.56	5498
2687.466	5445
2689.371	5709
2691.276	5619
2693.181	5553
2695.085	5555
2696.991	5547
2698.893	5549
2700.796	5547
2702.698	5471
2704.601	5605
2706.502	5562
2708.404	5520
2710.304	5465
2712.203	5459
2714.103	5544
2716.003	5504
2717.902	5438
2719.8	5513
2721.697	5544
2723.594	5486
2725.49	5534
2727.389	5570
2729.283	5430
2731.179	5409
2733.073	5642
2734.968	5514
2736.863	5485
2738.757	5435
2740.649	5539
2742.541	5431
2744.433	5524
2746.324	5570
2748.216	5533
2750.107	5363
2751.997	5504
2753.886	5488
2755.776	5480
2757.666	5451
2759.553	5477
2761.44	5472
2763.327	5493
2765.215	5410
2767.102	5495
2768.988	5363
2770.873	5511
2772.757	5477
2774.641	5385
2776.525	5488
2778.41	5476
2780.292	5348
2782.175	5494
2784.057	5470
2785.938	5447
2787.821	5515
2789.701	5487
2791.581	5411
2793.461	5444
2795.34	5316
2797.219	5483
2799.099	5412
2800.975	5325
2802.853	5423
2804.73	5369
2806.606	5517
2808.484	5326
2810.358	5408
2812.233	5404
2814.108	5380
2815.981	5373
2817.857	5354
2819.73	5414
2821.602	5261
2823.474	5309
2825.346	5361
2827.217	5322
2829.089	5380
2830.959	5362
2832.829	5380
2834.698	5437
2836.567	5406
2838.436	5420
2840.305	5341
2842.172	5399
2844.04	5429
2845.905	5337
2847.772	5376
2849.639	5400
2851.503	5464
2853.369	5462
2855.232	5456
2857.096	5527
2858.961	5590
2860.824	5627
2862.686	5602
2864.547	5695
2866.41	5643
2868.272	5569
2870.132	5724
2871.992	5682
2873.851	5866
2875.711	5884
2877.57	5862
2879.429	5953
2881.287	5993
2883.144	6027
2885.001	6126
2886.857	6141
2888.714	6092
2890.57	6052
2892.425	5998
2894.279	6046
2896.133	5950
2897.987	6061
2899.842	6050
2901.694	5931
2903.547	5981
2905.397	6035
2907.249	6069
2909.101	5992
2910.952	6130
2912.802	6132
2914.652	6226
2916.5	6172
2918.35	6362
2920.198	6304
2922.045	6355
2923.893	6545
2925.74	6493
2927.585	6598
2929.433	6659
2931.279	6711
2933.123	6839
2934.968	6846
2936.811	6877
2938.656	7061
2940.5	7001
2942.342	7042
2944.185	7148
2946.026	7194
2947.87	7082
2949.71	7061
2951.549	6995
2953.39	7031
2955.229	6880
2957.069	6883
2958.908	6767
2960.746	6698
2962.584	6749
2964.421	6558
2966.257	6506
2968.094	6372
2969.931	6543
2971.766	6384
2973.601	6363
2975.435	6323
2977.27	6365
2979.105	6183
2980.938	6315
2982.77	6273
2984.602	6319
2986.434	6263
2988.267	6172
2990.097	6135
2991.927	6034
2993.757	5918
2995.587	6008
2997.417	5874
2999.246	5880
3001.074	5732
3002.902	5747
3004.729	5672
3006.556	5610
3008.384	5539
3010.21	5479
3012.036	5490
3013.861	5438
3015.684	5443
3017.51	5322
3019.334	5408
3021.157	5230
3022.981	5273
3024.802	5260
3026.624	5160
3028.448	5200
3030.267	5236
3032.088	5151
3033.909	5243
3035.728	5186
3037.549	5192
3039.368	5161
3041.186	5115
3043.004	5023
3044.821	5115
3046.64	5172
3048.455	5121
3050.272	5087
3052.087	5115
3053.903	5134
3055.717	5062
3057.534	5064
3059.347	5065
3061.16	5116
3062.974	5080
3064.785	5131
3066.598	5137
3068.411	5161
3070.222	5046
3072.032	5157
3073.844	5008
3075.653	4994
3077.463	5079
3079.272	4995
3081.08	5108
3082.889	4932
3084.697	4995
3086.505	5002
3088.312	4980
3090.118	4997
3091.924	4929
3093.729	4991
3095.535	4895
3097.34	4979
3099.144	4906
3100.947	4904
3102.75	4945
3104.553	5011
3106.357	4949
3108.159	4881
3109.961	4871
3111.762	4808
3113.562	4922
3115.365	4869
3117.164	4881
3118.964	4895
3120.761	4853
3122.56	4871
3124.36	4778
3126.158	4812
3127.954	4851
3129.75	4787
3131.547	4813
3133.343	4864
3135.139	4794
3136.934	4885
3138.729	4900
3140.522	4887
3142.317	4830
3144.11	4799
3145.904	4880
3147.695	4781
3149.488	4856
3151.28	4882
3153.07	4727
3154.863	4879
3156.652	4870
3158.441	4793
3160.231	4843
3162.019	4832
3163.81	4732
3165.597	4755
3167.384	4757
3169.172	4782
3170.958	4812
3172.745	4696
3174.532	4716
3176.317	4733
3178.101	4859
3179.885	4776
3181.67	4725
3183.455	4683
3185.238	4771
3187.02	4749
3188.802	4732
3190.585	4668
3192.368	4760
3194.149	4713
3195.929	4777
3197.709	4680
3199.489	4795
3201.268	4764
3203.048	4743
3204.826	4748
3206.604	4730
3208.382	4799
3210.159	4714
3211.937	4788
3213.713	4703
3215.489	4845
3217.263	4765
3219.038	4695
3220.815	4694
3222.589	4714
3224.363	4727
3226.136	4671
3227.908	4715
3229.681	4798
3231.454	4713
3233.226	4710
3234.996	4769
3236.767	4775
3238.538	4755
3240.308	4793
3242.078	4743
3243.847	4868
3245.615	4749
3247.384	4772
3249.15	4673
3250.92	4678
3252.686	4736
3254.453	4818
3256.218	4686
3257.984	4716
3259.75	4749
3261.515	4745
3263.279	4698
3265.044	4741
3266.806	4744
3268.57	4789
3270.334	4719
3272.095	4765
3273.856	4701
3275.619	4813
3277.379	4783
3279.14	4728
3280.9	4740
3282.661	4706
3284.419	4755
3286.178	4886
3287.937	4799
3289.695	4742
3291.453	4744
3293.21	4683
3294.967	4829
3296.723	4778
3298.48	4767
3300.235	4790
3301.99	4881
3303.744	4810
3305.498	4785
3307.253	4738
3309.006	4789
3310.759	4699
3312.511	4712
3314.263	4716
3316.017	4726
3317.768	4760
3319.519	4750
3321.268	4742
3323.018	4821
3324.767	4746
3326.518	4757
3328.267	4719
3330.014	4714
3331.762	4808
3333.509	4874
3335.258	4718
3337.003	4719
3338.75	4787
3340.496	4791
3342.24	4724
3343.987	4745
3345.732	4724
3347.475	4784
3349.219	4810
3350.961	4678
3352.705	4714
3354.448	4718
3356.19	4732
3357.931	4664
3359.672	4684
3361.412	4680
3363.155	4697
3364.894	4717
3366.633	4640
3368.372	4619
3370.11	4610
3371.849	4640
3373.588	4549
3375.325	4615
3377.061	4638
3378.799	4655
3380.534	4636
3382.271	4590
3384.006	4549
3385.741	4643
3387.475	4547
3389.209	4622
3390.944	4525
3392.677	4547
3394.409	4491
3396.143	4633
3397.874	4535
3399.606	4529
3401.338	4549
3403.069	4511
3404.799	4535
3406.528	4611
3408.258	4577
3409.988	4487
3411.717	4535
3413.445	4514
3415.173	4475
3416.899	4566
3418.626	4487
3420.354	4601
3422.08	4499
3423.806	4506
3425.531	4479
3427.255	4491
3428.981	4440
3430.705	4449
3432.429	4532
3434.151	4494
3435.875	4482
3437.599	4501
3439.321	4421
3441.042	4432
3442.763	4458
3444.483	4466
3446.204	4414
3447.926	4413
3449.645	4264
3451.364	4481
3453.082	4435
3454.801	4424
3456.52	4464
3458.238	4406
3459.954	4334
3461.671	4368
3463.387	4387
3465.104	4431
3466.82	4395
3468.534	4389
3470.25	4253
3471.963	4285
3473.676	4369
3475.392	4315
3477.104	4282
3478.817	4371
3480.528	4373
3482.241	4282
3483.954	4180
3485.664	4394
3487.374	4232
3489.084	4303
3490.795	4246
3492.504	4185
3494.214	4180
3495.922	4231
3497.63	4228
3499.338	4218
3501.045	4221
3502.753	4246
3504.459	4255
3506.166	4209
3507.871	4270
3509.576	4181
3511.283	4156
3512.987	4186
3514.691	4126
3516.395	4172
3518.098	4199
3519.8	4224
3521.504	4188
3523.206	4122
3524.908	4135
3526.609	4173
3528.309	4088
3530.011	4119
3531.711	4140
3533.411	4162
3535.109	3998
3536.808	4107
3538.507	4089
3540.206	4058
3541.904	4002
3543.601	3945
3545.297	4133
3546.994	4112
3548.69	4076
3550.387	4051
3552.081	4060
3553.776	4066
3555.47	4003
3557.166	4051
3558.859	4120
3560.553	4002
3562.245	4047
3563.938	3970
3565.629	4066
3567.322	4009
3569.014	4072
3570.704	4039
3572.394	4013
3574.084	4012
3575.775	3957
3577.464	4034
3579.152	4023
3580.842	3963
3582.529	4024
3584.216	3959
3585.905	4083
3587.591	4044
3589.279	3921
3590.964	3898
3592.649	3979
3594.336	3944
3596.021	3994
3597.705	3861
3599.388	3863
3601.072	3829
3602.757	3919
3604.439	3895
3606.122	3966
3607.803	3877
3609.485	3874
3611.167	3864
3612.849	3879
3614.529	3911
3616.208	3798
3617.888	3851
3619.567	3813
3621.247	3781
3622.926	3736
3624.603	3781
3626.281	3801
3627.958	3727
3629.635	3766
3631.312	3689
3632.989	3768
3634.665	3736
3636.339	3745
3638.014	3744
3639.691	3725
3641.364	3746
3643.038	3688
3644.71	3714
3646.384	3727
3648.058	3706
3649.729	3701
3651.402	3739
3653.073	3749
3654.744	3717
3656.414	3693
3658.085	3690
3659.755	3788
3661.424	3663
3663.094	3716
3664.762	3628
3666.431	3676
3668.099	3675
3669.766	3635
3671.433	3659
3673.099	3652
3674.768	3672
3676.433	3574
3678.098	3621
3679.763	3668
3681.428	3611
3683.093	3602
3684.757	3618
3686.421	3696
3688.083	3613
3689.746	3664
3691.408	3643
3693.071	3690
3694.733	3592
3696.394	3587
3698.054	3628
3699.715	3581
3701.375	3552
3703.036	3523
3704.695	3655
3706.354	3422
3708.012	3636
3709.67	3464
3711.329	3587
3712.987	3622
3714.644	3569
3716.299	3604
3717.955	3447
3719.613	3551
3721.268	3537
3722.923	3506
3724.577	3531
3726.231	3530
3727.885	3564
3729.539	3391
3731.192	3534
3732.845	3479
3734.497	3449
3736.149	3533
3737.802	3558
3739.453	3545
3741.104	3545
3742.753	3452
3744.404	3540
3746.052	3500
3747.704	3503
3749.352	3571
3751	3494
3752.648	3470
3754.296	3506
3755.944	3447
3757.59	3398
3759.238	3480
3760.883	3483
3762.528	3449
3764.176	3412
3765.82	3420
3767.464	3430
3769.109	3531
3770.753	3438
3772.396	3402
3774.04	3412
3775.683	3391
3777.325	3385
3778.967	3430
3780.608	3392
3782.25	3406
3783.89	3479
3785.531	3401
3787.17	3488
3788.81	3402
3790.45	3355
3792.09	3452
3793.729	3451
3795.366	3434
3797.003	3359
3798.64	3405
3800.278	3420
3801.915	3341
3803.551	3430
3805.187	3394
3806.822	3292
3808.458	3414
3810.093	3347
3811.726	3396
3813.36	3354
3814.994	3361
3816.627	3363
3818.262	3394
3819.893	3336
3821.525	3416
3823.157	3360
3824.787	3387
3826.42	3332
3828.051	3267
3829.68	3355
3831.31	3340
3832.938	3351
3834.569	3322
3836.198	3308
3837.825	3328
3839.454	3274
3841.08	3328
3842.708	3326
3844.335	3323
3845.962	3293
3847.587	3328
3849.212	3307
3850.838	3344
3852.463	3262
3854.089	3240
3855.712	3324
3857.335	3300
3858.959	3300
3860.582	3243
3862.205	3214
3863.827	3311
3865.449	3206
3867.07	3210
3868.691	3222
3870.312	3232
3871.933	3202
3873.553	3174
3875.173	3169
3876.792	3223
3878.411	3250
3880.03	3292
3881.647	3218
3883.265	3208
3884.882	3163
3886.499	3153
3888.116	3297
3889.732	3210
3891.348	3233
3892.964	3253
3894.579	3178
3896.195	3226
3897.809	3214
3899.423	3212
3901.036	3189
3902.648	3171
3904.261	3229
3905.875	3156
3907.487	3211
3909.099	3298
3910.709	3123
3912.321	3200
3913.933	3180
3915.542	3158
3917.152	3193
3918.762	3151
3920.37	3161
3921.98	3169
3923.589	3221
3925.196	3200
3926.804	3129
3928.41	3138
3930.018	3169
3931.626	3210
3933.231	3189
3934.838	3166
3936.442	3205
3938.046	3095
3939.653	3229
3941.257	3076
3942.861	3094
3944.464	3171
3946.068	3143
3947.67	3168
3949.273	3193
3950.876	3138
3952.477	3140
3954.078	3110
3955.678	3168
3957.281	3147
3958.881	3069
3960.48	3077
3962.079	3051
3963.678	3105
3965.279	3128
3966.877	3072
3968.475	3085
3970.072	3124
3971.669	3113
3973.266	3102
3974.864	3124
3976.459	3097
3978.055	3083
3979.65	3035
3981.245	3022
3982.841	3037
3984.436	3086
3986.03	3042
3987.623	2957
3989.216	3009
3990.809	3053
3992.403	3001
3993.995	3005
3995.586	3003
3997.177	3050
3998.768	3044
4000.361	2982
4001.951	3005
4003.54	2996
4005.13	3042
4006.719	2911
4008.31	2950
4009.897	3024
4011.485	3018
4013.073	2936
4014.66	2968
4016.247	3026
4017.834	2940
4019.421	2968
4021.006	3013
4022.592	3016
4024.178	3004
4025.763	2974
4027.348	2965
4028.932	2967
4030.515	2919
4032.099	2971
4033.682	2935
4035.266	2949
4036.847	2984
4038.429	2884
4040.011	2919
4041.592	2977
4043.173	2831
4044.755	2900
4046.334	2893
4047.913	2833
4049.494	2868
4051.074	2901
4052.652	2948
4054.23	2901
4055.807	2898
4057.385	2925
4058.963	2881
4060.541	2893
4062.117	2909
4063.693	2882
4065.269	2893
4066.844	2938
4068.42	2894
4069.995	2877
4071.569	2865
4073.143	2914
4074.716	2864
4076.291	2882
4077.864	2839
4079.436	2850
4081.009	2798
4082.58	2862
4084.152	2824
4085.723	2936
4087.294	2803
4088.865	2840
4090.435	2903
4092.005	2877
4093.574	2825
4095.143	2835
4096.712	2824
4098.279	2825
4099.848	2846
4101.416	2813
4102.984	2838
4104.55	2838
4106.117	2832
4107.682	2862
4109.248	2818
4110.815	2841
4112.379	2768
4113.945	2771
4115.508	2734
4117.073	2754
4118.637	2820
4120.201	2777
4121.763	2766
4123.325	2744
4124.888	2785
4126.449	2703
4128.013	2794
4129.573	2804
4131.133	2799
4132.694	2752
4134.254	2774
4135.814	2769
4137.374	2748
4138.933	2739
4140.491	2740
4142.049	2737
4143.607	2771
4145.167	2703
4146.724	2666
4148.28	2730
4149.836	2703
4151.392	2720
4152.949	2731
4154.504	2738
4156.059	2777
4157.614	2708
4159.168	2706
4160.723	2653
4162.277	2763
4163.83	2722
4165.383	2686
4166.936	2725
4168.488	2642
4170.041	2640
4171.593	2652
4173.144	2611
4174.695	2682
4176.246	2662
4177.796	2658
4179.346	2676
4180.896	2666
4182.445	2667
4183.994	2628
4185.542	2636
4187.091	2600
4188.639	2650
4190.185	2631
4191.732	2572
4193.279	2699
4194.826	2687
4196.373	2641
4197.918	2701
4199.463	2639
4201.008	2657
4202.553	2575
4204.098	2572
4205.641	2680
4207.185	2631
4208.728	2665
4210.271	2608
4211.814	2588
4213.357	2514
4214.898	2614
4216.439	2585
4217.98	2620
4219.522	2644
4221.062	2550
4222.603	2643
4224.142	2589
4225.681	2562
4227.222	2552
4228.76	2519
4230.298	2630
4231.835	2502
4233.373	2566
4234.911	2609
4236.449	2536
4237.985	2620
4239.521	2533
4241.057	2537
4242.592	2584
4244.128	2586
4245.663	2500
4247.197	2573
4248.731	2529
4250.265	2522
4251.798	2562
4253.333	2541
4254.865	2518
4256.397	2540
4257.93	2554
4259.461	2556
4260.994	2495
4262.525	2545
4264.056	2551
4265.586	2566
4267.115	2485
4268.646	2501
4270.176	2473
4271.705	2467
4273.232	2584
4274.761	2524
4276.289	2542
4277.818	2515
4279.345	2509
4280.872	2516
4282.399	2471
4283.924	2468
4285.452	2483
4286.976	2428
4288.502	2486
4290.026	2453
4291.551	2463
4293.074	2424
4294.6	2570
4296.123	2450
4297.646	2476
4299.168	2497
4300.691	2419
4302.214	2444
4303.736	2465
4305.257	2439
4306.778	2477
4308.299	2401
4309.82	2485
4311.34	2411
4312.86	2479
4314.379	2415
