400.0745	3847
402.597	3852
405.1208	3867
407.6419	3937
410.1623	3876
412.6819	3931
415.201	3877
417.7172	3972
420.2369	3970
422.7538	4054
425.2701	4004
427.7856	4002
430.3005	4069
432.8147	4034
435.3282	4156
437.841	4087
440.3511	4062
442.8625	4052
445.3753	4078
447.8854	4132
450.3927	4074
452.9014	4127
455.4073	4103
457.9146	4074
460.4233	4187
462.9272	4107
465.4325	4109
467.935	4159
470.4389	4152
472.9421	4207
475.4446	4150
477.9444	4149
480.4456	4259
482.944	4193
485.4417	4234
487.9429	4156
490.4393	4243
492.935	4274
495.4321	4304
497.9264	4389
500.4221	4252
502.9171	4249
505.4094	4237
507.9011	4315
510.392	4291
512.8864	4326
515.3759	4327
517.8649	4343
520.3531	4275
522.8406	4271
525.3275	4290
527.8178	4338
530.3033	4279
532.7881	4382
535.2723	4308
537.7558	4249
540.2407	4310
542.7228	4377
545.2043	4275
547.6851	4308
550.1652	4304
552.6467	4236
555.1255	4358
557.6016	4406
560.079	4265
562.5557	4354
565.0318	4368
567.5092	4364
569.984	4430
572.456	4442
574.9294	4495
577.4022	4432
579.8762	4421
582.3456	4577
584.8163	4488
587.2863	4421
589.7557	4503
592.2224	4525
594.6924	4484
597.1578	4577
599.6245	4445
602.0905	4411
604.5538	4507
607.0206	4512
609.4825	4474
611.9459	4493
614.4066	4466
616.8686	4589
619.33	4475
621.7906	4583
624.2487	4506
626.708	4509
629.1647	4494
631.6207	4408
634.0801	4422
636.5348	4460
638.9888	4444
641.4442	4517
643.8969	4480
646.3509	4525
648.8022	4568
651.255	4467
653.705	4501
656.1544	4608
658.6031	4577
661.0532	4556
663.5026	4623
665.9493	4522
668.3954	4591
670.8409	4533
673.2877	4632
675.7318	4608
678.1752	4615
680.618	4606
683.0601	4662
685.5035	4597
687.9444	4618
690.3845	4588
692.824	4647
695.2628	4637
697.701	4636
700.1406	4713
702.5774	4588
705.0116	4743
707.4472	4714
709.8821	4636
712.3183	4715
714.7519	4772
717.1829	4747
719.6151	4713
722.0468	4773
724.4777	4782
726.908	4720
729.3377	4739
731.7667	4715
734.1931	4864
736.6208	4799
739.0498	4732
741.4742	4888
743.9	4770
746.3231	4858
748.7476	4860
751.1713	4886
753.5945	5062
756.015	4949
758.4368	4941
760.856	4992
763.2766	5010
765.6965	4978
768.1157	4984
770.5323	4942
772.9483	4965
775.3656	4959
777.7822	4914
780.1963	4928
782.6116	4975
785.0244	4890
787.4365	5016
789.8499	5012
792.2626	4945
794.6728	4910
797.0823	4919
799.4911	4976
801.8994	4959
804.3109	5002
806.7178	4986
809.124	5045
811.5297	5022
813.9347	4968
816.341	5091
818.7447	5000
821.1478	5000
823.5502	4979
825.952	5095
828.3531	4979
830.7556	4973
833.1554	4973
835.5546	5062
837.9532	5061
840.3511	5072
842.7504	5121
845.1451	5071
847.5411	5108
849.9365	5212
852.3312	5130
854.7272	5110
857.1187	5094
859.5115	5038
861.9037	5162
864.2952	5072
866.6842	5037
869.0764	5068
871.4661	5119
873.8531	5145
876.2415	5136
878.6272	5076
881.0162	5055
883.4026	5203
885.7866	5169
888.1717	5078
890.5543	5109
892.9382	5099
895.3215	5168
897.7041	5130
900.0842	5023
902.4655	5070
904.8443	5213
907.2244	5200
909.6039	5030
911.9808	5170
914.357	5115
916.7346	5239
919.1115	5207
921.4859	5294
923.8616	5346
926.2347	5318
928.6071	5325
930.979	5279
933.3541	5283
935.7247	5433
938.0946	5433
940.4639	5446
942.8326	5461
945.2026	5505
947.5701	5588
949.9369	5701
952.305	5779
954.6705	5923
957.0355	6078
959.4017	6202
961.7654	6179
964.1284	6300
966.4908	6099
968.8527	5825
971.2138	5708
973.5743	5708
975.9343	5437
978.2936	5350
980.6522	5442
983.0122	5289
985.3696	5284
987.7245	5326
990.0807	5254
992.4362	5325
994.7911	5299
997.1474	5277
999.4991	5310
1001.852	5280
1004.205	5300
1006.555	5369
1008.908	5361
1011.258	5222
1013.606	5369
1015.956	5260
1018.302	5301
1020.652	5352
1022.998	5270
1025.345	5376
1027.691	5309
1030.035	5446
1032.378	5333
1034.724	5346
1037.066	5434
1039.409	5339
1041.75	5431
1044.092	5357
1046.433	5431
1048.771	5429
1051.112	5454
1053.449	5304
1055.786	5383
1058.124	5478
1060.462	5449
1062.797	5391
1065.131	5459
1067.467	5422
1069.8	5392
1072.135	5464
1074.467	5578
1076.798	5482
1079.129	5426
1081.459	5350
1083.792	5439
1086.121	5409
1088.449	5412
1090.777	5410
1093.104	5380
1095.431	5412
1097.759	5490
1100.084	5435
1102.408	5544
1104.732	5469
1107.056	5354
1109.379	5505
1111.701	5360
1114.022	5452
1116.343	5377
1118.664	5371
1120.983	5483
1123.303	5424
1125.621	5547
1127.939	5478
1130.256	5394
1132.573	5472
1134.889	5425
1137.205	5418
1139.52	5468
1141.832	5459
1144.146	5479
1146.461	5352
1148.771	5443
1151.083	5386
1153.392	5476
1155.703	5483
1158.011	5495
1160.323	5486
1162.629	5390
1164.938	5488
1167.243	5477
1169.55	5451
1171.857	5595
1174.163	5442
1176.466	5433
1178.769	5370
1181.073	5489
1183.374	5421
1185.677	5451
1187.979	5481
1190.279	5474
1192.578	5454
1194.878	5407
1197.178	5393
1199.476	5562
1201.772	5430
1204.068	5406
1206.366	5498
1208.663	5422
1210.957	5499
1213.251	5491
1215.544	5455
1217.836	5479
1220.128	5501
1222.421	5554
1224.712	5546
1227.002	5548
1229.292	5535
1231.581	5518
1233.871	5492
1236.159	5668
1238.446	5662
1240.732	5599
1243.018	5656
1245.304	5575
1247.59	5716
1249.874	5635
1252.156	5761
1254.439	5649
1256.721	5668
1259.005	5660
1261.286	5718
1263.565	5752
1265.845	5603
1268.125	5675
1270.403	5621
1272.682	5546
1274.959	5735
1277.234	5613
1279.511	5635
1281.787	5624
1284.062	5606
1286.337	5638
1288.609	5559
1290.882	5503
1293.153	5488
1295.428	5586
1297.698	5584
1299.969	5643
1302.237	5491
1304.507	5515
1306.777	5610
1309.044	5667
1311.312	5653
1313.578	5513
1315.844	5625
1318.109	5584
1320.375	5698
1322.638	5548
1324.903	5561
1327.165	5516
1329.427	5604
1331.69	5545
1333.952	5556
1336.212	5503
1338.471	5555
1340.73	5555
1342.988	5619
1345.248	5510
1347.505	5609
1349.763	5606
1352.019	5551
1354.274	5500
1356.53	5607
1358.784	5539
1361.038	5695
1363.291	5607
1365.543	5547
1367.797	5514
1370.048	5639
1372.296	5674
1374.546	5627
1376.796	5693
1379.045	5583
1381.295	5635
1383.542	5692
1385.787	5565
1388.034	5727
1390.28	5716
1392.527	5620
1394.772	5612
1397.014	5553
1399.258	5670
1401.501	5688
1403.741	5627
1405.985	5632
1408.226	5688
1410.465	5705
1412.705	5697
1414.943	5595
1417.184	5668
1419.42	5767
1421.658	5785
1423.894	5764
1426.13	5758
1428.366	5762
1430.602	5761
1432.835	5932
1435.069	5684
1437.301	5725
1439.535	5757
1441.767	5813
1443.997	5846
1446.229	5816
1448.458	5821
1450.687	5812
1452.916	5841
1455.146	5768
1457.372	5852
1459.599	5855
1461.824	5881
1464.051	5814
1466.277	5753
1468.501	5751
1470.725	5757
1472.948	5815
1475.17	5751
1477.393	5721
1479.614	5651
1481.837	5663
1484.057	5656
1486.276	5645
1488.497	5510
1490.715	5644
1492.932	5677
1495.148	5577
1497.364	5591
1499.58	5548
1501.798	5601
1504.012	5528
1506.227	5534
1508.44	5606
1510.653	5577
1512.866	5592
1515.078	5552
1517.289	5513
1519.5	5597
1521.711	5559
1523.92	5621
1526.13	5560
1528.338	5581
1530.544	5666
1532.752	5453
1534.959	5595
1537.165	5505
1539.371	5563
1541.574	5651
1543.779	5557
1545.983	5614
1548.187	5614
1550.39	5638
1552.59	5615
1554.792	5497
1556.991	5605
1559.19	5696
1561.392	5649
1563.59	5674
1565.789	5681
1567.986	5676
1570.182	5650
1572.381	5578
1574.576	5757
1576.771	5632
1578.966	5609
1581.16	5761
1583.354	5704
1585.546	5760
1587.74	5702
1589.931	5660
1592.121	5706
1594.311	5707
1596.502	5723
1598.693	5702
1600.881	5790
1603.069	5801
1605.256	5782
1607.445	5738
1609.631	5821
1611.816	5766
1614.001	5695
1616.186	5830
1618.37	5856
1620.555	5621
1622.737	5700
1624.919	5737
1627.101	5814
1629.282	5919
1631.463	5759
1633.643	5793
1635.822	5687
1638.001	5900
1640.179	5856
1642.359	5733
1644.534	5809
1646.711	5830
1648.887	5770
1651.062	5751
1653.235	5922
1655.412	5775
1657.586	5780
1659.757	5808
1661.93	5849
1664.1	5950
1666.274	5834
1668.445	5865
1670.614	5903
1672.784	5833
1674.951	5830
1677.12	5777
1679.289	5861
1681.457	5884
1683.622	5742
1685.789	5833
1687.953	5857
1690.121	5802
1692.284	5824
1694.447	5739
1696.611	5720
1698.772	5761
1700.935	5841
1703.098	5811
1705.258	5723
1707.417	5813
1709.576	5903
1711.736	5778
1713.896	5716
1716.053	5907
1718.21	5821
1720.366	5776
1722.522	5795
1724.68	5677
1726.835	5633
1728.989	5722
1731.142	5675
1733.295	5709
1735.449	5842
1737.601	5750
1739.753	5719
1741.903	5735
1744.054	5796
1746.203	5737
1748.354	5816
1750.503	5793
1752.651	5806
1754.798	5675
1756.944	5796
1759.092	5673
1761.238	5759
1763.383	5711
1765.528	5817
1767.672	5716
1769.814	5792
1771.959	5820
1774.102	5854
1776.242	5751
1778.384	5718
1780.525	5888
1782.665	5692
1784.805	5852
1786.945	5864
1789.082	5755
1791.22	5726
1793.36	5732
1795.495	5657
1797.632	5771
1799.766	5702
1801.902	5846
1804.035	5895
1806.172	5636
1808.304	5677
1810.436	5793
1812.569	5807
1814.699	5737
1816.833	5736
1818.963	5784
1821.092	5834
1823.222	5831
1825.35	5750
1827.478	5839
1829.608	5809
1831.734	5735
1833.86	5762
1835.986	5739
1838.11	5739
1840.238	5761
1842.362	5732
1844.485	5741
1846.608	5682
1848.73	5714
1850.853	5828
1852.974	5678
1855.097	5657
1857.217	5695
1859.336	5801
1861.455	5657
1863.576	5680
1865.693	5580
1867.811	5757
1869.926	5790
1872.042	5683
1874.16	5786
1876.275	5730
1878.39	5744
1880.504	5742
1882.618	5677
1884.731	5648
1886.843	5746
1888.956	5610
1891.067	5625
1893.178	5783
1895.287	5726
1897.399	5742
1899.508	5755
1901.617	5747
1903.724	5813
1905.832	5678
1907.941	5839
1910.046	5628
1912.152	5818
1914.256	5811
1916.361	5784
1918.464	5825
1920.57	5839
1922.672	5780
1924.775	5719
1926.876	5833
1928.978	5742
1931.08	5808
1933.181	5730
1935.28	5739
1937.38	5867
1939.478	5841
1941.577	5799
1943.675	5860
1945.771	5658
1947.867	5682
1949.964	5919
1952.058	5895
1954.154	5774
1956.248	5860
1958.343	5787
1960.435	5801
1962.527	5842
1964.62	5746
1966.711	5848
1968.802	5825
1970.892	5822
1972.983	5906
1975.072	5777
1977.162	5720
1979.25	5772
1981.337	5792
1983.424	5775
1985.51	5783
1987.598	5761
1989.683	5799
1991.768	5691
1993.852	5774
1995.934	5737
1998.019	5731
2000.102	5794
2002.184	5764
2004.266	5783
2006.347	5684
2008.427	5705
2010.508	5720
2012.587	5702
2014.666	5678
2016.745	5770
2018.821	5791
2020.9	5734
2022.977	5734
2025.052	5602
2027.128	5700
2029.204	5704
2031.277	5759
2033.353	5632
2035.425	5869
2037.499	5738
2039.57	5746
2041.642	5718
2043.714	5812
2045.786	5764
2047.855	5756
2049.925	5870
2051.993	5820
2054.064	5799
2056.132	5731
2058.2	5750
2060.266	5810
2062.332	5717
2064.398	5689
2066.465	5702
2068.529	5752
2070.592	5728
2072.657	5863
2074.719	5674
2076.783	5723
2078.845	5758
2080.907	5824
2082.968	5805
2085.028	5668
2087.087	5803
2089.148	5851
2091.207	5683
2093.264	5678
2095.322	5738
2097.379	5742
2099.439	5748
2101.495	5724
2103.55	5755
2105.605	5737
2107.658	5669
2109.713	5763
2111.767	5629
2113.82	5832
2115.872	5715
2117.924	5718
2119.975	5670
2122.028	5694
2124.078	5673
2126.126	5658
2128.176	5781
2130.225	5741
2132.275	5752
2134.321	5630
2136.368	5726
2138.415	5817
2140.461	5771
2142.505	5683
2144.552	5753
2146.597	5663
2148.64	5774
2150.684	5764
2152.725	5667
2154.77	5748
2156.811	5664
2158.852	5684
2160.894	5627
2162.933	5675
2164.973	5741
2167.013	5614
2169.051	5713
2171.089	5671
2173.126	5661
2175.164	5763
2177.201	5537
2179.236	5624
2181.273	5638
2183.307	5668
2185.341	5656
2187.377	5552
2189.41	5655
2191.442	5674
2193.473	5646
2195.506	5634
2197.539	5621
2199.569	5726
2201.598	5640
2203.628	5548
2205.656	5712
2207.686	5538
2209.716	5585
2211.743	5610
2213.769	5641
2215.796	5704
2217.821	5508
2219.848	5561
2221.873	5566
2223.897	5560
2225.921	5526
2227.944	5590
2229.967	5595
2231.991	5579
2234.011	5664
2236.032	5524
2238.053	5470
2240.073	5463
2242.094	5583
2244.114	5700
2246.131	5575
2248.149	5654
2250.167	5567
2252.186	5581
2254.201	5614
2256.218	5598
2258.233	5564
2260.247	5564
2262.262	5657
2264.278	5552
2266.29	5586
2268.303	5506
2270.315	5529
2272.327	5652
2274.341	5614
2276.35	5545
2278.361	5537
2280.37	5616
2282.38	5603
2284.388	5593
2286.397	5495
2288.405	5664
2290.412	5498
2292.419	5639
2294.425	5509
2296.431	5491
2298.437	5572
2300.441	5593
2302.445	5539
2304.449	5626
2306.453	5571
2308.455	5541
2310.457	5561
2312.459	5537
2314.46	5535
2316.46	5467
2318.461	5613
2320.46	5545
2322.458	5505
2324.458	5492
2326.456	5536
2328.455	5435
2330.451	5583
2332.447	5409
2334.443	5561
2336.438	5541
2338.433	5547
2340.429	5606
2342.422	5578
2344.416	5484
2346.408	5516
2348.399	5561
2350.393	5402
2352.384	5482
2354.375	5530
2356.365	5529
2358.355	5377
2360.344	5499
2362.333	5402
2364.322	5483
2366.309	5360
2368.295	5453
2370.282	5440
2372.27	5457
2374.256	5493
2376.24	5496
2378.225	5461
2380.208	5420
2382.194	5382
2384.177	5364
2386.159	5353
2388.142	5432
2390.122	5521
2392.105	5309
2394.085	5503
2396.066	5428
2398.044	5352
2400.024	5478
2402.002	5408
2403.982	5330
2405.959	5443
2407.935	5392
2409.913	5349
2411.888	5298
2413.865	5309
2415.84	5439
2417.814	5382
2419.788	5392
2421.762	5426
2423.735	5382
2425.708	5330
2427.68	5321
2429.651	5460
2431.623	5442
2433.593	5315
2435.564	5267
2437.533	5347
2439.502	5342
2441.47	5382
2443.438	5454
2445.406	5391
2447.373	5281
2449.34	5362
2451.305	5360
2453.271	5384
2455.235	5334
2457.201	5291
2459.165	5360
2461.129	5235
2463.092	5359
2465.054	5391
2467.018	5273
2468.978	5347
2470.939	5288
2472.899	5272
2474.86	5417
2476.819	5421
2478.778	5374
2480.737	5315
2482.695	5240
2484.653	5348
2486.609	5196
2488.567	5419
2490.524	5367
2492.478	5233
2494.433	5222
2496.387	5222
2498.343	5298
2500.297	5333
2502.249	5308
2504.202	5201
2506.153	5382
2508.105	5369
2510.057	5232
2512.008	5355
2513.957	5363
2515.906	5326
2517.855	5282
2519.805	5285
2521.754	5192
2523.7	5290
2525.647	5207
2527.594	5365
2529.54	5226
2531.486	5309
2533.431	5329
2535.376	5174
2537.32	5319
2539.263	5298
2541.207	5300
2543.151	5297
2545.093	5241
2547.034	5284
2548.975	5249
2550.917	5257
2552.856	5233
2554.796	5315
2556.735	5221
2558.673	5357
2560.611	5300
2562.55	5262
2564.487	5195
2566.424	5298
2568.36	5334
2570.296	5302
2572.232	5242
2574.167	5306
2576.101	5384
2578.035	5283
2579.969	5147
2581.902	5223
2583.834	5281
2585.766	5271
2587.698	5278
2589.628	5244
2591.557	5238
2593.489	5314
2595.419	5230
2597.348	5245
2599.275	5376
2601.204	5299
2603.131	5319
2605.059	5258
2606.986	5282
2608.911	5247
2610.837	5403
2612.76	5242
2614.687	5311
2616.61	5241
2618.534	5284
2620.457	5383
2622.38	5279
2624.302	5344
2626.225	5191
2628.145	5327
2630.067	5281
2631.986	5353
2633.906	5310
2635.827	5263
2637.745	5279
2639.662	5374
2641.581	5382
2643.498	5323
2645.415	5237
2647.331	5375
2649.248	5226
2651.163	5307
2653.077	5271
2654.993	5328
2656.906	5270
2658.821	5318
2660.733	5246
2662.646	5313
2664.557	5256
2666.47	5279
2668.381	5241
2670.291	5120
2672.201	5250
2674.11	5198
2676.021	5336
2677.929	5251
2679.837	5257
2681.745	5282
2683.652	5279
2685.56	5302
2687.466	5256
2689.371	5289
2691.276	5263
2693.181	5272
2695.085	5286
2696.991	5158
2698.893	5326
2700.796	5204
2702.698	5233
2704.601	5158
2706.502	5199
2708.404	5260
2710.304	5204
2712.203	5229
2714.103	5244
2716.003	5201
2717.902	5180
2719.8	5276
2721.697	5241
2723.594	5169
2725.49	5205
2727.389	5221
2729.283	5185
2731.179	5150
2733.073	5235
2734.968	5222
2736.863	5169
2738.757	5130
2740.649	5113
2742.541	5152
2744.433	5226
2746.324	5169
2748.216	5173
2750.107	5269
2751.997	5140
2753.886	5233
2755.776	5153
2757.666	5172
2759.553	5147
2761.44	5236
2763.327	5199
2765.215	5105
2767.102	5234
2768.988	5185
2770.873	5099
2772.757	5085
2774.641	5236
2776.525	5137
2778.41	5122
2780.292	5134
2782.175	5110
2784.057	5125
2785.938	5200
2787.821	5181
2789.701	5197
2791.581	5138
2793.461	5145
2795.34	5128
2797.219	5218
2799.099	5074
2800.975	5141
2802.853	5040
2804.73	5147
2806.606	5136
2808.484	5103
2810.358	5043
2812.233	5222
2814.108	5128
2815.981	5167
2817.857	5019
2819.73	5146
2821.602	5070
2823.474	5183
2825.346	5140
2827.217	5026
2829.089	5108
2830.959	5124
2832.829	5111
2834.698	5073
2836.567	5078
2838.436	5167
2840.305	5143
2842.172	5220
2844.04	5115
2845.905	5116
2847.772	5211
2849.639	5161
2851.503	5217
2853.369	5201
2855.232	5188
2857.096	5129
2858.961	5177
2860.824	5128
2862.686	5107
2864.547	5262
2866.41	5300
2868.272	5276
2870.132	5332
2871.992	5315
2873.851	5326
2875.711	5313
2877.57	5388
2879.429	5403
2881.287	5408
2883.144	5429
2885.001	5490
2886.857	5400
2888.714	5437
2890.57	5392
2892.425	5469
2894.279	5398
2896.133	5403
2897.987	5530
2899.842	5445
2901.694	5445
2903.547	5249
2905.397	5363
2907.249	5367
2909.101	5386
2910.952	5486
2912.802	5461
2914.652	5439
2916.5	5502
2918.35	5599
2920.198	5554
2922.045	5595
2923.893	5467
2925.74	5640
2927.585	5637
2929.433	5720
2931.279	5751
2933.123	5785
2934.968	5716
2936.811	5853
2938.656	5904
2940.5	5775
2942.342	5901
2944.185	5906
2946.026	5924
2947.87	5842
2949.71	5924
2951.549	5872
2953.39	5853
2955.229	5837
2957.069	5675
2958.908	5699
2960.746	5770
2962.584	5715
2964.421	5683
2966.257	5571
2968.094	5555
2969.931	5498
2971.766	5527
2973.601	5490
2975.435	5490
2977.27	5599
2979.105	5455
2980.938	5464
2982.77	5432
2984.602	5427
2986.434	5448
2988.267	5448
2990.097	5462
2991.927	5308
2993.757	5454
2995.587	5370
2997.417	5339
2999.246	5331
3001.074	5221
3002.902	5144
3004.729	5211
3006.556	5254
3008.384	5184
3010.21	5154
3012.036	5159
3013.861	5062
3015.684	5091
3017.51	5024
3019.334	4944
3021.157	4988
3022.981	5032
3024.802	4995
3026.624	5029
3028.448	4911
3030.267	4967
3032.088	4941
3033.909	5023
3035.728	4952
3037.549	4916
3039.368	4886
3041.186	4951
3043.004	4967
3044.821	4990
3046.64	4882
3048.455	4925
3050.272	4837
3052.087	4906
3053.903	4919
3055.717	5034
3057.534	4845
3059.347	4986
3061.16	4861
3062.974	4842
3064.785	4920
3066.598	4892
3068.411	4811
3070.222	4886
3072.032	4771
3073.844	4950
3075.653	4838
3077.463	4930
3079.272	4834
3081.08	4938
3082.889	4817
3084.697	4759
3086.505	4770
3088.312	4888
3090.118	4883
3091.924	4758
3093.729	4780
3095.535	4772
3097.34	4750
3099.144	4809
3100.947	4773
3102.75	4707
3104.553	4769
3106.357	4707
3108.159	4735
3109.961	4820
3111.762	4749
3113.562	4787
3115.365	4703
3117.164	4772
3118.964	4702
3120.761	4772
3122.56	4701
3124.36	4756
3126.158	4792
3127.954	4672
3129.75	4705
3131.547	4807
3133.343	4695
3135.139	4811
3136.934	4723
3138.729	4564
3140.522	4810
3142.317	4678
3144.11	4664
3145.904	4869
3147.695	4611
3149.488	4752
3151.28	4638
3153.07	4721
3154.863	4656
3156.652	4691
3158.441	4754
3160.231	4622
3162.019	4629
3163.81	4703
3165.597	4692
3167.384	4730
3169.172	4667
3170.958	4630
3172.745	4679
3174.532	4688
3176.317	4647
3178.101	4768
3179.885	4673
3181.67	4746
3183.455	4750
3185.238	4651
3187.02	4616
3188.802	4643
3190.585	4679
3192.368	4726
3194.149	4616
3195.929	4678
3197.709	4746
3199.489	4634
3201.268	4638
3203.048	4633
3204.826	4728
3206.604	4589
3208.382	4697
3210.159	4638
3211.937	4698
3213.713	4686
3215.489	4596
3217.263	4484
3219.038	4630
3220.815	4642
3222.589	4601
3224.363	4732
3226.136	4597
3227.908	4648
3229.681	4634
3231.454	4578
3233.226	4714
3234.996	4590
3236.767	4683
3238.538	4569
3240.308	4673
3242.078	4640
3243.847	4631
3245.615	4765
3247.384	4659
3249.15	4633
3250.92	4590
3252.686	4642
3254.453	4647
3256.218	4572
3257.984	4725
3259.75	4678
3261.515	4643
3263.279	4728
3265.044	4650
3266.806	4682
3268.57	4651
3270.334	4583
3272.095	4664
3273.856	4574
3275.619	4600
3277.379	4773
3279.14	4641
3280.9	4675
3282.661	4640
3284.419	4654
3286.178	4750
3287.937	4672
3289.695	4651
3291.453	4719
3293.21	4622
3294.967	4682
3296.723	4684
3298.48	4617
3300.235	4713
3301.99	4568
3303.744	4750
3305.498	4658
3307.253	4688
3309.006	4647
3310.759	4728
3312.511	4630
3314.263	4650
3316.017	4601
3317.768	4683
3319.519	4675
3321.268	4706
3323.018	4569
3324.767	4714
3326.518	4690
3328.267	4699
3330.014	4686
3331.762	4699
3333.509	4636
3335.258	4720
3337.003	4647
3338.75	4664
3340.496	4648
3342.24	4681
3343.987	4707
3345.732	4694
3347.475	4605
3349.219	4674
3350.961	4569
3352.705	4664
3354.448	4636
3356.19	4613
3357.931	4634
3359.672	4635
3361.412	4663
3363.155	4679
3364.894	4749
3366.633	4625
3368.372	4668
3370.11	4680
3371.849	4639
3373.588	4589
3375.325	4619
3377.061	4650
3378.799	4627
3380.534	4631
3382.271	4635
3384.006	4578
3385.741	4612
3387.475	4593
3389.209	4631
3390.944	4555
3392.677	4554
3394.409	4673
3396.143	4615
3397.874	4569
3399.606	4573
3401.338	4616
3403.069	4586
3404.799	4592
3406.528	4653
3408.258	4637
3409.988	4645
3411.717	4565
3413.445	4610
3415.173	4606
3416.899	4562
3418.626	4479
3420.354	4690
3422.08	4623
3423.806	4582
3425.531	4602
3427.255	4508
3428.981	4534
3430.705	4484
3432.429	4585
3434.151	4597
3435.875	4576
3437.599	4575
3439.321	4573
3441.042	4567
3442.763	4517
3444.483	4549
3446.204	4555
3447.926	4639
3449.645	4520
3451.364	4555
3453.082	4512
3454.801	4494
3456.52	4572
3458.238	4558
3459.954	4529
3461.671	4504
3463.387	4491
3465.104	4518
3466.82	4491
3468.534	4456
3470.25	4461
3471.963	4532
3473.676	4471
3475.392	4499
3477.104	4536
3478.817	4571
3480.528	4439
3482.241	4544
3483.954	4393
3485.664	4538
3487.374	4452
3489.084	4440
3490.795	4471
3492.504	4379
3494.214	4467
3495.922	4463
3497.63	4370
3499.338	4420
3501.045	4473
3502.753	4495
3504.459	4381
3506.166	4383
3507.871	4424
3509.576	4458
3511.283	4495
3512.987	4413
3514.691	4377
3516.395	4374
3518.098	4444
3519.8	4405
3521.504	4356
3523.206	4429
3524.908	4475
3526.609	4362
3528.309	4424
3530.011	4378
3531.711	4369
3533.411	4435
3535.109	4390
3536.808	4418
3538.507	4428
3540.206	4393
3541.904	4403
3543.601	4418
3545.297	4363
3546.994	4465
3548.69	4501
3550.387	4328
3552.081	4387
3553.776	4418
3555.47	4361
3557.166	4326
3558.859	4405
3560.553	4314
3562.245	4389
3563.938	4440
3565.629	4287
3567.322	4412
3569.014	4404
3570.704	4473
3572.394	4350
3574.084	4416
3575.775	4378
3577.464	4343
3579.152	4349
3580.842	4334
3582.529	4422
3584.216	4312
3585.905	4354
3587.591	4371
3589.279	4306
3590.964	4232
3592.649	4327
3594.336	4402
3596.021	4283
3597.705	4397
3599.388	4235
3601.072	4375
3602.757	4358
3604.439	4301
3606.122	4395
3607.803	4401
3609.485	4294
3611.167	4318
3612.849	4280
3614.529	4362
3616.208	4348
3617.888	4288
3619.567	4294
3621.247	4382
3622.926	4303
3624.603	4320
3626.281	4300
3627.958	4316
3629.635	4217
3631.312	4226
3632.989	4297
3634.665	4229
3636.339	4224
3638.014	4258
3639.691	4299
3641.364	4305
3643.038	4197
3644.71	4214
3646.384	4350
3648.058	4329
3649.729	4258
3651.402	4200
3653.073	4178
3654.744	4293
3656.414	4250
3658.085	4294
3659.755	4149
3661.424	4224
3663.094	4207
3664.762	4257
3666.431	4204
3668.099	4208
3669.766	4234
3671.433	4209
3673.099	4153
3674.768	4221
3676.433	4224
3678.098	4304
3679.763	4251
3681.428	4231
3683.093	4219
3684.757	4297
3686.421	4189
3688.083	4246
3689.746	4145
3691.408	4241
3693.071	4137
3694.733	4254
3696.394	4182
3698.054	4214
3699.715	4182
3701.375	4156
3703.036	4258
3704.695	4169
3706.354	4202
3708.012	4260
3709.67	4173
3711.329	4244
3712.987	4185
3714.644	4228
3716.299	4189
3717.955	4106
3719.613	4299
3721.268	4277
3722.923	4130
3724.577	4300
3726.231	4204
3727.885	4199
3729.539	4235
3731.192	4179
3732.845	4185
3734.497	4182
3736.149	4206
3737.802	4219
3739.453	4186
3741.104	4204
3742.753	4253
3744.404	4174
3746.052	4187
3747.704	4128
3749.352	4267
3751	4118
3752.648	4157
3754.296	4226
3755.944	4191
3757.59	4171
3759.238	4191
3760.883	4231
3762.528	4197
3764.176	4144
3765.82	4157
3767.464	4167
3769.109	4172
3770.753	4278
3772.396	4116
3774.04	4124
3775.683	4178
3777.325	4196
3778.967	4134
3780.608	4235
3782.25	4132
3783.89	4069
3785.531	4159
3787.17	4118
3788.81	4115
3790.45	4159
3792.09	4115
3793.729	4183
3795.366	4200
3797.003	4146
3798.64	4115
3800.278	4101
3801.915	4194
3803.551	4177
3805.187	3996
3806.822	4156
3808.458	4149
3810.093	4116
3811.726	4151
3813.36	4073
3814.994	4161
3816.627	4045
3818.262	4153
3819.893	4086
3821.525	4127
3823.157	4145
3824.787	4113
3826.42	4054
3828.051	4186
3829.68	4115
3831.31	4138
3832.938	4098
3834.569	4137
3836.198	4097
3837.825	4132
3839.454	4077
3841.08	4172
3842.708	4064
3844.335	4122
3845.962	4023
3847.587	4074
3849.212	4038
3850.838	4067
3852.463	4129
3854.089	4092
3855.712	4060
3857.335	4082
3858.959	4058
3860.582	4126
3862.205	4172
3863.827	3992
3865.449	4105
3867.07	4083
3868.691	4078
3870.312	4115
3871.933	4116
3873.553	4131
3875.173	4118
3876.792	4063
3878.411	4143
3880.03	4133
3881.647	4116
3883.265	4149
3884.882	4140
3886.499	4137
3888.116	4102
3889.732	4156
3891.348	4159
3892.964	4095
3894.579	4086
3896.195	4178
3897.809	4091
3899.423	4157
3901.036	4103
3902.648	4138
3904.261	4161
3905.875	4131
3907.487	4134
3909.099	4108
3910.709	4185
3912.321	4083
3913.933	4178
3915.542	4170
3917.152	4077
3918.762	4012
3920.37	4084
3921.98	4139
3923.589	4022
3925.196	4153
3926.804	4046
3928.41	4127
3930.018	4127
3931.626	4102
3933.231	4182
3934.838	4114
3936.442	4185
3938.046	4081
3939.653	4218
3941.257	4121
3942.861	4117
3944.464	4247
3946.068	4170
3947.67	4100
3949.273	4219
3950.876	4172
3952.477	4102
3954.078	4127
3955.678	4224
3957.281	4073
3958.881	4160
3960.48	4207
3962.079	4147
3963.678	4111
3965.279	4226
3966.877	4146
3968.475	4132
3970.072	4052
3971.669	4082
3973.266	4053
3974.864	4162
3976.459	4132
3978.055	4095
3979.65	4086
3981.245	4164
3982.841	4127
3984.436	4148
3986.03	4034
3987.623	4130
3989.216	4092
3990.809	4053
3992.403	4128
3993.995	4129
3995.586	4036
3997.177	4069
3998.768	4120
4000.361	4100
4001.951	3972
4003.54	4048
4005.13	4097
4006.719	4043
4008.31	4108
4009.897	3975
4011.485	3892
4013.073	4105
4014.66	4014
4016.247	4003
4017.834	4070
4019.421	4017
4021.006	4078
4022.592	3993
4024.178	4061
4025.763	4125
4027.348	3998
4028.932	4024
4030.515	4103
4032.099	4010
4033.682	4116
4035.266	4042
4036.847	4125
4038.429	4047
4040.011	4047
4041.592	4012
4043.173	4060
4044.755	4078
4046.334	4085
4047.913	3998
4049.494	4075
4051.074	4090
4052.652	4014
4054.23	4099
4055.807	4046
4057.385	4062
4058.963	3982
4060.541	4069
4062.117	3996
4063.693	4036
4065.269	4033
4066.844	3981
4068.42	3966
4069.995	4031
4071.569	4009
4073.143	3951
4074.716	4003
4076.291	3994
4077.864	4022
4079.436	4145
4081.009	4060
4082.58	4021
4084.152	4040
4085.723	4046
4087.294	4042
4088.865	4033
4090.435	3989
4092.005	3978
4093.574	4046
4095.143	4077
4096.712	3977
4098.279	4011
4099.848	4047
4101.416	4041
4102.984	3984
4104.55	4052
4106.117	4088
4107.682	4065
4109.248	4044
4110.815	3976
4112.379	4048
4113.945	4014
4115.508	3985
4117.073	3985
4118.637	4025
4120.201	3969
4121.763	4026
4123.325	3978
4124.888	4043
4126.449	4109
4128.013	3940
4129.573	4032
4131.133	4034
4132.694	4002
4134.254	3978
4135.814	4045
4137.374	3971
4138.933	4011
4140.491	4009
4142.049	4022
4143.607	4051
4145.167	3992
4146.724	3989
4148.28	3996
4149.836	3885
4151.392	3930
4152.949	3911
4154.504	3930
4156.059	4029
4157.614	4053
4159.168	3994
4160.723	4052
4162.277	3970
4163.83	3971
4165.383	3957
4166.936	4017
4168.488	3965
4170.041	4043
4171.593	3914
4173.144	3901
4174.695	3979
4176.246	3993
4177.796	3982
4179.346	3923
4180.896	3976
4182.445	3899
4183.994	3892
4185.542	3958
4187.091	4041
4188.639	3961
4190.185	3926
4191.732	3938
4193.279	3969
4194.826	3985
4196.373	3971
4197.918	4009
4199.463	3939
4201.008	3945
4202.553	3904
4204.098	3890
4205.641	4012
4207.185	3874
4208.728	4002
4210.271	3962
4211.814	3934
4213.357	3986
4214.898	3959
4216.439	3990
4217.98	3941
4219.522	3960
4221.062	3960
4222.603	3890
4224.142	3963
4225.681	3970
4227.222	3996
4228.76	3937
4230.298	4064
4231.835	4021
4233.373	3925
4234.911	3945
4236.449	3969
4237.985	4006
4239.521	3935
4241.057	4060
4242.592	4082
4244.128	4012
4245.663	3934
4247.197	4023
4248.731	4018
4250.265	4019
4251.798	4002
4253.333	4020
4254.865	4042
4256.397	3955
4257.93	3960
4259.461	3954
4260.994	4073
4262.525	4001
4264.056	4158
4265.586	4041
4267.115	4010
4268.646	4040
4270.176	3974
4271.705	3974
4273.232	3991
4274.761	4043
4276.289	4058
4277.818	3991
4279.345	4078
4280.872	4043
4282.399	3995
4283.924	3921
4285.452	3939
4286.976	4020
4288.502	3985
4290.026	3993
4291.551	3933
4293.074	3941
4294.6	4009
4296.123	3984
4297.646	3971
4299.168	3939
4300.691	3959
4302.214	4066
4303.736	3937
4305.257	3940
4306.778	4024
4308.299	3943
4309.82	3985
4311.34	3942
4312.86	3953
4314.379	3955
