400.0745	4392
402.597	4556
405.1208	4472
407.6419	4528
410.1623	4631
412.6819	4527
415.201	4637
417.7172	4655
420.2369	4800
422.7538	4739
425.2701	4726
427.7856	4772
430.3005	4742
432.8147	4855
435.3282	4818
437.841	4776
440.3511	4782
442.8625	4903
445.3753	4792
447.8854	4857
450.3927	4865
452.9014	4992
455.4073	4926
457.9146	4872
460.4233	4806
462.9272	4885
465.4325	4957
467.935	4883
470.4389	4858
472.9421	4834
475.4446	4932
477.9444	4880
480.4456	4844
482.944	4874
485.4417	4865
487.9429	4879
490.4393	4824
492.935	4872
495.4321	4885
497.9264	4989
500.4221	4917
502.9171	5029
505.4094	4972
507.9011	5026
510.392	4961
512.8864	5050
515.3759	5101
517.8649	5030
520.3531	4928
522.8406	5026
525.3275	5008
527.8178	4996
530.3033	5160
532.7881	5131
535.2723	5064
537.7558	5113
540.2407	4938
542.7228	4995
545.2043	4972
547.6851	5052
550.1652	5127
552.6467	5125
555.1255	5011
557.6016	5081
560.079	5127
562.5557	5164
565.0318	5211
567.5092	5216
569.984	5257
572.456	5178
574.9294	5263
577.4022	5180
579.8762	5226
582.3456	5325
584.8163	5310
587.2863	5281
589.7557	5417
592.2224	5390
594.6924	5215
597.1578	5255
599.6245	5176
602.0905	5299
604.5538	5278
607.0206	5202
609.4825	5289
611.9459	5236
614.4066	5290
616.8686	5210
619.33	5262
621.7906	5225
624.2487	5228
626.708	5219
629.1647	5136
631.6207	5197
634.0801	5161
636.5348	5313
638.9888	5153
641.4442	5337
643.8969	5181
646.3509	5204
648.8022	5228
651.255	5367
653.705	5257
656.1544	5270
658.6031	5298
661.0532	5378
663.5026	5369
665.9493	5376
668.3954	5316
670.8409	5312
673.2877	5310
675.7318	5335
678.1752	5321
680.618	5515
683.0601	5340
685.5035	5378
687.9444	5429
690.3845	5467
692.824	5376
695.2628	5505
697.701	5469
700.1406	5458
702.5774	5401
705.0116	5482
707.4472	5376
709.8821	5540
712.3183	5552
714.7519	5526
717.1829	5567
719.6151	5562
722.0468	5492
724.4777	5523
726.908	5592
729.3377	5708
731.7667	5586
734.1931	5670
736.6208	5672
739.0498	5645
741.4742	5695
743.9	5804
746.3231	5639
748.7476	5726
751.1713	5633
753.5945	5791
756.015	5795
758.4368	5749
760.856	5731
763.2766	5780
765.6965	5795
768.1157	5851
770.5323	5870
772.9483	5821
775.3656	5837
777.7822	5719
780.1963	5797
782.6116	5872
785.0244	5778
787.4365	5981
789.8499	5768
792.2626	5863
794.6728	5784
797.0823	5833
799.4911	5784
801.8994	5865
804.3109	5828
806.7178	5774
809.124	5903
811.5297	5945
813.9347	5931
816.341	5982
818.7447	5873
821.1478	5918
823.5502	5911
825.952	5938
828.3531	5865
830.7556	5912
833.1554	5868
835.5546	6045
837.9532	5924
840.3511	5932
842.7504	5940
845.1451	6075
847.5411	6041
849.9365	6113
852.3312	6023
854.7272	6107
857.1187	6153
859.5115	6137
861.9037	5963
864.2952	5988
866.6842	6059
869.0764	6071
871.4661	6021
873.8531	6109
876.2415	5988
878.6272	6024
881.0162	5984
883.4026	5907
885.7866	6069
888.1717	6005
890.5543	5960
892.9382	6027
895.3215	6008
897.7041	6031
900.0842	6010
902.4655	5931
904.8443	5950
907.2244	6044
909.6039	5999
911.9808	5992
914.357	6175
916.7346	6156
919.1115	6232
921.4859	6270
923.8616	6287
926.2347	6375
928.6071	6310
930.979	6383
933.3541	6280
935.7247	6301
938.0946	6248
940.4639	6458
942.8326	6458
945.2026	6541
947.5701	6695
949.9369	6905
952.305	6957
954.6705	7053
957.0355	7309
959.4017	7583
961.7654	7569
964.1284	7686
966.4908	7525
968.8527	7325
971.2138	6936
973.5743	6734
975.9343	6656
978.2936	6406
980.6522	6271
983.0122	6232
985.3696	6255
987.7245	6069
990.0807	6151
992.4362	6195
994.7911	6298
997.1474	6244
999.4991	6227
1001.852	6315
1004.205	6255
1006.555	6217
1008.908	6348
1011.258	6265
1013.606	6234
1015.956	6243
1018.302	6259
1020.652	6222
1022.998	6384
1025.345	6317
1027.691	6315
1030.035	6302
1032.378	6290
1034.724	6321
1037.066	6387
1039.409	6404
1041.75	6259
1044.092	6357
1046.433	6302
1048.771	6396
1051.112	6400
1053.449	6403
1055.786	6326
1058.124	6426
1060.462	6325
1062.797	6454
1065.131	6458
1067.467	6427
1069.8	6571
1072.135	6553
1074.467	6476
1076.798	6597
1079.129	6451
1081.459	6449
1083.792	6491
1086.121	6359
1088.449	6258
1090.777	6469
1093.104	6364
1095.431	6394
1097.759	6411
1100.084	6397
1102.408	6379
1104.732	6370
1107.056	6386
1109.379	6409
1111.701	6312
1114.022	6349
1116.343	6350
1118.664	6339
1120.983	6413
1123.303	6354
1125.621	6429
1127.939	6331
1130.256	6299
1132.573	6462
1134.889	6389
1137.205	6399
1139.52	6445
1141.832	6443
1144.146	6410
1146.461	6215
1148.771	6265
1151.083	6487
1153.392	6424
1155.703	6470
1158.011	6421
1160.323	6399
1162.629	6451
1164.938	6411
1167.243	6447
1169.55	6385
1171.857	6453
1174.163	6534
1176.466	6418
1178.769	6451
1181.073	6485
1183.374	6486
1185.677	6427
1187.979	6363
1190.279	6523
1192.578	6561
1194.878	6412
1197.178	6396
1199.476	6456
1201.772	6479
1204.068	6384
1206.366	6502
1208.663	6427
1210.957	6363
1213.251	6447
1215.544	6562
1217.836	6426
1220.128	6405
1222.421	6456
1224.712	6607
1227.002	6451
1229.292	6607
1231.581	6616
1233.871	6579
1236.159	6666
1238.446	6611
1240.732	6657
1243.018	6665
1245.304	6877
1247.59	6755
1249.874	6636
1252.156	6713
1254.439	6666
1256.721	6708
1259.005	6787
1261.286	6727
1263.565	6741
1265.845	6700
1268.125	6610
1270.403	6685
1272.682	6753
1274.959	6661
1277.234	6737
1279.511	6748
1281.787	6611
1284.062	6580
1286.337	6730
1288.609	6658
1290.882	6637
1293.153	6592
1295.428	6550
1297.698	6664
1299.969	6574
1302.237	6674
1304.507	6510
1306.777	6655
1309.044	6540
1311.312	6577
1313.578	6490
1315.844	6596
1318.109	6615
1320.375	6674
1322.638	6570
1324.903	6507
1327.165	6616
1329.427	6557
1331.69	6580
1333.952	6585
1336.212	6537
1338.471	6530
1340.73	6590
1342.988	6706
1345.248	6566
1347.505	6646
1349.763	6652
1352.019	6573
1354.274	6420
1356.53	6501
1358.784	6485
1361.038	6535
1363.291	6636
1365.543	6575
1367.797	6568
1370.048	6548
1372.296	6608
1374.546	6537
1376.796	6571
1379.045	6557
1381.295	6599
1383.542	6719
1385.787	6619
1388.034	6604
1390.28	6677
1392.527	6662
1394.772	6725
1397.014	6624
1399.258	6696
1401.501	6680
1403.741	6757
1405.985	6703
1408.226	6676
1410.465	6708
1412.705	6707
1414.943	6646
1417.184	6822
1419.42	6828
1421.658	6779
1423.894	6719
1426.13	6770
1428.366	6838
1430.602	6760
1432.835	6784
1435.069	6845
1437.301	6779
1439.535	6834
1441.767	6812
1443.997	6912
1446.229	6987
1448.458	6889
1450.687	6902
1452.916	6972
1455.146	6839
1457.372	6944
1459.599	7089
1461.824	6854
1464.051	6887
1466.277	6860
1468.501	6916
1470.725	6765
1472.948	6798
1475.17	6680
1477.393	6682
1479.614	6725
1481.837	6680
1484.057	6576
1486.276	6573
1488.497	6712
1490.715	6759
1492.932	6520
1495.148	6581
1497.364	6558
1499.58	6467
1501.798	6552
1504.012	6470
1506.227	6651
1508.44	6566
1510.653	6419
1512.866	6441
1515.078	6447
1517.289	6588
1519.5	6579
1521.711	6424
1523.92	6469
1526.13	6455
1528.338	6488
1530.544	6560
1532.752	6533
1534.959	6611
1537.165	6506
1539.371	6521
1541.574	6583
1543.779	6625
1545.983	6555
1548.187	6519
1550.39	6736
1552.59	6504
1554.792	6638
1556.991	6579
1559.19	6728
1561.392	6561
1563.59	6667
1565.789	6760
1567.986	6678
1570.182	6686
1572.381	6638
1574.576	6629
1576.771	6714
1578.966	6728
1581.16	6703
1583.354	6760
1585.546	6724
1587.74	6679
1589.931	6826
1592.121	6754
1594.311	6632
1596.502	6773
1598.693	6779
1600.881	6789
1603.069	6787
1605.256	6785
1607.445	6772
1609.631	6734
1611.816	6846
1614.001	6741
1616.186	6680
1618.37	6746
1620.555	6710
1622.737	6828
1624.919	6723
1627.101	6816
1629.282	6957
1631.463	6766
1633.643	6844
1635.822	6955
1638.001	6795
1640.179	6943
1642.359	6940
1644.534	6960
1646.711	6933
1648.887	6946
1651.062	6881
1653.235	6838
1655.412	6869
1657.586	6890
1659.757	7025
1661.93	6909
1664.1	6960
1666.274	6958
1668.445	6946
1670.614	6902
1672.784	7078
1674.951	7042
1677.12	7086
1679.289	6883
1681.457	6895
1683.622	6841
1685.789	6947
1687.953	6878
1690.121	6831
1692.284	6844
1694.447	6804
1696.611	6652
1698.772	6605
1700.935	6749
1703.098	6802
1705.258	6825
1707.417	6676
1709.576	6792
1711.736	6821
1713.896	6689
1716.053	6695
1718.21	6765
1720.366	6673
1722.522	6813
1724.68	6773
1726.835	6732
1728.989	6808
1731.142	6787
1733.295	6686
1735.449	6757
1737.601	6714
1739.753	6811
1741.903	6707
1744.054	6768
1746.203	6750
1748.354	6630
1750.503	6833
1752.651	6774
1754.798	6669
1756.944	6738
1759.092	6753
1761.238	6862
1763.383	6791
1765.528	6822
1767.672	6683
1769.814	6860
1771.959	6829
1774.102	6815
1776.242	6775
1778.384	6844
1780.525	6836
1782.665	6702
1784.805	6744
1786.945	6756
1789.082	6724
1791.22	6862
1793.36	6795
1795.495	6794
1797.632	6797
1799.766	6869
1801.902	6896
1804.035	6837
1806.172	6720
1808.304	6743
1810.436	6792
1812.569	6701
1814.699	6695
1816.833	6618
1818.963	6779
1821.092	6802
1823.222	6872
1825.35	6752
1827.478	6618
1829.608	6822
1831.734	6722
1833.86	6850
1835.986	6754
1838.11	6788
1840.238	6738
1842.362	6759
1844.485	6714
1846.608	6679
1848.73	6733
1850.853	6642
1852.974	6707
1855.097	6725
1857.217	6692
1859.336	6659
1861.455	6708
1863.576	6742
1865.693	6729
1867.811	6759
1869.926	6908
1872.042	6751
1874.16	6678
1876.275	6548
1878.39	6619
1880.504	6728
1882.618	6797
1884.731	6739
1886.843	6729
1888.956	6713
1891.067	6800
1893.178	6671
1895.287	6736
1897.399	6818
1899.508	6774
1901.617	6788
1903.724	6793
1905.832	6793
1907.941	6837
1910.046	6717
1912.152	6783
1914.256	6767
1916.361	6812
1918.464	6752
1920.57	6661
1922.672	6807
1924.775	6700
1926.876	6915
1928.978	6841
1931.08	6769
1933.181	6865
1935.28	6839
1937.38	6842
1939.478	6924
1941.577	6868
1943.675	6858
1945.771	6769
1947.867	6796
1949.964	6873
1952.058	6846
1954.154	6904
1956.248	6836
1958.343	6748
1960.435	6854
1962.527	6860
1964.62	6791
1966.711	6710
1968.802	6821
1970.892	6822
1972.983	6880
1975.072	6782
1977.162	6787
1979.25	6733
1981.337	6734
1983.424	6787
1985.51	6875
1987.598	6912
1989.683	6798
1991.768	6720
1993.852	6858
1995.934	6857
1998.019	6736
2000.102	6808
2002.184	6795
2004.266	6760
2006.347	6678
2008.427	6678
2010.508	6744
2012.587	6817
2014.666	6743
2016.745	6793
2018.821	6854
2020.9	6777
2022.977	6750
2025.052	6747
2027.128	6803
2029.204	6773
2031.277	6726
2033.353	6743
2035.425	6854
2037.499	6802
2039.57	6847
2041.642	6691
2043.714	6733
2045.786	6758
2047.855	6738
2049.925	6838
2051.993	6638
2054.064	6761
2056.132	6745
2058.2	6711
2060.266	6721
2062.332	6718
2064.398	6842
2066.465	6774
2068.529	6722
2070.592	6809
2072.657	6798
2074.719	6756
2076.783	6800
2078.845	6835
2080.907	6714
2082.968	6829
2085.028	6750
2087.087	6755
2089.148	6792
2091.207	6694
2093.264	6740
2095.322	6854
2097.379	6742
2099.439	6769
2101.495	6723
2103.55	6783
2105.605	6789
2107.658	6753
2109.713	6831
2111.767	6776
2113.82	6791
2115.872	6811
2117.924	6822
2119.975	6697
2122.028	6624
2124.078	6762
2126.126	6739
2128.176	6790
2130.225	6866
2132.275	6846
2134.321	6757
2136.368	6856
2138.415	6687
2140.461	6751
2142.505	6875
2144.552	6702
2146.597	6845
2148.64	6780
2150.684	6758
2152.725	6778
2154.77	6763
2156.811	6737
2158.852	6755
2160.894	6653
2162.933	6600
2164.973	6796
2167.013	6686
2169.051	6743
2171.089	6751
2173.126	6796
2175.164	6702
2177.201	6513
2179.236	6650
2181.273	6814
2183.307	6654
2185.341	6636
2187.377	6655
2189.41	6617
2191.442	6650
2193.473	6594
2195.506	6643
2197.539	6784
2199.569	6583
2201.598	6651
2203.628	6573
2205.656	6611
2207.686	6608
2209.716	6657
2211.743	6664
2213.769	6573
2215.796	6644
2217.821	6709
2219.848	6566
2221.873	6567
2223.897	6618
2225.921	6550
2227.944	6637
2229.967	6664
2231.991	6528
2234.011	6552
2236.032	6671
2238.053	6695
2240.073	6644
2242.094	6505
2244.114	6654
2246.131	6609
2248.149	6513
2250.167	6623
2252.186	6451
2254.201	6603
2256.218	6714
2258.233	6534
2260.247	6521
2262.262	6582
2264.278	6490
2266.29	6628
2268.303	6500
2270.315	6663
2272.327	6497
2274.341	6598
2276.35	6630
2278.361	6561
2280.37	6644
2282.38	6604
2284.388	6504
2286.397	6689
2288.405	6718
2290.412	6505
2292.419	6586
2294.425	6652
2296.431	6680
2298.437	6715
2300.441	6567
2302.445	6689
2304.449	6525
2306.453	6603
2308.455	6576
2310.457	6531
2312.459	6580
2314.46	6489
2316.46	6570
2318.461	6543
2320.46	6539
2322.458	6574
2324.458	6518
2326.456	6524
2328.455	6533
2330.451	6471
2332.447	6530
2334.443	6648
2336.438	6502
2338.433	6486
2340.429	6563
2342.422	6501
2344.416	6567
2346.408	6455
2348.399	6505
2350.393	6605
2352.384	6426
2354.375	6542
2356.365	6478
2358.355	6456
2360.344	6464
2362.333	6506
2364.322	6422
2366.309	6354
2368.295	6392
2370.282	6418
2372.27	6396
2374.256	6475
2376.24	6502
2378.225	6423
2380.208	6458
2382.194	6390
2384.177	6374
2386.159	6374
2388.142	6424
2390.122	6383
2392.105	6459
2394.085	6448
2396.066	6409
2398.044	6390
2400.024	6418
2402.002	6430
2403.982	6410
2405.959	6551
2407.935	6405
2409.913	6537
2411.888	6353
2413.865	6497
2415.84	6425
2417.814	6383
2419.788	6317
2421.762	6364
2423.735	6356
2425.708	6467
2427.68	6430
2429.651	6374
2431.623	6465
2433.593	6458
2435.564	6359
2437.533	6341
2439.502	6387
2441.47	6379
2443.438	6352
2445.406	6414
2447.373	6309
2449.34	6467
2451.305	6469
2453.271	6308
2455.235	6453
2457.201	6374
2459.165	6335
2461.129	6312
2463.092	6293
2465.054	6363
2467.018	6440
2468.978	6369
2470.939	6394
2472.899	6349
2474.86	6299
2476.819	6279
2478.778	6366
2480.737	6306
2482.695	6136
2484.653	6224
2486.609	6297
2488.567	6276
2490.524	6336
2492.478	6254
2494.433	6259
2496.387	6250
2498.343	6272
2500.297	6342
2502.249	6290
2504.202	6300
2506.153	6248
2508.105	6318
2510.057	6186
2512.008	6246
2513.957	6297
2515.906	6223
2517.855	6299
2519.805	6238
2521.754	6299
2523.7	6318
2525.647	6234
2527.594	6313
2529.54	6215
2531.486	6264
2533.431	6320
2535.376	6169
2537.32	6283
2539.263	6316
2541.207	6288
2543.151	6328
2545.093	6248
2547.034	6234
2548.975	6240
2550.917	6203
2552.856	6228
2554.796	6194
2556.735	6185
2558.673	6211
2560.611	6292
2562.55	6149
2564.487	6291
2566.424	6274
2568.36	6196
2570.296	6146
2572.232	6280
2574.167	6291
2576.101	6245
2578.035	6187
2579.969	6215
2581.902	6185
2583.834	6188
2585.766	6166
2587.698	6245
2589.628	6270
2591.557	6280
2593.489	6215
2595.419	6164
2597.348	6130
2599.275	6319
2601.204	6254
2603.131	6152
2605.059	6249
2606.986	6400
2608.911	6223
2610.837	6194
2612.76	6192
2614.687	6252
2616.61	6272
2618.534	6236
2620.457	6186
2622.38	6147
2624.302	6297
2626.225	6304
2628.145	6211
2630.067	6204
2631.986	6107
2633.906	6218
2635.827	6253
2637.745	6144
2639.662	6176
2641.581	6229
2643.498	6157
2645.415	6185
2647.331	6243
2649.248	6133
2651.163	6235
2653.077	6151
2654.993	6133
2656.906	6255
2658.821	6180
2660.733	6311
2662.646	6191
2664.557	6097
2666.47	6156
2668.381	6220
2670.291	6202
2672.201	6068
2674.11	6081
2676.021	6140
2677.929	6141
2679.837	6138
2681.745	6293
2683.652	6150
2685.56	6155
2687.466	6111
2689.371	6085
2691.276	6180
2693.181	6019
2695.085	6051
2696.991	6103
2698.893	6056
2700.796	6048
2702.698	6057
2704.601	6177
2706.502	6110
2708.404	6078
2710.304	6131
2712.203	6022
2714.103	6072
2716.003	5989
2717.902	6089
2719.8	6009
2721.697	6057
2723.594	5951
2725.49	6087
2727.389	5996
2729.283	6000
2731.179	6074
2733.073	5989
2734.968	6048
2736.863	6053
2738.757	6052
2740.649	6077
2742.541	6022
2744.433	5971
2746.324	6072
2748.216	6038
2750.107	6064
2751.997	5958
2753.886	6035
2755.776	6073
2757.666	6034
2759.553	5952
2761.44	5968
2763.327	6015
2765.215	6006
2767.102	5910
2768.988	6017
2770.873	5888
2772.757	5897
2774.641	5927
2776.525	6054
2778.41	5893
2780.292	5952
2782.175	5980
2784.057	5922
2785.938	5910
2787.821	5987
2789.701	5916
2791.581	5961
2793.461	5861
2795.34	5904
2797.219	5920
2799.099	5864
2800.975	5943
2802.853	5821
2804.73	5833
2806.606	5857
2808.484	5947
2810.358	5779
2812.233	5892
2814.108	5896
2815.981	5829
2817.857	5899
2819.73	5854
2821.602	5957
2823.474	5833
2825.346	5832
2827.217	5849
2829.089	5887
2830.959	5832
2832.829	5800
2834.698	5937
2836.567	5905
2838.436	5920
2840.305	5926
2842.172	5944
2844.04	5999
2845.905	5801
2847.772	5845
2849.639	5963
2851.503	6050
2853.369	5945
2855.232	5990
2857.096	5937
2858.961	6029
2860.824	5991
2862.686	6067
2864.547	6182
2866.41	6027
2868.272	6142
2870.132	6166
2871.992	6223
2873.851	6220
2875.711	6235
2877.57	6332
2879.429	6324
2881.287	6416
2883.144	6257
2885.001	6384
2886.857	6500
2888.714	6388
2890.57	6438
2892.425	6459
2894.279	6443
2896.133	6428
2897.987	6357
2899.842	6404
2901.694	6318
2903.547	6373
2905.397	6431
2907.249	6399
2909.101	6480
2910.952	6396
2912.802	6380
2914.652	6457
2916.5	6575
2918.35	6513
2920.198	6692
2922.045	6680
2923.893	6826
2925.74	6802
2927.585	6778
2929.433	6770
2931.279	6958
2933.123	6951
2934.968	7056
2936.811	7159
2938.656	7244
2940.5	7243
2942.342	7225
2944.185	7299
2946.026	7320
2947.87	7387
2949.71	7303
2951.549	7230
2953.39	7116
2955.229	7033
2957.069	7015
2958.908	6904
2960.746	6829
2962.584	6792
2964.421	6794
2966.257	6795
2968.094	6578
2969.931	6678
2971.766	6662
2973.601	6462
2975.435	6676
2977.27	6591
2979.105	6491
2980.938	6553
2982.77	6343
2984.602	6543
2986.434	6516
2988.267	6483
2990.097	6392
2991.927	6338
2993.757	6244
2995.587	6158
2997.417	6168
2999.246	6149
3001.074	6138
3002.902	6125
3004.729	5992
3006.556	5915
3008.384	5854
3010.21	5894
3012.036	5874
3013.861	5802
3015.684	5808
3017.51	5823
3019.334	5781
3021.157	5683
3022.981	5712
3024.802	5573
3026.624	5703
3028.448	5580
3030.267	5547
3032.088	5578
3033.909	5546
3035.728	5585
3037.549	5616
3039.368	5549
3041.186	5457
3043.004	5504
3044.821	5489
3046.64	5506
3048.455	5444
3050.272	5460
3052.087	5510
3053.903	5490
3055.717	5441
3057.534	5495
3059.347	5451
3061.16	5390
3062.974	5455
3064.785	5508
3066.598	5492
3068.411	5479
3070.222	5483
3072.032	5376
3073.844	5432
3075.653	5457
3077.463	5429
3079.272	5484
3081.08	5386
3082.889	5410
3084.697	5509
3086.505	5458
3088.312	5383
3090.118	5400
3091.924	5395
3093.729	5434
3095.535	5330
3097.34	5290
3099.144	5343
3100.947	5421
3102.75	5246
3104.553	5386
3106.357	5247
3108.159	5231
3109.961	5262
3111.762	5319
3113.562	5301
3115.365	5248
3117.164	5276
3118.964	5161
3120.761	5182
3122.56	5193
3124.36	5220
3126.158	5147
3127.954	5234
3129.75	5227
3131.547	5274
3133.343	5225
3135.139	5195
3136.934	5134
3138.729	5189
3140.522	5183
3142.317	5328
3144.11	5192
3145.904	5233
3147.695	5155
3149.488	5177
3151.28	5226
3153.07	5168
3154.863	5071
3156.652	5143
3158.441	5221
3160.231	5205
3162.019	5080
3163.81	5131
3165.597	5092
3167.384	5099
3169.172	5063
3170.958	5064
3172.745	5214
3174.532	5244
3176.317	5015
3178.101	5214
3179.885	5172
3181.67	5095
3183.455	5037
3185.238	5127
3187.02	5120
3188.802	5061
3190.585	5094
3192.368	5137
3194.149	5084
3195.929	5076
3197.709	5086
3199.489	5112
3201.268	4997
3203.048	5048
3204.826	5103
3206.604	5121
3208.382	5076
3210.159	5076
3211.937	5045
3213.713	5001
3215.489	5066
3217.263	5132
3219.038	5092
3220.815	5103
3222.589	5128
3224.363	5094
3226.136	5183
3227.908	5119
3229.681	5083
3231.454	5149
3233.226	5098
3234.996	5105
3236.767	5115
3238.538	5040
3240.308	5089
3242.078	5045
3243.847	5078
3245.615	4998
3247.384	5026
3249.15	5116
3250.92	5019
3252.686	5189
3254.453	5070
3256.218	5128
3257.984	5075
3259.75	5022
3261.515	4985
3263.279	5103
3265.044	4964
3266.806	5040
3268.57	5044
3270.334	5104
3272.095	5113
3273.856	5082
3275.619	5038
3277.379	5128
3279.14	5103
3280.9	5105
3282.661	5027
3284.419	5072
3286.178	4988
3287.937	5096
3289.695	4978
3291.453	5134
3293.21	5043
3294.967	5103
3296.723	5077
3298.48	5094
3300.235	5064
3301.99	5036
3303.744	5113
3305.498	5044
3307.253	4964
3309.006	5038
3310.759	5044
3312.511	5063
3314.263	5073
3316.017	4968
3317.768	5098
3319.519	4964
3321.268	4975
3323.018	5072
3324.767	5106
3326.518	5083
3328.267	5104
3330.014	5012
3331.762	4975
3333.509	5113
3335.258	5098
3337.003	4949
3338.75	4977
3340.496	5015
3342.24	5000
3343.987	4995
3345.732	4957
3347.475	5036
3349.219	5033
3350.961	5017
3352.705	5032
3354.448	5021
3356.19	4914
3357.931	4911
3359.672	4952
3361.412	5077
3363.155	4980
3364.894	5006
3366.633	4863
3368.372	4931
3370.11	5011
3371.849	4887
3373.588	4948
3375.325	4957
3377.061	4940
3378.799	4847
3380.534	4938
3382.271	4892
3384.006	4862
3385.741	4926
3387.475	4904
3389.209	4908
3390.944	4919
3392.677	4960
3394.409	4910
3396.143	4826
3397.874	4864
3399.606	4873
3401.338	4860
3403.069	4841
3404.799	4882
3406.528	4829
3408.258	4891
3409.988	4879
3411.717	4853
3413.445	4834
3415.173	4746
3416.899	4832
3418.626	4807
3420.354	4774
3422.08	4767
3423.806	4727
3425.531	4746
3427.255	4801
3428.981	4789
3430.705	4766
3432.429	4845
3434.151	4730
3435.875	4816
3437.599	4672
3439.321	4794
3441.042	4800
3442.763	4734
3444.483	4752
3446.204	4885
3447.926	4772
3449.645	4808
3451.364	4715
3453.082	4737
3454.801	4707
3456.52	4622
3458.238	4665
3459.954	4630
3461.671	4606
3463.387	4705
3465.104	4593
3466.82	4648
3468.534	4572
3470.25	4650
3471.963	4643
3473.676	4615
3475.392	4560
3477.104	4610
3478.817	4711
3480.528	4558
3482.241	4578
3483.954	4582
3485.664	4528
3487.374	4637
3489.084	4528
3490.795	4556
3492.504	4541
3494.214	4589
3495.922	4547
3497.63	4545
3499.338	4618
3501.045	4490
3502.753	4568
3504.459	4534
3506.166	4466
3507.871	4537
3509.576	4494
3511.283	4512
3512.987	4497
3514.691	4519
3516.395	4443
3518.098	4518
3519.8	4514
3521.504	4466
3523.206	4488
3524.908	4438
3526.609	4424
3528.309	4421
3530.011	4484
3531.711	4375
3533.411	4435
3535.109	4426
3536.808	4347
3538.507	4528
3540.206	4349
3541.904	4410
3543.601	4388
3545.297	4344
3546.994	4425
3548.69	4384
3550.387	4385
3552.081	4384
3553.776	4358
3555.47	4354
3557.166	4395
3558.859	4325
3560.553	4349
3562.245	4400
3563.938	4371
3565.629	4422
3567.322	4307
3569.014	4215
3570.704	4345
3572.394	4324
3574.084	4312
3575.775	4298
3577.464	4314
3579.152	4318
3580.842	4274
3582.529	4259
3584.216	4246
3585.905	4307
3587.591	4225
3589.279	4356
3590.964	4296
3592.649	4255
3594.336	4225
3596.021	4256
3597.705	4181
3599.388	4199
3601.072	4212
3602.757	4260
3604.439	4202
3606.122	4230
3607.803	4279
3609.485	4192
3611.167	4112
3612.849	4288
3614.529	4193
3616.208	4134
3617.888	4098
3619.567	4155
3621.247	4164
3622.926	4125
3624.603	4144
3626.281	4188
3627.958	4192
3629.635	4104
3631.312	4145
3632.989	4167
3634.665	4095
3636.339	4035
3638.014	4060
3639.691	4023
3641.364	4136
3643.038	4019
3644.71	4024
3646.384	4093
3648.058	4052
3649.729	4085
3651.402	4024
3653.073	4022
3654.744	4097
3656.414	4028
3658.085	4088
3659.755	3996
3661.424	3980
3663.094	3980
3664.762	3977
3666.431	4021
3668.099	4017
3669.766	4015
3671.433	3987
3673.099	3961
3674.768	4032
3676.433	3882
3678.098	3991
3679.763	3987
3681.428	3873
3683.093	4037
3684.757	3988
3686.421	3964
3688.083	3934
3689.746	4003
3691.408	3989
3693.071	3972
3694.733	3903
3696.394	3939
3698.054	3870
3699.715	3900
3701.375	3888
3703.036	3850
3704.695	3950
3706.354	3941
3708.012	3913
3709.67	3912
3711.329	3967
3712.987	3967
3714.644	3863
3716.299	3988
3717.955	3897
3719.613	3916
3721.268	3907
3722.923	3992
3724.577	3800
3726.231	3825
3727.885	3878
3729.539	3942
3731.192	3873
3732.845	3871
3734.497	3839
3736.149	3884
3737.802	3878
3739.453	3814
3741.104	3859
3742.753	3747
3744.404	3868
3746.052	3815
3747.704	3793
3749.352	3817
3751	3817
3752.648	3904
3754.296	3842
3755.944	3828
3757.59	3806
3759.238	3802
3760.883	3854
3762.528	3818
3764.176	3800
3765.82	3739
3767.464	3839
3769.109	3840
3770.753	3761
3772.396	3743
3774.04	3864
3775.683	3745
3777.325	3776
3778.967	3793
3780.608	3784
3782.25	3766
3783.89	3770
3785.531	3727
3787.17	3829
3788.81	3738
3790.45	3700
3792.09	3778
3793.729	3698
3795.366	3728
3797.003	3755
3798.64	3709
3800.278	3761
3801.915	3734
3803.551	3689
3805.187	3710
3806.822	3751
3808.458	3628
3810.093	3750
3811.726	3699
3813.36	3677
3814.994	3757
3816.627	3617
3818.262	3638
3819.893	3711
3821.525	3689
3823.157	3717
3824.787	3728
3826.42	3621
3828.051	3718
3829.68	3692
3831.31	3662
3832.938	3691
3834.569	3643
3836.198	3657
3837.825	3589
3839.454	3721
3841.08	3606
3842.708	3649
3844.335	3685
3845.962	3628
3847.587	3598
3849.212	3662
3850.838	3620
3852.463	3632
3854.089	3641
3855.712	3574
3857.335	3680
3858.959	3559
3860.582	3657
3862.205	3614
3863.827	3565
3865.449	3581
3867.07	3602
3868.691	3588
3870.312	3581
3871.933	3624
3873.553	3576
3875.173	3575
3876.792	3527
3878.411	3571
3880.03	3538
3881.647	3537
3883.265	3535
3884.882	3638
3886.499	3527
3888.116	3555
3889.732	3524
3891.348	3555
3892.964	3507
3894.579	3560
3896.195	3575
3897.809	3453
3899.423	3574
3901.036	3484
3902.648	3561
3904.261	3499
3905.875	3546
3907.487	3512
3909.099	3473
3910.709	3490
3912.321	3579
3913.933	3527
3915.542	3523
3917.152	3499
3918.762	3539
3920.37	3464
3921.98	3511
3923.589	3531
3925.196	3502
3926.804	3484
3928.41	3545
3930.018	3410
3931.626	3449
3933.231	3512
3934.838	3475
3936.442	3436
3938.046	3510
3939.653	3464
3941.257	3495
3942.861	3495
3944.464	3400
3946.068	3482
3947.67	3454
3949.273	3374
3950.876	3508
3952.477	3444
3954.078	3394
3955.678	3393
3957.281	3411
3958.881	3403
3960.48	3511
3962.079	3347
3963.678	3456
3965.279	3422
3966.877	3373
3968.475	3457
3970.072	3352
3971.669	3343
3973.266	3395
3974.864	3421
3976.459	3404
3978.055	3383
3979.65	3354
3981.245	3304
3982.841	3354
3984.436	3331
3986.03	3339
3987.623	3381
3989.216	3286
3990.809	3286
3992.403	3420
3993.995	3357
3995.586	3370
3997.177	3324
3998.768	3324
4000.361	3285
4001.951	3308
4003.54	3259
4005.13	3338
4006.719	3236
4008.31	3258
4009.897	3291
4011.485	3227
4013.073	3283
4014.66	3202
4016.247	3256
4017.834	3227
4019.421	3281
4021.006	3209
4022.592	3259
4024.178	3253
4025.763	3229
4027.348	3143
4028.932	3198
4030.515	3243
4032.099	3248
4033.682	3246
4035.266	3258
4036.847	3243
4038.429	3225
4040.011	3219
4041.592	3266
4043.173	3158
4044.755	3125
4046.334	3159
4047.913	3173
4049.494	3083
4051.074	3176
4052.652	3099
4054.23	3212
4055.807	3143
4057.385	3234
4058.963	3217
4060.541	3192
4062.117	3152
4063.693	3110
4065.269	3087
4066.844	3086
4068.42	3156
4069.995	3104
4071.569	3148
4073.143	3153
4074.716	3101
4076.291	3079
4077.864	3109
4079.436	3111
4081.009	3084
4082.58	3141
4084.152	3157
4085.723	3030
4087.294	3103
4088.865	3121
4090.435	3177
4092.005	3089
4093.574	3092
4095.143	3142
4096.712	3051
4098.279	3083
4099.848	3158
4101.416	3189
4102.984	3106
4104.55	3135
4106.117	3022
4107.682	3081
4109.248	3067
4110.815	3034
4112.379	3103
4113.945	3001
4115.508	3017
4117.073	3012
4118.637	3102
4120.201	2919
4121.763	3047
4123.325	3110
4124.888	2974
4126.449	3031
4128.013	3035
4129.573	3097
4131.133	3023
4132.694	2990
4134.254	3009
4135.814	3052
4137.374	3038
4138.933	3003
4140.491	2978
4142.049	2935
4143.607	2994
4145.167	3035
4146.724	2995
4148.28	2995
4149.836	2931
4151.392	2885
4152.949	2992
4154.504	2965
4156.059	2973
4157.614	2936
4159.168	2985
4160.723	2902
4162.277	2858
4163.83	3012
4165.383	2927
4166.936	2871
4168.488	2925
4170.041	2927
4171.593	2929
4173.144	2905
4174.695	2988
4176.246	2948
4177.796	2865
4179.346	2915
4180.896	2988
4182.445	2902
4183.994	2923
4185.542	2951
4187.091	2840
4188.639	2872
4190.185	2916
4191.732	2867
4193.279	2840
4194.826	2881
4196.373	2774
4197.918	2918
4199.463	2865
4201.008	2894
4202.553	2857
4204.098	2822
4205.641	2812
4207.185	2820
4208.728	2878
4210.271	2844
4211.814	2861
4213.357	2790
4214.898	2763
4216.439	2801
4217.98	2823
4219.522	2817
4221.062	2875
4222.603	2836
4224.142	2765
4225.681	2850
4227.222	2917
4228.76	2786
4230.298	2831
4231.835	2849
4233.373	2804
4234.911	2838
4236.449	2731
4237.985	2825
4239.521	2814
4241.057	2866
4242.592	2785
4244.128	2907
4245.663	2788
4247.197	2771
4248.731	2742
4250.265	2815
4251.798	2758
4253.333	2768
4254.865	2776
4256.397	2807
4257.93	2781
4259.461	2805
4260.994	2693
4262.525	2790
4264.056	2768
4265.586	2731
4267.115	2757
4268.646	2801
4270.176	2767
4271.705	2755
4273.232	2735
4274.761	2730
4276.289	2741
4277.818	2734
4279.345	2668
4280.872	2746
4282.399	2733
4283.924	2696
4285.452	2748
4286.976	2725
4288.502	2719
4290.026	2763
4291.551	2657
4293.074	2752
4294.6	2682
4296.123	2654
4297.646	2767
4299.168	2709
4300.691	2660
4302.214	2722
4303.736	2739
4305.257	2675
4306.778	2712
4308.299	2702
4309.82	2688
4311.34	2679
4312.86	2690
4314.379	2670
