400.0745	4301
402.597	4295
405.1208	4353
407.6419	4449
410.1623	4361
412.6819	4450
415.201	4430
417.7172	4437
420.2369	4551
422.7538	4558
425.2701	4541
427.7856	4567
430.3005	4724
432.8147	4764
435.3282	4647
437.841	4633
440.3511	4720
442.8625	4675
445.3753	4759
447.8854	4681
450.3927	4659
452.9014	4657
455.4073	4620
457.9146	4715
460.4233	4591
462.9272	4652
465.4325	4665
467.935	4518
470.4389	4672
472.9421	4662
475.4446	4725
477.9444	4692
480.4456	4626
482.944	4707
485.4417	4549
487.9429	4708
490.4393	4715
492.935	4621
495.4321	4704
497.9264	4660
500.4221	4692
502.9171	4730
505.4094	4754
507.9011	4826
510.392	4666
512.8864	4789
515.3759	4824
517.8649	4781
520.3531	4757
522.8406	4818
525.3275	4903
527.8178	4693
530.3033	4849
532.7881	4770
535.2723	4861
537.7558	4826
540.2407	4889
542.7228	4915
545.2043	4859
547.6851	4858
550.1652	4869
552.6467	4898
555.1255	4858
557.6016	4792
560.079	4904
562.5557	4886
565.0318	4859
567.5092	4959
569.984	4988
572.456	4970
574.9294	4993
577.4022	5094
579.8762	5083
582.3456	5081
584.8163	5019
587.2863	5190
589.7557	5064
592.2224	5108
594.6924	5015
597.1578	5078
599.6245	5053
602.0905	5099
604.5538	5103
607.0206	5027
609.4825	5050
611.9459	5020
614.4066	5051
616.8686	5087
619.33	4947
621.7906	4952
624.2487	4915
626.708	5031
629.1647	5037
631.6207	4927
634.0801	5019
636.5348	4943
638.9888	4935
641.4442	4975
643.8969	5003
646.3509	5027
648.8022	5087
651.255	5044
653.705	4974
656.1544	5080
658.6031	5018
661.0532	5031
663.5026	5035
665.9493	5046
668.3954	5089
670.8409	5041
673.2877	5119
675.7318	5134
678.1752	5114
680.618	5067
683.0601	5132
685.5035	5175
687.9444	5173
690.3845	5151
692.824	5193
695.2628	5126
697.701	5331
700.1406	5254
702.5774	5190
705.0116	5217
707.4472	5206
709.8821	5345
712.3183	5261
714.7519	5238
717.1829	5253
719.6151	5219
722.0468	5208
724.4777	5290
726.908	5297
729.3377	5260
731.7667	5296
734.1931	5370
736.6208	5417
739.0498	5452
741.4742	5298
743.9	5421
746.3231	5309
748.7476	5505
751.1713	5507
753.5945	5467
756.015	5536
758.4368	5512
760.856	5536
763.2766	5656
765.6965	5466
768.1157	5608
770.5323	5467
772.9483	5532
775.3656	5590
777.7822	5565
780.1963	5511
782.6116	5704
785.0244	5532
787.4365	5541
789.8499	5557
792.2626	5501
794.6728	5610
797.0823	5540
799.4911	5504
801.8994	5479
804.3109	5584
806.7178	5584
809.124	5599
811.5297	5516
813.9347	5626
816.341	5691
818.7447	5667
821.1478	5651
823.5502	5657
825.952	5684
828.3531	5620
830.7556	5526
833.1554	5671
835.5546	5682
837.9532	5697
840.3511	5588
842.7504	5773
845.1451	5792
847.5411	5721
849.9365	5776
852.3312	5773
854.7272	5820
857.1187	5751
859.5115	5911
861.9037	5817
864.2952	5810
866.6842	5751
869.0764	5771
871.4661	5847
873.8531	5766
876.2415	5825
878.6272	5750
881.0162	5673
883.4026	5885
885.7866	5828
888.1717	5851
890.5543	5802
892.9382	5756
895.3215	5753
897.7041	5722
900.0842	5774
902.4655	5718
904.8443	5747
907.2244	5827
909.6039	5751
911.9808	5818
914.357	5903
916.7346	6033
919.1115	6003
921.4859	6032
923.8616	6044
926.2347	6052
928.6071	6053
930.979	6051
933.3541	6177
935.7247	6338
938.0946	6159
940.4639	6255
942.8326	6330
945.2026	6405
947.5701	6480
949.9369	6782
952.305	6902
954.6705	7249
957.0355	7507
959.4017	8015
961.7654	8162
964.1284	8065
966.4908	7783
968.8527	7446
971.2138	6972
973.5743	6633
975.9343	6378
978.2936	6220
980.6522	6177
983.0122	6111
985.3696	5887
987.7245	5995
990.0807	5960
992.4362	6050
994.7911	6040
997.1474	6008
999.4991	5897
1001.852	6129
1004.205	6120
1006.555	6129
1008.908	6108
1011.258	6001
1013.606	5945
1015.956	6024
1018.302	6020
1020.652	6053
1022.998	5989
1025.345	6107
1027.691	6053
1030.035	6083
1032.378	6056
1034.724	6140
1037.066	6185
1039.409	6270
1041.75	6182
1044.092	6149
1046.433	6112
1048.771	6106
1051.112	6180
1053.449	6069
1055.786	6180
1058.124	6073
1060.462	6137
1062.797	6241
1065.131	6227
1067.467	6264
1069.8	6225
1072.135	6239
1074.467	6276
1076.798	6331
1079.129	6220
1081.459	6311
1083.792	6249
1086.121	6169
1088.449	6153
1090.777	6174
1093.104	6120
1095.431	6147
1097.759	6206
1100.084	6130
1102.408	6096
1104.732	6050
1107.056	6228
1109.379	6072
1111.701	6108
1114.022	5995
1116.343	6073
1118.664	6030
1120.983	6078
1123.303	6049
1125.621	5989
1127.939	6149
1130.256	6102
1132.573	6156
1134.889	6035
1137.205	6056
1139.52	6111
1141.832	6055
1144.146	6168
1146.461	5987
1148.771	6076
1151.083	6072
1153.392	6116
1155.703	6052
1158.011	6085
1160.323	6142
1162.629	6128
1164.938	6163
1167.243	6164
1169.55	6042
1171.857	6061
1174.163	6034
1176.466	5988
1178.769	6078
1181.073	6147
1183.374	5993
1185.677	6089
1187.979	6045
1190.279	6093
1192.578	6081
1194.878	6024
1197.178	6053
1199.476	6069
1201.772	6095
1204.068	6088
1206.366	6015
1208.663	6186
1210.957	6152
1213.251	6191
1215.544	6099
1217.836	6238
1220.128	6136
1222.421	6210
1224.712	6183
1227.002	6204
1229.292	6219
1231.581	6322
1233.871	6325
1236.159	6293
1238.446	6304
1240.732	6321
1243.018	6382
1245.304	6426
1247.59	6407
1249.874	6444
1252.156	6528
1254.439	6409
1256.721	6398
1259.005	6390
1261.286	6429
1263.565	6436
1265.845	6387
1268.125	6384
1270.403	6428
1272.682	6405
1274.959	6475
1277.234	6453
1279.511	6287
1281.787	6363
1284.062	6332
1286.337	6382
1288.609	6384
1290.882	6218
1293.153	6315
1295.428	6169
1297.698	6234
1299.969	6314
1302.237	6192
1304.507	6202
1306.777	6296
1309.044	6207
1311.312	6213
1313.578	6310
1315.844	6305
1318.109	6220
1320.375	6207
1322.638	6333
1324.903	6204
1327.165	6146
1329.427	6369
1331.69	6251
1333.952	6332
1336.212	6210
1338.471	6358
1340.73	6333
1342.988	6218
1345.248	6231
1347.505	6265
1349.763	6225
1352.019	6255
1354.274	6248
1356.53	6338
1358.784	6261
1361.038	6290
1363.291	6203
1365.543	6266
1367.797	6208
1370.048	6237
1372.296	6333
1374.546	6069
1376.796	6295
1379.045	6341
1381.295	6227
1383.542	6182
1385.787	6180
1388.034	6244
1390.28	6319
1392.527	6461
1394.772	6484
1397.014	6214
1399.258	6444
1401.501	6307
1403.741	6338
1405.985	6352
1408.226	6362
1410.465	6354
1412.705	6364
1414.943	6432
1417.184	6363
1419.42	6353
1421.658	6373
1423.894	6506
1426.13	6429
1428.366	6408
1430.602	6526
1432.835	6386
1435.069	6487
1437.301	6589
1439.535	6480
1441.767	6616
1443.997	6529
1446.229	6570
1448.458	6744
1450.687	6601
1452.916	6629
1455.146	6748
1457.372	6615
1459.599	6616
1461.824	6690
1464.051	6594
1466.277	6591
1468.501	6539
1470.725	6475
1472.948	6415
1475.17	6519
1477.393	6460
1479.614	6334
1481.837	6327
1484.057	6267
1486.276	6293
1488.497	6168
1490.715	6285
1492.932	6269
1495.148	6254
1497.364	6239
1499.58	6203
1501.798	6160
1504.012	6091
1506.227	6114
1508.44	6193
1510.653	6105
1512.866	6162
1515.078	6229
1517.289	6205
1519.5	6218
1521.711	6094
1523.92	6204
1526.13	6151
1528.338	6331
1530.544	6116
1532.752	6161
1534.959	6258
1537.165	6118
1539.371	6062
1541.574	6183
1543.779	6282
1545.983	6200
1548.187	6222
1550.39	6141
1552.59	6110
1554.792	6375
1556.991	6179
1559.19	6235
1561.392	6322
1563.59	6295
1565.789	6273
1567.986	6211
1570.182	6279
1572.381	6196
1574.576	6308
1576.771	6311
1578.966	6341
1581.16	6269
1583.354	6377
1585.546	6361
1587.74	6395
1589.931	6452
1592.121	6339
1594.311	6400
1596.502	6435
1598.693	6355
1600.881	6339
1603.069	6413
1605.256	6442
1607.445	6398
1609.631	6381
1611.816	6338
1614.001	6426
1616.186	6430
1618.37	6491
1620.555	6423
1622.737	6431
1624.919	6453
1627.101	6452
1629.282	6540
1631.463	6535
1633.643	6454
1635.822	6565
1638.001	6432
1640.179	6451
1642.359	6521
1644.534	6521
1646.711	6564
1648.887	6540
1651.062	6693
1653.235	6497
1655.412	6488
1657.586	6568
1659.757	6465
1661.93	6480
1664.1	6696
1666.274	6607
1668.445	6622
1670.614	6737
1672.784	6626
1674.951	6654
1677.12	6612
1679.289	6568
1681.457	6573
1683.622	6662
1685.789	6573
1687.953	6545
1690.121	6596
1692.284	6509
1694.447	6488
1696.611	6461
1698.772	6376
1700.935	6430
1703.098	6508
1705.258	6354
1707.417	6459
1709.576	6368
1711.736	6328
1713.896	6273
1716.053	6429
1718.21	6292
1720.366	6303
1722.522	6301
1724.68	6300
1726.835	6311
1728.989	6397
1731.142	6278
1733.295	6422
1735.449	6347
1737.601	6360
1739.753	6474
1741.903	6264
1744.054	6256
1746.203	6357
1748.354	6344
1750.503	6421
1752.651	6428
1754.798	6296
1756.944	6311
1759.092	6428
1761.238	6348
1763.383	6306
1765.528	6423
1767.672	6360
1769.814	6357
1771.959	6320
1774.102	6327
1776.242	6364
1778.384	6364
1780.525	6447
1782.665	6420
1784.805	6265
1786.945	6361
1789.082	6325
1791.22	6403
1793.36	6337
1795.495	6423
1797.632	6412
1799.766	6486
1801.902	6361
1804.035	6334
1806.172	6384
1808.304	6355
1810.436	6381
1812.569	6298
1814.699	6282
1816.833	6235
1818.963	6363
1821.092	6416
1823.222	6395
1825.35	6318
1827.478	6245
1829.608	6276
1831.734	6336
1833.86	6296
1835.986	6266
1838.11	6318
1840.238	6171
1842.362	6210
1844.485	6338
1846.608	6346
1848.73	6300
1850.853	6354
1852.974	6350
1855.097	6342
1857.217	6284
1859.336	6238
1861.455	6261
1863.576	6210
1865.693	6307
1867.811	6238
1869.926	6305
1872.042	6331
1874.16	6342
1876.275	6261
1878.39	6295
1880.504	6192
1882.618	6351
1884.731	6250
1886.843	6286
1888.956	6257
1891.067	6292
1893.178	6390
1895.287	6279
1897.399	6291
1899.508	6274
1901.617	6237
1903.724	6308
1905.832	6307
1907.941	6206
1910.046	6299
1912.152	6340
1914.256	6397
1916.361	6230
1918.464	6396
1920.57	6426
1922.672	6443
1924.775	6312
1926.876	6360
1928.978	6349
1931.08	6377
1933.181	6378
1935.28	6347
1937.38	6466
1939.478	6379
1941.577	6332
1943.675	6290
1945.771	6486
1947.867	6329
1949.964	6231
1952.058	6407
1954.154	6409
1956.248	6356
1958.343	6328
1960.435	6421
1962.527	6320
1964.62	6395
1966.711	6386
1968.802	6394
1970.892	6424
1972.983	6436
1975.072	6360
1977.162	6421
1979.25	6267
1981.337	6173
1983.424	6341
1985.51	6306
1987.598	6426
1989.683	6232
1991.768	6261
1993.852	6374
1995.934	6325
1998.019	6321
2000.102	6226
2002.184	6382
2004.266	6317
2006.347	6190
2008.427	6329
2010.508	6244
2012.587	6293
2014.666	6290
2016.745	6210
2018.821	6225
2020.9	6250
2022.977	6200
2025.052	6313
2027.128	6312
2029.204	6295
2031.277	6340
2033.353	6303
2035.425	6351
2037.499	6303
2039.57	6304
2041.642	6283
2043.714	6389
2045.786	6255
2047.855	6347
2049.925	6358
2051.993	6322
2054.064	6283
2056.132	6336
2058.2	6313
2060.266	6315
2062.332	6382
2064.398	6214
2066.465	6220
2068.529	6297
2070.592	6278
2072.657	6261
2074.719	6302
2076.783	6261
2078.845	6193
2080.907	6274
2082.968	6203
2085.028	6294
2087.087	6281
2089.148	6235
2091.207	6319
2093.264	6229
2095.322	6299
2097.379	6304
2099.439	6124
2101.495	6163
2103.55	6251
2105.605	6248
2107.658	6221
2109.713	6150
2111.767	6184
2113.82	6322
2115.872	6150
2117.924	6379
2119.975	6236
2122.028	6230
2124.078	6320
2126.126	6217
2128.176	6286
2130.225	6263
2132.275	6161
2134.321	6220
2136.368	6257
2138.415	6143
2140.461	6220
2142.505	6262
2144.552	6370
2146.597	6329
2148.64	6263
2150.684	6327
2152.725	6246
2154.77	6249
2156.811	6169
2158.852	6296
2160.894	6215
2162.933	6174
2164.973	6208
2167.013	6217
2169.051	6232
2171.089	6007
2173.126	6147
2175.164	6257
2177.201	6220
2179.236	6164
2181.273	6068
2183.307	6230
2185.341	6111
2187.377	6094
2189.41	6211
2191.442	6161
2193.473	6167
2195.506	6140
2197.539	6085
2199.569	6140
2201.598	6162
2203.628	6124
2205.656	6127
2207.686	6147
2209.716	6179
2211.743	6025
2213.769	6030
2215.796	6091
2217.821	6157
2219.848	6125
2221.873	6073
2223.897	6016
2225.921	6040
2227.944	6157
2229.967	5992
2231.991	5926
2234.011	6135
2236.032	6093
2238.053	5932
2240.073	6073
2242.094	5962
2244.114	6108
2246.131	6013
2248.149	6062
2250.167	6101
2252.186	5874
2254.201	6061
2256.218	6075
2258.233	6022
2260.247	6100
2262.262	6064
2264.278	6097
2266.29	6014
2268.303	6061
2270.315	6099
2272.327	6089
2274.341	6091
2276.35	6000
2278.361	6073
2280.37	6027
2282.38	5980
2284.388	6135
2286.397	6025
2288.405	6056
2290.412	6025
2292.419	6081
2294.425	6057
2296.431	6121
2298.437	6108
2300.441	5948
2302.445	6009
2304.449	6024
2306.453	6071
2308.455	5958
2310.457	5983
2312.459	6179
2314.46	6027
2316.46	5993
2318.461	6163
2320.46	5978
2322.458	6011
2324.458	6118
2326.456	5975
2328.455	5908
2330.451	5852
2332.447	5983
2334.443	6022
2336.438	6016
2338.433	5974
2340.429	5943
2342.422	5980
2344.416	5935
2346.408	5974
2348.399	5921
2350.393	5970
2352.384	5987
2354.375	5983
2356.365	5842
2358.355	6024
2360.344	5994
2362.333	5913
2364.322	6009
2366.309	5897
2368.295	5863
2370.282	5895
2372.27	5913
2374.256	5811
2376.24	5958
2378.225	5924
2380.208	5806
2382.194	5842
2384.177	5937
2386.159	5948
2388.142	5874
2390.122	5836
2392.105	5824
2394.085	5913
2396.066	5793
2398.044	5763
2400.024	5841
2402.002	5878
2403.982	5812
2405.959	5957
2407.935	5873
2409.913	5778
2411.888	5805
2413.865	5818
2415.84	5686
2417.814	5784
2419.788	5857
2421.762	5753
2423.735	5886
2425.708	5799
2427.68	5767
2429.651	5799
2431.623	5899
2433.593	5802
2435.564	5878
2437.533	5820
2439.502	5848
2441.47	5839
2443.438	5759
2445.406	5769
2447.373	5748
2449.34	5812
2451.305	5797
2453.271	5807
2455.235	5663
2457.201	5824
2459.165	5813
2461.129	5827
2463.092	5800
2465.054	5761
2467.018	5769
2468.978	5769
2470.939	5727
2472.899	5781
2474.86	5866
2476.819	5823
2478.778	5742
2480.737	5774
2482.695	5694
2484.653	5716
2486.609	5719
2488.567	5746
2490.524	5660
2492.478	5715
2494.433	5847
2496.387	5684
2498.343	5773
2500.297	5730
2502.249	5711
2504.202	5696
2506.153	5759
2508.105	5657
2510.057	5679
2512.008	5717
2513.957	5721
2515.906	5631
2517.855	5709
2519.805	5669
2521.754	5716
2523.7	5612
2525.647	5742
2527.594	5609
2529.54	5740
2531.486	5597
2533.431	5665
2535.376	5681
2537.32	5741
2539.263	5602
2541.207	5695
2543.151	5705
2545.093	5566
2547.034	5632
2548.975	5557
2550.917	5643
2552.856	5650
2554.796	5749
2556.735	5590
2558.673	5645
2560.611	5591
2562.55	5713
2564.487	5665
2566.424	5688
2568.36	5724
2570.296	5578
2572.232	5610
2574.167	5678
2576.101	5701
2578.035	5644
2579.969	5589
2581.902	5723
2583.834	5634
2585.766	5685
2587.698	5640
2589.628	5686
2591.557	5524
2593.489	5682
2595.419	5628
2597.348	5638
2599.275	5654
2601.204	5720
2603.131	5703
2605.059	5601
2606.986	5682
2608.911	5576
2610.837	5623
2612.76	5635
2614.687	5617
2616.61	5668
2618.534	5694
2620.457	5693
2622.38	5676
2624.302	5762
2626.225	5715
2628.145	5739
2630.067	5722
2631.986	5649
2633.906	5640
2635.827	5694
2637.745	5618
2639.662	5759
2641.581	5745
2643.498	5785
2645.415	5644
2647.331	5646
2649.248	5676
2651.163	5731
2653.077	5657
2654.993	5571
2656.906	5540
2658.821	5666
2660.733	5759
2662.646	5695
2664.557	5614
2666.47	5678
2668.381	5688
2670.291	5636
2672.201	5605
2674.11	5700
2676.021	5613
2677.929	5658
2679.837	5679
2681.745	5607
2683.652	5658
2685.56	5711
2687.466	5693
2689.371	5692
2691.276	5535
2693.181	5505
2695.085	5542
2696.991	5581
2698.893	5579
2700.796	5616
2702.698	5554
2704.601	5485
2706.502	5661
2708.404	5607
2710.304	5564
2712.203	5618
2714.103	5582
2716.003	5583
2717.902	5575
2719.8	5519
2721.697	5579
2723.594	5427
2725.49	5492
2727.389	5646
2729.283	5525
2731.179	5533
2733.073	5472
2734.968	5660
2736.863	5494
2738.757	5620
2740.649	5555
2742.541	5511
2744.433	5625
2746.324	5533
2748.216	5556
2750.107	5575
2751.997	5534
2753.886	5501
2755.776	5529
2757.666	5412
2759.553	5487
2761.44	5434
2763.327	5546
2765.215	5525
2767.102	5462
2768.988	5407
2770.873	5543
2772.757	5523
2774.641	5538
2776.525	5504
2778.41	5387
2780.292	5447
2782.175	5572
2784.057	5492
2785.938	5529
2787.821	5486
2789.701	5539
2791.581	5536
2793.461	5375
2795.34	5452
2797.219	5538
2799.099	5392
2800.975	5325
2802.853	5549
2804.73	5408
2806.606	5357
2808.484	5426
2810.358	5503
2812.233	5492
2814.108	5416
2815.981	5476
2817.857	5421
2819.73	5503
2821.602	5476
2823.474	5432
2825.346	5412
2827.217	5401
2829.089	5485
2830.959	5440
2832.829	5420
2834.698	5509
2836.567	5397
2838.436	5406
2840.305	5542
2842.172	5521
2844.04	5567
2845.905	5490
2847.772	5484
2849.639	5498
2851.503	5538
2853.369	5556
2855.232	5477
2857.096	5641
2858.961	5587
2860.824	5636
2862.686	5625
2864.547	5681
2866.41	5672
2868.272	5723
2870.132	5661
2871.992	5720
2873.851	5880
2875.711	5900
2877.57	5910
2879.429	5935
2881.287	6034
2883.144	6053
2885.001	6201
2886.857	6156
2888.714	6226
2890.57	6135
2892.425	6158
2894.279	6217
2896.133	6147
2897.987	5971
2899.842	6151
2901.694	6040
2903.547	6240
2905.397	6133
2907.249	6125
2909.101	6133
2910.952	6082
2912.802	6179
2914.652	6326
2916.5	6318
2918.35	6382
2920.198	6521
2922.045	6496
2923.893	6706
2925.74	6666
2927.585	6696
2929.433	6774
2931.279	7007
2933.123	7002
2934.968	7011
2936.811	6981
2938.656	7096
2940.5	7083
2942.342	7322
2944.185	7317
2946.026	7333
2947.87	7135
2949.71	7203
2951.549	7100
2953.39	7218
2955.229	7044
2957.069	6853
2958.908	6842
2960.746	6896
2962.584	6650
2964.421	6653
2966.257	6567
2968.094	6456
2969.931	6445
2971.766	6452
2973.601	6405
2975.435	6383
2977.27	6454
2979.105	6307
2980.938	6347
2982.77	6253
2984.602	6327
2986.434	6241
2988.267	6204
2990.097	6204
2991.927	6058
2993.757	6131
2995.587	6147
2997.417	5974
2999.246	5940
3001.074	5909
3002.902	5801
3004.729	5691
3006.556	5616
3008.384	5652
3010.21	5625
3012.036	5527
3013.861	5422
3015.684	5538
3017.51	5476
3019.334	5283
3021.157	5353
3022.981	5315
3024.802	5325
3026.624	5254
3028.448	5219
3030.267	5250
3032.088	5098
3033.909	5130
3035.728	5170
3037.549	5144
3039.368	5236
3041.186	5064
3043.004	5190
3044.821	5176
3046.64	5126
3048.455	5125
3050.272	5069
3052.087	5070
3053.903	5182
3055.717	5009
3057.534	5126
3059.347	5076
3061.16	5247
3062.974	5092
3064.785	5151
3066.598	5144
3068.411	5084
3070.222	5105
3072.032	5065
3073.844	5094
3075.653	5141
3077.463	5046
3079.272	5021
3081.08	5093
3082.889	5069
3084.697	4940
3086.505	4929
3088.312	5028
3090.118	5054
3091.924	4918
3093.729	5007
3095.535	4961
3097.34	4963
3099.144	4932
3100.947	4931
3102.75	4909
3104.553	4948
3106.357	4856
3108.159	4922
3109.961	4805
3111.762	4934
3113.562	4915
3115.365	4895
3117.164	4940
3118.964	4875
3120.761	4899
3122.56	4849
3124.36	4819
3126.158	4901
3127.954	4880
3129.75	4916
3131.547	5052
3133.343	4874
3135.139	4858
3136.934	4849
3138.729	4862
3140.522	4779
3142.317	4848
3144.11	4827
3145.904	4805
3147.695	4772
3149.488	4863
3151.28	4839
3153.07	4811
3154.863	4805
3156.652	4819
3158.441	4843
3160.231	4815
3162.019	4720
3163.81	4718
3165.597	4694
3167.384	4718
3169.172	4739
3170.958	4805
3172.745	4711
3174.532	4837
3176.317	4691
3178.101	4755
3179.885	4772
3181.67	4723
3183.455	4762
3185.238	4789
3187.02	4775
3188.802	4809
3190.585	4792
3192.368	4717
3194.149	4691
3195.929	4736
3197.709	4776
3199.489	4791
3201.268	4757
3203.048	4801
3204.826	4776
3206.604	4787
3208.382	4793
3210.159	4828
3211.937	4753
3213.713	4806
3215.489	4792
3217.263	4713
3219.038	4757
3220.815	4694
3222.589	4649
3224.363	4710
3226.136	4730
3227.908	4685
3229.681	4722
3231.454	4641
3233.226	4708
3234.996	4682
3236.767	4718
3238.538	4734
3240.308	4812
3242.078	4701
3243.847	4763
3245.615	4744
3247.384	4671
3249.15	4796
3250.92	4653
3252.686	4739
3254.453	4611
3256.218	4745
3257.984	4737
3259.75	4705
3261.515	4677
3263.279	4777
3265.044	4745
3266.806	4755
3268.57	4750
3270.334	4755
3272.095	4798
3273.856	4704
3275.619	4714
3277.379	4742
3279.14	4787
3280.9	4766
3282.661	4773
3284.419	4822
3286.178	4786
3287.937	4910
3289.695	4682
3291.453	4740
3293.21	4723
3294.967	4754
3296.723	4782
3298.48	4762
3300.235	4779
3301.99	4729
3303.744	4774
3305.498	4768
3307.253	4751
3309.006	4782
3310.759	4856
3312.511	4836
3314.263	4749
3316.017	4769
3317.768	4758
3319.519	4723
3321.268	4806
3323.018	4780
3324.767	4719
3326.518	4854
3328.267	4665
3330.014	4753
3331.762	4635
3333.509	4729
3335.258	4697
3337.003	4769
3338.75	4757
3340.496	4793
3342.24	4643
3343.987	4748
3345.732	4719
3347.475	4712
3349.219	4624
3350.961	4632
3352.705	4704
3354.448	4677
3356.19	4640
3357.931	4715
3359.672	4664
3361.412	4670
3363.155	4646
3364.894	4629
3366.633	4606
3368.372	4707
3370.11	4624
3371.849	4714
3373.588	4567
3375.325	4586
3377.061	4507
3378.799	4622
3380.534	4694
3382.271	4711
3384.006	4561
3385.741	4650
3387.475	4658
3389.209	4625
3390.944	4623
3392.677	4604
3394.409	4616
3396.143	4616
3397.874	4492
3399.606	4514
3401.338	4500
3403.069	4574
3404.799	4566
3406.528	4501
3408.258	4453
3409.988	4539
3411.717	4505
3413.445	4498
3415.173	4516
3416.899	4497
3418.626	4501
3420.354	4495
3422.08	4376
3423.806	4547
3425.531	4554
3427.255	4543
3428.981	4459
3430.705	4432
3432.429	4423
3434.151	4533
3435.875	4385
3437.599	4434
3439.321	4411
3441.042	4412
3442.763	4514
3444.483	4375
3446.204	4486
3447.926	4461
3449.645	4452
3451.364	4453
3453.082	4457
3454.801	4412
3456.52	4355
3458.238	4375
3459.954	4311
3461.671	4392
3463.387	4303
3465.104	4357
3466.82	4346
3468.534	4403
3470.25	4282
3471.963	4327
3473.676	4324
3475.392	4390
3477.104	4201
3478.817	4400
3480.528	4291
3482.241	4296
3483.954	4228
3485.664	4246
3487.374	4221
3489.084	4226
3490.795	4254
3492.504	4262
3494.214	4251
3495.922	4224
3497.63	4304
3499.338	4247
3501.045	4179
3502.753	4239
3504.459	4174
3506.166	4259
3507.871	4166
3509.576	4144
3511.283	4173
3512.987	4137
3514.691	4204
3516.395	4087
3518.098	4145
3519.8	4216
3521.504	4149
3523.206	4224
3524.908	4191
3526.609	4104
3528.309	4078
3530.011	4081
3531.711	4151
3533.411	4134
3535.109	4071
3536.808	4232
3538.507	4104
3540.206	4050
3541.904	4080
3543.601	4100
3545.297	4141
3546.994	4079
3548.69	4106
3550.387	4053
3552.081	4020
3553.776	3999
3555.47	4012
3557.166	3990
3558.859	3991
3560.553	3987
3562.245	3979
3563.938	4014
3565.629	3957
3567.322	4008
3569.014	3984
3570.704	3958
3572.394	4064
3574.084	4000
3575.775	3980
3577.464	3983
3579.152	4045
3580.842	3952
3582.529	3994
3584.216	3924
3585.905	3944
3587.591	3929
3589.279	3988
3590.964	3943
3592.649	3898
3594.336	3991
3596.021	3952
3597.705	3853
3599.388	3925
3601.072	3885
3602.757	3867
3604.439	3821
3606.122	3826
3607.803	3876
3609.485	3724
3611.167	3766
3612.849	3852
3614.529	3874
3616.208	3793
3617.888	3764
3619.567	3810
3621.247	3804
3622.926	3759
3624.603	3767
3626.281	3812
3627.958	3814
3629.635	3738
3631.312	3771
3632.989	3762
3634.665	3689
3636.339	3775
3638.014	3784
3639.691	3805
3641.364	3637
3643.038	3678
3644.71	3685
3646.384	3653
3648.058	3601
3649.729	3704
3651.402	3707
3653.073	3695
3654.744	3630
3656.414	3662
3658.085	3659
3659.755	3696
3661.424	3727
3663.094	3686
3664.762	3547
3666.431	3649
3668.099	3715
3669.766	3567
3671.433	3668
3673.099	3650
3674.768	3619
3676.433	3703
3678.098	3661
3679.763	3625
3681.428	3594
3683.093	3563
3684.757	3613
3686.421	3527
3688.083	3579
3689.746	3537
3691.408	3609
3693.071	3523
3694.733	3571
3696.394	3528
3698.054	3654
3699.715	3609
3701.375	3582
3703.036	3480
3704.695	3567
3706.354	3560
3708.012	3517
3709.67	3559
3711.329	3545
3712.987	3535
3714.644	3586
3716.299	3476
3717.955	3487
3719.613	3524
3721.268	3513
3722.923	3562
3724.577	3556
3726.231	3591
3727.885	3513
3729.539	3537
3731.192	3486
3732.845	3457
3734.497	3521
3736.149	3546
3737.802	3518
3739.453	3462
3741.104	3434
3742.753	3414
3744.404	3479
3746.052	3521
3747.704	3540
3749.352	3520
3751	3555
3752.648	3434
3754.296	3472
3755.944	3516
3757.59	3414
3759.238	3496
3760.883	3469
3762.528	3425
3764.176	3393
3765.82	3338
3767.464	3459
3769.109	3460
3770.753	3426
3772.396	3434
3774.04	3477
3775.683	3418
3777.325	3457
3778.967	3372
3780.608	3442
3782.25	3436
3783.89	3338
3785.531	3441
3787.17	3342
3788.81	3366
3790.45	3366
3792.09	3380
3793.729	3293
3795.366	3319
3797.003	3375
3798.64	3453
3800.278	3366
3801.915	3371
3803.551	3367
3805.187	3338
3806.822	3348
3808.458	3354
3810.093	3365
3811.726	3362
3813.36	3379
3814.994	3342
3816.627	3331
3818.262	3373
3819.893	3293
3821.525	3354
3823.157	3275
3824.787	3339
3826.42	3339
3828.051	3286
3829.68	3259
3831.31	3335
3832.938	3359
3834.569	3302
3836.198	3269
3837.825	3328
3839.454	3267
3841.08	3232
3842.708	3269
3844.335	3301
3845.962	3276
3847.587	3321
3849.212	3258
3850.838	3212
3852.463	3242
3854.089	3206
3855.712	3239
3857.335	3220
3858.959	3219
3860.582	3198
3862.205	3316
3863.827	3268
3865.449	3196
3867.07	3213
3868.691	3226
3870.312	3170
3871.933	3264
3873.553	3248
3875.173	3161
3876.792	3175
3878.411	3229
3880.03	3222
3881.647	3227
3883.265	3240
3884.882	3148
3886.499	3198
3888.116	3150
3889.732	3168
3891.348	3242
3892.964	3123
3894.579	3312
3896.195	3209
3897.809	3189
3899.423	3197
3901.036	3151
3902.648	3226
3904.261	3125
3905.875	3183
3907.487	3156
3909.099	3151
3910.709	3145
3912.321	3172
3913.933	3164
3915.542	3174
3917.152	3214
3918.762	3181
3920.37	3102
3921.98	3182
3923.589	3131
3925.196	3188
3926.804	3181
3928.41	3153
3930.018	3198
3931.626	3191
3933.231	3177
3934.838	3126
3936.442	3074
3938.046	3135
3939.653	3131
3941.257	3095
3942.861	3105
3944.464	3114
3946.068	3138
3947.67	3112
3949.273	3107
3950.876	3125
3952.477	3058
3954.078	3103
3955.678	3128
3957.281	3023
3958.881	3044
3960.48	3112
3962.079	3108
3963.678	2994
3965.279	3080
3966.877	3071
3968.475	3050
3970.072	3096
3971.669	3080
3973.266	3032
3974.864	3065
3976.459	2983
3978.055	3039
3979.65	2989
3981.245	3042
3982.841	3032
3984.436	3054
3986.03	3038
3987.623	3009
3989.216	3011
3990.809	3025
3992.403	3045
3993.995	3018
3995.586	3007
3997.177	2964
3998.768	3001
4000.361	3076
4001.951	2991
4003.54	3031
4005.13	3025
4006.719	2980
4008.31	2931
4009.897	2949
4011.485	2989
4013.073	2905
4014.66	2957
4016.247	2980
4017.834	2944
4019.421	2994
4021.006	2926
4022.592	2884
4024.178	2953
4025.763	2857
4027.348	2958
4028.932	2894
4030.515	2878
4032.099	2951
4033.682	2978
4035.266	2902
4036.847	2840
4038.429	2931
4040.011	2882
4041.592	2890
4043.173	2839
4044.755	2910
4046.334	2854
4047.913	2893
4049.494	2860
4051.074	2835
4052.652	2870
4054.23	2812
4055.807	2911
4057.385	2871
4058.963	2819
4060.541	2794
4062.117	2876
4063.693	2875
4065.269	2848
4066.844	2853
4068.42	2813
4069.995	2841
4071.569	2874
4073.143	2883
4074.716	2810
4076.291	2787
4077.864	2777
4079.436	2763
4081.009	2850
4082.58	2874
4084.152	2829
4085.723	2786
4087.294	2850
4088.865	2831
4090.435	2795
4092.005	2885
4093.574	2788
4095.143	2790
4096.712	2810
4098.279	2843
4099.848	2851
4101.416	2828
4102.984	2869
4104.55	2796
4106.117	2879
4107.682	2792
4109.248	2768
4110.815	2745
4112.379	2745
4113.945	2832
4115.508	2861
4117.073	2746
4118.637	2792
4120.201	2806
4121.763	2739
4123.325	2760
4124.888	2790
4126.449	2758
4128.013	2725
4129.573	2752
4131.133	2720
4132.694	2732
4134.254	2695
4135.814	2711
4137.374	2739
4138.933	2761
4140.491	2638
4142.049	2760
4143.607	2669
4145.167	2694
4146.724	2713
4148.28	2672
4149.836	2743
4151.392	2768
4152.949	2667
4154.504	2725
4156.059	2714
4157.614	2669
4159.168	2653
4160.723	2663
4162.277	2669
4163.83	2695
4165.383	2641
4166.936	2630
4168.488	2656
4170.041	2631
4171.593	2629
4173.144	2615
4174.695	2693
4176.246	2656
4177.796	2668
4179.346	2577
4180.896	2641
4182.445	2652
4183.994	2645
4185.542	2611
4187.091	2610
4188.639	2632
4190.185	2587
4191.732	2565
4193.279	2658
4194.826	2598
4196.373	2598
4197.918	2607
4199.463	2542
4201.008	2673
4202.553	2587
4204.098	2648
4205.641	2618
4207.185	2530
4208.728	2537
4210.271	2605
4211.814	2632
4213.357	2472
4214.898	2607
4216.439	2551
4217.98	2586
4219.522	2530
4221.062	2596
4222.603	2538
4224.142	2620
4225.681	2623
4227.222	2567
4228.76	2567
4230.298	2520
4231.835	2514
4233.373	2491
4234.911	2560
4236.449	2466
4237.985	2573
4239.521	2462
4241.057	2532
4242.592	2515
4244.128	2590
4245.663	2552
4247.197	2522
4248.731	2550
4250.265	2545
4251.798	2525
4253.333	2485
4254.865	2477
4256.397	2485
4257.93	2504
4259.461	2492
4260.994	2496
4262.525	2475
4264.056	2550
4265.586	2537
4267.115	2552
4268.646	2454
4270.176	2471
4271.705	2423
4273.232	2547
4274.761	2473
4276.289	2540
4277.818	2433
4279.345	2456
4280.872	2485
4282.399	2487
4283.924	2508
4285.452	2499
4286.976	2457
4288.502	2448
4290.026	2498
4291.551	2492
4293.074	2443
4294.6	2440
4296.123	2483
4297.646	2516
4299.168	2420
4300.691	2444
4302.214	2421
4303.736	2459
4305.257	2382
4306.778	2467
4308.299	2393
4309.82	2401
4311.34	2410
4312.86	2444
4314.379	2384
