400.0745	3769
402.597	3803
405.1208	3807
407.6419	3856
410.1623	3745
412.6819	3779
415.201	3868
417.7172	3944
420.2369	3977
422.7538	3999
425.2701	3948
427.7856	4066
430.3005	4167
432.8147	4151
435.3282	4151
437.841	4088
440.3511	4090
442.8625	3967
445.3753	4044
447.8854	4074
450.3927	4142
452.9014	4030
455.4073	4094
457.9146	4191
460.4233	4068
462.9272	3962
465.4325	4004
467.935	4095
470.4389	4085
472.9421	4044
475.4446	3987
477.9444	4003
480.4456	3999
482.944	4140
485.4417	3995
487.9429	4078
490.4393	4038
492.935	4036
495.4321	4049
497.9264	4095
500.4221	4033
502.9171	4095
505.4094	4160
507.9011	4036
510.392	4119
512.8864	4217
515.3759	4102
517.8649	4207
520.3531	4145
522.8406	4186
525.3275	4178
527.8178	4252
530.3033	4229
532.7881	4191
535.2723	4229
537.7558	4248
540.2407	4184
542.7228	4291
545.2043	4184
547.6851	4226
550.1652	4282
552.6467	4235
555.1255	4126
557.6016	4293
560.079	4253
562.5557	4249
565.0318	4259
567.5092	4325
569.984	4372
572.456	4340
574.9294	4320
577.4022	4377
579.8762	4320
582.3456	4379
584.8163	4360
587.2863	4404
589.7557	4391
592.2224	4426
594.6924	4477
597.1578	4387
599.6245	4402
602.0905	4371
604.5538	4300
607.0206	4303
609.4825	4341
611.9459	4391
614.4066	4330
616.8686	4297
619.33	4274
621.7906	4292
624.2487	4363
626.708	4275
629.1647	4235
631.6207	4323
634.0801	4371
636.5348	4296
638.9888	4221
641.4442	4197
643.8969	4259
646.3509	4346
648.8022	4243
651.255	4354
653.705	4387
656.1544	4352
658.6031	4304
661.0532	4313
663.5026	4365
665.9493	4294
668.3954	4397
670.8409	4434
673.2877	4413
675.7318	4421
678.1752	4366
680.618	4385
683.0601	4454
685.5035	4558
687.9444	4420
690.3845	4516
692.824	4426
695.2628	4448
697.701	4471
700.1406	4439
702.5774	4492
705.0116	4527
707.4472	4513
709.8821	4537
712.3183	4501
714.7519	4568
717.1829	4556
719.6151	4535
722.0468	4563
724.4777	4620
726.908	4689
729.3377	4608
731.7667	4613
734.1931	4686
736.6208	4647
739.0498	4658
741.4742	4636
743.9	4685
746.3231	4666
748.7476	4676
751.1713	4666
753.5945	4684
756.015	4682
758.4368	4687
760.856	4771
763.2766	4744
765.6965	4754
768.1157	4803
770.5323	4767
772.9483	4780
775.3656	4721
777.7822	4769
780.1963	4744
782.6116	4748
785.0244	4775
787.4365	4908
789.8499	4736
792.2626	4761
794.6728	4830
797.0823	4824
799.4911	4734
801.8994	4767
804.3109	4817
806.7178	4865
809.124	4767
811.5297	4868
813.9347	4832
816.341	4906
818.7447	4841
821.1478	4881
823.5502	4877
825.952	4855
828.3531	4801
830.7556	4784
833.1554	4933
835.5546	4816
837.9532	4844
840.3511	4818
842.7504	4878
845.1451	4949
847.5411	4998
849.9365	5021
852.3312	4969
854.7272	5063
857.1187	4996
859.5115	4956
861.9037	4885
864.2952	5063
866.6842	4925
869.0764	5033
871.4661	4990
873.8531	5015
876.2415	4947
878.6272	4929
881.0162	4993
883.4026	4933
885.7866	5022
888.1717	5014
890.5543	5032
892.9382	4926
895.3215	4961
897.7041	5030
900.0842	5020
902.4655	4998
904.8443	5016
907.2244	4984
909.6039	4924
911.9808	5208
914.357	5185
916.7346	5140
919.1115	5206
921.4859	5263
923.8616	5328
926.2347	5365
928.6071	5255
930.979	5307
933.3541	5270
935.7247	5300
938.0946	5333
940.4639	5471
942.8326	5526
945.2026	5538
947.5701	5664
949.9369	5756
952.305	5990
954.6705	6226
957.0355	6477
959.4017	6885
961.7654	7026
964.1284	6974
966.4908	6789
968.8527	6393
971.2138	6068
973.5743	5905
975.9343	5558
978.2936	5460
980.6522	5389
983.0122	5216
985.3696	5211
987.7245	5229
990.0807	5123
992.4362	5082
994.7911	5165
997.1474	5188
999.4991	5142
1001.852	5201
1004.205	5156
1006.555	5244
1008.908	5311
1011.258	5265
1013.606	5196
1015.956	5103
1018.302	5168
1020.652	5246
1022.998	5205
1025.345	5186
1027.691	5206
1030.035	5232
1032.378	5225
1034.724	5234
1037.066	5250
1039.409	5275
1041.75	5200
1044.092	5259
1046.433	5187
1048.771	5224
1051.112	5302
1053.449	5271
1055.786	5310
1058.124	5235
1060.462	5325
1062.797	5312
1065.131	5258
1067.467	5419
1069.8	5445
1072.135	5438
1074.467	5354
1076.798	5411
1079.129	5301
1081.459	5329
1083.792	5434
1086.121	5400
1088.449	5245
1090.777	5280
1093.104	5249
1095.431	5229
1097.759	5154
1100.084	5228
1102.408	5238
1104.732	5204
1107.056	5296
1109.379	5244
1111.701	5296
1114.022	5214
1116.343	5165
1118.664	5329
1120.983	5261
1123.303	5289
1125.621	5229
1127.939	5308
1130.256	5277
1132.573	5263
1134.889	5214
1137.205	5396
1139.52	5208
1141.832	5245
1144.146	5215
1146.461	5196
1148.771	5273
1151.083	5137
1153.392	5156
1155.703	5173
1158.011	5241
1160.323	5197
1162.629	5387
1164.938	5307
1167.243	5202
1169.55	5227
1171.857	5328
1174.163	5269
1176.466	5272
1178.769	5274
1181.073	5232
1183.374	5238
1185.677	5308
1187.979	5260
1190.279	5188
1192.578	5197
1194.878	5224
1197.178	5265
1199.476	5364
1201.772	5181
1204.068	5315
1206.366	5180
1208.663	5238
1210.957	5275
1213.251	5265
1215.544	5334
1217.836	5190
1220.128	5291
1222.421	5225
1224.712	5212
1227.002	5436
1229.292	5316
1231.581	5441
1233.871	5532
1236.159	5400
1238.446	5454
1240.732	5504
1243.018	5575
1245.304	5479
1247.59	5605
1249.874	5536
1252.156	5550
1254.439	5577
1256.721	5592
1259.005	5502
1261.286	5455
1263.565	5515
1265.845	5462
1268.125	5488
1270.403	5451
1272.682	5607
1274.959	5443
1277.234	5515
1279.511	5427
1281.787	5447
1284.062	5432
1286.337	5453
1288.609	5526
1290.882	5455
1293.153	5511
1295.428	5390
1297.698	5491
1299.969	5377
1302.237	5407
1304.507	5305
1306.777	5349
1309.044	5226
1311.312	5324
1313.578	5420
1315.844	5323
1318.109	5461
1320.375	5346
1322.638	5358
1324.903	5401
1327.165	5445
1329.427	5337
1331.69	5432
1333.952	5447
1336.212	5357
1338.471	5345
1340.73	5432
1342.988	5439
1345.248	5399
1347.505	5396
1349.763	5440
1352.019	5237
1354.274	5338
1356.53	5338
1358.784	5256
1361.038	5351
1363.291	5347
1365.543	5358
1367.797	5361
1370.048	5348
1372.296	5406
1374.546	5378
1376.796	5336
1379.045	5326
1381.295	5408
1383.542	5411
1385.787	5409
1388.034	5498
1390.28	5467
1392.527	5493
1394.772	5423
1397.014	5474
1399.258	5455
1401.501	5499
1403.741	5459
1405.985	5504
1408.226	5524
1410.465	5520
1412.705	5521
1414.943	5555
1417.184	5532
1419.42	5547
1421.658	5588
1423.894	5615
1426.13	5546
1428.366	5643
1430.602	5582
1432.835	5572
1435.069	5635
1437.301	5677
1439.535	5701
1441.767	5653
1443.997	5561
1446.229	5629
1448.458	5736
1450.687	5717
1452.916	5691
1455.146	5711
1457.372	5755
1459.599	5741
1461.824	5679
1464.051	5757
1466.277	5697
1468.501	5708
1470.725	5615
1472.948	5665
1475.17	5507
1477.393	5586
1479.614	5420
1481.837	5427
1484.057	5479
1486.276	5423
1488.497	5349
1490.715	5338
1492.932	5326
1495.148	5284
1497.364	5341
1499.58	5305
1501.798	5385
1504.012	5213
1506.227	5250
1508.44	5278
1510.653	5322
1512.866	5322
1515.078	5309
1517.289	5329
1519.5	5376
1521.711	5232
1523.92	5299
1526.13	5215
1528.338	5328
1530.544	5366
1532.752	5302
1534.959	5315
1537.165	5355
1539.371	5300
1541.574	5323
1543.779	5227
1545.983	5418
1548.187	5394
1550.39	5306
1552.59	5484
1554.792	5414
1556.991	5356
1559.19	5431
1561.392	5427
1563.59	5350
1565.789	5408
1567.986	5427
1570.182	5397
1572.381	5492
1574.576	5397
1576.771	5418
1578.966	5408
1581.16	5456
1583.354	5489
1585.546	5462
1587.74	5460
1589.931	5499
1592.121	5426
1594.311	5388
1596.502	5412
1598.693	5625
1600.881	5505
1603.069	5518
1605.256	5512
1607.445	5524
1609.631	5556
1611.816	5596
1614.001	5538
1616.186	5575
1618.37	5519
1620.555	5588
1622.737	5458
1624.919	5486
1627.101	5495
1629.282	5606
1631.463	5625
1633.643	5645
1635.822	5630
1638.001	5578
1640.179	5616
1642.359	5643
1644.534	5675
1646.711	5673
1648.887	5676
1651.062	5637
1653.235	5636
1655.412	5821
1657.586	5636
1659.757	5656
1661.93	5538
1664.1	5726
1666.274	5744
1668.445	5609
1670.614	5708
1672.784	5711
1674.951	5612
1677.12	5729
1679.289	5754
1681.457	5602
1683.622	5697
1685.789	5733
1687.953	5592
1690.121	5596
1692.284	5667
1694.447	5543
1696.611	5615
1698.772	5614
1700.935	5434
1703.098	5469
1705.258	5444
1707.417	5583
1709.576	5469
1711.736	5561
1713.896	5539
1716.053	5405
1718.21	5442
1720.366	5428
1722.522	5478
1724.68	5483
1726.835	5424
1728.989	5418
1731.142	5413
1733.295	5471
1735.449	5392
1737.601	5369
1739.753	5488
1741.903	5491
1744.054	5426
1746.203	5329
1748.354	5426
1750.503	5361
1752.651	5461
1754.798	5394
1756.944	5462
1759.092	5433
1761.238	5389
1763.383	5490
1765.528	5458
1767.672	5418
1769.814	5457
1771.959	5506
1774.102	5450
1776.242	5517
1778.384	5548
1780.525	5473
1782.665	5483
1784.805	5507
1786.945	5532
1789.082	5484
1791.22	5490
1793.36	5455
1795.495	5517
1797.632	5326
1799.766	5449
1801.902	5412
1804.035	5484
1806.172	5464
1808.304	5391
1810.436	5434
1812.569	5394
1814.699	5539
1816.833	5427
1818.963	5399
1821.092	5467
1823.222	5384
1825.35	5462
1827.478	5474
1829.608	5426
1831.734	5558
1833.86	5408
1835.986	5422
1838.11	5459
1840.238	5451
1842.362	5545
1844.485	5467
1846.608	5389
1848.73	5365
1850.853	5390
1852.974	5384
1855.097	5447
1857.217	5363
1859.336	5395
1861.455	5383
1863.576	5422
1865.693	5399
1867.811	5428
1869.926	5448
1872.042	5346
1874.16	5345
1876.275	5426
1878.39	5445
1880.504	5458
1882.618	5398
1884.731	5379
1886.843	5485
1888.956	5388
1891.067	5377
1893.178	5371
1895.287	5390
1897.399	5392
1899.508	5498
1901.617	5420
1903.724	5354
1905.832	5515
1907.941	5474
1910.046	5395
1912.152	5447
1914.256	5431
1916.361	5458
1918.464	5511
1920.57	5578
1922.672	5496
1924.775	5495
1926.876	5418
1928.978	5480
1931.08	5476
1933.181	5483
1935.28	5450
1937.38	5467
1939.478	5436
1941.577	5499
1943.675	5507
1945.771	5504
1947.867	5624
1949.964	5538
1952.058	5593
1954.154	5463
1956.248	5471
1958.343	5496
1960.435	5438
1962.527	5464
1964.62	5394
1966.711	5416
1968.802	5457
1970.892	5459
1972.983	5457
1975.072	5541
1977.162	5388
1979.25	5381
1981.337	5406
1983.424	5344
1985.51	5483
1987.598	5402
1989.683	5445
1991.768	5431
1993.852	5339
1995.934	5459
1998.019	5330
2000.102	5396
2002.184	5366
2004.266	5374
2006.347	5442
2008.427	5375
2010.508	5361
2012.587	5399
2014.666	5446
2016.745	5415
2018.821	5379
2020.9	5519
2022.977	5350
2025.052	5453
2027.128	5432
2029.204	5449
2031.277	5467
2033.353	5469
2035.425	5456
2037.499	5410
2039.57	5528
2041.642	5464
2043.714	5355
2045.786	5445
2047.855	5445
2049.925	5461
2051.993	5329
2054.064	5420
2056.132	5428
2058.2	5372
2060.266	5438
2062.332	5567
2064.398	5458
2066.465	5403
2068.529	5520
2070.592	5399
2072.657	5478
2074.719	5324
2076.783	5413
2078.845	5487
2080.907	5409
2082.968	5385
2085.028	5413
2087.087	5351
2089.148	5419
2091.207	5471
2093.264	5388
2095.322	5475
2097.379	5378
2099.439	5352
2101.495	5452
2103.55	5380
2105.605	5442
2107.658	5329
2109.713	5460
2111.767	5311
2113.82	5497
2115.872	5482
2117.924	5382
2119.975	5436
2122.028	5341
2124.078	5444
2126.126	5371
2128.176	5369
2130.225	5370
2132.275	5362
2134.321	5373
2136.368	5344
2138.415	5404
2140.461	5412
2142.505	5403
2144.552	5307
2146.597	5404
2148.64	5388
2150.684	5303
2152.725	5372
2154.77	5480
2156.811	5365
2158.852	5398
2160.894	5464
2162.933	5281
2164.973	5344
2167.013	5273
2169.051	5454
2171.089	5448
2173.126	5394
2175.164	5301
2177.201	5381
2179.236	5248
2181.273	5383
2183.307	5333
2185.341	5379
2187.377	5249
2189.41	5221
2191.442	5325
2193.473	5301
2195.506	5366
2197.539	5353
2199.569	5185
2201.598	5359
2203.628	5259
2205.656	5274
2207.686	5267
2209.716	5257
2211.743	5269
2213.769	5281
2215.796	5291
2217.821	5289
2219.848	5313
2221.873	5209
2223.897	5279
2225.921	5269
2227.944	5192
2229.967	5211
2231.991	5275
2234.011	5304
2236.032	5273
2238.053	5188
2240.073	5249
2242.094	5268
2244.114	5315
2246.131	5286
2248.149	5122
2250.167	5272
2252.186	5298
2254.201	5320
2256.218	5135
2258.233	5246
2260.247	5371
2262.262	5280
2264.278	5322
2266.29	5191
2268.303	5248
2270.315	5281
2272.327	5172
2274.341	5207
2276.35	5354
2278.361	5223
2280.37	5285
2282.38	5303
2284.388	5186
2286.397	5192
2288.405	5233
2290.412	5273
2292.419	5278
2294.425	5247
2296.431	5149
2298.437	5257
2300.441	5230
2302.445	5231
2304.449	5193
2306.453	5193
2308.455	5283
2310.457	5287
2312.459	5253
2314.46	5240
2316.46	5206
2318.461	5236
2320.46	5194
2322.458	5120
2324.458	5197
2326.456	5230
2328.455	5217
2330.451	5139
2332.447	5216
2334.443	5204
2336.438	5145
2338.433	5110
2340.429	5139
2342.422	5187
2344.416	5240
2346.408	5200
2348.399	5060
2350.393	5094
2352.384	5145
2354.375	5210
2356.365	5175
2358.355	5164
2360.344	5105
2362.333	5109
2364.322	5143
2366.309	5084
2368.295	5202
2370.282	5192
2372.27	5138
2374.256	5181
2376.24	5123
2378.225	5079
2380.208	5041
2382.194	5127
2384.177	5097
2386.159	5090
2388.142	5092
2390.122	5088
2392.105	5143
2394.085	4990
2396.066	5052
2398.044	5087
2400.024	5050
2402.002	5068
2403.982	5080
2405.959	5069
2407.935	5079
2409.913	5098
2411.888	5029
2413.865	5043
2415.84	5045
2417.814	5007
2419.788	5064
2421.762	5086
2423.735	5003
2425.708	5067
2427.68	4992
2429.651	5055
2431.623	5101
2433.593	5011
2435.564	5066
2437.533	5057
2439.502	5075
2441.47	5031
2443.438	5113
2445.406	5088
2447.373	4964
2449.34	5016
2451.305	5026
2453.271	5094
2455.235	4907
2457.201	5021
2459.165	5091
2461.129	4971
2463.092	5054
2465.054	5048
2467.018	4992
2468.978	5017
2470.939	5021
2472.899	4962
2474.86	5110
2476.819	4997
2478.778	4935
2480.737	5063
2482.695	5000
2484.653	5019
2486.609	5031
2488.567	4901
2490.524	4908
2492.478	5000
2494.433	4982
2496.387	5004
2498.343	4974
2500.297	4861
2502.249	4892
2504.202	4964
2506.153	4986
2508.105	5005
2510.057	4999
2512.008	5026
2513.957	4964
2515.906	4954
2517.855	4880
2519.805	4871
2521.754	4957
2523.7	4935
2525.647	4925
2527.594	4964
2529.54	4908
2531.486	4921
2533.431	4968
2535.376	4881
2537.32	4978
2539.263	4923
2541.207	4869
2543.151	5009
2545.093	4987
2547.034	4908
2548.975	4980
2550.917	4913
2552.856	4885
2554.796	4849
2556.735	4897
2558.673	4859
2560.611	4861
2562.55	4845
2564.487	4896
2566.424	4947
2568.36	4841
2570.296	4899
2572.232	4806
2574.167	4936
2576.101	4928
2578.035	4927
2579.969	4874
2581.902	4984
2583.834	4948
2585.766	4998
2587.698	4955
2589.628	4951
2591.557	4944
2593.489	4950
2595.419	4917
2597.348	4903
2599.275	5042
2601.204	4915
2603.131	4878
2605.059	4896
2606.986	4849
2608.911	4919
2610.837	4937
2612.76	4992
2614.687	4976
2616.61	4979
2618.534	5004
2620.457	5052
2622.38	4914
2624.302	5040
2626.225	4970
2628.145	4973
2630.067	4894
2631.986	4931
2633.906	4931
2635.827	5007
2637.745	4869
2639.662	5008
2641.581	4869
2643.498	4946
2645.415	4983
2647.331	4957
2649.248	5015
2651.163	4951
2653.077	4931
2654.993	4918
2656.906	4889
2658.821	4967
2660.733	4946
2662.646	4990
2664.557	4832
2666.47	4840
2668.381	4864
2670.291	5005
2672.201	4841
2674.11	4864
2676.021	4908
2677.929	4862
2679.837	4852
2681.745	4894
2683.652	4904
2685.56	4925
2687.466	4890
2689.371	4908
2691.276	4839
2693.181	4887
2695.085	4798
2696.991	5032
2698.893	4928
2700.796	4806
2702.698	4906
2704.601	4837
2706.502	4864
2708.404	4902
2710.304	4867
2712.203	4871
2714.103	4782
2716.003	4861
2717.902	4875
2719.8	4820
2721.697	4947
2723.594	4899
2725.49	4949
2727.389	4894
2729.283	4831
2731.179	4741
2733.073	4851
2734.968	4949
2736.863	4876
2738.757	4834
2740.649	4751
2742.541	4750
2744.433	4822
2746.324	4843
2748.216	4837
2750.107	4815
2751.997	4886
2753.886	4820
2755.776	4788
2757.666	4793
2759.553	4756
2761.44	4879
2763.327	4813
2765.215	4859
2767.102	4725
2768.988	4852
2770.873	4842
2772.757	4856
2774.641	4752
2776.525	4812
2778.41	4815
2780.292	4799
2782.175	4877
2784.057	4741
2785.938	4887
2787.821	4741
2789.701	4746
2791.581	4773
2793.461	4752
2795.34	4775
2797.219	4812
2799.099	4795
2800.975	4736
2802.853	4749
2804.73	4736
2806.606	4862
2808.484	4721
2810.358	4743
2812.233	4768
2814.108	4776
2815.981	4854
2817.857	4771
2819.73	4725
2821.602	4773
2823.474	4810
2825.346	4816
2827.217	4711
2829.089	4709
2830.959	4854
2832.829	4876
2834.698	4703
2836.567	4822
2838.436	4869
2840.305	4779
2842.172	4824
2844.04	4771
2845.905	4859
2847.772	4905
2849.639	4928
2851.503	4908
2853.369	4808
2855.232	5014
2857.096	4921
2858.961	4975
2860.824	4912
2862.686	5077
2864.547	5094
2866.41	5032
2868.272	5058
2870.132	5143
2871.992	5236
2873.851	5197
2875.711	5243
2877.57	5333
2879.429	5285
2881.287	5389
2883.144	5419
2885.001	5444
2886.857	5493
2888.714	5327
2890.57	5527
2892.425	5463
2894.279	5447
2896.133	5372
2897.987	5480
2899.842	5505
2901.694	5427
2903.547	5427
2905.397	5407
2907.249	5369
2909.101	5398
2910.952	5478
2912.802	5551
2914.652	5603
2916.5	5572
2918.35	5586
2920.198	5864
2922.045	5656
2923.893	5799
2925.74	5938
2927.585	5934
2929.433	6116
2931.279	6086
2933.123	6221
2934.968	6201
2936.811	6285
2938.656	6333
2940.5	6264
2942.342	6416
2944.185	6402
2946.026	6384
2947.87	6431
2949.71	6446
2951.549	6257
2953.39	6321
2955.229	6322
2957.069	6179
2958.908	6101
2960.746	6028
2962.584	6013
2964.421	5915
2966.257	5905
2968.094	5742
2969.931	5734
2971.766	5615
2973.601	5761
2975.435	5581
2977.27	5592
2979.105	5591
2980.938	5572
2982.77	5618
2984.602	5400
2986.434	5535
2988.267	5442
2990.097	5324
2991.927	5337
2993.757	5319
2995.587	5400
2997.417	5291
2999.246	5089
3001.074	5116
3002.902	4997
3004.729	5100
3006.556	4943
3008.384	4937
3010.21	4891
3012.036	4875
3013.861	4815
3015.684	4839
3017.51	4719
3019.334	4753
3021.157	4672
3022.981	4701
3024.802	4570
3026.624	4626
3028.448	4592
3030.267	4608
3032.088	4509
3033.909	4572
3035.728	4491
3037.549	4617
3039.368	4471
3041.186	4563
3043.004	4574
3044.821	4528
3046.64	4480
3048.455	4607
3050.272	4537
3052.087	4402
3053.903	4484
3055.717	4427
3057.534	4483
3059.347	4558
3061.16	4493
3062.974	4490
3064.785	4521
3066.598	4442
3068.411	4608
3070.222	4480
3072.032	4475
3073.844	4476
3075.653	4325
3077.463	4399
3079.272	4577
3081.08	4407
3082.889	4454
3084.697	4316
3086.505	4497
3088.312	4408
3090.118	4388
3091.924	4280
3093.729	4383
3095.535	4367
3097.34	4377
3099.144	4407
3100.947	4379
3102.75	4297
3104.553	4313
3106.357	4412
3108.159	4292
3109.961	4347
3111.762	4335
3113.562	4348
3115.365	4355
3117.164	4299
3118.964	4290
3120.761	4336
3122.56	4218
3124.36	4269
3126.158	4308
3127.954	4358
3129.75	4254
3131.547	4275
3133.343	4172
3135.139	4275
3136.934	4351
3138.729	4178
3140.522	4289
3142.317	4259
3144.11	4279
3145.904	4270
3147.695	4171
3149.488	4321
3151.28	4244
3153.07	4222
3154.863	4203
3156.652	4172
3158.441	4281
3160.231	4216
3162.019	4252
3163.81	4231
3165.597	4217
3167.384	4211
3169.172	4254
3170.958	4218
3172.745	4305
3174.532	4228
3176.317	4148
3178.101	4204
3179.885	4232
3181.67	4232
3183.455	4209
3185.238	4223
3187.02	4265
3188.802	4174
3190.585	4217
3192.368	4201
3194.149	4244
3195.929	4194
3197.709	4313
3199.489	4261
3201.268	4145
3203.048	4227
3204.826	4205
3206.604	4195
3208.382	4185
3210.159	4275
3211.937	4198
3213.713	4250
3215.489	4203
3217.263	4120
3219.038	4192
3220.815	4198
3222.589	4163
3224.363	4186
3226.136	4229
3227.908	4166
3229.681	4255
3231.454	4215
3233.226	4263
3234.996	4166
3236.767	4188
3238.538	4187
3240.308	4197
3242.078	4199
3243.847	4217
3245.615	4182
3247.384	4130
3249.15	4158
3250.92	4138
3252.686	4150
3254.453	4162
3256.218	4158
3257.984	4112
3259.75	4210
3261.515	4171
3263.279	4261
3265.044	4237
3266.806	4259
3268.57	4189
3270.334	4243
3272.095	4236
3273.856	4267
3275.619	4275
3277.379	4197
3279.14	4202
3280.9	4156
3282.661	4308
3284.419	4226
3286.178	4295
3287.937	4208
3289.695	4179
3291.453	4212
3293.21	4169
3294.967	4235
3296.723	4248
3298.48	4170
3300.235	4283
3301.99	4125
3303.744	4178
3305.498	4201
3307.253	4249
3309.006	4290
3310.759	4311
3312.511	4231
3314.263	4269
3316.017	4285
3317.768	4282
3319.519	4270
3321.268	4145
3323.018	4295
3324.767	4272
3326.518	4221
3328.267	4226
3330.014	4298
3331.762	4340
3333.509	4225
3335.258	4155
3337.003	4125
3338.75	4229
3340.496	4162
3342.24	4207
3343.987	4242
3345.732	4199
3347.475	4144
3349.219	4133
3350.961	4193
3352.705	4250
3354.448	4139
3356.19	4145
3357.931	4148
3359.672	4125
3361.412	4159
3363.155	4102
3364.894	4207
3366.633	4110
3368.372	4038
3370.11	4147
3371.849	4154
3373.588	4124
3375.325	4074
3377.061	4020
3378.799	4235
3380.534	4103
3382.271	4102
3384.006	4043
3385.741	4092
3387.475	4039
3389.209	4078
3390.944	4020
3392.677	4132
3394.409	4007
3396.143	4013
3397.874	3986
3399.606	4027
3401.338	3989
3403.069	4136
3404.799	4137
3406.528	4065
3408.258	3972
3409.988	4059
3411.717	4088
3413.445	3982
3415.173	4017
3416.899	4013
3418.626	4070
3420.354	4080
3422.08	3955
3423.806	3965
3425.531	4046
3427.255	3911
3428.981	3981
3430.705	4032
3432.429	3965
3434.151	3957
3435.875	3929
3437.599	3964
3439.321	3913
3441.042	4036
3442.763	4035
3444.483	3891
3446.204	3895
3447.926	3946
3449.645	3895
3451.364	3910
3453.082	3853
3454.801	3966
3456.52	3859
3458.238	3903
3459.954	3883
3461.671	3881
3463.387	3832
3465.104	3938
3466.82	3840
3468.534	3782
3470.25	3919
3471.963	3844
3473.676	3894
3475.392	3847
3477.104	3829
3478.817	3839
3480.528	3837
3482.241	3831
3483.954	3869
3485.664	3708
3487.374	3791
3489.084	3835
3490.795	3697
3492.504	3743
3494.214	3684
3495.922	3723
3497.63	3747
3499.338	3695
3501.045	3797
3502.753	3714
3504.459	3717
3506.166	3778
3507.871	3762
3509.576	3718
3511.283	3685
3512.987	3696
3514.691	3775
3516.395	3750
3518.098	3657
3519.8	3652
3521.504	3725
3523.206	3746
3524.908	3669
3526.609	3646
3528.309	3637
3530.011	3519
3531.711	3648
3533.411	3714
3535.109	3624
3536.808	3596
3538.507	3687
3540.206	3658
3541.904	3734
3543.601	3624
3545.297	3616
3546.994	3601
3548.69	3691
3550.387	3571
3552.081	3719
3553.776	3536
3555.47	3546
3557.166	3569
3558.859	3554
3560.553	3564
3562.245	3496
3563.938	3564
3565.629	3545
3567.322	3547
3569.014	3548
3570.704	3495
3572.394	3544
3574.084	3600
3575.775	3567
3577.464	3541
3579.152	3558
3580.842	3499
3582.529	3531
3584.216	3515
3585.905	3601
3587.591	3500
3589.279	3552
3590.964	3516
3592.649	3448
3594.336	3470
3596.021	3476
3597.705	3499
3599.388	3498
3601.072	3388
3602.757	3356
3604.439	3503
3606.122	3410
3607.803	3473
3609.485	3408
3611.167	3433
3612.849	3413
3614.529	3378
3616.208	3360
3617.888	3396
3619.567	3391
3621.247	3293
3622.926	3273
3624.603	3359
3626.281	3438
3627.958	3399
3629.635	3318
3631.312	3353
3632.989	3333
3634.665	3369
3636.339	3361
3638.014	3362
3639.691	3319
3641.364	3334
3643.038	3309
3644.71	3228
3646.384	3332
3648.058	3313
3649.729	3251
3651.402	3273
3653.073	3351
3654.744	3253
3656.414	3297
3658.085	3341
3659.755	3333
3661.424	3198
3663.094	3273
3664.762	3246
3666.431	3315
3668.099	3321
3669.766	3262
3671.433	3184
3673.099	3235
3674.768	3247
3676.433	3222
3678.098	3264
3679.763	3208
3681.428	3228
3683.093	3242
3684.757	3296
3686.421	3204
3688.083	3086
3689.746	3261
3691.408	3259
3693.071	3143
3694.733	3218
3696.394	3161
3698.054	3171
3699.715	3235
3701.375	3220
3703.036	3166
3704.695	3194
3706.354	3132
3708.012	3208
3709.67	3108
3711.329	3109
3712.987	3245
3714.644	3214
3716.299	3159
3717.955	3172
3719.613	3178
3721.268	3210
3722.923	3166
3724.577	3154
3726.231	3142
3727.885	3196
3729.539	3190
3731.192	3150
3732.845	3177
3734.497	3127
3736.149	3134
3737.802	3121
3739.453	3158
3741.104	3027
3742.753	3082
3744.404	3161
3746.052	3127
3747.704	3121
3749.352	3114
3751	3095
3752.648	3154
3754.296	3123
3755.944	3094
3757.59	3118
3759.238	3076
3760.883	3098
3762.528	3110
3764.176	3102
3765.82	3058
3767.464	3162
3769.109	3041
3770.753	3100
3772.396	3090
3774.04	3177
3775.683	3026
3777.325	3088
3778.967	3138
3780.608	3093
3782.25	3122
3783.89	3009
3785.531	3046
3787.17	3030
3788.81	3000
3790.45	3071
3792.09	3001
3793.729	2981
3795.366	3009
3797.003	3021
3798.64	3053
3800.278	3000
3801.915	2927
3803.551	3026
3805.187	3030
3806.822	3034
3808.458	3013
3810.093	2979
3811.726	3001
3813.36	3051
3814.994	3022
3816.627	3004
3818.262	3040
3819.893	3026
3821.525	2966
3823.157	3016
3824.787	2942
3826.42	2910
3828.051	2964
3829.68	3024
3831.31	3007
3832.938	3047
3834.569	3015
3836.198	2933
3837.825	2937
3839.454	2968
3841.08	2905
3842.708	3019
3844.335	2900
3845.962	2885
3847.587	2957
3849.212	2976
3850.838	2911
3852.463	2869
3854.089	2957
3855.712	2936
3857.335	2915
3858.959	2910
3860.582	2903
3862.205	2899
3863.827	2954
3865.449	2925
3867.07	2919
3868.691	2913
3870.312	2912
3871.933	2867
3873.553	2947
3875.173	2896
3876.792	2854
3878.411	2868
3880.03	2894
3881.647	2863
3883.265	2939
3884.882	2858
3886.499	2849
3888.116	2832
3889.732	2831
3891.348	2857
3892.964	2912
3894.579	2817
3896.195	2906
3897.809	2860
3899.423	2867
3901.036	2854
3902.648	2896
3904.261	2890
3905.875	2926
3907.487	2807
3909.099	2831
3910.709	2836
3912.321	2793
3913.933	2802
3915.542	2828
3917.152	2822
3918.762	2866
3920.37	2882
3921.98	2778
3923.589	2940
3925.196	2820
3926.804	2844
3928.41	2875
3930.018	2787
3931.626	2867
3933.231	2764
3934.838	2799
3936.442	2863
3938.046	2789
3939.653	2852
3941.257	2798
3942.861	2847
3944.464	2784
3946.068	2824
3947.67	2827
3949.273	2768
3950.876	2851
3952.477	2765
3954.078	2790
3955.678	2800
3957.281	2774
3958.881	2760
3960.48	2773
3962.079	2831
3963.678	2822
3965.279	2811
3966.877	2785
3968.475	2798
3970.072	2787
3971.669	2741
3973.266	2770
3974.864	2727
3976.459	2770
3978.055	2756
3979.65	2771
3981.245	2661
3982.841	2759
3984.436	2782
3986.03	2670
3987.623	2740
3989.216	2761
3990.809	2690
3992.403	2788
3993.995	2750
3995.586	2774
3997.177	2714
3998.768	2629
4000.361	2713
4001.951	2624
4003.54	2746
4005.13	2719
4006.719	2658
4008.31	2673
4009.897	2673
4011.485	2666
4013.073	2645
4014.66	2660
4016.247	2631
4017.834	2636
4019.421	2715
4021.006	2658
4022.592	2692
4024.178	2633
4025.763	2586
4027.348	2578
4028.932	2709
4030.515	2650
4032.099	2613
4033.682	2588
4035.266	2648
4036.847	2634
4038.429	2616
4040.011	2569
4041.592	2659
4043.173	2645
4044.755	2622
4046.334	2632
4047.913	2611
4049.494	2654
4051.074	2581
4052.652	2555
4054.23	2624
4055.807	2693
4057.385	2594
4058.963	2571
4060.541	2580
4062.117	2560
4063.693	2561
4065.269	2545
4066.844	2588
4068.42	2595
4069.995	2613
4071.569	2572
4073.143	2576
4074.716	2601
4076.291	2543
4077.864	2531
4079.436	2524
4081.009	2538
4082.58	2591
4084.152	2546
4085.723	2535
4087.294	2518
4088.865	2584
4090.435	2586
4092.005	2538
4093.574	2540
4095.143	2548
4096.712	2551
4098.279	2574
4099.848	2573
4101.416	2588
4102.984	2554
4104.55	2499
4106.117	2522
4107.682	2527
4109.248	2553
4110.815	2492
4112.379	2508
4113.945	2508
4115.508	2544
4117.073	2519
4118.637	2483
4120.201	2482
4121.763	2456
4123.325	2453
4124.888	2510
4126.449	2495
4128.013	2538
4129.573	2491
4131.133	2469
4132.694	2471
4134.254	2481
4135.814	2435
4137.374	2499
4138.933	2445
4140.491	2497
4142.049	2507
4143.607	2476
4145.167	2447
4146.724	2443
4148.28	2475
4149.836	2477
4151.392	2468
4152.949	2482
4154.504	2471
4156.059	2432
4157.614	2398
4159.168	2420
4160.723	2456
4162.277	2417
4163.83	2445
4165.383	2432
4166.936	2391
4168.488	2491
4170.041	2441
4171.593	2402
4173.144	2418
4174.695	2520
4176.246	2427
4177.796	2379
4179.346	2299
4180.896	2452
4182.445	2391
4183.994	2368
4185.542	2385
4187.091	2337
4188.639	2378
4190.185	2357
4191.732	2348
4193.279	2342
4194.826	2387
4196.373	2343
4197.918	2339
4199.463	2315
4201.008	2361
4202.553	2388
4204.098	2335
4205.641	2364
4207.185	2338
4208.728	2340
4210.271	2394
4211.814	2387
4213.357	2417
4214.898	2350
4216.439	2371
4217.98	2335
4219.522	2348
4221.062	2332
4222.603	2324
4224.142	2307
4225.681	2328
4227.222	2347
4228.76	2238
4230.298	2364
4231.835	2315
4233.373	2373
4234.911	2299
4236.449	2346
4237.985	2311
4239.521	2297
4241.057	2359
4242.592	2254
4244.128	2282
4245.663	2288
4247.197	2275
4248.731	2377
4250.265	2276
4251.798	2309
4253.333	2312
4254.865	2265
4256.397	2337
4257.93	2365
4259.461	2336
4260.994	2286
4262.525	2301
4264.056	2298
4265.586	2290
4267.115	2248
4268.646	2276
4270.176	2247
4271.705	2282
4273.232	2320
4274.761	2230
4276.289	2340
4277.818	2241
4279.345	2271
4280.872	2244
4282.399	2310
4283.924	2229
4285.452	2290
4286.976	2298
4288.502	2235
4290.026	2228
4291.551	2260
4293.074	2252
4294.6	2255
4296.123	2254
4297.646	2302
4299.168	2175
4300.691	2232
4302.214	2251
4303.736	2215
4305.257	2239
4306.778	2260
4308.299	2195
4309.82	2246
4311.34	2178
4312.86	2241
4314.379	2199
