400.0745	3965
402.597	3983
405.1208	3857
407.6419	3884
410.1623	4019
412.6819	3978
415.201	3914
417.7172	4019
420.2369	4053
422.7538	4076
425.2701	4060
427.7856	4116
430.3005	4142
432.8147	4185
435.3282	4062
437.841	4108
440.3511	4150
442.8625	4162
445.3753	4274
447.8854	4180
450.3927	4231
452.9014	4168
455.4073	4180
457.9146	4220
460.4233	4149
462.9272	4216
465.4325	4116
467.935	4236
470.4389	4220
472.9421	4171
475.4446	4270
477.9444	4114
480.4456	4150
482.944	4264
485.4417	4299
487.9429	4338
490.4393	4346
492.935	4263
495.4321	4312
497.9264	4334
500.4221	4230
502.9171	4416
505.4094	4280
507.9011	4342
510.392	4379
512.8864	4430
515.3759	4371
517.8649	4389
520.3531	4361
522.8406	4451
525.3275	4481
527.8178	4350
530.3033	4398
532.7881	4426
535.2723	4441
537.7558	4451
540.2407	4332
542.7228	4325
545.2043	4410
547.6851	4415
550.1652	4459
552.6467	4375
555.1255	4415
557.6016	4370
560.079	4490
562.5557	4430
565.0318	4380
567.5092	4401
569.984	4430
572.456	4486
574.9294	4498
577.4022	4534
579.8762	4501
582.3456	4609
584.8163	4525
587.2863	4509
589.7557	4476
592.2224	4703
594.6924	4552
597.1578	4556
599.6245	4545
602.0905	4587
604.5538	4676
607.0206	4496
609.4825	4552
611.9459	4630
614.4066	4566
616.8686	4532
619.33	4553
621.7906	4547
624.2487	4536
626.708	4572
629.1647	4517
631.6207	4441
634.0801	4579
636.5348	4585
638.9888	4506
641.4442	4590
643.8969	4510
646.3509	4554
648.8022	4552
651.255	4541
653.705	4513
656.1544	4545
658.6031	4658
661.0532	4635
663.5026	4627
665.9493	4633
668.3954	4620
670.8409	4640
673.2877	4607
675.7318	4627
678.1752	4693
680.618	4655
683.0601	4654
685.5035	4755
687.9444	4742
690.3845	4633
692.824	4736
695.2628	4759
697.701	4774
700.1406	4715
702.5774	4763
705.0116	4690
707.4472	4684
709.8821	4822
712.3183	4757
714.7519	4770
717.1829	4788
719.6151	4784
722.0468	4790
724.4777	4732
726.908	4873
729.3377	4885
731.7667	4884
734.1931	4854
736.6208	4864
739.0498	4855
741.4742	4976
743.9	4966
746.3231	4885
748.7476	4911
751.1713	4972
753.5945	5001
756.015	4997
758.4368	4974
760.856	4975
763.2766	5127
765.6965	5076
768.1157	4972
770.5323	5129
772.9483	5092
775.3656	5020
777.7822	4956
780.1963	5096
782.6116	4999
785.0244	5090
787.4365	5052
789.8499	5005
792.2626	5049
794.6728	5079
797.0823	5068
799.4911	5106
801.8994	4956
804.3109	5123
806.7178	5176
809.124	5030
811.5297	5012
813.9347	5084
816.341	5165
818.7447	5062
821.1478	5106
823.5502	5121
825.952	5191
828.3531	4993
830.7556	5042
833.1554	5051
835.5546	5176
837.9532	5168
840.3511	5190
842.7504	5226
845.1451	5179
847.5411	5193
849.9365	5174
852.3312	5217
854.7272	5145
857.1187	5237
859.5115	5138
861.9037	5182
864.2952	5187
866.6842	5246
869.0764	5176
871.4661	5214
873.8531	5215
876.2415	5112
878.6272	5161
881.0162	5134
883.4026	5129
885.7866	5159
888.1717	5193
890.5543	5140
892.9382	5168
895.3215	5147
897.7041	5233
900.0842	5085
902.4655	5220
904.8443	5275
907.2244	5186
909.6039	5359
911.9808	5278
914.357	5230
916.7346	5291
919.1115	5269
921.4859	5353
923.8616	5370
926.2347	5346
928.6071	5439
930.979	5421
933.3541	5428
935.7247	5436
938.0946	5442
940.4639	5481
942.8326	5515
945.2026	5549
947.5701	5670
949.9369	5652
952.305	5729
954.6705	5842
957.0355	5924
959.4017	6046
961.7654	6147
964.1284	6166
966.4908	6040
968.8527	5956
971.2138	5799
973.5743	5672
975.9343	5587
978.2936	5467
980.6522	5426
983.0122	5384
985.3696	5419
987.7245	5356
990.0807	5430
992.4362	5288
994.7911	5435
997.1474	5398
999.4991	5442
1001.852	5399
1004.205	5486
1006.555	5387
1008.908	5422
1011.258	5428
1013.606	5373
1015.956	5433
1018.302	5283
1020.652	5398
1022.998	5347
1025.345	5406
1027.691	5420
1030.035	5436
1032.378	5488
1034.724	5428
1037.066	5495
1039.409	5404
1041.75	5413
1044.092	5496
1046.433	5460
1048.771	5455
1051.112	5523
1053.449	5526
1055.786	5512
1058.124	5413
1060.462	5502
1062.797	5506
1065.131	5595
1067.467	5486
1069.8	5526
1072.135	5588
1074.467	5628
1076.798	5566
1079.129	5556
1081.459	5523
1083.792	5552
1086.121	5417
1088.449	5486
1090.777	5494
1093.104	5560
1095.431	5604
1097.759	5474
1100.084	5608
1102.408	5509
1104.732	5517
1107.056	5545
1109.379	5515
1111.701	5534
1114.022	5453
1116.343	5571
1118.664	5392
1120.983	5639
1123.303	5573
1125.621	5526
1127.939	5561
1130.256	5552
1132.573	5513
1134.889	5576
1137.205	5614
1139.52	5621
1141.832	5482
1144.146	5567
1146.461	5496
1148.771	5533
1151.083	5454
1153.392	5644
1155.703	5629
1158.011	5639
1160.323	5688
1162.629	5561
1164.938	5506
1167.243	5610
1169.55	5518
1171.857	5526
1174.163	5582
1176.466	5585
1178.769	5618
1181.073	5533
1183.374	5557
1185.677	5587
1187.979	5539
1190.279	5541
1192.578	5655
1194.878	5443
1197.178	5614
1199.476	5534
1201.772	5585
1204.068	5482
1206.366	5559
1208.663	5514
1210.957	5571
1213.251	5580
1215.544	5555
1217.836	5667
1220.128	5671
1222.421	5591
1224.712	5732
1227.002	5639
1229.292	5660
1231.581	5578
1233.871	5666
1236.159	5704
1238.446	5634
1240.732	5760
1243.018	5704
1245.304	5707
1247.59	5724
1249.874	5743
1252.156	5618
1254.439	5711
1256.721	5777
1259.005	5768
1261.286	5736
1263.565	5705
1265.845	5878
1268.125	5799
1270.403	5768
1272.682	5757
1274.959	5720
1277.234	5782
1279.511	5749
1281.787	5692
1284.062	5659
1286.337	5727
1288.609	5695
1290.882	5656
1293.153	5634
1295.428	5747
1297.698	5729
1299.969	5605
1302.237	5724
1304.507	5606
1306.777	5753
1309.044	5607
1311.312	5671
1313.578	5603
1315.844	5719
1318.109	5691
1320.375	5798
1322.638	5566
1324.903	5584
1327.165	5795
1329.427	5670
1331.69	5774
1333.952	5614
1336.212	5622
1338.471	5702
1340.73	5664
1342.988	5646
1345.248	5720
1347.505	5768
1349.763	5708
1352.019	5637
1354.274	5720
1356.53	5626
1358.784	5676
1361.038	5621
1363.291	5754
1365.543	5631
1367.797	5711
1370.048	5732
1372.296	5682
1374.546	5717
1376.796	5765
1379.045	5669
1381.295	5700
1383.542	5659
1385.787	5625
1388.034	5762
1390.28	5766
1392.527	5769
1394.772	5839
1397.014	5713
1399.258	5763
1401.501	5764
1403.741	5727
1405.985	5830
1408.226	5772
1410.465	5767
1412.705	5868
1414.943	5812
1417.184	5752
1419.42	5779
1421.658	5839
1423.894	5838
1426.13	5847
1428.366	5871
1430.602	5753
1432.835	5892
1435.069	5900
1437.301	5955
1439.535	5765
1441.767	5897
1443.997	5814
1446.229	5764
1448.458	5833
1450.687	5899
1452.916	5898
1455.146	5950
1457.372	5905
1459.599	5830
1461.824	5910
1464.051	5986
1466.277	5896
1468.501	5940
1470.725	5866
1472.948	5868
1475.17	5852
1477.393	5863
1479.614	5834
1481.837	5562
1484.057	5774
1486.276	5758
1488.497	5778
1490.715	5758
1492.932	5853
1495.148	5744
1497.364	5723
1499.58	5814
1501.798	5666
1504.012	5695
1506.227	5753
1508.44	5721
1510.653	5738
1512.866	5738
1515.078	5556
1517.289	5702
1519.5	5692
1521.711	5760
1523.92	5725
1526.13	5505
1528.338	5736
1530.544	5679
1532.752	5729
1534.959	5741
1537.165	5693
1539.371	5817
1541.574	5769
1543.779	5887
1545.983	5752
1548.187	5841
1550.39	5690
1552.59	5829
1554.792	5772
1556.991	5738
1559.19	5682
1561.392	5785
1563.59	5773
1565.789	5865
1567.986	5831
1570.182	5834
1572.381	5756
1574.576	5784
1576.771	5756
1578.966	5828
1581.16	5699
1583.354	5850
1585.546	5790
1587.74	5843
1589.931	5821
1592.121	5886
1594.311	5809
1596.502	5923
1598.693	5908
1600.881	5822
1603.069	5909
1605.256	5850
1607.445	5839
1609.631	5936
1611.816	5903
1614.001	5964
1616.186	5925
1618.37	5956
1620.555	5855
1622.737	5942
1624.919	5971
1627.101	5906
1629.282	5890
1631.463	5855
1633.643	5865
1635.822	5959
1638.001	5908
1640.179	5881
1642.359	5963
1644.534	5928
1646.711	5959
1648.887	5913
1651.062	6094
1653.235	5986
1655.412	5975
1657.586	6007
1659.757	6012
1661.93	5970
1664.1	5900
1666.274	6088
1668.445	5920
1670.614	5993
1672.784	5990
1674.951	5998
1677.12	5942
1679.289	6039
1681.457	5947
1683.622	6014
1685.789	5992
1687.953	6028
1690.121	5970
1692.284	5847
1694.447	5831
1696.611	5903
1698.772	5916
1700.935	5845
1703.098	5837
1705.258	5895
1707.417	5755
1709.576	6003
1711.736	5919
1713.896	5927
1716.053	5837
1718.21	5859
1720.366	5834
1722.522	5858
1724.68	5745
1726.835	5907
1728.989	5857
1731.142	5872
1733.295	5849
1735.449	5897
1737.601	5808
1739.753	5799
1741.903	5913
1744.054	5787
1746.203	5816
1748.354	5866
1750.503	5931
1752.651	5948
1754.798	5948
1756.944	5970
1759.092	5930
1761.238	5927
1763.383	5905
1765.528	5931
1767.672	5887
1769.814	5912
1771.959	5854
1774.102	5930
1776.242	5894
1778.384	5899
1780.525	5981
1782.665	5880
1784.805	5938
1786.945	5933
1789.082	5875
1791.22	5997
1793.36	5865
1795.495	5945
1797.632	5906
1799.766	5900
1801.902	5927
1804.035	5975
1806.172	5858
1808.304	5923
1810.436	5982
1812.569	5951
1814.699	6054
1816.833	5987
1818.963	5873
1821.092	5890
1823.222	5897
1825.35	5908
1827.478	5899
1829.608	5899
1831.734	6015
1833.86	5913
1835.986	5931
1838.11	5839
1840.238	5941
1842.362	5946
1844.485	5857
1846.608	5846
1848.73	5741
1850.853	5973
1852.974	5847
1855.097	5759
1857.217	5869
1859.336	5906
1861.455	5932
1863.576	5842
1865.693	5850
1867.811	5816
1869.926	5872
1872.042	5737
1874.16	5909
1876.275	5943
1878.39	5775
1880.504	5846
1882.618	5971
1884.731	5894
1886.843	5903
1888.956	5879
1891.067	5927
1893.178	5979
1895.287	5955
1897.399	5838
1899.508	5984
1901.617	5892
1903.724	5838
1905.832	6007
1907.941	6002
1910.046	5939
1912.152	5896
1914.256	5901
1916.361	5903
1918.464	5862
1920.57	5937
1922.672	5986
1924.775	5833
1926.876	5934
1928.978	5920
1931.08	5998
1933.181	5966
1935.28	6001
1937.38	5986
1939.478	5957
1941.577	6011
1943.675	5998
1945.771	5939
1947.867	6034
1949.964	6050
1952.058	5971
1954.154	6038
1956.248	5933
1958.343	5971
1960.435	5863
1962.527	5983
1964.62	5940
1966.711	5948
1968.802	5990
1970.892	5879
1972.983	5990
1975.072	6029
1977.162	5900
1979.25	5867
1981.337	5890
1983.424	5894
1985.51	5897
1987.598	5915
1989.683	5761
1991.768	5928
1993.852	5924
1995.934	5919
1998.019	5838
2000.102	5984
2002.184	5929
2004.266	5846
2006.347	5878
2008.427	5897
2010.508	5924
2012.587	5894
2014.666	5935
2016.745	5962
2018.821	5827
2020.9	5855
2022.977	5862
2025.052	5864
2027.128	5836
2029.204	5798
2031.277	5835
2033.353	5819
2035.425	5802
2037.499	5945
2039.57	5810
2041.642	5969
2043.714	5787
2045.786	5913
2047.855	5891
2049.925	5929
2051.993	5968
2054.064	5904
2056.132	5818
2058.2	5927
2060.266	5890
2062.332	5911
2064.398	5887
2066.465	5947
2068.529	5931
2070.592	5839
2072.657	5948
2074.719	5839
2076.783	5841
2078.845	5833
2080.907	5912
2082.968	5812
2085.028	6009
2087.087	5935
2089.148	5803
2091.207	5874
2093.264	5889
2095.322	5872
2097.379	5868
2099.439	5847
2101.495	5854
2103.55	5905
2105.605	5824
2107.658	5877
2109.713	5870
2111.767	5869
2113.82	5898
2115.872	5855
2117.924	5891
2119.975	5995
2122.028	5882
2124.078	5948
2126.126	5904
2128.176	5859
2130.225	5816
2132.275	5859
2134.321	5855
2136.368	5890
2138.415	5949
2140.461	5811
2142.505	5854
2144.552	5908
2146.597	5823
2148.64	5799
2150.684	5891
2152.725	5885
2154.77	5838
2156.811	5935
2158.852	5929
2160.894	5795
2162.933	5720
2164.973	5837
2167.013	5858
2169.051	5813
2171.089	5722
2173.126	5736
2175.164	5810
2177.201	5837
2179.236	5718
2181.273	5757
2183.307	5784
2185.341	5800
2187.377	5753
2189.41	5767
2191.442	5720
2193.473	5798
2195.506	5845
2197.539	5785
2199.569	5777
2201.598	5692
2203.628	5748
2205.656	5906
2207.686	5776
2209.716	5761
2211.743	5760
2213.769	5787
2215.796	5813
2217.821	5775
2219.848	5692
2221.873	5778
2223.897	5757
2225.921	5774
2227.944	5641
2229.967	5749
2231.991	5750
2234.011	5764
2236.032	5693
2238.053	5661
2240.073	5724
2242.094	5648
2244.114	5647
2246.131	5688
2248.149	5722
2250.167	5582
2252.186	5706
2254.201	5744
2256.218	5805
2258.233	5672
2260.247	5680
2262.262	5797
2264.278	5659
2266.29	5641
2268.303	5735
2270.315	5567
2272.327	5764
2274.341	5775
2276.35	5691
2278.361	5699
2280.37	5725
2282.38	5777
2284.388	5723
2286.397	5742
2288.405	5686
2290.412	5651
2292.419	5689
2294.425	5770
2296.431	5688
2298.437	5754
2300.441	5655
2302.445	5618
2304.449	5722
2306.453	5710
2308.455	5603
2310.457	5641
2312.459	5720
2314.46	5625
2316.46	5679
2318.461	5584
2320.46	5584
2322.458	5698
2324.458	5648
2326.456	5726
2328.455	5662
2330.451	5718
2332.447	5687
2334.443	5616
2336.438	5628
2338.433	5643
2340.429	5636
2342.422	5642
2344.416	5637
2346.408	5531
2348.399	5563
2350.393	5616
2352.384	5603
2354.375	5542
2356.365	5446
2358.355	5559
2360.344	5624
2362.333	5568
2364.322	5552
2366.309	5522
2368.295	5629
2370.282	5565
2372.27	5480
2374.256	5616
2376.24	5567
2378.225	5524
2380.208	5572
2382.194	5579
2384.177	5491
2386.159	5606
2388.142	5493
2390.122	5492
2392.105	5483
2394.085	5489
2396.066	5512
2398.044	5554
2400.024	5428
2402.002	5570
2403.982	5474
2405.959	5506
2407.935	5500
2409.913	5429
2411.888	5448
2413.865	5510
2415.84	5424
2417.814	5525
2419.788	5481
2421.762	5514
2423.735	5479
2425.708	5450
2427.68	5542
2429.651	5561
2431.623	5461
2433.593	5516
2435.564	5463
2437.533	5441
2439.502	5483
2441.47	5500
2443.438	5547
2445.406	5493
2447.373	5513
2449.34	5609
2451.305	5460
2453.271	5435
2455.235	5465
2457.201	5442
2459.165	5337
2461.129	5406
2463.092	5430
2465.054	5464
2467.018	5390
2468.978	5360
2470.939	5415
2472.899	5466
2474.86	5420
2476.819	5414
2478.778	5410
2480.737	5414
2482.695	5296
2484.653	5445
2486.609	5320
2488.567	5391
2490.524	5383
2492.478	5316
2494.433	5472
2496.387	5393
2498.343	5323
2500.297	5424
2502.249	5331
2504.202	5420
2506.153	5320
2508.105	5380
2510.057	5354
2512.008	5351
2513.957	5491
2515.906	5433
2517.855	5360
2519.805	5405
2521.754	5374
2523.7	5388
2525.647	5329
2527.594	5327
2529.54	5359
2531.486	5281
2533.431	5399
2535.376	5384
2537.32	5289
2539.263	5399
2541.207	5401
2543.151	5282
2545.093	5297
2547.034	5340
2548.975	5355
2550.917	5322
2552.856	5395
2554.796	5292
2556.735	5284
2558.673	5358
2560.611	5257
2562.55	5318
2564.487	5428
2566.424	5383
2568.36	5329
2570.296	5365
2572.232	5326
2574.167	5388
2576.101	5352
2578.035	5291
2579.969	5348
2581.902	5330
2583.834	5368
2585.766	5401
2587.698	5237
2589.628	5310
2591.557	5360
2593.489	5351
2595.419	5284
2597.348	5315
2599.275	5401
2601.204	5358
2603.131	5360
2605.059	5389
2606.986	5353
2608.911	5346
2610.837	5311
2612.76	5312
2614.687	5399
2616.61	5380
2618.534	5328
2620.457	5315
2622.38	5235
2624.302	5378
2626.225	5237
2628.145	5289
2630.067	5344
2631.986	5412
2633.906	5297
2635.827	5420
2637.745	5341
2639.662	5356
2641.581	5329
2643.498	5330
2645.415	5299
2647.331	5304
2649.248	5321
2651.163	5376
2653.077	5281
2654.993	5325
2656.906	5437
2658.821	5258
2660.733	5389
2662.646	5272
2664.557	5291
2666.47	5388
2668.381	5281
2670.291	5290
2672.201	5279
2674.11	5311
2676.021	5328
2677.929	5299
2679.837	5289
2681.745	5181
2683.652	5340
2685.56	5298
2687.466	5286
2689.371	5235
2691.276	5310
2693.181	5254
2695.085	5190
2696.991	5343
2698.893	5287
2700.796	5286
2702.698	5157
2704.601	5259
2706.502	5220
2708.404	5192
2710.304	5319
2712.203	5329
2714.103	5188
2716.003	5169
2717.902	5183
2719.8	5083
2721.697	5171
2723.594	5143
2725.49	5161
2727.389	5183
2729.283	5264
2731.179	5235
2733.073	5155
2734.968	5252
2736.863	5170
2738.757	5262
2740.649	5212
2742.541	5198
2744.433	5194
2746.324	5163
2748.216	5322
2750.107	5127
2751.997	5176
2753.886	5155
2755.776	5061
2757.666	5182
2759.553	5096
2761.44	5150
2763.327	5084
2765.215	5145
2767.102	5122
2768.988	5076
2770.873	5040
2772.757	5108
2774.641	5133
2776.525	5115
2778.41	5148
2780.292	5170
2782.175	5116
2784.057	5235
2785.938	5061
2787.821	5208
2789.701	5191
2791.581	5172
2793.461	5069
2795.34	5111
2797.219	4994
2799.099	5001
2800.975	5136
2802.853	5161
2804.73	5067
2806.606	5052
2808.484	5125
2810.358	5045
2812.233	5047
2814.108	5122
2815.981	5155
2817.857	5193
2819.73	5000
2821.602	5059
2823.474	5145
2825.346	5092
2827.217	5107
2829.089	5101
2830.959	5062
2832.829	5115
2834.698	5070
2836.567	5004
2838.436	5106
2840.305	5079
2842.172	5098
2844.04	5112
2845.905	5099
2847.772	5086
2849.639	5154
2851.503	5081
2853.369	5095
2855.232	5100
2857.096	5129
2858.961	5090
2860.824	5074
2862.686	5096
2864.547	5064
2866.41	5169
2868.272	5138
2870.132	5225
2871.992	5184
2873.851	5223
2875.711	5152
2877.57	5212
2879.429	5155
2881.287	5266
2883.144	5314
2885.001	5381
2886.857	5239
2888.714	5333
2890.57	5323
2892.425	5369
2894.279	5235
2896.133	5326
2897.987	5255
2899.842	5299
2901.694	5244
2903.547	5321
2905.397	5262
2907.249	5335
2909.101	5363
2910.952	5335
2912.802	5286
2914.652	5417
2916.5	5333
2918.35	5386
2920.198	5411
2922.045	5465
2923.893	5488
2925.74	5492
2927.585	5511
2929.433	5510
2931.279	5543
2933.123	5506
2934.968	5519
2936.811	5534
2938.656	5632
2940.5	5625
2942.342	5577
2944.185	5602
2946.026	5701
2947.87	5727
2949.71	5639
2951.549	5629
2953.39	5644
2955.229	5591
2957.069	5704
2958.908	5623
2960.746	5625
2962.584	5457
2964.421	5367
2966.257	5493
2968.094	5490
2969.931	5448
2971.766	5359
2973.601	5380
2975.435	5340
2977.27	5347
2979.105	5317
2980.938	5292
2982.77	5239
2984.602	5332
2986.434	5229
2988.267	5205
2990.097	5158
2991.927	5170
2993.757	5191
2995.587	5016
2997.417	5061
2999.246	5201
3001.074	4992
3002.902	5042
3004.729	4922
3006.556	5006
3008.384	4930
3010.21	4970
3012.036	4908
3013.861	4971
3015.684	4972
3017.51	4872
3019.334	4918
3021.157	4885
3022.981	4895
3024.802	4845
3026.624	4850
3028.448	4818
3030.267	4819
3032.088	4707
3033.909	4782
3035.728	4806
3037.549	4718
3039.368	4793
3041.186	4749
3043.004	4762
3044.821	4765
3046.64	4661
3048.455	4790
3050.272	4675
3052.087	4728
3053.903	4723
3055.717	4815
3057.534	4851
3059.347	4739
3061.16	4725
3062.974	4717
3064.785	4709
3066.598	4827
3068.411	4787
3070.222	4800
3072.032	4777
3073.844	4722
3075.653	4629
3077.463	4655
3079.272	4652
3081.08	4625
3082.889	4747
3084.697	4588
3086.505	4639
3088.312	4642
3090.118	4616
3091.924	4611
3093.729	4661
3095.535	4659
3097.34	4631
3099.144	4553
3100.947	4638
3102.75	4577
3104.553	4631
3106.357	4563
3108.159	4513
3109.961	4520
3111.762	4600
3113.562	4650
3115.365	4514
3117.164	4505
3118.964	4475
3120.761	4586
3122.56	4508
3124.36	4543
3126.158	4503
3127.954	4614
3129.75	4475
3131.547	4580
3133.343	4527
3135.139	4572
3136.934	4442
3138.729	4512
3140.522	4368
3142.317	4538
3144.11	4546
3145.904	4525
3147.695	4534
3149.488	4518
3151.28	4441
3153.07	4512
3154.863	4549
3156.652	4450
3158.441	4441
3160.231	4414
3162.019	4384
3163.81	4468
3165.597	4468
3167.384	4503
3169.172	4419
3170.958	4473
3172.745	4388
3174.532	4401
3176.317	4421
3178.101	4422
3179.885	4415
3181.67	4483
3183.455	4313
3185.238	4365
3187.02	4379
3188.802	4384
3190.585	4411
3192.368	4364
3194.149	4387
3195.929	4375
3197.709	4369
3199.489	4320
3201.268	4360
3203.048	4397
3204.826	4410
3206.604	4347
3208.382	4367
3210.159	4323
3211.937	4349
3213.713	4318
3215.489	4354
3217.263	4313
3219.038	4405
3220.815	4270
3222.589	4382
3224.363	4285
3226.136	4375
3227.908	4376
3229.681	4319
3231.454	4359
3233.226	4328
3234.996	4379
3236.767	4338
3238.538	4409
3240.308	4319
3242.078	4342
3243.847	4329
3245.615	4349
3247.384	4331
3249.15	4330
3250.92	4287
3252.686	4335
3254.453	4338
3256.218	4278
3257.984	4264
3259.75	4401
3261.515	4290
3263.279	4373
3265.044	4281
3266.806	4249
3268.57	4327
3270.334	4247
3272.095	4362
3273.856	4366
3275.619	4355
3277.379	4276
3279.14	4353
3280.9	4310
3282.661	4357
3284.419	4249
3286.178	4292
3287.937	4348
3289.695	4295
3291.453	4292
3293.21	4357
3294.967	4242
3296.723	4292
3298.48	4315
3300.235	4233
3301.99	4392
3303.744	4234
3305.498	4265
3307.253	4242
3309.006	4275
3310.759	4274
3312.511	4313
3314.263	4283
3316.017	4307
3317.768	4182
3319.519	4372
3321.268	4240
3323.018	4336
3324.767	4253
3326.518	4258
3328.267	4281
3330.014	4251
3331.762	4219
3333.509	4285
3335.258	4353
3337.003	4187
3338.75	4230
3340.496	4168
3342.24	4252
3343.987	4298
3345.732	4098
3347.475	4233
3349.219	4209
3350.961	4152
3352.705	4229
3354.448	4231
3356.19	4257
3357.931	4129
3359.672	4140
3361.412	4245
3363.155	4175
3364.894	4231
3366.633	4172
3368.372	4217
3370.11	4128
3371.849	4145
3373.588	4165
3375.325	4155
3377.061	4139
3378.799	4180
3380.534	4191
3382.271	4099
3384.006	4164
3385.741	4083
3387.475	4092
3389.209	4144
3390.944	4113
3392.677	4182
3394.409	4111
3396.143	4182
3397.874	4232
3399.606	4085
3401.338	4173
3403.069	4177
3404.799	4025
3406.528	4095
3408.258	4088
3409.988	4179
3411.717	3978
3413.445	4149
3415.173	4147
3416.899	4048
3418.626	4062
3420.354	4111
3422.08	4118
3423.806	4098
3425.531	4099
3427.255	4058
3428.981	4071
3430.705	4055
3432.429	4120
3434.151	4010
3435.875	4046
3437.599	4113
3439.321	4059
3441.042	4071
3442.763	4027
3444.483	4017
3446.204	4006
3447.926	3976
3449.645	4028
3451.364	4006
3453.082	3964
3454.801	4006
3456.52	4038
3458.238	3983
3459.954	3965
3461.671	3998
3463.387	4005
3465.104	3926
3466.82	3984
3468.534	4095
3470.25	4011
3471.963	3940
3473.676	3996
3475.392	3922
3477.104	3981
3478.817	3902
3480.528	3863
3482.241	3965
3483.954	3858
3485.664	3942
3487.374	3934
3489.084	3898
3490.795	3884
3492.504	3861
3494.214	3931
3495.922	3911
3497.63	3882
3499.338	3877
3501.045	3915
3502.753	3832
3504.459	3872
3506.166	3921
3507.871	3819
3509.576	3838
3511.283	3800
3512.987	3873
3514.691	3801
3516.395	3782
3518.098	3825
3519.8	3777
3521.504	3807
3523.206	3854
3524.908	3875
3526.609	3905
3528.309	3740
3530.011	3900
3531.711	3835
3533.411	3820
3535.109	3829
3536.808	3918
3538.507	3712
3540.206	3857
3541.904	3822
3543.601	3868
3545.297	3763
3546.994	3711
3548.69	3756
3550.387	3829
3552.081	3787
3553.776	3804
3555.47	3805
3557.166	3763
3558.859	3709
3560.553	3793
3562.245	3776
3563.938	3779
3565.629	3696
3567.322	3704
3569.014	3773
3570.704	3670
3572.394	3783
3574.084	3836
3575.775	3723
3577.464	3740
3579.152	3714
3580.842	3705
3582.529	3727
3584.216	3706
3585.905	3676
3587.591	3660
3589.279	3636
3590.964	3677
3592.649	3728
3594.336	3775
3596.021	3781
3597.705	3661
3599.388	3684
3601.072	3598
3602.757	3566
3604.439	3653
3606.122	3673
3607.803	3564
3609.485	3568
3611.167	3613
3612.849	3692
3614.529	3637
3616.208	3648
3617.888	3538
3619.567	3593
3621.247	3660
3622.926	3511
3624.603	3513
3626.281	3530
3627.958	3619
3629.635	3591
3631.312	3655
3632.989	3543
3634.665	3602
3636.339	3482
3638.014	3553
3639.691	3522
3641.364	3537
3643.038	3526
3644.71	3527
3646.384	3449
3648.058	3489
3649.729	3535
3651.402	3517
3653.073	3581
3654.744	3474
3656.414	3482
3658.085	3495
3659.755	3460
3661.424	3545
3663.094	3493
3664.762	3507
3666.431	3514
3668.099	3447
3669.766	3522
3671.433	3508
3673.099	3503
3674.768	3457
3676.433	3514
3678.098	3457
3679.763	3481
3681.428	3455
3683.093	3562
3684.757	3358
3686.421	3423
3688.083	3480
3689.746	3378
3691.408	3514
3693.071	3410
3694.733	3476
3696.394	3453
3698.054	3461
3699.715	3424
3701.375	3451
3703.036	3453
3704.695	3363
3706.354	3413
3708.012	3481
3709.67	3435
3711.329	3464
3712.987	3350
3714.644	3540
3716.299	3449
3717.955	3364
3719.613	3396
3721.268	3478
3722.923	3410
3724.577	3492
3726.231	3449
3727.885	3383
3729.539	3445
3731.192	3405
3732.845	3373
3734.497	3402
3736.149	3402
3737.802	3346
3739.453	3416
3741.104	3361
3742.753	3362
3744.404	3339
3746.052	3395
3747.704	3329
3749.352	3392
3751	3321
3752.648	3379
3754.296	3326
3755.944	3317
3757.59	3342
3759.238	3354
3760.883	3421
3762.528	3403
3764.176	3321
3765.82	3345
3767.464	3305
3769.109	3318
3770.753	3342
3772.396	3336
3774.04	3242
3775.683	3322
3777.325	3330
3778.967	3333
3780.608	3289
3782.25	3339
3783.89	3273
3785.531	3268
3787.17	3352
3788.81	3239
3790.45	3245
3792.09	3251
3793.729	3301
3795.366	3273
3797.003	3328
3798.64	3341
3800.278	3210
3801.915	3288
3803.551	3209
3805.187	3228
3806.822	3278
3808.458	3292
3810.093	3246
3811.726	3236
3813.36	3297
3814.994	3270
3816.627	3183
3818.262	3306
3819.893	3217
3821.525	3226
3823.157	3196
3824.787	3204
3826.42	3190
3828.051	3209
3829.68	3135
3831.31	3192
3832.938	3165
3834.569	3142
3836.198	3177
3837.825	3192
3839.454	3132
3841.08	3249
3842.708	3171
3844.335	3240
3845.962	3126
3847.587	3185
3849.212	3115
3850.838	3136
3852.463	3170
3854.089	3147
3855.712	3160
3857.335	3128
3858.959	3179
3860.582	3204
3862.205	3129
3863.827	3161
3865.449	3111
3867.07	3180
3868.691	3085
3870.312	3224
3871.933	3096
3873.553	3176
3875.173	3116
3876.792	3129
3878.411	3149
3880.03	3073
3881.647	3123
3883.265	3137
3884.882	3107
3886.499	3095
3888.116	3089
3889.732	3116
3891.348	3180
3892.964	3062
3894.579	3057
3896.195	3101
3897.809	3053
3899.423	3120
3901.036	3032
3902.648	2983
3904.261	3030
3905.875	3029
3907.487	3108
3909.099	3046
3910.709	3135
3912.321	3085
3913.933	3123
3915.542	3102
3917.152	3109
3918.762	2973
3920.37	3162
3921.98	3112
3923.589	3035
3925.196	3096
3926.804	3065
3928.41	3081
3930.018	3132
3931.626	3063
3933.231	3017
3934.838	3081
3936.442	2995
3938.046	3045
3939.653	2954
3941.257	3025
3942.861	3014
3944.464	3049
3946.068	3053
3947.67	2962
3949.273	2986
3950.876	3032
3952.477	3046
3954.078	2995
3955.678	2999
3957.281	2948
3958.881	3075
3960.48	2960
3962.079	3010
3963.678	3022
3965.279	3019
3966.877	2987
3968.475	2933
3970.072	3009
3971.669	2998
3973.266	2999
3974.864	2999
3976.459	2954
3978.055	2923
3979.65	2949
3981.245	2946
3982.841	2933
3984.436	2999
3986.03	2951
3987.623	2925
3989.216	2910
3990.809	2955
3992.403	2902
3993.995	2875
3995.586	2963
3997.177	2922
3998.768	2938
4000.361	2961
4001.951	2875
4003.54	2913
4005.13	2898
4006.719	2931
4008.31	2933
4009.897	2794
4011.485	2850
4013.073	2839
4014.66	2866
4016.247	2908
4017.834	2846
4019.421	2869
4021.006	2904
4022.592	2845
4024.178	2805
4025.763	2890
4027.348	2804
4028.932	2868
4030.515	2797
4032.099	2871
4033.682	2766
4035.266	2920
4036.847	2826
4038.429	2800
4040.011	2791
4041.592	2850
4043.173	2810
4044.755	2847
4046.334	2772
4047.913	2834
4049.494	2853
4051.074	2815
4052.652	2758
4054.23	2823
4055.807	2791
4057.385	2791
4058.963	2763
4060.541	2753
4062.117	2823
4063.693	2753
4065.269	2780
4066.844	2786
4068.42	2766
4069.995	2852
4071.569	2756
4073.143	2744
4074.716	2770
4076.291	2772
4077.864	2725
4079.436	2756
4081.009	2779
4082.58	2695
4084.152	2768
4085.723	2724
4087.294	2785
4088.865	2761
4090.435	2711
4092.005	2779
4093.574	2762
4095.143	2697
4096.712	2784
4098.279	2753
4099.848	2750
4101.416	2707
4102.984	2706
4104.55	2687
4106.117	2781
4107.682	2673
4109.248	2777
4110.815	2656
4112.379	2708
4113.945	2737
4115.508	2721
4117.073	2720
4118.637	2664
4120.201	2668
4121.763	2662
4123.325	2693
4124.888	2762
4126.449	2712
4128.013	2671
4129.573	2701
4131.133	2658
4132.694	2650
4134.254	2691
4135.814	2674
4137.374	2722
4138.933	2650
4140.491	2619
4142.049	2662
4143.607	2622
4145.167	2618
4146.724	2654
4148.28	2659
4149.836	2662
4151.392	2567
4152.949	2626
4154.504	2581
4156.059	2586
4157.614	2643
4159.168	2608
4160.723	2619
4162.277	2605
4163.83	2615
4165.383	2591
4166.936	2618
4168.488	2630
4170.041	2587
4171.593	2623
4173.144	2571
4174.695	2641
4176.246	2634
4177.796	2591
4179.346	2583
4180.896	2572
4182.445	2495
4183.994	2603
4185.542	2558
4187.091	2582
4188.639	2570
4190.185	2601
4191.732	2543
4193.279	2560
4194.826	2561
4196.373	2584
4197.918	2506
4199.463	2518
4201.008	2562
4202.553	2560
4204.098	2542
4205.641	2520
4207.185	2492
4208.728	2602
4210.271	2446
4211.814	2506
4213.357	2535
4214.898	2545
4216.439	2514
4217.98	2526
4219.522	2508
4221.062	2488
4222.603	2494
4224.142	2460
4225.681	2523
4227.222	2502
4228.76	2503
4230.298	2510
4231.835	2507
4233.373	2484
4234.911	2454
4236.449	2522
4237.985	2539
4239.521	2491
4241.057	2492
4242.592	2499
4244.128	2522
4245.663	2483
4247.197	2472
4248.731	2493
4250.265	2432
4251.798	2515
4253.333	2474
4254.865	2457
4256.397	2429
4257.93	2428
4259.461	2401
4260.994	2432
4262.525	2458
4264.056	2482
4265.586	2442
4267.115	2397
4268.646	2455
4270.176	2404
4271.705	2523
4273.232	2430
4274.761	2456
4276.289	2434
4277.818	2417
4279.345	2404
4280.872	2423
4282.399	2374
4283.924	2418
4285.452	2423
4286.976	2384
4288.502	2427
4290.026	2353
4291.551	2400
4293.074	2401
4294.6	2359
4296.123	2401
4297.646	2394
4299.168	2436
4300.691	2439
4302.214	2367
4303.736	2395
4305.257	2380
4306.778	2382
4308.299	2358
4309.82	2340
4311.34	2337
4312.86	2410
4314.379	2343
