400.0745	4999
402.597	4922
405.1208	4963
407.6419	4889
410.1623	5046
412.6819	4998
415.201	5038
417.7172	5150
420.2369	5068
422.7538	5235
425.2701	5081
427.7856	5216
430.3005	5233
432.8147	5191
435.3282	5230
437.841	5412
440.3511	5271
442.8625	5201
445.3753	5269
447.8854	5279
450.3927	5295
452.9014	5302
455.4073	5268
457.9146	5315
460.4233	5272
462.9272	5267
465.4325	5365
467.935	5343
470.4389	5328
472.9421	5369
475.4446	5397
477.9444	5307
480.4456	5291
482.944	5449
485.4417	5432
487.9429	5346
490.4393	5352
492.935	5498
495.4321	5416
497.9264	5451
500.4221	5437
502.9171	5430
505.4094	5439
507.9011	5504
510.392	5474
512.8864	5530
515.3759	5586
517.8649	5518
520.3531	5611
522.8406	5499
525.3275	5588
527.8178	5628
530.3033	5643
532.7881	5626
535.2723	5570
537.7558	5568
540.2407	5623
542.7228	5661
545.2043	5438
547.6851	5592
550.1652	5546
552.6467	5567
555.1255	5594
557.6016	5604
560.079	5546
562.5557	5633
565.0318	5519
567.5092	5727
569.984	5585
572.456	5751
574.9294	5758
577.4022	5653
579.8762	5812
582.3456	5833
584.8163	5781
587.2863	5776
589.7557	5807
592.2224	5825
594.6924	5753
597.1578	5884
599.6245	5783
602.0905	5792
604.5538	5629
607.0206	5827
609.4825	5819
611.9459	5815
614.4066	5854
616.8686	5842
619.33	5707
621.7906	5740
624.2487	5693
626.708	5807
629.1647	5770
631.6207	5779
634.0801	5840
636.5348	5755
638.9888	5863
641.4442	5799
643.8969	5846
646.3509	5764
648.8022	5854
651.255	5877
653.705	5910
656.1544	5940
658.6031	5725
661.0532	5869
663.5026	5851
665.9493	5947
668.3954	5881
670.8409	5908
673.2877	5842
675.7318	5982
678.1752	6048
680.618	5893
683.0601	5998
685.5035	5917
687.9444	5986
690.3845	5964
692.824	5913
695.2628	5939
697.701	6017
700.1406	6002
702.5774	5977
705.0116	5962
707.4472	6134
709.8821	6013
712.3183	6127
714.7519	6023
717.1829	6138
719.6151	6032
722.0468	6156
724.4777	6092
726.908	6262
729.3377	6106
731.7667	6153
734.1931	6280
736.6208	6229
739.0498	6380
741.4742	6262
743.9	6176
746.3231	6382
748.7476	6373
751.1713	6446
753.5945	6228
756.015	6416
758.4368	6254
760.856	6398
763.2766	6498
765.6965	6232
768.1157	6486
770.5323	6423
772.9483	6421
775.3656	6381
777.7822	6424
780.1963	6394
782.6116	6529
785.0244	6499
787.4365	6457
789.8499	6397
792.2626	6497
794.6728	6389
797.0823	6351
799.4911	6495
801.8994	6319
804.3109	6453
806.7178	6597
809.124	6415
811.5297	6447
813.9347	6477
816.341	6606
818.7447	6456
821.1478	6535
823.5502	6554
825.952	6397
828.3531	6460
830.7556	6440
833.1554	6484
835.5546	6562
837.9532	6578
840.3511	6577
842.7504	6499
845.1451	6615
847.5411	6567
849.9365	6676
852.3312	6843
854.7272	6663
857.1187	6632
859.5115	6600
861.9037	6627
864.2952	6685
866.6842	6637
869.0764	6661
871.4661	6698
873.8531	6523
876.2415	6618
878.6272	6650
881.0162	6553
883.4026	6707
885.7866	6595
888.1717	6581
890.5543	6641
892.9382	6666
895.3215	6579
897.7041	6688
900.0842	6551
902.4655	6617
904.8443	6606
907.2244	6688
909.6039	6661
911.9808	6670
914.357	6705
916.7346	6725
919.1115	6688
921.4859	6816
923.8616	6928
926.2347	6835
928.6071	6949
930.979	6847
933.3541	6853
935.7247	6927
938.0946	6933
940.4639	7065
942.8326	7015
945.2026	6959
947.5701	7292
949.9369	7297
952.305	7348
954.6705	7571
957.0355	7745
959.4017	7931
961.7654	7970
964.1284	8017
966.4908	7798
968.8527	7659
971.2138	7583
973.5743	7256
975.9343	7170
978.2936	7035
980.6522	7060
983.0122	7014
985.3696	6926
987.7245	6812
990.0807	6759
992.4362	6783
994.7911	6804
997.1474	6820
999.4991	6921
1001.852	6842
1004.205	6878
1006.555	6790
1008.908	6931
1011.258	7013
1013.606	6879
1015.956	6882
1018.302	6918
1020.652	6787
1022.998	6838
1025.345	6886
1027.691	6862
1030.035	6881
1032.378	6906
1034.724	6986
1037.066	6993
1039.409	6913
1041.75	7031
1044.092	6887
1046.433	7020
1048.771	7033
1051.112	7007
1053.449	7021
1055.786	6952
1058.124	6998
1060.462	6972
1062.797	7022
1065.131	7155
1067.467	7061
1069.8	7031
1072.135	7093
1074.467	7033
1076.798	7047
1079.129	7088
1081.459	7010
1083.792	7198
1086.121	7088
1088.449	7135
1090.777	6991
1093.104	6963
1095.431	7183
1097.759	7039
1100.084	6885
1102.408	6980
1104.732	7036
1107.056	7088
1109.379	7113
1111.701	7114
1114.022	7100
1116.343	6976
1118.664	7014
1120.983	7128
1123.303	7066
1125.621	7109
1127.939	7099
1130.256	7078
1132.573	6962
1134.889	7086
1137.205	7046
1139.52	7164
1141.832	7034
1144.146	7119
1146.461	7063
1148.771	7096
1151.083	7018
1153.392	7124
1155.703	6918
1158.011	7081
1160.323	7043
1162.629	7249
1164.938	7116
1167.243	7073
1169.55	7081
1171.857	6990
1174.163	7047
1176.466	7042
1178.769	7035
1181.073	7129
1183.374	7122
1185.677	7070
1187.979	7144
1190.279	7071
1192.578	7093
1194.878	7107
1197.178	6994
1199.476	7087
1201.772	7078
1204.068	7084
1206.366	7097
1208.663	7109
1210.957	7144
1213.251	7268
1215.544	7071
1217.836	7138
1220.128	7138
1222.421	7092
1224.712	7008
1227.002	7127
1229.292	7159
1231.581	7244
1233.871	7308
1236.159	7211
1238.446	7312
1240.732	7276
1243.018	7247
1245.304	7276
1247.59	7323
1249.874	7330
1252.156	7248
1254.439	7375
1256.721	7368
1259.005	7379
1261.286	7327
1263.565	7388
1265.845	7365
1268.125	7322
1270.403	7352
1272.682	7333
1274.959	7311
1277.234	7300
1279.511	7226
1281.787	7308
1284.062	7382
1286.337	7285
1288.609	7196
1290.882	7191
1293.153	7325
1295.428	7210
1297.698	7152
1299.969	7279
1302.237	7168
1304.507	7247
1306.777	7274
1309.044	7189
1311.312	7244
1313.578	7236
1315.844	7224
1318.109	7259
1320.375	7235
1322.638	7328
1324.903	7282
1327.165	7261
1329.427	7290
1331.69	7259
1333.952	7300
1336.212	7244
1338.471	7241
1340.73	7279
1342.988	7246
1345.248	7199
1347.505	7276
1349.763	7218
1352.019	7157
1354.274	7164
1356.53	7245
1358.784	7157
1361.038	7276
1363.291	7280
1365.543	7283
1367.797	7258
1370.048	7378
1372.296	7160
1374.546	7195
1376.796	7327
1379.045	7221
1381.295	7334
1383.542	7339
1385.787	7221
1388.034	7349
1390.28	7226
1392.527	7343
1394.772	7334
1397.014	7394
1399.258	7437
1401.501	7341
1403.741	7233
1405.985	7349
1408.226	7427
1410.465	7390
1412.705	7534
1414.943	7347
1417.184	7423
1419.42	7341
1421.658	7393
1423.894	7525
1426.13	7341
1428.366	7457
1430.602	7286
1432.835	7497
1435.069	7379
1437.301	7529
1439.535	7461
1441.767	7409
1443.997	7488
1446.229	7509
1448.458	7539
1450.687	7517
1452.916	7613
1455.146	7566
1457.372	7555
1459.599	7472
1461.824	7465
1464.051	7550
1466.277	7516
1468.501	7529
1470.725	7591
1472.948	7395
1475.17	7464
1477.393	7465
1479.614	7264
1481.837	7308
1484.057	7338
1486.276	7390
1488.497	7309
1490.715	7279
1492.932	7208
1495.148	7197
1497.364	7261
1499.58	7180
1501.798	7343
1504.012	7349
1506.227	7205
1508.44	7188
1510.653	7207
1512.866	7177
1515.078	7311
1517.289	7258
1519.5	7118
1521.711	7192
1523.92	7283
1526.13	7274
1528.338	7241
1530.544	7314
1532.752	7287
1534.959	7268
1537.165	7300
1539.371	7251
1541.574	7222
1543.779	7289
1545.983	7341
1548.187	7160
1550.39	7287
1552.59	7439
1554.792	7318
1556.991	7381
1559.19	7256
1561.392	7461
1563.59	7455
1565.789	7308
1567.986	7362
1570.182	7500
1572.381	7391
1574.576	7386
1576.771	7328
1578.966	7334
1581.16	7478
1583.354	7374
1585.546	7520
1587.74	7447
1589.931	7493
1592.121	7512
1594.311	7306
1596.502	7412
1598.693	7458
1600.881	7596
1603.069	7473
1605.256	7565
1607.445	7573
1609.631	7530
1611.816	7594
1614.001	7473
1616.186	7456
1618.37	7557
1620.555	7500
1622.737	7475
1624.919	7586
1627.101	7546
1629.282	7530
1631.463	7579
1633.643	7534
1635.822	7436
1638.001	7485
1640.179	7553
1642.359	7689
1644.534	7682
1646.711	7534
1648.887	7469
1651.062	7582
1653.235	7535
1655.412	7669
1657.586	7519
1659.757	7658
1661.93	7633
1664.1	7483
1666.274	7665
1668.445	7645
1670.614	7590
1672.784	7654
1674.951	7514
1677.12	7736
1679.289	7660
1681.457	7603
1683.622	7662
1685.789	7581
1687.953	7673
1690.121	7603
1692.284	7456
1694.447	7755
1696.611	7648
1698.772	7479
1700.935	7573
1703.098	7575
1705.258	7581
1707.417	7445
1709.576	7480
1711.736	7515
1713.896	7385
1716.053	7331
1718.21	7507
1720.366	7444
1722.522	7460
1724.68	7551
1726.835	7385
1728.989	7472
1731.142	7426
1733.295	7431
1735.449	7411
1737.601	7430
1739.753	7532
1741.903	7515
1744.054	7547
1746.203	7548
1748.354	7397
1750.503	7545
1752.651	7525
1754.798	7392
1756.944	7380
1759.092	7463
1761.238	7516
1763.383	7622
1765.528	7408
1767.672	7486
1769.814	7573
1771.959	7561
1774.102	7483
1776.242	7478
1778.384	7517
1780.525	7484
1782.665	7464
1784.805	7501
1786.945	7462
1789.082	7498
1791.22	7596
1793.36	7518
1795.495	7430
1797.632	7529
1799.766	7602
1801.902	7551
1804.035	7596
1806.172	7507
1808.304	7621
1810.436	7550
1812.569	7467
1814.699	7577
1816.833	7467
1818.963	7530
1821.092	7488
1823.222	7476
1825.35	7561
1827.478	7533
1829.608	7559
1831.734	7463
1833.86	7545
1835.986	7566
1838.11	7493
1840.238	7458
1842.362	7428
1844.485	7524
1846.608	7542
1848.73	7424
1850.853	7487
1852.974	7449
1855.097	7404
1857.217	7421
1859.336	7402
1861.455	7512
1863.576	7394
1865.693	7415
1867.811	7425
1869.926	7503
1872.042	7403
1874.16	7328
1876.275	7437
1878.39	7439
1880.504	7561
1882.618	7454
1884.731	7456
1886.843	7468
1888.956	7469
1891.067	7453
1893.178	7474
1895.287	7409
1897.399	7443
1899.508	7403
1901.617	7526
1903.724	7466
1905.832	7597
1907.941	7454
1910.046	7513
1912.152	7583
1914.256	7519
1916.361	7619
1918.464	7576
1920.57	7597
1922.672	7600
1924.775	7606
1926.876	7483
1928.978	7614
1931.08	7526
1933.181	7482
1935.28	7632
1937.38	7572
1939.478	7504
1941.577	7580
1943.675	7609
1945.771	7560
1947.867	7714
1949.964	7565
1952.058	7560
1954.154	7603
1956.248	7504
1958.343	7646
1960.435	7552
1962.527	7608
1964.62	7435
1966.711	7558
1968.802	7493
1970.892	7532
1972.983	7502
1975.072	7505
1977.162	7614
1979.25	7463
1981.337	7465
1983.424	7613
1985.51	7541
1987.598	7404
1989.683	7577
1991.768	7436
1993.852	7597
1995.934	7505
1998.019	7535
2000.102	7504
2002.184	7414
2004.266	7403
2006.347	7485
2008.427	7652
2010.508	7446
2012.587	7434
2014.666	7385
2016.745	7501
2018.821	7483
2020.9	7525
2022.977	7456
2025.052	7498
2027.128	7457
2029.204	7606
2031.277	7499
2033.353	7435
2035.425	7451
2037.499	7443
2039.57	7517
2041.642	7411
2043.714	7572
2045.786	7527
2047.855	7572
2049.925	7365
2051.993	7358
2054.064	7456
2056.132	7559
2058.2	7499
2060.266	7516
2062.332	7486
2064.398	7535
2066.465	7591
2068.529	7446
2070.592	7438
2072.657	7492
2074.719	7384
2076.783	7569
2078.845	7583
2080.907	7543
2082.968	7565
2085.028	7501
2087.087	7479
2089.148	7397
2091.207	7518
2093.264	7518
2095.322	7392
2097.379	7559
2099.439	7466
2101.495	7432
2103.55	7499
2105.605	7573
2107.658	7474
2109.713	7479
2111.767	7590
2113.82	7471
2115.872	7425
2117.924	7561
2119.975	7605
2122.028	7479
2124.078	7481
2126.126	7521
2128.176	7346
2130.225	7432
2132.275	7455
2134.321	7441
2136.368	7410
2138.415	7388
2140.461	7424
2142.505	7467
2144.552	7469
2146.597	7456
2148.64	7457
2150.684	7313
2152.725	7437
2154.77	7431
2156.811	7458
2158.852	7502
2160.894	7532
2162.933	7447
2164.973	7465
2167.013	7407
2169.051	7300
2171.089	7497
2173.126	7370
2175.164	7462
2177.201	7334
2179.236	7383
2181.273	7265
2183.307	7426
2185.341	7519
2187.377	7323
2189.41	7255
2191.442	7329
2193.473	7271
2195.506	7277
2197.539	7314
2199.569	7330
2201.598	7358
2203.628	7285
2205.656	7352
2207.686	7293
2209.716	7281
2211.743	7322
2213.769	7245
2215.796	7258
2217.821	7248
2219.848	7330
2221.873	7307
2223.897	7235
2225.921	7272
2227.944	7265
2229.967	7225
2231.991	7207
2234.011	7235
2236.032	7214
2238.053	7315
2240.073	7197
2242.094	7236
2244.114	7341
2246.131	7278
2248.149	7236
2250.167	7331
2252.186	7295
2254.201	7101
2256.218	7148
2258.233	7176
2260.247	7177
2262.262	7218
2264.278	7229
2266.29	7112
2268.303	7295
2270.315	7243
2272.327	7278
2274.341	7213
2276.35	7153
2278.361	7271
2280.37	7210
2282.38	7211
2284.388	7217
2286.397	7292
2288.405	7312
2290.412	7187
2292.419	7347
2294.425	7244
2296.431	7173
2298.437	7319
2300.441	7257
2302.445	7189
2304.449	7136
2306.453	7275
2308.455	7212
2310.457	7168
2312.459	7157
2314.46	7151
2316.46	7209
2318.461	7220
2320.46	7141
2322.458	7189
2324.458	7281
2326.456	7110
2328.455	7144
2330.451	7220
2332.447	7164
2334.443	7199
2336.438	7232
2338.433	7158
2340.429	7145
2342.422	7075
2344.416	7103
2346.408	7172
2348.399	7122
2350.393	7145
2352.384	7054
2354.375	7085
2356.365	7167
2358.355	7059
2360.344	7118
2362.333	6994
2364.322	7175
2366.309	7148
2368.295	7125
2370.282	7150
2372.27	7090
2374.256	7117
2376.24	7003
2378.225	6962
2380.208	6988
2382.194	7158
2384.177	7089
2386.159	7015
2388.142	7105
2390.122	6971
2392.105	7110
2394.085	7011
2396.066	7081
2398.044	6861
2400.024	7044
2402.002	6872
2403.982	6970
2405.959	6954
2407.935	6898
2409.913	6902
2411.888	6924
2413.865	6978
2415.84	7052
2417.814	6974
2419.788	6927
2421.762	6991
2423.735	6976
2425.708	6980
2427.68	7012
2429.651	6896
2431.623	7048
2433.593	6980
2435.564	6924
2437.533	7048
2439.502	6971
2441.47	6827
2443.438	6895
2445.406	6807
2447.373	6842
2449.34	6946
2451.305	6893
2453.271	7082
2455.235	6954
2457.201	6937
2459.165	6821
2461.129	6962
2463.092	6922
2465.054	6937
2467.018	6933
2468.978	7009
2470.939	6823
2472.899	6943
2474.86	6878
2476.819	6749
2478.778	6846
2480.737	6915
2482.695	6862
2484.653	6850
2486.609	6847
2488.567	6754
2490.524	6933
2492.478	6820
2494.433	6897
2496.387	6821
2498.343	6913
2500.297	6792
2502.249	6830
2504.202	6932
2506.153	6851
2508.105	6766
2510.057	6952
2512.008	6883
2513.957	6904
2515.906	6909
2517.855	6858
2519.805	6754
2521.754	6699
2523.7	6729
2525.647	6811
2527.594	6866
2529.54	6841
2531.486	6769
2533.431	6860
2535.376	6832
2537.32	6789
2539.263	6712
2541.207	6776
2543.151	6742
2545.093	6826
2547.034	6793
2548.975	6781
2550.917	6733
2552.856	6781
2554.796	6876
2556.735	6796
2558.673	6660
2560.611	6704
2562.55	6837
2564.487	6690
2566.424	6734
2568.36	6753
2570.296	6915
2572.232	6762
2574.167	6904
2576.101	6779
2578.035	6801
2579.969	6865
2581.902	6799
2583.834	6842
2585.766	6844
2587.698	6767
2589.628	6684
2591.557	6657
2593.489	6867
2595.419	6785
2597.348	6656
2599.275	6886
2601.204	6740
2603.131	6776
2605.059	6685
2606.986	6827
2608.911	6852
2610.837	6809
2612.76	6762
2614.687	6799
2616.61	6874
2618.534	6619
2620.457	6746
2622.38	6714
2624.302	6834
2626.225	6815
2628.145	6909
2630.067	6825
2631.986	6894
2633.906	6748
2635.827	6617
2637.745	6681
2639.662	6811
2641.581	6740
2643.498	6815
2645.415	6711
2647.331	6808
2649.248	6679
2651.163	6816
2653.077	6792
2654.993	6801
2656.906	6838
2658.821	6819
2660.733	6726
2662.646	6752
2664.557	6681
2666.47	6791
2668.381	6654
2670.291	6814
2672.201	6700
2674.11	6694
2676.021	6749
2677.929	6829
2679.837	6729
2681.745	6765
2683.652	6732
2685.56	6846
2687.466	6707
2689.371	6750
2691.276	6834
2693.181	6726
2695.085	6666
2696.991	6632
2698.893	6695
2700.796	6774
2702.698	6638
2704.601	6738
2706.502	6664
2708.404	6602
2710.304	6766
2712.203	6629
2714.103	6584
2716.003	6657
2717.902	6597
2719.8	6517
2721.697	6660
2723.594	6700
2725.49	6589
2727.389	6676
2729.283	6632
2731.179	6492
2733.073	6673
2734.968	6603
2736.863	6591
2738.757	6567
2740.649	6683
2742.541	6523
2744.433	6666
2746.324	6588
2748.216	6527
2750.107	6582
2751.997	6652
2753.886	6481
2755.776	6679
2757.666	6569
2759.553	6552
2761.44	6605
2763.327	6514
2765.215	6638
2767.102	6561
2768.988	6567
2770.873	6616
2772.757	6566
2774.641	6567
2776.525	6665
2778.41	6464
2780.292	6583
2782.175	6538
2784.057	6592
2785.938	6432
2787.821	6487
2789.701	6531
2791.581	6564
2793.461	6592
2795.34	6447
2797.219	6436
2799.099	6491
2800.975	6565
2802.853	6431
2804.73	6480
2806.606	6398
2808.484	6522
2810.358	6430
2812.233	6511
2814.108	6358
2815.981	6437
2817.857	6496
2819.73	6426
2821.602	6449
2823.474	6521
2825.346	6472
2827.217	6459
2829.089	6508
2830.959	6332
2832.829	6435
2834.698	6389
2836.567	6499
2838.436	6452
2840.305	6316
2842.172	6501
2844.04	6461
2845.905	6516
2847.772	6423
2849.639	6473
2851.503	6401
2853.369	6363
2855.232	6456
2857.096	6443
2858.961	6594
2860.824	6625
2862.686	6542
2864.547	6670
2866.41	6616
2868.272	6565
2870.132	6552
2871.992	6679
2873.851	6642
2875.711	6696
2877.57	6710
2879.429	6921
2881.287	6800
2883.144	6790
2885.001	6910
2886.857	6944
2888.714	6813
2890.57	6814
2892.425	6822
2894.279	6943
2896.133	6941
2897.987	6737
2899.842	6793
2901.694	6649
2903.547	6860
2905.397	6817
2907.249	6854
2909.101	6827
2910.952	6869
2912.802	6966
2914.652	6902
2916.5	7024
2918.35	7014
2920.198	6897
2922.045	7045
2923.893	7133
2925.74	7030
2927.585	7124
2929.433	7160
2931.279	7400
2933.123	7228
2934.968	7287
2936.811	7384
2938.656	7430
2940.5	7494
2942.342	7596
2944.185	7471
2946.026	7457
2947.87	7654
2949.71	7498
2951.549	7609
2953.39	7542
2955.229	7328
2957.069	7348
2958.908	7199
2960.746	7374
2962.584	7203
2964.421	7301
2966.257	7128
2968.094	6939
2969.931	7054
2971.766	7002
2973.601	6994
2975.435	6951
2977.27	6906
2979.105	6969
2980.938	6804
2982.77	6903
2984.602	6779
2986.434	6769
2988.267	6893
2990.097	6830
2991.927	6892
2993.757	6848
2995.587	6686
2997.417	6692
2999.246	6580
3001.074	6608
3002.902	6457
3004.729	6449
3006.556	6512
3008.384	6486
3010.21	6423
3012.036	6217
3013.861	6303
3015.684	6359
3017.51	6270
3019.334	6252
3021.157	6190
3022.981	6233
3024.802	6047
3026.624	6179
3028.448	6054
3030.267	6190
3032.088	6151
3033.909	6214
3035.728	6058
3037.549	6010
3039.368	6044
3041.186	6005
3043.004	6060
3044.821	6057
3046.64	6018
3048.455	6096
3050.272	6095
3052.087	5997
3053.903	6137
3055.717	6080
3057.534	6175
3059.347	5995
3061.16	6026
3062.974	6130
3064.785	5943
3066.598	6021
3068.411	6111
3070.222	5996
3072.032	6022
3073.844	5931
3075.653	5969
3077.463	6060
3079.272	5913
3081.08	5985
3082.889	5912
3084.697	5986
3086.505	5904
3088.312	5885
3090.118	5998
3091.924	5874
3093.729	5887
3095.535	5941
3097.34	5876
3099.144	5954
3100.947	5902
3102.75	5868
3104.553	5891
3106.357	5861
3108.159	5867
3109.961	5762
3111.762	5714
3113.562	5805
3115.365	5736
3117.164	5805
3118.964	5872
3120.761	5884
3122.56	5724
3124.36	5872
3126.158	5699
3127.954	5820
3129.75	5769
3131.547	5754
3133.343	5648
3135.139	5664
3136.934	5803
3138.729	5696
3140.522	5589
3142.317	5663
3144.11	5722
3145.904	5683
3147.695	5747
3149.488	5620
3151.28	5756
3153.07	5758
3154.863	5646
3156.652	5627
3158.441	5584
3160.231	5624
3162.019	5662
3163.81	5663
3165.597	5670
3167.384	5665
3169.172	5633
3170.958	5593
3172.745	5571
3174.532	5680
3176.317	5673
3178.101	5649
3179.885	5556
3181.67	5653
3183.455	5634
3185.238	5702
3187.02	5552
3188.802	5653
3190.585	5597
3192.368	5627
3194.149	5629
3195.929	5558
3197.709	5589
3199.489	5676
3201.268	5561
3203.048	5577
3204.826	5536
3206.604	5577
3208.382	5597
3210.159	5507
3211.937	5531
3213.713	5647
3215.489	5566
3217.263	5523
3219.038	5685
3220.815	5560
3222.589	5541
3224.363	5524
3226.136	5568
3227.908	5497
3229.681	5539
3231.454	5496
3233.226	5556
3234.996	5502
3236.767	5631
3238.538	5409
3240.308	5604
3242.078	5477
3243.847	5529
3245.615	5484
3247.384	5550
3249.15	5601
3250.92	5611
3252.686	5411
3254.453	5667
3256.218	5505
3257.984	5509
3259.75	5496
3261.515	5559
3263.279	5520
3265.044	5491
3266.806	5550
3268.57	5581
3270.334	5486
3272.095	5468
3273.856	5502
3275.619	5495
3277.379	5582
3279.14	5525
3280.9	5455
3282.661	5458
3284.419	5601
3286.178	5562
3287.937	5435
3289.695	5536
3291.453	5531
3293.21	5528
3294.967	5517
3296.723	5499
3298.48	5520
3300.235	5516
3301.99	5471
3303.744	5524
3305.498	5495
3307.253	5534
3309.006	5491
3310.759	5580
3312.511	5467
3314.263	5380
3316.017	5451
3317.768	5523
3319.519	5510
3321.268	5597
3323.018	5554
3324.767	5491
3326.518	5540
3328.267	5361
3330.014	5497
3331.762	5523
3333.509	5440
3335.258	5476
3337.003	5464
3338.75	5454
3340.496	5381
3342.24	5477
3343.987	5405
3345.732	5474
3347.475	5403
3349.219	5427
3350.961	5378
3352.705	5426
3354.448	5485
3356.19	5465
3357.931	5358
3359.672	5327
3361.412	5401
3363.155	5381
3364.894	5369
3366.633	5449
3368.372	5406
3370.11	5432
3371.849	5392
3373.588	5386
3375.325	5331
3377.061	5431
3378.799	5341
3380.534	5304
3382.271	5295
3384.006	5338
3385.741	5353
3387.475	5403
3389.209	5346
3390.944	5326
3392.677	5367
3394.409	5269
3396.143	5347
3397.874	5354
3399.606	5426
3401.338	5246
3403.069	5339
3404.799	5318
3406.528	5345
3408.258	5322
3409.988	5274
3411.717	5169
3413.445	5312
3415.173	5303
3416.899	5221
3418.626	5301
3420.354	5179
3422.08	5173
3423.806	5230
3425.531	5279
3427.255	5097
3428.981	5211
3430.705	5319
3432.429	5206
3434.151	5206
3435.875	5303
3437.599	5226
3439.321	5052
3441.042	5209
3442.763	5269
3444.483	5221
3446.204	5176
3447.926	5120
3449.645	5151
3451.364	5144
3453.082	5173
3454.801	5016
3456.52	5141
3458.238	5139
3459.954	5159
3461.671	5125
3463.387	5089
3465.104	5068
3466.82	4981
3468.534	5118
3470.25	5008
3471.963	5037
3473.676	5130
3475.392	5051
3477.104	5020
3478.817	5116
3480.528	5016
3482.241	5021
3483.954	5015
3485.664	5088
3487.374	5027
3489.084	5077
3490.795	5000
3492.504	4974
3494.214	4947
3495.922	4943
3497.63	4934
3499.338	4988
3501.045	4912
3502.753	4936
3504.459	4847
3506.166	5014
3507.871	4902
3509.576	4883
3511.283	4906
3512.987	4926
3514.691	4949
3516.395	4795
3518.098	4894
3519.8	4926
3521.504	4892
3523.206	4789
3524.908	4812
3526.609	4958
3528.309	4809
3530.011	4814
3531.711	4855
3533.411	4873
3535.109	4899
3536.808	4893
3538.507	4848
3540.206	4838
3541.904	4845
3543.601	4917
3545.297	4867
3546.994	4825
3548.69	4743
3550.387	4767
3552.081	4854
3553.776	4815
3555.47	4791
3557.166	4757
3558.859	4847
3560.553	4851
3562.245	4746
3563.938	4755
3565.629	4794
3567.322	4719
3569.014	4740
3570.704	4755
3572.394	4809
3574.084	4818
3575.775	4820
3577.464	4784
3579.152	4711
3580.842	4629
3582.529	4687
3584.216	4693
3585.905	4705
3587.591	4689
3589.279	4757
3590.964	4721
3592.649	4667
3594.336	4604
3596.021	4741
3597.705	4686
3599.388	4604
3601.072	4608
3602.757	4610
3604.439	4558
3606.122	4704
3607.803	4682
3609.485	4551
3611.167	4593
3612.849	4611
3614.529	4633
3616.208	4546
3617.888	4591
3619.567	4546
3621.247	4612
3622.926	4688
3624.603	4582
3626.281	4503
3627.958	4562
3629.635	4587
3631.312	4552
3632.989	4468
3634.665	4456
3636.339	4517
3638.014	4594
3639.691	4514
3641.364	4431
3643.038	4472
3644.71	4454
3646.384	4514
3648.058	4442
3649.729	4525
3651.402	4464
3653.073	4437
3654.744	4482
3656.414	4605
3658.085	4340
3659.755	4405
3661.424	4516
3663.094	4366
3664.762	4459
3666.431	4458
3668.099	4447
3669.766	4370
3671.433	4440
3673.099	4399
3674.768	4490
3676.433	4296
3678.098	4414
3679.763	4426
3681.428	4371
3683.093	4411
3684.757	4312
3686.421	4472
3688.083	4349
3689.746	4309
3691.408	4388
3693.071	4410
3694.733	4415
3696.394	4313
3698.054	4285
3699.715	4315
3701.375	4353
3703.036	4401
3704.695	4300
3706.354	4384
3708.012	4397
3709.67	4383
3711.329	4339
3712.987	4312
3714.644	4285
3716.299	4207
3717.955	4285
3719.613	4407
3721.268	4245
3722.923	4259
3724.577	4302
3726.231	4301
3727.885	4304
3729.539	4357
3731.192	4222
3732.845	4275
3734.497	4309
3736.149	4390
3737.802	4244
3739.453	4253
3741.104	4201
3742.753	4201
3744.404	4207
3746.052	4299
3747.704	4222
3749.352	4266
3751	4192
3752.648	4335
3754.296	4276
3755.944	4230
3757.59	4196
3759.238	4204
3760.883	4198
3762.528	4173
3764.176	4200
3765.82	4195
3767.464	4190
3769.109	4125
3770.753	4222
3772.396	4089
3774.04	4142
3775.683	4106
3777.325	4210
3778.967	4145
3780.608	4238
3782.25	4143
3783.89	4164
3785.531	4249
3787.17	4093
3788.81	4164
3790.45	4138
3792.09	4022
3793.729	4104
3795.366	4127
3797.003	4111
3798.64	4097
3800.278	4088
3801.915	4135
3803.551	4156
3805.187	4058
3806.822	4218
3808.458	4090
3810.093	4012
3811.726	4109
3813.36	4041
3814.994	4004
3816.627	4042
3818.262	4013
3819.893	4045
3821.525	4059
3823.157	4054
3824.787	3984
3826.42	3998
3828.051	3974
3829.68	3994
3831.31	4005
3832.938	4052
3834.569	4036
3836.198	3906
3837.825	4028
3839.454	4011
3841.08	4037
3842.708	3925
3844.335	4004
3845.962	3979
3847.587	3988
3849.212	3963
3850.838	3994
3852.463	3983
3854.089	3985
3855.712	3961
3857.335	3971
3858.959	3974
3860.582	3973
3862.205	3954
3863.827	3971
3865.449	3971
3867.07	3905
3868.691	3934
3870.312	3858
3871.933	3934
3873.553	3921
3875.173	3974
3876.792	3903
3878.411	3894
3880.03	3950
3881.647	3892
3883.265	3861
3884.882	3922
3886.499	3914
3888.116	3886
3889.732	3904
3891.348	3925
3892.964	3842
3894.579	3841
3896.195	3841
3897.809	3850
3899.423	3889
3901.036	3874
3902.648	3852
3904.261	3950
3905.875	3826
3907.487	3710
3909.099	3907
3910.709	3860
3912.321	3848
3913.933	3807
3915.542	3888
3917.152	3814
3918.762	3881
3920.37	3778
3921.98	3870
3923.589	3901
3925.196	3912
3926.804	3891
3928.41	3860
3930.018	3882
3931.626	3852
3933.231	3849
3934.838	3834
3936.442	3824
3938.046	3831
3939.653	3816
3941.257	3845
3942.861	3821
3944.464	3751
3946.068	3817
3947.67	3842
3949.273	3849
3950.876	3788
3952.477	3800
3954.078	3798
3955.678	3825
3957.281	3771
3958.881	3755
3960.48	3802
3962.079	3713
3963.678	3822
3965.279	3822
3966.877	3700
3968.475	3724
3970.072	3720
3971.669	3673
3973.266	3661
3974.864	3726
3976.459	3705
3978.055	3748
3979.65	3715
3981.245	3791
3982.841	3732
3984.436	3658
3986.03	3734
3987.623	3699
3989.216	3708
3990.809	3709
3992.403	3645
3993.995	3700
3995.586	3670
3997.177	3624
3998.768	3702
4000.361	3610
4001.951	3641
4003.54	3659
4005.13	3649
4006.719	3691
4008.31	3582
4009.897	3560
4011.485	3655
4013.073	3592
4014.66	3589
4016.247	3560
4017.834	3638
4019.421	3630
4021.006	3576
4022.592	3649
4024.178	3585
4025.763	3649
4027.348	3628
4028.932	3497
4030.515	3575
4032.099	3516
4033.682	3565
4035.266	3509
4036.847	3569
4038.429	3568
4040.011	3512
4041.592	3556
4043.173	3519
4044.755	3582
4046.334	3511
4047.913	3532
4049.494	3632
4051.074	3461
4052.652	3470
4054.23	3518
4055.807	3496
4057.385	3450
4058.963	3494
4060.541	3454
4062.117	3453
4063.693	3515
4065.269	3480
4066.844	3534
4068.42	3468
4069.995	3457
4071.569	3473
4073.143	3489
4074.716	3483
4076.291	3436
4077.864	3447
4079.436	3441
4081.009	3483
4082.58	3470
4084.152	3398
4085.723	3387
4087.294	3439
4088.865	3460
4090.435	3439
4092.005	3496
4093.574	3449
4095.143	3408
4096.712	3412
4098.279	3498
4099.848	3453
4101.416	3437
4102.984	3445
4104.55	3368
4106.117	3431
4107.682	3462
4109.248	3425
4110.815	3426
4112.379	3410
4113.945	3422
4115.508	3400
4117.073	3371
4118.637	3293
4120.201	3400
4121.763	3357
4123.325	3421
4124.888	3407
4126.449	3314
4128.013	3338
4129.573	3333
4131.133	3280
4132.694	3380
4134.254	3326
4135.814	3309
4137.374	3357
4138.933	3230
4140.491	3311
4142.049	3397
4143.607	3201
4145.167	3319
4146.724	3293
4148.28	3333
4149.836	3262
4151.392	3401
4152.949	3321
4154.504	3248
4156.059	3207
4157.614	3284
4159.168	3328
4160.723	3273
4162.277	3231
4163.83	3289
4165.383	3255
4166.936	3217
4168.488	3233
4170.041	3228
4171.593	3263
4173.144	3277
4174.695	3207
4176.246	3225
4177.796	3191
4179.346	3279
4180.896	3162
4182.445	3277
4183.994	3264
4185.542	3206
4187.091	3178
4188.639	3170
4190.185	3178
4191.732	3205
4193.279	3172
4194.826	3148
4196.373	3149
4197.918	3188
4199.463	3112
4201.008	3178
4202.553	3132
4204.098	3192
4205.641	3207
4207.185	3167
4208.728	3121
4210.271	3144
4211.814	3154
4213.357	3115
4214.898	3155
4216.439	3095
4217.98	3199
4219.522	3101
4221.062	3106
4222.603	3135
4224.142	3050
4225.681	3123
4227.222	3116
4228.76	3146
4230.298	3165
4231.835	3138
4233.373	3161
4234.911	3041
4236.449	3130
4237.985	3103
4239.521	3095
4241.057	3108
4242.592	3108
4244.128	3095
4245.663	3055
4247.197	3143
4248.731	3121
4250.265	3012
4251.798	3103
4253.333	3011
4254.865	3096
4256.397	3117
4257.93	3040
4259.461	3083
4260.994	3028
4262.525	2993
4264.056	3139
4265.586	3074
4267.115	3033
4268.646	3000
4270.176	3067
4271.705	3120
4273.232	3096
4274.761	3071
4276.289	3032
4277.818	3102
4279.345	3053
4280.872	3029
4282.399	3031
4283.924	3090
4285.452	2990
4286.976	2996
4288.502	2965
4290.026	2984
4291.551	3030
4293.074	2976
4294.6	2984
4296.123	3002
4297.646	2995
4299.168	2934
4300.691	2990
4302.214	3023
4303.736	2975
4305.257	2955
4306.778	2987
4308.299	2990
4309.82	2985
4311.34	2892
4312.86	2962
4314.379	2951
