400.0745	4020
402.597	4022
405.1208	4042
407.6419	3986
410.1623	3957
412.6819	4031
415.201	4132
417.7172	4142
420.2369	4205
422.7538	4180
425.2701	4251
427.7856	4217
430.3005	4265
432.8147	4344
435.3282	4363
437.841	4359
440.3511	4314
442.8625	4333
445.3753	4365
447.8854	4335
450.3927	4320
452.9014	4294
455.4073	4398
457.9146	4355
460.4233	4314
462.9272	4254
465.4325	4262
467.935	4235
470.4389	4176
472.9421	4255
475.4446	4389
477.9444	4348
480.4456	4300
482.944	4334
485.4417	4405
487.9429	4318
490.4393	4382
492.935	4356
495.4321	4373
497.9264	4423
500.4221	4351
502.9171	4417
505.4094	4460
507.9011	4434
510.392	4413
512.8864	4463
515.3759	4516
517.8649	4516
520.3531	4419
522.8406	4440
525.3275	4457
527.8178	4540
530.3033	4464
532.7881	4472
535.2723	4475
537.7558	4521
540.2407	4392
542.7228	4397
545.2043	4424
547.6851	4497
550.1652	4589
552.6467	4466
555.1255	4538
557.6016	4428
560.079	4549
562.5557	4534
565.0318	4477
567.5092	4580
569.984	4657
572.456	4657
574.9294	4638
577.4022	4638
579.8762	4752
582.3456	4669
584.8163	4770
587.2863	4592
589.7557	4736
592.2224	4798
594.6924	4693
597.1578	4678
599.6245	4642
602.0905	4712
604.5538	4636
607.0206	4677
609.4825	4648
611.9459	4572
614.4066	4670
616.8686	4738
619.33	4696
621.7906	4577
624.2487	4624
626.708	4673
629.1647	4576
631.6207	4588
634.0801	4559
636.5348	4732
638.9888	4639
641.4442	4635
643.8969	4752
646.3509	4701
648.8022	4592
651.255	4726
653.705	4698
656.1544	4738
658.6031	4755
661.0532	4651
663.5026	4703
665.9493	4760
668.3954	4713
670.8409	4774
673.2877	4722
675.7318	4784
678.1752	4705
680.618	4762
683.0601	4792
685.5035	4742
687.9444	4724
690.3845	4755
692.824	4737
695.2628	4808
697.701	4826
700.1406	4779
702.5774	4830
705.0116	4779
707.4472	4783
709.8821	4871
712.3183	4830
714.7519	4983
717.1829	4866
719.6151	4973
722.0468	4860
724.4777	4883
726.908	4996
729.3377	4957
731.7667	5028
734.1931	4915
736.6208	4964
739.0498	4932
741.4742	4975
743.9	5022
746.3231	4962
748.7476	5096
751.1713	5001
753.5945	5088
756.015	5086
758.4368	5132
760.856	4995
763.2766	5163
765.6965	5097
768.1157	5150
770.5323	5218
772.9483	5244
775.3656	5055
777.7822	5181
780.1963	5157
782.6116	5233
785.0244	5135
787.4365	5076
789.8499	5100
792.2626	5080
794.6728	5097
797.0823	5213
799.4911	5165
801.8994	5099
804.3109	5220
806.7178	5158
809.124	5174
811.5297	5148
813.9347	5167
816.341	5279
818.7447	5185
821.1478	5217
823.5502	5261
825.952	5216
828.3531	5297
830.7556	5146
833.1554	5225
835.5546	5201
837.9532	5278
840.3511	5330
842.7504	5217
845.1451	5347
847.5411	5338
849.9365	5312
852.3312	5414
854.7272	5339
857.1187	5363
859.5115	5303
861.9037	5316
864.2952	5373
866.6842	5278
869.0764	5426
871.4661	5278
873.8531	5336
876.2415	5286
878.6272	5288
881.0162	5242
883.4026	5287
885.7866	5310
888.1717	5368
890.5543	5277
892.9382	5334
895.3215	5356
897.7041	5289
900.0842	5287
902.4655	5243
904.8443	5248
907.2244	5432
909.6039	5375
911.9808	5423
914.357	5493
916.7346	5506
919.1115	5545
921.4859	5607
923.8616	5516
926.2347	5621
928.6071	5609
930.979	5552
933.3541	5699
935.7247	5622
938.0946	5539
940.4639	5705
942.8326	5748
945.2026	5765
947.5701	5915
949.9369	5960
952.305	6167
954.6705	6247
957.0355	6556
959.4017	6878
961.7654	6795
964.1284	7030
966.4908	6831
968.8527	6527
971.2138	6249
973.5743	6089
975.9343	5879
978.2936	5627
980.6522	5627
983.0122	5619
985.3696	5558
987.7245	5602
990.0807	5448
992.4362	5535
994.7911	5444
997.1474	5486
999.4991	5631
1001.852	5528
1004.205	5606
1006.555	5531
1008.908	5668
1011.258	5549
1013.606	5573
1015.956	5532
1018.302	5657
1020.652	5550
1022.998	5473
1025.345	5607
1027.691	5569
1030.035	5614
1032.378	5589
1034.724	5651
1037.066	5582
1039.409	5579
1041.75	5576
1044.092	5727
1046.433	5700
1048.771	5540
1051.112	5616
1053.449	5560
1055.786	5669
1058.124	5628
1060.462	5616
1062.797	5677
1065.131	5719
1067.467	5754
1069.8	5729
1072.135	5696
1074.467	5781
1076.798	5710
1079.129	5758
1081.459	5638
1083.792	5688
1086.121	5699
1088.449	5609
1090.777	5669
1093.104	5722
1095.431	5679
1097.759	5611
1100.084	5668
1102.408	5815
1104.732	5558
1107.056	5665
1109.379	5660
1111.701	5610
1114.022	5628
1116.343	5708
1118.664	5687
1120.983	5728
1123.303	5667
1125.621	5710
1127.939	5761
1130.256	5740
1132.573	5650
1134.889	5697
1137.205	5702
1139.52	5557
1141.832	5676
1144.146	5563
1146.461	5569
1148.771	5742
1151.083	5659
1153.392	5525
1155.703	5586
1158.011	5667
1160.323	5634
1162.629	5690
1164.938	5646
1167.243	5667
1169.55	5677
1171.857	5557
1174.163	5784
1176.466	5627
1178.769	5706
1181.073	5593
1183.374	5635
1185.677	5742
1187.979	5544
1190.279	5623
1192.578	5565
1194.878	5697
1197.178	5587
1199.476	5680
1201.772	5731
1204.068	5606
1206.366	5668
1208.663	5681
1210.957	5644
1213.251	5718
1215.544	5586
1217.836	5609
1220.128	5708
1222.421	5640
1224.712	5632
1227.002	5799
1229.292	5777
1231.581	5718
1233.871	5811
1236.159	5823
1238.446	5799
1240.732	5817
1243.018	5806
1245.304	5873
1247.59	5825
1249.874	5869
1252.156	5933
1254.439	5837
1256.721	5831
1259.005	5883
1261.286	5812
1263.565	5834
1265.845	6002
1268.125	5862
1270.403	5917
1272.682	5867
1274.959	5791
1277.234	5881
1279.511	5908
1281.787	5911
1284.062	5836
1286.337	5819
1288.609	5822
1290.882	5824
1293.153	5816
1295.428	5806
1297.698	5728
1299.969	5931
1302.237	5696
1304.507	5829
1306.777	5816
1309.044	5767
1311.312	5824
1313.578	5767
1315.844	5848
1318.109	5829
1320.375	5786
1322.638	5673
1324.903	5881
1327.165	5727
1329.427	5830
1331.69	5833
1333.952	5778
1336.212	5715
1338.471	5784
1340.73	5823
1342.988	5760
1345.248	5812
1347.505	5724
1349.763	5689
1352.019	5742
1354.274	5770
1356.53	5832
1358.784	5822
1361.038	5798
1363.291	5697
1365.543	5715
1367.797	5835
1370.048	5785
1372.296	5747
1374.546	5733
1376.796	5835
1379.045	5801
1381.295	5825
1383.542	5885
1385.787	5827
1388.034	5770
1390.28	5851
1392.527	5803
1394.772	5921
1397.014	5788
1399.258	5794
1401.501	5889
1403.741	6005
1405.985	5934
1408.226	5889
1410.465	5837
1412.705	5898
1414.943	5982
1417.184	5989
1419.42	5870
1421.658	5905
1423.894	5968
1426.13	5996
1428.366	5953
1430.602	5901
1432.835	5916
1435.069	5995
1437.301	5967
1439.535	6034
1441.767	5916
1443.997	6038
1446.229	6023
1448.458	6136
1450.687	6037
1452.916	6168
1455.146	6019
1457.372	6044
1459.599	6180
1461.824	6049
1464.051	6039
1466.277	5899
1468.501	5940
1470.725	5992
1472.948	5990
1475.17	5950
1477.393	5961
1479.614	5845
1481.837	5859
1484.057	5773
1486.276	5798
1488.497	5736
1490.715	5855
1492.932	5681
1495.148	5741
1497.364	5738
1499.58	5829
1501.798	5700
1504.012	5756
1506.227	5732
1508.44	5712
1510.653	5768
1512.866	5793
1515.078	5749
1517.289	5848
1519.5	5833
1521.711	5731
1523.92	5758
1526.13	5778
1528.338	5775
1530.544	5764
1532.752	5779
1534.959	5818
1537.165	5733
1539.371	5858
1541.574	5796
1543.779	5742
1545.983	5865
1548.187	5682
1550.39	5827
1552.59	5852
1554.792	5792
1556.991	5846
1559.19	5885
1561.392	5874
1563.59	5849
1565.789	5843
1567.986	5854
1570.182	5867
1572.381	5848
1574.576	5993
1576.771	5879
1578.966	5897
1581.16	5941
1583.354	6033
1585.546	5944
1587.74	5979
1589.931	5835
1592.121	5936
1594.311	5881
1596.502	5960
1598.693	6056
1600.881	5961
1603.069	6015
1605.256	5856
1607.445	6001
1609.631	5970
1611.816	6077
1614.001	6050
1616.186	5790
1618.37	5996
1620.555	6013
1622.737	5996
1624.919	6004
1627.101	5985
1629.282	6109
1631.463	5994
1633.643	5983
1635.822	6050
1638.001	6069
1640.179	5978
1642.359	6033
1644.534	6033
1646.711	6004
1648.887	6077
1651.062	5974
1653.235	5999
1655.412	6054
1657.586	6062
1659.757	6058
1661.93	6185
1664.1	6107
1666.274	6051
1668.445	6068
1670.614	6145
1672.784	6058
1674.951	6125
1677.12	6191
1679.289	6163
1681.457	6008
1683.622	6139
1685.789	6073
1687.953	6088
1690.121	6028
1692.284	5965
1694.447	6004
1696.611	6108
1698.772	6018
1700.935	5938
1703.098	5836
1705.258	5886
1707.417	5994
1709.576	6027
1711.736	5930
1713.896	5955
1716.053	5886
1718.21	5923
1720.366	5998
1722.522	5929
1724.68	5882
1726.835	5790
1728.989	5907
1731.142	5802
1733.295	5945
1735.449	5949
1737.601	5952
1739.753	5982
1741.903	5890
1744.054	5942
1746.203	5908
1748.354	5857
1750.503	5972
1752.651	5899
1754.798	5869
1756.944	5962
1759.092	5921
1761.238	5949
1763.383	5894
1765.528	5942
1767.672	5888
1769.814	5851
1771.959	5960
1774.102	5859
1776.242	6026
1778.384	5938
1780.525	5932
1782.665	6004
1784.805	5960
1786.945	5896
1789.082	5871
1791.22	5862
1793.36	5945
1795.495	5983
1797.632	5989
1799.766	5980
1801.902	5968
1804.035	6033
1806.172	5940
1808.304	6014
1810.436	5901
1812.569	5847
1814.699	5992
1816.833	5963
1818.963	5972
1821.092	5906
1823.222	5816
1825.35	6079
1827.478	5860
1829.608	5950
1831.734	5943
1833.86	5889
1835.986	5942
1838.11	5828
1840.238	5956
1842.362	5899
1844.485	5810
1846.608	5923
1848.73	5886
1850.853	5883
1852.974	5988
1855.097	5931
1857.217	5869
1859.336	5812
1861.455	5742
1863.576	5905
1865.693	5841
1867.811	5801
1869.926	5911
1872.042	5774
1874.16	5743
1876.275	5902
1878.39	5895
1880.504	5853
1882.618	5864
1884.731	5892
1886.843	5933
1888.956	5843
1891.067	5901
1893.178	5986
1895.287	5911
1897.399	5945
1899.508	5997
1901.617	6029
1903.724	5872
1905.832	5997
1907.941	5846
1910.046	5850
1912.152	5945
1914.256	5971
1916.361	5955
1918.464	5957
1920.57	5877
1922.672	5951
1924.775	6048
1926.876	5960
1928.978	5998
1931.08	5947
1933.181	6003
1935.28	5972
1937.38	5930
1939.478	6028
1941.577	5936
1943.675	6081
1945.771	5964
1947.867	6026
1949.964	6031
1952.058	5970
1954.154	6045
1956.248	6016
1958.343	5885
1960.435	5946
1962.527	5942
1964.62	6022
1966.711	6033
1968.802	6007
1970.892	5958
1972.983	5979
1975.072	5979
1977.162	5931
1979.25	5929
1981.337	6013
1983.424	5972
1985.51	5954
1987.598	5914
1989.683	5898
1991.768	5913
1993.852	5892
1995.934	6018
1998.019	5951
2000.102	5909
2002.184	5814
2004.266	5958
2006.347	5940
2008.427	5945
2010.508	6016
2012.587	5979
2014.666	5937
2016.745	5922
2018.821	5976
2020.9	5911
2022.977	5945
2025.052	5935
2027.128	5996
2029.204	5963
2031.277	5822
2033.353	5997
2035.425	6063
2037.499	5864
2039.57	5947
2041.642	5873
2043.714	5850
2045.786	5870
2047.855	5891
2049.925	5948
2051.993	5872
2054.064	5831
2056.132	5857
2058.2	5963
2060.266	5944
2062.332	5927
2064.398	5837
2066.465	5879
2068.529	5916
2070.592	5814
2072.657	5969
2074.719	5837
2076.783	5944
2078.845	5872
2080.907	5781
2082.968	5854
2085.028	5865
2087.087	5906
2089.148	5820
2091.207	5901
2093.264	5867
2095.322	6013
2097.379	5912
2099.439	5897
2101.495	5904
2103.55	5850
2105.605	5863
2107.658	5847
2109.713	5969
2111.767	5839
2113.82	5882
2115.872	5829
2117.924	5896
2119.975	5831
2122.028	5924
2124.078	5940
2126.126	5772
2128.176	5886
2130.225	5845
2132.275	5905
2134.321	5958
2136.368	5902
2138.415	5828
2140.461	5969
2142.505	5952
2144.552	5750
2146.597	5835
2148.64	5886
2150.684	5777
2152.725	5877
2154.77	5837
2156.811	5908
2158.852	5920
2160.894	5772
2162.933	5771
2164.973	5864
2167.013	5759
2169.051	5840
2171.089	5727
2173.126	5745
2175.164	5921
2177.201	5748
2179.236	5952
2181.273	5829
2183.307	5804
2185.341	5797
2187.377	5744
2189.41	5764
2191.442	5844
2193.473	5780
2195.506	5869
2197.539	5749
2199.569	5774
2201.598	5853
2203.628	5778
2205.656	5776
2207.686	5719
2209.716	5721
2211.743	5808
2213.769	5772
2215.796	5778
2217.821	5791
2219.848	5801
2221.873	5690
2223.897	5762
2225.921	5754
2227.944	5684
2229.967	5775
2231.991	5783
2234.011	5703
2236.032	5686
2238.053	5706
2240.073	5702
2242.094	5693
2244.114	5756
2246.131	5714
2248.149	5730
2250.167	5696
2252.186	5680
2254.201	5642
2256.218	5682
2258.233	5726
2260.247	5650
2262.262	5720
2264.278	5746
2266.29	5743
2268.303	5690
2270.315	5787
2272.327	5746
2274.341	5669
2276.35	5642
2278.361	5652
2280.37	5747
2282.38	5722
2284.388	5662
2286.397	5659
2288.405	5781
2290.412	5567
2292.419	5737
2294.425	5739
2296.431	5597
2298.437	5713
2300.441	5709
2302.445	5786
2304.449	5608
2306.453	5718
2308.455	5567
2310.457	5754
2312.459	5771
2314.46	5678
2316.46	5625
2318.461	5676
2320.46	5703
2322.458	5675
2324.458	5658
2326.456	5659
2328.455	5587
2330.451	5550
2332.447	5595
2334.443	5687
2336.438	5593
2338.433	5636
2340.429	5629
2342.422	5612
2344.416	5699
2346.408	5679
2348.399	5638
2350.393	5561
2352.384	5493
2354.375	5607
2356.365	5461
2358.355	5626
2360.344	5611
2362.333	5623
2364.322	5575
2366.309	5555
2368.295	5502
2370.282	5626
2372.27	5547
2374.256	5569
2376.24	5606
2378.225	5488
2380.208	5584
2382.194	5488
2384.177	5556
2386.159	5559
2388.142	5537
2390.122	5600
2392.105	5523
2394.085	5551
2396.066	5489
2398.044	5382
2400.024	5602
2402.002	5530
2403.982	5440
2405.959	5437
2407.935	5561
2409.913	5476
2411.888	5470
2413.865	5483
2415.84	5450
2417.814	5500
2419.788	5599
2421.762	5469
2423.735	5500
2425.708	5570
2427.68	5425
2429.651	5480
2431.623	5507
2433.593	5499
2435.564	5511
2437.533	5523
2439.502	5449
2441.47	5488
2443.438	5602
2445.406	5461
2447.373	5498
2449.34	5501
2451.305	5458
2453.271	5440
2455.235	5378
2457.201	5573
2459.165	5494
2461.129	5480
2463.092	5374
2465.054	5597
2467.018	5600
2468.978	5448
2470.939	5351
2472.899	5380
2474.86	5540
2476.819	5331
2478.778	5372
2480.737	5455
2482.695	5297
2484.653	5428
2486.609	5456
2488.567	5416
2490.524	5437
2492.478	5450
2494.433	5390
2496.387	5368
2498.343	5446
2500.297	5288
2502.249	5439
2504.202	5436
2506.153	5363
2508.105	5332
2510.057	5354
2512.008	5296
2513.957	5424
2515.906	5327
2517.855	5418
2519.805	5300
2521.754	5466
2523.7	5401
2525.647	5352
2527.594	5324
2529.54	5417
2531.486	5322
2533.431	5345
2535.376	5338
2537.32	5406
2539.263	5403
2541.207	5337
2543.151	5287
2545.093	5394
2547.034	5326
2548.975	5386
2550.917	5183
2552.856	5428
2554.796	5428
2556.735	5459
2558.673	5358
2560.611	5383
2562.55	5306
2564.487	5344
2566.424	5290
2568.36	5272
2570.296	5331
2572.232	5437
2574.167	5468
2576.101	5313
2578.035	5318
2579.969	5464
2581.902	5259
2583.834	5355
2585.766	5370
2587.698	5471
2589.628	5354
2591.557	5381
2593.489	5449
2595.419	5366
2597.348	5302
2599.275	5398
2601.204	5379
2603.131	5296
2605.059	5385
2606.986	5306
2608.911	5430
2610.837	5286
2612.76	5342
2614.687	5369
2616.61	5384
2618.534	5402
2620.457	5385
2622.38	5380
2624.302	5388
2626.225	5397
2628.145	5278
2630.067	5397
2631.986	5297
2633.906	5450
2635.827	5243
2637.745	5300
2639.662	5289
2641.581	5308
2643.498	5456
2645.415	5420
2647.331	5388
2649.248	5223
2651.163	5395
2653.077	5272
2654.993	5329
2656.906	5393
2658.821	5435
2660.733	5346
2662.646	5324
2664.557	5431
2666.47	5315
2668.381	5382
2670.291	5388
2672.201	5228
2674.11	5444
2676.021	5362
2677.929	5370
2679.837	5297
2681.745	5386
2683.652	5359
2685.56	5273
2687.466	5347
2689.371	5362
2691.276	5270
2693.181	5325
2695.085	5251
2696.991	5274
2698.893	5292
2700.796	5296
2702.698	5327
2704.601	5217
2706.502	5319
2708.404	5174
2710.304	5248
2712.203	5214
2714.103	5222
2716.003	5306
2717.902	5246
2719.8	5200
2721.697	5251
2723.594	5268
2725.49	5312
2727.389	5313
2729.283	5152
2731.179	5207
2733.073	5364
2734.968	5169
2736.863	5239
2738.757	5144
2740.649	5284
2742.541	5267
2744.433	5251
2746.324	5253
2748.216	5289
2750.107	5186
2751.997	5251
2753.886	5258
2755.776	5242
2757.666	5351
2759.553	5166
2761.44	5241
2763.327	5237
2765.215	5180
2767.102	5171
2768.988	5269
2770.873	5241
2772.757	5231
2774.641	5156
2776.525	5190
2778.41	5185
2780.292	5262
2782.175	5196
2784.057	5238
2785.938	5186
2787.821	5191
2789.701	5144
2791.581	5112
2793.461	5154
2795.34	5106
2797.219	5198
2799.099	5185
2800.975	5169
2802.853	5211
2804.73	5131
2806.606	5212
2808.484	5220
2810.358	5113
2812.233	5126
2814.108	5176
2815.981	5241
2817.857	5111
2819.73	5072
2821.602	5203
2823.474	5125
2825.346	5237
2827.217	5182
2829.089	5046
2830.959	5189
2832.829	5133
2834.698	5121
2836.567	5137
2838.436	5221
2840.305	5210
2842.172	5207
2844.04	5196
2845.905	5177
2847.772	5153
2849.639	5141
2851.503	5064
2853.369	5163
2855.232	5216
2857.096	5182
2858.961	5282
2860.824	5196
2862.686	5289
2864.547	5339
2866.41	5386
2868.272	5324
2870.132	5451
2871.992	5518
2873.851	5444
2875.711	5596
2877.57	5595
2879.429	5624
2881.287	5623
2883.144	5580
2885.001	5645
2886.857	5674
2888.714	5695
2890.57	5664
2892.425	5658
2894.279	5607
2896.133	5684
2897.987	5639
2899.842	5695
2901.694	5601
2903.547	5575
2905.397	5641
2907.249	5622
2909.101	5731
2910.952	5604
2912.802	5650
2914.652	5766
2916.5	5747
2918.35	5879
2920.198	5906
2922.045	5818
2923.893	5900
2925.74	5934
2927.585	6029
2929.433	6157
2931.279	6104
2933.123	6176
2934.968	6156
2936.811	6273
2938.656	6165
2940.5	6169
2942.342	6311
2944.185	6431
2946.026	6390
2947.87	6315
2949.71	6445
2951.549	6380
2953.39	6139
2955.229	6266
2957.069	6198
2958.908	6220
2960.746	6148
2962.584	6088
2964.421	5903
2966.257	6013
2968.094	6027
2969.931	5846
2971.766	5910
2973.601	5695
2975.435	5809
2977.27	5854
2979.105	5771
2980.938	5768
2982.77	5637
2984.602	5723
2986.434	5561
2988.267	5594
2990.097	5648
2991.927	5484
2993.757	5505
2995.587	5629
2997.417	5440
2999.246	5391
3001.074	5335
3002.902	5323
3004.729	5190
3006.556	5242
3008.384	5247
3010.21	5185
3012.036	5096
3013.861	5152
3015.684	5108
3017.51	5087
3019.334	5046
3021.157	5038
3022.981	5014
3024.802	4988
3026.624	4926
3028.448	4904
3030.267	4955
3032.088	4909
3033.909	4996
3035.728	4903
3037.549	4945
3039.368	4957
3041.186	4924
3043.004	4932
3044.821	4868
3046.64	4789
3048.455	4887
3050.272	4795
3052.087	4849
3053.903	4815
3055.717	4885
3057.534	4848
3059.347	4776
3061.16	4775
3062.974	4848
3064.785	4922
3066.598	4878
3068.411	4886
3070.222	4788
3072.032	4863
3073.844	4708
3075.653	4896
3077.463	4849
3079.272	4857
3081.08	4721
3082.889	4777
3084.697	4767
3086.505	4891
3088.312	4692
3090.118	4760
3091.924	4655
3093.729	4691
3095.535	4663
3097.34	4753
3099.144	4737
3100.947	4725
3102.75	4675
3104.553	4703
3106.357	4643
3108.159	4638
3109.961	4623
3111.762	4625
3113.562	4646
3115.365	4688
3117.164	4708
3118.964	4695
3120.761	4628
3122.56	4681
3124.36	4658
3126.158	4697
3127.954	4543
3129.75	4611
3131.547	4630
3133.343	4588
3135.139	4571
3136.934	4562
3138.729	4599
3140.522	4610
3142.317	4602
3144.11	4509
3145.904	4594
3147.695	4567
3149.488	4624
3151.28	4588
3153.07	4551
3154.863	4683
3156.652	4582
3158.441	4518
3160.231	4517
3162.019	4531
3163.81	4569
3165.597	4580
3167.384	4585
3169.172	4563
3170.958	4525
3172.745	4533
3174.532	4509
3176.317	4590
3178.101	4602
3179.885	4448
3181.67	4582
3183.455	4513
3185.238	4508
3187.02	4509
3188.802	4490
3190.585	4490
3192.368	4417
3194.149	4479
3195.929	4448
3197.709	4502
3199.489	4520
3201.268	4579
3203.048	4481
3204.826	4573
3206.604	4465
3208.382	4399
3210.159	4452
3211.937	4473
3213.713	4413
3215.489	4490
3217.263	4403
3219.038	4488
3220.815	4439
3222.589	4431
3224.363	4478
3226.136	4466
3227.908	4497
3229.681	4554
3231.454	4549
3233.226	4476
3234.996	4435
3236.767	4511
3238.538	4416
3240.308	4427
3242.078	4362
3243.847	4486
3245.615	4436
3247.384	4448
3249.15	4490
3250.92	4420
3252.686	4460
3254.453	4532
3256.218	4460
3257.984	4444
3259.75	4568
3261.515	4459
3263.279	4499
3265.044	4465
3266.806	4563
3268.57	4466
3270.334	4401
3272.095	4456
3273.856	4424
3275.619	4523
3277.379	4501
3279.14	4499
3280.9	4483
3282.661	4520
3284.419	4434
3286.178	4490
3287.937	4546
3289.695	4395
3291.453	4572
3293.21	4522
3294.967	4449
3296.723	4496
3298.48	4464
3300.235	4391
3301.99	4435
3303.744	4450
3305.498	4505
3307.253	4416
3309.006	4435
3310.759	4406
3312.511	4495
3314.263	4478
3316.017	4484
3317.768	4421
3319.519	4514
3321.268	4547
3323.018	4469
3324.767	4422
3326.518	4444
3328.267	4472
3330.014	4435
3331.762	4457
3333.509	4477
3335.258	4484
3337.003	4487
3338.75	4505
3340.496	4440
3342.24	4438
3343.987	4482
3345.732	4403
3347.475	4440
3349.219	4455
3350.961	4381
3352.705	4407
3354.448	4429
3356.19	4320
3357.931	4369
3359.672	4309
3361.412	4429
3363.155	4366
3364.894	4426
3366.633	4390
3368.372	4352
3370.11	4399
3371.849	4361
3373.588	4362
3375.325	4322
3377.061	4403
3378.799	4237
3380.534	4345
3382.271	4356
3384.006	4315
3385.741	4324
3387.475	4318
3389.209	4426
3390.944	4293
3392.677	4310
3394.409	4277
3396.143	4346
3397.874	4343
3399.606	4291
3401.338	4337
3403.069	4275
3404.799	4242
3406.528	4246
3408.258	4306
3409.988	4296
3411.717	4284
3413.445	4216
3415.173	4207
3416.899	4299
3418.626	4371
3420.354	4208
3422.08	4258
3423.806	4290
3425.531	4194
3427.255	4158
3428.981	4273
3430.705	4279
3432.429	4165
3434.151	4207
3435.875	4188
3437.599	4202
3439.321	4241
3441.042	4249
3442.763	4184
3444.483	4137
3446.204	4185
3447.926	4168
3449.645	4180
3451.364	4115
3453.082	4144
3454.801	4142
3456.52	4203
3458.238	4138
3459.954	4166
3461.671	4114
3463.387	4107
3465.104	4153
3466.82	4039
3468.534	4113
3470.25	4068
3471.963	4126
3473.676	4119
3475.392	4132
3477.104	4082
3478.817	4027
3480.528	4106
3482.241	3992
3483.954	4090
3485.664	4130
3487.374	4028
3489.084	4017
3490.795	4021
3492.504	4082
3494.214	3985
3495.922	4049
3497.63	3989
3499.338	3997
3501.045	3999
3502.753	3891
3504.459	3940
3506.166	3979
3507.871	3951
3509.576	3953
3511.283	4021
3512.987	3991
3514.691	3968
3516.395	3980
3518.098	3873
3519.8	3916
3521.504	3916
3523.206	3950
3524.908	3895
3526.609	3848
3528.309	3903
3530.011	4019
3531.711	4019
3533.411	3905
3535.109	3878
3536.808	3912
3538.507	3880
3540.206	3904
3541.904	3858
3543.601	3847
3545.297	3840
3546.994	3889
3548.69	3849
3550.387	3842
3552.081	3927
3553.776	3954
3555.47	3866
3557.166	3876
3558.859	3904
3560.553	3828
3562.245	3794
3563.938	3860
3565.629	3808
3567.322	3791
3569.014	3804
3570.704	3803
3572.394	3852
3574.084	3886
3575.775	3775
3577.464	3782
3579.152	3759
3580.842	3770
3582.529	3748
3584.216	3728
3585.905	3706
3587.591	3813
3589.279	3763
3590.964	3728
3592.649	3778
3594.336	3715
3596.021	3714
3597.705	3719
3599.388	3749
3601.072	3700
3602.757	3737
3604.439	3778
3606.122	3665
3607.803	3765
3609.485	3663
3611.167	3735
3612.849	3686
3614.529	3651
3616.208	3702
3617.888	3735
3619.567	3690
3621.247	3684
3622.926	3708
3624.603	3595
3626.281	3655
3627.958	3589
3629.635	3665
3631.312	3650
3632.989	3550
3634.665	3604
3636.339	3519
3638.014	3621
3639.691	3481
3641.364	3610
3643.038	3552
3644.71	3602
3646.384	3706
3648.058	3590
3649.729	3614
3651.402	3577
3653.073	3507
3654.744	3546
3656.414	3511
3658.085	3591
3659.755	3544
3661.424	3570
3663.094	3529
3664.762	3565
3666.431	3522
3668.099	3525
3669.766	3475
3671.433	3537
3673.099	3537
3674.768	3470
3676.433	3504
3678.098	3581
3679.763	3491
3681.428	3536
3683.093	3522
3684.757	3435
3686.421	3471
3688.083	3484
3689.746	3579
3691.408	3529
3693.071	3501
3694.733	3439
3696.394	3517
3698.054	3525
3699.715	3434
3701.375	3474
3703.036	3537
3704.695	3391
3706.354	3376
3708.012	3479
3709.67	3379
3711.329	3459
3712.987	3483
3714.644	3440
3716.299	3475
3717.955	3412
3719.613	3408
3721.268	3375
3722.923	3438
3724.577	3447
3726.231	3436
3727.885	3450
3729.539	3467
3731.192	3477
3732.845	3408
3734.497	3428
3736.149	3405
3737.802	3337
3739.453	3441
3741.104	3372
3742.753	3429
3744.404	3349
3746.052	3407
3747.704	3319
3749.352	3349
3751	3303
3752.648	3426
3754.296	3340
3755.944	3265
3757.59	3327
3759.238	3403
3760.883	3365
3762.528	3324
3764.176	3369
3765.82	3390
3767.464	3323
3769.109	3336
3770.753	3300
3772.396	3299
3774.04	3377
3775.683	3263
3777.325	3344
3778.967	3301
3780.608	3393
3782.25	3329
3783.89	3270
3785.531	3270
3787.17	3286
3788.81	3330
3790.45	3336
3792.09	3258
3793.729	3252
3795.366	3287
3797.003	3268
3798.64	3312
3800.278	3243
3801.915	3292
3803.551	3261
3805.187	3331
3806.822	3244
3808.458	3270
3810.093	3255
3811.726	3293
3813.36	3303
3814.994	3299
3816.627	3311
3818.262	3215
3819.893	3240
3821.525	3224
3823.157	3189
3824.787	3259
3826.42	3225
3828.051	3236
3829.68	3235
3831.31	3261
3832.938	3162
3834.569	3137
3836.198	3227
3837.825	3206
3839.454	3234
3841.08	3147
3842.708	3217
3844.335	3194
3845.962	3188
3847.587	3163
3849.212	3142
3850.838	3129
3852.463	3244
3854.089	3135
3855.712	3096
3857.335	3103
3858.959	3146
3860.582	3124
3862.205	3180
3863.827	3160
3865.449	3094
3867.07	3158
3868.691	3141
3870.312	3135
3871.933	3171
3873.553	3223
3875.173	3188
3876.792	3067
3878.411	3144
3880.03	3151
3881.647	3127
3883.265	3104
3884.882	3095
3886.499	3083
3888.116	3098
3889.732	3142
3891.348	3158
3892.964	3171
3894.579	3055
3896.195	3177
3897.809	3139
3899.423	3097
3901.036	3133
3902.648	3184
3904.261	3130
3905.875	3106
3907.487	3011
3909.099	3115
3910.709	3046
3912.321	3140
3913.933	3092
3915.542	3122
3917.152	3078
3918.762	3141
3920.37	3086
3921.98	3060
3923.589	3063
3925.196	3069
3926.804	3067
3928.41	3074
3930.018	3188
3931.626	3053
3933.231	2992
3934.838	3037
3936.442	3054
3938.046	3031
3939.653	3087
3941.257	2955
3942.861	3021
3944.464	2986
3946.068	3012
3947.67	3096
3949.273	3019
3950.876	2994
3952.477	3022
3954.078	3012
3955.678	3028
3957.281	2977
3958.881	3044
3960.48	3029
3962.079	2989
3963.678	3017
3965.279	3015
3966.877	3010
3968.475	3034
3970.072	2955
3971.669	3040
3973.266	3041
3974.864	2969
3976.459	2991
3978.055	3014
3979.65	2988
3981.245	2984
3982.841	3013
3984.436	2937
3986.03	2975
3987.623	2936
3989.216	2853
3990.809	2971
3992.403	2933
3993.995	2958
3995.586	2950
3997.177	2899
3998.768	2885
4000.361	2953
4001.951	2880
4003.54	2903
4005.13	2905
4006.719	2899
4008.31	2926
4009.897	2888
4011.485	2889
4013.073	2913
4014.66	2898
4016.247	2843
4017.834	2856
4019.421	2904
4021.006	2879
4022.592	2779
4024.178	2961
4025.763	2948
4027.348	2868
4028.932	2849
4030.515	2790
4032.099	2874
4033.682	2875
4035.266	2916
4036.847	2796
4038.429	2802
4040.011	2874
4041.592	2886
4043.173	2838
4044.755	2845
4046.334	2826
4047.913	2861
4049.494	2890
4051.074	2810
4052.652	2726
4054.23	2773
4055.807	2803
4057.385	2855
4058.963	2808
4060.541	2806
4062.117	2794
4063.693	2810
4065.269	2763
4066.844	2836
4068.42	2833
4069.995	2781
4071.569	2767
4073.143	2808
4074.716	2821
4076.291	2848
4077.864	2738
4079.436	2781
4081.009	2805
4082.58	2810
4084.152	2769
4085.723	2774
4087.294	2811
4088.865	2745
4090.435	2785
4092.005	2805
4093.574	2758
4095.143	2799
4096.712	2770
4098.279	2765
4099.848	2722
4101.416	2753
4102.984	2741
4104.55	2712
4106.117	2782
4107.682	2681
4109.248	2740
4110.815	2743
4112.379	2779
4113.945	2755
4115.508	2781
4117.073	2721
4118.637	2728
4120.201	2734
4121.763	2718
4123.325	2675
4124.888	2707
4126.449	2754
4128.013	2603
4129.573	2669
4131.133	2733
4132.694	2645
4134.254	2667
4135.814	2687
4137.374	2776
4138.933	2665
4140.491	2677
4142.049	2693
4143.607	2702
4145.167	2673
4146.724	2663
4148.28	2660
4149.836	2608
4151.392	2690
4152.949	2702
4154.504	2640
4156.059	2610
4157.614	2605
4159.168	2636
4160.723	2617
4162.277	2614
4163.83	2665
4165.383	2673
4166.936	2592
4168.488	2635
4170.041	2580
4171.593	2590
4173.144	2606
4174.695	2602
4176.246	2563
4177.796	2572
4179.346	2542
4180.896	2645
4182.445	2616
4183.994	2592
4185.542	2575
4187.091	2584
4188.639	2560
4190.185	2556
4191.732	2652
4193.279	2566
4194.826	2550
4196.373	2614
4197.918	2589
4199.463	2551
4201.008	2532
4202.553	2561
4204.098	2603
4205.641	2507
4207.185	2526
4208.728	2527
4210.271	2561
4211.814	2517
4213.357	2559
4214.898	2560
4216.439	2528
4217.98	2582
4219.522	2461
4221.062	2532
4222.603	2557
4224.142	2482
4225.681	2529
4227.222	2484
4228.76	2497
4230.298	2567
4231.835	2502
4233.373	2494
4234.911	2417
4236.449	2449
4237.985	2562
4239.521	2511
4241.057	2572
4242.592	2485
4244.128	2485
4245.663	2533
4247.197	2497
4248.731	2524
4250.265	2537
4251.798	2480
4253.333	2490
4254.865	2419
4256.397	2504
4257.93	2424
4259.461	2534
4260.994	2484
4262.525	2466
4264.056	2482
4265.586	2497
4267.115	2443
4268.646	2500
4270.176	2491
4271.705	2446
4273.232	2489
4274.761	2460
4276.289	2332
4277.818	2439
4279.345	2416
4280.872	2474
4282.399	2459
4283.924	2459
4285.452	2464
4286.976	2383
4288.502	2417
4290.026	2432
4291.551	2467
4293.074	2442
4294.6	2376
4296.123	2423
4297.646	2438
4299.168	2396
4300.691	2452
4302.214	2409
4303.736	2419
4305.257	2412
4306.778	2394
4308.299	2425
4309.82	2376
4311.34	2406
4312.86	2359
4314.379	2367
