400.0745	4952
402.597	5018
405.1208	4857
407.6419	4972
410.1623	4958
412.6819	5042
415.201	5052
417.7172	5137
420.2369	5025
422.7538	5008
425.2701	5148
427.7856	5174
430.3005	5124
432.8147	5144
435.3282	5169
437.841	5247
440.3511	5330
442.8625	5194
445.3753	5251
447.8854	5345
450.3927	5198
452.9014	5341
455.4073	5244
457.9146	5271
460.4233	5295
462.9272	5369
465.4325	5321
467.935	5408
470.4389	5302
472.9421	5370
475.4446	5272
477.9444	5449
480.4456	5379
482.944	5411
485.4417	5373
487.9429	5432
490.4393	5359
492.935	5450
495.4321	5407
497.9264	5388
500.4221	5570
502.9171	5288
505.4094	5469
507.9011	5503
510.392	5446
512.8864	5622
515.3759	5576
517.8649	5531
520.3531	5505
522.8406	5500
525.3275	5623
527.8178	5598
530.3033	5619
532.7881	5556
535.2723	5512
537.7558	5617
540.2407	5572
542.7228	5543
545.2043	5483
547.6851	5585
550.1652	5632
552.6467	5558
555.1255	5520
557.6016	5501
560.079	5639
562.5557	5584
565.0318	5669
567.5092	5663
569.984	5690
572.456	5645
574.9294	5648
577.4022	5835
579.8762	5769
582.3456	5845
584.8163	5713
587.2863	5771
589.7557	5834
592.2224	5874
594.6924	5710
597.1578	5793
599.6245	5770
602.0905	5795
604.5538	5822
607.0206	5868
609.4825	5745
611.9459	5738
614.4066	5788
616.8686	5730
619.33	5767
621.7906	5737
624.2487	5758
626.708	5877
629.1647	5839
631.6207	5825
634.0801	5771
636.5348	5809
638.9888	5730
641.4442	5899
643.8969	5805
646.3509	5796
648.8022	5801
651.255	5816
653.705	5930
656.1544	5915
658.6031	5856
661.0532	5903
663.5026	5851
665.9493	5958
668.3954	5911
670.8409	5983
673.2877	5939
675.7318	5989
678.1752	5953
680.618	5964
683.0601	6018
685.5035	5945
687.9444	6132
690.3845	5943
692.824	6084
695.2628	6073
697.701	5982
700.1406	6055
702.5774	5991
705.0116	6061
707.4472	6086
709.8821	6005
712.3183	6166
714.7519	6041
717.1829	6043
719.6151	6127
722.0468	5971
724.4777	6278
726.908	6190
729.3377	6226
731.7667	6136
734.1931	6175
736.6208	6216
739.0498	6237
741.4742	6203
743.9	6234
746.3231	6182
748.7476	6328
751.1713	6288
753.5945	6360
756.015	6542
758.4368	6343
760.856	6304
763.2766	6396
765.6965	6327
768.1157	6517
770.5323	6387
772.9483	6312
775.3656	6448
777.7822	6480
780.1963	6456
782.6116	6412
785.0244	6431
787.4365	6500
789.8499	6408
792.2626	6359
794.6728	6486
797.0823	6461
799.4911	6450
801.8994	6525
804.3109	6462
806.7178	6509
809.124	6535
811.5297	6444
813.9347	6430
816.341	6523
818.7447	6533
821.1478	6474
823.5502	6552
825.952	6531
828.3531	6477
830.7556	6433
833.1554	6585
835.5546	6496
837.9532	6612
840.3511	6499
842.7504	6639
845.1451	6505
847.5411	6631
849.9365	6544
852.3312	6627
854.7272	6662
857.1187	6651
859.5115	6609
861.9037	6590
864.2952	6660
866.6842	6564
869.0764	6628
871.4661	6596
873.8531	6564
876.2415	6664
878.6272	6570
881.0162	6644
883.4026	6547
885.7866	6621
888.1717	6555
890.5543	6685
892.9382	6585
895.3215	6449
897.7041	6583
900.0842	6683
902.4655	6560
904.8443	6600
907.2244	6622
909.6039	6628
911.9808	6618
914.357	6702
916.7346	6699
919.1115	6755
921.4859	6700
923.8616	6856
926.2347	6833
928.6071	6820
930.979	6863
933.3541	6853
935.7247	6806
938.0946	6889
940.4639	7032
942.8326	6976
945.2026	6994
947.5701	7083
949.9369	7293
952.305	7355
954.6705	7410
957.0355	7751
959.4017	8036
961.7654	7986
964.1284	7906
966.4908	7847
968.8527	7409
971.2138	7459
973.5743	7298
975.9343	7032
978.2936	6953
980.6522	6922
983.0122	6900
985.3696	6858
987.7245	6901
990.0807	6882
992.4362	6811
994.7911	6838
997.1474	6825
999.4991	6816
1001.852	6889
1004.205	6791
1006.555	6859
1008.908	6862
1011.258	6829
1013.606	6918
1015.956	6824
1018.302	6873
1020.652	6907
1022.998	6835
1025.345	6824
1027.691	6875
1030.035	6905
1032.378	6866
1034.724	6865
1037.066	6883
1039.409	6965
1041.75	6975
1044.092	6835
1046.433	6977
1048.771	6912
1051.112	6947
1053.449	6895
1055.786	6917
1058.124	7041
1060.462	6973
1062.797	6942
1065.131	6989
1067.467	7113
1069.8	7114
1072.135	7100
1074.467	7005
1076.798	6967
1079.129	6936
1081.459	7147
1083.792	6935
1086.121	6964
1088.449	6966
1090.777	6974
1093.104	7022
1095.431	7062
1097.759	6989
1100.084	7045
1102.408	7090
1104.732	6955
1107.056	7050
1109.379	6963
1111.701	7003
1114.022	7123
1116.343	6969
1118.664	7075
1120.983	6945
1123.303	7079
1125.621	6997
1127.939	7053
1130.256	7124
1132.573	7046
1134.889	7072
1137.205	7171
1139.52	7121
1141.832	7032
1144.146	7015
1146.461	7126
1148.771	6944
1151.083	7095
1153.392	7122
1155.703	7003
1158.011	7148
1160.323	7071
1162.629	7073
1164.938	7009
1167.243	7001
1169.55	7015
1171.857	7031
1174.163	6985
1176.466	7022
1178.769	7033
1181.073	7094
1183.374	6897
1185.677	6989
1187.979	7091
1190.279	7066
1192.578	7033
1194.878	7096
1197.178	7006
1199.476	6994
1201.772	7074
1204.068	7098
1206.366	6916
1208.663	7022
1210.957	6985
1213.251	7012
1215.544	6956
1217.836	7067
1220.128	7198
1222.421	7140
1224.712	7174
1227.002	7109
1229.292	7099
1231.581	7199
1233.871	7253
1236.159	7264
1238.446	7091
1240.732	7214
1243.018	7204
1245.304	7278
1247.59	7207
1249.874	7315
1252.156	7189
1254.439	7274
1256.721	7226
1259.005	7212
1261.286	7249
1263.565	7189
1265.845	7368
1268.125	7237
1270.403	7198
1272.682	7228
1274.959	7398
1277.234	7143
1279.511	7145
1281.787	7243
1284.062	7260
1286.337	7249
1288.609	7311
1290.882	7221
1293.153	7255
1295.428	7199
1297.698	7267
1299.969	7142
1302.237	7161
1304.507	7141
1306.777	7353
1309.044	7216
1311.312	7230
1313.578	7224
1315.844	7133
1318.109	7202
1320.375	7139
1322.638	7174
1324.903	7152
1327.165	7148
1329.427	7187
1331.69	7113
1333.952	7170
1336.212	7058
1338.471	7236
1340.73	7304
1342.988	7206
1345.248	7173
1347.505	7228
1349.763	7139
1352.019	7232
1354.274	7169
1356.53	7238
1358.784	7150
1361.038	7261
1363.291	7197
1365.543	7199
1367.797	7225
1370.048	7163
1372.296	7114
1374.546	7245
1376.796	7238
1379.045	7288
1381.295	7227
1383.542	7254
1385.787	7246
1388.034	7195
1390.28	7326
1392.527	7459
1394.772	7383
1397.014	7174
1399.258	7316
1401.501	7335
1403.741	7259
1405.985	7233
1408.226	7167
1410.465	7299
1412.705	7329
1414.943	7239
1417.184	7293
1419.42	7473
1421.658	7357
1423.894	7384
1426.13	7486
1428.366	7457
1430.602	7415
1432.835	7316
1435.069	7369
1437.301	7350
1439.535	7486
1441.767	7468
1443.997	7473
1446.229	7454
1448.458	7463
1450.687	7446
1452.916	7455
1455.146	7539
1457.372	7475
1459.599	7329
1461.824	7356
1464.051	7454
1466.277	7528
1468.501	7423
1470.725	7393
1472.948	7453
1475.17	7408
1477.393	7324
1479.614	7322
1481.837	7360
1484.057	7251
1486.276	7362
1488.497	7273
1490.715	7363
1492.932	7221
1495.148	7338
1497.364	7319
1499.58	7271
1501.798	7191
1504.012	7113
1506.227	7228
1508.44	7272
1510.653	7236
1512.866	7213
1515.078	7235
1517.289	7205
1519.5	7123
1521.711	7076
1523.92	7264
1526.13	7281
1528.338	7171
1530.544	7165
1532.752	7172
1534.959	7319
1537.165	7235
1539.371	7310
1541.574	7227
1543.779	7249
1545.983	7195
1548.187	7241
1550.39	7297
1552.59	7313
1554.792	7440
1556.991	7250
1559.19	7363
1561.392	7288
1563.59	7262
1565.789	7285
1567.986	7415
1570.182	7362
1572.381	7394
1574.576	7368
1576.771	7343
1578.966	7487
1581.16	7316
1583.354	7433
1585.546	7468
1587.74	7465
1589.931	7354
1592.121	7456
1594.311	7457
1596.502	7344
1598.693	7475
1600.881	7343
1603.069	7410
1605.256	7366
1607.445	7377
1609.631	7436
1611.816	7427
1614.001	7480
1616.186	7426
1618.37	7435
1620.555	7416
1622.737	7470
1624.919	7496
1627.101	7427
1629.282	7506
1631.463	7615
1633.643	7541
1635.822	7394
1638.001	7505
1640.179	7470
1642.359	7418
1644.534	7559
1646.711	7523
1648.887	7467
1651.062	7541
1653.235	7466
1655.412	7461
1657.586	7575
1659.757	7506
1661.93	7378
1664.1	7429
1666.274	7461
1668.445	7602
1670.614	7561
1672.784	7527
1674.951	7539
1677.12	7618
1679.289	7626
1681.457	7425
1683.622	7639
1685.789	7467
1687.953	7547
1690.121	7427
1692.284	7556
1694.447	7414
1696.611	7398
1698.772	7461
1700.935	7439
1703.098	7445
1705.258	7502
1707.417	7426
1709.576	7422
1711.736	7428
1713.896	7410
1716.053	7367
1718.21	7301
1720.366	7432
1722.522	7383
1724.68	7477
1726.835	7315
1728.989	7439
1731.142	7383
1733.295	7494
1735.449	7418
1737.601	7382
1739.753	7305
1741.903	7470
1744.054	7486
1746.203	7428
1748.354	7409
1750.503	7350
1752.651	7488
1754.798	7431
1756.944	7392
1759.092	7364
1761.238	7336
1763.383	7399
1765.528	7368
1767.672	7395
1769.814	7406
1771.959	7410
1774.102	7564
1776.242	7420
1778.384	7371
1780.525	7421
1782.665	7323
1784.805	7401
1786.945	7438
1789.082	7431
1791.22	7552
1793.36	7374
1795.495	7362
1797.632	7512
1799.766	7439
1801.902	7497
1804.035	7567
1806.172	7512
1808.304	7533
1810.436	7504
1812.569	7441
1814.699	7398
1816.833	7326
1818.963	7518
1821.092	7534
1823.222	7336
1825.35	7501
1827.478	7399
1829.608	7382
1831.734	7409
1833.86	7515
1835.986	7517
1838.11	7352
1840.238	7421
1842.362	7493
1844.485	7326
1846.608	7348
1848.73	7321
1850.853	7329
1852.974	7410
1855.097	7302
1857.217	7400
1859.336	7368
1861.455	7373
1863.576	7455
1865.693	7343
1867.811	7345
1869.926	7430
1872.042	7284
1874.16	7438
1876.275	7357
1878.39	7395
1880.504	7342
1882.618	7261
1884.731	7349
1886.843	7329
1888.956	7304
1891.067	7403
1893.178	7427
1895.287	7392
1897.399	7358
1899.508	7529
1901.617	7389
1903.724	7258
1905.832	7468
1907.941	7345
1910.046	7513
1912.152	7478
1914.256	7521
1916.361	7527
1918.464	7552
1920.57	7447
1922.672	7476
1924.775	7407
1926.876	7471
1928.978	7469
1931.08	7433
1933.181	7448
1935.28	7493
1937.38	7482
1939.478	7493
1941.577	7420
1943.675	7491
1945.771	7547
1947.867	7471
1949.964	7473
1952.058	7473
1954.154	7401
1956.248	7486
1958.343	7429
1960.435	7388
1962.527	7493
1964.62	7335
1966.711	7391
1968.802	7412
1970.892	7347
1972.983	7381
1975.072	7416
1977.162	7465
1979.25	7509
1981.337	7439
1983.424	7395
1985.51	7434
1987.598	7352
1989.683	7495
1991.768	7342
1993.852	7374
1995.934	7461
1998.019	7337
2000.102	7462
2002.184	7476
2004.266	7407
2006.347	7314
2008.427	7313
2010.508	7387
2012.587	7369
2014.666	7510
2016.745	7338
2018.821	7349
2020.9	7351
2022.977	7377
2025.052	7301
2027.128	7366
2029.204	7339
2031.277	7409
2033.353	7420
2035.425	7526
2037.499	7342
2039.57	7311
2041.642	7310
2043.714	7367
2045.786	7389
2047.855	7454
2049.925	7368
2051.993	7459
2054.064	7294
2056.132	7411
2058.2	7381
2060.266	7507
2062.332	7301
2064.398	7332
2066.465	7293
2068.529	7475
2070.592	7366
2072.657	7319
2074.719	7303
2076.783	7405
2078.845	7267
2080.907	7377
2082.968	7421
2085.028	7470
2087.087	7329
2089.148	7390
2091.207	7311
2093.264	7418
2095.322	7383
2097.379	7364
2099.439	7235
2101.495	7392
2103.55	7348
2105.605	7327
2107.658	7478
2109.713	7390
2111.767	7443
2113.82	7380
2115.872	7357
2117.924	7320
2119.975	7449
2122.028	7298
2124.078	7369
2126.126	7394
2128.176	7335
2130.225	7332
2132.275	7305
2134.321	7327
2136.368	7365
2138.415	7348
2140.461	7297
2142.505	7361
2144.552	7357
2146.597	7280
2148.64	7431
2150.684	7281
2152.725	7287
2154.77	7155
2156.811	7389
2158.852	7223
2160.894	7255
2162.933	7323
2164.973	7237
2167.013	7375
2169.051	7207
2171.089	7240
2173.126	7274
2175.164	7337
2177.201	7106
2179.236	7325
2181.273	7279
2183.307	7249
2185.341	7314
2187.377	7232
2189.41	7212
2191.442	7249
2193.473	7291
2195.506	7216
2197.539	7250
2199.569	7152
2201.598	7252
2203.628	7096
2205.656	7146
2207.686	7090
2209.716	7146
2211.743	7215
2213.769	7186
2215.796	7152
2217.821	7109
2219.848	7178
2221.873	7020
2223.897	7125
2225.921	7098
2227.944	7082
2229.967	7068
2231.991	7088
2234.011	7081
2236.032	7055
2238.053	6954
2240.073	7095
2242.094	7155
2244.114	7039
2246.131	7054
2248.149	7174
2250.167	7057
2252.186	7022
2254.201	7064
2256.218	7088
2258.233	7064
2260.247	7144
2262.262	7075
2264.278	7234
2266.29	7194
2268.303	6959
2270.315	7060
2272.327	7077
2274.341	7111
2276.35	7131
2278.361	7136
2280.37	6952
2282.38	7053
2284.388	7083
2286.397	7138
2288.405	7019
2290.412	7103
2292.419	7078
2294.425	7004
2296.431	7118
2298.437	7012
2300.441	7117
2302.445	7166
2304.449	7032
2306.453	7033
2308.455	6961
2310.457	7042
2312.459	7112
2314.46	6961
2316.46	7071
2318.461	6884
2320.46	7077
2322.458	6917
2324.458	6998
2326.456	7051
2328.455	6915
2330.451	6914
2332.447	7027
2334.443	6949
2336.438	7026
2338.433	6889
2340.429	6966
2342.422	6962
2344.416	6970
2346.408	6961
2348.399	6874
2350.393	6854
2352.384	6884
2354.375	6883
2356.365	6852
2358.355	6848
2360.344	6867
2362.333	6973
2364.322	6901
2366.309	6899
2368.295	6915
2370.282	6782
2372.27	6888
2374.256	6932
2376.24	6881
2378.225	6827
2380.208	6906
2382.194	6856
2384.177	6887
2386.159	6797
2388.142	6770
2390.122	6858
2392.105	6815
2394.085	6863
2396.066	6794
2398.044	6804
2400.024	6806
2402.002	6694
2403.982	6792
2405.959	6728
2407.935	6853
2409.913	6917
2411.888	6793
2413.865	6758
2415.84	6804
2417.814	6821
2419.788	6856
2421.762	6856
2423.735	6736
2425.708	6779
2427.68	6816
2429.651	6746
2431.623	6748
2433.593	6745
2435.564	6725
2437.533	6765
2439.502	6700
2441.47	6853
2443.438	6724
2445.406	6824
2447.373	6596
2449.34	6780
2451.305	6739
2453.271	6754
2455.235	6806
2457.201	6755
2459.165	6782
2461.129	6656
2463.092	6820
2465.054	6682
2467.018	6728
2468.978	6598
2470.939	6809
2472.899	6706
2474.86	6690
2476.819	6658
2478.778	6699
2480.737	6770
2482.695	6709
2484.653	6590
2486.609	6648
2488.567	6678
2490.524	6690
2492.478	6783
2494.433	6757
2496.387	6664
2498.343	6681
2500.297	6703
2502.249	6625
2504.202	6759
2506.153	6731
2508.105	6632
2510.057	6540
2512.008	6687
2513.957	6706
2515.906	6738
2517.855	6598
2519.805	6725
2521.754	6660
2523.7	6593
2525.647	6681
2527.594	6556
2529.54	6519
2531.486	6499
2533.431	6611
2535.376	6664
2537.32	6542
2539.263	6470
2541.207	6619
2543.151	6702
2545.093	6596
2547.034	6591
2548.975	6736
2550.917	6715
2552.856	6539
2554.796	6568
2556.735	6571
2558.673	6478
2560.611	6515
2562.55	6576
2564.487	6674
2566.424	6605
2568.36	6540
2570.296	6514
2572.232	6516
2574.167	6649
2576.101	6612
2578.035	6496
2579.969	6565
2581.902	6608
2583.834	6551
2585.766	6544
2587.698	6583
2589.628	6534
2591.557	6567
2593.489	6693
2595.419	6614
2597.348	6514
2599.275	6644
2601.204	6556
2603.131	6643
2605.059	6483
2606.986	6597
2608.911	6541
2610.837	6633
2612.76	6569
2614.687	6719
2616.61	6615
2618.534	6581
2620.457	6548
2622.38	6582
2624.302	6653
2626.225	6578
2628.145	6690
2630.067	6592
2631.986	6547
2633.906	6558
2635.827	6609
2637.745	6531
2639.662	6672
2641.581	6490
2643.498	6546
2645.415	6560
2647.331	6646
2649.248	6563
2651.163	6590
2653.077	6630
2654.993	6528
2656.906	6592
2658.821	6690
2660.733	6539
2662.646	6571
2664.557	6558
2666.47	6606
2668.381	6453
2670.291	6535
2672.201	6556
2674.11	6494
2676.021	6589
2677.929	6510
2679.837	6634
2681.745	6561
2683.652	6551
2685.56	6506
2687.466	6554
2689.371	6579
2691.276	6468
2693.181	6479
2695.085	6519
2696.991	6457
2698.893	6456
2700.796	6457
2702.698	6490
2704.601	6475
2706.502	6496
2708.404	6520
2710.304	6414
2712.203	6457
2714.103	6541
2716.003	6354
2717.902	6469
2719.8	6406
2721.697	6368
2723.594	6518
2725.49	6501
2727.389	6463
2729.283	6339
2731.179	6501
2733.073	6432
2734.968	6400
2736.863	6320
2738.757	6486
2740.649	6363
2742.541	6302
2744.433	6512
2746.324	6344
2748.216	6369
2750.107	6394
2751.997	6485
2753.886	6312
2755.776	6284
2757.666	6513
2759.553	6319
2761.44	6282
2763.327	6316
2765.215	6324
2767.102	6441
2768.988	6369
2770.873	6346
2772.757	6307
2774.641	6342
2776.525	6353
2778.41	6288
2780.292	6349
2782.175	6327
2784.057	6234
2785.938	6269
2787.821	6361
2789.701	6375
2791.581	6290
2793.461	6292
2795.34	6335
2797.219	6272
2799.099	6264
2800.975	6242
2802.853	6325
2804.73	6137
2806.606	6238
2808.484	6210
2810.358	6353
2812.233	6192
2814.108	6356
2815.981	6274
2817.857	6183
2819.73	6381
2821.602	6200
2823.474	6253
2825.346	6179
2827.217	6231
2829.089	6173
2830.959	6189
2832.829	6272
2834.698	6242
2836.567	6285
2838.436	6195
2840.305	6128
2842.172	6248
2844.04	6237
2845.905	6288
2847.772	6141
2849.639	6230
2851.503	6235
2853.369	6193
2855.232	6211
2857.096	6247
2858.961	6222
2860.824	6275
2862.686	6174
2864.547	6191
2866.41	6300
2868.272	6304
2870.132	6191
2871.992	6453
2873.851	6325
2875.711	6461
2877.57	6414
2879.429	6388
2881.287	6408
2883.144	6463
2885.001	6546
2886.857	6393
2888.714	6428
2890.57	6507
2892.425	6568
2894.279	6361
2896.133	6396
2897.987	6379
2899.842	6476
2901.694	6339
2903.547	6323
2905.397	6361
2907.249	6334
2909.101	6360
2910.952	6414
2912.802	6446
2914.652	6542
2916.5	6450
2918.35	6529
2920.198	6448
2922.045	6520
2923.893	6706
2925.74	6742
2927.585	6775
2929.433	6700
2931.279	6662
2933.123	6766
2934.968	6796
2936.811	6782
2938.656	6748
2940.5	6888
2942.342	6814
2944.185	6859
2946.026	6869
2947.87	6869
2949.71	6985
2951.549	6872
2953.39	6777
2955.229	6800
2957.069	6694
2958.908	6722
2960.746	6704
2962.584	6649
2964.421	6520
2966.257	6592
2968.094	6555
2969.931	6467
2971.766	6459
2973.601	6363
2975.435	6487
2977.27	6510
2979.105	6489
2980.938	6368
2982.77	6411
2984.602	6329
2986.434	6360
2988.267	6443
2990.097	6360
2991.927	6401
2993.757	6311
2995.587	6235
2997.417	6256
2999.246	6272
3001.074	6225
3002.902	6133
3004.729	6103
3006.556	6118
3008.384	6002
3010.21	6107
3012.036	6054
3013.861	5995
3015.684	5903
3017.51	5943
3019.334	5950
3021.157	5941
3022.981	6003
3024.802	5800
3026.624	5971
3028.448	5909
3030.267	5975
3032.088	5895
3033.909	5898
3035.728	5855
3037.549	5761
3039.368	5747
3041.186	5763
3043.004	5877
3044.821	5962
3046.64	5813
3048.455	5842
3050.272	5871
3052.087	5758
3053.903	5906
3055.717	5745
3057.534	5795
3059.347	5771
3061.16	5923
3062.974	5761
3064.785	5734
3066.598	5709
3068.411	5735
3070.222	5725
3072.032	5680
3073.844	5727
3075.653	5712
3077.463	5672
3079.272	5712
3081.08	5756
3082.889	5701
3084.697	5635
3086.505	5650
3088.312	5647
3090.118	5601
3091.924	5502
3093.729	5746
3095.535	5588
3097.34	5578
3099.144	5666
3100.947	5536
3102.75	5576
3104.553	5595
3106.357	5679
3108.159	5519
3109.961	5623
3111.762	5570
3113.562	5584
3115.365	5478
3117.164	5463
3118.964	5560
3120.761	5535
3122.56	5571
3124.36	5530
3126.158	5429
3127.954	5525
3129.75	5542
3131.547	5505
3133.343	5430
3135.139	5465
3136.934	5477
3138.729	5461
3140.522	5512
3142.317	5452
3144.11	5467
3145.904	5462
3147.695	5456
3149.488	5400
3151.28	5435
3153.07	5474
3154.863	5469
3156.652	5321
3158.441	5483
3160.231	5448
3162.019	5446
3163.81	5385
3165.597	5373
3167.384	5438
3169.172	5478
3170.958	5456
3172.745	5395
3174.532	5389
3176.317	5458
3178.101	5291
3179.885	5329
3181.67	5481
3183.455	5395
3185.238	5391
3187.02	5373
3188.802	5376
3190.585	5302
3192.368	5314
3194.149	5326
3195.929	5321
3197.709	5381
3199.489	5281
3201.268	5366
3203.048	5241
3204.826	5293
3206.604	5383
3208.382	5276
3210.159	5343
3211.937	5298
3213.713	5364
3215.489	5377
3217.263	5246
3219.038	5524
3220.815	5319
3222.589	5322
3224.363	5273
3226.136	5319
3227.908	5286
3229.681	5354
3231.454	5341
3233.226	5241
3234.996	5240
3236.767	5315
3238.538	5262
3240.308	5340
3242.078	5167
3243.847	5245
3245.615	5280
3247.384	5249
3249.15	5364
3250.92	5283
3252.686	5289
3254.453	5311
3256.218	5242
3257.984	5298
3259.75	5208
3261.515	5261
3263.279	5311
3265.044	5282
3266.806	5319
3268.57	5258
3270.334	5306
3272.095	5096
3273.856	5327
3275.619	5156
3277.379	5150
3279.14	5258
3280.9	5259
3282.661	5320
3284.419	5256
3286.178	5195
3287.937	5150
3289.695	5152
3291.453	5123
3293.21	5371
3294.967	5238
3296.723	5147
3298.48	5183
3300.235	5151
3301.99	5338
3303.744	5234
3305.498	5117
3307.253	5280
3309.006	5174
3310.759	5259
3312.511	5208
3314.263	5224
3316.017	5226
3317.768	5235
3319.519	5210
3321.268	5211
3323.018	5256
3324.767	5206
3326.518	5203
3328.267	5159
3330.014	5123
3331.762	5238
3333.509	5153
3335.258	5166
3337.003	5184
3338.75	5154
3340.496	5170
3342.24	5161
3343.987	5262
3345.732	5268
3347.475	5090
3349.219	5129
3350.961	5167
3352.705	5114
3354.448	5146
3356.19	5175
3357.931	5124
3359.672	5178
3361.412	5087
3363.155	5174
3364.894	5163
3366.633	5149
3368.372	5104
3370.11	5062
3371.849	5108
3373.588	5068
3375.325	5061
3377.061	4996
3378.799	5058
3380.534	5088
3382.271	5046
3384.006	5101
3385.741	5046
3387.475	5084
3389.209	4997
3390.944	5070
3392.677	5027
3394.409	5009
3396.143	5004
3397.874	4976
3399.606	4981
3401.338	4965
3403.069	5067
3404.799	4934
3406.528	4964
3408.258	4990
3409.988	5094
3411.717	5023
3413.445	5062
3415.173	4978
3416.899	4871
3418.626	5042
3420.354	4917
3422.08	4980
3423.806	4983
3425.531	4922
3427.255	5029
3428.981	4931
3430.705	4928
3432.429	4947
3434.151	5014
3435.875	4934
3437.599	4919
3439.321	4843
3441.042	4783
3442.763	4924
3444.483	4918
3446.204	4832
3447.926	4936
3449.645	4819
3451.364	4889
3453.082	4882
3454.801	4814
3456.52	4963
3458.238	4805
3459.954	4777
3461.671	4853
3463.387	4812
3465.104	4874
3466.82	4690
3468.534	4802
3470.25	4782
3471.963	4759
3473.676	4727
3475.392	4700
3477.104	4709
3478.817	4687
3480.528	4680
3482.241	4712
3483.954	4793
3485.664	4731
3487.374	4705
3489.084	4710
3490.795	4698
3492.504	4744
3494.214	4767
3495.922	4717
3497.63	4797
3499.338	4634
3501.045	4752
3502.753	4679
3504.459	4615
3506.166	4704
3507.871	4777
3509.576	4643
3511.283	4642
3512.987	4630
3514.691	4698
3516.395	4553
3518.098	4625
3519.8	4638
3521.504	4621
3523.206	4629
3524.908	4630
3526.609	4558
3528.309	4698
3530.011	4665
3531.711	4526
3533.411	4659
3535.109	4668
3536.808	4544
3538.507	4622
3540.206	4595
3541.904	4538
3543.601	4561
3545.297	4451
3546.994	4578
3548.69	4568
3550.387	4549
3552.081	4416
3553.776	4521
3555.47	4680
3557.166	4570
3558.859	4508
3560.553	4471
3562.245	4548
3563.938	4519
3565.629	4471
3567.322	4528
3569.014	4571
3570.704	4489
3572.394	4480
3574.084	4527
3575.775	4498
3577.464	4421
3579.152	4429
3580.842	4492
3582.529	4455
3584.216	4319
3585.905	4386
3587.591	4437
3589.279	4481
3590.964	4454
3592.649	4395
3594.336	4397
3596.021	4440
3597.705	4407
3599.388	4467
3601.072	4316
3602.757	4448
3604.439	4283
3606.122	4351
3607.803	4386
3609.485	4388
3611.167	4392
3612.849	4336
3614.529	4319
3616.208	4425
3617.888	4274
3619.567	4317
3621.247	4303
3622.926	4284
3624.603	4300
3626.281	4318
3627.958	4367
3629.635	4391
3631.312	4364
3632.989	4270
3634.665	4230
3636.339	4236
3638.014	4246
3639.691	4272
3641.364	4230
3643.038	4168
3644.71	4164
3646.384	4255
3648.058	4268
3649.729	4258
3651.402	4155
3653.073	4202
3654.744	4191
3656.414	4246
3658.085	4183
3659.755	4235
3661.424	4182
3663.094	4240
3664.762	4154
3666.431	4097
3668.099	4289
3669.766	4190
3671.433	4177
3673.099	4104
3674.768	4189
3676.433	4269
3678.098	4200
3679.763	4139
3681.428	4086
3683.093	4174
3684.757	4262
3686.421	4124
3688.083	4136
3689.746	4138
3691.408	4267
3693.071	4174
3694.733	4194
3696.394	4147
3698.054	4080
3699.715	4129
3701.375	4113
3703.036	4167
3704.695	4125
3706.354	4084
3708.012	4162
3709.67	4041
3711.329	4129
3712.987	4200
3714.644	4053
3716.299	4143
3717.955	4059
3719.613	4091
3721.268	3995
3722.923	4012
3724.577	4002
3726.231	4072
3727.885	4052
3729.539	4070
3731.192	3991
3732.845	4058
3734.497	4073
3736.149	4059
3737.802	4083
3739.453	4045
3741.104	4078
3742.753	4045
3744.404	4012
3746.052	4043
3747.704	4001
3749.352	4018
3751	4014
3752.648	3865
3754.296	4020
3755.944	4009
3757.59	4021
3759.238	4036
3760.883	3928
3762.528	3958
3764.176	3935
3765.82	3975
3767.464	3975
3769.109	3977
3770.753	3975
3772.396	3888
3774.04	3976
3775.683	3894
3777.325	4018
3778.967	3893
3780.608	3958
3782.25	4011
3783.89	3927
3785.531	3928
3787.17	3955
3788.81	3884
3790.45	3869
3792.09	3985
3793.729	3829
3795.366	3828
3797.003	3882
3798.64	3889
3800.278	3856
3801.915	3880
3803.551	3888
3805.187	3877
3806.822	3813
3808.458	3856
3810.093	3813
3811.726	3872
3813.36	3827
3814.994	3806
3816.627	3843
3818.262	3806
3819.893	3892
3821.525	3819
3823.157	3800
3824.787	3764
3826.42	3919
3828.051	3843
3829.68	3785
3831.31	3743
3832.938	3804
3834.569	3791
3836.198	3878
3837.825	3818
3839.454	3812
3841.08	3871
3842.708	3730
3844.335	3800
3845.962	3766
3847.587	3756
3849.212	3712
3850.838	3799
3852.463	3738
3854.089	3757
3855.712	3893
3857.335	3727
3858.959	3736
3860.582	3710
3862.205	3784
3863.827	3719
3865.449	3685
3867.07	3710
3868.691	3747
3870.312	3587
3871.933	3731
3873.553	3656
3875.173	3764
3876.792	3668
3878.411	3750
3880.03	3729
3881.647	3747
3883.265	3733
3884.882	3681
3886.499	3732
3888.116	3718
3889.732	3730
3891.348	3683
3892.964	3705
3894.579	3651
3896.195	3668
3897.809	3672
3899.423	3632
3901.036	3627
3902.648	3700
3904.261	3657
3905.875	3672
3907.487	3691
3909.099	3564
3910.709	3677
3912.321	3582
3913.933	3742
3915.542	3734
3917.152	3604
3918.762	3620
3920.37	3653
3921.98	3624
3923.589	3707
3925.196	3628
3926.804	3653
3928.41	3579
3930.018	3579
3931.626	3616
3933.231	3631
3934.838	3610
3936.442	3626
3938.046	3559
3939.653	3667
3941.257	3630
3942.861	3657
3944.464	3481
3946.068	3577
3947.67	3551
3949.273	3639
3950.876	3554
3952.477	3562
3954.078	3544
3955.678	3517
3957.281	3520
3958.881	3534
3960.48	3587
3962.079	3636
3963.678	3571
3965.279	3492
3966.877	3513
3968.475	3557
3970.072	3492
3971.669	3479
3973.266	3526
3974.864	3480
3976.459	3530
3978.055	3542
3979.65	3506
3981.245	3522
3982.841	3577
3984.436	3459
3986.03	3508
3987.623	3460
3989.216	3450
3990.809	3455
3992.403	3470
3993.995	3408
3995.586	3435
3997.177	3481
3998.768	3415
4000.361	3484
4001.951	3420
4003.54	3490
4005.13	3391
4006.719	3344
4008.31	3397
4009.897	3424
4011.485	3471
4013.073	3456
4014.66	3379
4016.247	3468
4017.834	3355
4019.421	3379
4021.006	3424
4022.592	3335
4024.178	3361
4025.763	3441
4027.348	3335
4028.932	3351
4030.515	3360
4032.099	3333
4033.682	3357
4035.266	3277
4036.847	3373
4038.429	3319
4040.011	3362
4041.592	3344
4043.173	3356
4044.755	3300
4046.334	3282
4047.913	3229
4049.494	3341
4051.074	3327
4052.652	3317
4054.23	3284
4055.807	3326
4057.385	3265
4058.963	3253
4060.541	3292
4062.117	3257
4063.693	3329
4065.269	3240
4066.844	3261
4068.42	3241
4069.995	3290
4071.569	3275
4073.143	3272
4074.716	3334
4076.291	3299
4077.864	3212
4079.436	3279
4081.009	3232
4082.58	3204
4084.152	3162
4085.723	3238
4087.294	3205
4088.865	3277
4090.435	3236
4092.005	3278
4093.574	3239
4095.143	3179
4096.712	3273
4098.279	3161
4099.848	3267
4101.416	3245
4102.984	3236
4104.55	3139
4106.117	3251
4107.682	3108
4109.248	3216
4110.815	3133
4112.379	3223
4113.945	3173
4115.508	3109
4117.073	3192
4118.637	3196
4120.201	3164
4121.763	3127
4123.325	3165
4124.888	3168
4126.449	3161
4128.013	3182
4129.573	3170
4131.133	3147
4132.694	3190
4134.254	3160
4135.814	3201
4137.374	3150
4138.933	3079
4140.491	3120
4142.049	3224
4143.607	3071
4145.167	3093
4146.724	3146
4148.28	3094
4149.836	3070
4151.392	3059
4152.949	3073
4154.504	3081
4156.059	3067
4157.614	3022
4159.168	3030
4160.723	3014
4162.277	3139
4163.83	3069
4165.383	3032
4166.936	3010
4168.488	3107
4170.041	3089
4171.593	3083
4173.144	3017
4174.695	2978
4176.246	3019
4177.796	2965
4179.346	3040
4180.896	3020
4182.445	3046
4183.994	2941
4185.542	3023
4187.091	3036
4188.639	3039
4190.185	2881
4191.732	2996
4193.279	2908
4194.826	2855
4196.373	3020
4197.918	2958
4199.463	3010
4201.008	3007
4202.553	2997
4204.098	2935
4205.641	2947
4207.185	2925
4208.728	2997
4210.271	2906
4211.814	2899
4213.357	2961
4214.898	2909
4216.439	3017
4217.98	2955
4219.522	2912
4221.062	2977
4222.603	2944
4224.142	2859
4225.681	2940
4227.222	2950
4228.76	2912
4230.298	2957
4231.835	2937
4233.373	2895
4234.911	2927
4236.449	2917
4237.985	2915
4239.521	2897
4241.057	2853
4242.592	2891
4244.128	2920
4245.663	2882
4247.197	2923
4248.731	2905
4250.265	2874
4251.798	2952
4253.333	2871
4254.865	2828
4256.397	2865
4257.93	2834
4259.461	2915
4260.994	2859
4262.525	2850
4264.056	2907
4265.586	2861
4267.115	2826
4268.646	2884
4270.176	2844
4271.705	2854
4273.232	2800
4274.761	2809
4276.289	2800
4277.818	2886
4279.345	2851
4280.872	2881
4282.399	2839
4283.924	2848
4285.452	2761
4286.976	2881
4288.502	2861
4290.026	2800
4291.551	2769
4293.074	2784
4294.6	2805
4296.123	2705
4297.646	2780
4299.168	2813
4300.691	2768
4302.214	2774
4303.736	2833
4305.257	2729
4306.778	2794
4308.299	2832
4309.82	2799
4311.34	2788
4312.86	2696
4314.379	2759
