400.0745	4548
402.597	4582
405.1208	4550
407.6419	4581
410.1623	4581
412.6819	4631
415.201	4581
417.7172	4595
420.2369	4801
422.7538	4740
425.2701	4822
427.7856	4905
430.3005	4800
432.8147	4836
435.3282	4968
437.841	4713
440.3511	4935
442.8625	4871
445.3753	4863
447.8854	4861
450.3927	4911
452.9014	4875
455.4073	4949
457.9146	4949
460.4233	4898
462.9272	4872
465.4325	4893
467.935	5030
470.4389	4881
472.9421	4895
475.4446	4999
477.9444	4863
480.4456	4862
482.944	4998
485.4417	5048
487.9429	5008
490.4393	5009
492.935	5032
495.4321	4943
497.9264	5044
500.4221	4994
502.9171	5061
505.4094	5091
507.9011	4969
510.392	5059
512.8864	5129
515.3759	5033
517.8649	5034
520.3531	5175
522.8406	5076
525.3275	5218
527.8178	5123
530.3033	5122
532.7881	5238
535.2723	5086
537.7558	5179
540.2407	5195
542.7228	5147
545.2043	5157
547.6851	5140
550.1652	5173
552.6467	5244
555.1255	5263
557.6016	5243
560.079	5306
562.5557	5197
565.0318	5222
567.5092	5218
569.984	5239
572.456	5301
574.9294	5313
577.4022	5296
579.8762	5299
582.3456	5409
584.8163	5373
587.2863	5439
589.7557	5412
592.2224	5373
594.6924	5353
597.1578	5342
599.6245	5362
602.0905	5348
604.5538	5388
607.0206	5314
609.4825	5371
611.9459	5378
614.4066	5290
616.8686	5291
619.33	5354
621.7906	5294
624.2487	5212
626.708	5330
629.1647	5356
631.6207	5202
634.0801	5321
636.5348	5406
638.9888	5339
641.4442	5344
643.8969	5335
646.3509	5309
648.8022	5445
651.255	5401
653.705	5380
656.1544	5401
658.6031	5330
661.0532	5369
663.5026	5447
665.9493	5452
668.3954	5482
670.8409	5450
673.2877	5460
675.7318	5516
678.1752	5467
680.618	5447
683.0601	5450
685.5035	5586
687.9444	5518
690.3845	5481
692.824	5500
695.2628	5429
697.701	5620
700.1406	5427
702.5774	5508
705.0116	5528
707.4472	5601
709.8821	5552
712.3183	5591
714.7519	5565
717.1829	5679
719.6151	5760
722.0468	5592
724.4777	5593
726.908	5732
729.3377	5676
731.7667	5683
734.1931	5737
736.6208	5776
739.0498	5802
741.4742	5766
743.9	5861
746.3231	5811
748.7476	5800
751.1713	5847
753.5945	5812
756.015	5889
758.4368	5898
760.856	5838
763.2766	5910
765.6965	5907
768.1157	5970
770.5323	5902
772.9483	5814
775.3656	5889
777.7822	5826
780.1963	5951
782.6116	5849
785.0244	5852
787.4365	5914
789.8499	5966
792.2626	5889
794.6728	5887
797.0823	5897
799.4911	5978
801.8994	5953
804.3109	5902
806.7178	5965
809.124	5822
811.5297	6026
813.9347	6038
816.341	6105
818.7447	5931
821.1478	6037
823.5502	6076
825.952	6047
828.3531	5905
830.7556	5916
833.1554	6019
835.5546	5980
837.9532	6094
840.3511	5940
842.7504	6027
845.1451	5923
847.5411	5970
849.9365	6090
852.3312	6068
854.7272	6152
857.1187	6078
859.5115	6176
861.9037	6087
864.2952	6055
866.6842	6041
869.0764	6096
871.4661	6086
873.8531	6002
876.2415	6136
878.6272	6033
881.0162	6152
883.4026	6064
885.7866	6092
888.1717	6097
890.5543	5992
892.9382	5994
895.3215	6046
897.7041	6139
900.0842	6048
902.4655	6120
904.8443	6174
907.2244	6114
909.6039	6052
911.9808	6093
914.357	6204
916.7346	6220
919.1115	6204
921.4859	6329
923.8616	6337
926.2347	6359
928.6071	6489
930.979	6272
933.3541	6418
935.7247	6447
938.0946	6291
940.4639	6334
942.8326	6468
945.2026	6672
947.5701	6658
949.9369	6762
952.305	6838
954.6705	7024
957.0355	7117
959.4017	7345
961.7654	7495
964.1284	7391
966.4908	7375
968.8527	7142
971.2138	6993
973.5743	6683
975.9343	6506
978.2936	6432
980.6522	6361
983.0122	6340
985.3696	6300
987.7245	6298
990.0807	6248
992.4362	6186
994.7911	6311
997.1474	6295
999.4991	6248
1001.852	6311
1004.205	6325
1006.555	6437
1008.908	6242
1011.258	6314
1013.606	6269
1015.956	6402
1018.302	6235
1020.652	6435
1022.998	6389
1025.345	6384
1027.691	6360
1030.035	6317
1032.378	6445
1034.724	6303
1037.066	6388
1039.409	6399
1041.75	6510
1044.092	6464
1046.433	6411
1048.771	6478
1051.112	6538
1053.449	6376
1055.786	6435
1058.124	6405
1060.462	6372
1062.797	6455
1065.131	6498
1067.467	6526
1069.8	6476
1072.135	6408
1074.467	6643
1076.798	6709
1079.129	6479
1081.459	6458
1083.792	6497
1086.121	6479
1088.449	6555
1090.777	6392
1093.104	6470
1095.431	6511
1097.759	6341
1100.084	6492
1102.408	6439
1104.732	6401
1107.056	6522
1109.379	6391
1111.701	6402
1114.022	6481
1116.343	6499
1118.664	6496
1120.983	6487
1123.303	6589
1125.621	6437
1127.939	6444
1130.256	6413
1132.573	6594
1134.889	6513
1137.205	6433
1139.52	6477
1141.832	6620
1144.146	6512
1146.461	6479
1148.771	6397
1151.083	6463
1153.392	6516
1155.703	6439
1158.011	6602
1160.323	6536
1162.629	6605
1164.938	6522
1167.243	6495
1169.55	6410
1171.857	6458
1174.163	6582
1176.466	6519
1178.769	6436
1181.073	6405
1183.374	6382
1185.677	6492
1187.979	6512
1190.279	6409
1192.578	6504
1194.878	6482
1197.178	6552
1199.476	6385
1201.772	6534
1204.068	6477
1206.366	6477
1208.663	6460
1210.957	6575
1213.251	6690
1215.544	6535
1217.836	6611
1220.128	6522
1222.421	6607
1224.712	6532
1227.002	6456
1229.292	6677
1231.581	6612
1233.871	6634
1236.159	6679
1238.446	6699
1240.732	6759
1243.018	6668
1245.304	6907
1247.59	6699
1249.874	6695
1252.156	6749
1254.439	6684
1256.721	6756
1259.005	6691
1261.286	6688
1263.565	6676
1265.845	6788
1268.125	6737
1270.403	6687
1272.682	6704
1274.959	6759
1277.234	6599
1279.511	6698
1281.787	6609
1284.062	6698
1286.337	6686
1288.609	6829
1290.882	6544
1293.153	6571
1295.428	6714
1297.698	6741
1299.969	6540
1302.237	6613
1304.507	6554
1306.777	6770
1309.044	6717
1311.312	6587
1313.578	6666
1315.844	6657
1318.109	6644
1320.375	6629
1322.638	6570
1324.903	6553
1327.165	6634
1329.427	6642
1331.69	6773
1333.952	6733
1336.212	6551
1338.471	6688
1340.73	6686
1342.988	6507
1345.248	6712
1347.505	6667
1349.763	6612
1352.019	6689
1354.274	6660
1356.53	6642
1358.784	6557
1361.038	6662
1363.291	6659
1365.543	6651
1367.797	6726
1370.048	6636
1372.296	6669
1374.546	6655
1376.796	6731
1379.045	6771
1381.295	6647
1383.542	6767
1385.787	6734
1388.034	6740
1390.28	6663
1392.527	6673
1394.772	6706
1397.014	6730
1399.258	6778
1401.501	6764
1403.741	6666
1405.985	6719
1408.226	6790
1410.465	6718
1412.705	6768
1414.943	6787
1417.184	6721
1419.42	6888
1421.658	6755
1423.894	6949
1426.13	6704
1428.366	6839
1430.602	6789
1432.835	6754
1435.069	6789
1437.301	6841
1439.535	6817
1441.767	6904
1443.997	6743
1446.229	6843
1448.458	6869
1450.687	6845
1452.916	6902
1455.146	6964
1457.372	6952
1459.599	6897
1461.824	6888
1464.051	6919
1466.277	6926
1468.501	6910
1470.725	6856
1472.948	6896
1475.17	6889
1477.393	6714
1479.614	6703
1481.837	6697
1484.057	6764
1486.276	6677
1488.497	6629
1490.715	6765
1492.932	6650
1495.148	6670
1497.364	6699
1499.58	6691
1501.798	6557
1504.012	6675
1506.227	6649
1508.44	6675
1510.653	6561
1512.866	6597
1515.078	6654
1517.289	6551
1519.5	6578
1521.711	6515
1523.92	6578
1526.13	6634
1528.338	6609
1530.544	6707
1532.752	6610
1534.959	6573
1537.165	6597
1539.371	6627
1541.574	6735
1543.779	6675
1545.983	6701
1548.187	6660
1550.39	6690
1552.59	6706
1554.792	6754
1556.991	6694
1559.19	6662
1561.392	6676
1563.59	6633
1565.789	6722
1567.986	6773
1570.182	6773
1572.381	6794
1574.576	6780
1576.771	6828
1578.966	6823
1581.16	6783
1583.354	6802
1585.546	6876
1587.74	6889
1589.931	6746
1592.121	6789
1594.311	6878
1596.502	6872
1598.693	6832
1600.881	6863
1603.069	6833
1605.256	6906
1607.445	6793
1609.631	6720
1611.816	6831
1614.001	6931
1616.186	6815
1618.37	6893
1620.555	6802
1622.737	6957
1624.919	6803
1627.101	6942
1629.282	6851
1631.463	6886
1633.643	6962
1635.822	6914
1638.001	6937
1640.179	6928
1642.359	6872
1644.534	6919
1646.711	7026
1648.887	6882
1651.062	6909
1653.235	6854
1655.412	7054
1657.586	6865
1659.757	6993
1661.93	7008
1664.1	6900
1666.274	6870
1668.445	6909
1670.614	6876
1672.784	6975
1674.951	7022
1677.12	6972
1679.289	6885
1681.457	6787
1683.622	7020
1685.789	7001
1687.953	6893
1690.121	6894
1692.284	6923
1694.447	6934
1696.611	6813
1698.772	6964
1700.935	6687
1703.098	6955
1705.258	6780
1707.417	6749
1709.576	6839
1711.736	6764
1713.896	6667
1716.053	6842
1718.21	6785
1720.366	6825
1722.522	6817
1724.68	6813
1726.835	6673
1728.989	6925
1731.142	6755
1733.295	6775
1735.449	6789
1737.601	6803
1739.753	6774
1741.903	6713
1744.054	6748
1746.203	6867
1748.354	6881
1750.503	6973
1752.651	6842
1754.798	6762
1756.944	6840
1759.092	6868
1761.238	6819
1763.383	6761
1765.528	6870
1767.672	6790
1769.814	6799
1771.959	6816
1774.102	6847
1776.242	6796
1778.384	6690
1780.525	6791
1782.665	6712
1784.805	6738
1786.945	6810
1789.082	6945
1791.22	6965
1793.36	6891
1795.495	6931
1797.632	6884
1799.766	6830
1801.902	6784
1804.035	6833
1806.172	6976
1808.304	6848
1810.436	6884
1812.569	6907
1814.699	6883
1816.833	6822
1818.963	6797
1821.092	6803
1823.222	6853
1825.35	6867
1827.478	6801
1829.608	6768
1831.734	6725
1833.86	6823
1835.986	6890
1838.11	6729
1840.238	6825
1842.362	6759
1844.485	6824
1846.608	6833
1848.73	6771
1850.853	6716
1852.974	6663
1855.097	6829
1857.217	6845
1859.336	6837
1861.455	6797
1863.576	6732
1865.693	6674
1867.811	6851
1869.926	6710
1872.042	6734
1874.16	6692
1876.275	6757
1878.39	6743
1880.504	6816
1882.618	6905
1884.731	6728
1886.843	6768
1888.956	6804
1891.067	6715
1893.178	6805
1895.287	6770
1897.399	6920
1899.508	6777
1901.617	6853
1903.724	6809
1905.832	6856
1907.941	6809
1910.046	6785
1912.152	6770
1914.256	6821
1916.361	6918
1918.464	6858
1920.57	6789
1922.672	6797
1924.775	6841
1926.876	6982
1928.978	6904
1931.08	6949
1933.181	6897
1935.28	6945
1937.38	6750
1939.478	6880
1941.577	7019
1943.675	6903
1945.771	6941
1947.867	6833
1949.964	6953
1952.058	6944
1954.154	6874
1956.248	6879
1958.343	6795
1960.435	6924
1962.527	6930
1964.62	6782
1966.711	6867
1968.802	6760
1970.892	6884
1972.983	6869
1975.072	6877
1977.162	6820
1979.25	6808
1981.337	6855
1983.424	6778
1985.51	6819
1987.598	6853
1989.683	6769
1991.768	6831
1993.852	6817
1995.934	6798
1998.019	6808
2000.102	6784
2002.184	6827
2004.266	6669
2006.347	6811
2008.427	6752
2010.508	6886
2012.587	6843
2014.666	6713
2016.745	6840
2018.821	6802
2020.9	6770
2022.977	6688
2025.052	6869
2027.128	6772
2029.204	6709
2031.277	6841
2033.353	6754
2035.425	6559
2037.499	6742
2039.57	6796
2041.642	6636
2043.714	6721
2045.786	6814
2047.855	6700
2049.925	6682
2051.993	6719
2054.064	6788
2056.132	6727
2058.2	6855
2060.266	6837
2062.332	6786
2064.398	6766
2066.465	6772
2068.529	6798
2070.592	6662
2072.657	6861
2074.719	6859
2076.783	6765
2078.845	6790
2080.907	6784
2082.968	6771
2085.028	6748
2087.087	6798
2089.148	6798
2091.207	6669
2093.264	6787
2095.322	6745
2097.379	6713
2099.439	6672
2101.495	6831
2103.55	6786
2105.605	6763
2107.658	6685
2109.713	6735
2111.767	6695
2113.82	6796
2115.872	6613
2117.924	6694
2119.975	6840
2122.028	6864
2124.078	6763
2126.126	6799
2128.176	6799
2130.225	6738
2132.275	6648
2134.321	6773
2136.368	6630
2138.415	6629
2140.461	6833
2142.505	6673
2144.552	6667
2146.597	6764
2148.64	6743
2150.684	6762
2152.725	6768
2154.77	6716
2156.811	6715
2158.852	6719
2160.894	6609
2162.933	6692
2164.973	6741
2167.013	6784
2169.051	6649
2171.089	6661
2173.126	6702
2175.164	6760
2177.201	6664
2179.236	6595
2181.273	6726
2183.307	6690
2185.341	6511
2187.377	6620
2189.41	6631
2191.442	6549
2193.473	6687
2195.506	6569
2197.539	6515
2199.569	6536
2201.598	6672
2203.628	6395
2205.656	6553
2207.686	6573
2209.716	6631
2211.743	6527
2213.769	6484
2215.796	6522
2217.821	6572
2219.848	6708
2221.873	6702
2223.897	6577
2225.921	6568
2227.944	6491
2229.967	6492
2231.991	6473
2234.011	6515
2236.032	6573
2238.053	6456
2240.073	6476
2242.094	6493
2244.114	6531
2246.131	6543
2248.149	6501
2250.167	6504
2252.186	6570
2254.201	6501
2256.218	6530
2258.233	6638
2260.247	6538
2262.262	6517
2264.278	6622
2266.29	6433
2268.303	6532
2270.315	6486
2272.327	6487
2274.341	6479
2276.35	6494
2278.361	6512
2280.37	6431
2282.38	6578
2284.388	6440
2286.397	6583
2288.405	6605
2290.412	6454
2292.419	6451
2294.425	6541
2296.431	6511
2298.437	6569
2300.441	6395
2302.445	6479
2304.449	6464
2306.453	6510
2308.455	6458
2310.457	6409
2312.459	6603
2314.46	6440
2316.46	6541
2318.461	6401
2320.46	6375
2322.458	6477
2324.458	6431
2326.456	6399
2328.455	6554
2330.451	6385
2332.447	6444
2334.443	6325
2336.438	6352
2338.433	6419
2340.429	6385
2342.422	6398
2344.416	6421
2346.408	6513
2348.399	6479
2350.393	6428
2352.384	6532
2354.375	6309
2356.365	6340
2358.355	6356
2360.344	6245
2362.333	6298
2364.322	6343
2366.309	6373
2368.295	6331
2370.282	6375
2372.27	6337
2374.256	6309
2376.24	6373
2378.225	6325
2380.208	6267
2382.194	6272
2384.177	6300
2386.159	6357
2388.142	6239
2390.122	6237
2392.105	6237
2394.085	6222
2396.066	6267
2398.044	6284
2400.024	6249
2402.002	6295
2403.982	6200
2405.959	6274
2407.935	6285
2409.913	6175
2411.888	6231
2413.865	6228
2415.84	6293
2417.814	6250
2419.788	6296
2421.762	6222
2423.735	6125
2425.708	6247
2427.68	6269
2429.651	6229
2431.623	6298
2433.593	6258
2435.564	6249
2437.533	6249
2439.502	6174
2441.47	6211
2443.438	6171
2445.406	6254
2447.373	6120
2449.34	6208
2451.305	6266
2453.271	6294
2455.235	6266
2457.201	6286
2459.165	6138
2461.129	6197
2463.092	6174
2465.054	6095
2467.018	6177
2468.978	6202
2470.939	6148
2472.899	6225
2474.86	6181
2476.819	6207
2478.778	6164
2480.737	6127
2482.695	6077
2484.653	6158
2486.609	6060
2488.567	6080
2490.524	6141
2492.478	6111
2494.433	6139
2496.387	6098
2498.343	6065
2500.297	5969
2502.249	6100
2504.202	6075
2506.153	6065
2508.105	6075
2510.057	6091
2512.008	6202
2513.957	6006
2515.906	6147
2517.855	6176
2519.805	6004
2521.754	6058
2523.7	6112
2525.647	5966
2527.594	6165
2529.54	6050
2531.486	6098
2533.431	6135
2535.376	6048
2537.32	6035
2539.263	6139
2541.207	6127
2543.151	6076
2545.093	5991
2547.034	6229
2548.975	6057
2550.917	5930
2552.856	6204
2554.796	6008
2556.735	6111
2558.673	6178
2560.611	5950
2562.55	6035
2564.487	6152
2566.424	6080
2568.36	6078
2570.296	6154
2572.232	5993
2574.167	6042
2576.101	6051
2578.035	6083
2579.969	5980
2581.902	6057
2583.834	6060
2585.766	6120
2587.698	6072
2589.628	6059
2591.557	5993
2593.489	6025
2595.419	6088
2597.348	6081
2599.275	6065
2601.204	6051
2603.131	6021
2605.059	6018
2606.986	6083
2608.911	6027
2610.837	6112
2612.76	6023
2614.687	6058
2616.61	6073
2618.534	6068
2620.457	6032
2622.38	5994
2624.302	6090
2626.225	6016
2628.145	5974
2630.067	6062
2631.986	6073
2633.906	6063
2635.827	5938
2637.745	5941
2639.662	5980
2641.581	6164
2643.498	6157
2645.415	6081
2647.331	6108
2649.248	6112
2651.163	6038
2653.077	6032
2654.993	6056
2656.906	6058
2658.821	6144
2660.733	6118
2662.646	5987
2664.557	5982
2666.47	5961
2668.381	6019
2670.291	6008
2672.201	6086
2674.11	5952
2676.021	6041
2677.929	6017
2679.837	6031
2681.745	6022
2683.652	6019
2685.56	5935
2687.466	6047
2689.371	5987
2691.276	5986
2693.181	5973
2695.085	5925
2696.991	6016
2698.893	5979
2700.796	5887
2702.698	5914
2704.601	5961
2706.502	5913
2708.404	5876
2710.304	5786
2712.203	5918
2714.103	5900
2716.003	5948
2717.902	5994
2719.8	5824
2721.697	5909
2723.594	5908
2725.49	5844
2727.389	5927
2729.283	5908
2731.179	6001
2733.073	5928
2734.968	5985
2736.863	5799
2738.757	5860
2740.649	5892
2742.541	5950
2744.433	5959
2746.324	5889
2748.216	5825
2750.107	5894
2751.997	5893
2753.886	5944
2755.776	5864
2757.666	6024
2759.553	5777
2761.44	5946
2763.327	5861
2765.215	5746
2767.102	5838
2768.988	5737
2770.873	5817
2772.757	5773
2774.641	5820
2776.525	5876
2778.41	5747
2780.292	5748
2782.175	5782
2784.057	5831
2785.938	5805
2787.821	5740
2789.701	5703
2791.581	5718
2793.461	5752
2795.34	5773
2797.219	5745
2799.099	5701
2800.975	5786
2802.853	5806
2804.73	5774
2806.606	5672
2808.484	5772
2810.358	5862
2812.233	5766
2814.108	5697
2815.981	5806
2817.857	5770
2819.73	5620
2821.602	5774
2823.474	5636
2825.346	5804
2827.217	5721
2829.089	5791
2830.959	5755
2832.829	5727
2834.698	5664
2836.567	5701
2838.436	5701
2840.305	5672
2842.172	5754
2844.04	5639
2845.905	5746
2847.772	5749
2849.639	5733
2851.503	5825
2853.369	5915
2855.232	5699
2857.096	5790
2858.961	5781
2860.824	5828
2862.686	5863
2864.547	5885
2866.41	5873
2868.272	5827
2870.132	5852
2871.992	5991
2873.851	5937
2875.711	5965
2877.57	6135
2879.429	6050
2881.287	6007
2883.144	6058
2885.001	6083
2886.857	6145
2888.714	6190
2890.57	5968
2892.425	6025
2894.279	6156
2896.133	6080
2897.987	6021
2899.842	6093
2901.694	5988
2903.547	6076
2905.397	5999
2907.249	6064
2909.101	6084
2910.952	6104
2912.802	6130
2914.652	6140
2916.5	6137
2918.35	6192
2920.198	6357
2922.045	6143
2923.893	6225
2925.74	6212
2927.585	6295
2929.433	6410
2931.279	6287
2933.123	6464
2934.968	6495
2936.811	6455
2938.656	6471
2940.5	6482
2942.342	6656
2944.185	6625
2946.026	6454
2947.87	6634
2949.71	6647
2951.549	6607
2953.39	6644
2955.229	6428
2957.069	6463
2958.908	6450
2960.746	6464
2962.584	6344
2964.421	6348
2966.257	6249
2968.094	6385
2969.931	6277
2971.766	6161
2973.601	6196
2975.435	6132
2977.27	6123
2979.105	6096
2980.938	6049
2982.77	5965
2984.602	6006
2986.434	6070
2988.267	6065
2990.097	5945
2991.927	5889
2993.757	5856
2995.587	5877
2997.417	5842
2999.246	5815
3001.074	5796
3002.902	5730
3004.729	5766
3006.556	5711
3008.384	5555
3010.21	5710
3012.036	5560
3013.861	5633
3015.684	5545
3017.51	5662
3019.334	5425
3021.157	5529
3022.981	5407
3024.802	5447
3026.624	5431
3028.448	5510
3030.267	5349
3032.088	5341
3033.909	5482
3035.728	5408
3037.549	5438
3039.368	5379
3041.186	5407
3043.004	5330
3044.821	5376
3046.64	5382
3048.455	5404
3050.272	5310
3052.087	5360
3053.903	5321
3055.717	5270
3057.534	5467
3059.347	5301
3061.16	5370
3062.974	5323
3064.785	5378
3066.598	5295
3068.411	5342
3070.222	5422
3072.032	5272
3073.844	5329
3075.653	5223
3077.463	5247
3079.272	5351
3081.08	5238
3082.889	5210
3084.697	5138
3086.505	5243
3088.312	5208
3090.118	5263
3091.924	5133
3093.729	5126
3095.535	5229
3097.34	5278
3099.144	5199
3100.947	5112
3102.75	5112
3104.553	5194
3106.357	5184
3108.159	5159
3109.961	5114
3111.762	5049
3113.562	5209
3115.365	5035
3117.164	5103
3118.964	5197
3120.761	5138
3122.56	5170
3124.36	5059
3126.158	5012
3127.954	5059
3129.75	5082
3131.547	5118
3133.343	4974
3135.139	5096
3136.934	5085
3138.729	5083
3140.522	5007
3142.317	5122
3144.11	4999
3145.904	5031
3147.695	5100
3149.488	5022
3151.28	5076
3153.07	4958
3154.863	5043
3156.652	4999
3158.441	5055
3160.231	5010
3162.019	5060
3163.81	4979
3165.597	4926
3167.384	5001
3169.172	4947
3170.958	4947
3172.745	4921
3174.532	4959
3176.317	4985
3178.101	4945
3179.885	5037
3181.67	4978
3183.455	4969
3185.238	5070
3187.02	4991
3188.802	4959
3190.585	5025
3192.368	4852
3194.149	4899
3195.929	4887
3197.709	4885
3199.489	4991
3201.268	4880
3203.048	4939
3204.826	4916
3206.604	4952
3208.382	4915
3210.159	4860
3211.937	4925
3213.713	4885
3215.489	4848
3217.263	4913
3219.038	4975
3220.815	4938
3222.589	4896
3224.363	4892
3226.136	4912
3227.908	4956
3229.681	4966
3231.454	4844
3233.226	4863
3234.996	4924
3236.767	4906
3238.538	4893
3240.308	4881
3242.078	4915
3243.847	4771
3245.615	4792
3247.384	4953
3249.15	4877
3250.92	4903
3252.686	4829
3254.453	4858
3256.218	4878
3257.984	4838
3259.75	4868
3261.515	4907
3263.279	4865
3265.044	4984
3266.806	4843
3268.57	4891
3270.334	4850
3272.095	4885
3273.856	4885
3275.619	4838
3277.379	4870
3279.14	4881
3280.9	4821
3282.661	4962
3284.419	4813
3286.178	4918
3287.937	4893
3289.695	4782
3291.453	4960
3293.21	4819
3294.967	4859
3296.723	4814
3298.48	4879
3300.235	4857
3301.99	4862
3303.744	4822
3305.498	4866
3307.253	4792
3309.006	4757
3310.759	4859
3312.511	4837
3314.263	4806
3316.017	4880
3317.768	4885
3319.519	4773
3321.268	4833
3323.018	4796
3324.767	4890
3326.518	4856
3328.267	4736
3330.014	4892
3331.762	4823
3333.509	4765
3335.258	4719
3337.003	4743
3338.75	4757
3340.496	4831
3342.24	4791
3343.987	4874
3345.732	4819
3347.475	4700
3349.219	4842
3350.961	4727
3352.705	4788
3354.448	4785
3356.19	4707
3357.931	4704
3359.672	4725
3361.412	4672
3363.155	4606
3364.894	4742
3366.633	4730
3368.372	4808
3370.11	4733
3371.849	4771
3373.588	4712
3375.325	4802
3377.061	4625
3378.799	4703
3380.534	4598
3382.271	4735
3384.006	4692
3385.741	4675
3387.475	4658
3389.209	4687
3390.944	4638
3392.677	4673
3394.409	4674
3396.143	4696
3397.874	4678
3399.606	4697
3401.338	4559
3403.069	4581
3404.799	4652
3406.528	4709
3408.258	4639
3409.988	4565
3411.717	4727
3413.445	4596
3415.173	4566
3416.899	4563
3418.626	4635
3420.354	4666
3422.08	4693
3423.806	4645
3425.531	4630
3427.255	4625
3428.981	4615
3430.705	4609
3432.429	4609
3434.151	4593
3435.875	4578
3437.599	4541
3439.321	4521
3441.042	4527
3442.763	4518
3444.483	4533
3446.204	4582
3447.926	4509
3449.645	4544
3451.364	4529
3453.082	4495
3454.801	4514
3456.52	4411
3458.238	4575
3459.954	4485
3461.671	4423
3463.387	4552
3465.104	4430
3466.82	4414
3468.534	4375
3470.25	4394
3471.963	4438
3473.676	4486
3475.392	4411
3477.104	4409
3478.817	4297
3480.528	4427
3482.241	4381
3483.954	4543
3485.664	4352
3487.374	4291
3489.084	4389
3490.795	4315
3492.504	4356
3494.214	4329
3495.922	4406
3497.63	4339
3499.338	4395
3501.045	4370
3502.753	4440
3504.459	4351
3506.166	4303
3507.871	4326
3509.576	4300
3511.283	4277
3512.987	4388
3514.691	4308
3516.395	4271
3518.098	4329
3519.8	4350
3521.504	4286
3523.206	4294
3524.908	4255
3526.609	4187
3528.309	4201
3530.011	4322
3531.711	4228
3533.411	4223
3535.109	4236
3536.808	4253
3538.507	4224
3540.206	4215
3541.904	4239
3543.601	4182
3545.297	4152
3546.994	4259
3548.69	4258
3550.387	4219
3552.081	4157
3553.776	4262
3555.47	4190
3557.166	4157
3558.859	4232
3560.553	4172
3562.245	4186
3563.938	4118
3565.629	4161
3567.322	4182
3569.014	4153
3570.704	4042
3572.394	4179
3574.084	4102
3575.775	4187
3577.464	4158
3579.152	4066
3580.842	4096
3582.529	4134
3584.216	4155
3585.905	4109
3587.591	4172
3589.279	4029
3590.964	4039
3592.649	4117
3594.336	4091
3596.021	4042
3597.705	4133
3599.388	4033
3601.072	4052
3602.757	4036
3604.439	4077
3606.122	4023
3607.803	4023
3609.485	4006
3611.167	3951
3612.849	3976
3614.529	4063
3616.208	3997
3617.888	3953
3619.567	4005
3621.247	3928
3622.926	3901
3624.603	4044
3626.281	3976
3627.958	3939
3629.635	3958
3631.312	3920
3632.989	3889
3634.665	4021
3636.339	3839
3638.014	3937
3639.691	3948
3641.364	3907
3643.038	3853
3644.71	3930
3646.384	3881
3648.058	3871
3649.729	3904
3651.402	3955
3653.073	3812
3654.744	3948
3656.414	3890
3658.085	3780
3659.755	3890
3661.424	3871
3663.094	3869
3664.762	3858
3666.431	3785
3668.099	3879
3669.766	3830
3671.433	3828
3673.099	3828
3674.768	3760
3676.433	3837
3678.098	3795
3679.763	3798
3681.428	3820
3683.093	3856
3684.757	3862
3686.421	3792
3688.083	3748
3689.746	3835
3691.408	3817
3693.071	3823
3694.733	3868
3696.394	3754
3698.054	3781
3699.715	3782
3701.375	3808
3703.036	3716
3704.695	3859
3706.354	3752
3708.012	3857
3709.67	3752
3711.329	3755
3712.987	3733
3714.644	3735
3716.299	3745
3717.955	3722
3719.613	3716
3721.268	3707
3722.923	3730
3724.577	3678
3726.231	3743
3727.885	3683
3729.539	3718
3731.192	3787
3732.845	3648
3734.497	3742
3736.149	3805
3737.802	3748
3739.453	3698
3741.104	3674
3742.753	3635
3744.404	3705
3746.052	3650
3747.704	3587
3749.352	3702
3751	3644
3752.648	3676
3754.296	3701
3755.944	3721
3757.59	3673
3759.238	3606
3760.883	3658
3762.528	3616
3764.176	3674
3765.82	3658
3767.464	3688
3769.109	3632
3770.753	3641
3772.396	3630
3774.04	3621
3775.683	3555
3777.325	3650
3778.967	3540
3780.608	3570
3782.25	3525
3783.89	3660
3785.531	3585
3787.17	3589
3788.81	3646
3790.45	3627
3792.09	3606
3793.729	3604
3795.366	3587
3797.003	3544
3798.64	3570
3800.278	3558
3801.915	3548
3803.551	3578
3805.187	3618
3806.822	3507
3808.458	3482
3810.093	3479
3811.726	3517
3813.36	3581
3814.994	3526
3816.627	3485
3818.262	3493
3819.893	3515
3821.525	3529
3823.157	3526
3824.787	3490
3826.42	3571
3828.051	3498
3829.68	3538
3831.31	3483
3832.938	3512
3834.569	3452
3836.198	3561
3837.825	3513
3839.454	3446
3841.08	3486
3842.708	3398
3844.335	3508
3845.962	3466
3847.587	3546
3849.212	3427
3850.838	3462
3852.463	3436
3854.089	3483
3855.712	3403
3857.335	3455
3858.959	3463
3860.582	3406
3862.205	3475
3863.827	3431
3865.449	3408
3867.07	3430
3868.691	3353
3870.312	3453
3871.933	3495
3873.553	3453
3875.173	3424
3876.792	3336
3878.411	3460
3880.03	3448
3881.647	3378
3883.265	3342
3884.882	3399
3886.499	3416
3888.116	3360
3889.732	3404
3891.348	3330
3892.964	3373
3894.579	3401
3896.195	3350
3897.809	3402
3899.423	3389
3901.036	3346
3902.648	3269
3904.261	3331
3905.875	3373
3907.487	3368
3909.099	3349
3910.709	3274
3912.321	3435
3913.933	3343
3915.542	3370
3917.152	3336
3918.762	3414
3920.37	3428
3921.98	3375
3923.589	3309
3925.196	3322
3926.804	3246
3928.41	3354
3930.018	3428
3931.626	3334
3933.231	3336
3934.838	3295
3936.442	3293
3938.046	3318
3939.653	3380
3941.257	3234
3942.861	3264
3944.464	3336
3946.068	3342
3947.67	3266
3949.273	3300
3950.876	3317
3952.477	3226
3954.078	3277
3955.678	3302
3957.281	3343
3958.881	3345
3960.48	3311
3962.079	3319
3963.678	3334
3965.279	3367
3966.877	3299
3968.475	3238
3970.072	3252
3971.669	3269
3973.266	3264
3974.864	3273
3976.459	3225
3978.055	3271
3979.65	3219
3981.245	3274
3982.841	3280
3984.436	3237
3986.03	3187
3987.623	3260
3989.216	3214
3990.809	3166
3992.403	3167
3993.995	3218
3995.586	3210
3997.177	3176
3998.768	3195
4000.361	3129
4001.951	3176
4003.54	3188
4005.13	3180
4006.719	3157
4008.31	3067
4009.897	3101
4011.485	3096
4013.073	3062
4014.66	3090
4016.247	3127
4017.834	3138
4019.421	3114
4021.006	3119
4022.592	3192
4024.178	3110
4025.763	3110
4027.348	3127
4028.932	3094
4030.515	3122
4032.099	3039
4033.682	3052
4035.266	3024
4036.847	3059
4038.429	3064
4040.011	3112
4041.592	3017
4043.173	3068
4044.755	3054
4046.334	3064
4047.913	3087
4049.494	3013
4051.074	3048
4052.652	2986
4054.23	3025
4055.807	3117
4057.385	3075
4058.963	3078
4060.541	3011
4062.117	3044
4063.693	3008
4065.269	2985
4066.844	3092
4068.42	2996
4069.995	3139
4071.569	2910
4073.143	3000
4074.716	3007
4076.291	3003
4077.864	3029
4079.436	2983
4081.009	2963
4082.58	2974
4084.152	2920
4085.723	2959
4087.294	2942
4088.865	3010
4090.435	2949
4092.005	2914
4093.574	3042
4095.143	2919
4096.712	2999
4098.279	3016
4099.848	3006
4101.416	2969
4102.984	2874
4104.55	2892
4106.117	2968
4107.682	2982
4109.248	3012
4110.815	2955
4112.379	2996
4113.945	2973
4115.508	2942
4117.073	2913
4118.637	2930
4120.201	2948
4121.763	2879
4123.325	2955
4124.888	2938
4126.449	2906
4128.013	2983
4129.573	2895
4131.133	2895
4132.694	2851
4134.254	2922
4135.814	2935
4137.374	2880
4138.933	2825
4140.491	2883
4142.049	2873
4143.607	2858
4145.167	2830
4146.724	2890
4148.28	2880
4149.836	2861
4151.392	2885
4152.949	2840
4154.504	2807
4156.059	2747
4157.614	2793
4159.168	2805
4160.723	2736
4162.277	2826
4163.83	2857
4165.383	2748
4166.936	2848
4168.488	2773
4170.041	2737
4171.593	2842
4173.144	2830
4174.695	2755
4176.246	2778
4177.796	2754
4179.346	2787
4180.896	2735
4182.445	2796
4183.994	2779
4185.542	2773
4187.091	2741
4188.639	2669
4190.185	2795
4191.732	2777
4193.279	2734
4194.826	2727
4196.373	2739
4197.918	2699
4199.463	2749
4201.008	2723
4202.553	2679
4204.098	2810
4205.641	2753
4207.185	2686
4208.728	2735
4210.271	2770
4211.814	2752
4213.357	2752
4214.898	2790
4216.439	2725
4217.98	2725
4219.522	2753
4221.062	2732
4222.603	2703
4224.142	2664
4225.681	2749
4227.222	2686
4228.76	2714
4230.298	2705
4231.835	2664
4233.373	2701
4234.911	2680
4236.449	2685
4237.985	2699
4239.521	2635
4241.057	2663
4242.592	2738
4244.128	2713
4245.663	2628
4247.197	2695
4248.731	2715
4250.265	2611
4251.798	2639
4253.333	2670
4254.865	2617
4256.397	2601
4257.93	2760
4259.461	2627
4260.994	2645
4262.525	2670
4264.056	2600
4265.586	2681
4267.115	2595
4268.646	2621
4270.176	2630
4271.705	2654
4273.232	2612
4274.761	2648
4276.289	2615
4277.818	2609
4279.345	2621
4280.872	2590
4282.399	2693
4283.924	2601
4285.452	2640
4286.976	2641
4288.502	2576
4290.026	2525
4291.551	2551
4293.074	2611
4294.6	2549
4296.123	2589
4297.646	2628
4299.168	2563
4300.691	2598
4302.214	2552
4303.736	2536
4305.257	2614
4306.778	2606
4308.299	2507
4309.82	2621
4311.34	2572
4312.86	2446
4314.379	2501
