400.0745	6362
402.597	6322
405.1208	6391
407.6419	6515
410.1623	6651
412.6819	6605
415.201	6523
417.7172	6598
420.2369	6715
422.7538	6687
425.2701	6766
427.7856	6806
430.3005	6834
432.8147	6795
435.3282	6839
437.841	6739
440.3511	6912
442.8625	6923
445.3753	6820
447.8854	6777
450.3927	6999
452.9014	6715
455.4073	6873
457.9146	6918
460.4233	6888
462.9272	6885
465.4325	6974
467.935	6875
470.4389	6890
472.9421	6860
475.4446	6950
477.9444	6876
480.4456	7012
482.944	6995
485.4417	6998
487.9429	7089
490.4393	7028
492.935	7049
495.4321	7013
497.9264	7179
500.4221	7057
502.9171	7132
505.4094	7133
507.9011	7157
510.392	7198
512.8864	7179
515.3759	7173
517.8649	7114
520.3531	7200
522.8406	7224
525.3275	7198
527.8178	7181
530.3033	7201
532.7881	7302
535.2723	7173
537.7558	7203
540.2407	7322
542.7228	7219
545.2043	7150
547.6851	7254
550.1652	7239
552.6467	7303
555.1255	7086
557.6016	7280
560.079	7299
562.5557	7427
565.0318	7364
567.5092	7367
569.984	7451
572.456	7382
574.9294	7421
577.4022	7473
579.8762	7566
582.3456	7461
584.8163	7505
587.2863	7607
589.7557	7542
592.2224	7636
594.6924	7615
597.1578	7574
599.6245	7481
602.0905	7493
604.5538	7430
607.0206	7467
609.4825	7452
611.9459	7510
614.4066	7491
616.8686	7551
619.33	7434
621.7906	7505
624.2487	7504
626.708	7579
629.1647	7618
631.6207	7377
634.0801	7479
636.5348	7526
638.9888	7436
641.4442	7455
643.8969	7602
646.3509	7563
648.8022	7651
651.255	7540
653.705	7616
656.1544	7647
658.6031	7561
661.0532	7633
663.5026	7617
665.9493	7615
668.3954	7744
670.8409	7727
673.2877	7744
675.7318	7670
678.1752	7701
680.618	7863
683.0601	7801
685.5035	7749
687.9444	7875
690.3845	7777
692.824	7899
695.2628	7664
697.701	7977
700.1406	7698
702.5774	7814
705.0116	7750
707.4472	7921
709.8821	7937
712.3183	7922
714.7519	7885
717.1829	7795
719.6151	7893
722.0468	7979
724.4777	8016
726.908	7982
729.3377	8072
731.7667	8097
734.1931	8174
736.6208	8198
739.0498	8137
741.4742	8171
743.9	8274
746.3231	8152
748.7476	8245
751.1713	8185
753.5945	8226
756.015	8262
758.4368	8270
760.856	8304
763.2766	8367
765.6965	8374
768.1157	8327
770.5323	8435
772.9483	8367
775.3656	8365
777.7822	8348
780.1963	8411
782.6116	8392
785.0244	8224
787.4365	8365
789.8499	8368
792.2626	8346
794.6728	8383
797.0823	8362
799.4911	8403
801.8994	8424
804.3109	8244
806.7178	8459
809.124	8469
811.5297	8535
813.9347	8515
816.341	8459
818.7447	8527
821.1478	8502
823.5502	8418
825.952	8486
828.3531	8525
830.7556	8566
833.1554	8428
835.5546	8425
837.9532	8485
840.3511	8534
842.7504	8566
845.1451	8597
847.5411	8628
849.9365	8679
852.3312	8694
854.7272	8639
857.1187	8598
859.5115	8675
861.9037	8619
864.2952	8674
866.6842	8422
869.0764	8576
871.4661	8598
873.8531	8511
876.2415	8690
878.6272	8668
881.0162	8660
883.4026	8682
885.7866	8588
888.1717	8629
890.5543	8658
892.9382	8547
895.3215	8645
897.7041	8665
900.0842	8622
902.4655	8579
904.8443	8669
907.2244	8743
909.6039	8697
911.9808	8696
914.357	8899
916.7346	9035
919.1115	8957
921.4859	8878
923.8616	8919
926.2347	8992
928.6071	9137
930.979	8984
933.3541	9002
935.7247	8993
938.0946	9153
940.4639	9127
942.8326	9178
945.2026	9290
947.5701	9379
949.9369	9407
952.305	9563
954.6705	9929
957.0355	9854
959.4017	10482
961.7654	10424
964.1284	10420
966.4908	10220
968.8527	9946
971.2138	9724
973.5743	9431
975.9343	9296
978.2936	8971
980.6522	8961
983.0122	9076
985.3696	9033
987.7245	8975
990.0807	8798
992.4362	8822
994.7911	8904
997.1474	8863
999.4991	8897
1001.852	8931
1004.205	8920
1006.555	8942
1008.908	8910
1011.258	9017
1013.606	8929
1015.956	8905
1018.302	8954
1020.652	8958
1022.998	9028
1025.345	8975
1027.691	9039
1030.035	9010
1032.378	9087
1034.724	9073
1037.066	8987
1039.409	9217
1041.75	9059
1044.092	9162
1046.433	9142
1048.771	9041
1051.112	8963
1053.449	8993
1055.786	9092
1058.124	9057
1060.462	9134
1062.797	9131
1065.131	9180
1067.467	9091
1069.8	9112
1072.135	9203
1074.467	9187
1076.798	9189
1079.129	9106
1081.459	9206
1083.792	9082
1086.121	9031
1088.449	9159
1090.777	9121
1093.104	9043
1095.431	9179
1097.759	9091
1100.084	9205
1102.408	9191
1104.732	9225
1107.056	9063
1109.379	9215
1111.701	9077
1114.022	9254
1116.343	9140
1118.664	9116
1120.983	9066
1123.303	9145
1125.621	9105
1127.939	9252
1130.256	9135
1132.573	9266
1134.889	9082
1137.205	9262
1139.52	9134
1141.832	9263
1144.146	9230
1146.461	9077
1148.771	9130
1151.083	9114
1153.392	9187
1155.703	9195
1158.011	9103
1160.323	9188
1162.629	9134
1164.938	9094
1167.243	9140
1169.55	9175
1171.857	9201
1174.163	9221
1176.466	9173
1178.769	9138
1181.073	9250
1183.374	9215
1185.677	9221
1187.979	9247
1190.279	9204
1192.578	9166
1194.878	9172
1197.178	9207
1199.476	9149
1201.772	9237
1204.068	9159
1206.366	9236
1208.663	9165
1210.957	9068
1213.251	9280
1215.544	9244
1217.836	9268
1220.128	9300
1222.421	9279
1224.712	9221
1227.002	9292
1229.292	9403
1231.581	9342
1233.871	9431
1236.159	9429
1238.446	9386
1240.732	9343
1243.018	9393
1245.304	9460
1247.59	9487
1249.874	9557
1252.156	9537
1254.439	9355
1256.721	9474
1259.005	9480
1261.286	9620
1263.565	9523
1265.845	9524
1268.125	9490
1270.403	9379
1272.682	9549
1274.959	9382
1277.234	9502
1279.511	9419
1281.787	9563
1284.062	9305
1286.337	9487
1288.609	9391
1290.882	9434
1293.153	9437
1295.428	9339
1297.698	9462
1299.969	9321
1302.237	9403
1304.507	9298
1306.777	9323
1309.044	9386
1311.312	9204
1313.578	9292
1315.844	9339
1318.109	9307
1320.375	9361
1322.638	9372
1324.903	9289
1327.165	9264
1329.427	9225
1331.69	9376
1333.952	9272
1336.212	9509
1338.471	9465
1340.73	9403
1342.988	9391
1345.248	9382
1347.505	9283
1349.763	9375
1352.019	9374
1354.274	9306
1356.53	9279
1358.784	9434
1361.038	9307
1363.291	9335
1365.543	9297
1367.797	9325
1370.048	9247
1372.296	9414
1374.546	9293
1376.796	9407
1379.045	9446
1381.295	9460
1383.542	9491
1385.787	9480
1388.034	9239
1390.28	9501
1392.527	9413
1394.772	9524
1397.014	9535
1399.258	9569
1401.501	9556
1403.741	9602
1405.985	9542
1408.226	9528
1410.465	9452
1412.705	9562
1414.943	9553
1417.184	9438
1419.42	9554
1421.658	9609
1423.894	9541
1426.13	9537
1428.366	9681
1430.602	9650
1432.835	9685
1435.069	9656
1437.301	9688
1439.535	9578
1441.767	9807
1443.997	9787
1446.229	9848
1448.458	9775
1450.687	9655
1452.916	9849
1455.146	9818
1457.372	9880
1459.599	9830
1461.824	9811
1464.051	9686
1466.277	9666
1468.501	9649
1470.725	9537
1472.948	9637
1475.17	9379
1477.393	9563
1479.614	9404
1481.837	9501
1484.057	9424
1486.276	9435
1488.497	9379
1490.715	9296
1492.932	9324
1495.148	9328
1497.364	9339
1499.58	9401
1501.798	9388
1504.012	9373
1506.227	9412
1508.44	9237
1510.653	9384
1512.866	9331
1515.078	9297
1517.289	9353
1519.5	9366
1521.711	9173
1523.92	9273
1526.13	9228
1528.338	9244
1530.544	9195
1532.752	9263
1534.959	9263
1537.165	9262
1539.371	9406
1541.574	9287
1543.779	9262
1545.983	9401
1548.187	9313
1550.39	9472
1552.59	9432
1554.792	9394
1556.991	9308
1559.19	9457
1561.392	9400
1563.59	9384
1565.789	9311
1567.986	9399
1570.182	9657
1572.381	9551
1574.576	9529
1576.771	9419
1578.966	9361
1581.16	9536
1583.354	9587
1585.546	9472
1587.74	9421
1589.931	9574
1592.121	9470
1594.311	9503
1596.502	9509
1598.693	9591
1600.881	9558
1603.069	9505
1605.256	9555
1607.445	9580
1609.631	9487
1611.816	9520
1614.001	9591
1616.186	9725
1618.37	9465
1620.555	9758
1622.737	9572
1624.919	9652
1627.101	9584
1629.282	9604
1631.463	9650
1633.643	9773
1635.822	9605
1638.001	9551
1640.179	9578
1642.359	9639
1644.534	9801
1646.711	9680
1648.887	9755
1651.062	9698
1653.235	9717
1655.412	9659
1657.586	9697
1659.757	9825
1661.93	9716
1664.1	9728
1666.274	9856
1668.445	9706
1670.614	9806
1672.784	9816
1674.951	9842
1677.12	9743
1679.289	9619
1681.457	9624
1683.622	9649
1685.789	9734
1687.953	9681
1690.121	9554
1692.284	9675
1694.447	9616
1696.611	9588
1698.772	9555
1700.935	9597
1703.098	9459
1705.258	9493
1707.417	9620
1709.576	9527
1711.736	9322
1713.896	9496
1716.053	9488
1718.21	9489
1720.366	9514
1722.522	9649
1724.68	9430
1726.835	9434
1728.989	9480
1731.142	9481
1733.295	9541
1735.449	9481
1737.601	9339
1739.753	9641
1741.903	9556
1744.054	9504
1746.203	9476
1748.354	9418
1750.503	9452
1752.651	9514
1754.798	9469
1756.944	9520
1759.092	9581
1761.238	9544
1763.383	9492
1765.528	9537
1767.672	9416
1769.814	9565
1771.959	9584
1774.102	9564
1776.242	9497
1778.384	9531
1780.525	9546
1782.665	9564
1784.805	9561
1786.945	9540
1789.082	9574
1791.22	9713
1793.36	9594
1795.495	9563
1797.632	9695
1799.766	9510
1801.902	9583
1804.035	9464
1806.172	9440
1808.304	9597
1810.436	9527
1812.569	9506
1814.699	9646
1816.833	9575
1818.963	9566
1821.092	9573
1823.222	9523
1825.35	9636
1827.478	9483
1829.608	9596
1831.734	9535
1833.86	9511
1835.986	9602
1838.11	9599
1840.238	9625
1842.362	9373
1844.485	9520
1846.608	9495
1848.73	9514
1850.853	9362
1852.974	9538
1855.097	9308
1857.217	9454
1859.336	9558
1861.455	9388
1863.576	9361
1865.693	9356
1867.811	9352
1869.926	9538
1872.042	9373
1874.16	9487
1876.275	9574
1878.39	9404
1880.504	9283
1882.618	9431
1884.731	9601
1886.843	9405
1888.956	9409
1891.067	9409
1893.178	9457
1895.287	9395
1897.399	9430
1899.508	9499
1901.617	9484
1903.724	9353
1905.832	9495
1907.941	9508
1910.046	9397
1912.152	9422
1914.256	9605
1916.361	9506
1918.464	9632
1920.57	9602
1922.672	9510
1924.775	9620
1926.876	9480
1928.978	9589
1931.08	9590
1933.181	9564
1935.28	9575
1937.38	9632
1939.478	9449
1941.577	9501
1943.675	9577
1945.771	9512
1947.867	9464
1949.964	9568
1952.058	9510
1954.154	9611
1956.248	9427
1958.343	9464
1960.435	9623
1962.527	9566
1964.62	9321
1966.711	9409
1968.802	9488
1970.892	9390
1972.983	9521
1975.072	9416
1977.162	9350
1979.25	9478
1981.337	9397
1983.424	9390
1985.51	9520
1987.598	9512
1989.683	9490
1991.768	9296
1993.852	9489
1995.934	9438
1998.019	9295
2000.102	9288
2002.184	9275
2004.266	9561
2006.347	9485
2008.427	9311
2010.508	9484
2012.587	9336
2014.666	9361
2016.745	9442
2018.821	9382
2020.9	9249
2022.977	9359
2025.052	9367
2027.128	9244
2029.204	9342
2031.277	9292
2033.353	9543
2035.425	9401
2037.499	9174
2039.57	9274
2041.642	9380
2043.714	9517
2045.786	9456
2047.855	9312
2049.925	9325
2051.993	9361
2054.064	9411
2056.132	9353
2058.2	9406
2060.266	9472
2062.332	9330
2064.398	9287
2066.465	9356
2068.529	9487
2070.592	9446
2072.657	9486
2074.719	9425
2076.783	9395
2078.845	9441
2080.907	9242
2082.968	9363
2085.028	9385
2087.087	9397
2089.148	9381
2091.207	9371
2093.264	9306
2095.322	9370
2097.379	9350
2099.439	9350
2101.495	9541
2103.55	9388
2105.605	9370
2107.658	9309
2109.713	9340
2111.767	9259
2113.82	9412
2115.872	9401
2117.924	9340
2119.975	9158
2122.028	9469
2124.078	9343
2126.126	9365
2128.176	9346
2130.225	9280
2132.275	9285
2134.321	9395
2136.368	9310
2138.415	9410
2140.461	9325
2142.505	9350
2144.552	9303
2146.597	9274
2148.64	9293
2150.684	9299
2152.725	9315
2154.77	9306
2156.811	9249
2158.852	9155
2160.894	9141
2162.933	9240
2164.973	9295
2167.013	9241
2169.051	9107
2171.089	9223
2173.126	9352
2175.164	9230
2177.201	9225
2179.236	9091
2181.273	9246
2183.307	9165
2185.341	9026
2187.377	9236
2189.41	9207
2191.442	9096
2193.473	9193
2195.506	9134
2197.539	9154
2199.569	9133
2201.598	9060
2203.628	9034
2205.656	9212
2207.686	9004
2209.716	9011
2211.743	9077
2213.769	9109
2215.796	9013
2217.821	9111
2219.848	9070
2221.873	8962
2223.897	8973
2225.921	8967
2227.944	9058
2229.967	8969
2231.991	8900
2234.011	9052
2236.032	8940
2238.053	8858
2240.073	9058
2242.094	9028
2244.114	8937
2246.131	9107
2248.149	9091
2250.167	8964
2252.186	8937
2254.201	8965
2256.218	9054
2258.233	9102
2260.247	8971
2262.262	9050
2264.278	8965
2266.29	9022
2268.303	9037
2270.315	8914
2272.327	8920
2274.341	9115
2276.35	9067
2278.361	9066
2280.37	8892
2282.38	9107
2284.388	9054
2286.397	8951
2288.405	8946
2290.412	8847
2292.419	8982
2294.425	8884
2296.431	8961
2298.437	9017
2300.441	8929
2302.445	8998
2304.449	9044
2306.453	8860
2308.455	8937
2310.457	9001
2312.459	8992
2314.46	9081
2316.46	9074
2318.461	8940
2320.46	9030
2322.458	8844
2324.458	8898
2326.456	8811
2328.455	8746
2330.451	8817
2332.447	8752
2334.443	8974
2336.438	8924
2338.433	8862
2340.429	8885
2342.422	8795
2344.416	8948
2346.408	8904
2348.399	8717
2350.393	8727
2352.384	8814
2354.375	8950
2356.365	8682
2358.355	8701
2360.344	8698
2362.333	8741
2364.322	8697
2366.309	8739
2368.295	8584
2370.282	8642
2372.27	8781
2374.256	8663
2376.24	8697
2378.225	8636
2380.208	8814
2382.194	8814
2384.177	8721
2386.159	8804
2388.142	8700
2390.122	8507
2392.105	8697
2394.085	8557
2396.066	8616
2398.044	8498
2400.024	8634
2402.002	8462
2403.982	8648
2405.959	8599
2407.935	8445
2409.913	8577
2411.888	8487
2413.865	8674
2415.84	8556
2417.814	8636
2419.788	8532
2421.762	8578
2423.735	8685
2425.708	8550
2427.68	8489
2429.651	8689
2431.623	8528
2433.593	8768
2435.564	8745
2437.533	8642
2439.502	8713
2441.47	8697
2443.438	8696
2445.406	8655
2447.373	8651
2449.34	8486
2451.305	8571
2453.271	8526
2455.235	8524
2457.201	8625
2459.165	8419
2461.129	8522
2463.092	8490
2465.054	8450
2467.018	8392
2468.978	8502
2470.939	8480
2472.899	8545
2474.86	8512
2476.819	8371
2478.778	8429
2480.737	8474
2482.695	8449
2484.653	8396
2486.609	8461
2488.567	8543
2490.524	8439
2492.478	8515
2494.433	8453
2496.387	8479
2498.343	8360
2500.297	8411
2502.249	8363
2504.202	8423
2506.153	8465
2508.105	8459
2510.057	8368
2512.008	8267
2513.957	8328
2515.906	8261
2517.855	8374
2519.805	8489
2521.754	8349
2523.7	8292
2525.647	8336
2527.594	8363
2529.54	8253
2531.486	8243
2533.431	8368
2535.376	8386
2537.32	8260
2539.263	8266
2541.207	8310
2543.151	8346
2545.093	8341
2547.034	8408
2548.975	8317
2550.917	8371
2552.856	8216
2554.796	8463
2556.735	8353
2558.673	8372
2560.611	8217
2562.55	8215
2564.487	8406
2566.424	8341
2568.36	8314
2570.296	8292
2572.232	8332
2574.167	8328
2576.101	8311
2578.035	8414
2579.969	8236
2581.902	8307
2583.834	8334
2585.766	8264
2587.698	8317
2589.628	8275
2591.557	8322
2593.489	8389
2595.419	8268
2597.348	8259
2599.275	8272
2601.204	8269
2603.131	8251
2605.059	8342
2606.986	8379
2608.911	8243
2610.837	8337
2612.76	8459
2614.687	8279
2616.61	8254
2618.534	8365
2620.457	8343
2622.38	8373
2624.302	8504
2626.225	8111
2628.145	8253
2630.067	8375
2631.986	8311
2633.906	8336
2635.827	8304
2637.745	8327
2639.662	8238
2641.581	8231
2643.498	8250
2645.415	8403
2647.331	8404
2649.248	8333
2651.163	8340
2653.077	8300
2654.993	8279
2656.906	8283
2658.821	8360
2660.733	8148
2662.646	8318
2664.557	8165
2666.47	8349
2668.381	8231
2670.291	8191
2672.201	8156
2674.11	8200
2676.021	8267
2677.929	8136
2679.837	8196
2681.745	8087
2683.652	8247
2685.56	8180
2687.466	8113
2689.371	8185
2691.276	8245
2693.181	8133
2695.085	8215
2696.991	8067
2698.893	8272
2700.796	8003
2702.698	8132
2704.601	8125
2706.502	8133
2708.404	8018
2710.304	8064
2712.203	8189
2714.103	8188
2716.003	8186
2717.902	8105
2719.8	8043
2721.697	8052
2723.594	8118
2725.49	8097
2727.389	7980
2729.283	8037
2731.179	8044
2733.073	8121
2734.968	8005
2736.863	8081
2738.757	7896
2740.649	8168
2742.541	8108
2744.433	7983
2746.324	7882
2748.216	8044
2750.107	7937
2751.997	8126
2753.886	8044
2755.776	7989
2757.666	7879
2759.553	8003
2761.44	8027
2763.327	7924
2765.215	8002
2767.102	7975
2768.988	7879
2770.873	7983
2772.757	7867
2774.641	8013
2776.525	7899
2778.41	7864
2780.292	7984
2782.175	8018
2784.057	7969
2785.938	7809
2787.821	8058
2789.701	7799
2791.581	7946
2793.461	7841
2795.34	7923
2797.219	8021
2799.099	7874
2800.975	7881
2802.853	7898
2804.73	7814
2806.606	7844
2808.484	7926
2810.358	7659
2812.233	7881
2814.108	7785
2815.981	7919
2817.857	7832
2819.73	7853
2821.602	7915
2823.474	7867
2825.346	7745
2827.217	7770
2829.089	7916
2830.959	7995
2832.829	7872
2834.698	7800
2836.567	7795
2838.436	7739
2840.305	7774
2842.172	7780
2844.04	7924
2845.905	7913
2847.772	7887
2849.639	7978
2851.503	7901
2853.369	7894
2855.232	7977
2857.096	7969
2858.961	8007
2860.824	8024
2862.686	7980
2864.547	8023
2866.41	7998
2868.272	8017
2870.132	8130
2871.992	8329
2873.851	8259
2875.711	8345
2877.57	8230
2879.429	8258
2881.287	8406
2883.144	8356
2885.001	8430
2886.857	8393
2888.714	8320
2890.57	8350
2892.425	8513
2894.279	8388
2896.133	8440
2897.987	8350
2899.842	8316
2901.694	8418
2903.547	8443
2905.397	8344
2907.249	8290
2909.101	8436
2910.952	8311
2912.802	8475
2914.652	8463
2916.5	8475
2918.35	8508
2920.198	8675
2922.045	8481
2923.893	8752
2925.74	8776
2927.585	8843
2929.433	8849
2931.279	9018
2933.123	8855
2934.968	8862
2936.811	9003
2938.656	9049
2940.5	9164
2942.342	9244
2944.185	9347
2946.026	9119
2947.87	9320
2949.71	9229
2951.549	9148
2953.39	9176
2955.229	9010
2957.069	8792
2958.908	8901
2960.746	8940
2962.584	8695
2964.421	8753
2966.257	8672
2968.094	8661
2969.931	8523
2971.766	8694
2973.601	8524
2975.435	8551
2977.27	8422
2979.105	8403
2980.938	8342
2982.77	8343
2984.602	8397
2986.434	8394
2988.267	8351
2990.097	8183
2991.927	8200
2993.757	8124
2995.587	8027
2997.417	8089
2999.246	8068
3001.074	7961
3002.902	7885
3004.729	7804
3006.556	7702
3008.384	7632
3010.21	7717
3012.036	7547
3013.861	7495
3015.684	7601
3017.51	7634
3019.334	7428
3021.157	7526
3022.981	7514
3024.802	7422
3026.624	7567
3028.448	7333
3030.267	7381
3032.088	7344
3033.909	7266
3035.728	7309
3037.549	7350
3039.368	7423
3041.186	7356
3043.004	7237
3044.821	7339
3046.64	7237
3048.455	7216
3050.272	7236
3052.087	7329
3053.903	7269
3055.717	7078
3057.534	7338
3059.347	7228
3061.16	7278
3062.974	7189
3064.785	7210
3066.598	7190
3068.411	7152
3070.222	7181
3072.032	7257
3073.844	7268
3075.653	7313
3077.463	7201
3079.272	7072
3081.08	7200
3082.889	7125
3084.697	7101
3086.505	7080
3088.312	7102
3090.118	7045
3091.924	6968
3093.729	7109
3095.535	6983
3097.34	7155
3099.144	7091
3100.947	6931
3102.75	6990
3104.553	7071
3106.357	6916
3108.159	6966
3109.961	6875
3111.762	6963
3113.562	7005
3115.365	7023
3117.164	6940
3118.964	6964
3120.761	6864
3122.56	6932
3124.36	6861
3126.158	6964
3127.954	6972
3129.75	6874
3131.547	6877
3133.343	6896
3135.139	6888
3136.934	6846
3138.729	6877
3140.522	6823
3142.317	6736
3144.11	6940
3145.904	6813
3147.695	6745
3149.488	6894
3151.28	6891
3153.07	6787
3154.863	6684
3156.652	6876
3158.441	6891
3160.231	6904
3162.019	6834
3163.81	6709
3165.597	6666
3167.384	6841
3169.172	6775
3170.958	6780
3172.745	6757
3174.532	6849
3176.317	6733
3178.101	6715
3179.885	6750
3181.67	6793
3183.455	6727
3185.238	6707
3187.02	6672
3188.802	6686
3190.585	6644
3192.368	6757
3194.149	6534
3195.929	6679
3197.709	6543
3199.489	6722
3201.268	6656
3203.048	6788
3204.826	6648
3206.604	6703
3208.382	6639
3210.159	6594
3211.937	6608
3213.713	6733
3215.489	6653
3217.263	6659
3219.038	6604
3220.815	6504
3222.589	6617
3224.363	6524
3226.136	6698
3227.908	6604
3229.681	6608
3231.454	6565
3233.226	6594
3234.996	6586
3236.767	6659
3238.538	6629
3240.308	6460
3242.078	6683
3243.847	6570
3245.615	6536
3247.384	6536
3249.15	6618
3250.92	6482
3252.686	6560
3254.453	6663
3256.218	6622
3257.984	6484
3259.75	6627
3261.515	6583
3263.279	6612
3265.044	6517
3266.806	6496
3268.57	6530
3270.334	6624
3272.095	6497
3273.856	6564
3275.619	6524
3277.379	6503
3279.14	6524
3280.9	6656
3282.661	6495
3284.419	6560
3286.178	6521
3287.937	6510
3289.695	6462
3291.453	6487
3293.21	6519
3294.967	6555
3296.723	6507
3298.48	6571
3300.235	6687
3301.99	6513
3303.744	6586
3305.498	6636
3307.253	6537
3309.006	6565
3310.759	6633
3312.511	6434
3314.263	6569
3316.017	6533
3317.768	6548
3319.519	6504
3321.268	6602
3323.018	6515
3324.767	6503
3326.518	6522
3328.267	6433
3330.014	6574
3331.762	6493
3333.509	6502
3335.258	6499
3337.003	6411
3338.75	6532
3340.496	6513
3342.24	6367
3343.987	6545
3345.732	6493
3347.475	6539
3349.219	6361
3350.961	6434
3352.705	6396
3354.448	6414
3356.19	6452
3357.931	6412
3359.672	6614
3361.412	6229
3363.155	6297
3364.894	6423
3366.633	6438
3368.372	6366
3370.11	6442
3371.849	6312
3373.588	6271
3375.325	6314
3377.061	6261
3378.799	6091
3380.534	6217
3382.271	6238
3384.006	6246
3385.741	6309
3387.475	6235
3389.209	6359
3390.944	6327
3392.677	6209
3394.409	6252
3396.143	6120
3397.874	6245
3399.606	6244
3401.338	6170
3403.069	6279
3404.799	6185
3406.528	6284
3408.258	6162
3409.988	6204
3411.717	6093
3413.445	6262
3415.173	6177
3416.899	6209
3418.626	6107
3420.354	6198
3422.08	6176
3423.806	6185
3425.531	6122
3427.255	6234
3428.981	5983
3430.705	6142
3432.429	6143
3434.151	6137
3435.875	6074
3437.599	6201
3439.321	6129
3441.042	6090
3442.763	6092
3444.483	6098
3446.204	6098
3447.926	6119
3449.645	5967
3451.364	5886
3453.082	6063
3454.801	6060
3456.52	5946
3458.238	5955
3459.954	5979
3461.671	5948
3463.387	6057
3465.104	6117
3466.82	5959
3468.534	6121
3470.25	5809
3471.963	5880
3473.676	5902
3475.392	5971
3477.104	5860
3478.817	5769
3480.528	5855
3482.241	5909
3483.954	5863
3485.664	5879
3487.374	5789
3489.084	5960
3490.795	5833
3492.504	5861
3494.214	5810
3495.922	5794
3497.63	5790
3499.338	5788
3501.045	5797
3502.753	5850
3504.459	5801
3506.166	5669
3507.871	5711
3509.576	5785
3511.283	5782
3512.987	5630
3514.691	5787
3516.395	5743
3518.098	5744
3519.8	5680
3521.504	5666
3523.206	5649
3524.908	5699
3526.609	5714
3528.309	5635
3530.011	5693
3531.711	5786
3533.411	5633
3535.109	5591
3536.808	5655
3538.507	5595
3540.206	5699
3541.904	5540
3543.601	5671
3545.297	5630
3546.994	5534
3548.69	5769
3550.387	5592
3552.081	5645
3553.776	5496
3555.47	5539
3557.166	5567
3558.859	5608
3560.553	5553
3562.245	5560
3563.938	5547
3565.629	5561
3567.322	5449
3569.014	5477
3570.704	5630
3572.394	5522
3574.084	5481
3575.775	5467
3577.464	5531
3579.152	5502
3580.842	5507
3582.529	5465
3584.216	5394
3585.905	5542
3587.591	5466
3589.279	5362
3590.964	5432
3592.649	5463
3594.336	5428
3596.021	5457
3597.705	5423
3599.388	5374
3601.072	5366
3602.757	5363
3604.439	5327
3606.122	5355
3607.803	5425
3609.485	5342
3611.167	5316
3612.849	5344
3614.529	5376
3616.208	5344
3617.888	5259
3619.567	5297
3621.247	5233
3622.926	5246
3624.603	5230
3626.281	5249
3627.958	5315
3629.635	5257
3631.312	5233
3632.989	5204
3634.665	5335
3636.339	5115
3638.014	5126
3639.691	5198
3641.364	5192
3643.038	5155
3644.71	5215
3646.384	5267
3648.058	5157
3649.729	5175
3651.402	5199
3653.073	5156
3654.744	5140
3656.414	5164
3658.085	5060
3659.755	5216
3661.424	5057
3663.094	5159
3664.762	5000
3666.431	5153
3668.099	5094
3669.766	5152
3671.433	5126
3673.099	4974
3674.768	5162
3676.433	5058
3678.098	5089
3679.763	5086
3681.428	5042
3683.093	5037
3684.757	5031
3686.421	5088
3688.083	5051
3689.746	5076
3691.408	5013
3693.071	4989
3694.733	5032
3696.394	5047
3698.054	4971
3699.715	5053
3701.375	4997
3703.036	5091
3704.695	4947
3706.354	4924
3708.012	5090
3709.67	5080
3711.329	4988
3712.987	5015
3714.644	4947
3716.299	4905
3717.955	4999
3719.613	4976
3721.268	5010
3722.923	5044
3724.577	4940
3726.231	5001
3727.885	4901
3729.539	4929
3731.192	5024
3732.845	4903
3734.497	4899
3736.149	4924
3737.802	4967
3739.453	4930
3741.104	4915
3742.753	4868
3744.404	4926
3746.052	4985
3747.704	4873
3749.352	4874
3751	4964
3752.648	4818
3754.296	4881
3755.944	4826
3757.59	4907
3759.238	4929
3760.883	4901
3762.528	4789
3764.176	4912
3765.82	4841
3767.464	4793
3769.109	4801
3770.753	4824
3772.396	4732
3774.04	4794
3775.683	4827
3777.325	4810
3778.967	4837
3780.608	4758
3782.25	4790
3783.89	4850
3785.531	4802
3787.17	4711
3788.81	4714
3790.45	4798
3792.09	4661
3793.729	4788
3795.366	4702
3797.003	4774
3798.64	4784
3800.278	4804
3801.915	4810
3803.551	4671
3805.187	4771
3806.822	4753
3808.458	4796
3810.093	4664
3811.726	4727
3813.36	4640
3814.994	4714
3816.627	4709
3818.262	4702
3819.893	4686
3821.525	4620
3823.157	4777
3824.787	4717
3826.42	4569
3828.051	4648
3829.68	4811
3831.31	4638
3832.938	4649
3834.569	4716
3836.198	4503
3837.825	4565
3839.454	4584
3841.08	4583
3842.708	4646
3844.335	4691
3845.962	4539
3847.587	4505
3849.212	4618
3850.838	4566
3852.463	4554
3854.089	4588
3855.712	4586
3857.335	4568
3858.959	4611
3860.582	4519
3862.205	4642
3863.827	4568
3865.449	4530
3867.07	4551
3868.691	4463
3870.312	4420
3871.933	4533
3873.553	4509
3875.173	4533
3876.792	4517
3878.411	4612
3880.03	4455
3881.647	4555
3883.265	4405
3884.882	4502
3886.499	4493
3888.116	4461
3889.732	4451
3891.348	4533
3892.964	4485
3894.579	4501
3896.195	4501
3897.809	4448
3899.423	4469
3901.036	4533
3902.648	4444
3904.261	4421
3905.875	4512
3907.487	4371
3909.099	4523
3910.709	4407
3912.321	4444
3913.933	4433
3915.542	4365
3917.152	4374
3918.762	4410
3920.37	4447
3921.98	4393
3923.589	4358
3925.196	4423
3926.804	4394
3928.41	4350
3930.018	4450
3931.626	4361
3933.231	4408
3934.838	4412
3936.442	4396
3938.046	4397
3939.653	4434
3941.257	4301
3942.861	4290
3944.464	4357
3946.068	4329
3947.67	4357
3949.273	4260
3950.876	4219
3952.477	4307
3954.078	4352
3955.678	4361
3957.281	4310
3958.881	4303
3960.48	4284
3962.079	4250
3963.678	4319
3965.279	4247
3966.877	4273
3968.475	4233
3970.072	4329
3971.669	4260
3973.266	4221
3974.864	4221
3976.459	4258
3978.055	4230
3979.65	4254
3981.245	4216
3982.841	4201
3984.436	4173
3986.03	4218
3987.623	4208
3989.216	4198
3990.809	4159
3992.403	4239
3993.995	4177
3995.586	4159
3997.177	4187
3998.768	4172
4000.361	4230
4001.951	4143
4003.54	4166
4005.13	4114
4006.719	4162
4008.31	4154
4009.897	4081
4011.485	4110
4013.073	4113
4014.66	4156
4016.247	4068
4017.834	4071
4019.421	4153
4021.006	4056
4022.592	3990
4024.178	4126
4025.763	3989
4027.348	4067
4028.932	4005
4030.515	4131
4032.099	4081
4033.682	4027
4035.266	4044
4036.847	4060
4038.429	4014
4040.011	4045
4041.592	4077
4043.173	4038
4044.755	4080
4046.334	3999
4047.913	4032
4049.494	4008
4051.074	3969
4052.652	4041
4054.23	4067
4055.807	3950
4057.385	3974
4058.963	3960
4060.541	3952
4062.117	3874
4063.693	4028
4065.269	4031
4066.844	4002
4068.42	3934
4069.995	3947
4071.569	4005
4073.143	3924
4074.716	3898
4076.291	3936
4077.864	3962
4079.436	3925
4081.009	3904
4082.58	3916
4084.152	3964
4085.723	3872
4087.294	3871
4088.865	3895
4090.435	3959
4092.005	3912
4093.574	3803
4095.143	3920
4096.712	3894
4098.279	3914
4099.848	3864
4101.416	3981
4102.984	3896
4104.55	3870
4106.117	3905
4107.682	3870
4109.248	3900
4110.815	3769
4112.379	3831
4113.945	3883
4115.508	3833
4117.073	3818
4118.637	3859
4120.201	3859
4121.763	3850
4123.325	3866
4124.888	3851
4126.449	3800
4128.013	3736
4129.573	3800
4131.133	3801
4132.694	3871
4134.254	3694
4135.814	3818
4137.374	3739
4138.933	3681
4140.491	3715
4142.049	3678
4143.607	3716
4145.167	3759
4146.724	3714
4148.28	3691
4149.836	3724
4151.392	3682
4152.949	3737
4154.504	3625
4156.059	3696
4157.614	3713
4159.168	3645
4160.723	3702
4162.277	3537
4163.83	3698
4165.383	3712
4166.936	3636
4168.488	3677
4170.041	3692
4171.593	3631
4173.144	3619
4174.695	3626
4176.246	3590
4177.796	3644
4179.346	3688
4180.896	3659
4182.445	3682
4183.994	3573
4185.542	3626
4187.091	3567
4188.639	3663
4190.185	3510
4191.732	3595
4193.279	3721
4194.826	3619
4196.373	3579
4197.918	3596
4199.463	3538
4201.008	3556
4202.553	3598
4204.098	3544
4205.641	3586
4207.185	3602
4208.728	3567
4210.271	3520
4211.814	3552
4213.357	3607
4214.898	3505
4216.439	3535
4217.98	3534
4219.522	3467
4221.062	3569
4222.603	3558
4224.142	3577
4225.681	3460
4227.222	3528
4228.76	3457
4230.298	3623
4231.835	3475
4233.373	3517
4234.911	3442
4236.449	3523
4237.985	3548
4239.521	3503
4241.057	3421
4242.592	3526
4244.128	3561
4245.663	3567
4247.197	3453
4248.731	3503
4250.265	3431
4251.798	3462
4253.333	3439
4254.865	3409
4256.397	3449
4257.93	3512
4259.461	3459
4260.994	3433
4262.525	3450
4264.056	3397
4265.586	3448
4267.115	3410
4268.646	3391
4270.176	3436
4271.705	3378
4273.232	3399
4274.761	3433
4276.289	3445
4277.818	3404
4279.345	3444
4280.872	3423
4282.399	3415
4283.924	3448
4285.452	3370
4286.976	3374
4288.502	3410
4290.026	3358
4291.551	3396
4293.074	3416
4294.6	3332
4296.123	3359
4297.646	3339
4299.168	3314
4300.691	3419
4302.214	3325
4303.736	3434
4305.257	3323
4306.778	3310
4308.299	3343
4309.82	3351
4311.34	3300
4312.86	3307
4314.379	3343
