400.0745	3982
402.597	3893
405.1208	4006
407.6419	3992
410.1623	3964
412.6819	4094
415.201	4072
417.7172	4145
420.2369	4124
422.7538	4082
425.2701	4195
427.7856	4229
430.3005	4192
432.8147	4211
435.3282	4182
437.841	4153
440.3511	4258
442.8625	4266
445.3753	4293
447.8854	4265
450.3927	4201
452.9014	4237
455.4073	4244
457.9146	4269
460.4233	4264
462.9272	4252
465.4325	4294
467.935	4306
470.4389	4328
472.9421	4332
475.4446	4307
477.9444	4337
480.4456	4391
482.944	4382
485.4417	4360
487.9429	4404
490.4393	4402
492.935	4392
495.4321	4436
497.9264	4438
500.4221	4452
502.9171	4447
505.4094	4460
507.9011	4447
510.392	4514
512.8864	4468
515.3759	4394
517.8649	4503
520.3531	4482
522.8406	4457
525.3275	4519
527.8178	4484
530.3033	4521
532.7881	4463
535.2723	4424
537.7558	4466
540.2407	4486
542.7228	4407
545.2043	4455
547.6851	4420
550.1652	4510
552.6467	4497
555.1255	4506
557.6016	4582
560.079	4531
562.5557	4478
565.0318	4513
567.5092	4567
569.984	4440
572.456	4577
574.9294	4555
577.4022	4670
579.8762	4591
582.3456	4615
584.8163	4548
587.2863	4732
589.7557	4721
592.2224	4682
594.6924	4746
597.1578	4698
599.6245	4675
602.0905	4645
604.5538	4695
607.0206	4647
609.4825	4611
611.9459	4646
614.4066	4666
616.8686	4627
619.33	4701
621.7906	4609
624.2487	4659
626.708	4687
629.1647	4550
631.6207	4589
634.0801	4653
636.5348	4698
638.9888	4691
641.4442	4672
643.8969	4644
646.3509	4693
648.8022	4651
651.255	4681
653.705	4695
656.1544	4661
658.6031	4792
661.0532	4790
663.5026	4814
665.9493	4762
668.3954	4778
670.8409	4773
673.2877	4801
675.7318	4852
678.1752	4824
680.618	4880
683.0601	4737
685.5035	4808
687.9444	4772
690.3845	4906
692.824	4763
695.2628	4899
697.701	4838
700.1406	4831
702.5774	4821
705.0116	4776
707.4472	4874
709.8821	4869
712.3183	4906
714.7519	4873
717.1829	4915
719.6151	4952
722.0468	4989
724.4777	4940
726.908	4961
729.3377	4996
731.7667	4930
734.1931	5072
736.6208	4969
739.0498	4963
741.4742	4942
743.9	5125
746.3231	5145
748.7476	5040
751.1713	5111
753.5945	5146
756.015	5071
758.4368	5089
760.856	5138
763.2766	5106
765.6965	5237
768.1157	5163
770.5323	5192
772.9483	5215
775.3656	5070
777.7822	5196
780.1963	5249
782.6116	5161
785.0244	5119
787.4365	5101
789.8499	5202
792.2626	5108
794.6728	5132
797.0823	5179
799.4911	5237
801.8994	5239
804.3109	5348
806.7178	5203
809.124	5160
811.5297	5280
813.9347	5105
816.341	5278
818.7447	5236
821.1478	5163
823.5502	5255
825.952	5348
828.3531	5265
830.7556	5175
833.1554	5337
835.5546	5261
837.9532	5338
840.3511	5252
842.7504	5343
845.1451	5266
847.5411	5251
849.9365	5353
852.3312	5430
854.7272	5255
857.1187	5361
859.5115	5337
861.9037	5294
864.2952	5383
866.6842	5299
869.0764	5355
871.4661	5358
873.8531	5391
876.2415	5321
878.6272	5314
881.0162	5266
883.4026	5352
885.7866	5384
888.1717	5370
890.5543	5229
892.9382	5268
895.3215	5321
897.7041	5297
900.0842	5388
902.4655	5370
904.8443	5408
907.2244	5395
909.6039	5402
911.9808	5403
914.357	5370
916.7346	5517
919.1115	5507
921.4859	5569
923.8616	5473
926.2347	5590
928.6071	5533
930.979	5561
933.3541	5572
935.7247	5521
938.0946	5550
940.4639	5649
942.8326	5741
945.2026	5743
947.5701	5695
949.9369	5722
952.305	5832
954.6705	5942
957.0355	6174
959.4017	6200
961.7654	6230
964.1284	6298
966.4908	6139
968.8527	6078
971.2138	5814
973.5743	5800
975.9343	5704
978.2936	5747
980.6522	5667
983.0122	5512
985.3696	5507
987.7245	5472
990.0807	5534
992.4362	5529
994.7911	5602
997.1474	5440
999.4991	5417
1001.852	5636
1004.205	5529
1006.555	5571
1008.908	5527
1011.258	5460
1013.606	5539
1015.956	5533
1018.302	5528
1020.652	5542
1022.998	5547
1025.345	5632
1027.691	5626
1030.035	5591
1032.378	5458
1034.724	5612
1037.066	5632
1039.409	5606
1041.75	5605
1044.092	5679
1046.433	5624
1048.771	5663
1051.112	5544
1053.449	5570
1055.786	5651
1058.124	5595
1060.462	5785
1062.797	5656
1065.131	5701
1067.467	5584
1069.8	5660
1072.135	5661
1074.467	5653
1076.798	5685
1079.129	5645
1081.459	5664
1083.792	5627
1086.121	5717
1088.449	5615
1090.777	5725
1093.104	5610
1095.431	5729
1097.759	5594
1100.084	5655
1102.408	5744
1104.732	5666
1107.056	5676
1109.379	5653
1111.701	5594
1114.022	5772
1116.343	5627
1118.664	5668
1120.983	5713
1123.303	5545
1125.621	5663
1127.939	5668
1130.256	5643
1132.573	5657
1134.889	5722
1137.205	5655
1139.52	5666
1141.832	5671
1144.146	5754
1146.461	5712
1148.771	5590
1151.083	5675
1153.392	5704
1155.703	5648
1158.011	5643
1160.323	5660
1162.629	5728
1164.938	5685
1167.243	5779
1169.55	5586
1171.857	5734
1174.163	5590
1176.466	5665
1178.769	5694
1181.073	5690
1183.374	5720
1185.677	5779
1187.979	5723
1190.279	5655
1192.578	5620
1194.878	5618
1197.178	5677
1199.476	5774
1201.772	5634
1204.068	5639
1206.366	5715
1208.663	5663
1210.957	5778
1213.251	5706
1215.544	5773
1217.836	5743
1220.128	5710
1222.421	5662
1224.712	5754
1227.002	5733
1229.292	5781
1231.581	5820
1233.871	5899
1236.159	5866
1238.446	5809
1240.732	5827
1243.018	5815
1245.304	5778
1247.59	5797
1249.874	5957
1252.156	5837
1254.439	5895
1256.721	5880
1259.005	5864
1261.286	6001
1263.565	5993
1265.845	6023
1268.125	5942
1270.403	5929
1272.682	5930
1274.959	5876
1277.234	5823
1279.511	5921
1281.787	5888
1284.062	5879
1286.337	5687
1288.609	5925
1290.882	5777
1293.153	5832
1295.428	5845
1297.698	5822
1299.969	5828
1302.237	5795
1304.507	5776
1306.777	5805
1309.044	5747
1311.312	5800
1313.578	5791
1315.844	5835
1318.109	5852
1320.375	5806
1322.638	5728
1324.903	5908
1327.165	5702
1329.427	5825
1331.69	5837
1333.952	5775
1336.212	5710
1338.471	5937
1340.73	5865
1342.988	5907
1345.248	5775
1347.505	5879
1349.763	5672
1352.019	5804
1354.274	5916
1356.53	5828
1358.784	5823
1361.038	5746
1363.291	5781
1365.543	5784
1367.797	5808
1370.048	5886
1372.296	5779
1374.546	5892
1376.796	5956
1379.045	5798
1381.295	5699
1383.542	5942
1385.787	5862
1388.034	5870
1390.28	5832
1392.527	5864
1394.772	5997
1397.014	5926
1399.258	5894
1401.501	5935
1403.741	5908
1405.985	5968
1408.226	5958
1410.465	5959
1412.705	5988
1414.943	5915
1417.184	5914
1419.42	6006
1421.658	5928
1423.894	6049
1426.13	5943
1428.366	5938
1430.602	6045
1432.835	6124
1435.069	6032
1437.301	5939
1439.535	6054
1441.767	6132
1443.997	6107
1446.229	6086
1448.458	6069
1450.687	6131
1452.916	6102
1455.146	6085
1457.372	6070
1459.599	6092
1461.824	6094
1464.051	6087
1466.277	6067
1468.501	6020
1470.725	5877
1472.948	6035
1475.17	5885
1477.393	5926
1479.614	5936
1481.837	5932
1484.057	5982
1486.276	6020
1488.497	5769
1490.715	5844
1492.932	5909
1495.148	5843
1497.364	5856
1499.58	5781
1501.798	5952
1504.012	5843
1506.227	5938
1508.44	5909
1510.653	5866
1512.866	5797
1515.078	5818
1517.289	5842
1519.5	5770
1521.711	5804
1523.92	5836
1526.13	5889
1528.338	5752
1530.544	5764
1532.752	5839
1534.959	5859
1537.165	5795
1539.371	5876
1541.574	5880
1543.779	5845
1545.983	5838
1548.187	5878
1550.39	5914
1552.59	5953
1554.792	5872
1556.991	5889
1559.19	5941
1561.392	5987
1563.59	5783
1565.789	5960
1567.986	5879
1570.182	5879
1572.381	5913
1574.576	5960
1576.771	5870
1578.966	5930
1581.16	5992
1583.354	5978
1585.546	5955
1587.74	6037
1589.931	6085
1592.121	5925
1594.311	5996
1596.502	5986
1598.693	5994
1600.881	5959
1603.069	5989
1605.256	6115
1607.445	6021
1609.631	5873
1611.816	5922
1614.001	5965
1616.186	5932
1618.37	6029
1620.555	6000
1622.737	5972
1624.919	6002
1627.101	5983
1629.282	5981
1631.463	6003
1633.643	6001
1635.822	6043
1638.001	6029
1640.179	6006
1642.359	6017
1644.534	6160
1646.711	5937
1648.887	5998
1651.062	5957
1653.235	6107
1655.412	6099
1657.586	6102
1659.757	6170
1661.93	5970
1664.1	6057
1666.274	6181
1668.445	6022
1670.614	6171
1672.784	6120
1674.951	6068
1677.12	6136
1679.289	6129
1681.457	6185
1683.622	6209
1685.789	6101
1687.953	6024
1690.121	6088
1692.284	6137
1694.447	6116
1696.611	6004
1698.772	6156
1700.935	5925
1703.098	6055
1705.258	5972
1707.417	5926
1709.576	5956
1711.736	5980
1713.896	5930
1716.053	6144
1718.21	5969
1720.366	6086
1722.522	6008
1724.68	5864
1726.835	6017
1728.989	5934
1731.142	5921
1733.295	5957
1735.449	5964
1737.601	5933
1739.753	6055
1741.903	5936
1744.054	6002
1746.203	6036
1748.354	5882
1750.503	5955
1752.651	5959
1754.798	5882
1756.944	6151
1759.092	6092
1761.238	5984
1763.383	6030
1765.528	5977
1767.672	5998
1769.814	6090
1771.959	5983
1774.102	5984
1776.242	5992
1778.384	6162
1780.525	6137
1782.665	5915
1784.805	6099
1786.945	6054
1789.082	6049
1791.22	6005
1793.36	6051
1795.495	6052
1797.632	5999
1799.766	6046
1801.902	6035
1804.035	6069
1806.172	6072
1808.304	6008
1810.436	5994
1812.569	6124
1814.699	6125
1816.833	6008
1818.963	6074
1821.092	6047
1823.222	6073
1825.35	6057
1827.478	6044
1829.608	6067
1831.734	6030
1833.86	6065
1835.986	6024
1838.11	6112
1840.238	6094
1842.362	6046
1844.485	6070
1846.608	6155
1848.73	6040
1850.853	6039
1852.974	6120
1855.097	6069
1857.217	6040
1859.336	6039
1861.455	5944
1863.576	6002
1865.693	6028
1867.811	5988
1869.926	6040
1872.042	5842
1874.16	6053
1876.275	5990
1878.39	5839
1880.504	5980
1882.618	5959
1884.731	5952
1886.843	6044
1888.956	6077
1891.067	6069
1893.178	6024
1895.287	6005
1897.399	6056
1899.508	6088
1901.617	6028
1903.724	6000
1905.832	6097
1907.941	6063
1910.046	5930
1912.152	6033
1914.256	6200
1916.361	6155
1918.464	6110
1920.57	6091
1922.672	6075
1924.775	6168
1926.876	6168
1928.978	6138
1931.08	6067
1933.181	6172
1935.28	6080
1937.38	6126
1939.478	6132
1941.577	6081
1943.675	6091
1945.771	5984
1947.867	6058
1949.964	6121
1952.058	6005
1954.154	5996
1956.248	6091
1958.343	6007
1960.435	6076
1962.527	6065
1964.62	6063
1966.711	5992
1968.802	6123
1970.892	5956
1972.983	6069
1975.072	6008
1977.162	6078
1979.25	6064
1981.337	6063
1983.424	5969
1985.51	6051
1987.598	6029
1989.683	5960
1991.768	5921
1993.852	6030
1995.934	6052
1998.019	6072
2000.102	5942
2002.184	6027
2004.266	6057
2006.347	6041
2008.427	5871
2010.508	6015
2012.587	6021
2014.666	5998
2016.745	6022
2018.821	5931
2020.9	5942
2022.977	5976
2025.052	6022
2027.128	5921
2029.204	5947
2031.277	5954
2033.353	5975
2035.425	5916
2037.499	5915
2039.57	6049
2041.642	6116
2043.714	5908
2045.786	5931
2047.855	5906
2049.925	5972
2051.993	6066
2054.064	5932
2056.132	6111
2058.2	6021
2060.266	5940
2062.332	6023
2064.398	5956
2066.465	5984
2068.529	6003
2070.592	5998
2072.657	5994
2074.719	5938
2076.783	5895
2078.845	6014
2080.907	5991
2082.968	6005
2085.028	5963
2087.087	6060
2089.148	5897
2091.207	5928
2093.264	6101
2095.322	5882
2097.379	5886
2099.439	6028
2101.495	6014
2103.55	5951
2105.605	5954
2107.658	6070
2109.713	5973
2111.767	6029
2113.82	5956
2115.872	5990
2117.924	6035
2119.975	5955
2122.028	5983
2124.078	6062
2126.126	6038
2128.176	5967
2130.225	5939
2132.275	5982
2134.321	5942
2136.368	5959
2138.415	6003
2140.461	5989
2142.505	5953
2144.552	5955
2146.597	5960
2148.64	5922
2150.684	5942
2152.725	5954
2154.77	5948
2156.811	5965
2158.852	5903
2160.894	5769
2162.933	5939
2164.973	5878
2167.013	5856
2169.051	5959
2171.089	5883
2173.126	5838
2175.164	5886
2177.201	5807
2179.236	5799
2181.273	5842
2183.307	5893
2185.341	5950
2187.377	5777
2189.41	5809
2191.442	5816
2193.473	5707
2195.506	5702
2197.539	5755
2199.569	5770
2201.598	5803
2203.628	5761
2205.656	5869
2207.686	5783
2209.716	5752
2211.743	5813
2213.769	5755
2215.796	5817
2217.821	5754
2219.848	5813
2221.873	5836
2223.897	5768
2225.921	5745
2227.944	5774
2229.967	5714
2231.991	5796
2234.011	5840
2236.032	5718
2238.053	5730
2240.073	5700
2242.094	5742
2244.114	5810
2246.131	5793
2248.149	5787
2250.167	5790
2252.186	5655
2254.201	5714
2256.218	5676
2258.233	5765
2260.247	5735
2262.262	5797
2264.278	5718
2266.29	5689
2268.303	5745
2270.315	5740
2272.327	5792
2274.341	5755
2276.35	5753
2278.361	5793
2280.37	5825
2282.38	5668
2284.388	5681
2286.397	5719
2288.405	5789
2290.412	5718
2292.419	5690
2294.425	5646
2296.431	5666
2298.437	5772
2300.441	5826
2302.445	5804
2304.449	5629
2306.453	5720
2308.455	5648
2310.457	5666
2312.459	5820
2314.46	5752
2316.46	5729
2318.461	5650
2320.46	5702
2322.458	5617
2324.458	5689
2326.456	5688
2328.455	5700
2330.451	5632
2332.447	5683
2334.443	5592
2336.438	5576
2338.433	5527
2340.429	5631
2342.422	5686
2344.416	5731
2346.408	5631
2348.399	5695
2350.393	5663
2352.384	5536
2354.375	5775
2356.365	5604
2358.355	5559
2360.344	5648
2362.333	5632
2364.322	5640
2366.309	5617
2368.295	5620
2370.282	5666
2372.27	5530
2374.256	5632
2376.24	5623
2378.225	5636
2380.208	5531
2382.194	5486
2384.177	5554
2386.159	5594
2388.142	5553
2390.122	5551
2392.105	5657
2394.085	5535
2396.066	5463
2398.044	5522
2400.024	5640
2402.002	5557
2403.982	5496
2405.959	5528
2407.935	5602
2409.913	5584
2411.888	5489
2413.865	5510
2415.84	5482
2417.814	5593
2419.788	5521
2421.762	5475
2423.735	5500
2425.708	5434
2427.68	5463
2429.651	5561
2431.623	5563
2433.593	5614
2435.564	5490
2437.533	5529
2439.502	5538
2441.47	5545
2443.438	5478
2445.406	5540
2447.373	5424
2449.34	5446
2451.305	5499
2453.271	5533
2455.235	5473
2457.201	5570
2459.165	5407
2461.129	5431
2463.092	5421
2465.054	5367
2467.018	5389
2468.978	5557
2470.939	5410
2472.899	5392
2474.86	5509
2476.819	5463
2478.778	5323
2480.737	5488
2482.695	5276
2484.653	5440
2486.609	5362
2488.567	5453
2490.524	5421
2492.478	5400
2494.433	5449
2496.387	5366
2498.343	5414
2500.297	5369
2502.249	5372
2504.202	5321
2506.153	5473
2508.105	5376
2510.057	5385
2512.008	5410
2513.957	5377
2515.906	5326
2517.855	5417
2519.805	5436
2521.754	5419
2523.7	5377
2525.647	5369
2527.594	5340
2529.54	5401
2531.486	5307
2533.431	5342
2535.376	5345
2537.32	5404
2539.263	5452
2541.207	5469
2543.151	5325
2545.093	5219
2547.034	5435
2548.975	5351
2550.917	5378
2552.856	5360
2554.796	5374
2556.735	5299
2558.673	5419
2560.611	5385
2562.55	5252
2564.487	5341
2566.424	5326
2568.36	5385
2570.296	5387
2572.232	5392
2574.167	5331
2576.101	5301
2578.035	5354
2579.969	5336
2581.902	5408
2583.834	5401
2585.766	5411
2587.698	5373
2589.628	5366
2591.557	5336
2593.489	5372
2595.419	5341
2597.348	5310
2599.275	5449
2601.204	5356
2603.131	5321
2605.059	5338
2606.986	5355
2608.911	5311
2610.837	5303
2612.76	5368
2614.687	5351
2616.61	5464
2618.534	5310
2620.457	5390
2622.38	5362
2624.302	5293
2626.225	5300
2628.145	5283
2630.067	5376
2631.986	5330
2633.906	5359
2635.827	5320
2637.745	5294
2639.662	5369
2641.581	5324
2643.498	5333
2645.415	5326
2647.331	5375
2649.248	5253
2651.163	5421
2653.077	5311
2654.993	5388
2656.906	5473
2658.821	5402
2660.733	5282
2662.646	5362
2664.557	5281
2666.47	5361
2668.381	5333
2670.291	5339
2672.201	5309
2674.11	5392
2676.021	5253
2677.929	5274
2679.837	5295
2681.745	5336
2683.652	5252
2685.56	5273
2687.466	5164
2689.371	5383
2691.276	5319
2693.181	5251
2695.085	5282
2696.991	5238
2698.893	5302
2700.796	5229
2702.698	5225
2704.601	5251
2706.502	5232
2708.404	5289
2710.304	5246
2712.203	5215
2714.103	5134
2716.003	5311
2717.902	5237
2719.8	5299
2721.697	5176
2723.594	5285
2725.49	5197
2727.389	5115
2729.283	5271
2731.179	5165
2733.073	5190
2734.968	5158
2736.863	5161
2738.757	5214
2740.649	5231
2742.541	5160
2744.433	5098
2746.324	5244
2748.216	5243
2750.107	5184
2751.997	5217
2753.886	5188
2755.776	5252
2757.666	5214
2759.553	5291
2761.44	5209
2763.327	5038
2765.215	5246
2767.102	5227
2768.988	5236
2770.873	5183
2772.757	5158
2774.641	5166
2776.525	5189
2778.41	5113
2780.292	5186
2782.175	5192
2784.057	5081
2785.938	5129
2787.821	5156
2789.701	5198
2791.581	5190
2793.461	5006
2795.34	5139
2797.219	5152
2799.099	5128
2800.975	5115
2802.853	5145
2804.73	5074
2806.606	5127
2808.484	5198
2810.358	5068
2812.233	5066
2814.108	5073
2815.981	5018
2817.857	5065
2819.73	5109
2821.602	5126
2823.474	5131
2825.346	5082
2827.217	5081
2829.089	5157
2830.959	5032
2832.829	5112
2834.698	5168
2836.567	5075
2838.436	5131
2840.305	5169
2842.172	4988
2844.04	5120
2845.905	5043
2847.772	5102
2849.639	5235
2851.503	5084
2853.369	5151
2855.232	5144
2857.096	5101
2858.961	5027
2860.824	5244
2862.686	5179
2864.547	5264
2866.41	5243
2868.272	5166
2870.132	5202
2871.992	5324
2873.851	5169
2875.711	5315
2877.57	5425
2879.429	5410
2881.287	5329
2883.144	5483
2885.001	5435
2886.857	5492
2888.714	5357
2890.57	5494
2892.425	5418
2894.279	5429
2896.133	5493
2897.987	5401
2899.842	5346
2901.694	5389
2903.547	5489
2905.397	5236
2907.249	5397
2909.101	5438
2910.952	5377
2912.802	5452
2914.652	5535
2916.5	5427
2918.35	5501
2920.198	5503
2922.045	5474
2923.893	5630
2925.74	5549
2927.585	5623
2929.433	5656
2931.279	5609
2933.123	5737
2934.968	5725
2936.811	5682
2938.656	5787
2940.5	5736
2942.342	5833
2944.185	5800
2946.026	5876
2947.87	5984
2949.71	5915
2951.549	5819
2953.39	5828
2955.229	5679
2957.069	5706
2958.908	5668
2960.746	5699
2962.584	5826
2964.421	5683
2966.257	5668
2968.094	5533
2969.931	5508
2971.766	5356
2973.601	5500
2975.435	5489
2977.27	5376
2979.105	5414
2980.938	5346
2982.77	5352
2984.602	5330
2986.434	5385
2988.267	5404
2990.097	5313
2991.927	5282
2993.757	5259
2995.587	5246
2997.417	5216
2999.246	5179
3001.074	5152
3002.902	5062
3004.729	5039
3006.556	4985
3008.384	4958
3010.21	4969
3012.036	4995
3013.861	4962
3015.684	4979
3017.51	4885
3019.334	4836
3021.157	4964
3022.981	4884
3024.802	4856
3026.624	4883
3028.448	4871
3030.267	4823
3032.088	4760
3033.909	4772
3035.728	4729
3037.549	4799
3039.368	4825
3041.186	4806
3043.004	4773
3044.821	4701
3046.64	4844
3048.455	4753
3050.272	4805
3052.087	4696
3053.903	4817
3055.717	4643
3057.534	4818
3059.347	4767
3061.16	4749
3062.974	4811
3064.785	4731
3066.598	4720
3068.411	4771
3070.222	4757
3072.032	4647
3073.844	4742
3075.653	4654
3077.463	4648
3079.272	4725
3081.08	4703
3082.889	4692
3084.697	4606
3086.505	4648
3088.312	4682
3090.118	4567
3091.924	4601
3093.729	4711
3095.535	4578
3097.34	4646
3099.144	4571
3100.947	4656
3102.75	4637
3104.553	4583
3106.357	4614
3108.159	4565
3109.961	4554
3111.762	4554
3113.562	4636
3115.365	4501
3117.164	4608
3118.964	4517
3120.761	4470
3122.56	4582
3124.36	4581
3126.158	4521
3127.954	4464
3129.75	4673
3131.547	4522
3133.343	4492
3135.139	4430
3136.934	4445
3138.729	4534
3140.522	4512
3142.317	4578
3144.11	4487
3145.904	4499
3147.695	4574
3149.488	4487
3151.28	4529
3153.07	4441
3154.863	4404
3156.652	4484
3158.441	4425
3160.231	4475
3162.019	4532
3163.81	4428
3165.597	4439
3167.384	4553
3169.172	4459
3170.958	4488
3172.745	4500
3174.532	4439
3176.317	4414
3178.101	4415
3179.885	4465
3181.67	4374
3183.455	4336
3185.238	4416
3187.02	4369
3188.802	4343
3190.585	4425
3192.368	4467
3194.149	4434
3195.929	4314
3197.709	4400
3199.489	4351
3201.268	4395
3203.048	4381
3204.826	4396
3206.604	4374
3208.382	4300
3210.159	4366
3211.937	4343
3213.713	4396
3215.489	4314
3217.263	4299
3219.038	4419
3220.815	4352
3222.589	4438
3224.363	4378
3226.136	4440
3227.908	4362
3229.681	4353
3231.454	4345
3233.226	4304
3234.996	4407
3236.767	4387
3238.538	4319
3240.308	4299
3242.078	4436
3243.847	4444
3245.615	4407
3247.384	4337
3249.15	4353
3250.92	4351
3252.686	4415
3254.453	4382
3256.218	4310
3257.984	4332
3259.75	4328
3261.515	4348
3263.279	4368
3265.044	4324
3266.806	4357
3268.57	4379
3270.334	4326
3272.095	4297
3273.856	4301
3275.619	4338
3277.379	4360
3279.14	4279
3280.9	4373
3282.661	4413
3284.419	4342
3286.178	4347
3287.937	4321
3289.695	4258
3291.453	4386
3293.21	4320
3294.967	4292
3296.723	4329
3298.48	4406
3300.235	4351
3301.99	4341
3303.744	4298
3305.498	4248
3307.253	4285
3309.006	4333
3310.759	4369
3312.511	4258
3314.263	4321
3316.017	4313
3317.768	4381
3319.519	4307
3321.268	4347
3323.018	4238
3324.767	4273
3326.518	4297
3328.267	4289
3330.014	4371
3331.762	4248
3333.509	4229
3335.258	4422
3337.003	4247
3338.75	4376
3340.496	4275
3342.24	4182
3343.987	4293
3345.732	4288
3347.475	4265
3349.219	4369
3350.961	4280
3352.705	4247
3354.448	4209
3356.19	4277
3357.931	4358
3359.672	4225
3361.412	4240
3363.155	4199
3364.894	4290
3366.633	4215
3368.372	4136
3370.11	4171
3371.849	4278
3373.588	4210
3375.325	4234
3377.061	4170
3378.799	4138
3380.534	4172
3382.271	4158
3384.006	4167
3385.741	4121
3387.475	4136
3389.209	4182
3390.944	4165
3392.677	4168
3394.409	4156
3396.143	4202
3397.874	4207
3399.606	4234
3401.338	4216
3403.069	4125
3404.799	4125
3406.528	4131
3408.258	4159
3409.988	4151
3411.717	4138
3413.445	4066
3415.173	4105
3416.899	4179
3418.626	4016
3420.354	4116
3422.08	4136
3423.806	4050
3425.531	4164
3427.255	4021
3428.981	4099
3430.705	4117
3432.429	4135
3434.151	4100
3435.875	4032
3437.599	4034
3439.321	4124
3441.042	4141
3442.763	4068
3444.483	4085
3446.204	3973
3447.926	4074
3449.645	4055
3451.364	3987
3453.082	4017
3454.801	4015
3456.52	4038
3458.238	3957
3459.954	3934
3461.671	3985
3463.387	4052
3465.104	3936
3466.82	3987
3468.534	3949
3470.25	3964
3471.963	3884
3473.676	3930
3475.392	3922
3477.104	3909
3478.817	4011
3480.528	3904
3482.241	3908
3483.954	3988
3485.664	3899
3487.374	3897
3489.084	3868
3490.795	3831
3492.504	3920
3494.214	3912
3495.922	3862
3497.63	3813
3499.338	3914
3501.045	3802
3502.753	3753
3504.459	3794
3506.166	3838
3507.871	3877
3509.576	3828
3511.283	3809
3512.987	3866
3514.691	3851
3516.395	3836
3518.098	3835
3519.8	3832
3521.504	3833
3523.206	3800
3524.908	3773
3526.609	3809
3528.309	3865
3530.011	3829
3531.711	3888
3533.411	3729
3535.109	3669
3536.808	3781
3538.507	3852
3540.206	3771
3541.904	3856
3543.601	3854
3545.297	3786
3546.994	3828
3548.69	3741
3550.387	3767
3552.081	3777
3553.776	3809
3555.47	3693
3557.166	3702
3558.859	3742
3560.553	3756
3562.245	3782
3563.938	3701
3565.629	3730
3567.322	3688
3569.014	3717
3570.704	3715
3572.394	3740
3574.084	3728
3575.775	3681
3577.464	3655
3579.152	3664
3580.842	3712
3582.529	3812
3584.216	3721
3585.905	3707
3587.591	3723
3589.279	3707
3590.964	3691
3592.649	3653
3594.336	3669
3596.021	3695
3597.705	3613
3599.388	3678
3601.072	3595
3602.757	3640
3604.439	3521
3606.122	3614
3607.803	3654
3609.485	3521
3611.167	3645
3612.849	3553
3614.529	3614
3616.208	3581
3617.888	3593
3619.567	3532
3621.247	3611
3622.926	3612
3624.603	3534
3626.281	3607
3627.958	3536
3629.635	3569
3631.312	3545
3632.989	3508
3634.665	3472
3636.339	3577
3638.014	3536
3639.691	3514
3641.364	3460
3643.038	3494
3644.71	3532
3646.384	3488
3648.058	3505
3649.729	3450
3651.402	3413
3653.073	3553
3654.744	3511
3656.414	3523
3658.085	3435
3659.755	3445
3661.424	3531
3663.094	3441
3664.762	3426
3666.431	3477
3668.099	3445
3669.766	3470
3671.433	3391
3673.099	3478
3674.768	3443
3676.433	3434
3678.098	3586
3679.763	3475
3681.428	3504
3683.093	3444
3684.757	3321
3686.421	3471
3688.083	3374
3689.746	3446
3691.408	3457
3693.071	3379
3694.733	3485
3696.394	3351
3698.054	3461
3699.715	3393
3701.375	3455
3703.036	3411
3704.695	3438
3706.354	3427
3708.012	3390
3709.67	3310
3711.329	3415
3712.987	3401
3714.644	3428
3716.299	3384
3717.955	3376
3719.613	3360
3721.268	3441
3722.923	3367
3724.577	3410
3726.231	3369
3727.885	3313
3729.539	3381
3731.192	3303
3732.845	3371
3734.497	3437
3736.149	3299
3737.802	3309
3739.453	3272
3741.104	3397
3742.753	3355
3744.404	3364
3746.052	3380
3747.704	3280
3749.352	3334
3751	3249
3752.648	3284
3754.296	3301
3755.944	3288
3757.59	3335
3759.238	3350
3760.883	3289
3762.528	3286
3764.176	3296
3765.82	3255
3767.464	3313
3769.109	3255
3770.753	3291
3772.396	3229
3774.04	3251
3775.683	3247
3777.325	3318
3778.967	3225
3780.608	3222
3782.25	3206
3783.89	3264
3785.531	3218
3787.17	3172
3788.81	3289
3790.45	3197
3792.09	3339
3793.729	3199
3795.366	3221
3797.003	3178
3798.64	3336
3800.278	3210
3801.915	3227
3803.551	3264
3805.187	3282
3806.822	3207
3808.458	3188
3810.093	3126
3811.726	3238
3813.36	3200
3814.994	3244
3816.627	3188
3818.262	3229
3819.893	3189
3821.525	3098
3823.157	3196
3824.787	3202
3826.42	3200
3828.051	3162
3829.68	3106
3831.31	3207
3832.938	3187
3834.569	3152
3836.198	3189
3837.825	3141
3839.454	3143
3841.08	3112
3842.708	3092
3844.335	3132
3845.962	3123
3847.587	3103
3849.212	3116
3850.838	3156
3852.463	3157
3854.089	3114
3855.712	3036
3857.335	3112
3858.959	3204
3860.582	3151
3862.205	3039
3863.827	3061
3865.449	3145
3867.07	3097
3868.691	3176
3870.312	3095
3871.933	3145
3873.553	3047
3875.173	3063
3876.792	3077
3878.411	3085
3880.03	3104
3881.647	3119
3883.265	3082
3884.882	3034
3886.499	3000
3888.116	3058
3889.732	3033
3891.348	3113
3892.964	3042
3894.579	3048
3896.195	3075
3897.809	3036
3899.423	3038
3901.036	3023
3902.648	3054
3904.261	2986
3905.875	3054
3907.487	3054
3909.099	3036
3910.709	3007
3912.321	3025
3913.933	3014
3915.542	3072
3917.152	3011
3918.762	3076
3920.37	3051
3921.98	3055
3923.589	2954
3925.196	3063
3926.804	2992
3928.41	3012
3930.018	3073
3931.626	3015
3933.231	3044
3934.838	3017
3936.442	2987
3938.046	3004
3939.653	2922
3941.257	3002
3942.861	3052
3944.464	2927
3946.068	3004
3947.67	2917
3949.273	3043
3950.876	2951
3952.477	3053
3954.078	3002
3955.678	2992
3957.281	2985
3958.881	2923
3960.48	2988
3962.079	2960
3963.678	2977
3965.279	2966
3966.877	2956
3968.475	2982
3970.072	2997
3971.669	2999
3973.266	2950
3974.864	2925
3976.459	2888
3978.055	2936
3979.65	2892
3981.245	2940
3982.841	2939
3984.436	2942
3986.03	2896
3987.623	2926
3989.216	2927
3990.809	2913
3992.403	2878
3993.995	2956
3995.586	2929
3997.177	2841
3998.768	2878
4000.361	2777
4001.951	2816
4003.54	2945
4005.13	2892
4006.719	2897
4008.31	2860
4009.897	2856
4011.485	2759
4013.073	2891
4014.66	2774
4016.247	2832
4017.834	2848
4019.421	2804
4021.006	2821
4022.592	2944
4024.178	2847
4025.763	2837
4027.348	2779
4028.932	2800
4030.515	2740
4032.099	2804
4033.682	2884
4035.266	2805
4036.847	2870
4038.429	2871
4040.011	2841
4041.592	2848
4043.173	2819
4044.755	2807
4046.334	2768
4047.913	2840
4049.494	2744
4051.074	2722
4052.652	2850
4054.23	2770
4055.807	2777
4057.385	2698
4058.963	2731
4060.541	2739
4062.117	2801
4063.693	2768
4065.269	2747
4066.844	2733
4068.42	2695
4069.995	2760
4071.569	2724
4073.143	2768
4074.716	2757
4076.291	2714
4077.864	2674
4079.436	2703
4081.009	2780
4082.58	2674
4084.152	2718
4085.723	2746
4087.294	2720
4088.865	2782
4090.435	2699
4092.005	2703
4093.574	2687
4095.143	2698
4096.712	2686
4098.279	2662
4099.848	2676
4101.416	2635
4102.984	2635
4104.55	2681
4106.117	2676
4107.682	2722
4109.248	2677
4110.815	2646
4112.379	2778
4113.945	2647
4115.508	2641
4117.073	2664
4118.637	2635
4120.201	2682
4121.763	2672
4123.325	2658
4124.888	2657
4126.449	2666
4128.013	2679
4129.573	2696
4131.133	2613
4132.694	2649
4134.254	2700
4135.814	2746
4137.374	2618
4138.933	2618
4140.491	2569
4142.049	2615
4143.607	2611
4145.167	2648
4146.724	2558
4148.28	2596
4149.836	2568
4151.392	2605
4152.949	2528
4154.504	2554
4156.059	2610
4157.614	2647
4159.168	2577
4160.723	2552
4162.277	2523
4163.83	2502
4165.383	2600
4166.936	2549
4168.488	2522
4170.041	2559
4171.593	2573
4173.144	2542
4174.695	2621
4176.246	2573
4177.796	2540
4179.346	2523
4180.896	2560
4182.445	2525
4183.994	2576
4185.542	2556
4187.091	2523
4188.639	2537
4190.185	2600
4191.732	2533
4193.279	2525
4194.826	2556
4196.373	2512
4197.918	2555
4199.463	2432
4201.008	2525
4202.553	2515
4204.098	2464
4205.641	2474
4207.185	2569
4208.728	2489
4210.271	2455
4211.814	2478
4213.357	2494
4214.898	2518
4216.439	2463
4217.98	2509
4219.522	2483
4221.062	2454
4222.603	2471
4224.142	2448
4225.681	2458
4227.222	2544
4228.76	2453
4230.298	2511
4231.835	2488
4233.373	2479
4234.911	2524
4236.449	2506
4237.985	2489
4239.521	2475
4241.057	2460
4242.592	2475
4244.128	2488
4245.663	2434
4247.197	2421
4248.731	2476
4250.265	2461
4251.798	2449
4253.333	2525
4254.865	2435
4256.397	2468
4257.93	2426
4259.461	2400
4260.994	2484
4262.525	2395
4264.056	2427
4265.586	2480
4267.115	2447
4268.646	2412
4270.176	2392
4271.705	2455
4273.232	2440
4274.761	2445
4276.289	2365
4277.818	2457
4279.345	2458
4280.872	2441
4282.399	2415
4283.924	2419
4285.452	2405
4286.976	2386
4288.502	2366
4290.026	2411
4291.551	2394
4293.074	2353
4294.6	2420
4296.123	2344
4297.646	2381
4299.168	2377
4300.691	2370
4302.214	2424
4303.736	2360
4305.257	2386
4306.778	2417
4308.299	2414
4309.82	2384
4311.34	2350
4312.86	2350
4314.379	2299
