400.0745	3836
402.597	3875
405.1208	3864
407.6419	3882
410.1623	3921
412.6819	3967
415.201	4030
417.7172	4061
420.2369	4015
422.7538	3944
425.2701	4031
427.7856	4000
430.3005	4159
432.8147	4088
435.3282	4171
437.841	4118
440.3511	4134
442.8625	4099
445.3753	4127
447.8854	4240
450.3927	4195
452.9014	4077
455.4073	4187
457.9146	4119
460.4233	4123
462.9272	4183
465.4325	4147
467.935	4130
470.4389	4147
472.9421	4151
475.4446	4216
477.9444	4259
480.4456	4249
482.944	4162
485.4417	4207
487.9429	4318
490.4393	4196
492.935	4178
495.4321	4200
497.9264	4299
500.4221	4212
502.9171	4299
505.4094	4294
507.9011	4240
510.392	4347
512.8864	4253
515.3759	4332
517.8649	4221
520.3531	4411
522.8406	4345
525.3275	4389
527.8178	4364
530.3033	4361
532.7881	4367
535.2723	4374
537.7558	4365
540.2407	4387
542.7228	4374
545.2043	4469
547.6851	4336
550.1652	4375
552.6467	4397
555.1255	4335
557.6016	4254
560.079	4363
562.5557	4411
565.0318	4379
567.5092	4393
569.984	4384
572.456	4396
574.9294	4328
577.4022	4479
579.8762	4414
582.3456	4495
584.8163	4472
587.2863	4457
589.7557	4561
592.2224	4513
594.6924	4558
597.1578	4553
599.6245	4519
602.0905	4549
604.5538	4473
607.0206	4487
609.4825	4471
611.9459	4518
614.4066	4517
616.8686	4450
619.33	4550
621.7906	4516
624.2487	4477
626.708	4386
629.1647	4443
631.6207	4526
634.0801	4498
636.5348	4553
638.9888	4520
641.4442	4496
643.8969	4533
646.3509	4434
648.8022	4536
651.255	4516
653.705	4435
656.1544	4543
658.6031	4638
661.0532	4555
663.5026	4657
665.9493	4575
668.3954	4594
670.8409	4608
673.2877	4657
675.7318	4581
678.1752	4592
680.618	4566
683.0601	4550
685.5035	4520
687.9444	4615
690.3845	4546
692.824	4651
695.2628	4721
697.701	4689
700.1406	4763
702.5774	4760
705.0116	4613
707.4472	4709
709.8821	4625
712.3183	4801
714.7519	4775
717.1829	4766
719.6151	4740
722.0468	4787
724.4777	4743
726.908	4835
729.3377	4760
731.7667	4749
734.1931	4894
736.6208	4831
739.0498	4797
741.4742	4841
743.9	4904
746.3231	4904
748.7476	4872
751.1713	4877
753.5945	5036
756.015	4914
758.4368	4959
760.856	4905
763.2766	4962
765.6965	5035
768.1157	5052
770.5323	5009
772.9483	5050
775.3656	5026
777.7822	4919
780.1963	4924
782.6116	5047
785.0244	4973
787.4365	5052
789.8499	4972
792.2626	5054
794.6728	4938
797.0823	5085
799.4911	4992
801.8994	4954
804.3109	5046
806.7178	5033
809.124	5053
811.5297	5020
813.9347	5007
816.341	5042
818.7447	4927
821.1478	5068
823.5502	4985
825.952	5047
828.3531	5012
830.7556	5080
833.1554	4987
835.5546	5096
837.9532	4959
840.3511	5060
842.7504	5095
845.1451	5138
847.5411	5102
849.9365	5037
852.3312	5119
854.7272	5194
857.1187	5112
859.5115	5210
861.9037	5122
864.2952	5135
866.6842	5089
869.0764	5103
871.4661	5129
873.8531	5112
876.2415	5133
878.6272	5187
881.0162	5096
883.4026	5102
885.7866	5163
888.1717	5187
890.5543	5166
892.9382	5203
895.3215	5122
897.7041	5134
900.0842	5103
902.4655	5235
904.8443	5063
907.2244	5240
909.6039	5163
911.9808	5160
914.357	5260
916.7346	5300
919.1115	5203
921.4859	5347
923.8616	5336
926.2347	5396
928.6071	5451
930.979	5219
933.3541	5446
935.7247	5394
938.0946	5388
940.4639	5450
942.8326	5417
945.2026	5471
947.5701	5561
949.9369	5573
952.305	5686
954.6705	5814
957.0355	5969
959.4017	6065
961.7654	6210
964.1284	6065
966.4908	6096
968.8527	5915
971.2138	5820
973.5743	5714
975.9343	5528
978.2936	5388
980.6522	5418
983.0122	5365
985.3696	5425
987.7245	5277
990.0807	5291
992.4362	5389
994.7911	5379
997.1474	5358
999.4991	5301
1001.852	5271
1004.205	5360
1006.555	5311
1008.908	5334
1011.258	5294
1013.606	5418
1015.956	5422
1018.302	5346
1020.652	5365
1022.998	5389
1025.345	5362
1027.691	5351
1030.035	5412
1032.378	5328
1034.724	5443
1037.066	5386
1039.409	5345
1041.75	5408
1044.092	5466
1046.433	5351
1048.771	5419
1051.112	5372
1053.449	5354
1055.786	5384
1058.124	5396
1060.462	5421
1062.797	5425
1065.131	5472
1067.467	5515
1069.8	5514
1072.135	5482
1074.467	5583
1076.798	5597
1079.129	5431
1081.459	5432
1083.792	5489
1086.121	5534
1088.449	5449
1090.777	5470
1093.104	5375
1095.431	5528
1097.759	5493
1100.084	5447
1102.408	5413
1104.732	5437
1107.056	5446
1109.379	5530
1111.701	5465
1114.022	5518
1116.343	5435
1118.664	5475
1120.983	5450
1123.303	5413
1125.621	5515
1127.939	5557
1130.256	5527
1132.573	5527
1134.889	5516
1137.205	5311
1139.52	5511
1141.832	5527
1144.146	5410
1146.461	5485
1148.771	5489
1151.083	5489
1153.392	5443
1155.703	5442
1158.011	5448
1160.323	5598
1162.629	5432
1164.938	5535
1167.243	5481
1169.55	5594
1171.857	5544
1174.163	5586
1176.466	5441
1178.769	5540
1181.073	5534
1183.374	5621
1185.677	5482
1187.979	5472
1190.279	5505
1192.578	5467
1194.878	5403
1197.178	5438
1199.476	5453
1201.772	5504
1204.068	5545
1206.366	5540
1208.663	5564
1210.957	5426
1213.251	5567
1215.544	5537
1217.836	5651
1220.128	5622
1222.421	5671
1224.712	5655
1227.002	5511
1229.292	5535
1231.581	5643
1233.871	5705
1236.159	5541
1238.446	5551
1240.732	5821
1243.018	5692
1245.304	5652
1247.59	5685
1249.874	5678
1252.156	5696
1254.439	5638
1256.721	5784
1259.005	5679
1261.286	5715
1263.565	5688
1265.845	5642
1268.125	5710
1270.403	5633
1272.682	5819
1274.959	5727
1277.234	5755
1279.511	5686
1281.787	5623
1284.062	5701
1286.337	5706
1288.609	5647
1290.882	5594
1293.153	5638
1295.428	5645
1297.698	5689
1299.969	5731
1302.237	5626
1304.507	5675
1306.777	5620
1309.044	5552
1311.312	5684
1313.578	5638
1315.844	5744
1318.109	5658
1320.375	5619
1322.638	5616
1324.903	5710
1327.165	5629
1329.427	5617
1331.69	5623
1333.952	5682
1336.212	5634
1338.471	5718
1340.73	5744
1342.988	5675
1345.248	5771
1347.505	5594
1349.763	5647
1352.019	5630
1354.274	5659
1356.53	5672
1358.784	5610
1361.038	5576
1363.291	5643
1365.543	5695
1367.797	5643
1370.048	5771
1372.296	5705
1374.546	5698
1376.796	5618
1379.045	5902
1381.295	5725
1383.542	5687
1385.787	5793
1388.034	5706
1390.28	5740
1392.527	5727
1394.772	5832
1397.014	5650
1399.258	5737
1401.501	5823
1403.741	5875
1405.985	5801
1408.226	5839
1410.465	5801
1412.705	5804
1414.943	5795
1417.184	5818
1419.42	5845
1421.658	5833
1423.894	5965
1426.13	5843
1428.366	5845
1430.602	5859
1432.835	5914
1435.069	6020
1437.301	5918
1439.535	5835
1441.767	6017
1443.997	5929
1446.229	5915
1448.458	6031
1450.687	6023
1452.916	5965
1455.146	5966
1457.372	5958
1459.599	5953
1461.824	5936
1464.051	5873
1466.277	5955
1468.501	5923
1470.725	5976
1472.948	5917
1475.17	5829
1477.393	5859
1479.614	5819
1481.837	5804
1484.057	5815
1486.276	5784
1488.497	5814
1490.715	5773
1492.932	5782
1495.148	5745
1497.364	5854
1499.58	5897
1501.798	5818
1504.012	5807
1506.227	5771
1508.44	5712
1510.653	5767
1512.866	5739
1515.078	5730
1517.289	5758
1519.5	5768
1521.711	5624
1523.92	5805
1526.13	5829
1528.338	5817
1530.544	5830
1532.752	5804
1534.959	5874
1537.165	5780
1539.371	5934
1541.574	5687
1543.779	5889
1545.983	5749
1548.187	5743
1550.39	5873
1552.59	5810
1554.792	5825
1556.991	5926
1559.19	5932
1561.392	5941
1563.59	5975
1565.789	6037
1567.986	5947
1570.182	5999
1572.381	5956
1574.576	6019
1576.771	6029
1578.966	6028
1581.16	6011
1583.354	6014
1585.546	6058
1587.74	6020
1589.931	5971
1592.121	6119
1594.311	5914
1596.502	6020
1598.693	6180
1600.881	6077
1603.069	6005
1605.256	6107
1607.445	6065
1609.631	6216
1611.816	6065
1614.001	6070
1616.186	6113
1618.37	6073
1620.555	6173
1622.737	6187
1624.919	6156
1627.101	6118
1629.282	6229
1631.463	6096
1633.643	6094
1635.822	6150
1638.001	6090
1640.179	6084
1642.359	6147
1644.534	6105
1646.711	6187
1648.887	6084
1651.062	6191
1653.235	6002
1655.412	6162
1657.586	6170
1659.757	6220
1661.93	6165
1664.1	6282
1666.274	6213
1668.445	6149
1670.614	6184
1672.784	6225
1674.951	6093
1677.12	6260
1679.289	6047
1681.457	6145
1683.622	6164
1685.789	6217
1687.953	6167
1690.121	6188
1692.284	6148
1694.447	6206
1696.611	6241
1698.772	6220
1700.935	6090
1703.098	6159
1705.258	6217
1707.417	6106
1709.576	6097
1711.736	6101
1713.896	6108
1716.053	6039
1718.21	6057
1720.366	6007
1722.522	6026
1724.68	6140
1726.835	6002
1728.989	6069
1731.142	6073
1733.295	6112
1735.449	6115
1737.601	5963
1739.753	6048
1741.903	6163
1744.054	6006
1746.203	6045
1748.354	6072
1750.503	6018
1752.651	6005
1754.798	6093
1756.944	6043
1759.092	6102
1761.238	6125
1763.383	6016
1765.528	6066
1767.672	6053
1769.814	6079
1771.959	6176
1774.102	6061
1776.242	6093
1778.384	6064
1780.525	6085
1782.665	6063
1784.805	6022
1786.945	6192
1789.082	6096
1791.22	6053
1793.36	6196
1795.495	6118
1797.632	6130
1799.766	6042
1801.902	6057
1804.035	6205
1806.172	6119
1808.304	6065
1810.436	6027
1812.569	6057
1814.699	6153
1816.833	6018
1818.963	5966
1821.092	6096
1823.222	6029
1825.35	6042
1827.478	6052
1829.608	6000
1831.734	5998
1833.86	5969
1835.986	6081
1838.11	6031
1840.238	5986
1842.362	6027
1844.485	6000
1846.608	6040
1848.73	6025
1850.853	6027
1852.974	5938
1855.097	5990
1857.217	5918
1859.336	6007
1861.455	6015
1863.576	5979
1865.693	5924
1867.811	5983
1869.926	5988
1872.042	6027
1874.16	5950
1876.275	5962
1878.39	5920
1880.504	6038
1882.618	5971
1884.731	5782
1886.843	6035
1888.956	5971
1891.067	6055
1893.178	6027
1895.287	6027
1897.399	5973
1899.508	6108
1901.617	6048
1903.724	6140
1905.832	6039
1907.941	6039
1910.046	6024
1912.152	6061
1914.256	6040
1916.361	5950
1918.464	6041
1920.57	5989
1922.672	6086
1924.775	6000
1926.876	5997
1928.978	6077
1931.08	6040
1933.181	6065
1935.28	5975
1937.38	6095
1939.478	6189
1941.577	6093
1943.675	6141
1945.771	6104
1947.867	6031
1949.964	6123
1952.058	6058
1954.154	6129
1956.248	6021
1958.343	6007
1960.435	6099
1962.527	6008
1964.62	6021
1966.711	5957
1968.802	6111
1970.892	5992
1972.983	6022
1975.072	6078
1977.162	6048
1979.25	6067
1981.337	6081
1983.424	6006
1985.51	6085
1987.598	6005
1989.683	6022
1991.768	6048
1993.852	6085
1995.934	6011
1998.019	6033
2000.102	5902
2002.184	6032
2004.266	5989
2006.347	5945
2008.427	5974
2010.508	5875
2012.587	6137
2014.666	5979
2016.745	6064
2018.821	5908
2020.9	6020
2022.977	6059
2025.052	5896
2027.128	6066
2029.204	6074
2031.277	5864
2033.353	5906
2035.425	5892
2037.499	5890
2039.57	6038
2041.642	5924
2043.714	5957
2045.786	6084
2047.855	5977
2049.925	5952
2051.993	6028
2054.064	5866
2056.132	5904
2058.2	5874
2060.266	6032
2062.332	6076
2064.398	5943
2066.465	5977
2068.529	5975
2070.592	6065
2072.657	5912
2074.719	5996
2076.783	6034
2078.845	5911
2080.907	5958
2082.968	5909
2085.028	6074
2087.087	5926
2089.148	5924
2091.207	5899
2093.264	5996
2095.322	5932
2097.379	6186
2099.439	5928
2101.495	6071
2103.55	5894
2105.605	6033
2107.658	6127
2109.713	5971
2111.767	5925
2113.82	6002
2115.872	5870
2117.924	6106
2119.975	6028
2122.028	5922
2124.078	5999
2126.126	6008
2128.176	6018
2130.225	5994
2132.275	5887
2134.321	5939
2136.368	6077
2138.415	5991
2140.461	6045
2142.505	5949
2144.552	5958
2146.597	6059
2148.64	5943
2150.684	5887
2152.725	6009
2154.77	5958
2156.811	5925
2158.852	6006
2160.894	5943
2162.933	5951
2164.973	6001
2167.013	5943
2169.051	5844
2171.089	6008
2173.126	5872
2175.164	5958
2177.201	5977
2179.236	5968
2181.273	5920
2183.307	5861
2185.341	5915
2187.377	5916
2189.41	5874
2191.442	5863
2193.473	5865
2195.506	5935
2197.539	5788
2199.569	5838
2201.598	5862
2203.628	5882
2205.656	5766
2207.686	5823
2209.716	5934
2211.743	5750
2213.769	5793
2215.796	5856
2217.821	5921
2219.848	5992
2221.873	5731
2223.897	5777
2225.921	5768
2227.944	5789
2229.967	5868
2231.991	5808
2234.011	5962
2236.032	5926
2238.053	5812
2240.073	5849
2242.094	5782
2244.114	5817
2246.131	5886
2248.149	5798
2250.167	5863
2252.186	5802
2254.201	5799
2256.218	5812
2258.233	5933
2260.247	5884
2262.262	5849
2264.278	5791
2266.29	5742
2268.303	5843
2270.315	5711
2272.327	5776
2274.341	5830
2276.35	5802
2278.361	5817
2280.37	5843
2282.38	5864
2284.388	5775
2286.397	5755
2288.405	5855
2290.412	5775
2292.419	5792
2294.425	5890
2296.431	5871
2298.437	5814
2300.441	5844
2302.445	5814
2304.449	5745
2306.453	5889
2308.455	5767
2310.457	5822
2312.459	5727
2314.46	5708
2316.46	5655
2318.461	5714
2320.46	5761
2322.458	5722
2324.458	5777
2326.456	5726
2328.455	5701
2330.451	5822
2332.447	5696
2334.443	5718
2336.438	5646
2338.433	5758
2340.429	5793
2342.422	5750
2344.416	5596
2346.408	5785
2348.399	5627
2350.393	5700
2352.384	5605
2354.375	5755
2356.365	5642
2358.355	5637
2360.344	5685
2362.333	5566
2364.322	5653
2366.309	5766
2368.295	5677
2370.282	5507
2372.27	5582
2374.256	5557
2376.24	5564
2378.225	5591
2380.208	5605
2382.194	5661
2384.177	5596
2386.159	5607
2388.142	5692
2390.122	5625
2392.105	5664
2394.085	5537
2396.066	5574
2398.044	5574
2400.024	5525
2402.002	5581
2403.982	5657
2405.959	5581
2407.935	5596
2409.913	5517
2411.888	5572
2413.865	5529
2415.84	5561
2417.814	5521
2419.788	5554
2421.762	5621
2423.735	5679
2425.708	5515
2427.68	5598
2429.651	5584
2431.623	5557
2433.593	5540
2435.564	5552
2437.533	5443
2439.502	5577
2441.47	5622
2443.438	5685
2445.406	5649
2447.373	5585
2449.34	5610
2451.305	5583
2453.271	5522
2455.235	5634
2457.201	5501
2459.165	5454
2461.129	5488
2463.092	5548
2465.054	5447
2467.018	5482
2468.978	5508
2470.939	5534
2472.899	5488
2474.86	5547
2476.819	5553
2478.778	5520
2480.737	5430
2482.695	5406
2484.653	5442
2486.609	5478
2488.567	5479
2490.524	5407
2492.478	5475
2494.433	5512
2496.387	5550
2498.343	5402
2500.297	5479
2502.249	5402
2504.202	5505
2506.153	5445
2508.105	5477
2510.057	5447
2512.008	5440
2513.957	5439
2515.906	5431
2517.855	5479
2519.805	5416
2521.754	5441
2523.7	5403
2525.647	5414
2527.594	5384
2529.54	5378
2531.486	5472
2533.431	5354
2535.376	5420
2537.32	5428
2539.263	5437
2541.207	5406
2543.151	5488
2545.093	5460
2547.034	5409
2548.975	5325
2550.917	5395
2552.856	5382
2554.796	5486
2556.735	5431
2558.673	5381
2560.611	5357
2562.55	5392
2564.487	5483
2566.424	5464
2568.36	5396
2570.296	5312
2572.232	5290
2574.167	5409
2576.101	5327
2578.035	5481
2579.969	5462
2581.902	5481
2583.834	5323
2585.766	5415
2587.698	5472
2589.628	5539
2591.557	5500
2593.489	5447
2595.419	5378
2597.348	5376
2599.275	5480
2601.204	5342
2603.131	5361
2605.059	5383
2606.986	5529
2608.911	5366
2610.837	5404
2612.76	5396
2614.687	5387
2616.61	5370
2618.534	5457
2620.457	5390
2622.38	5467
2624.302	5441
2626.225	5500
2628.145	5334
2630.067	5498
2631.986	5522
2633.906	5503
2635.827	5501
2637.745	5411
2639.662	5515
2641.581	5416
2643.498	5513
2645.415	5550
2647.331	5365
2649.248	5433
2651.163	5428
2653.077	5371
2654.993	5419
2656.906	5525
2658.821	5425
2660.733	5493
2662.646	5389
2664.557	5401
2666.47	5434
2668.381	5453
2670.291	5447
2672.201	5385
2674.11	5416
2676.021	5427
2677.929	5436
2679.837	5345
2681.745	5424
2683.652	5428
2685.56	5421
2687.466	5421
2689.371	5432
2691.276	5310
2693.181	5397
2695.085	5409
2696.991	5275
2698.893	5314
2700.796	5383
2702.698	5331
2704.601	5387
2706.502	5341
2708.404	5365
2710.304	5339
2712.203	5323
2714.103	5357
2716.003	5348
2717.902	5369
2719.8	5494
2721.697	5306
2723.594	5300
2725.49	5279
2727.389	5308
2729.283	5224
2731.179	5288
2733.073	5299
2734.968	5314
2736.863	5324
2738.757	5310
2740.649	5390
2742.541	5266
2744.433	5360
2746.324	5248
2748.216	5244
2750.107	5286
2751.997	5271
2753.886	5293
2755.776	5364
2757.666	5301
2759.553	5331
2761.44	5299
2763.327	5267
2765.215	5242
2767.102	5327
2768.988	5334
2770.873	5296
2772.757	5256
2774.641	5254
2776.525	5328
2778.41	5217
2780.292	5340
2782.175	5271
2784.057	5254
2785.938	5254
2787.821	5314
2789.701	5230
2791.581	5200
2793.461	5239
2795.34	5266
2797.219	5287
2799.099	5210
2800.975	5204
2802.853	5255
2804.73	5221
2806.606	5304
2808.484	5257
2810.358	5164
2812.233	5230
2814.108	5211
2815.981	5097
2817.857	5223
2819.73	5268
2821.602	5260
2823.474	5285
2825.346	5358
2827.217	5197
2829.089	5300
2830.959	5275
2832.829	5269
2834.698	5296
2836.567	5306
2838.436	5270
2840.305	5169
2842.172	5302
2844.04	5272
2845.905	5181
2847.772	5222
2849.639	5267
2851.503	5285
2853.369	5316
2855.232	5321
2857.096	5325
2858.961	5228
2860.824	5345
2862.686	5484
2864.547	5444
2866.41	5343
2868.272	5287
2870.132	5440
2871.992	5473
2873.851	5354
2875.711	5444
2877.57	5549
2879.429	5538
2881.287	5432
2883.144	5633
2885.001	5563
2886.857	5577
2888.714	5504
2890.57	5668
2892.425	5581
2894.279	5665
2896.133	5570
2897.987	5539
2899.842	5504
2901.694	5591
2903.547	5652
2905.397	5608
2907.249	5649
2909.101	5647
2910.952	5618
2912.802	5655
2914.652	5652
2916.5	5699
2918.35	5668
2920.198	5630
2922.045	5735
2923.893	5887
2925.74	5726
2927.585	5762
2929.433	5850
2931.279	5803
2933.123	5807
2934.968	5865
2936.811	6026
2938.656	5944
2940.5	5787
2942.342	6057
2944.185	6018
2946.026	6032
2947.87	5952
2949.71	6045
2951.549	5961
2953.39	5978
2955.229	5913
2957.069	5994
2958.908	5917
2960.746	5891
2962.584	5816
2964.421	5813
2966.257	5744
2968.094	5783
2969.931	5687
2971.766	5694
2973.601	5628
2975.435	5591
2977.27	5638
2979.105	5587
2980.938	5615
2982.77	5500
2984.602	5563
2986.434	5439
2988.267	5460
2990.097	5405
2991.927	5368
2993.757	5403
2995.587	5430
2997.417	5405
2999.246	5372
3001.074	5365
3002.902	5232
3004.729	5268
3006.556	5230
3008.384	5219
3010.21	5123
3012.036	5223
3013.861	5212
3015.684	5167
3017.51	5061
3019.334	5132
3021.157	5093
3022.981	5124
3024.802	5015
3026.624	4987
3028.448	5035
3030.267	5090
3032.088	5043
3033.909	5001
3035.728	5005
3037.549	4976
3039.368	5055
3041.186	5048
3043.004	4991
3044.821	5051
3046.64	4938
3048.455	4950
3050.272	4876
3052.087	4993
3053.903	4902
3055.717	4981
3057.534	4960
3059.347	4971
3061.16	4891
3062.974	4921
3064.785	4909
3066.598	4987
3068.411	4972
3070.222	4987
3072.032	5022
3073.844	4881
3075.653	4773
3077.463	4784
3079.272	4899
3081.08	4825
3082.889	4834
3084.697	4820
3086.505	4773
3088.312	4799
3090.118	4881
3091.924	4778
3093.729	4814
3095.535	4816
3097.34	4816
3099.144	4838
3100.947	4788
3102.75	4720
3104.553	4860
3106.357	4718
3108.159	4789
3109.961	4738
3111.762	4770
3113.562	4714
3115.365	4823
3117.164	4689
3118.964	4708
3120.761	4740
3122.56	4721
3124.36	4737
3126.158	4696
3127.954	4692
3129.75	4625
3131.547	4703
3133.343	4603
3135.139	4658
3136.934	4686
3138.729	4709
3140.522	4575
3142.317	4646
3144.11	4644
3145.904	4624
3147.695	4626
3149.488	4604
3151.28	4585
3153.07	4601
3154.863	4609
3156.652	4573
3158.441	4619
3160.231	4586
3162.019	4572
3163.81	4653
3165.597	4561
3167.384	4630
3169.172	4641
3170.958	4631
3172.745	4602
3174.532	4503
3176.317	4623
3178.101	4615
3179.885	4552
3181.67	4570
3183.455	4531
3185.238	4532
3187.02	4446
3188.802	4601
3190.585	4553
3192.368	4519
3194.149	4497
3195.929	4521
3197.709	4496
3199.489	4553
3201.268	4572
3203.048	4479
3204.826	4591
3206.604	4556
3208.382	4459
3210.159	4395
3211.937	4467
3213.713	4579
3215.489	4438
3217.263	4516
3219.038	4543
3220.815	4484
3222.589	4377
3224.363	4456
3226.136	4453
3227.908	4561
3229.681	4491
3231.454	4450
3233.226	4472
3234.996	4398
3236.767	4492
3238.538	4480
3240.308	4457
3242.078	4487
3243.847	4509
3245.615	4522
3247.384	4429
3249.15	4484
3250.92	4361
3252.686	4339
3254.453	4470
3256.218	4536
3257.984	4408
3259.75	4441
3261.515	4418
3263.279	4442
3265.044	4420
3266.806	4410
3268.57	4380
3270.334	4400
3272.095	4459
3273.856	4460
3275.619	4350
3277.379	4487
3279.14	4421
3280.9	4452
3282.661	4397
3284.419	4433
3286.178	4510
3287.937	4460
3289.695	4462
3291.453	4454
3293.21	4437
3294.967	4456
3296.723	4385
3298.48	4496
3300.235	4477
3301.99	4459
3303.744	4408
3305.498	4380
3307.253	4434
3309.006	4403
3310.759	4494
3312.511	4412
3314.263	4417
3316.017	4433
3317.768	4479
3319.519	4289
3321.268	4407
3323.018	4420
3324.767	4546
3326.518	4304
3328.267	4312
3330.014	4460
3331.762	4357
3333.509	4459
3335.258	4369
3337.003	4249
3338.75	4363
3340.496	4337
3342.24	4377
3343.987	4346
3345.732	4407
3347.475	4303
3349.219	4301
3350.961	4317
3352.705	4289
3354.448	4359
3356.19	4359
3357.931	4349
3359.672	4317
3361.412	4312
3363.155	4300
3364.894	4283
3366.633	4329
3368.372	4312
3370.11	4287
3371.849	4337
3373.588	4338
3375.325	4271
3377.061	4290
3378.799	4313
3380.534	4294
3382.271	4296
3384.006	4342
3385.741	4293
3387.475	4342
3389.209	4247
3390.944	4221
3392.677	4406
3394.409	4232
3396.143	4341
3397.874	4183
3399.606	4360
3401.338	4234
3403.069	4244
3404.799	4160
3406.528	4234
3408.258	4255
3409.988	4135
3411.717	4240
3413.445	4253
3415.173	4191
3416.899	4232
3418.626	4179
3420.354	4154
3422.08	4221
3423.806	4146
3425.531	4183
3427.255	4198
3428.981	4253
3430.705	4231
3432.429	4264
3434.151	4154
3435.875	4208
3437.599	4131
3439.321	4118
3441.042	4174
3442.763	4111
3444.483	4158
3446.204	4124
3447.926	4153
3449.645	4104
3451.364	4035
3453.082	4161
3454.801	4157
3456.52	4148
3458.238	4159
3459.954	4069
3461.671	4119
3463.387	4085
3465.104	4075
3466.82	4077
3468.534	4101
3470.25	4091
3471.963	4078
3473.676	4035
3475.392	4075
3477.104	4050
3478.817	4006
3480.528	4037
3482.241	4004
3483.954	4094
3485.664	4081
3487.374	4080
3489.084	4056
3490.795	3981
3492.504	3985
3494.214	4060
3495.922	3990
3497.63	4031
3499.338	4000
3501.045	3975
3502.753	4000
3504.459	3981
3506.166	3995
3507.871	3960
3509.576	3939
3511.283	3882
3512.987	3921
3514.691	3906
3516.395	3868
3518.098	3956
3519.8	3945
3521.504	3948
3523.206	3979
3524.908	4011
3526.609	3900
3528.309	3903
3530.011	3904
3531.711	3917
3533.411	3906
3535.109	3854
3536.808	3905
3538.507	3882
3540.206	3948
3541.904	3956
3543.601	3919
3545.297	3915
3546.994	3954
3548.69	3865
3550.387	3877
3552.081	3892
3553.776	3906
3555.47	3910
3557.166	3847
3558.859	3862
3560.553	3890
3562.245	3893
3563.938	3817
3565.629	3953
3567.322	3697
3569.014	3881
3570.704	3798
3572.394	3838
3574.084	3896
3575.775	3835
3577.464	3831
3579.152	3851
3580.842	3893
3582.529	3774
3584.216	3869
3585.905	3826
3587.591	3784
3589.279	3817
3590.964	3811
3592.649	3768
3594.336	3823
3596.021	3801
3597.705	3723
3599.388	3674
3601.072	3773
3602.757	3793
3604.439	3744
3606.122	3714
3607.803	3720
3609.485	3738
3611.167	3791
3612.849	3768
3614.529	3793
3616.208	3731
3617.888	3698
3619.567	3690
3621.247	3647
3622.926	3726
3624.603	3639
3626.281	3655
3627.958	3664
3629.635	3643
3631.312	3770
3632.989	3669
3634.665	3654
3636.339	3654
3638.014	3601
3639.691	3699
3641.364	3565
3643.038	3669
3644.71	3620
3646.384	3640
3648.058	3681
3649.729	3596
3651.402	3641
3653.073	3689
3654.744	3629
3656.414	3634
3658.085	3534
3659.755	3655
3661.424	3693
3663.094	3528
3664.762	3515
3666.431	3556
3668.099	3571
3669.766	3552
3671.433	3506
3673.099	3561
3674.768	3626
3676.433	3538
3678.098	3644
3679.763	3572
3681.428	3516
3683.093	3561
3684.757	3550
3686.421	3558
3688.083	3585
3689.746	3572
3691.408	3544
3693.071	3508
3694.733	3572
3696.394	3531
3698.054	3579
3699.715	3538
3701.375	3497
3703.036	3621
3704.695	3610
3706.354	3621
3708.012	3564
3709.67	3518
3711.329	3475
3712.987	3542
3714.644	3534
3716.299	3548
3717.955	3470
3719.613	3476
3721.268	3599
3722.923	3504
3724.577	3484
3726.231	3503
3727.885	3421
3729.539	3442
3731.192	3512
3732.845	3487
3734.497	3548
3736.149	3432
3737.802	3491
3739.453	3568
3741.104	3435
3742.753	3457
3744.404	3486
3746.052	3448
3747.704	3500
3749.352	3495
3751	3477
3752.648	3449
3754.296	3445
3755.944	3455
3757.59	3434
3759.238	3384
3760.883	3453
3762.528	3413
3764.176	3348
3765.82	3462
3767.464	3411
3769.109	3426
3770.753	3412
3772.396	3365
3774.04	3445
3775.683	3436
3777.325	3351
3778.967	3304
3780.608	3373
3782.25	3452
3783.89	3372
3785.531	3385
3787.17	3373
3788.81	3432
3790.45	3334
3792.09	3298
3793.729	3351
3795.366	3337
3797.003	3330
3798.64	3378
3800.278	3285
3801.915	3322
3803.551	3351
3805.187	3377
3806.822	3324
3808.458	3320
3810.093	3347
3811.726	3293
3813.36	3339
3814.994	3340
3816.627	3284
3818.262	3283
3819.893	3195
3821.525	3256
3823.157	3183
3824.787	3274
3826.42	3297
3828.051	3274
3829.68	3302
3831.31	3208
3832.938	3254
3834.569	3273
3836.198	3295
3837.825	3253
3839.454	3253
3841.08	3279
3842.708	3286
3844.335	3279
3845.962	3233
3847.587	3237
3849.212	3264
3850.838	3256
3852.463	3222
3854.089	3246
3855.712	3222
3857.335	3213
3858.959	3329
3860.582	3187
3862.205	3245
3863.827	3239
3865.449	3101
3867.07	3269
3868.691	3207
3870.312	3213
3871.933	3170
3873.553	3277
3875.173	3213
3876.792	3235
3878.411	3251
3880.03	3157
3881.647	3208
3883.265	3199
3884.882	3162
3886.499	3122
3888.116	3148
3889.732	3168
3891.348	3155
3892.964	3209
3894.579	3143
3896.195	3132
3897.809	3192
3899.423	3112
3901.036	3156
3902.648	3155
3904.261	3258
3905.875	3245
3907.487	3158
3909.099	3182
3910.709	3095
3912.321	3160
3913.933	3116
3915.542	3132
3917.152	3217
3918.762	3160
3920.37	3170
3921.98	3163
3923.589	3179
3925.196	3064
3926.804	3148
3928.41	3166
3930.018	3096
3931.626	3131
3933.231	3041
3934.838	3152
3936.442	3154
3938.046	3151
3939.653	3187
3941.257	3059
3942.861	3106
3944.464	3107
3946.068	3126
3947.67	3104
3949.273	3076
3950.876	3088
3952.477	3120
3954.078	3159
3955.678	3130
3957.281	3093
3958.881	3119
3960.48	3054
3962.079	3158
3963.678	3059
3965.279	3127
3966.877	3046
3968.475	3039
3970.072	3068
3971.669	2986
3973.266	3098
3974.864	3056
3976.459	3019
3978.055	3037
3979.65	3001
3981.245	2987
3982.841	3032
3984.436	3016
3986.03	2997
3987.623	2957
3989.216	3049
3990.809	3038
3992.403	2927
3993.995	3042
3995.586	3014
3997.177	3075
3998.768	3069
4000.361	2970
4001.951	3027
4003.54	3042
4005.13	2943
4006.719	2984
4008.31	2971
4009.897	2982
4011.485	3031
4013.073	2953
4014.66	2981
4016.247	2932
4017.834	2938
4019.421	2952
4021.006	2947
4022.592	2980
4024.178	2916
4025.763	2911
4027.348	2918
4028.932	2859
4030.515	2892
4032.099	2912
4033.682	2925
4035.266	2863
4036.847	2879
4038.429	2908
4040.011	2874
4041.592	2886
4043.173	2856
4044.755	2875
4046.334	2879
4047.913	2909
4049.494	2833
4051.074	2935
4052.652	2868
4054.23	2869
4055.807	2825
4057.385	2919
4058.963	2924
4060.541	2940
4062.117	2832
4063.693	2828
4065.269	2830
4066.844	2840
4068.42	2878
4069.995	2901
4071.569	2853
4073.143	2811
4074.716	2835
4076.291	2858
4077.864	2877
4079.436	2813
4081.009	2871
4082.58	2827
4084.152	2874
4085.723	2828
4087.294	2788
4088.865	2840
4090.435	2813
4092.005	2795
4093.574	2903
4095.143	2807
4096.712	2753
4098.279	2836
4099.848	2839
4101.416	2797
4102.984	2782
4104.55	2764
4106.117	2847
4107.682	2764
4109.248	2764
4110.815	2794
4112.379	2801
4113.945	2778
4115.508	2834
4117.073	2784
4118.637	2766
4120.201	2744
4121.763	2796
4123.325	2747
4124.888	2729
4126.449	2805
4128.013	2737
4129.573	2792
4131.133	2742
4132.694	2712
4134.254	2784
4135.814	2786
4137.374	2747
4138.933	2699
4140.491	2781
4142.049	2689
4143.607	2735
4145.167	2747
4146.724	2702
4148.28	2729
4149.836	2726
4151.392	2753
4152.949	2786
4154.504	2698
4156.059	2725
4157.614	2678
4159.168	2591
4160.723	2679
4162.277	2648
4163.83	2682
4165.383	2697
4166.936	2692
4168.488	2647
4170.041	2703
4171.593	2597
4173.144	2682
4174.695	2691
4176.246	2692
4177.796	2641
4179.346	2682
4180.896	2630
4182.445	2640
4183.994	2681
4185.542	2670
4187.091	2592
4188.639	2619
4190.185	2680
4191.732	2564
4193.279	2563
4194.826	2600
4196.373	2616
4197.918	2597
4199.463	2589
4201.008	2630
4202.553	2565
4204.098	2648
4205.641	2609
4207.185	2611
4208.728	2592
4210.271	2574
4211.814	2593
4213.357	2559
4214.898	2634
4216.439	2612
4217.98	2626
4219.522	2594
4221.062	2580
4222.603	2595
4224.142	2614
4225.681	2554
4227.222	2670
4228.76	2589
4230.298	2640
4231.835	2583
4233.373	2607
4234.911	2624
4236.449	2575
4237.985	2603
4239.521	2544
4241.057	2594
4242.592	2581
4244.128	2600
4245.663	2602
4247.197	2548
4248.731	2587
4250.265	2549
4251.798	2531
4253.333	2584
4254.865	2524
4256.397	2550
4257.93	2532
4259.461	2521
4260.994	2504
4262.525	2553
4264.056	2565
4265.586	2547
4267.115	2483
4268.646	2549
4270.176	2488
4271.705	2535
4273.232	2528
4274.761	2560
4276.289	2522
4277.818	2532
4279.345	2497
4280.872	2519
4282.399	2471
4283.924	2520
4285.452	2532
4286.976	2504
4288.502	2494
4290.026	2535
4291.551	2506
4293.074	2492
4294.6	2475
4296.123	2494
4297.646	2472
4299.168	2506
4300.691	2447
4302.214	2519
4303.736	2484
4305.257	2527
4306.778	2463
4308.299	2440
4309.82	2480
4311.34	2493
4312.86	2423
4314.379	2517
