400.0745	4046
402.597	4185
405.1208	4179
407.6419	4222
410.1623	4226
412.6819	4286
415.201	4252
417.7172	4273
420.2369	4412
422.7538	4489
425.2701	4424
427.7856	4596
430.3005	4482
432.8147	4680
435.3282	4482
437.841	4540
440.3511	4518
442.8625	4482
445.3753	4613
447.8854	4625
450.3927	4510
452.9014	4465
455.4073	4428
457.9146	4488
460.4233	4474
462.9272	4506
465.4325	4392
467.935	4476
470.4389	4528
472.9421	4414
475.4446	4447
477.9444	4508
480.4456	4583
482.944	4415
485.4417	4428
487.9429	4471
490.4393	4475
492.935	4493
495.4321	4509
497.9264	4543
500.4221	4523
502.9171	4630
505.4094	4636
507.9011	4529
510.392	4652
512.8864	4539
515.3759	4606
517.8649	4520
520.3531	4590
522.8406	4622
525.3275	4619
527.8178	4620
530.3033	4607
532.7881	4682
535.2723	4647
537.7558	4691
540.2407	4668
542.7228	4649
545.2043	4670
547.6851	4689
550.1652	4629
552.6467	4700
555.1255	4627
557.6016	4630
560.079	4705
562.5557	4739
565.0318	4758
567.5092	4814
569.984	4784
572.456	4843
574.9294	4767
577.4022	4784
579.8762	4921
582.3456	4860
584.8163	4811
587.2863	4860
589.7557	5064
592.2224	4913
594.6924	4994
597.1578	4999
599.6245	4869
602.0905	4878
604.5538	4870
607.0206	4786
609.4825	4824
611.9459	4855
614.4066	4890
616.8686	4799
619.33	4768
621.7906	4718
624.2487	4812
626.708	4802
629.1647	4787
631.6207	4729
634.0801	4761
636.5348	4816
638.9888	4727
641.4442	4832
643.8969	4843
646.3509	4761
648.8022	4778
651.255	4871
653.705	4774
656.1544	4889
658.6031	4889
661.0532	4900
663.5026	4884
665.9493	4812
668.3954	4811
670.8409	4923
673.2877	4887
675.7318	4803
678.1752	4914
680.618	5000
683.0601	4778
685.5035	4846
687.9444	4924
690.3845	5009
692.824	4926
695.2628	4880
697.701	4966
700.1406	4952
702.5774	4874
705.0116	5058
707.4472	4869
709.8821	5039
712.3183	4936
714.7519	5100
717.1829	4997
719.6151	5095
722.0468	5063
724.4777	5227
726.908	5155
729.3377	5068
731.7667	5083
734.1931	5155
736.6208	5161
739.0498	5181
741.4742	5229
743.9	5134
746.3231	5191
748.7476	5260
751.1713	5255
753.5945	5348
756.015	5201
758.4368	5253
760.856	5279
763.2766	5250
765.6965	5296
768.1157	5319
770.5323	5291
772.9483	5339
775.3656	5280
777.7822	5220
780.1963	5343
782.6116	5299
785.0244	5255
787.4365	5309
789.8499	5304
792.2626	5318
794.6728	5412
797.0823	5251
799.4911	5296
801.8994	5416
804.3109	5250
806.7178	5380
809.124	5282
811.5297	5367
813.9347	5442
816.341	5435
818.7447	5430
821.1478	5372
823.5502	5307
825.952	5484
828.3531	5384
830.7556	5422
833.1554	5401
835.5546	5422
837.9532	5540
840.3511	5418
842.7504	5371
845.1451	5550
847.5411	5435
849.9365	5548
852.3312	5613
854.7272	5610
857.1187	5539
859.5115	5548
861.9037	5471
864.2952	5628
866.6842	5495
869.0764	5528
871.4661	5523
873.8531	5530
876.2415	5486
878.6272	5626
881.0162	5532
883.4026	5662
885.7866	5504
888.1717	5572
890.5543	5488
892.9382	5512
895.3215	5510
897.7041	5504
900.0842	5447
902.4655	5475
904.8443	5496
907.2244	5600
909.6039	5575
911.9808	5581
914.357	5626
916.7346	5844
919.1115	5797
921.4859	5830
923.8616	5916
926.2347	5758
928.6071	5850
930.979	5865
933.3541	5876
935.7247	5910
938.0946	5902
940.4639	5909
942.8326	5999
945.2026	6151
947.5701	6198
949.9369	6499
952.305	6711
954.6705	6855
957.0355	7195
959.4017	7524
961.7654	7713
964.1284	7715
966.4908	7451
968.8527	7130
971.2138	6746
973.5743	6436
975.9343	6148
978.2936	6098
980.6522	5914
983.0122	5815
985.3696	5801
987.7245	5705
990.0807	5764
992.4362	5695
994.7911	5714
997.1474	5713
999.4991	5709
1001.852	5821
1004.205	5777
1006.555	5768
1008.908	5792
1011.258	5709
1013.606	5743
1015.956	5731
1018.302	5762
1020.652	5744
1022.998	5712
1025.345	5825
1027.691	5857
1030.035	5770
1032.378	5905
1034.724	5765
1037.066	5833
1039.409	5846
1041.75	5779
1044.092	5941
1046.433	5884
1048.771	5826
1051.112	5858
1053.449	5834
1055.786	5927
1058.124	5909
1060.462	5805
1062.797	5969
1065.131	5939
1067.467	5904
1069.8	5933
1072.135	6006
1074.467	6038
1076.798	5966
1079.129	5925
1081.459	5949
1083.792	5884
1086.121	5925
1088.449	5863
1090.777	5948
1093.104	5878
1095.431	5891
1097.759	5933
1100.084	5923
1102.408	5818
1104.732	5756
1107.056	5889
1109.379	5818
1111.701	5805
1114.022	5880
1116.343	5786
1118.664	5842
1120.983	5768
1123.303	5919
1125.621	5790
1127.939	5933
1130.256	5805
1132.573	5793
1134.889	5820
1137.205	5831
1139.52	5768
1141.832	5740
1144.146	5769
1146.461	5750
1148.771	5777
1151.083	5863
1153.392	5802
1155.703	5859
1158.011	5867
1160.323	5774
1162.629	5826
1164.938	5812
1167.243	5809
1169.55	5788
1171.857	5824
1174.163	5919
1176.466	5787
1178.769	5877
1181.073	5858
1183.374	5790
1185.677	5882
1187.979	5885
1190.279	5790
1192.578	5713
1194.878	5894
1197.178	5840
1199.476	5884
1201.772	5911
1204.068	5826
1206.366	5894
1208.663	5895
1210.957	5838
1213.251	5952
1215.544	5821
1217.836	5844
1220.128	5799
1222.421	5859
1224.712	5851
1227.002	5842
1229.292	5935
1231.581	5990
1233.871	6053
1236.159	6084
1238.446	6022
1240.732	6108
1243.018	6172
1245.304	6074
1247.59	6272
1249.874	6171
1252.156	6075
1254.439	6083
1256.721	6126
1259.005	6138
1261.286	6127
1263.565	6125
1265.845	6054
1268.125	6170
1270.403	6067
1272.682	6098
1274.959	6221
1277.234	6135
1279.511	6063
1281.787	6117
1284.062	6094
1286.337	6011
1288.609	6085
1290.882	6049
1293.153	5894
1295.428	5998
1297.698	6071
1299.969	5904
1302.237	6000
1304.507	6040
1306.777	5985
1309.044	5981
1311.312	5927
1313.578	5823
1315.844	5980
1318.109	5935
1320.375	6033
1322.638	6075
1324.903	5960
1327.165	5895
1329.427	5970
1331.69	5928
1333.952	5981
1336.212	6040
1338.471	5985
1340.73	6028
1342.988	5909
1345.248	6037
1347.505	6040
1349.763	5959
1352.019	5951
1354.274	5787
1356.53	5958
1358.784	5943
1361.038	6010
1363.291	5981
1365.543	5978
1367.797	6020
1370.048	5973
1372.296	5962
1374.546	5935
1376.796	5980
1379.045	6007
1381.295	5918
1383.542	6066
1385.787	5983
1388.034	6012
1390.28	5962
1392.527	6017
1394.772	6132
1397.014	6130
1399.258	5993
1401.501	6097
1403.741	6091
1405.985	6018
1408.226	6078
1410.465	6261
1412.705	6083
1414.943	6211
1417.184	6209
1419.42	6267
1421.658	6196
1423.894	6146
1426.13	6163
1428.366	6220
1430.602	6059
1432.835	6176
1435.069	6186
1437.301	6065
1439.535	6258
1441.767	6394
1443.997	6286
1446.229	6409
1448.458	6295
1450.687	6403
1452.916	6408
1455.146	6305
1457.372	6388
1459.599	6517
1461.824	6316
1464.051	6324
1466.277	6383
1468.501	6354
1470.725	6289
1472.948	6171
1475.17	6213
1477.393	6085
1479.614	6047
1481.837	6100
1484.057	5967
1486.276	5892
1488.497	5925
1490.715	5980
1492.932	5812
1495.148	5881
1497.364	5924
1499.58	5924
1501.798	5896
1504.012	6031
1506.227	5957
1508.44	5926
1510.653	5865
1512.866	5953
1515.078	5867
1517.289	5940
1519.5	5818
1521.711	5912
1523.92	5782
1526.13	5810
1528.338	5905
1530.544	5825
1532.752	5982
1534.959	5823
1537.165	5887
1539.371	5856
1541.574	5880
1543.779	5924
1545.983	5962
1548.187	5926
1550.39	5898
1552.59	6016
1554.792	5937
1556.991	5919
1559.19	6033
1561.392	6001
1563.59	5959
1565.789	5904
1567.986	6066
1570.182	5987
1572.381	6017
1574.576	6038
1576.771	5872
1578.966	6003
1581.16	6029
1583.354	6050
1585.546	6110
1587.74	6130
1589.931	6077
1592.121	6063
1594.311	6125
1596.502	6080
1598.693	6066
1600.881	6114
1603.069	6220
1605.256	6126
1607.445	6009
1609.631	6189
1611.816	6151
1614.001	6073
1616.186	6164
1618.37	6156
1620.555	6135
1622.737	6103
1624.919	6166
1627.101	6200
1629.282	6206
1631.463	6192
1633.643	6207
1635.822	6334
1638.001	6266
1640.179	6289
1642.359	6200
1644.534	6342
1646.711	6238
1648.887	6268
1651.062	6435
1653.235	6291
1655.412	6390
1657.586	6253
1659.757	6266
1661.93	6281
1664.1	6274
1666.274	6323
1668.445	6356
1670.614	6345
1672.784	6320
1674.951	6419
1677.12	6364
1679.289	6328
1681.457	6293
1683.622	6307
1685.789	6255
1687.953	6367
1690.121	6280
1692.284	6231
1694.447	6230
1696.611	6216
1698.772	6259
1700.935	6082
1703.098	6125
1705.258	6064
1707.417	6099
1709.576	6013
1711.736	6090
1713.896	6026
1716.053	6078
1718.21	6001
1720.366	6022
1722.522	5992
1724.68	6068
1726.835	5925
1728.989	6013
1731.142	5982
1733.295	5973
1735.449	6111
1737.601	5897
1739.753	6051
1741.903	6070
1744.054	6114
1746.203	5959
1748.354	6080
1750.503	6090
1752.651	5918
1754.798	6055
1756.944	6101
1759.092	5972
1761.238	6119
1763.383	6009
1765.528	6127
1767.672	5968
1769.814	5946
1771.959	6174
1774.102	6048
1776.242	6001
1778.384	6019
1780.525	6029
1782.665	6050
1784.805	6045
1786.945	6151
1789.082	6133
1791.22	6005
1793.36	6056
1795.495	6063
1797.632	6091
1799.766	6109
1801.902	6083
1804.035	6138
1806.172	6087
1808.304	6046
1810.436	6004
1812.569	6046
1814.699	6128
1816.833	6097
1818.963	6035
1821.092	5982
1823.222	5989
1825.35	6012
1827.478	6062
1829.608	6062
1831.734	6018
1833.86	6013
1835.986	6035
1838.11	6090
1840.238	6019
1842.362	6080
1844.485	5998
1846.608	5989
1848.73	6111
1850.853	6011
1852.974	6082
1855.097	5908
1857.217	6016
1859.336	6018
1861.455	5887
1863.576	5916
1865.693	6025
1867.811	6149
1869.926	6013
1872.042	5919
1874.16	5966
1876.275	5912
1878.39	5810
1880.504	6025
1882.618	6103
1884.731	5939
1886.843	6004
1888.956	6015
1891.067	5985
1893.178	6065
1895.287	5983
1897.399	5933
1899.508	5973
1901.617	5931
1903.724	5941
1905.832	6110
1907.941	6032
1910.046	5983
1912.152	6038
1914.256	5942
1916.361	6031
1918.464	6140
1920.57	6019
1922.672	6006
1924.775	6047
1926.876	6096
1928.978	6099
1931.08	6089
1933.181	6054
1935.28	6167
1937.38	5936
1939.478	5984
1941.577	6075
1943.675	6217
1945.771	6072
1947.867	6008
1949.964	6111
1952.058	6087
1954.154	6075
1956.248	6116
1958.343	6061
1960.435	5982
1962.527	6121
1964.62	6037
1966.711	6098
1968.802	6049
1970.892	6066
1972.983	5939
1975.072	6046
1977.162	5958
1979.25	6128
1981.337	6078
1983.424	6003
1985.51	6032
1987.598	6062
1989.683	6000
1991.768	5991
1993.852	5952
1995.934	5951
1998.019	6034
2000.102	5947
2002.184	6033
2004.266	5982
2006.347	5935
2008.427	5890
2010.508	6083
2012.587	5943
2014.666	6002
2016.745	5934
2018.821	5964
2020.9	5986
2022.977	5987
2025.052	5901
2027.128	6045
2029.204	6016
2031.277	6036
2033.353	6010
2035.425	5985
2037.499	5911
2039.57	6029
2041.642	5931
2043.714	6003
2045.786	6006
2047.855	6049
2049.925	5988
2051.993	6029
2054.064	6029
2056.132	5932
2058.2	6008
2060.266	5992
2062.332	6083
2064.398	6032
2066.465	6053
2068.529	5993
2070.592	5987
2072.657	5936
2074.719	5970
2076.783	5997
2078.845	6048
2080.907	5881
2082.968	6076
2085.028	5950
2087.087	6065
2089.148	5932
2091.207	6035
2093.264	5977
2095.322	6052
2097.379	5959
2099.439	6001
2101.495	5933
2103.55	6065
2105.605	5918
2107.658	6008
2109.713	5978
2111.767	6038
2113.82	6068
2115.872	6046
2117.924	6005
2119.975	5969
2122.028	6012
2124.078	5976
2126.126	6022
2128.176	5948
2130.225	6026
2132.275	6018
2134.321	6025
2136.368	6043
2138.415	5935
2140.461	6112
2142.505	6003
2144.552	5914
2146.597	5945
2148.64	5995
2150.684	5847
2152.725	5946
2154.77	5914
2156.811	5992
2158.852	5858
2160.894	5982
2162.933	5960
2164.973	5917
2167.013	5973
2169.051	5886
2171.089	5964
2173.126	5817
2175.164	5917
2177.201	5852
2179.236	5900
2181.273	5860
2183.307	5983
2185.341	6015
2187.377	5831
2189.41	5923
2191.442	5837
2193.473	5878
2195.506	5902
2197.539	5843
2199.569	5856
2201.598	5870
2203.628	5866
2205.656	5846
2207.686	5935
2209.716	5888
2211.743	5788
2213.769	5869
2215.796	5752
2217.821	5770
2219.848	5825
2221.873	5867
2223.897	5791
2225.921	5905
2227.944	5880
2229.967	5891
2231.991	5812
2234.011	5808
2236.032	5884
2238.053	5865
2240.073	5871
2242.094	5841
2244.114	5752
2246.131	5746
2248.149	5821
2250.167	5883
2252.186	5816
2254.201	5865
2256.218	5894
2258.233	5857
2260.247	5796
2262.262	5842
2264.278	5818
2266.29	5746
2268.303	5728
2270.315	5878
2272.327	5834
2274.341	5762
2276.35	5742
2278.361	5824
2280.37	5828
2282.38	5798
2284.388	5753
2286.397	5796
2288.405	5922
2290.412	5885
2292.419	5898
2294.425	5711
2296.431	5849
2298.437	5783
2300.441	5774
2302.445	5851
2304.449	5926
2306.453	5695
2308.455	5934
2310.457	5716
2312.459	5796
2314.46	5794
2316.46	5801
2318.461	5828
2320.46	5869
2322.458	5775
2324.458	5777
2326.456	5723
2328.455	5784
2330.451	5723
2332.447	5665
2334.443	5889
2336.438	5774
2338.433	5751
2340.429	5707
2342.422	5754
2344.416	5778
2346.408	5756
2348.399	5720
2350.393	5724
2352.384	5696
2354.375	5702
2356.365	5632
2358.355	5679
2360.344	5707
2362.333	5679
2364.322	5617
2366.309	5623
2368.295	5667
2370.282	5639
2372.27	5695
2374.256	5759
2376.24	5702
2378.225	5693
2380.208	5662
2382.194	5604
2384.177	5661
2386.159	5625
2388.142	5576
2390.122	5666
2392.105	5688
2394.085	5539
2396.066	5550
2398.044	5582
2400.024	5518
2402.002	5633
2403.982	5616
2405.959	5711
2407.935	5556
2409.913	5626
2411.888	5621
2413.865	5547
2415.84	5549
2417.814	5572
2419.788	5540
2421.762	5641
2423.735	5599
2425.708	5557
2427.68	5610
2429.651	5583
2431.623	5582
2433.593	5636
2435.564	5641
2437.533	5629
2439.502	5585
2441.47	5587
2443.438	5550
2445.406	5624
2447.373	5598
2449.34	5568
2451.305	5528
2453.271	5638
2455.235	5563
2457.201	5585
2459.165	5580
2461.129	5576
2463.092	5456
2465.054	5545
2467.018	5614
2468.978	5542
2470.939	5476
2472.899	5518
2474.86	5480
2476.819	5493
2478.778	5566
2480.737	5577
2482.695	5406
2484.653	5503
2486.609	5480
2488.567	5439
2490.524	5504
2492.478	5505
2494.433	5597
2496.387	5548
2498.343	5590
2500.297	5508
2502.249	5546
2504.202	5497
2506.153	5638
2508.105	5562
2510.057	5395
2512.008	5553
2513.957	5492
2515.906	5493
2517.855	5540
2519.805	5415
2521.754	5511
2523.7	5494
2525.647	5506
2527.594	5573
2529.54	5435
2531.486	5528
2533.431	5429
2535.376	5491
2537.32	5402
2539.263	5475
2541.207	5450
2543.151	5426
2545.093	5363
2547.034	5535
2548.975	5507
2550.917	5447
2552.856	5423
2554.796	5375
2556.735	5451
2558.673	5431
2560.611	5422
2562.55	5444
2564.487	5530
2566.424	5518
2568.36	5521
2570.296	5430
2572.232	5498
2574.167	5469
2576.101	5463
2578.035	5474
2579.969	5490
2581.902	5462
2583.834	5475
2585.766	5364
2587.698	5372
2589.628	5443
2591.557	5549
2593.489	5510
2595.419	5509
2597.348	5392
2599.275	5465
2601.204	5399
2603.131	5535
2605.059	5473
2606.986	5556
2608.911	5429
2610.837	5453
2612.76	5486
2614.687	5491
2616.61	5454
2618.534	5467
2620.457	5460
2622.38	5459
2624.302	5471
2626.225	5406
2628.145	5444
2630.067	5505
2631.986	5418
2633.906	5427
2635.827	5426
2637.745	5497
2639.662	5431
2641.581	5545
2643.498	5444
2645.415	5422
2647.331	5490
2649.248	5489
2651.163	5539
2653.077	5457
2654.993	5429
2656.906	5550
2658.821	5407
2660.733	5519
2662.646	5524
2664.557	5412
2666.47	5502
2668.381	5498
2670.291	5352
2672.201	5405
2674.11	5441
2676.021	5535
2677.929	5575
2679.837	5435
2681.745	5391
2683.652	5324
2685.56	5403
2687.466	5364
2689.371	5324
2691.276	5555
2693.181	5272
2695.085	5498
2696.991	5429
2698.893	5368
2700.796	5453
2702.698	5509
2704.601	5427
2706.502	5418
2708.404	5403
2710.304	5329
2712.203	5408
2714.103	5312
2716.003	5413
2717.902	5369
2719.8	5508
2721.697	5366
2723.594	5352
2725.49	5383
2727.389	5321
2729.283	5386
2731.179	5345
2733.073	5354
2734.968	5485
2736.863	5389
2738.757	5398
2740.649	5378
2742.541	5385
2744.433	5363
2746.324	5405
2748.216	5406
2750.107	5286
2751.997	5384
2753.886	5309
2755.776	5305
2757.666	5363
2759.553	5355
2761.44	5440
2763.327	5341
2765.215	5337
2767.102	5334
2768.988	5281
2770.873	5361
2772.757	5265
2774.641	5355
2776.525	5259
2778.41	5359
2780.292	5402
2782.175	5246
2784.057	5410
2785.938	5304
2787.821	5326
2789.701	5331
2791.581	5334
2793.461	5285
2795.34	5261
2797.219	5264
2799.099	5301
2800.975	5272
2802.853	5449
2804.73	5213
2806.606	5311
2808.484	5365
2810.358	5300
2812.233	5357
2814.108	5351
2815.981	5262
2817.857	5278
2819.73	5264
2821.602	5259
2823.474	5293
2825.346	5243
2827.217	5211
2829.089	5363
2830.959	5303
2832.829	5323
2834.698	5326
2836.567	5385
2838.436	5298
2840.305	5347
2842.172	5397
2844.04	5327
2845.905	5292
2847.772	5294
2849.639	5427
2851.503	5348
2853.369	5473
2855.232	5431
2857.096	5440
2858.961	5482
2860.824	5505
2862.686	5535
2864.547	5559
2866.41	5538
2868.272	5602
2870.132	5781
2871.992	5749
2873.851	5803
2875.711	5870
2877.57	5834
2879.429	5920
2881.287	6041
2883.144	6081
2885.001	6151
2886.857	6194
2888.714	5973
2890.57	6046
2892.425	6040
2894.279	6059
2896.133	6105
2897.987	6087
2899.842	6203
2901.694	5987
2903.547	6058
2905.397	5986
2907.249	5924
2909.101	6114
2910.952	6212
2912.802	6203
2914.652	6291
2916.5	6226
2918.35	6432
2920.198	6478
2922.045	6530
2923.893	6559
2925.74	6757
2927.585	6718
2929.433	6900
2931.279	7005
2933.123	7042
2934.968	7004
2936.811	7197
2938.656	7240
2940.5	7229
2942.342	7313
2944.185	7256
2946.026	7370
2947.87	7459
2949.71	7127
2951.549	7141
2953.39	7104
2955.229	7129
2957.069	7039
2958.908	6946
2960.746	6828
2962.584	6850
2964.421	6694
2966.257	6611
2968.094	6452
2969.931	6528
2971.766	6447
2973.601	6435
2975.435	6354
2977.27	6343
2979.105	6378
2980.938	6256
2982.77	6394
2984.602	6254
2986.434	6224
2988.267	6241
2990.097	6055
2991.927	6095
2993.757	6114
2995.587	6050
2997.417	5968
2999.246	5918
3001.074	5823
3002.902	5880
3004.729	5687
3006.556	5613
3008.384	5507
3010.21	5491
3012.036	5417
3013.861	5379
3015.684	5381
3017.51	5308
3019.334	5203
3021.157	5214
3022.981	5254
3024.802	5194
3026.624	5220
3028.448	5164
3030.267	5134
3032.088	5042
3033.909	5100
3035.728	4967
3037.549	5028
3039.368	5096
3041.186	5055
3043.004	4996
3044.821	5021
3046.64	4974
3048.455	4930
3050.272	4972
3052.087	5042
3053.903	4987
3055.717	5105
3057.534	5006
3059.347	5044
3061.16	4978
3062.974	4977
3064.785	5055
3066.598	5051
3068.411	5058
3070.222	5093
3072.032	4955
3073.844	4999
3075.653	4975
3077.463	5036
3079.272	4907
3081.08	4929
3082.889	4904
3084.697	4884
3086.505	4933
3088.312	4899
3090.118	4942
3091.924	4809
3093.729	4892
3095.535	4864
3097.34	4924
3099.144	4872
3100.947	4780
3102.75	4844
3104.553	4845
3106.357	4905
3108.159	4802
3109.961	4895
3111.762	4742
3113.562	4813
3115.365	4857
3117.164	4747
3118.964	4807
3120.761	4865
3122.56	4841
3124.36	4781
3126.158	4778
3127.954	4800
3129.75	4731
3131.547	4789
3133.343	4816
3135.139	4695
3136.934	4696
3138.729	4723
3140.522	4801
3142.317	4753
3144.11	4806
3145.904	4702
3147.695	4752
3149.488	4794
3151.28	4605
3153.07	4749
3154.863	4765
3156.652	4742
3158.441	4783
3160.231	4724
3162.019	4714
3163.81	4742
3165.597	4569
3167.384	4700
3169.172	4757
3170.958	4753
3172.745	4793
3174.532	4752
3176.317	4744
3178.101	4705
3179.885	4720
3181.67	4691
3183.455	4721
3185.238	4716
3187.02	4700
3188.802	4708
3190.585	4670
3192.368	4719
3194.149	4766
3195.929	4704
3197.709	4713
3199.489	4671
3201.268	4709
3203.048	4671
3204.826	4596
3206.604	4594
3208.382	4623
3210.159	4724
3211.937	4590
3213.713	4656
3215.489	4675
3217.263	4691
3219.038	4656
3220.815	4643
3222.589	4745
3224.363	4586
3226.136	4665
3227.908	4665
3229.681	4752
3231.454	4663
3233.226	4605
3234.996	4661
3236.767	4680
3238.538	4711
3240.308	4694
3242.078	4712
3243.847	4602
3245.615	4698
3247.384	4695
3249.15	4623
3250.92	4660
3252.686	4631
3254.453	4630
3256.218	4627
3257.984	4692
3259.75	4691
3261.515	4714
3263.279	4721
3265.044	4694
3266.806	4675
3268.57	4667
3270.334	4777
3272.095	4685
3273.856	4653
3275.619	4689
3277.379	4686
3279.14	4687
3280.9	4641
3282.661	4667
3284.419	4671
3286.178	4695
3287.937	4689
3289.695	4731
3291.453	4733
3293.21	4774
3294.967	4728
3296.723	4756
3298.48	4760
3300.235	4695
3301.99	4698
3303.744	4789
3305.498	4757
3307.253	4633
3309.006	4718
3310.759	4743
3312.511	4714
3314.263	4827
3316.017	4664
3317.768	4650
3319.519	4704
3321.268	4721
3323.018	4741
3324.767	4738
3326.518	4751
3328.267	4736
3330.014	4680
3331.762	4688
3333.509	4647
3335.258	4704
3337.003	4698
3338.75	4768
3340.496	4719
3342.24	4632
3343.987	4674
3345.732	4739
3347.475	4683
3349.219	4662
3350.961	4589
3352.705	4665
3354.448	4678
3356.19	4684
3357.931	4654
3359.672	4681
3361.412	4673
3363.155	4612
3364.894	4649
3366.633	4605
3368.372	4529
3370.11	4565
3371.849	4605
3373.588	4610
3375.325	4520
3377.061	4558
3378.799	4555
3380.534	4534
3382.271	4542
3384.006	4597
3385.741	4561
3387.475	4563
3389.209	4611
3390.944	4547
3392.677	4443
3394.409	4470
3396.143	4520
3397.874	4495
3399.606	4460
3401.338	4539
3403.069	4546
3404.799	4415
3406.528	4527
3408.258	4461
3409.988	4444
3411.717	4522
3413.445	4521
3415.173	4438
3416.899	4442
3418.626	4472
3420.354	4447
3422.08	4463
3423.806	4444
3425.531	4369
3427.255	4444
3428.981	4532
3430.705	4362
3432.429	4423
3434.151	4335
3435.875	4295
3437.599	4368
3439.321	4383
3441.042	4379
3442.763	4396
3444.483	4328
3446.204	4376
3447.926	4380
3449.645	4355
3451.364	4372
3453.082	4259
3454.801	4473
3456.52	4393
3458.238	4350
3459.954	4228
3461.671	4238
3463.387	4300
3465.104	4310
3466.82	4322
3468.534	4227
3470.25	4326
3471.963	4260
3473.676	4213
3475.392	4312
3477.104	4189
3478.817	4195
3480.528	4273
3482.241	4155
3483.954	4218
3485.664	4204
3487.374	4200
3489.084	4270
3490.795	4232
3492.504	4258
3494.214	4177
3495.922	4127
3497.63	4125
3499.338	4126
3501.045	4179
3502.753	4136
3504.459	4225
3506.166	4157
3507.871	4154
3509.576	4167
3511.283	4173
3512.987	4175
3514.691	4104
3516.395	4121
3518.098	4116
3519.8	4134
3521.504	4074
3523.206	4142
3524.908	4120
3526.609	4049
3528.309	4006
3530.011	4062
3531.711	4015
3533.411	4096
3535.109	4036
3536.808	3957
3538.507	4023
3540.206	4042
3541.904	3985
3543.601	4045
3545.297	4054
3546.994	4004
3548.69	4053
3550.387	4021
3552.081	3977
3553.776	4037
3555.47	3935
3557.166	3894
3558.859	3988
3560.553	4006
3562.245	3962
3563.938	3965
3565.629	4011
3567.322	3950
3569.014	3931
3570.704	3915
3572.394	4047
3574.084	3973
3575.775	3924
3577.464	3975
3579.152	3875
3580.842	3923
3582.529	3920
3584.216	3893
3585.905	3891
3587.591	3893
3589.279	3823
3590.964	3917
3592.649	3901
3594.336	3866
3596.021	3786
3597.705	3794
3599.388	3796
3601.072	3914
3602.757	3769
3604.439	3761
3606.122	3927
3607.803	3875
3609.485	3851
3611.167	3813
3612.849	3843
3614.529	3777
3616.208	3756
3617.888	3770
3619.567	3773
3621.247	3785
3622.926	3697
3624.603	3713
3626.281	3780
3627.958	3689
3629.635	3749
3631.312	3757
3632.989	3688
3634.665	3632
3636.339	3730
3638.014	3711
3639.691	3691
3641.364	3704
3643.038	3641
3644.71	3695
3646.384	3663
3648.058	3650
3649.729	3616
3651.402	3679
3653.073	3667
3654.744	3614
3656.414	3678
3658.085	3482
3659.755	3587
3661.424	3640
3663.094	3633
3664.762	3511
3666.431	3616
3668.099	3654
3669.766	3576
3671.433	3581
3673.099	3554
3674.768	3631
3676.433	3499
3678.098	3591
3679.763	3550
3681.428	3607
3683.093	3586
3684.757	3565
3686.421	3583
3688.083	3535
3689.746	3558
3691.408	3617
3693.071	3583
3694.733	3579
3696.394	3521
3698.054	3597
3699.715	3535
3701.375	3519
3703.036	3536
3704.695	3452
3706.354	3475
3708.012	3464
3709.67	3442
3711.329	3458
3712.987	3524
3714.644	3553
3716.299	3512
3717.955	3493
3719.613	3577
3721.268	3479
3722.923	3465
3724.577	3484
3726.231	3508
3727.885	3463
3729.539	3416
3731.192	3457
3732.845	3525
3734.497	3526
3736.149	3418
3737.802	3546
3739.453	3498
3741.104	3444
3742.753	3433
3744.404	3456
3746.052	3490
3747.704	3452
3749.352	3456
3751	3460
3752.648	3443
3754.296	3395
3755.944	3412
3757.59	3408
3759.238	3415
3760.883	3373
3762.528	3479
3764.176	3354
3765.82	3365
3767.464	3439
3769.109	3401
3770.753	3443
3772.396	3330
3774.04	3458
3775.683	3334
3777.325	3421
3778.967	3331
3780.608	3426
3782.25	3382
3783.89	3333
3785.531	3406
3787.17	3373
3788.81	3301
3790.45	3347
3792.09	3344
3793.729	3292
3795.366	3319
3797.003	3312
3798.64	3363
3800.278	3363
3801.915	3397
3803.551	3413
3805.187	3301
3806.822	3358
3808.458	3427
3810.093	3319
3811.726	3291
3813.36	3291
3814.994	3395
3816.627	3298
3818.262	3306
3819.893	3262
3821.525	3244
3823.157	3347
3824.787	3265
3826.42	3349
3828.051	3259
3829.68	3272
3831.31	3266
3832.938	3269
3834.569	3222
3836.198	3250
3837.825	3409
3839.454	3234
3841.08	3215
3842.708	3266
3844.335	3285
3845.962	3218
3847.587	3230
3849.212	3236
3850.838	3287
3852.463	3141
3854.089	3167
3855.712	3204
3857.335	3205
3858.959	3262
3860.582	3120
3862.205	3207
3863.827	3202
3865.449	3269
3867.07	3252
3868.691	3165
3870.312	3230
3871.933	3281
3873.553	3179
3875.173	3133
3876.792	3204
3878.411	3188
3880.03	3262
3881.647	3164
3883.265	3166
3884.882	3198
3886.499	3167
3888.116	3205
3889.732	3146
3891.348	3164
3892.964	3186
3894.579	3199
3896.195	3165
3897.809	3105
3899.423	3215
3901.036	3184
3902.648	3139
3904.261	3135
3905.875	3205
3907.487	3174
3909.099	3104
3910.709	3146
3912.321	3104
3913.933	3180
3915.542	3104
3917.152	3124
3918.762	3171
3920.37	3138
3921.98	3082
3923.589	3142
3925.196	3146
3926.804	3132
3928.41	3092
3930.018	3077
3931.626	3031
3933.231	3086
3934.838	3188
3936.442	3145
3938.046	3138
3939.653	3108
3941.257	3098
3942.861	3135
3944.464	3103
3946.068	3103
3947.67	3188
3949.273	3086
3950.876	3092
3952.477	3139
3954.078	3073
3955.678	3034
3957.281	3073
3958.881	3099
3960.48	3127
3962.079	3066
3963.678	3029
3965.279	3070
3966.877	3064
3968.475	3028
3970.072	3080
3971.669	3062
3973.266	3009
3974.864	3061
3976.459	2974
3978.055	3062
3979.65	2956
3981.245	3046
3982.841	3082
3984.436	3022
3986.03	3058
3987.623	2962
3989.216	3039
3990.809	3006
3992.403	2967
3993.995	3015
3995.586	2985
3997.177	2988
3998.768	2966
4000.361	2953
4001.951	2875
4003.54	3002
4005.13	2965
4006.719	2969
4008.31	3002
4009.897	3013
4011.485	2869
4013.073	2963
4014.66	2934
4016.247	2916
4017.834	2879
4019.421	2855
4021.006	2930
4022.592	2932
4024.178	2925
4025.763	2912
4027.348	2890
4028.932	2933
4030.515	2959
4032.099	2964
4033.682	2878
4035.266	2981
4036.847	2893
4038.429	2937
4040.011	2958
4041.592	2915
4043.173	2838
4044.755	2885
4046.334	2821
4047.913	2890
4049.494	2867
4051.074	2832
4052.652	2946
4054.23	2905
4055.807	2894
4057.385	2851
4058.963	2822
4060.541	2891
4062.117	2848
4063.693	2836
4065.269	2808
4066.844	2898
4068.42	2775
4069.995	2786
4071.569	2911
4073.143	2843
4074.716	2823
4076.291	2842
4077.864	2890
4079.436	2849
4081.009	2807
4082.58	2875
4084.152	2858
4085.723	2838
4087.294	2834
4088.865	2770
4090.435	2836
4092.005	2793
4093.574	2844
4095.143	2787
4096.712	2828
4098.279	2832
4099.848	2864
4101.416	2840
4102.984	2758
4104.55	2773
4106.117	2775
4107.682	2803
4109.248	2811
4110.815	2770
4112.379	2752
4113.945	2802
4115.508	2757
4117.073	2774
4118.637	2824
4120.201	2808
4121.763	2731
4123.325	2770
4124.888	2760
4126.449	2713
4128.013	2789
4129.573	2740
4131.133	2784
4132.694	2752
4134.254	2635
4135.814	2761
4137.374	2738
4138.933	2750
4140.491	2666
4142.049	2692
4143.607	2701
4145.167	2745
4146.724	2709
4148.28	2705
4149.836	2698
4151.392	2617
4152.949	2724
4154.504	2700
4156.059	2686
4157.614	2653
4159.168	2637
4160.723	2674
4162.277	2698
4163.83	2656
4165.383	2635
4166.936	2697
4168.488	2634
4170.041	2649
4171.593	2634
4173.144	2681
4174.695	2662
4176.246	2683
4177.796	2589
4179.346	2636
4180.896	2640
4182.445	2651
4183.994	2644
4185.542	2672
4187.091	2636
4188.639	2599
4190.185	2705
4191.732	2607
4193.279	2638
4194.826	2601
4196.373	2629
4197.918	2612
4199.463	2564
4201.008	2655
4202.553	2613
4204.098	2601
4205.641	2611
4207.185	2625
4208.728	2612
4210.271	2602
4211.814	2587
4213.357	2624
4214.898	2582
4216.439	2587
4217.98	2557
4219.522	2512
4221.062	2556
4222.603	2549
4224.142	2590
4225.681	2517
4227.222	2558
4228.76	2588
4230.298	2608
4231.835	2560
4233.373	2579
4234.911	2596
4236.449	2574
4237.985	2527
4239.521	2564
4241.057	2572
4242.592	2535
4244.128	2534
4245.663	2547
4247.197	2568
4248.731	2544
4250.265	2557
4251.798	2503
4253.333	2544
4254.865	2540
4256.397	2480
4257.93	2511
4259.461	2568
4260.994	2503
4262.525	2514
4264.056	2493
4265.586	2537
4267.115	2492
4268.646	2535
4270.176	2505
4271.705	2490
4273.232	2483
4274.761	2529
4276.289	2486
4277.818	2510
4279.345	2494
4280.872	2475
4282.399	2520
4283.924	2522
4285.452	2545
4286.976	2454
4288.502	2424
4290.026	2473
4291.551	2476
4293.074	2460
4294.6	2522
4296.123	2521
4297.646	2469
4299.168	2469
4300.691	2464
4302.214	2440
4303.736	2409
4305.257	2468
4306.778	2454
4308.299	2401
4309.82	2469
4311.34	2448
4312.86	2403
4314.379	2395
