400.0745	4445
402.597	4442
405.1208	4387
407.6419	4418
410.1623	4507
412.6819	4562
415.201	4524
417.7172	4563
420.2369	4558
422.7538	4640
425.2701	4573
427.7856	4666
430.3005	4629
432.8147	4671
435.3282	4777
437.841	4744
440.3511	4711
442.8625	4689
445.3753	4793
447.8854	4810
450.3927	4740
452.9014	4750
455.4073	4725
457.9146	4841
460.4233	4714
462.9272	4805
465.4325	4815
467.935	4747
470.4389	4797
472.9421	4761
475.4446	4718
477.9444	4818
480.4456	4853
482.944	4927
485.4417	4883
487.9429	4892
490.4393	4866
492.935	4932
495.4321	4866
497.9264	4915
500.4221	4951
502.9171	4924
505.4094	4974
507.9011	4952
510.392	4964
512.8864	4887
515.3759	4967
517.8649	5015
520.3531	5001
522.8406	5101
525.3275	5108
527.8178	5045
530.3033	5096
532.7881	4965
535.2723	5101
537.7558	5069
540.2407	5065
542.7228	5079
545.2043	5009
547.6851	5077
550.1652	5059
552.6467	5016
555.1255	5099
557.6016	5105
560.079	5111
562.5557	5070
565.0318	5100
567.5092	5131
569.984	5122
572.456	5140
574.9294	5161
577.4022	5161
579.8762	5203
582.3456	5216
584.8163	5228
587.2863	5247
589.7557	5215
592.2224	5155
594.6924	5190
597.1578	5191
599.6245	5183
602.0905	5228
604.5538	5169
607.0206	5205
609.4825	5141
611.9459	5119
614.4066	5189
616.8686	5184
619.33	5221
621.7906	5307
624.2487	5272
626.708	5193
629.1647	5172
631.6207	5164
634.0801	5203
636.5348	5046
638.9888	5198
641.4442	5264
643.8969	5165
646.3509	5189
648.8022	5237
651.255	5221
653.705	5278
656.1544	5345
658.6031	5278
661.0532	5235
663.5026	5302
665.9493	5336
668.3954	5379
670.8409	5346
673.2877	5332
675.7318	5326
678.1752	5343
680.618	5350
683.0601	5426
685.5035	5326
687.9444	5453
690.3845	5425
692.824	5401
695.2628	5408
697.701	5415
700.1406	5434
702.5774	5376
705.0116	5422
707.4472	5432
709.8821	5441
712.3183	5423
714.7519	5501
717.1829	5482
719.6151	5611
722.0468	5473
724.4777	5611
726.908	5625
729.3377	5456
731.7667	5526
734.1931	5572
736.6208	5531
739.0498	5649
741.4742	5651
743.9	5645
746.3231	5719
748.7476	5717
751.1713	5764
753.5945	5837
756.015	5679
758.4368	5683
760.856	5699
763.2766	5803
765.6965	5779
768.1157	5754
770.5323	5718
772.9483	5834
775.3656	5624
777.7822	5899
780.1963	5785
782.6116	5803
785.0244	5783
787.4365	5751
789.8499	5769
792.2626	5805
794.6728	5742
797.0823	5802
799.4911	5910
801.8994	5779
804.3109	5866
806.7178	5926
809.124	5793
811.5297	5839
813.9347	5968
816.341	5853
818.7447	5820
821.1478	5929
823.5502	5881
825.952	5857
828.3531	5822
830.7556	5811
833.1554	5890
835.5546	5956
837.9532	5944
840.3511	5987
842.7504	5968
845.1451	5916
847.5411	6079
849.9365	5947
852.3312	5932
854.7272	5960
857.1187	5959
859.5115	5931
861.9037	5942
864.2952	6013
866.6842	5985
869.0764	5872
871.4661	6124
873.8531	5959
876.2415	5940
878.6272	5865
881.0162	5899
883.4026	5923
885.7866	5908
888.1717	5964
890.5543	5917
892.9382	6021
895.3215	5951
897.7041	5965
900.0842	5961
902.4655	5929
904.8443	5939
907.2244	5960
909.6039	6031
911.9808	5987
914.357	6052
916.7346	6073
919.1115	6081
921.4859	6235
923.8616	6161
926.2347	6240
928.6071	6325
930.979	6095
933.3541	6228
935.7247	6215
938.0946	6265
940.4639	6267
942.8326	6234
945.2026	6317
947.5701	6370
949.9369	6485
952.305	6609
954.6705	6711
957.0355	6843
959.4017	7032
961.7654	7043
964.1284	6979
966.4908	6956
968.8527	6868
971.2138	6610
973.5743	6424
975.9343	6333
978.2936	6206
980.6522	6216
983.0122	6126
985.3696	6176
987.7245	6248
990.0807	6132
992.4362	6193
994.7911	6151
997.1474	6193
999.4991	6158
1001.852	6302
1004.205	6151
1006.555	6113
1008.908	6201
1011.258	6143
1013.606	6131
1015.956	6138
1018.302	6270
1020.652	6219
1022.998	6169
1025.345	6150
1027.691	6153
1030.035	6155
1032.378	6204
1034.724	6256
1037.066	6250
1039.409	6308
1041.75	6262
1044.092	6239
1046.433	6220
1048.771	6264
1051.112	6288
1053.449	6253
1055.786	6344
1058.124	6346
1060.462	6199
1062.797	6326
1065.131	6322
1067.467	6299
1069.8	6305
1072.135	6317
1074.467	6396
1076.798	6445
1079.129	6315
1081.459	6439
1083.792	6276
1086.121	6257
1088.449	6302
1090.777	6325
1093.104	6299
1095.431	6416
1097.759	6420
1100.084	6295
1102.408	6233
1104.732	6292
1107.056	6322
1109.379	6321
1111.701	6241
1114.022	6371
1116.343	6399
1118.664	6419
1120.983	6347
1123.303	6427
1125.621	6415
1127.939	6438
1130.256	6396
1132.573	6422
1134.889	6282
1137.205	6325
1139.52	6375
1141.832	6327
1144.146	6473
1146.461	6348
1148.771	6292
1151.083	6521
1153.392	6352
1155.703	6386
1158.011	6372
1160.323	6410
1162.629	6390
1164.938	6350
1167.243	6519
1169.55	6347
1171.857	6372
1174.163	6406
1176.466	6355
1178.769	6328
1181.073	6350
1183.374	6346
1185.677	6358
1187.979	6407
1190.279	6366
1192.578	6408
1194.878	6385
1197.178	6316
1199.476	6392
1201.772	6395
1204.068	6397
1206.366	6357
1208.663	6334
1210.957	6328
1213.251	6401
1215.544	6393
1217.836	6356
1220.128	6424
1222.421	6417
1224.712	6405
1227.002	6357
1229.292	6419
1231.581	6458
1233.871	6463
1236.159	6445
1238.446	6431
1240.732	6527
1243.018	6561
1245.304	6532
1247.59	6514
1249.874	6476
1252.156	6675
1254.439	6677
1256.721	6727
1259.005	6497
1261.286	6532
1263.565	6581
1265.845	6602
1268.125	6618
1270.403	6570
1272.682	6508
1274.959	6487
1277.234	6662
1279.511	6571
1281.787	6564
1284.062	6535
1286.337	6469
1288.609	6488
1290.882	6592
1293.153	6517
1295.428	6515
1297.698	6516
1299.969	6610
1302.237	6562
1304.507	6396
1306.777	6435
1309.044	6433
1311.312	6448
1313.578	6482
1315.844	6522
1318.109	6443
1320.375	6403
1322.638	6427
1324.903	6454
1327.165	6591
1329.427	6562
1331.69	6620
1333.952	6408
1336.212	6513
1338.471	6651
1340.73	6494
1342.988	6452
1345.248	6559
1347.505	6481
1349.763	6522
1352.019	6533
1354.274	6554
1356.53	6539
1358.784	6463
1361.038	6497
1363.291	6536
1365.543	6438
1367.797	6536
1370.048	6476
1372.296	6532
1374.546	6482
1376.796	6602
1379.045	6515
1381.295	6587
1383.542	6534
1385.787	6473
1388.034	6586
1390.28	6493
1392.527	6523
1394.772	6713
1397.014	6663
1399.258	6523
1401.501	6668
1403.741	6571
1405.985	6593
1408.226	6564
1410.465	6602
1412.705	6567
1414.943	6526
1417.184	6676
1419.42	6767
1421.658	6681
1423.894	6671
1426.13	6651
1428.366	6787
1430.602	6657
1432.835	6695
1435.069	6717
1437.301	6675
1439.535	6764
1441.767	6819
1443.997	6643
1446.229	6728
1448.458	6796
1450.687	6782
1452.916	6809
1455.146	6810
1457.372	6756
1459.599	6760
1461.824	6769
1464.051	6833
1466.277	6718
1468.501	6714
1470.725	6648
1472.948	6626
1475.17	6735
1477.393	6707
1479.614	6545
1481.837	6557
1484.057	6681
1486.276	6579
1488.497	6521
1490.715	6575
1492.932	6346
1495.148	6541
1497.364	6580
1499.58	6534
1501.798	6499
1504.012	6506
1506.227	6475
1508.44	6517
1510.653	6550
1512.866	6461
1515.078	6563
1517.289	6510
1519.5	6498
1521.711	6551
1523.92	6578
1526.13	6504
1528.338	6498
1530.544	6456
1532.752	6458
1534.959	6548
1537.165	6544
1539.371	6372
1541.574	6437
1543.779	6465
1545.983	6451
1548.187	6625
1550.39	6647
1552.59	6590
1554.792	6519
1556.991	6755
1559.19	6543
1561.392	6649
1563.59	6589
1565.789	6611
1567.986	6700
1570.182	6641
1572.381	6544
1574.576	6662
1576.771	6672
1578.966	6694
1581.16	6831
1583.354	6698
1585.546	6608
1587.74	6787
1589.931	6729
1592.121	6641
1594.311	6533
1596.502	6688
1598.693	6777
1600.881	6667
1603.069	6712
1605.256	6769
1607.445	6725
1609.631	6668
1611.816	6720
1614.001	6726
1616.186	6758
1618.37	6817
1620.555	6713
1622.737	6845
1624.919	6662
1627.101	6785
1629.282	6719
1631.463	6719
1633.643	6786
1635.822	6804
1638.001	6677
1640.179	6650
1642.359	6858
1644.534	6731
1646.711	6813
1648.887	6676
1651.062	6819
1653.235	6805
1655.412	6780
1657.586	6856
1659.757	6710
1661.93	6758
1664.1	6781
1666.274	6759
1668.445	6794
1670.614	6797
1672.784	6911
1674.951	6789
1677.12	6745
1679.289	6895
1681.457	6816
1683.622	6799
1685.789	6774
1687.953	6812
1690.121	6915
1692.284	6687
1694.447	6805
1696.611	6878
1698.772	6730
1700.935	6759
1703.098	6668
1705.258	6672
1707.417	6634
1709.576	6691
1711.736	6710
1713.896	6638
1716.053	6721
1718.21	6721
1720.366	6601
1722.522	6642
1724.68	6575
1726.835	6732
1728.989	6667
1731.142	6661
1733.295	6614
1735.449	6683
1737.601	6601
1739.753	6827
1741.903	6672
1744.054	6675
1746.203	6695
1748.354	6677
1750.503	6862
1752.651	6739
1754.798	6578
1756.944	6648
1759.092	6654
1761.238	6610
1763.383	6749
1765.528	6761
1767.672	6650
1769.814	6629
1771.959	6724
1774.102	6610
1776.242	6632
1778.384	6691
1780.525	6708
1782.665	6819
1784.805	6782
1786.945	6624
1789.082	6811
1791.22	6737
1793.36	6637
1795.495	6794
1797.632	6807
1799.766	6744
1801.902	6818
1804.035	6796
1806.172	6630
1808.304	6802
1810.436	6717
1812.569	6798
1814.699	6780
1816.833	6689
1818.963	6694
1821.092	6740
1823.222	6725
1825.35	6767
1827.478	6632
1829.608	6686
1831.734	6793
1833.86	6645
1835.986	6711
1838.11	6663
1840.238	6670
1842.362	6616
1844.485	6618
1846.608	6802
1848.73	6645
1850.853	6727
1852.974	6647
1855.097	6713
1857.217	6720
1859.336	6746
1861.455	6744
1863.576	6720
1865.693	6557
1867.811	6651
1869.926	6671
1872.042	6713
1874.16	6713
1876.275	6612
1878.39	6621
1880.504	6749
1882.618	6683
1884.731	6651
1886.843	6598
1888.956	6637
1891.067	6610
1893.178	6742
1895.287	6633
1897.399	6654
1899.508	6765
1901.617	6720
1903.724	6691
1905.832	6734
1907.941	6708
1910.046	6614
1912.152	6730
1914.256	6762
1916.361	6739
1918.464	6916
1920.57	6759
1922.672	6724
1924.775	6754
1926.876	6791
1928.978	6729
1931.08	6743
1933.181	6790
1935.28	6751
1937.38	6741
1939.478	6760
1941.577	6659
1943.675	6785
1945.771	6757
1947.867	6776
1949.964	6809
1952.058	6659
1954.154	6699
1956.248	6742
1958.343	6819
1960.435	6692
1962.527	6801
1964.62	6813
1966.711	6758
1968.802	6751
1970.892	6817
1972.983	6674
1975.072	6717
1977.162	6689
1979.25	6784
1981.337	6643
1983.424	6739
1985.51	6808
1987.598	6676
1989.683	6574
1991.768	6599
1993.852	6682
1995.934	6725
1998.019	6727
2000.102	6494
2002.184	6647
2004.266	6616
2006.347	6624
2008.427	6622
2010.508	6579
2012.587	6648
2014.666	6757
2016.745	6663
2018.821	6686
2020.9	6617
2022.977	6696
2025.052	6670
2027.128	6555
2029.204	6674
2031.277	6698
2033.353	6573
2035.425	6554
2037.499	6641
2039.57	6726
2041.642	6667
2043.714	6746
2045.786	6681
2047.855	6696
2049.925	6628
2051.993	6630
2054.064	6743
2056.132	6763
2058.2	6715
2060.266	6659
2062.332	6700
2064.398	6589
2066.465	6585
2068.529	6681
2070.592	6769
2072.657	6620
2074.719	6633
2076.783	6685
2078.845	6716
2080.907	6557
2082.968	6693
2085.028	6613
2087.087	6657
2089.148	6658
2091.207	6669
2093.264	6649
2095.322	6639
2097.379	6750
2099.439	6638
2101.495	6608
2103.55	6656
2105.605	6616
2107.658	6661
2109.713	6696
2111.767	6638
2113.82	6738
2115.872	6631
2117.924	6686
2119.975	6673
2122.028	6703
2124.078	6525
2126.126	6651
2128.176	6552
2130.225	6646
2132.275	6584
2134.321	6587
2136.368	6550
2138.415	6688
2140.461	6702
2142.505	6564
2144.552	6522
2146.597	6576
2148.64	6599
2150.684	6635
2152.725	6537
2154.77	6563
2156.811	6678
2158.852	6642
2160.894	6584
2162.933	6545
2164.973	6523
2167.013	6547
2169.051	6585
2171.089	6627
2173.126	6541
2175.164	6599
2177.201	6520
2179.236	6513
2181.273	6630
2183.307	6617
2185.341	6491
2187.377	6465
2189.41	6506
2191.442	6602
2193.473	6483
2195.506	6588
2197.539	6387
2199.569	6528
2201.598	6475
2203.628	6538
2205.656	6610
2207.686	6395
2209.716	6564
2211.743	6472
2213.769	6417
2215.796	6424
2217.821	6426
2219.848	6566
2221.873	6387
2223.897	6532
2225.921	6464
2227.944	6448
2229.967	6383
2231.991	6498
2234.011	6425
2236.032	6480
2238.053	6493
2240.073	6435
2242.094	6436
2244.114	6395
2246.131	6449
2248.149	6491
2250.167	6458
2252.186	6428
2254.201	6397
2256.218	6464
2258.233	6416
2260.247	6402
2262.262	6505
2264.278	6459
2266.29	6439
2268.303	6465
2270.315	6378
2272.327	6327
2274.341	6505
2276.35	6541
2278.361	6369
2280.37	6530
2282.38	6524
2284.388	6390
2286.397	6529
2288.405	6467
2290.412	6290
2292.419	6488
2294.425	6379
2296.431	6474
2298.437	6495
2300.441	6395
2302.445	6336
2304.449	6407
2306.453	6427
2308.455	6324
2310.457	6385
2312.459	6488
2314.46	6426
2316.46	6407
2318.461	6286
2320.46	6403
2322.458	6310
2324.458	6354
2326.456	6382
2328.455	6448
2330.451	6348
2332.447	6368
2334.443	6398
2336.438	6304
2338.433	6357
2340.429	6344
2342.422	6313
2344.416	6299
2346.408	6276
2348.399	6246
2350.393	6304
2352.384	6356
2354.375	6283
2356.365	6272
2358.355	6327
2360.344	6453
2362.333	6310
2364.322	6385
2366.309	6299
2368.295	6323
2370.282	6221
2372.27	6327
2374.256	6153
2376.24	6264
2378.225	6386
2380.208	6277
2382.194	6320
2384.177	6281
2386.159	6217
2388.142	6252
2390.122	6253
2392.105	6180
2394.085	6254
2396.066	6107
2398.044	6162
2400.024	6242
2402.002	6131
2403.982	6182
2405.959	6254
2407.935	6240
2409.913	6163
2411.888	6130
2413.865	6193
2415.84	6194
2417.814	6231
2419.788	6281
2421.762	6187
2423.735	6144
2425.708	6187
2427.68	6195
2429.651	6151
2431.623	6260
2433.593	6080
2435.564	6136
2437.533	6248
2439.502	6161
2441.47	6188
2443.438	6173
2445.406	6207
2447.373	6215
2449.34	6084
2451.305	6193
2453.271	6147
2455.235	6138
2457.201	6184
2459.165	6141
2461.129	6163
2463.092	6084
2465.054	6067
2467.018	6140
2468.978	6063
2470.939	6148
2472.899	6140
2474.86	6113
2476.819	6063
2478.778	6083
2480.737	6111
2482.695	6080
2484.653	6057
2486.609	6054
2488.567	6131
2490.524	6086
2492.478	5992
2494.433	5988
2496.387	6063
2498.343	6047
2500.297	6076
2502.249	5935
2504.202	5985
2506.153	6046
2508.105	6080
2510.057	6035
2512.008	6059
2513.957	5977
2515.906	6018
2517.855	6113
2519.805	6021
2521.754	6037
2523.7	6024
2525.647	5987
2527.594	5898
2529.54	6144
2531.486	6075
2533.431	6092
2535.376	5978
2537.32	5976
2539.263	5959
2541.207	6052
2543.151	6035
2545.093	6010
2547.034	5977
2548.975	6085
2550.917	5974
2552.856	5957
2554.796	6028
2556.735	6037
2558.673	6115
2560.611	6088
2562.55	6074
2564.487	5996
2566.424	5927
2568.36	6078
2570.296	5931
2572.232	6049
2574.167	6017
2576.101	6155
2578.035	5982
2579.969	6032
2581.902	5959
2583.834	6001
2585.766	5950
2587.698	6080
2589.628	6024
2591.557	6064
2593.489	5944
2595.419	5936
2597.348	5982
2599.275	6091
2601.204	5895
2603.131	5992
2605.059	5961
2606.986	5926
2608.911	6008
2610.837	6018
2612.76	6021
2614.687	6128
2616.61	6032
2618.534	5949
2620.457	6006
2622.38	5983
2624.302	6094
2626.225	6019
2628.145	6004
2630.067	6155
2631.986	5861
2633.906	6035
2635.827	5992
2637.745	6006
2639.662	6051
2641.581	6102
2643.498	5926
2645.415	5955
2647.331	6047
2649.248	6009
2651.163	5997
2653.077	6012
2654.993	5974
2656.906	6024
2658.821	5963
2660.733	6003
2662.646	6021
2664.557	6000
2666.47	6009
2668.381	5858
2670.291	6101
2672.201	5965
2674.11	5902
2676.021	5987
2677.929	5978
2679.837	5943
2681.745	5953
2683.652	5971
2685.56	5808
2687.466	5956
2689.371	5981
2691.276	5930
2693.181	5892
2695.085	5943
2696.991	5916
2698.893	5955
2700.796	5917
2702.698	5845
2704.601	5956
2706.502	5945
2708.404	5899
2710.304	5849
2712.203	5960
2714.103	5872
2716.003	5806
2717.902	5986
2719.8	5906
2721.697	5890
2723.594	5766
2725.49	5906
2727.389	5880
2729.283	5852
2731.179	5628
2733.073	5902
2734.968	5810
2736.863	5941
2738.757	5826
2740.649	5937
2742.541	5848
2744.433	5814
2746.324	5815
2748.216	5716
2750.107	5842
2751.997	5720
2753.886	5852
2755.776	5775
2757.666	5835
2759.553	5839
2761.44	5768
2763.327	5809
2765.215	5634
2767.102	5832
2768.988	5911
2770.873	5862
2772.757	5766
2774.641	5749
2776.525	5789
2778.41	5814
2780.292	5802
2782.175	5751
2784.057	5746
2785.938	5683
2787.821	5581
2789.701	5712
2791.581	5678
2793.461	5615
2795.34	5800
2797.219	5758
2799.099	5740
2800.975	5685
2802.853	5738
2804.73	5693
2806.606	5774
2808.484	5770
2810.358	5712
2812.233	5784
2814.108	5740
2815.981	5724
2817.857	5649
2819.73	5682
2821.602	5815
2823.474	5642
2825.346	5706
2827.217	5709
2829.089	5654
2830.959	5687
2832.829	5708
2834.698	5676
2836.567	5690
2838.436	5736
2840.305	5695
2842.172	5704
2844.04	5709
2845.905	5735
2847.772	5733
2849.639	5679
2851.503	5771
2853.369	5660
2855.232	5800
2857.096	5807
2858.961	5826
2860.824	5790
2862.686	5721
2864.547	5900
2866.41	5833
2868.272	5831
2870.132	5903
2871.992	5940
2873.851	6044
2875.711	5947
2877.57	6011
2879.429	6038
2881.287	6094
2883.144	5897
2885.001	6041
2886.857	6095
2888.714	6047
2890.57	6084
2892.425	6080
2894.279	6000
2896.133	6130
2897.987	6088
2899.842	6098
2901.694	5972
2903.547	5961
2905.397	5983
2907.249	5929
2909.101	6041
2910.952	6163
2912.802	6043
2914.652	6021
2916.5	6030
2918.35	6110
2920.198	6022
2922.045	6172
2923.893	6130
2925.74	6165
2927.585	6299
2929.433	6305
2931.279	6300
2933.123	6261
2934.968	6324
2936.811	6456
2938.656	6564
2940.5	6439
2942.342	6588
2944.185	6518
2946.026	6470
2947.87	6531
2949.71	6435
2951.549	6481
2953.39	6453
2955.229	6483
2957.069	6396
2958.908	6259
2960.746	6403
2962.584	6232
2964.421	6307
2966.257	6265
2968.094	6200
2969.931	6156
2971.766	6103
2973.601	6043
2975.435	6040
2977.27	6058
2979.105	6040
2980.938	5932
2982.77	5980
2984.602	5995
2986.434	5912
2988.267	5984
2990.097	5938
2991.927	5893
2993.757	5882
2995.587	5895
2997.417	5787
2999.246	5759
3001.074	5705
3002.902	5829
3004.729	5644
3006.556	5631
3008.384	5559
3010.21	5535
3012.036	5760
3013.861	5556
3015.684	5400
3017.51	5488
3019.334	5471
3021.157	5461
3022.981	5356
3024.802	5426
3026.624	5405
3028.448	5365
3030.267	5348
3032.088	5358
3033.909	5419
3035.728	5332
3037.549	5176
3039.368	5390
3041.186	5438
3043.004	5313
3044.821	5311
3046.64	5357
3048.455	5312
3050.272	5248
3052.087	5344
3053.903	5300
3055.717	5375
3057.534	5347
3059.347	5191
3061.16	5223
3062.974	5237
3064.785	5315
3066.598	5398
3068.411	5279
3070.222	5164
3072.032	5326
3073.844	5308
3075.653	5315
3077.463	5195
3079.272	5209
3081.08	5227
3082.889	5197
3084.697	5254
3086.505	5186
3088.312	5233
3090.118	5226
3091.924	5233
3093.729	5195
3095.535	5124
3097.34	5239
3099.144	5204
3100.947	5161
3102.75	5083
3104.553	5257
3106.357	5149
3108.159	5082
3109.961	5104
3111.762	5043
3113.562	5146
3115.365	5072
3117.164	5150
3118.964	5152
3120.761	5144
3122.56	5117
3124.36	5046
3126.158	4984
3127.954	5028
3129.75	4985
3131.547	5118
3133.343	5017
3135.139	5005
3136.934	4966
3138.729	5023
3140.522	4970
3142.317	5063
3144.11	5040
3145.904	4996
3147.695	4984
3149.488	4936
3151.28	5042
3153.07	4936
3154.863	5072
3156.652	4995
3158.441	4896
3160.231	5022
3162.019	4896
3163.81	5024
3165.597	4929
3167.384	5100
3169.172	4947
3170.958	4998
3172.745	4950
3174.532	4905
3176.317	4984
3178.101	4894
3179.885	4934
3181.67	4926
3183.455	4941
3185.238	4954
3187.02	4853
3188.802	4912
3190.585	4848
3192.368	4788
3194.149	4801
3195.929	4884
3197.709	4811
3199.489	4924
3201.268	4880
3203.048	4931
3204.826	4950
3206.604	4841
3208.382	4891
3210.159	4930
3211.937	4872
3213.713	4874
3215.489	4860
3217.263	4897
3219.038	5006
3220.815	4857
3222.589	4883
3224.363	4795
3226.136	4876
3227.908	4845
3229.681	4900
3231.454	4813
3233.226	4915
3234.996	4813
3236.767	4780
3238.538	4824
3240.308	4746
3242.078	4924
3243.847	4880
3245.615	4853
3247.384	4842
3249.15	4825
3250.92	4900
3252.686	4806
3254.453	4764
3256.218	4831
3257.984	4827
3259.75	4848
3261.515	4826
3263.279	4893
3265.044	4803
3266.806	4794
3268.57	4769
3270.334	4890
3272.095	4846
3273.856	4892
3275.619	4859
3277.379	4904
3279.14	4839
3280.9	4825
3282.661	4832
3284.419	4855
3286.178	4684
3287.937	4873
3289.695	4820
3291.453	4855
3293.21	4792
3294.967	4774
3296.723	4843
3298.48	4713
3300.235	4862
3301.99	4838
3303.744	4879
3305.498	4834
3307.253	4782
3309.006	4695
3310.759	4821
3312.511	4820
3314.263	4749
3316.017	4830
3317.768	4788
3319.519	4766
3321.268	4838
3323.018	4750
3324.767	4878
3326.518	4713
3328.267	4756
3330.014	4838
3331.762	4769
3333.509	4801
3335.258	4752
3337.003	4710
3338.75	4767
3340.496	4746
3342.24	4673
3343.987	4799
3345.732	4823
3347.475	4735
3349.219	4671
3350.961	4769
3352.705	4718
3354.448	4688
3356.19	4680
3357.931	4730
3359.672	4644
3361.412	4731
3363.155	4798
3364.894	4796
3366.633	4635
3368.372	4617
3370.11	4703
3371.849	4709
3373.588	4673
3375.325	4768
3377.061	4671
3378.799	4604
3380.534	4604
3382.271	4664
3384.006	4691
3385.741	4622
3387.475	4617
3389.209	4558
3390.944	4743
3392.677	4674
3394.409	4630
3396.143	4732
3397.874	4534
3399.606	4660
3401.338	4620
3403.069	4708
3404.799	4581
3406.528	4608
3408.258	4602
3409.988	4523
3411.717	4565
3413.445	4560
3415.173	4662
3416.899	4584
3418.626	4539
3420.354	4595
3422.08	4565
3423.806	4582
3425.531	4496
3427.255	4615
3428.981	4598
3430.705	4482
3432.429	4509
3434.151	4503
3435.875	4534
3437.599	4547
3439.321	4584
3441.042	4443
3442.763	4561
3444.483	4501
3446.204	4493
3447.926	4552
3449.645	4452
3451.364	4434
3453.082	4538
3454.801	4543
3456.52	4489
3458.238	4399
3459.954	4414
3461.671	4439
3463.387	4424
3465.104	4447
3466.82	4530
3468.534	4501
3470.25	4364
3471.963	4458
3473.676	4449
3475.392	4366
3477.104	4362
3478.817	4386
3480.528	4418
3482.241	4392
3483.954	4458
3485.664	4437
3487.374	4349
3489.084	4346
3490.795	4317
3492.504	4314
3494.214	4291
3495.922	4320
3497.63	4392
3499.338	4275
3501.045	4300
3502.753	4419
3504.459	4327
3506.166	4381
3507.871	4165
3509.576	4320
3511.283	4379
3512.987	4285
3514.691	4268
3516.395	4257
3518.098	4311
3519.8	4300
3521.504	4240
3523.206	4253
3524.908	4201
3526.609	4300
3528.309	4290
3530.011	4172
3531.711	4275
3533.411	4228
3535.109	4201
3536.808	4219
3538.507	4252
3540.206	4227
3541.904	4257
3543.601	4227
3545.297	4207
3546.994	4211
3548.69	4196
3550.387	4192
3552.081	4256
3553.776	4206
3555.47	4160
3557.166	4132
3558.859	4239
3560.553	4132
3562.245	4134
3563.938	4103
3565.629	4181
3567.322	4215
3569.014	4171
3570.704	4082
3572.394	4131
3574.084	4161
3575.775	4102
3577.464	4121
3579.152	4011
3580.842	4027
3582.529	4056
3584.216	4161
3585.905	4130
3587.591	4117
3589.279	3963
3590.964	4074
3592.649	4105
3594.336	4090
3596.021	4062
3597.705	4095
3599.388	4058
3601.072	4087
3602.757	4043
3604.439	4084
3606.122	4100
3607.803	4092
3609.485	3925
3611.167	4044
3612.849	3998
3614.529	3994
3616.208	4031
3617.888	4056
3619.567	3996
3621.247	4014
3622.926	3978
3624.603	4016
3626.281	3942
3627.958	3953
3629.635	3961
3631.312	4082
3632.989	3981
3634.665	3897
3636.339	3868
3638.014	3904
3639.691	3903
3641.364	3974
3643.038	3859
3644.71	3880
3646.384	3880
3648.058	3872
3649.729	3895
3651.402	3884
3653.073	3890
3654.744	3908
3656.414	3893
3658.085	3849
3659.755	3833
3661.424	3843
3663.094	3881
3664.762	3908
3666.431	3852
3668.099	3842
3669.766	3917
3671.433	3797
3673.099	3855
3674.768	3833
3676.433	3842
3678.098	3791
3679.763	3787
3681.428	3783
3683.093	3808
3684.757	3781
3686.421	3783
3688.083	3782
3689.746	3866
3691.408	3859
3693.071	3741
3694.733	3767
3696.394	3848
3698.054	3835
3699.715	3781
3701.375	3820
3703.036	3747
3704.695	3781
3706.354	3807
3708.012	3762
3709.67	3773
3711.329	3774
3712.987	3832
3714.644	3807
3716.299	3672
3717.955	3723
3719.613	3775
3721.268	3808
3722.923	3771
3724.577	3728
3726.231	3748
3727.885	3709
3729.539	3729
3731.192	3675
3732.845	3712
3734.497	3746
3736.149	3765
3737.802	3631
3739.453	3644
3741.104	3702
3742.753	3771
3744.404	3693
3746.052	3695
3747.704	3689
3749.352	3668
3751	3622
3752.648	3604
3754.296	3665
3755.944	3734
3757.59	3667
3759.238	3661
3760.883	3622
3762.528	3752
3764.176	3599
3765.82	3723
3767.464	3719
3769.109	3624
3770.753	3633
3772.396	3671
3774.04	3644
3775.683	3632
3777.325	3572
3778.967	3578
3780.608	3667
3782.25	3612
3783.89	3588
3785.531	3600
3787.17	3660
3788.81	3695
3790.45	3569
3792.09	3582
3793.729	3671
3795.366	3573
3797.003	3538
3798.64	3572
3800.278	3580
3801.915	3550
3803.551	3551
3805.187	3590
3806.822	3580
3808.458	3581
3810.093	3498
3811.726	3599
3813.36	3593
3814.994	3600
3816.627	3609
3818.262	3573
3819.893	3546
3821.525	3509
3823.157	3620
3824.787	3456
3826.42	3536
3828.051	3503
3829.68	3539
3831.31	3542
3832.938	3411
3834.569	3503
3836.198	3481
3837.825	3557
3839.454	3478
3841.08	3478
3842.708	3474
3844.335	3449
3845.962	3460
3847.587	3382
3849.212	3472
3850.838	3538
3852.463	3471
3854.089	3477
3855.712	3359
3857.335	3495
3858.959	3492
3860.582	3506
3862.205	3496
3863.827	3420
3865.449	3492
3867.07	3456
3868.691	3395
3870.312	3464
3871.933	3431
3873.553	3429
3875.173	3535
3876.792	3405
3878.411	3424
3880.03	3382
3881.647	3437
3883.265	3393
3884.882	3418
3886.499	3404
3888.116	3373
3889.732	3402
3891.348	3374
3892.964	3353
3894.579	3416
3896.195	3430
3897.809	3375
3899.423	3323
3901.036	3295
3902.648	3366
3904.261	3370
3905.875	3437
3907.487	3392
3909.099	3398
3910.709	3313
3912.321	3387
3913.933	3380
3915.542	3357
3917.152	3412
3918.762	3322
3920.37	3365
3921.98	3361
3923.589	3333
3925.196	3394
3926.804	3354
3928.41	3325
3930.018	3391
3931.626	3349
3933.231	3343
3934.838	3306
3936.442	3326
3938.046	3304
3939.653	3351
3941.257	3315
3942.861	3321
3944.464	3334
3946.068	3336
3947.67	3296
3949.273	3324
3950.876	3367
3952.477	3324
3954.078	3277
3955.678	3291
3957.281	3306
3958.881	3284
3960.48	3388
3962.079	3309
3963.678	3214
3965.279	3269
3966.877	3312
3968.475	3283
3970.072	3330
3971.669	3185
3973.266	3327
3974.864	3271
3976.459	3313
3978.055	3223
3979.65	3210
3981.245	3302
3982.841	3267
3984.436	3229
3986.03	3243
3987.623	3182
3989.216	3236
3990.809	3250
3992.403	3164
3993.995	3130
3995.586	3211
3997.177	3178
3998.768	3142
4000.361	3225
4001.951	3177
4003.54	3114
4005.13	3181
4006.719	3224
4008.31	3127
4009.897	3141
4011.485	3155
4013.073	3199
4014.66	3175
4016.247	3089
4017.834	3142
4019.421	3072
4021.006	3152
4022.592	3105
4024.178	3090
4025.763	3138
4027.348	3117
4028.932	3179
4030.515	3013
4032.099	3093
4033.682	3138
4035.266	3161
4036.847	3055
4038.429	3171
4040.011	3086
4041.592	3137
4043.173	3048
4044.755	3027
4046.334	3057
4047.913	3075
4049.494	3031
4051.074	3035
4052.652	3075
4054.23	3071
4055.807	3096
4057.385	3083
4058.963	3034
4060.541	3019
4062.117	3002
4063.693	2988
4065.269	3143
4066.844	3060
4068.42	3054
4069.995	3044
4071.569	2966
4073.143	2917
4074.716	2972
4076.291	3074
4077.864	3017
4079.436	2951
4081.009	2997
4082.58	3033
4084.152	3063
4085.723	3013
4087.294	3012
4088.865	2982
4090.435	2969
4092.005	2995
4093.574	2951
4095.143	2968
4096.712	3010
4098.279	2934
4099.848	2971
4101.416	2956
4102.984	2988
4104.55	2959
4106.117	2959
4107.682	3012
4109.248	2975
4110.815	2947
4112.379	2979
4113.945	2954
4115.508	2952
4117.073	2979
4118.637	2941
4120.201	2929
4121.763	2932
4123.325	2929
4124.888	2899
4126.449	2936
4128.013	2884
4129.573	2835
4131.133	2916
4132.694	2954
4134.254	2871
4135.814	2897
4137.374	2867
4138.933	2872
4140.491	2881
4142.049	2876
4143.607	2812
4145.167	2819
4146.724	2833
4148.28	2823
4149.836	2843
4151.392	2801
4152.949	2853
4154.504	2814
4156.059	2852
4157.614	2921
4159.168	2817
4160.723	2874
4162.277	2829
4163.83	2794
4165.383	2882
4166.936	2834
4168.488	2841
4170.041	2840
4171.593	2817
4173.144	2820
4174.695	2829
4176.246	2907
4177.796	2765
4179.346	2810
4180.896	2794
4182.445	2830
4183.994	2821
4185.542	2802
4187.091	2710
4188.639	2812
4190.185	2781
4191.732	2818
4193.279	2738
4194.826	2834
4196.373	2778
4197.918	2751
4199.463	2851
4201.008	2826
4202.553	2808
4204.098	2757
4205.641	2837
4207.185	2748
4208.728	2730
4210.271	2693
4211.814	2787
4213.357	2737
4214.898	2692
4216.439	2789
4217.98	2708
4219.522	2775
4221.062	2796
4222.603	2662
4224.142	2670
4225.681	2723
4227.222	2701
4228.76	2708
4230.298	2732
4231.835	2721
4233.373	2713
4234.911	2763
4236.449	2675
4237.985	2729
4239.521	2713
4241.057	2686
4242.592	2673
4244.128	2668
4245.663	2762
4247.197	2626
4248.731	2693
4250.265	2666
4251.798	2705
4253.333	2660
4254.865	2714
4256.397	2647
4257.93	2656
4259.461	2647
4260.994	2692
4262.525	2695
4264.056	2568
4265.586	2707
4267.115	2693
4268.646	2654
4270.176	2651
4271.705	2633
4273.232	2621
4274.761	2668
4276.289	2638
4277.818	2671
4279.345	2657
4280.872	2658
4282.399	2607
4283.924	2618
4285.452	2669
4286.976	2605
4288.502	2621
4290.026	2598
4291.551	2589
4293.074	2610
4294.6	2643
4296.123	2587
4297.646	2565
4299.168	2595
4300.691	2571
4302.214	2682
4303.736	2572
4305.257	2631
4306.778	2575
4308.299	2582
4309.82	2600
4311.34	2620
4312.86	2641
4314.379	2559
