400.0745	4112
402.597	4092
405.1208	4161
407.6419	4167
410.1623	4111
412.6819	4189
415.201	4258
417.7172	4175
420.2369	4231
422.7538	4347
425.2701	4284
427.7856	4360
430.3005	4320
432.8147	4347
435.3282	4323
437.841	4400
440.3511	4374
442.8625	4378
445.3753	4345
447.8854	4385
450.3927	4415
452.9014	4415
455.4073	4370
457.9146	4359
460.4233	4348
462.9272	4463
465.4325	4394
467.935	4340
470.4389	4456
472.9421	4472
475.4446	4393
477.9444	4336
480.4456	4533
482.944	4405
485.4417	4422
487.9429	4455
490.4393	4510
492.935	4427
495.4321	4496
497.9264	4433
500.4221	4491
502.9171	4564
505.4094	4584
507.9011	4612
510.392	4559
512.8864	4583
515.3759	4560
517.8649	4524
520.3531	4510
522.8406	4625
525.3275	4575
527.8178	4590
530.3033	4644
532.7881	4611
535.2723	4524
537.7558	4644
540.2407	4658
542.7228	4591
545.2043	4666
547.6851	4654
550.1652	4547
552.6467	4617
555.1255	4627
557.6016	4561
560.079	4672
562.5557	4651
565.0318	4579
567.5092	4688
569.984	4624
572.456	4674
574.9294	4625
577.4022	4671
579.8762	4737
582.3456	4751
584.8163	4743
587.2863	4685
589.7557	4917
592.2224	4838
594.6924	4680
597.1578	4768
599.6245	4723
602.0905	4717
604.5538	4744
607.0206	4769
609.4825	4806
611.9459	4751
614.4066	4785
616.8686	4761
619.33	4790
621.7906	4712
624.2487	4771
626.708	4866
629.1647	4745
631.6207	4684
634.0801	4829
636.5348	4813
638.9888	4786
641.4442	4625
643.8969	4803
646.3509	4781
648.8022	4810
651.255	4721
653.705	4796
656.1544	4849
658.6031	4695
661.0532	4946
663.5026	4969
665.9493	4802
668.3954	4863
670.8409	4847
673.2877	4856
675.7318	4952
678.1752	4935
680.618	4849
683.0601	4829
685.5035	4892
687.9444	4857
690.3845	4928
692.824	5006
695.2628	4987
697.701	5059
700.1406	4962
702.5774	4813
705.0116	4943
707.4472	4956
709.8821	4976
712.3183	5065
714.7519	5023
717.1829	4924
719.6151	5130
722.0468	5025
724.4777	5098
726.908	5079
729.3377	5089
731.7667	5144
734.1931	5045
736.6208	5147
739.0498	5200
741.4742	5214
743.9	5182
746.3231	5231
748.7476	5146
751.1713	5220
753.5945	5161
756.015	5202
758.4368	5333
760.856	5202
763.2766	5167
765.6965	5316
768.1157	5219
770.5323	5165
772.9483	5234
775.3656	5289
777.7822	5238
780.1963	5260
782.6116	5289
785.0244	5260
787.4365	5311
789.8499	5317
792.2626	5284
794.6728	5343
797.0823	5269
799.4911	5287
801.8994	5275
804.3109	5229
806.7178	5369
809.124	5308
811.5297	5243
813.9347	5349
816.341	5397
818.7447	5358
821.1478	5435
823.5502	5402
825.952	5446
828.3531	5381
830.7556	5314
833.1554	5340
835.5546	5425
837.9532	5346
840.3511	5425
842.7504	5449
845.1451	5560
847.5411	5475
849.9365	5462
852.3312	5472
854.7272	5542
857.1187	5456
859.5115	5453
861.9037	5567
864.2952	5443
866.6842	5468
869.0764	5378
871.4661	5427
873.8531	5476
876.2415	5476
878.6272	5472
881.0162	5335
883.4026	5390
885.7866	5440
888.1717	5371
890.5543	5452
892.9382	5502
895.3215	5430
897.7041	5470
900.0842	5472
902.4655	5508
904.8443	5530
907.2244	5541
909.6039	5390
911.9808	5573
914.357	5587
916.7346	5558
919.1115	5656
921.4859	5751
923.8616	5772
926.2347	5804
928.6071	5699
930.979	5676
933.3541	5741
935.7247	5760
938.0946	5656
940.4639	5811
942.8326	5680
945.2026	5783
947.5701	5913
949.9369	5938
952.305	5925
954.6705	6130
957.0355	6143
959.4017	6189
961.7654	6327
964.1284	6323
966.4908	6292
968.8527	5956
971.2138	5989
973.5743	5828
975.9343	5816
978.2936	5684
980.6522	5672
983.0122	5685
985.3696	5512
987.7245	5667
990.0807	5686
992.4362	5567
994.7911	5553
997.1474	5756
999.4991	5671
1001.852	5665
1004.205	5591
1006.555	5707
1008.908	5595
1011.258	5708
1013.606	5667
1015.956	5655
1018.302	5664
1020.652	5668
1022.998	5656
1025.345	5535
1027.691	5701
1030.035	5732
1032.378	5694
1034.724	5700
1037.066	5747
1039.409	5711
1041.75	5699
1044.092	5616
1046.433	5797
1048.771	5684
1051.112	5701
1053.449	5663
1055.786	5693
1058.124	5671
1060.462	5805
1062.797	5761
1065.131	5860
1067.467	5802
1069.8	5708
1072.135	5755
1074.467	5883
1076.798	5827
1079.129	5793
1081.459	5713
1083.792	5853
1086.121	5870
1088.449	5671
1090.777	5796
1093.104	5705
1095.431	5722
1097.759	5725
1100.084	5736
1102.408	5820
1104.732	5738
1107.056	5809
1109.379	5706
1111.701	5786
1114.022	5792
1116.343	5773
1118.664	5771
1120.983	5769
1123.303	5820
1125.621	5872
1127.939	5814
1130.256	5810
1132.573	5848
1134.889	5754
1137.205	5788
1139.52	5695
1141.832	5691
1144.146	5848
1146.461	5713
1148.771	5857
1151.083	5886
1153.392	5724
1155.703	5869
1158.011	5791
1160.323	5795
1162.629	5877
1164.938	5829
1167.243	5806
1169.55	5895
1171.857	5852
1174.163	5693
1176.466	5968
1178.769	5782
1181.073	5907
1183.374	5740
1185.677	5817
1187.979	5864
1190.279	5713
1192.578	5864
1194.878	5830
1197.178	5813
1199.476	5871
1201.772	5778
1204.068	5778
1206.366	5793
1208.663	5825
1210.957	5778
1213.251	5856
1215.544	5818
1217.836	5949
1220.128	5880
1222.421	5859
1224.712	5869
1227.002	5895
1229.292	5906
1231.581	5939
1233.871	5861
1236.159	6024
1238.446	5967
1240.732	5940
1243.018	5902
1245.304	6087
1247.59	6077
1249.874	6067
1252.156	6027
1254.439	6041
1256.721	5931
1259.005	6015
1261.286	5994
1263.565	5947
1265.845	6002
1268.125	6116
1270.403	6049
1272.682	6073
1274.959	6068
1277.234	6039
1279.511	5936
1281.787	5953
1284.062	5863
1286.337	6007
1288.609	6012
1290.882	5881
1293.153	5900
1295.428	6025
1297.698	5946
1299.969	6000
1302.237	5958
1304.507	5881
1306.777	5998
1309.044	5812
1311.312	5947
1313.578	6012
1315.844	5871
1318.109	5943
1320.375	5897
1322.638	5913
1324.903	5986
1327.165	5957
1329.427	5946
1331.69	5914
1333.952	5928
1336.212	6036
1338.471	5996
1340.73	5999
1342.988	5958
1345.248	5927
1347.505	5863
1349.763	5901
1352.019	6070
1354.274	5896
1356.53	5950
1358.784	5934
1361.038	5931
1363.291	5864
1365.543	5942
1367.797	5919
1370.048	6089
1372.296	5945
1374.546	5883
1376.796	6041
1379.045	6083
1381.295	6006
1383.542	6028
1385.787	5924
1388.034	5994
1390.28	6066
1392.527	5950
1394.772	6160
1397.014	6098
1399.258	6159
1401.501	6188
1403.741	6176
1405.985	6097
1408.226	6266
1410.465	5973
1412.705	5986
1414.943	6102
1417.184	6020
1419.42	6203
1421.658	6137
1423.894	6072
1426.13	6066
1428.366	6166
1430.602	6243
1432.835	6227
1435.069	6176
1437.301	6107
1439.535	6232
1441.767	6268
1443.997	6184
1446.229	6249
1448.458	6206
1450.687	6230
1452.916	6244
1455.146	6166
1457.372	6222
1459.599	6184
1461.824	6235
1464.051	6202
1466.277	6221
1468.501	6195
1470.725	6052
1472.948	6042
1475.17	6116
1477.393	5971
1479.614	6126
1481.837	5954
1484.057	5930
1486.276	6028
1488.497	5920
1490.715	6011
1492.932	5921
1495.148	6048
1497.364	5914
1499.58	5845
1501.798	5959
1504.012	5762
1506.227	5981
1508.44	5879
1510.653	5835
1512.866	5836
1515.078	5942
1517.289	5834
1519.5	5784
1521.711	5957
1523.92	5972
1526.13	5942
1528.338	5945
1530.544	5957
1532.752	5837
1534.959	5890
1537.165	5874
1539.371	5876
1541.574	5955
1543.779	5932
1545.983	6014
1548.187	5990
1550.39	6076
1552.59	5986
1554.792	5993
1556.991	6049
1559.19	6041
1561.392	6045
1563.59	5892
1565.789	5965
1567.986	5981
1570.182	6051
1572.381	6151
1574.576	6065
1576.771	6115
1578.966	5992
1581.16	5986
1583.354	6049
1585.546	6076
1587.74	6055
1589.931	6081
1592.121	6115
1594.311	6215
1596.502	6076
1598.693	6106
1600.881	6013
1603.069	6109
1605.256	6105
1607.445	5973
1609.631	6187
1611.816	6105
1614.001	6058
1616.186	6071
1618.37	6172
1620.555	6183
1622.737	6035
1624.919	6118
1627.101	6074
1629.282	6268
1631.463	6155
1633.643	6135
1635.822	6164
1638.001	6064
1640.179	6231
1642.359	6106
1644.534	6171
1646.711	6265
1648.887	6186
1651.062	6257
1653.235	6201
1655.412	6150
1657.586	6224
1659.757	6197
1661.93	6262
1664.1	6142
1666.274	6105
1668.445	6278
1670.614	6140
1672.784	6127
1674.951	6150
1677.12	6300
1679.289	6132
1681.457	6233
1683.622	6276
1685.789	6131
1687.953	6140
1690.121	6217
1692.284	6221
1694.447	6077
1696.611	6074
1698.772	6187
1700.935	6218
1703.098	6163
1705.258	6087
1707.417	6061
1709.576	5962
1711.736	6177
1713.896	6102
1716.053	6005
1718.21	6042
1720.366	5989
1722.522	6096
1724.68	5937
1726.835	6075
1728.989	6009
1731.142	5988
1733.295	6144
1735.449	5995
1737.601	6142
1739.753	6025
1741.903	6006
1744.054	6060
1746.203	6055
1748.354	6070
1750.503	6107
1752.651	5992
1754.798	5962
1756.944	6127
1759.092	6042
1761.238	6061
1763.383	6010
1765.528	6165
1767.672	6121
1769.814	6108
1771.959	6008
1774.102	6193
1776.242	5982
1778.384	6104
1780.525	6054
1782.665	6090
1784.805	6058
1786.945	6070
1789.082	6101
1791.22	6131
1793.36	6120
1795.495	6127
1797.632	6126
1799.766	5995
1801.902	6060
1804.035	6044
1806.172	6101
1808.304	6084
1810.436	6137
1812.569	6210
1814.699	6115
1816.833	6046
1818.963	6085
1821.092	6163
1823.222	6014
1825.35	6079
1827.478	6052
1829.608	6030
1831.734	5981
1833.86	6171
1835.986	6042
1838.11	6023
1840.238	6099
1842.362	5969
1844.485	6052
1846.608	6089
1848.73	6044
1850.853	5940
1852.974	6165
1855.097	5988
1857.217	6080
1859.336	6106
1861.455	5968
1863.576	5959
1865.693	6107
1867.811	6032
1869.926	6038
1872.042	5953
1874.16	5986
1876.275	6145
1878.39	6018
1880.504	6078
1882.618	6060
1884.731	6055
1886.843	6111
1888.956	6055
1891.067	6103
1893.178	6038
1895.287	5984
1897.399	6068
1899.508	6054
1901.617	6058
1903.724	6071
1905.832	6068
1907.941	6211
1910.046	6165
1912.152	6085
1914.256	6139
1916.361	6011
1918.464	6172
1920.57	6175
1922.672	6151
1924.775	6143
1926.876	6042
1928.978	6055
1931.08	6076
1933.181	6115
1935.28	6102
1937.38	6100
1939.478	6067
1941.577	6020
1943.675	6133
1945.771	6155
1947.867	6137
1949.964	6101
1952.058	6097
1954.154	6223
1956.248	6045
1958.343	6082
1960.435	6132
1962.527	6113
1964.62	6101
1966.711	6173
1968.802	6088
1970.892	6020
1972.983	6053
1975.072	6165
1977.162	6144
1979.25	6044
1981.337	6073
1983.424	6111
1985.51	6177
1987.598	5992
1989.683	6001
1991.768	6049
1993.852	6092
1995.934	6138
1998.019	6028
2000.102	6023
2002.184	6104
2004.266	6104
2006.347	6023
2008.427	5962
2010.508	6045
2012.587	6070
2014.666	6032
2016.745	6049
2018.821	6002
2020.9	6069
2022.977	5991
2025.052	6071
2027.128	5903
2029.204	5977
2031.277	6046
2033.353	5934
2035.425	5998
2037.499	6107
2039.57	6000
2041.642	5941
2043.714	5990
2045.786	5984
2047.855	6017
2049.925	6083
2051.993	5970
2054.064	6127
2056.132	5994
2058.2	6027
2060.266	5985
2062.332	6021
2064.398	6119
2066.465	6085
2068.529	6053
2070.592	6048
2072.657	6072
2074.719	5978
2076.783	6065
2078.845	5987
2080.907	6080
2082.968	6002
2085.028	5993
2087.087	6029
2089.148	6060
2091.207	6059
2093.264	5987
2095.322	6063
2097.379	6021
2099.439	5967
2101.495	6152
2103.55	6043
2105.605	6007
2107.658	5877
2109.713	6003
2111.767	6045
2113.82	6006
2115.872	6072
2117.924	6081
2119.975	5957
2122.028	5972
2124.078	6038
2126.126	5982
2128.176	6002
2130.225	5919
2132.275	5942
2134.321	5910
2136.368	5988
2138.415	5979
2140.461	5989
2142.505	5994
2144.552	5956
2146.597	5984
2148.64	5922
2150.684	5990
2152.725	6057
2154.77	5964
2156.811	6007
2158.852	5856
2160.894	6005
2162.933	5916
2164.973	5981
2167.013	5903
2169.051	5982
2171.089	5895
2173.126	5947
2175.164	6032
2177.201	5967
2179.236	5893
2181.273	5911
2183.307	5909
2185.341	5840
2187.377	5970
2189.41	5805
2191.442	5821
2193.473	5830
2195.506	5902
2197.539	5878
2199.569	5842
2201.598	5814
2203.628	5832
2205.656	5821
2207.686	5944
2209.716	5795
2211.743	5931
2213.769	5834
2215.796	5882
2217.821	5758
2219.848	5770
2221.873	5813
2223.897	5825
2225.921	5831
2227.944	5815
2229.967	5747
2231.991	5798
2234.011	5809
2236.032	5725
2238.053	5647
2240.073	5806
2242.094	5728
2244.114	5820
2246.131	5703
2248.149	5736
2250.167	5888
2252.186	5811
2254.201	5815
2256.218	5865
2258.233	5719
2260.247	5818
2262.262	5929
2264.278	5793
2266.29	5837
2268.303	5882
2270.315	5885
2272.327	5681
2274.341	5866
2276.35	5772
2278.361	5819
2280.37	5778
2282.38	5741
2284.388	5836
2286.397	5867
2288.405	5854
2290.412	5856
2292.419	5852
2294.425	5764
2296.431	5764
2298.437	5806
2300.441	5852
2302.445	5786
2304.449	5788
2306.453	5895
2308.455	5773
2310.457	5791
2312.459	5846
2314.46	5769
2316.46	5697
2318.461	5720
2320.46	5737
2322.458	5721
2324.458	5851
2326.456	5745
2328.455	5758
2330.451	5682
2332.447	5668
2334.443	5689
2336.438	5741
2338.433	5787
2340.429	5650
2342.422	5725
2344.416	5684
2346.408	5772
2348.399	5593
2350.393	5613
2352.384	5722
2354.375	5649
2356.365	5706
2358.355	5682
2360.344	5686
2362.333	5659
2364.322	5680
2366.309	5591
2368.295	5637
2370.282	5839
2372.27	5648
2374.256	5659
2376.24	5686
2378.225	5536
2380.208	5633
2382.194	5631
2384.177	5647
2386.159	5603
2388.142	5586
2390.122	5584
2392.105	5602
2394.085	5555
2396.066	5570
2398.044	5682
2400.024	5587
2402.002	5568
2403.982	5584
2405.959	5607
2407.935	5560
2409.913	5612
2411.888	5611
2413.865	5589
2415.84	5573
2417.814	5586
2419.788	5568
2421.762	5548
2423.735	5587
2425.708	5586
2427.68	5450
2429.651	5605
2431.623	5547
2433.593	5552
2435.564	5578
2437.533	5455
2439.502	5694
2441.47	5539
2443.438	5569
2445.406	5629
2447.373	5527
2449.34	5601
2451.305	5495
2453.271	5611
2455.235	5644
2457.201	5505
2459.165	5611
2461.129	5505
2463.092	5478
2465.054	5569
2467.018	5643
2468.978	5464
2470.939	5506
2472.899	5573
2474.86	5618
2476.819	5526
2478.778	5518
2480.737	5510
2482.695	5531
2484.653	5594
2486.609	5474
2488.567	5502
2490.524	5498
2492.478	5517
2494.433	5557
2496.387	5511
2498.343	5442
2500.297	5524
2502.249	5408
2504.202	5418
2506.153	5443
2508.105	5503
2510.057	5450
2512.008	5493
2513.957	5414
2515.906	5539
2517.855	5515
2519.805	5480
2521.754	5490
2523.7	5492
2525.647	5398
2527.594	5424
2529.54	5421
2531.486	5382
2533.431	5379
2535.376	5428
2537.32	5411
2539.263	5429
2541.207	5525
2543.151	5486
2545.093	5450
2547.034	5428
2548.975	5432
2550.917	5354
2552.856	5396
2554.796	5396
2556.735	5526
2558.673	5359
2560.611	5502
2562.55	5415
2564.487	5489
2566.424	5464
2568.36	5517
2570.296	5338
2572.232	5437
2574.167	5505
2576.101	5367
2578.035	5495
2579.969	5420
2581.902	5282
2583.834	5369
2585.766	5450
2587.698	5419
2589.628	5475
2591.557	5422
2593.489	5419
2595.419	5405
2597.348	5420
2599.275	5540
2601.204	5426
2603.131	5320
2605.059	5384
2606.986	5425
2608.911	5483
2610.837	5318
2612.76	5273
2614.687	5523
2616.61	5283
2618.534	5435
2620.457	5426
2622.38	5458
2624.302	5387
2626.225	5442
2628.145	5454
2630.067	5441
2631.986	5403
2633.906	5415
2635.827	5510
2637.745	5512
2639.662	5518
2641.581	5370
2643.498	5423
2645.415	5465
2647.331	5435
2649.248	5439
2651.163	5439
2653.077	5522
2654.993	5336
2656.906	5438
2658.821	5405
2660.733	5399
2662.646	5367
2664.557	5377
2666.47	5437
2668.381	5391
2670.291	5343
2672.201	5355
2674.11	5473
2676.021	5468
2677.929	5306
2679.837	5354
2681.745	5398
2683.652	5462
2685.56	5383
2687.466	5378
2689.371	5370
2691.276	5383
2693.181	5340
2695.085	5319
2696.991	5350
2698.893	5581
2700.796	5306
2702.698	5365
2704.601	5229
2706.502	5357
2708.404	5311
2710.304	5352
2712.203	5327
2714.103	5260
2716.003	5340
2717.902	5261
2719.8	5292
2721.697	5285
2723.594	5364
2725.49	5330
2727.389	5334
2729.283	5288
2731.179	5354
2733.073	5239
2734.968	5358
2736.863	5298
2738.757	5301
2740.649	5234
2742.541	5230
2744.433	5291
2746.324	5206
2748.216	5314
2750.107	5257
2751.997	5219
2753.886	5286
2755.776	5155
2757.666	5350
2759.553	5305
2761.44	5276
2763.327	5229
2765.215	5244
2767.102	5236
2768.988	5182
2770.873	5299
2772.757	5152
2774.641	5293
2776.525	5189
2778.41	5274
2780.292	5184
2782.175	5257
2784.057	5159
2785.938	5213
2787.821	5195
2789.701	5273
2791.581	5271
2793.461	5155
2795.34	5245
2797.219	5151
2799.099	5139
2800.975	5230
2802.853	5212
2804.73	5255
2806.606	5118
2808.484	5227
2810.358	5186
2812.233	5273
2814.108	5207
2815.981	5234
2817.857	5194
2819.73	5162
2821.602	5223
2823.474	5190
2825.346	5114
2827.217	5157
2829.089	5144
2830.959	5295
2832.829	5205
2834.698	5202
2836.567	5173
2838.436	5278
2840.305	5329
2842.172	5229
2844.04	5263
2845.905	5245
2847.772	5162
2849.639	5298
2851.503	5297
2853.369	5316
2855.232	5295
2857.096	5286
2858.961	5330
2860.824	5435
2862.686	5264
2864.547	5477
2866.41	5301
2868.272	5451
2870.132	5412
2871.992	5464
2873.851	5486
2875.711	5471
2877.57	5528
2879.429	5641
2881.287	5609
2883.144	5648
2885.001	5702
2886.857	5660
2888.714	5723
2890.57	5715
2892.425	5661
2894.279	5699
2896.133	5719
2897.987	5810
2899.842	5762
2901.694	5760
2903.547	5692
2905.397	5650
2907.249	5612
2909.101	5706
2910.952	5657
2912.802	5731
2914.652	5686
2916.5	5781
2918.35	5675
2920.198	5872
2922.045	5967
2923.893	5928
2925.74	5954
2927.585	5920
2929.433	5974
2931.279	5990
2933.123	6090
2934.968	6076
2936.811	6143
2938.656	6060
2940.5	6149
2942.342	6162
2944.185	6263
2946.026	6409
2947.87	6437
2949.71	6268
2951.549	6327
2953.39	6409
2955.229	6057
2957.069	6255
2958.908	6127
2960.746	6209
2962.584	6156
2964.421	6157
2966.257	6033
2968.094	5956
2969.931	5900
2971.766	5831
2973.601	5894
2975.435	5786
2977.27	5764
2979.105	5684
2980.938	5753
2982.77	5631
2984.602	5541
2986.434	5460
2988.267	5572
2990.097	5630
2991.927	5496
2993.757	5471
2995.587	5508
2997.417	5378
2999.246	5439
3001.074	5317
3002.902	5243
3004.729	5173
3006.556	5075
3008.384	5148
3010.21	5108
3012.036	5225
3013.861	4987
3015.684	5090
3017.51	5036
3019.334	5055
3021.157	5003
3022.981	4895
3024.802	4829
3026.624	5005
3028.448	4946
3030.267	4908
3032.088	4842
3033.909	4889
3035.728	4933
3037.549	4918
3039.368	4880
3041.186	4915
3043.004	4854
3044.821	4861
3046.64	4762
3048.455	4849
3050.272	4844
3052.087	4815
3053.903	4785
3055.717	4835
3057.534	4907
3059.347	4798
3061.16	4853
3062.974	4863
3064.785	4840
3066.598	4795
3068.411	4733
3070.222	4774
3072.032	4802
3073.844	4740
3075.653	4755
3077.463	4789
3079.272	4849
3081.08	4766
3082.889	4808
3084.697	4645
3086.505	4887
3088.312	4774
3090.118	4658
3091.924	4767
3093.729	4787
3095.535	4704
3097.34	4708
3099.144	4690
3100.947	4725
3102.75	4721
3104.553	4697
3106.357	4766
3108.159	4629
3109.961	4598
3111.762	4622
3113.562	4628
3115.365	4597
3117.164	4634
3118.964	4571
3120.761	4712
3122.56	4649
3124.36	4576
3126.158	4591
3127.954	4551
3129.75	4605
3131.547	4584
3133.343	4504
3135.139	4512
3136.934	4683
3138.729	4558
3140.522	4579
3142.317	4590
3144.11	4587
3145.904	4582
3147.695	4530
3149.488	4594
3151.28	4513
3153.07	4567
3154.863	4496
3156.652	4539
3158.441	4453
3160.231	4459
3162.019	4505
3163.81	4620
3165.597	4499
3167.384	4572
3169.172	4519
3170.958	4575
3172.745	4471
3174.532	4619
3176.317	4563
3178.101	4539
3179.885	4433
3181.67	4561
3183.455	4568
3185.238	4467
3187.02	4435
3188.802	4444
3190.585	4511
3192.368	4414
3194.149	4441
3195.929	4417
3197.709	4463
3199.489	4528
3201.268	4430
3203.048	4467
3204.826	4427
3206.604	4399
3208.382	4432
3210.159	4465
3211.937	4519
3213.713	4389
3215.489	4496
3217.263	4458
3219.038	4429
3220.815	4473
3222.589	4533
3224.363	4371
3226.136	4483
3227.908	4425
3229.681	4439
3231.454	4458
3233.226	4452
3234.996	4446
3236.767	4374
3238.538	4533
3240.308	4432
3242.078	4420
3243.847	4449
3245.615	4449
3247.384	4379
3249.15	4462
3250.92	4536
3252.686	4419
3254.453	4438
3256.218	4353
3257.984	4396
3259.75	4465
3261.515	4357
3263.279	4382
3265.044	4343
3266.806	4397
3268.57	4415
3270.334	4459
3272.095	4389
3273.856	4447
3275.619	4463
3277.379	4435
3279.14	4431
3280.9	4389
3282.661	4304
3284.419	4418
3286.178	4517
3287.937	4485
3289.695	4394
3291.453	4327
3293.21	4434
3294.967	4453
3296.723	4286
3298.48	4332
3300.235	4447
3301.99	4425
3303.744	4491
3305.498	4437
3307.253	4519
3309.006	4361
3310.759	4461
3312.511	4346
3314.263	4447
3316.017	4349
3317.768	4394
3319.519	4324
3321.268	4422
3323.018	4438
3324.767	4326
3326.518	4313
3328.267	4325
3330.014	4371
3331.762	4349
3333.509	4260
3335.258	4404
3337.003	4355
3338.75	4398
3340.496	4304
3342.24	4402
3343.987	4355
3345.732	4347
3347.475	4343
3349.219	4360
3350.961	4361
3352.705	4373
3354.448	4310
3356.19	4294
3357.931	4328
3359.672	4343
3361.412	4315
3363.155	4271
3364.894	4376
3366.633	4263
3368.372	4380
3370.11	4253
3371.849	4274
3373.588	4263
3375.325	4208
3377.061	4220
3378.799	4225
3380.534	4356
3382.271	4282
3384.006	4258
3385.741	4330
3387.475	4278
3389.209	4185
3390.944	4226
3392.677	4205
3394.409	4196
3396.143	4214
3397.874	4210
3399.606	4194
3401.338	4299
3403.069	4188
3404.799	4152
3406.528	4246
3408.258	4202
3409.988	4135
3411.717	4234
3413.445	4073
3415.173	4150
3416.899	4099
3418.626	4206
3420.354	4179
3422.08	4184
3423.806	4095
3425.531	4199
3427.255	4128
3428.981	4155
3430.705	4082
3432.429	4172
3434.151	4173
3435.875	4153
3437.599	4123
3439.321	4148
3441.042	4173
3442.763	4092
3444.483	4099
3446.204	4162
3447.926	4092
3449.645	4039
3451.364	4127
3453.082	4057
3454.801	4090
3456.52	4126
3458.238	3979
3459.954	3972
3461.671	4022
3463.387	4095
3465.104	4047
3466.82	3939
3468.534	4018
3470.25	4012
3471.963	4003
3473.676	3926
3475.392	4016
3477.104	3950
3478.817	4024
3480.528	4034
3482.241	3951
3483.954	3984
3485.664	3883
3487.374	3956
3489.084	3972
3490.795	3952
3492.504	3852
3494.214	3964
3495.922	4005
3497.63	3878
3499.338	4021
3501.045	3849
3502.753	3858
3504.459	4008
3506.166	3908
3507.871	3950
3509.576	3926
3511.283	3827
3512.987	3818
3514.691	3860
3516.395	3889
3518.098	3916
3519.8	3762
3521.504	3859
3523.206	3771
3524.908	3916
3526.609	3857
3528.309	3777
3530.011	3824
3531.711	3814
3533.411	3885
3535.109	3861
3536.808	3868
3538.507	3819
3540.206	3872
3541.904	3836
3543.601	3838
3545.297	3812
3546.994	3843
3548.69	3808
3550.387	3857
3552.081	3809
3553.776	3849
3555.47	3749
3557.166	3819
3558.859	3778
3560.553	3795
3562.245	3739
3563.938	3819
3565.629	3726
3567.322	3685
3569.014	3811
3570.704	3748
3572.394	3656
3574.084	3797
3575.775	3693
3577.464	3786
3579.152	3692
3580.842	3673
3582.529	3751
3584.216	3683
3585.905	3729
3587.591	3748
3589.279	3713
3590.964	3754
3592.649	3799
3594.336	3684
3596.021	3702
3597.705	3666
3599.388	3658
3601.072	3659
3602.757	3597
3604.439	3588
3606.122	3630
3607.803	3619
3609.485	3601
3611.167	3566
3612.849	3654
3614.529	3604
3616.208	3571
3617.888	3521
3619.567	3536
3621.247	3562
3622.926	3657
3624.603	3587
3626.281	3566
3627.958	3508
3629.635	3511
3631.312	3537
3632.989	3506
3634.665	3633
3636.339	3524
3638.014	3524
3639.691	3532
3641.364	3604
3643.038	3432
3644.71	3553
3646.384	3503
3648.058	3585
3649.729	3553
3651.402	3492
3653.073	3490
3654.744	3426
3656.414	3470
3658.085	3495
3659.755	3442
3661.424	3520
3663.094	3477
3664.762	3458
3666.431	3522
3668.099	3487
3669.766	3533
3671.433	3501
3673.099	3472
3674.768	3501
3676.433	3460
3678.098	3526
3679.763	3427
3681.428	3426
3683.093	3514
3684.757	3443
3686.421	3430
3688.083	3426
3689.746	3401
3691.408	3508
3693.071	3400
3694.733	3471
3696.394	3423
3698.054	3400
3699.715	3500
3701.375	3409
3703.036	3418
3704.695	3368
3706.354	3387
3708.012	3370
3709.67	3325
3711.329	3281
3712.987	3406
3714.644	3431
3716.299	3417
3717.955	3321
3719.613	3442
3721.268	3350
3722.923	3338
3724.577	3301
3726.231	3422
3727.885	3359
3729.539	3313
3731.192	3440
3732.845	3391
3734.497	3344
3736.149	3397
3737.802	3329
3739.453	3365
3741.104	3350
3742.753	3358
3744.404	3357
3746.052	3272
3747.704	3330
3749.352	3358
3751	3279
3752.648	3330
3754.296	3307
3755.944	3259
3757.59	3275
3759.238	3248
3760.883	3372
3762.528	3330
3764.176	3261
3765.82	3273
3767.464	3246
3769.109	3319
3770.753	3359
3772.396	3243
3774.04	3334
3775.683	3320
3777.325	3272
3778.967	3208
3780.608	3263
3782.25	3330
3783.89	3251
3785.531	3196
3787.17	3204
3788.81	3268
3790.45	3210
3792.09	3246
3793.729	3243
3795.366	3243
3797.003	3325
3798.64	3192
3800.278	3220
3801.915	3230
3803.551	3200
3805.187	3264
3806.822	3223
3808.458	3222
3810.093	3219
3811.726	3162
3813.36	3197
3814.994	3217
3816.627	3202
3818.262	3261
3819.893	3100
3821.525	3168
3823.157	3183
3824.787	3122
3826.42	3170
3828.051	3204
3829.68	3141
3831.31	3173
3832.938	3182
3834.569	3203
3836.198	3104
3837.825	3178
3839.454	3170
3841.08	3143
3842.708	3168
3844.335	3155
3845.962	3133
3847.587	3109
3849.212	3060
3850.838	3200
3852.463	3136
3854.089	3071
3855.712	3067
3857.335	3118
3858.959	3097
3860.582	3126
3862.205	3111
3863.827	3189
3865.449	3129
3867.07	3200
3868.691	3049
3870.312	3087
3871.933	3147
3873.553	3082
3875.173	3147
3876.792	3104
3878.411	3154
3880.03	3101
3881.647	3061
3883.265	3088
3884.882	3060
3886.499	3081
3888.116	3051
3889.732	3119
3891.348	3094
3892.964	3052
3894.579	3107
3896.195	3071
3897.809	3081
3899.423	3144
3901.036	3056
3902.648	3114
3904.261	3013
3905.875	2950
3907.487	3072
3909.099	3096
3910.709	3024
3912.321	3097
3913.933	3026
3915.542	3093
3917.152	3017
3918.762	3048
3920.37	3018
3921.98	3067
3923.589	3018
3925.196	2996
3926.804	3010
3928.41	2992
3930.018	3022
3931.626	2990
3933.231	2996
3934.838	3022
3936.442	3033
3938.046	2998
3939.653	3056
3941.257	2991
3942.861	3025
3944.464	2939
3946.068	2966
3947.67	2964
3949.273	2958
3950.876	3004
3952.477	2981
3954.078	3007
3955.678	3010
3957.281	2915
3958.881	2920
3960.48	3000
3962.079	2922
3963.678	2929
3965.279	2998
3966.877	2909
3968.475	2984
3970.072	2884
3971.669	2956
3973.266	2898
3974.864	2933
3976.459	2860
3978.055	2908
3979.65	2970
3981.245	2920
3982.841	2931
3984.436	2825
3986.03	2892
3987.623	2899
3989.216	2902
3990.809	2874
3992.403	2909
3993.995	2887
3995.586	2822
3997.177	2925
3998.768	2890
4000.361	2870
4001.951	2877
4003.54	2916
4005.13	2919
4006.719	2848
4008.31	2863
4009.897	2827
4011.485	2865
4013.073	2806
4014.66	2839
4016.247	2914
4017.834	2802
4019.421	2853
4021.006	2753
4022.592	2768
4024.178	2811
4025.763	2806
4027.348	2728
4028.932	2785
4030.515	2806
4032.099	2773
4033.682	2817
4035.266	2810
4036.847	2827
4038.429	2781
4040.011	2764
4041.592	2780
4043.173	2722
4044.755	2854
4046.334	2776
4047.913	2835
4049.494	2810
4051.074	2743
4052.652	2789
4054.23	2779
4055.807	2759
4057.385	2704
4058.963	2793
4060.541	2797
4062.117	2729
4063.693	2699
4065.269	2738
4066.844	2757
4068.42	2715
4069.995	2739
4071.569	2729
4073.143	2736
4074.716	2697
4076.291	2715
4077.864	2710
4079.436	2654
4081.009	2734
4082.58	2692
4084.152	2763
4085.723	2783
4087.294	2725
4088.865	2755
4090.435	2688
4092.005	2673
4093.574	2700
4095.143	2693
4096.712	2673
4098.279	2656
4099.848	2714
4101.416	2659
4102.984	2687
4104.55	2674
4106.117	2713
4107.682	2707
4109.248	2710
4110.815	2650
4112.379	2707
4113.945	2636
4115.508	2598
4117.073	2609
4118.637	2646
4120.201	2669
4121.763	2674
4123.325	2678
4124.888	2595
4126.449	2647
4128.013	2590
4129.573	2647
4131.133	2644
4132.694	2597
4134.254	2679
4135.814	2737
4137.374	2613
4138.933	2673
4140.491	2639
4142.049	2570
4143.607	2581
4145.167	2573
4146.724	2621
4148.28	2638
4149.836	2536
4151.392	2546
4152.949	2564
4154.504	2560
4156.059	2566
4157.614	2641
4159.168	2600
4160.723	2546
4162.277	2611
4163.83	2564
4165.383	2563
4166.936	2592
4168.488	2542
4170.041	2553
4171.593	2623
4173.144	2597
4174.695	2551
4176.246	2532
4177.796	2521
4179.346	2499
4180.896	2573
4182.445	2527
4183.994	2530
4185.542	2538
4187.091	2503
4188.639	2507
4190.185	2513
4191.732	2476
4193.279	2487
4194.826	2559
4196.373	2497
4197.918	2497
4199.463	2520
4201.008	2517
4202.553	2498
4204.098	2468
4205.641	2444
4207.185	2484
4208.728	2493
4210.271	2513
4211.814	2456
4213.357	2496
4214.898	2536
4216.439	2459
4217.98	2527
4219.522	2476
4221.062	2438
4222.603	2499
4224.142	2512
4225.681	2464
4227.222	2473
4228.76	2458
4230.298	2525
4231.835	2470
4233.373	2495
4234.911	2507
4236.449	2444
4237.985	2449
4239.521	2446
4241.057	2423
4242.592	2478
4244.128	2472
4245.663	2503
4247.197	2440
4248.731	2437
4250.265	2384
4251.798	2451
4253.333	2466
4254.865	2437
4256.397	2422
4257.93	2433
4259.461	2436
4260.994	2415
4262.525	2402
4264.056	2423
4265.586	2357
4267.115	2409
4268.646	2409
4270.176	2403
4271.705	2438
4273.232	2383
4274.761	2390
4276.289	2386
4277.818	2439
4279.345	2412
4280.872	2409
4282.399	2298
4283.924	2379
4285.452	2373
4286.976	2428
4288.502	2308
4290.026	2332
4291.551	2413
4293.074	2367
4294.6	2357
4296.123	2329
4297.646	2404
4299.168	2364
4300.691	2369
4302.214	2380
4303.736	2440
4305.257	2367
4306.778	2327
4308.299	2287
4309.82	2409
4311.34	2333
4312.86	2347
4314.379	2368
