400.0745	6698
402.597	6656
405.1208	6644
407.6419	6620
410.1623	6799
412.6819	6824
415.201	6854
417.7172	6904
420.2369	6932
422.7538	7039
425.2701	7060
427.7856	7168
430.3005	7019
432.8147	7283
435.3282	7218
437.841	7252
440.3511	7233
442.8625	7277
445.3753	7247
447.8854	7287
450.3927	7217
452.9014	7253
455.4073	7257
457.9146	7117
460.4233	7265
462.9272	7242
465.4325	7239
467.935	7222
470.4389	7252
472.9421	7238
475.4446	7179
477.9444	7268
480.4456	7228
482.944	7389
485.4417	7222
487.9429	7330
490.4393	7411
492.935	7247
495.4321	7353
497.9264	7390
500.4221	7425
502.9171	7418
505.4094	7560
507.9011	7526
510.392	7520
512.8864	7503
515.3759	7588
517.8649	7566
520.3531	7609
522.8406	7447
525.3275	7599
527.8178	7514
530.3033	7625
532.7881	7602
535.2723	7454
537.7558	7541
540.2407	7434
542.7228	7661
545.2043	7659
547.6851	7512
550.1652	7592
552.6467	7572
555.1255	7609
557.6016	7672
560.079	7774
562.5557	7653
565.0318	7759
567.5092	7636
569.984	7797
572.456	7868
574.9294	7769
577.4022	7887
579.8762	7820
582.3456	7891
584.8163	7902
587.2863	7923
589.7557	7882
592.2224	7879
594.6924	7933
597.1578	7908
599.6245	7722
602.0905	7811
604.5538	7831
607.0206	7829
609.4825	7783
611.9459	7941
614.4066	7821
616.8686	7909
619.33	7919
621.7906	7940
624.2487	7847
626.708	7772
629.1647	7825
631.6207	7741
634.0801	7764
636.5348	7790
638.9888	7770
641.4442	7787
643.8969	7826
646.3509	7812
648.8022	7966
651.255	7915
653.705	7967
656.1544	8049
658.6031	7955
661.0532	7793
663.5026	7962
665.9493	8010
668.3954	7967
670.8409	8055
673.2877	7932
675.7318	8046
678.1752	8026
680.618	7959
683.0601	8058
685.5035	8172
687.9444	8152
690.3845	8059
692.824	8016
695.2628	8094
697.701	8290
700.1406	8161
702.5774	8323
705.0116	8205
707.4472	8234
709.8821	8178
712.3183	8186
714.7519	8214
717.1829	8197
719.6151	8296
722.0468	8183
724.4777	8321
726.908	8323
729.3377	8402
731.7667	8403
734.1931	8491
736.6208	8431
739.0498	8368
741.4742	8474
743.9	8371
746.3231	8722
748.7476	8542
751.1713	8611
753.5945	8645
756.015	8693
758.4368	8618
760.856	8684
763.2766	8711
765.6965	8685
768.1157	8547
770.5323	8686
772.9483	8760
775.3656	8650
777.7822	8716
780.1963	8737
782.6116	8657
785.0244	8696
787.4365	8719
789.8499	8659
792.2626	8717
794.6728	8756
797.0823	8793
799.4911	8736
801.8994	8764
804.3109	8820
806.7178	8794
809.124	8831
811.5297	8841
813.9347	8815
816.341	8775
818.7447	8863
821.1478	8849
823.5502	8943
825.952	8760
828.3531	8818
830.7556	8763
833.1554	8892
835.5546	8945
837.9532	8843
840.3511	8763
842.7504	8837
845.1451	9003
847.5411	8944
849.9365	9135
852.3312	8919
854.7272	9120
857.1187	9022
859.5115	9106
861.9037	9016
864.2952	9117
866.6842	9043
869.0764	9100
871.4661	8925
873.8531	9041
876.2415	9065
878.6272	8893
881.0162	8968
883.4026	9046
885.7866	9148
888.1717	9096
890.5543	8889
892.9382	8939
895.3215	9071
897.7041	9018
900.0842	8889
902.4655	8974
904.8443	9002
907.2244	8960
909.6039	8975
911.9808	9085
914.357	9139
916.7346	9166
919.1115	9362
921.4859	9269
923.8616	9464
926.2347	9296
928.6071	9329
930.979	9520
933.3541	9403
935.7247	9386
938.0946	9465
940.4639	9722
942.8326	9758
945.2026	9824
947.5701	10065
949.9369	10137
952.305	10551
954.6705	10710
957.0355	10974
959.4017	11523
961.7654	11620
964.1284	11637
966.4908	11069
968.8527	10859
971.2138	10255
973.5743	10115
975.9343	9850
978.2936	9565
980.6522	9488
983.0122	9452
985.3696	9403
987.7245	9412
990.0807	9276
992.4362	9260
994.7911	9309
997.1474	9300
999.4991	9249
1001.852	9601
1004.205	9453
1006.555	9444
1008.908	9249
1011.258	9455
1013.606	9342
1015.956	9405
1018.302	9291
1020.652	9466
1022.998	9418
1025.345	9451
1027.691	9481
1030.035	9577
1032.378	9656
1034.724	9478
1037.066	9499
1039.409	9508
1041.75	9573
1044.092	9530
1046.433	9506
1048.771	9455
1051.112	9459
1053.449	9489
1055.786	9529
1058.124	9548
1060.462	9397
1062.797	9461
1065.131	9671
1067.467	9657
1069.8	9675
1072.135	9569
1074.467	9657
1076.798	9738
1079.129	9621
1081.459	9676
1083.792	9507
1086.121	9506
1088.449	9497
1090.777	9538
1093.104	9596
1095.431	9564
1097.759	9438
1100.084	9581
1102.408	9594
1104.732	9584
1107.056	9641
1109.379	9577
1111.701	9570
1114.022	9475
1116.343	9567
1118.664	9506
1120.983	9532
1123.303	9579
1125.621	9465
1127.939	9676
1130.256	9497
1132.573	9514
1134.889	9543
1137.205	9505
1139.52	9515
1141.832	9628
1144.146	9427
1146.461	9482
1148.771	9529
1151.083	9563
1153.392	9510
1155.703	9417
1158.011	9576
1160.323	9598
1162.629	9465
1164.938	9582
1167.243	9578
1169.55	9673
1171.857	9405
1174.163	9596
1176.466	9521
1178.769	9503
1181.073	9546
1183.374	9592
1185.677	9567
1187.979	9526
1190.279	9564
1192.578	9460
1194.878	9549
1197.178	9362
1199.476	9507
1201.772	9552
1204.068	9548
1206.366	9624
1208.663	9598
1210.957	9516
1213.251	9644
1215.544	9611
1217.836	9642
1220.128	9646
1222.421	9756
1224.712	9514
1227.002	9705
1229.292	9651
1231.581	9722
1233.871	9790
1236.159	9701
1238.446	9827
1240.732	9901
1243.018	9951
1245.304	9769
1247.59	9898
1249.874	9902
1252.156	9871
1254.439	9860
1256.721	9947
1259.005	9921
1261.286	9847
1263.565	9925
1265.845	9869
1268.125	9951
1270.403	9793
1272.682	9971
1274.959	9821
1277.234	9936
1279.511	9882
1281.787	9916
1284.062	9815
1286.337	9839
1288.609	9723
1290.882	9782
1293.153	9802
1295.428	9688
1297.698	9730
1299.969	9676
1302.237	9691
1304.507	9657
1306.777	9924
1309.044	9719
1311.312	9763
1313.578	9779
1315.844	9716
1318.109	9767
1320.375	9909
1322.638	9638
1324.903	9857
1327.165	9787
1329.427	9587
1331.69	9829
1333.952	9964
1336.212	9701
1338.471	9734
1340.73	9743
1342.988	9802
1345.248	9657
1347.505	9656
1349.763	9786
1352.019	9682
1354.274	9739
1356.53	9561
1358.784	9545
1361.038	9885
1363.291	9671
1365.543	9745
1367.797	9631
1370.048	9760
1372.296	9765
1374.546	9673
1376.796	9851
1379.045	9676
1381.295	9674
1383.542	9921
1385.787	9932
1388.034	9919
1390.28	9863
1392.527	9761
1394.772	9780
1397.014	9809
1399.258	9968
1401.501	9934
1403.741	10022
1405.985	9939
1408.226	9768
1410.465	10018
1412.705	9974
1414.943	9895
1417.184	9966
1419.42	9964
1421.658	9946
1423.894	9978
1426.13	10085
1428.366	9938
1430.602	9983
1432.835	10004
1435.069	10002
1437.301	10090
1439.535	10121
1441.767	10074
1443.997	9996
1446.229	10206
1448.458	10197
1450.687	10019
1452.916	10294
1455.146	10213
1457.372	10215
1459.599	10170
1461.824	10089
1464.051	10050
1466.277	10023
1468.501	10147
1470.725	9984
1472.948	10053
1475.17	9907
1477.393	10110
1479.614	9921
1481.837	9841
1484.057	9878
1486.276	9834
1488.497	9823
1490.715	9873
1492.932	9650
1495.148	9761
1497.364	9713
1499.58	9754
1501.798	9651
1504.012	9607
1506.227	9656
1508.44	9864
1510.653	9699
1512.866	9624
1515.078	9631
1517.289	9620
1519.5	9674
1521.711	9658
1523.92	9609
1526.13	9648
1528.338	9603
1530.544	9647
1532.752	9626
1534.959	9624
1537.165	9674
1539.371	9721
1541.574	9755
1543.779	9749
1545.983	9852
1548.187	9552
1550.39	9651
1552.59	9730
1554.792	9744
1556.991	9710
1559.19	9892
1561.392	9865
1563.59	9716
1565.789	9724
1567.986	9744
1570.182	9930
1572.381	9900
1574.576	9814
1576.771	9856
1578.966	9842
1581.16	9790
1583.354	9953
1585.546	9969
1587.74	9918
1589.931	9963
1592.121	9993
1594.311	9883
1596.502	9944
1598.693	10027
1600.881	9875
1603.069	9758
1605.256	10003
1607.445	9914
1609.631	9917
1611.816	10060
1614.001	9925
1616.186	9983
1618.37	9862
1620.555	9975
1622.737	10036
1624.919	9994
1627.101	9965
1629.282	10064
1631.463	10190
1633.643	10143
1635.822	10067
1638.001	9999
1640.179	9920
1642.359	9971
1644.534	10102
1646.711	10066
1648.887	9975
1651.062	10190
1653.235	10005
1655.412	10095
1657.586	10123
1659.757	10095
1661.93	10087
1664.1	10246
1666.274	10138
1668.445	10073
1670.614	10072
1672.784	10361
1674.951	10109
1677.12	10247
1679.289	10156
1681.457	10163
1683.622	10043
1685.789	10039
1687.953	10012
1690.121	10139
1692.284	10131
1694.447	10162
1696.611	10046
1698.772	10046
1700.935	9834
1703.098	10018
1705.258	10007
1707.417	9979
1709.576	9816
1711.736	10023
1713.896	9995
1716.053	9828
1718.21	9872
1720.366	9807
1722.522	9813
1724.68	9849
1726.835	9894
1728.989	9839
1731.142	9835
1733.295	9772
1735.449	9838
1737.601	9860
1739.753	9902
1741.903	9973
1744.054	9834
1746.203	9991
1748.354	9870
1750.503	9959
1752.651	9902
1754.798	9824
1756.944	9941
1759.092	9872
1761.238	9941
1763.383	9875
1765.528	9895
1767.672	9954
1769.814	9851
1771.959	9819
1774.102	9915
1776.242	9911
1778.384	9982
1780.525	10043
1782.665	9856
1784.805	9914
1786.945	9982
1789.082	9902
1791.22	10085
1793.36	9901
1795.495	9871
1797.632	10057
1799.766	10037
1801.902	9977
1804.035	9885
1806.172	9856
1808.304	9960
1810.436	9738
1812.569	9976
1814.699	10020
1816.833	9846
1818.963	9932
1821.092	9885
1823.222	9880
1825.35	9914
1827.478	9982
1829.608	9977
1831.734	10044
1833.86	9888
1835.986	9858
1838.11	9920
1840.238	9825
1842.362	9770
1844.485	9810
1846.608	9727
1848.73	9722
1850.853	9733
1852.974	9812
1855.097	9853
1857.217	9905
1859.336	9812
1861.455	9897
1863.576	9808
1865.693	9749
1867.811	9817
1869.926	9863
1872.042	9787
1874.16	9774
1876.275	9754
1878.39	9735
1880.504	9868
1882.618	9911
1884.731	9769
1886.843	9755
1888.956	9811
1891.067	9835
1893.178	9885
1895.287	9750
1897.399	9902
1899.508	9938
1901.617	9935
1903.724	9850
1905.832	9980
1907.941	9861
1910.046	9908
1912.152	9943
1914.256	9854
1916.361	9859
1918.464	9778
1920.57	9963
1922.672	9975
1924.775	9898
1926.876	9847
1928.978	10010
1931.08	9955
1933.181	9964
1935.28	9815
1937.38	9896
1939.478	9894
1941.577	10034
1943.675	9859
1945.771	9877
1947.867	9885
1949.964	9935
1952.058	9956
1954.154	9947
1956.248	9934
1958.343	9758
1960.435	9930
1962.527	10022
1964.62	9913
1966.711	9825
1968.802	9973
1970.892	10001
1972.983	9737
1975.072	9802
1977.162	9798
1979.25	9931
1981.337	9791
1983.424	9851
1985.51	9872
1987.598	9909
1989.683	9731
1991.768	9945
1993.852	9832
1995.934	9840
1998.019	9854
2000.102	9867
2002.184	9972
2004.266	9830
2006.347	9698
2008.427	9647
2010.508	9890
2012.587	9825
2014.666	9854
2016.745	9814
2018.821	9921
2020.9	9815
2022.977	9658
2025.052	9762
2027.128	9715
2029.204	9687
2031.277	9799
2033.353	9790
2035.425	9855
2037.499	9848
2039.57	9785
2041.642	9783
2043.714	9784
2045.786	9830
2047.855	9754
2049.925	9753
2051.993	9696
2054.064	9676
2056.132	9712
2058.2	9847
2060.266	9823
2062.332	9704
2064.398	9672
2066.465	9671
2068.529	9718
2070.592	9904
2072.657	9980
2074.719	9675
2076.783	9744
2078.845	9773
2080.907	9810
2082.968	9726
2085.028	9706
2087.087	9923
2089.148	9783
2091.207	9799
2093.264	9811
2095.322	9887
2097.379	9842
2099.439	9664
2101.495	9743
2103.55	9605
2105.605	9822
2107.658	9823
2109.713	9678
2111.767	9780
2113.82	9665
2115.872	9760
2117.924	9761
2119.975	9605
2122.028	9632
2124.078	9627
2126.126	9799
2128.176	9807
2130.225	9655
2132.275	9741
2134.321	9724
2136.368	9728
2138.415	9615
2140.461	9640
2142.505	9675
2144.552	9645
2146.597	9567
2148.64	9604
2150.684	9572
2152.725	9698
2154.77	9696
2156.811	9656
2158.852	9687
2160.894	9571
2162.933	9671
2164.973	9683
2167.013	9717
2169.051	9594
2171.089	9639
2173.126	9680
2175.164	9658
2177.201	9485
2179.236	9608
2181.273	9504
2183.307	9474
2185.341	9532
2187.377	9455
2189.41	9534
2191.442	9506
2193.473	9330
2195.506	9477
2197.539	9525
2199.569	9457
2201.598	9379
2203.628	9398
2205.656	9532
2207.686	9594
2209.716	9565
2211.743	9458
2213.769	9416
2215.796	9396
2217.821	9456
2219.848	9442
2221.873	9375
2223.897	9487
2225.921	9470
2227.944	9348
2229.967	9527
2231.991	9405
2234.011	9455
2236.032	9450
2238.053	9462
2240.073	9441
2242.094	9375
2244.114	9405
2246.131	9346
2248.149	9495
2250.167	9294
2252.186	9372
2254.201	9489
2256.218	9394
2258.233	9455
2260.247	9341
2262.262	9488
2264.278	9368
2266.29	9502
2268.303	9425
2270.315	9341
2272.327	9406
2274.341	9383
2276.35	9520
2278.361	9428
2280.37	9455
2282.38	9376
2284.388	9382
2286.397	9226
2288.405	9372
2290.412	9354
2292.419	9446
2294.425	9284
2296.431	9233
2298.437	9418
2300.441	9290
2302.445	9397
2304.449	9155
2306.453	9370
2308.455	9293
2310.457	9197
2312.459	9497
2314.46	9466
2316.46	9312
2318.461	9320
2320.46	9297
2322.458	9463
2324.458	9283
2326.456	9209
2328.455	9265
2330.451	9331
2332.447	9182
2334.443	9255
2336.438	9186
2338.433	9158
2340.429	9228
2342.422	9141
2344.416	9134
2346.408	9347
2348.399	9136
2350.393	9085
2352.384	9312
2354.375	9238
2356.365	9241
2358.355	9135
2360.344	9136
2362.333	9162
2364.322	9175
2366.309	9048
2368.295	9044
2370.282	9068
2372.27	9100
2374.256	9156
2376.24	9191
2378.225	9041
2380.208	9133
2382.194	9110
2384.177	9021
2386.159	9044
2388.142	8963
2390.122	8866
2392.105	8985
2394.085	8987
2396.066	9018
2398.044	9132
2400.024	9054
2402.002	8893
2403.982	9018
2405.959	9002
2407.935	8921
2409.913	8843
2411.888	8943
2413.865	8972
2415.84	8997
2417.814	8956
2419.788	9068
2421.762	9021
2423.735	8886
2425.708	8904
2427.68	8986
2429.651	9024
2431.623	8931
2433.593	9084
2435.564	8951
2437.533	9051
2439.502	9017
2441.47	9081
2443.438	8761
2445.406	8922
2447.373	8905
2449.34	9040
2451.305	8850
2453.271	8780
2455.235	8902
2457.201	8981
2459.165	8978
2461.129	8940
2463.092	8764
2465.054	8766
2467.018	8800
2468.978	9044
2470.939	8786
2472.899	8984
2474.86	8801
2476.819	8842
2478.778	8842
2480.737	8928
2482.695	8778
2484.653	8823
2486.609	8851
2488.567	8869
2490.524	8825
2492.478	8818
2494.433	8850
2496.387	8820
2498.343	8748
2500.297	8680
2502.249	8753
2504.202	8913
2506.153	8674
2508.105	8776
2510.057	8721
2512.008	8838
2513.957	8743
2515.906	8710
2517.855	8868
2519.805	8646
2521.754	8740
2523.7	8598
2525.647	8802
2527.594	8746
2529.54	8632
2531.486	8842
2533.431	8676
2535.376	8823
2537.32	8677
2539.263	8698
2541.207	8722
2543.151	8695
2545.093	8619
2547.034	8724
2548.975	8801
2550.917	8618
2552.856	8769
2554.796	8718
2556.735	8609
2558.673	8669
2560.611	8746
2562.55	8741
2564.487	8655
2566.424	8661
2568.36	8689
2570.296	8655
2572.232	8671
2574.167	8752
2576.101	8557
2578.035	8766
2579.969	8608
2581.902	8619
2583.834	8687
2585.766	8728
2587.698	8635
2589.628	8775
2591.557	8592
2593.489	8678
2595.419	8593
2597.348	8579
2599.275	8698
2601.204	8630
2603.131	8601
2605.059	8695
2606.986	8786
2608.911	8668
2610.837	8645
2612.76	8583
2614.687	8619
2616.61	8543
2618.534	8553
2620.457	8839
2622.38	8637
2624.302	8677
2626.225	8584
2628.145	8618
2630.067	8723
2631.986	8567
2633.906	8686
2635.827	8701
2637.745	8649
2639.662	8601
2641.581	8668
2643.498	8684
2645.415	8566
2647.331	8598
2649.248	8602
2651.163	8720
2653.077	8609
2654.993	8552
2656.906	8664
2658.821	8616
2660.733	8594
2662.646	8659
2664.557	8466
2666.47	8631
2668.381	8574
2670.291	8584
2672.201	8631
2674.11	8666
2676.021	8568
2677.929	8638
2679.837	8503
2681.745	8566
2683.652	8505
2685.56	8431
2687.466	8554
2689.371	8618
2691.276	8469
2693.181	8422
2695.085	8538
2696.991	8527
2698.893	8455
2700.796	8448
2702.698	8505
2704.601	8582
2706.502	8451
2708.404	8433
2710.304	8318
2712.203	8519
2714.103	8447
2716.003	8402
2717.902	8249
2719.8	8494
2721.697	8357
2723.594	8399
2725.49	8393
2727.389	8356
2729.283	8532
2731.179	8383
2733.073	8410
2734.968	8501
2736.863	8406
2738.757	8458
2740.649	8424
2742.541	8412
2744.433	8378
2746.324	8375
2748.216	8426
2750.107	8309
2751.997	8341
2753.886	8267
2755.776	8424
2757.666	8463
2759.553	8371
2761.44	8351
2763.327	8307
2765.215	8248
2767.102	8350
2768.988	8331
2770.873	8211
2772.757	8292
2774.641	8398
2776.525	8352
2778.41	8300
2780.292	8268
2782.175	8337
2784.057	8387
2785.938	8333
2787.821	8391
2789.701	8304
2791.581	8197
2793.461	8192
2795.34	8320
2797.219	8307
2799.099	8298
2800.975	8140
2802.853	8170
2804.73	8269
2806.606	8072
2808.484	8308
2810.358	8196
2812.233	8332
2814.108	8102
2815.981	8298
2817.857	8061
2819.73	8124
2821.602	8219
2823.474	8120
2825.346	8265
2827.217	8188
2829.089	8146
2830.959	8068
2832.829	8182
2834.698	8200
2836.567	8142
2838.436	8156
2840.305	8246
2842.172	8216
2844.04	8159
2845.905	8271
2847.772	8227
2849.639	8200
2851.503	8248
2853.369	8130
2855.232	8158
2857.096	8189
2858.961	8335
2860.824	8285
2862.686	8293
2864.547	8452
2866.41	8373
2868.272	8402
2870.132	8450
2871.992	8600
2873.851	8572
2875.711	8556
2877.57	8677
2879.429	8815
2881.287	8823
2883.144	8740
2885.001	8828
2886.857	8859
2888.714	8819
2890.57	8644
2892.425	8895
2894.279	8879
2896.133	8812
2897.987	8735
2899.842	8842
2901.694	8819
2903.547	8820
2905.397	8923
2907.249	8857
2909.101	8762
2910.952	8721
2912.802	8800
2914.652	8788
2916.5	8900
2918.35	8997
2920.198	8970
2922.045	9035
2923.893	9081
2925.74	9332
2927.585	9294
2929.433	9400
2931.279	9465
2933.123	9593
2934.968	9655
2936.811	9699
2938.656	9661
2940.5	9709
2942.342	9779
2944.185	9745
2946.026	9816
2947.87	9761
2949.71	9771
2951.549	9630
2953.39	9622
2955.229	9537
2957.069	9536
2958.908	9339
2960.746	9379
2962.584	9327
2964.421	9338
2966.257	9207
2968.094	9186
2969.931	9063
2971.766	8932
2973.601	8939
2975.435	8877
2977.27	8940
2979.105	8901
2980.938	8854
2982.77	8780
2984.602	8869
2986.434	8764
2988.267	8674
2990.097	8620
2991.927	8617
2993.757	8694
2995.587	8564
2997.417	8554
2999.246	8433
3001.074	8426
3002.902	8378
3004.729	8158
3006.556	8323
3008.384	8106
3010.21	8008
3012.036	8046
3013.861	7977
3015.684	8028
3017.51	7921
3019.334	7907
3021.157	7924
3022.981	7851
3024.802	7804
3026.624	7765
3028.448	7829
3030.267	7837
3032.088	7661
3033.909	7762
3035.728	7691
3037.549	7789
3039.368	7563
3041.186	7541
3043.004	7655
3044.821	7624
3046.64	7674
3048.455	7694
3050.272	7539
3052.087	7597
3053.903	7623
3055.717	7644
3057.534	7653
3059.347	7607
3061.16	7611
3062.974	7591
3064.785	7641
3066.598	7473
3068.411	7625
3070.222	7491
3072.032	7483
3073.844	7576
3075.653	7527
3077.463	7540
3079.272	7463
3081.08	7464
3082.889	7501
3084.697	7438
3086.505	7505
3088.312	7315
3090.118	7521
3091.924	7365
3093.729	7425
3095.535	7205
3097.34	7442
3099.144	7278
3100.947	7289
3102.75	7266
3104.553	7349
3106.357	7246
3108.159	7321
3109.961	7423
3111.762	7301
3113.562	7316
3115.365	7376
3117.164	7310
3118.964	7380
3120.761	7106
3122.56	7134
3124.36	7167
3126.158	7136
3127.954	7333
3129.75	7214
3131.547	7254
3133.343	7039
3135.139	7192
3136.934	7226
3138.729	7118
3140.522	7158
3142.317	7208
3144.11	7134
3145.904	7077
3147.695	7065
3149.488	7065
3151.28	7079
3153.07	7170
3154.863	7125
3156.652	7038
3158.441	7065
3160.231	7261
3162.019	7077
3163.81	7142
3165.597	7000
3167.384	7104
3169.172	6901
3170.958	7123
3172.745	7038
3174.532	7060
3176.317	7078
3178.101	7043
3179.885	6964
3181.67	7076
3183.455	7041
3185.238	7127
3187.02	7046
3188.802	6996
3190.585	7082
3192.368	6890
3194.149	6997
3195.929	6916
3197.709	6939
3199.489	6997
3201.268	6881
3203.048	6978
3204.826	6878
3206.604	6991
3208.382	6996
3210.159	7035
3211.937	6879
3213.713	7065
3215.489	6949
3217.263	6882
3219.038	6914
3220.815	7068
3222.589	6922
3224.363	7048
3226.136	6934
3227.908	6845
3229.681	6940
3231.454	6932
3233.226	6874
3234.996	6913
3236.767	6889
3238.538	7002
3240.308	6885
3242.078	6962
3243.847	6872
3245.615	6916
3247.384	6792
3249.15	6862
3250.92	6924
3252.686	6868
3254.453	6850
3256.218	6869
3257.984	6969
3259.75	6883
3261.515	6852
3263.279	6964
3265.044	6887
3266.806	6876
3268.57	6968
3270.334	6902
3272.095	6980
3273.856	6908
3275.619	6932
3277.379	6894
3279.14	6924
3280.9	6893
3282.661	6801
3284.419	6865
3286.178	6964
3287.937	6946
3289.695	6881
3291.453	6880
3293.21	6902
3294.967	7019
3296.723	6929
3298.48	6959
3300.235	6875
3301.99	6863
3303.744	6910
3305.498	6835
3307.253	7007
3309.006	6886
3310.759	6944
3312.511	6929
3314.263	6842
3316.017	6847
3317.768	6886
3319.519	6876
3321.268	6791
3323.018	6801
3324.767	6946
3326.518	6784
3328.267	6850
3330.014	6811
3331.762	6785
3333.509	6802
3335.258	6776
3337.003	6843
3338.75	6875
3340.496	6684
3342.24	6782
3343.987	6844
3345.732	6775
3347.475	6714
3349.219	6775
3350.961	6708
3352.705	6711
3354.448	6700
3356.19	6756
3357.931	6739
3359.672	6571
3361.412	6778
3363.155	6822
3364.894	6699
3366.633	6648
3368.372	6733
3370.11	6685
3371.849	6650
3373.588	6714
3375.325	6616
3377.061	6570
3378.799	6669
3380.534	6781
3382.271	6550
3384.006	6630
3385.741	6537
3387.475	6571
3389.209	6608
3390.944	6555
3392.677	6664
3394.409	6497
3396.143	6413
3397.874	6550
3399.606	6474
3401.338	6622
3403.069	6472
3404.799	6523
3406.528	6620
3408.258	6620
3409.988	6521
3411.717	6464
3413.445	6398
3415.173	6553
3416.899	6569
3418.626	6606
3420.354	6363
3422.08	6496
3423.806	6607
3425.531	6425
3427.255	6533
3428.981	6523
3430.705	6303
3432.429	6526
3434.151	6425
3435.875	6372
3437.599	6400
3439.321	6516
3441.042	6473
3442.763	6566
3444.483	6460
3446.204	6455
3447.926	6420
3449.645	6265
3451.364	6228
3453.082	6278
3454.801	6373
3456.52	6329
3458.238	6377
3459.954	6361
3461.671	6242
3463.387	6376
3465.104	6212
3466.82	6245
3468.534	6117
3470.25	6249
3471.963	6199
3473.676	6285
3475.392	6187
3477.104	6196
3478.817	6158
3480.528	6197
3482.241	6147
3483.954	6212
3485.664	6302
3487.374	6256
3489.084	6072
3490.795	6155
3492.504	6172
3494.214	6061
3495.922	6231
3497.63	6178
3499.338	6152
3501.045	6179
3502.753	6022
3504.459	6067
3506.166	6109
3507.871	6066
3509.576	6110
3511.283	6089
3512.987	6005
3514.691	6013
3516.395	6070
3518.098	5927
3519.8	6097
3521.504	5985
3523.206	6010
3524.908	5971
3526.609	5868
3528.309	5950
3530.011	5977
3531.711	5931
3533.411	5884
3535.109	6033
3536.808	5869
3538.507	5943
3540.206	5953
3541.904	5985
3543.601	5831
3545.297	5867
3546.994	5961
3548.69	5797
3550.387	5842
3552.081	5937
3553.776	5856
3555.47	5862
3557.166	5906
3558.859	5847
3560.553	5849
3562.245	5736
3563.938	5730
3565.629	5821
3567.322	5806
3569.014	5786
3570.704	5789
3572.394	5830
3574.084	5799
3575.775	5773
3577.464	5684
3579.152	5786
3580.842	5638
3582.529	5894
3584.216	5742
3585.905	5669
3587.591	5789
3589.279	5783
3590.964	5743
3592.649	5825
3594.336	5701
3596.021	5638
3597.705	5738
3599.388	5657
3601.072	5610
3602.757	5678
3604.439	5607
3606.122	5693
3607.803	5695
3609.485	5605
3611.167	5531
3612.849	5544
3614.529	5630
3616.208	5631
3617.888	5530
3619.567	5461
3621.247	5474
3622.926	5506
3624.603	5560
3626.281	5427
3627.958	5501
3629.635	5554
3631.312	5496
3632.989	5507
3634.665	5506
3636.339	5452
3638.014	5451
3639.691	5390
3641.364	5463
3643.038	5448
3644.71	5387
3646.384	5502
3648.058	5499
3649.729	5404
3651.402	5382
3653.073	5445
3654.744	5308
3656.414	5389
3658.085	5319
3659.755	5290
3661.424	5345
3663.094	5392
3664.762	5373
3666.431	5302
3668.099	5409
3669.766	5321
3671.433	5228
3673.099	5262
3674.768	5314
3676.433	5215
3678.098	5371
3679.763	5309
3681.428	5234
3683.093	5177
3684.757	5231
3686.421	5249
3688.083	5253
3689.746	5338
3691.408	5258
3693.071	5201
3694.733	5227
3696.394	5347
3698.054	5175
3699.715	5220
3701.375	5200
3703.036	5221
3704.695	5221
3706.354	5221
3708.012	5214
3709.67	5266
3711.329	5184
3712.987	5203
3714.644	5152
3716.299	5163
3717.955	5149
3719.613	5180
3721.268	5257
3722.923	5170
3724.577	5031
3726.231	5204
3727.885	5192
3729.539	5255
3731.192	5153
3732.845	5109
3734.497	5204
3736.149	5135
3737.802	5029
3739.453	5316
3741.104	5110
3742.753	5096
3744.404	5118
3746.052	5103
3747.704	5135
3749.352	5070
3751	5096
3752.648	5091
3754.296	5118
3755.944	5052
3757.59	5046
3759.238	5059
3760.883	5104
3762.528	5061
3764.176	5080
3765.82	5095
3767.464	5039
3769.109	5180
3770.753	5051
3772.396	5059
3774.04	5123
3775.683	4977
3777.325	5053
3778.967	4899
3780.608	4901
3782.25	4904
3783.89	4952
3785.531	5050
3787.17	4973
3788.81	4944
3790.45	4934
3792.09	4954
3793.729	4954
3795.366	4827
3797.003	4921
3798.64	4985
3800.278	4806
3801.915	4900
3803.551	5002
3805.187	4837
3806.822	5052
3808.458	4889
3810.093	4842
3811.726	4921
3813.36	4987
3814.994	4956
3816.627	4829
3818.262	4772
3819.893	4942
3821.525	4813
3823.157	4889
3824.787	4868
3826.42	4811
3828.051	4827
3829.68	4783
3831.31	4849
3832.938	4739
3834.569	4818
3836.198	4854
3837.825	4851
3839.454	4750
3841.08	4733
3842.708	4797
3844.335	4766
3845.962	4799
3847.587	4834
3849.212	4881
3850.838	4793
3852.463	4809
3854.089	4652
3855.712	4767
3857.335	4681
3858.959	4784
3860.582	4691
3862.205	4767
3863.827	4720
3865.449	4799
3867.07	4667
3868.691	4649
3870.312	4647
3871.933	4644
3873.553	4729
3875.173	4604
3876.792	4830
3878.411	4678
3880.03	4691
3881.647	4527
3883.265	4791
3884.882	4788
3886.499	4578
3888.116	4688
3889.732	4730
3891.348	4554
3892.964	4555
3894.579	4595
3896.195	4618
3897.809	4615
3899.423	4621
3901.036	4565
3902.648	4602
3904.261	4574
3905.875	4661
3907.487	4655
3909.099	4718
3910.709	4549
3912.321	4650
3913.933	4605
3915.542	4615
3917.152	4590
3918.762	4607
3920.37	4562
3921.98	4613
3923.589	4634
3925.196	4647
3926.804	4662
3928.41	4650
3930.018	4483
3931.626	4528
3933.231	4562
3934.838	4534
3936.442	4472
3938.046	4507
3939.653	4537
3941.257	4521
3942.861	4486
3944.464	4487
3946.068	4516
3947.67	4432
3949.273	4544
3950.876	4464
3952.477	4555
3954.078	4473
3955.678	4531
3957.281	4493
3958.881	4531
3960.48	4546
3962.079	4479
3963.678	4422
3965.279	4436
3966.877	4407
3968.475	4479
3970.072	4455
3971.669	4438
3973.266	4510
3974.864	4512
3976.459	4321
3978.055	4405
3979.65	4372
3981.245	4418
3982.841	4323
3984.436	4362
3986.03	4439
3987.623	4375
3989.216	4379
3990.809	4305
3992.403	4228
3993.995	4315
3995.586	4375
3997.177	4326
3998.768	4378
4000.361	4217
4001.951	4278
4003.54	4202
4005.13	4269
4006.719	4369
4008.31	4331
4009.897	4299
4011.485	4260
4013.073	4273
4014.66	4369
4016.247	4351
4017.834	4232
4019.421	4308
4021.006	4306
4022.592	4197
4024.178	4224
4025.763	4233
4027.348	4236
4028.932	4168
4030.515	4185
4032.099	4214
4033.682	4252
4035.266	4222
4036.847	4183
4038.429	4129
4040.011	4186
4041.592	4333
4043.173	4154
4044.755	4149
4046.334	4193
4047.913	4154
4049.494	4139
4051.074	4128
4052.652	4140
4054.23	4164
4055.807	4201
4057.385	4153
4058.963	4180
4060.541	4109
4062.117	4042
4063.693	4188
4065.269	4179
4066.844	4175
4068.42	4123
4069.995	4102
4071.569	3989
4073.143	4047
4074.716	4077
4076.291	4107
4077.864	4043
4079.436	4080
4081.009	4030
4082.58	4026
4084.152	4111
4085.723	4010
4087.294	4031
4088.865	4051
4090.435	4003
4092.005	4042
4093.574	4014
4095.143	4007
4096.712	3991
4098.279	4104
4099.848	4034
4101.416	4060
4102.984	4040
4104.55	4048
4106.117	4034
4107.682	3996
4109.248	3996
4110.815	3981
4112.379	4009
4113.945	3913
4115.508	4022
4117.073	4011
4118.637	3894
4120.201	3977
4121.763	3945
4123.325	3970
4124.888	3977
4126.449	3993
4128.013	3871
4129.573	3815
4131.133	3914
4132.694	3953
4134.254	3903
4135.814	3962
4137.374	3887
4138.933	3841
4140.491	3906
4142.049	3876
4143.607	3840
4145.167	3850
4146.724	3857
4148.28	3888
4149.836	3843
4151.392	3878
4152.949	3836
4154.504	3839
4156.059	3859
4157.614	3877
4159.168	3869
4160.723	3751
4162.277	3721
4163.83	3770
4165.383	3874
4166.936	3879
4168.488	3731
4170.041	3748
4171.593	3773
4173.144	3805
4174.695	3757
4176.246	3735
4177.796	3759
4179.346	3754
4180.896	3762
4182.445	3803
4183.994	3829
4185.542	3723
4187.091	3698
4188.639	3728
4190.185	3770
4191.732	3780
4193.279	3684
4194.826	3756
4196.373	3625
4197.918	3681
4199.463	3740
4201.008	3676
4202.553	3743
4204.098	3687
4205.641	3714
4207.185	3721
4208.728	3629
4210.271	3647
4211.814	3721
4213.357	3669
4214.898	3699
4216.439	3682
4217.98	3609
4219.522	3750
4221.062	3601
4222.603	3716
4224.142	3744
4225.681	3581
4227.222	3528
4228.76	3601
4230.298	3636
4231.835	3560
4233.373	3572
4234.911	3641
4236.449	3652
4237.985	3652
4239.521	3618
4241.057	3558
4242.592	3580
4244.128	3621
4245.663	3602
4247.197	3623
4248.731	3603
4250.265	3571
4251.798	3548
4253.333	3608
4254.865	3545
4256.397	3622
4257.93	3568
4259.461	3567
4260.994	3638
4262.525	3563
4264.056	3517
4265.586	3532
4267.115	3428
4268.646	3548
4270.176	3497
4271.705	3586
4273.232	3533
4274.761	3534
4276.289	3473
4277.818	3531
4279.345	3491
4280.872	3545
4282.399	3588
4283.924	3519
4285.452	3569
4286.976	3555
4288.502	3453
4290.026	3481
4291.551	3562
4293.074	3453
4294.6	3517
4296.123	3490
4297.646	3421
4299.168	3500
4300.691	3502
4302.214	3418
4303.736	3506
4305.257	3491
4306.778	3420
4308.299	3460
4309.82	3508
4311.34	3407
4312.86	3461
4314.379	3391
