400.0745	3945
402.597	4053
405.1208	3963
407.6419	4000
410.1623	4094
412.6819	3984
415.201	4107
417.7172	4047
420.2369	4125
422.7538	4164
425.2701	4173
427.7856	4150
430.3005	4208
432.8147	4277
435.3282	4311
437.841	4294
440.3511	4360
442.8625	4298
445.3753	4299
447.8854	4349
450.3927	4233
452.9014	4350
455.4073	4283
457.9146	4270
460.4233	4315
462.9272	4242
465.4325	4286
467.935	4350
470.4389	4272
472.9421	4238
475.4446	4281
477.9444	4310
480.4456	4410
482.944	4321
485.4417	4349
487.9429	4294
490.4393	4342
492.935	4402
495.4321	4379
497.9264	4428
500.4221	4414
502.9171	4464
505.4094	4520
507.9011	4457
510.392	4516
512.8864	4421
515.3759	4535
517.8649	4535
520.3531	4451
522.8406	4512
525.3275	4527
527.8178	4576
530.3033	4489
532.7881	4494
535.2723	4451
537.7558	4455
540.2407	4554
542.7228	4392
545.2043	4488
547.6851	4454
550.1652	4506
552.6467	4478
555.1255	4561
557.6016	4554
560.079	4513
562.5557	4581
565.0318	4543
567.5092	4502
569.984	4467
572.456	4606
574.9294	4611
577.4022	4645
579.8762	4730
582.3456	4671
584.8163	4681
587.2863	4566
589.7557	4673
592.2224	4705
594.6924	4661
597.1578	4716
599.6245	4683
602.0905	4641
604.5538	4698
607.0206	4733
609.4825	4658
611.9459	4659
614.4066	4705
616.8686	4591
619.33	4676
621.7906	4601
624.2487	4635
626.708	4691
629.1647	4645
631.6207	4722
634.0801	4657
636.5348	4675
638.9888	4631
641.4442	4718
643.8969	4661
646.3509	4606
648.8022	4752
651.255	4708
653.705	4681
656.1544	4723
658.6031	4713
661.0532	4805
663.5026	4822
665.9493	4715
668.3954	4774
670.8409	4757
673.2877	4747
675.7318	4760
678.1752	4816
680.618	4731
683.0601	4813
685.5035	4873
687.9444	4791
690.3845	4820
692.824	4808
695.2628	4812
697.701	4917
700.1406	4830
702.5774	4786
705.0116	4955
707.4472	4872
709.8821	4834
712.3183	4948
714.7519	4984
717.1829	4858
719.6151	4990
722.0468	4948
724.4777	4976
726.908	4994
729.3377	4993
731.7667	5066
734.1931	5007
736.6208	4950
739.0498	5029
741.4742	5011
743.9	5078
746.3231	5120
748.7476	5015
751.1713	5106
753.5945	5123
756.015	5145
758.4368	5106
760.856	5185
763.2766	5091
765.6965	5114
768.1157	5010
770.5323	5226
772.9483	5241
775.3656	5256
777.7822	5150
780.1963	5202
782.6116	5148
785.0244	5128
787.4365	5156
789.8499	5175
792.2626	5230
794.6728	5170
797.0823	5177
799.4911	5135
801.8994	5221
804.3109	5176
806.7178	5203
809.124	5298
811.5297	5312
813.9347	5229
816.341	5270
818.7447	5350
821.1478	5344
823.5502	5226
825.952	5287
828.3531	5297
830.7556	5202
833.1554	5336
835.5546	5330
837.9532	5285
840.3511	5213
842.7504	5373
845.1451	5323
847.5411	5431
849.9365	5324
852.3312	5332
854.7272	5447
857.1187	5336
859.5115	5357
861.9037	5322
864.2952	5292
866.6842	5439
869.0764	5445
871.4661	5332
873.8531	5281
876.2415	5360
878.6272	5364
881.0162	5335
883.4026	5403
885.7866	5264
888.1717	5269
890.5543	5320
892.9382	5258
895.3215	5403
897.7041	5328
900.0842	5273
902.4655	5305
904.8443	5311
907.2244	5225
909.6039	5393
911.9808	5421
914.357	5464
916.7346	5501
919.1115	5485
921.4859	5562
923.8616	5670
926.2347	5538
928.6071	5539
930.979	5537
933.3541	5660
935.7247	5651
938.0946	5605
940.4639	5610
942.8326	5741
945.2026	5783
947.5701	5839
949.9369	5860
952.305	5904
954.6705	6016
957.0355	6282
959.4017	6457
961.7654	6454
964.1284	6369
966.4908	6396
968.8527	6220
971.2138	5934
973.5743	5859
975.9343	5728
978.2936	5678
980.6522	5542
983.0122	5579
985.3696	5379
987.7245	5456
990.0807	5489
992.4362	5511
994.7911	5580
997.1474	5465
999.4991	5621
1001.852	5573
1004.205	5499
1006.555	5548
1008.908	5500
1011.258	5559
1013.606	5519
1015.956	5512
1018.302	5629
1020.652	5572
1022.998	5585
1025.345	5650
1027.691	5539
1030.035	5573
1032.378	5557
1034.724	5661
1037.066	5585
1039.409	5678
1041.75	5605
1044.092	5576
1046.433	5641
1048.771	5568
1051.112	5688
1053.449	5701
1055.786	5634
1058.124	5566
1060.462	5623
1062.797	5737
1065.131	5662
1067.467	5708
1069.8	5714
1072.135	5783
1074.467	5714
1076.798	5700
1079.129	5680
1081.459	5732
1083.792	5677
1086.121	5680
1088.449	5607
1090.777	5712
1093.104	5569
1095.431	5647
1097.759	5739
1100.084	5602
1102.408	5607
1104.732	5670
1107.056	5660
1109.379	5675
1111.701	5753
1114.022	5745
1116.343	5698
1118.664	5679
1120.983	5633
1123.303	5701
1125.621	5598
1127.939	5820
1130.256	5774
1132.573	5654
1134.889	5667
1137.205	5562
1139.52	5693
1141.832	5642
1144.146	5649
1146.461	5753
1148.771	5662
1151.083	5710
1153.392	5710
1155.703	5676
1158.011	5773
1160.323	5634
1162.629	5684
1164.938	5683
1167.243	5626
1169.55	5753
1171.857	5581
1174.163	5714
1176.466	5708
1178.769	5661
1181.073	5594
1183.374	5694
1185.677	5668
1187.979	5621
1190.279	5721
1192.578	5662
1194.878	5619
1197.178	5783
1199.476	5561
1201.772	5785
1204.068	5739
1206.366	5699
1208.663	5720
1210.957	5752
1213.251	5746
1215.544	5689
1217.836	5812
1220.128	5746
1222.421	5810
1224.712	5836
1227.002	5754
1229.292	5740
1231.581	5866
1233.871	5736
1236.159	5861
1238.446	5932
1240.732	5904
1243.018	5867
1245.304	5907
1247.59	5913
1249.874	6029
1252.156	5849
1254.439	5976
1256.721	5881
1259.005	5874
1261.286	5908
1263.565	5993
1265.845	5869
1268.125	5876
1270.403	5884
1272.682	5890
1274.959	5972
1277.234	5892
1279.511	5879
1281.787	5812
1284.062	5844
1286.337	5928
1288.609	5857
1290.882	5831
1293.153	5829
1295.428	5831
1297.698	5810
1299.969	5878
1302.237	5750
1304.507	5815
1306.777	5804
1309.044	5819
1311.312	5781
1313.578	5704
1315.844	5802
1318.109	5913
1320.375	5803
1322.638	5731
1324.903	5799
1327.165	5833
1329.427	5882
1331.69	5841
1333.952	5812
1336.212	5822
1338.471	5738
1340.73	5882
1342.988	5815
1345.248	5775
1347.505	5841
1349.763	5795
1352.019	5879
1354.274	5810
1356.53	5809
1358.784	5690
1361.038	5892
1363.291	5871
1365.543	5703
1367.797	5797
1370.048	5773
1372.296	5782
1374.546	5866
1376.796	5769
1379.045	5801
1381.295	5862
1383.542	5833
1385.787	5952
1388.034	5885
1390.28	5861
1392.527	5862
1394.772	5964
1397.014	5876
1399.258	5817
1401.501	5910
1403.741	5791
1405.985	5961
1408.226	5901
1410.465	5948
1412.705	5940
1414.943	5921
1417.184	5947
1419.42	5881
1421.658	6046
1423.894	5956
1426.13	6027
1428.366	5889
1430.602	6043
1432.835	6032
1435.069	6087
1437.301	6040
1439.535	6047
1441.767	6058
1443.997	6070
1446.229	6118
1448.458	6126
1450.687	6113
1452.916	6062
1455.146	6175
1457.372	6106
1459.599	6070
1461.824	6055
1464.051	6153
1466.277	6179
1468.501	6088
1470.725	6102
1472.948	5974
1475.17	6023
1477.393	5958
1479.614	5927
1481.837	5961
1484.057	5931
1486.276	5806
1488.497	5768
1490.715	5808
1492.932	5881
1495.148	5726
1497.364	5845
1499.58	5767
1501.798	5904
1504.012	5742
1506.227	5879
1508.44	5816
1510.653	5820
1512.866	5830
1515.078	5823
1517.289	5747
1519.5	5871
1521.711	5802
1523.92	5857
1526.13	5849
1528.338	5757
1530.544	5788
1532.752	5843
1534.959	5815
1537.165	5841
1539.371	5808
1541.574	5835
1543.779	5787
1545.983	5781
1548.187	5811
1550.39	5866
1552.59	5910
1554.792	5775
1556.991	5918
1559.19	5876
1561.392	5827
1563.59	5767
1565.789	5942
1567.986	5913
1570.182	5978
1572.381	5896
1574.576	5963
1576.771	5919
1578.966	5950
1581.16	6067
1583.354	5941
1585.546	5905
1587.74	5816
1589.931	5981
1592.121	6023
1594.311	5973
1596.502	5990
1598.693	5960
1600.881	6072
1603.069	5899
1605.256	5932
1607.445	5976
1609.631	6033
1611.816	6011
1614.001	6069
1616.186	5937
1618.37	6110
1620.555	6023
1622.737	6011
1624.919	6079
1627.101	5914
1629.282	6035
1631.463	5955
1633.643	6000
1635.822	6038
1638.001	6028
1640.179	6014
1642.359	6118
1644.534	5972
1646.711	6163
1648.887	6099
1651.062	6172
1653.235	6050
1655.412	6111
1657.586	6166
1659.757	6150
1661.93	6057
1664.1	6078
1666.274	6089
1668.445	6115
1670.614	6100
1672.784	6028
1674.951	6097
1677.12	6232
1679.289	6157
1681.457	6092
1683.622	6133
1685.789	6092
1687.953	6076
1690.121	6052
1692.284	6028
1694.447	5980
1696.611	6007
1698.772	5962
1700.935	5925
1703.098	6029
1705.258	6030
1707.417	6028
1709.576	5953
1711.736	5979
1713.896	5892
1716.053	5976
1718.21	5946
1720.366	5977
1722.522	5882
1724.68	5940
1726.835	5879
1728.989	6055
1731.142	6006
1733.295	6004
1735.449	5884
1737.601	5875
1739.753	5905
1741.903	5880
1744.054	5900
1746.203	5882
1748.354	5933
1750.503	5928
1752.651	5932
1754.798	6002
1756.944	5967
1759.092	5935
1761.238	5976
1763.383	5989
1765.528	5914
1767.672	6003
1769.814	5984
1771.959	5894
1774.102	6066
1776.242	6066
1778.384	6060
1780.525	6029
1782.665	5979
1784.805	6003
1786.945	6035
1789.082	5992
1791.22	6025
1793.36	5942
1795.495	5956
1797.632	5993
1799.766	6093
1801.902	5968
1804.035	5938
1806.172	5979
1808.304	6029
1810.436	5995
1812.569	5929
1814.699	6097
1816.833	5952
1818.963	6021
1821.092	5973
1823.222	5928
1825.35	6063
1827.478	5947
1829.608	6007
1831.734	6022
1833.86	5949
1835.986	5993
1838.11	5978
1840.238	5951
1842.362	6052
1844.485	5900
1846.608	5947
1848.73	5845
1850.853	5927
1852.974	5975
1855.097	5895
1857.217	5927
1859.336	5954
1861.455	5839
1863.576	5864
1865.693	5921
1867.811	5908
1869.926	5927
1872.042	5981
1874.16	5829
1876.275	5922
1878.39	5937
1880.504	5948
1882.618	5914
1884.731	5844
1886.843	5990
1888.956	5903
1891.067	5856
1893.178	5950
1895.287	5860
1897.399	5957
1899.508	5874
1901.617	5995
1903.724	5907
1905.832	6009
1907.941	5945
1910.046	5927
1912.152	5961
1914.256	6043
1916.361	5964
1918.464	6076
1920.57	5965
1922.672	6029
1924.775	5857
1926.876	5924
1928.978	6007
1931.08	5935
1933.181	5944
1935.28	6049
1937.38	6052
1939.478	6001
1941.577	6066
1943.675	5972
1945.771	6034
1947.867	6064
1949.964	6054
1952.058	5928
1954.154	6013
1956.248	5880
1958.343	6142
1960.435	6036
1962.527	6072
1964.62	5913
1966.711	6028
1968.802	6028
1970.892	5870
1972.983	5929
1975.072	5961
1977.162	6011
1979.25	5960
1981.337	6000
1983.424	5941
1985.51	5975
1987.598	6039
1989.683	5976
1991.768	6020
1993.852	5958
1995.934	6004
1998.019	5985
2000.102	5883
2002.184	5987
2004.266	5962
2006.347	5894
2008.427	5955
2010.508	5894
2012.587	5895
2014.666	5935
2016.745	5956
2018.821	5936
2020.9	5854
2022.977	5899
2025.052	6007
2027.128	5893
2029.204	5851
2031.277	5929
2033.353	5947
2035.425	5959
2037.499	5911
2039.57	5948
2041.642	5934
2043.714	5931
2045.786	5951
2047.855	5928
2049.925	5918
2051.993	6010
2054.064	5922
2056.132	5917
2058.2	5864
2060.266	5961
2062.332	5953
2064.398	5897
2066.465	5937
2068.529	5881
2070.592	6068
2072.657	5850
2074.719	5964
2076.783	5959
2078.845	5955
2080.907	5896
2082.968	6016
2085.028	5927
2087.087	6033
2089.148	5932
2091.207	5870
2093.264	5964
2095.322	5866
2097.379	5996
2099.439	5940
2101.495	5936
2103.55	6013
2105.605	5930
2107.658	5819
2109.713	5912
2111.767	5877
2113.82	5858
2115.872	5962
2117.924	5935
2119.975	5900
2122.028	5830
2124.078	5842
2126.126	5865
2128.176	5838
2130.225	5899
2132.275	6008
2134.321	5957
2136.368	5810
2138.415	5972
2140.461	5890
2142.505	5945
2144.552	5763
2146.597	5788
2148.64	5939
2150.684	5917
2152.725	5895
2154.77	5862
2156.811	5838
2158.852	5864
2160.894	5863
2162.933	5839
2164.973	5885
2167.013	5800
2169.051	5786
2171.089	5795
2173.126	5787
2175.164	5876
2177.201	5728
2179.236	5768
2181.273	5829
2183.307	5793
2185.341	5808
2187.377	5741
2189.41	5822
2191.442	5805
2193.473	5807
2195.506	5797
2197.539	5753
2199.569	5860
2201.598	5726
2203.628	5788
2205.656	5841
2207.686	5700
2209.716	5768
2211.743	5724
2213.769	5692
2215.796	5669
2217.821	5702
2219.848	5775
2221.873	5770
2223.897	5736
2225.921	5807
2227.944	5704
2229.967	5656
2231.991	5650
2234.011	5705
2236.032	5770
2238.053	5630
2240.073	5817
2242.094	5656
2244.114	5674
2246.131	5663
2248.149	5698
2250.167	5757
2252.186	5728
2254.201	5734
2256.218	5723
2258.233	5729
2260.247	5790
2262.262	5704
2264.278	5696
2266.29	5692
2268.303	5745
2270.315	5776
2272.327	5620
2274.341	5743
2276.35	5830
2278.361	5626
2280.37	5732
2282.38	5757
2284.388	5723
2286.397	5688
2288.405	5684
2290.412	5868
2292.419	5657
2294.425	5686
2296.431	5699
2298.437	5772
2300.441	5678
2302.445	5747
2304.449	5647
2306.453	5648
2308.455	5735
2310.457	5675
2312.459	5655
2314.46	5729
2316.46	5737
2318.461	5664
2320.46	5692
2322.458	5678
2324.458	5550
2326.456	5563
2328.455	5623
2330.451	5494
2332.447	5667
2334.443	5652
2336.438	5596
2338.433	5557
2340.429	5643
2342.422	5749
2344.416	5533
2346.408	5642
2348.399	5526
2350.393	5698
2352.384	5609
2354.375	5743
2356.365	5555
2358.355	5530
2360.344	5599
2362.333	5588
2364.322	5507
2366.309	5531
2368.295	5578
2370.282	5552
2372.27	5539
2374.256	5461
2376.24	5644
2378.225	5554
2380.208	5555
2382.194	5462
2384.177	5490
2386.159	5553
2388.142	5587
2390.122	5577
2392.105	5493
2394.085	5424
2396.066	5568
2398.044	5507
2400.024	5596
2402.002	5528
2403.982	5479
2405.959	5470
2407.935	5544
2409.913	5519
2411.888	5495
2413.865	5458
2415.84	5458
2417.814	5566
2419.788	5486
2421.762	5451
2423.735	5481
2425.708	5554
2427.68	5514
2429.651	5577
2431.623	5375
2433.593	5423
2435.564	5532
2437.533	5396
2439.502	5498
2441.47	5489
2443.438	5561
2445.406	5499
2447.373	5450
2449.34	5420
2451.305	5377
2453.271	5501
2455.235	5484
2457.201	5468
2459.165	5406
2461.129	5505
2463.092	5470
2465.054	5410
2467.018	5475
2468.978	5477
2470.939	5383
2472.899	5359
2474.86	5451
2476.819	5419
2478.778	5422
2480.737	5411
2482.695	5384
2484.653	5415
2486.609	5384
2488.567	5409
2490.524	5402
2492.478	5447
2494.433	5411
2496.387	5344
2498.343	5363
2500.297	5438
2502.249	5346
2504.202	5347
2506.153	5330
2508.105	5277
2510.057	5458
2512.008	5341
2513.957	5311
2515.906	5367
2517.855	5404
2519.805	5337
2521.754	5333
2523.7	5366
2525.647	5330
2527.594	5266
2529.54	5299
2531.486	5468
2533.431	5380
2535.376	5389
2537.32	5272
2539.263	5336
2541.207	5360
2543.151	5316
2545.093	5316
2547.034	5327
2548.975	5286
2550.917	5374
2552.856	5355
2554.796	5433
2556.735	5338
2558.673	5334
2560.611	5354
2562.55	5282
2564.487	5362
2566.424	5312
2568.36	5352
2570.296	5344
2572.232	5340
2574.167	5342
2576.101	5243
2578.035	5338
2579.969	5316
2581.902	5249
2583.834	5391
2585.766	5292
2587.698	5358
2589.628	5411
2591.557	5344
2593.489	5335
2595.419	5345
2597.348	5408
2599.275	5464
2601.204	5272
2603.131	5371
2605.059	5361
2606.986	5369
2608.911	5233
2610.837	5369
2612.76	5213
2614.687	5365
2616.61	5256
2618.534	5346
2620.457	5340
2622.38	5326
2624.302	5287
2626.225	5299
2628.145	5320
2630.067	5405
2631.986	5276
2633.906	5300
2635.827	5329
2637.745	5354
2639.662	5359
2641.581	5359
2643.498	5358
2645.415	5430
2647.331	5392
2649.248	5346
2651.163	5341
2653.077	5305
2654.993	5277
2656.906	5269
2658.821	5383
2660.733	5383
2662.646	5231
2664.557	5231
2666.47	5353
2668.381	5326
2670.291	5261
2672.201	5325
2674.11	5313
2676.021	5293
2677.929	5288
2679.837	5346
2681.745	5210
2683.652	5238
2685.56	5268
2687.466	5345
2689.371	5279
2691.276	5239
2693.181	5219
2695.085	5282
2696.991	5274
2698.893	5216
2700.796	5238
2702.698	5265
2704.601	5225
2706.502	5244
2708.404	5124
2710.304	5280
2712.203	5168
2714.103	5139
2716.003	5224
2717.902	5241
2719.8	5194
2721.697	5133
2723.594	5202
2725.49	5195
2727.389	5187
2729.283	5139
2731.179	5227
2733.073	5090
2734.968	5210
2736.863	5131
2738.757	5191
2740.649	5207
2742.541	5296
2744.433	5188
2746.324	5144
2748.216	5194
2750.107	5178
2751.997	5307
2753.886	5090
2755.776	5088
2757.666	5245
2759.553	5204
2761.44	5145
2763.327	5099
2765.215	5210
2767.102	5087
2768.988	5103
2770.873	5106
2772.757	5056
2774.641	5135
2776.525	5154
2778.41	5128
2780.292	5173
2782.175	5212
2784.057	5115
2785.938	5145
2787.821	5232
2789.701	5131
2791.581	5122
2793.461	5121
2795.34	5159
2797.219	5083
2799.099	5146
2800.975	5078
2802.853	5226
2804.73	5029
2806.606	5082
2808.484	5134
2810.358	5021
2812.233	5138
2814.108	5034
2815.981	5137
2817.857	5025
2819.73	5122
2821.602	5084
2823.474	5052
2825.346	5159
2827.217	5082
2829.089	5024
2830.959	4904
2832.829	5048
2834.698	5074
2836.567	5094
2838.436	5126
2840.305	5057
2842.172	5122
2844.04	5040
2845.905	5125
2847.772	5092
2849.639	5101
2851.503	5107
2853.369	5202
2855.232	5093
2857.096	5206
2858.961	5107
2860.824	5203
2862.686	5153
2864.547	5208
2866.41	5241
2868.272	5209
2870.132	5246
2871.992	5302
2873.851	5374
2875.711	5426
2877.57	5330
2879.429	5397
2881.287	5491
2883.144	5435
2885.001	5496
2886.857	5483
2888.714	5451
2890.57	5497
2892.425	5422
2894.279	5486
2896.133	5504
2897.987	5444
2899.842	5555
2901.694	5420
2903.547	5434
2905.397	5542
2907.249	5487
2909.101	5540
2910.952	5532
2912.802	5558
2914.652	5572
2916.5	5451
2918.35	5667
2920.198	5513
2922.045	5762
2923.893	5790
2925.74	5797
2927.585	5803
2929.433	5802
2931.279	5713
2933.123	5976
2934.968	5876
2936.811	5953
2938.656	6084
2940.5	5900
2942.342	6135
2944.185	6116
2946.026	6141
2947.87	6086
2949.71	6107
2951.549	6038
2953.39	5952
2955.229	6000
2957.069	5951
2958.908	5960
2960.746	5835
2962.584	5961
2964.421	5856
2966.257	5714
2968.094	5661
2969.931	5602
2971.766	5540
2973.601	5539
2975.435	5543
2977.27	5578
2979.105	5521
2980.938	5473
2982.77	5502
2984.602	5501
2986.434	5414
2988.267	5475
2990.097	5415
2991.927	5444
2993.757	5315
2995.587	5314
2997.417	5282
2999.246	5307
3001.074	5239
3002.902	5151
3004.729	5001
3006.556	5075
3008.384	5109
3010.21	5016
3012.036	4990
3013.861	4933
3015.684	5040
3017.51	4878
3019.334	4881
3021.157	4841
3022.981	4824
3024.802	4787
3026.624	4894
3028.448	4760
3030.267	4784
3032.088	4795
3033.909	4854
3035.728	4787
3037.549	4724
3039.368	4698
3041.186	4682
3043.004	4751
3044.821	4736
3046.64	4685
3048.455	4700
3050.272	4807
3052.087	4770
3053.903	4726
3055.717	4643
3057.534	4771
3059.347	4790
3061.16	4771
3062.974	4755
3064.785	4737
3066.598	4730
3068.411	4731
3070.222	4709
3072.032	4690
3073.844	4699
3075.653	4705
3077.463	4633
3079.272	4608
3081.08	4679
3082.889	4590
3084.697	4578
3086.505	4682
3088.312	4650
3090.118	4674
3091.924	4629
3093.729	4543
3095.535	4575
3097.34	4583
3099.144	4583
3100.947	4553
3102.75	4666
3104.553	4659
3106.357	4531
3108.159	4557
3109.961	4546
3111.762	4611
3113.562	4507
3115.365	4497
3117.164	4521
3118.964	4469
3120.761	4496
3122.56	4463
3124.36	4513
3126.158	4510
3127.954	4542
3129.75	4453
3131.547	4484
3133.343	4498
3135.139	4478
3136.934	4485
3138.729	4462
3140.522	4320
3142.317	4531
3144.11	4519
3145.904	4474
3147.695	4437
3149.488	4543
3151.28	4494
3153.07	4467
3154.863	4472
3156.652	4447
3158.441	4438
3160.231	4485
3162.019	4360
3163.81	4486
3165.597	4436
3167.384	4421
3169.172	4424
3170.958	4331
3172.745	4444
3174.532	4434
3176.317	4375
3178.101	4383
3179.885	4533
3181.67	4361
3183.455	4411
3185.238	4376
3187.02	4414
3188.802	4336
3190.585	4327
3192.368	4361
3194.149	4520
3195.929	4380
3197.709	4331
3199.489	4426
3201.268	4364
3203.048	4378
3204.826	4390
3206.604	4347
3208.382	4401
3210.159	4310
3211.937	4347
3213.713	4348
3215.489	4354
3217.263	4376
3219.038	4386
3220.815	4366
3222.589	4293
3224.363	4384
3226.136	4234
3227.908	4355
3229.681	4325
3231.454	4366
3233.226	4315
3234.996	4322
3236.767	4315
3238.538	4406
3240.308	4343
3242.078	4322
3243.847	4316
3245.615	4379
3247.384	4346
3249.15	4454
3250.92	4330
3252.686	4327
3254.453	4342
3256.218	4356
3257.984	4364
3259.75	4393
3261.515	4325
3263.279	4397
3265.044	4236
3266.806	4322
3268.57	4320
3270.334	4320
3272.095	4348
3273.856	4328
3275.619	4334
3277.379	4275
3279.14	4357
3280.9	4407
3282.661	4239
3284.419	4317
3286.178	4352
3287.937	4241
3289.695	4329
3291.453	4388
3293.21	4345
3294.967	4285
3296.723	4331
3298.48	4381
3300.235	4359
3301.99	4388
3303.744	4263
3305.498	4329
3307.253	4347
3309.006	4399
3310.759	4372
3312.511	4332
3314.263	4375
3316.017	4346
3317.768	4344
3319.519	4338
3321.268	4264
3323.018	4305
3324.767	4292
3326.518	4414
3328.267	4316
3330.014	4267
3331.762	4272
3333.509	4302
3335.258	4327
3337.003	4193
3338.75	4363
3340.496	4296
3342.24	4378
3343.987	4278
3345.732	4324
3347.475	4298
3349.219	4263
3350.961	4278
3352.705	4350
3354.448	4235
3356.19	4188
3357.931	4302
3359.672	4218
3361.412	4256
3363.155	4226
3364.894	4195
3366.633	4151
3368.372	4166
3370.11	4095
3371.849	4147
3373.588	4180
3375.325	4228
3377.061	4118
3378.799	4241
3380.534	4083
3382.271	4190
3384.006	4225
3385.741	4086
3387.475	4133
3389.209	4172
3390.944	4117
3392.677	4107
3394.409	4158
3396.143	4178
3397.874	4167
3399.606	4172
3401.338	4181
3403.069	4124
3404.799	4129
3406.528	4225
3408.258	4111
3409.988	4136
3411.717	4097
3413.445	4120
3415.173	4106
3416.899	4061
3418.626	4147
3420.354	4089
3422.08	4135
3423.806	4113
3425.531	4028
3427.255	4097
3428.981	4086
3430.705	4125
3432.429	4100
3434.151	4047
3435.875	4023
3437.599	4058
3439.321	4038
3441.042	4105
3442.763	4142
3444.483	4014
3446.204	4023
3447.926	4069
3449.645	3961
3451.364	4008
3453.082	4050
3454.801	3963
3456.52	4041
3458.238	3898
3459.954	4007
3461.671	4026
3463.387	3969
3465.104	4031
3466.82	4019
3468.534	3945
3470.25	3912
3471.963	3997
3473.676	3919
3475.392	3991
3477.104	3901
3478.817	3967
3480.528	3914
3482.241	3929
3483.954	3875
3485.664	4017
3487.374	3824
3489.084	3926
3490.795	3882
3492.504	3913
3494.214	3815
3495.922	3850
3497.63	3845
3499.338	3854
3501.045	3868
3502.753	3856
3504.459	3887
3506.166	3854
3507.871	3899
3509.576	3836
3511.283	3854
3512.987	3847
3514.691	3831
3516.395	3909
3518.098	3738
3519.8	3806
3521.504	3708
3523.206	3780
3524.908	3833
3526.609	3733
3528.309	3841
3530.011	3786
3531.711	3827
3533.411	3828
3535.109	3800
3536.808	3835
3538.507	3848
3540.206	3740
3541.904	3720
3543.601	3779
3545.297	3692
3546.994	3740
3548.69	3749
3550.387	3726
3552.081	3785
3553.776	3712
3555.47	3812
3557.166	3766
3558.859	3760
3560.553	3747
3562.245	3687
3563.938	3803
3565.629	3707
3567.322	3701
3569.014	3656
3570.704	3700
3572.394	3729
3574.084	3698
3575.775	3573
3577.464	3802
3579.152	3666
3580.842	3644
3582.529	3698
3584.216	3643
3585.905	3636
3587.591	3687
3589.279	3630
3590.964	3674
3592.649	3630
3594.336	3643
3596.021	3640
3597.705	3651
3599.388	3571
3601.072	3584
3602.757	3625
3604.439	3577
3606.122	3539
3607.803	3589
3609.485	3551
3611.167	3588
3612.849	3566
3614.529	3568
3616.208	3520
3617.888	3616
3619.567	3503
3621.247	3600
3622.926	3584
3624.603	3567
3626.281	3512
3627.958	3483
3629.635	3506
3631.312	3524
3632.989	3592
3634.665	3452
3636.339	3479
3638.014	3438
3639.691	3522
3641.364	3498
3643.038	3470
3644.71	3466
3646.384	3509
3648.058	3528
3649.729	3444
3651.402	3442
3653.073	3439
3654.744	3510
3656.414	3504
3658.085	3475
3659.755	3484
3661.424	3357
3663.094	3477
3664.762	3499
3666.431	3430
3668.099	3502
3669.766	3405
3671.433	3414
3673.099	3422
3674.768	3396
3676.433	3392
3678.098	3393
3679.763	3430
3681.428	3434
3683.093	3384
3684.757	3425
3686.421	3368
3688.083	3289
3689.746	3326
3691.408	3391
3693.071	3349
3694.733	3366
3696.394	3413
3698.054	3372
3699.715	3383
3701.375	3410
3703.036	3411
3704.695	3371
3706.354	3347
3708.012	3319
3709.67	3383
3711.329	3298
3712.987	3330
3714.644	3359
3716.299	3351
3717.955	3285
3719.613	3348
3721.268	3351
3722.923	3297
3724.577	3325
3726.231	3307
3727.885	3323
3729.539	3280
3731.192	3297
3732.845	3306
3734.497	3334
3736.149	3327
3737.802	3242
3739.453	3265
3741.104	3304
3742.753	3267
3744.404	3302
3746.052	3315
3747.704	3156
3749.352	3266
3751	3259
3752.648	3194
3754.296	3181
3755.944	3273
3757.59	3304
3759.238	3251
3760.883	3273
3762.528	3267
3764.176	3242
3765.82	3307
3767.464	3199
3769.109	3199
3770.753	3245
3772.396	3230
3774.04	3238
3775.683	3225
3777.325	3184
3778.967	3160
3780.608	3266
3782.25	3236
3783.89	3190
3785.531	3167
3787.17	3188
3788.81	3188
3790.45	3224
3792.09	3225
3793.729	3224
3795.366	3155
3797.003	3202
3798.64	3178
3800.278	3214
3801.915	3192
3803.551	3182
3805.187	3140
3806.822	3137
3808.458	3163
3810.093	3084
3811.726	3124
3813.36	3115
3814.994	3155
3816.627	3121
3818.262	3087
3819.893	3093
3821.525	3144
3823.157	3213
3824.787	3161
3826.42	3087
3828.051	3104
3829.68	3077
3831.31	3067
3832.938	3211
3834.569	3114
3836.198	3063
3837.825	3141
3839.454	3063
3841.08	3137
3842.708	3074
3844.335	3050
3845.962	3127
3847.587	3057
3849.212	3040
3850.838	3099
3852.463	3033
3854.089	3091
3855.712	3119
3857.335	3126
3858.959	2997
3860.582	2941
3862.205	3068
3863.827	3016
3865.449	2979
3867.07	3110
3868.691	3032
3870.312	3007
3871.933	3039
3873.553	3012
3875.173	3074
3876.792	3014
3878.411	3090
3880.03	2935
3881.647	3039
3883.265	2972
3884.882	3079
3886.499	2994
3888.116	3005
3889.732	3018
3891.348	3061
3892.964	3019
3894.579	3013
3896.195	2960
3897.809	2993
3899.423	2974
3901.036	3029
3902.648	3005
3904.261	2984
3905.875	3023
3907.487	2973
3909.099	2936
3910.709	2936
3912.321	3001
3913.933	2866
3915.542	2941
3917.152	2929
3918.762	2939
3920.37	2922
3921.98	2960
3923.589	2910
3925.196	2956
3926.804	2925
3928.41	2917
3930.018	2987
3931.626	3012
3933.231	2961
3934.838	3040
3936.442	2975
3938.046	2931
3939.653	2939
3941.257	2896
3942.861	2957
3944.464	2966
3946.068	2957
3947.67	2876
3949.273	2955
3950.876	2976
3952.477	2908
3954.078	2932
3955.678	2985
3957.281	2997
3958.881	2847
3960.48	2955
3962.079	2914
3963.678	2898
3965.279	2961
3966.877	2871
3968.475	2839
3970.072	2842
3971.669	2933
3973.266	2906
3974.864	2890
3976.459	2850
3978.055	2863
3979.65	2839
3981.245	2777
3982.841	2858
3984.436	2804
3986.03	2829
3987.623	2885
3989.216	2816
3990.809	2789
3992.403	2794
3993.995	2852
3995.586	2865
3997.177	2813
3998.768	2805
4000.361	2801
4001.951	2792
4003.54	2826
4005.13	2840
4006.719	2759
4008.31	2772
4009.897	2802
4011.485	2787
4013.073	2680
4014.66	2783
4016.247	2799
4017.834	2781
4019.421	2748
4021.006	2757
4022.592	2723
4024.178	2724
4025.763	2776
4027.348	2777
4028.932	2757
4030.515	2777
4032.099	2795
4033.682	2702
4035.266	2814
4036.847	2759
4038.429	2751
4040.011	2719
4041.592	2679
4043.173	2729
4044.755	2724
4046.334	2735
4047.913	2743
4049.494	2726
4051.074	2665
4052.652	2713
4054.23	2744
4055.807	2740
4057.385	2659
4058.963	2621
4060.541	2726
4062.117	2648
4063.693	2701
4065.269	2660
4066.844	2699
4068.42	2698
4069.995	2655
4071.569	2644
4073.143	2658
4074.716	2693
4076.291	2665
4077.864	2648
4079.436	2626
4081.009	2681
4082.58	2617
4084.152	2667
4085.723	2674
4087.294	2630
4088.865	2681
4090.435	2632
4092.005	2622
4093.574	2724
4095.143	2628
4096.712	2646
4098.279	2725
4099.848	2679
4101.416	2669
4102.984	2659
4104.55	2692
4106.117	2645
4107.682	2555
4109.248	2557
4110.815	2603
4112.379	2552
4113.945	2649
4115.508	2599
4117.073	2613
4118.637	2691
4120.201	2552
4121.763	2556
4123.325	2645
4124.888	2538
4126.449	2599
4128.013	2611
4129.573	2608
4131.133	2509
4132.694	2559
4134.254	2529
4135.814	2594
4137.374	2551
4138.933	2592
4140.491	2495
4142.049	2576
4143.607	2596
4145.167	2579
4146.724	2517
4148.28	2524
4149.836	2536
4151.392	2490
4152.949	2540
4154.504	2567
4156.059	2555
4157.614	2505
4159.168	2483
4160.723	2525
4162.277	2578
4163.83	2491
4165.383	2503
4166.936	2483
4168.488	2439
4170.041	2512
4171.593	2458
4173.144	2568
4174.695	2420
4176.246	2499
4177.796	2535
4179.346	2509
4180.896	2457
4182.445	2510
4183.994	2489
4185.542	2457
4187.091	2444
4188.639	2457
4190.185	2445
4191.732	2414
4193.279	2413
4194.826	2513
4196.373	2464
4197.918	2451
4199.463	2410
4201.008	2401
4202.553	2437
4204.098	2457
4205.641	2431
4207.185	2468
4208.728	2405
4210.271	2391
4211.814	2447
4213.357	2463
4214.898	2450
4216.439	2373
4217.98	2464
4219.522	2441
4221.062	2349
4222.603	2423
4224.142	2395
4225.681	2437
4227.222	2402
4228.76	2395
4230.298	2438
4231.835	2389
4233.373	2384
4234.911	2412
4236.449	2349
4237.985	2421
4239.521	2396
4241.057	2452
4242.592	2445
4244.128	2404
4245.663	2355
4247.197	2405
4248.731	2361
4250.265	2366
4251.798	2394
4253.333	2315
4254.865	2368
4256.397	2351
4257.93	2360
4259.461	2425
4260.994	2287
4262.525	2365
4264.056	2412
4265.586	2320
4267.115	2320
4268.646	2347
4270.176	2396
4271.705	2364
4273.232	2327
4274.761	2340
4276.289	2287
4277.818	2320
4279.345	2345
4280.872	2345
4282.399	2368
4283.924	2309
4285.452	2344
4286.976	2383
4288.502	2288
4290.026	2342
4291.551	2328
4293.074	2291
4294.6	2275
4296.123	2277
4297.646	2249
4299.168	2251
4300.691	2287
4302.214	2263
4303.736	2315
4305.257	2307
4306.778	2332
4308.299	2256
4309.82	2281
4311.34	2252
4312.86	2247
4314.379	2281
