400.0745	4415
402.597	4358
405.1208	4359
407.6419	4352
410.1623	4328
412.6819	4450
415.201	4432
417.7172	4477
420.2369	4408
422.7538	4494
425.2701	4647
427.7856	4623
430.3005	4543
432.8147	4562
435.3282	4691
437.841	4517
440.3511	4637
442.8625	4551
445.3753	4687
447.8854	4683
450.3927	4668
452.9014	4730
455.4073	4689
457.9146	4675
460.4233	4637
462.9272	4700
465.4325	4704
467.935	4625
470.4389	4700
472.9421	4704
475.4446	4703
477.9444	4716
480.4456	4740
482.944	4790
485.4417	4731
487.9429	4701
490.4393	4728
492.935	4915
495.4321	4780
497.9264	4761
500.4221	4815
502.9171	4871
505.4094	4760
507.9011	4924
510.392	4901
512.8864	4882
515.3759	4869
517.8649	4940
520.3531	4924
522.8406	4898
525.3275	4808
527.8178	4867
530.3033	4918
532.7881	4992
535.2723	4922
537.7558	4903
540.2407	4896
542.7228	4947
545.2043	4851
547.6851	4871
550.1652	4861
552.6467	5027
555.1255	4905
557.6016	4874
560.079	4965
562.5557	5012
565.0318	4940
567.5092	5036
569.984	5035
572.456	5039
574.9294	5066
577.4022	5046
579.8762	4974
582.3456	5093
584.8163	5041
587.2863	5037
589.7557	5066
592.2224	5020
594.6924	5110
597.1578	5051
599.6245	5025
602.0905	5034
604.5538	5071
607.0206	4997
609.4825	5077
611.9459	4984
614.4066	5127
616.8686	5064
619.33	5147
621.7906	5111
624.2487	5072
626.708	5125
629.1647	5118
631.6207	5056
634.0801	5127
636.5348	5081
638.9888	5104
641.4442	5091
643.8969	5042
646.3509	5184
648.8022	5156
651.255	5102
653.705	5118
656.1544	5141
658.6031	5088
661.0532	5296
663.5026	5204
665.9493	5207
668.3954	5180
670.8409	5247
673.2877	5250
675.7318	5259
678.1752	5315
680.618	5258
683.0601	5308
685.5035	5311
687.9444	5319
690.3845	5273
692.824	5291
695.2628	5341
697.701	5199
700.1406	5364
702.5774	5285
705.0116	5275
707.4472	5444
709.8821	5387
712.3183	5446
714.7519	5314
717.1829	5396
719.6151	5506
722.0468	5410
724.4777	5377
726.908	5419
729.3377	5511
731.7667	5468
734.1931	5446
736.6208	5535
739.0498	5559
741.4742	5499
743.9	5571
746.3231	5513
748.7476	5587
751.1713	5616
753.5945	5534
756.015	5652
758.4368	5701
760.856	5711
763.2766	5548
765.6965	5702
768.1157	5534
770.5323	5619
772.9483	5737
775.3656	5593
777.7822	5651
780.1963	5621
782.6116	5762
785.0244	5630
787.4365	5639
789.8499	5665
792.2626	5611
794.6728	5737
797.0823	5678
799.4911	5771
801.8994	5621
804.3109	5663
806.7178	5747
809.124	5630
811.5297	5825
813.9347	5742
816.341	5704
818.7447	5720
821.1478	5760
823.5502	5747
825.952	5751
828.3531	5676
830.7556	5720
833.1554	5841
835.5546	5815
837.9532	5766
840.3511	5869
842.7504	5925
845.1451	5855
847.5411	5688
849.9365	5799
852.3312	5892
854.7272	5911
857.1187	5870
859.5115	5990
861.9037	5876
864.2952	5920
866.6842	5789
869.0764	5927
871.4661	5815
873.8531	5824
876.2415	5863
878.6272	5878
881.0162	5893
883.4026	5906
885.7866	5828
888.1717	5788
890.5543	5762
892.9382	5968
895.3215	5842
897.7041	5831
900.0842	5773
902.4655	5847
904.8443	5825
907.2244	5885
909.6039	5840
911.9808	5901
914.357	5928
916.7346	6005
919.1115	6103
921.4859	6105
923.8616	6119
926.2347	6094
928.6071	6065
930.979	6066
933.3541	6105
935.7247	6162
938.0946	6071
940.4639	6215
942.8326	6116
945.2026	6092
947.5701	6173
949.9369	6174
952.305	6320
954.6705	6314
957.0355	6424
959.4017	6491
961.7654	6518
964.1284	6650
966.4908	6539
968.8527	6418
971.2138	6255
973.5743	6277
975.9343	6252
978.2936	6108
980.6522	6071
983.0122	6112
985.3696	6053
987.7245	6022
990.0807	6173
992.4362	5989
994.7911	6100
997.1474	6014
999.4991	6029
1001.852	6015
1004.205	6154
1006.555	6024
1008.908	6069
1011.258	6107
1013.606	5979
1015.956	6117
1018.302	6007
1020.652	6062
1022.998	6026
1025.345	6111
1027.691	6113
1030.035	6206
1032.378	6169
1034.724	6246
1037.066	6106
1039.409	6087
1041.75	6032
1044.092	6124
1046.433	6146
1048.771	6175
1051.112	6236
1053.449	6061
1055.786	6099
1058.124	6160
1060.462	6203
1062.797	6312
1065.131	6144
1067.467	6229
1069.8	6177
1072.135	6219
1074.467	6166
1076.798	6215
1079.129	6177
1081.459	6112
1083.792	6239
1086.121	6249
1088.449	6189
1090.777	6158
1093.104	6211
1095.431	6211
1097.759	6281
1100.084	6373
1102.408	6229
1104.732	6203
1107.056	6189
1109.379	6235
1111.701	6271
1114.022	6232
1116.343	6190
1118.664	6241
1120.983	6153
1123.303	6239
1125.621	6193
1127.939	6325
1130.256	6289
1132.573	6255
1134.889	6335
1137.205	6270
1139.52	6275
1141.832	6227
1144.146	6131
1146.461	6179
1148.771	6411
1151.083	6208
1153.392	6328
1155.703	6267
1158.011	6232
1160.323	6319
1162.629	6269
1164.938	6167
1167.243	6325
1169.55	6220
1171.857	6164
1174.163	6201
1176.466	6176
1178.769	6262
1181.073	6229
1183.374	6240
1185.677	6293
1187.979	6215
1190.279	6278
1192.578	6223
1194.878	6147
1197.178	6226
1199.476	6317
1201.772	6354
1204.068	6287
1206.366	6265
1208.663	6275
1210.957	6372
1213.251	6280
1215.544	6179
1217.836	6386
1220.128	6274
1222.421	6286
1224.712	6244
1227.002	6354
1229.292	6192
1231.581	6434
1233.871	6385
1236.159	6339
1238.446	6347
1240.732	6419
1243.018	6585
1245.304	6483
1247.59	6501
1249.874	6629
1252.156	6606
1254.439	6503
1256.721	6518
1259.005	6372
1261.286	6562
1263.565	6540
1265.845	6549
1268.125	6565
1270.403	6597
1272.682	6457
1274.959	6454
1277.234	6474
1279.511	6570
1281.787	6537
1284.062	6448
1286.337	6547
1288.609	6393
1290.882	6444
1293.153	6411
1295.428	6346
1297.698	6391
1299.969	6431
1302.237	6322
1304.507	6373
1306.777	6471
1309.044	6485
1311.312	6354
1313.578	6475
1315.844	6414
1318.109	6386
1320.375	6352
1322.638	6385
1324.903	6429
1327.165	6414
1329.427	6475
1331.69	6403
1333.952	6400
1336.212	6473
1338.471	6433
1340.73	6438
1342.988	6479
1345.248	6299
1347.505	6440
1349.763	6418
1352.019	6431
1354.274	6524
1356.53	6504
1358.784	6583
1361.038	6367
1363.291	6470
1365.543	6343
1367.797	6413
1370.048	6288
1372.296	6480
1374.546	6563
1376.796	6322
1379.045	6365
1381.295	6365
1383.542	6453
1385.787	6384
1388.034	6494
1390.28	6471
1392.527	6491
1394.772	6447
1397.014	6515
1399.258	6588
1401.501	6425
1403.741	6677
1405.985	6609
1408.226	6588
1410.465	6541
1412.705	6648
1414.943	6608
1417.184	6560
1419.42	6613
1421.658	6684
1423.894	6583
1426.13	6640
1428.366	6566
1430.602	6548
1432.835	6709
1435.069	6613
1437.301	6590
1439.535	6757
1441.767	6766
1443.997	6684
1446.229	6672
1448.458	6734
1450.687	6769
1452.916	6793
1455.146	6723
1457.372	6742
1459.599	6755
1461.824	6820
1464.051	6824
1466.277	6683
1468.501	6794
1470.725	6636
1472.948	6733
1475.17	6597
1477.393	6582
1479.614	6516
1481.837	6509
1484.057	6566
1486.276	6487
1488.497	6455
1490.715	6428
1492.932	6344
1495.148	6414
1497.364	6354
1499.58	6485
1501.798	6435
1504.012	6508
1506.227	6481
1508.44	6415
1510.653	6394
1512.866	6362
1515.078	6373
1517.289	6334
1519.5	6432
1521.711	6413
1523.92	6503
1526.13	6380
1528.338	6312
1530.544	6407
1532.752	6420
1534.959	6439
1537.165	6436
1539.371	6469
1541.574	6388
1543.779	6482
1545.983	6402
1548.187	6347
1550.39	6330
1552.59	6515
1554.792	6452
1556.991	6420
1559.19	6526
1561.392	6489
1563.59	6532
1565.789	6467
1567.986	6510
1570.182	6430
1572.381	6579
1574.576	6612
1576.771	6511
1578.966	6585
1581.16	6540
1583.354	6624
1585.546	6675
1587.74	6599
1589.931	6526
1592.121	6562
1594.311	6588
1596.502	6641
1598.693	6587
1600.881	6651
1603.069	6559
1605.256	6670
1607.445	6687
1609.631	6613
1611.816	6547
1614.001	6687
1616.186	6630
1618.37	6645
1620.555	6645
1622.737	6636
1624.919	6597
1627.101	6527
1629.282	6618
1631.463	6542
1633.643	6691
1635.822	6694
1638.001	6588
1640.179	6574
1642.359	6735
1644.534	6698
1646.711	6781
1648.887	6684
1651.062	6633
1653.235	6654
1655.412	6628
1657.586	6591
1659.757	6610
1661.93	6610
1664.1	6717
1666.274	6624
1668.445	6773
1670.614	6701
1672.784	6696
1674.951	6763
1677.12	6731
1679.289	6797
1681.457	6670
1683.622	6783
1685.789	6773
1687.953	6695
1690.121	6655
1692.284	6668
1694.447	6734
1696.611	6535
1698.772	6637
1700.935	6610
1703.098	6557
1705.258	6532
1707.417	6689
1709.576	6644
1711.736	6532
1713.896	6560
1716.053	6583
1718.21	6513
1720.366	6517
1722.522	6545
1724.68	6695
1726.835	6523
1728.989	6578
1731.142	6452
1733.295	6478
1735.449	6487
1737.601	6549
1739.753	6452
1741.903	6613
1744.054	6556
1746.203	6568
1748.354	6517
1750.503	6622
1752.651	6495
1754.798	6555
1756.944	6596
1759.092	6500
1761.238	6529
1763.383	6556
1765.528	6491
1767.672	6555
1769.814	6553
1771.959	6560
1774.102	6522
1776.242	6629
1778.384	6675
1780.525	6589
1782.665	6557
1784.805	6537
1786.945	6592
1789.082	6537
1791.22	6694
1793.36	6520
1795.495	6705
1797.632	6554
1799.766	6692
1801.902	6737
1804.035	6580
1806.172	6518
1808.304	6643
1810.436	6619
1812.569	6569
1814.699	6662
1816.833	6595
1818.963	6620
1821.092	6534
1823.222	6544
1825.35	6530
1827.478	6600
1829.608	6628
1831.734	6484
1833.86	6611
1835.986	6659
1838.11	6431
1840.238	6482
1842.362	6423
1844.485	6553
1846.608	6578
1848.73	6470
1850.853	6428
1852.974	6576
1855.097	6504
1857.217	6480
1859.336	6565
1861.455	6514
1863.576	6670
1865.693	6480
1867.811	6504
1869.926	6552
1872.042	6453
1874.16	6382
1876.275	6416
1878.39	6436
1880.504	6482
1882.618	6455
1884.731	6474
1886.843	6552
1888.956	6438
1891.067	6567
1893.178	6466
1895.287	6609
1897.399	6523
1899.508	6626
1901.617	6475
1903.724	6547
1905.832	6563
1907.941	6631
1910.046	6556
1912.152	6626
1914.256	6536
1916.361	6594
1918.464	6586
1920.57	6525
1922.672	6568
1924.775	6637
1926.876	6546
1928.978	6663
1931.08	6633
1933.181	6565
1935.28	6642
1937.38	6526
1939.478	6683
1941.577	6634
1943.675	6503
1945.771	6526
1947.867	6569
1949.964	6611
1952.058	6663
1954.154	6502
1956.248	6546
1958.343	6610
1960.435	6701
1962.527	6705
1964.62	6628
1966.711	6506
1968.802	6638
1970.892	6662
1972.983	6581
1975.072	6350
1977.162	6592
1979.25	6609
1981.337	6539
1983.424	6576
1985.51	6655
1987.598	6634
1989.683	6607
1991.768	6556
1993.852	6608
1995.934	6597
1998.019	6418
2000.102	6541
2002.184	6570
2004.266	6488
2006.347	6491
2008.427	6586
2010.508	6426
2012.587	6604
2014.666	6557
2016.745	6493
2018.821	6595
2020.9	6514
2022.977	6472
2025.052	6482
2027.128	6554
2029.204	6608
2031.277	6509
2033.353	6459
2035.425	6600
2037.499	6509
2039.57	6462
2041.642	6496
2043.714	6572
2045.786	6568
2047.855	6503
2049.925	6493
2051.993	6455
2054.064	6554
2056.132	6387
2058.2	6550
2060.266	6504
2062.332	6608
2064.398	6502
2066.465	6422
2068.529	6553
2070.592	6601
2072.657	6485
2074.719	6524
2076.783	6571
2078.845	6465
2080.907	6529
2082.968	6392
2085.028	6635
2087.087	6445
2089.148	6575
2091.207	6618
2093.264	6427
2095.322	6500
2097.379	6469
2099.439	6571
2101.495	6506
2103.55	6624
2105.605	6619
2107.658	6588
2109.713	6493
2111.767	6497
2113.82	6585
2115.872	6485
2117.924	6479
2119.975	6527
2122.028	6533
2124.078	6420
2126.126	6534
2128.176	6620
2130.225	6549
2132.275	6464
2134.321	6647
2136.368	6385
2138.415	6485
2140.461	6515
2142.505	6521
2144.552	6465
2146.597	6451
2148.64	6576
2150.684	6413
2152.725	6540
2154.77	6548
2156.811	6516
2158.852	6466
2160.894	6499
2162.933	6492
2164.973	6383
2167.013	6456
2169.051	6495
2171.089	6357
2173.126	6427
2175.164	6361
2177.201	6431
2179.236	6438
2181.273	6454
2183.307	6376
2185.341	6371
2187.377	6294
2189.41	6392
2191.442	6382
2193.473	6374
2195.506	6398
2197.539	6347
2199.569	6393
2201.598	6476
2203.628	6403
2205.656	6411
2207.686	6286
2209.716	6361
2211.743	6360
2213.769	6346
2215.796	6375
2217.821	6317
2219.848	6360
2221.873	6341
2223.897	6345
2225.921	6380
2227.944	6271
2229.967	6310
2231.991	6263
2234.011	6231
2236.032	6338
2238.053	6249
2240.073	6286
2242.094	6359
2244.114	6219
2246.131	6256
2248.149	6206
2250.167	6338
2252.186	6192
2254.201	6244
2256.218	6265
2258.233	6253
2260.247	6281
2262.262	6350
2264.278	6253
2266.29	6397
2268.303	6326
2270.315	6292
2272.327	6314
2274.341	6360
2276.35	6362
2278.361	6299
2280.37	6219
2282.38	6268
2284.388	6201
2286.397	6342
2288.405	6259
2290.412	6324
2292.419	6324
2294.425	6321
2296.431	6294
2298.437	6255
2300.441	6383
2302.445	6289
2304.449	6221
2306.453	6270
2308.455	6334
2310.457	6307
2312.459	6320
2314.46	6183
2316.46	6348
2318.461	6305
2320.46	6243
2322.458	6292
2324.458	6198
2326.456	6141
2328.455	6237
2330.451	6315
2332.447	6205
2334.443	6261
2336.438	6259
2338.433	6088
2340.429	6181
2342.422	6145
2344.416	6184
2346.408	6237
2348.399	6160
2350.393	6182
2352.384	6220
2354.375	5997
2356.365	6145
2358.355	6034
2360.344	6147
2362.333	6228
2364.322	6059
2366.309	6059
2368.295	6097
2370.282	6193
2372.27	6103
2374.256	6161
2376.24	6113
2378.225	6096
2380.208	6053
2382.194	6148
2384.177	6119
2386.159	6071
2388.142	6181
2390.122	6059
2392.105	6151
2394.085	6133
2396.066	6062
2398.044	6167
2400.024	6129
2402.002	6164
2403.982	6094
2405.959	6048
2407.935	6141
2409.913	5982
2411.888	6018
2413.865	6038
2415.84	6018
2417.814	5955
2419.788	6008
2421.762	6058
2423.735	6052
2425.708	6028
2427.68	6030
2429.651	6033
2431.623	6100
2433.593	5921
2435.564	6072
2437.533	5966
2439.502	6118
2441.47	6102
2443.438	6009
2445.406	6020
2447.373	6003
2449.34	6075
2451.305	5917
2453.271	6043
2455.235	5998
2457.201	5988
2459.165	5987
2461.129	5902
2463.092	6004
2465.054	6032
2467.018	6027
2468.978	6033
2470.939	5857
2472.899	6074
2474.86	5991
2476.819	6020
2478.778	5985
2480.737	6133
2482.695	5931
2484.653	6006
2486.609	5876
2488.567	6035
2490.524	5954
2492.478	5755
2494.433	6022
2496.387	5992
2498.343	5893
2500.297	5853
2502.249	5936
2504.202	5811
2506.153	5999
2508.105	5957
2510.057	5869
2512.008	5928
2513.957	6035
2515.906	5800
2517.855	5940
2519.805	5898
2521.754	5954
2523.7	5878
2525.647	5886
2527.594	5899
2529.54	5837
2531.486	5869
2533.431	5835
2535.376	5897
2537.32	5733
2539.263	5816
2541.207	5893
2543.151	5882
2545.093	5900
2547.034	5897
2548.975	5791
2550.917	5949
2552.856	5832
2554.796	5803
2556.735	5800
2558.673	5867
2560.611	5863
2562.55	5921
2564.487	5959
2566.424	5830
2568.36	5991
2570.296	5829
2572.232	5886
2574.167	5818
2576.101	5940
2578.035	5884
2579.969	5844
2581.902	5883
2583.834	5873
2585.766	5789
2587.698	5806
2589.628	5893
2591.557	5852
2593.489	5895
2595.419	5953
2597.348	5822
2599.275	5947
2601.204	5961
2603.131	5849
2605.059	5937
2606.986	5826
2608.911	6005
2610.837	5868
2612.76	5894
2614.687	5872
2616.61	5880
2618.534	5918
2620.457	5927
2622.38	5910
2624.302	5917
2626.225	5808
2628.145	6008
2630.067	5878
2631.986	5913
2633.906	5802
2635.827	5979
2637.745	5994
2639.662	5914
2641.581	5803
2643.498	5816
2645.415	5890
2647.331	5853
2649.248	5892
2651.163	5929
2653.077	5900
2654.993	5747
2656.906	5888
2658.821	5950
2660.733	5811
2662.646	5902
2664.557	5865
2666.47	5844
2668.381	5865
2670.291	5823
2672.201	5825
2674.11	5873
2676.021	5860
2677.929	5853
2679.837	5848
2681.745	5837
2683.652	5877
2685.56	5780
2687.466	5836
2689.371	5698
2691.276	5791
2693.181	5803
2695.085	5766
2696.991	5824
2698.893	5773
2700.796	5922
2702.698	5792
2704.601	5710
2706.502	5816
2708.404	5689
2710.304	5843
2712.203	5889
2714.103	5764
2716.003	5736
2717.902	5764
2719.8	5721
2721.697	5687
2723.594	5695
2725.49	5725
2727.389	5800
2729.283	5707
2731.179	5685
2733.073	5753
2734.968	5829
2736.863	5763
2738.757	5723
2740.649	5676
2742.541	5754
2744.433	5786
2746.324	5707
2748.216	5781
2750.107	5707
2751.997	5674
2753.886	5643
2755.776	5757
2757.666	5738
2759.553	5701
2761.44	5670
2763.327	5628
2765.215	5629
2767.102	5696
2768.988	5693
2770.873	5675
2772.757	5611
2774.641	5577
2776.525	5681
2778.41	5617
2780.292	5653
2782.175	5701
2784.057	5699
2785.938	5626
2787.821	5682
2789.701	5677
2791.581	5671
2793.461	5617
2795.34	5540
2797.219	5554
2799.099	5695
2800.975	5465
2802.853	5659
2804.73	5585
2806.606	5621
2808.484	5608
2810.358	5547
2812.233	5617
2814.108	5588
2815.981	5617
2817.857	5468
2819.73	5619
2821.602	5623
2823.474	5539
2825.346	5688
2827.217	5560
2829.089	5582
2830.959	5628
2832.829	5640
2834.698	5580
2836.567	5687
2838.436	5535
2840.305	5651
2842.172	5743
2844.04	5522
2845.905	5702
2847.772	5656
2849.639	5609
2851.503	5786
2853.369	5559
2855.232	5666
2857.096	5700
2858.961	5676
2860.824	5800
2862.686	5754
2864.547	5808
2866.41	5806
2868.272	5678
2870.132	5895
2871.992	5851
2873.851	5905
2875.711	5780
2877.57	5961
2879.429	5879
2881.287	5968
2883.144	6041
2885.001	6099
2886.857	5989
2888.714	6063
2890.57	6002
2892.425	6084
2894.279	5963
2896.133	6093
2897.987	6093
2899.842	6093
2901.694	6063
2903.547	5898
2905.397	6152
2907.249	6030
2909.101	6055
2910.952	6063
2912.802	6012
2914.652	6134
2916.5	6060
2918.35	6105
2920.198	6134
2922.045	6280
2923.893	6263
2925.74	6345
2927.585	6348
2929.433	6376
2931.279	6442
2933.123	6519
2934.968	6482
2936.811	6631
2938.656	6502
2940.5	6578
2942.342	6625
2944.185	6687
2946.026	6693
2947.87	6822
2949.71	6570
2951.549	6665
2953.39	6711
2955.229	6567
2957.069	6396
2958.908	6482
2960.746	6490
2962.584	6580
2964.421	6409
2966.257	6343
2968.094	6383
2969.931	6270
2971.766	6259
2973.601	6084
2975.435	6159
2977.27	6140
2979.105	6079
2980.938	6133
2982.77	5940
2984.602	6021
2986.434	6090
2988.267	5920
2990.097	6039
2991.927	5890
2993.757	5895
2995.587	5926
2997.417	5836
2999.246	5790
3001.074	5667
3002.902	5690
3004.729	5640
3006.556	5532
3008.384	5657
3010.21	5596
3012.036	5441
3013.861	5511
3015.684	5435
3017.51	5425
3019.334	5405
3021.157	5470
3022.981	5339
3024.802	5307
3026.624	5282
3028.448	5325
3030.267	5408
3032.088	5269
3033.909	5282
3035.728	5282
3037.549	5274
3039.368	5277
3041.186	5253
3043.004	5292
3044.821	5180
3046.64	5245
3048.455	5284
3050.272	5124
3052.087	5217
3053.903	5237
3055.717	5202
3057.534	5243
3059.347	5275
3061.16	5093
3062.974	5210
3064.785	5261
3066.598	5246
3068.411	5194
3070.222	5154
3072.032	5098
3073.844	5061
3075.653	5192
3077.463	5210
3079.272	5193
3081.08	5166
3082.889	5146
3084.697	5052
3086.505	5073
3088.312	5085
3090.118	5103
3091.924	5156
3093.729	5093
3095.535	5054
3097.34	5103
3099.144	5034
3100.947	5009
3102.75	5020
3104.553	5147
3106.357	5028
3108.159	4977
3109.961	5106
3111.762	4932
3113.562	4978
3115.365	4913
3117.164	4961
3118.964	5000
3120.761	4863
3122.56	4980
3124.36	4992
3126.158	4975
3127.954	4975
3129.75	4967
3131.547	4947
3133.343	4951
3135.139	4985
3136.934	4890
3138.729	4974
3140.522	4886
3142.317	5009
3144.11	4940
3145.904	4931
3147.695	4958
3149.488	4912
3151.28	4900
3153.07	4825
3154.863	4935
3156.652	4864
3158.441	4882
3160.231	4767
3162.019	4867
3163.81	4893
3165.597	4876
3167.384	4793
3169.172	4816
3170.958	4772
3172.745	4887
3174.532	4756
3176.317	4827
3178.101	4850
3179.885	4853
3181.67	4890
3183.455	4837
3185.238	4881
3187.02	4799
3188.802	4835
3190.585	4885
3192.368	4810
3194.149	4833
3195.929	4795
3197.709	4779
3199.489	4894
3201.268	4825
3203.048	4771
3204.826	4785
3206.604	4928
3208.382	4884
3210.159	4880
3211.937	4869
3213.713	4849
3215.489	4794
3217.263	4777
3219.038	4864
3220.815	4759
3222.589	4704
3224.363	4753
3226.136	4826
3227.908	4728
3229.681	4772
3231.454	4698
3233.226	4725
3234.996	4762
3236.767	4785
3238.538	4741
3240.308	4785
3242.078	4715
3243.847	4787
3245.615	4708
3247.384	4756
3249.15	4635
3250.92	4647
3252.686	4790
3254.453	4751
3256.218	4775
3257.984	4753
3259.75	4722
3261.515	4813
3263.279	4788
3265.044	4773
3266.806	4726
3268.57	4757
3270.334	4738
3272.095	4730
3273.856	4702
3275.619	4823
3277.379	4794
3279.14	4764
3280.9	4756
3282.661	4703
3284.419	4821
3286.178	4736
3287.937	4733
3289.695	4696
3291.453	4766
3293.21	4781
3294.967	4651
3296.723	4745
3298.48	4665
3300.235	4689
3301.99	4824
3303.744	4775
3305.498	4687
3307.253	4707
3309.006	4819
3310.759	4689
3312.511	4865
3314.263	4677
3316.017	4751
3317.768	4739
3319.519	4719
3321.268	4675
3323.018	4702
3324.767	4733
3326.518	4724
3328.267	4683
3330.014	4716
3331.762	4697
3333.509	4771
3335.258	4725
3337.003	4629
3338.75	4697
3340.496	4741
3342.24	4603
3343.987	4735
3345.732	4677
3347.475	4651
3349.219	4749
3350.961	4735
3352.705	4636
3354.448	4684
3356.19	4592
3357.931	4675
3359.672	4688
3361.412	4715
3363.155	4578
3364.894	4735
3366.633	4648
3368.372	4629
3370.11	4596
3371.849	4555
3373.588	4681
3375.325	4621
3377.061	4549
3378.799	4551
3380.534	4544
3382.271	4652
3384.006	4635
3385.741	4605
3387.475	4541
3389.209	4571
3390.944	4567
3392.677	4499
3394.409	4538
3396.143	4575
3397.874	4608
3399.606	4553
3401.338	4528
3403.069	4515
3404.799	4529
3406.528	4642
3408.258	4480
3409.988	4516
3411.717	4596
3413.445	4501
3415.173	4437
3416.899	4462
3418.626	4439
3420.354	4473
3422.08	4526
3423.806	4526
3425.531	4572
3427.255	4473
3428.981	4451
3430.705	4359
3432.429	4438
3434.151	4436
3435.875	4476
3437.599	4493
3439.321	4511
3441.042	4532
3442.763	4389
3444.483	4424
3446.204	4381
3447.926	4286
3449.645	4395
3451.364	4440
3453.082	4358
3454.801	4479
3456.52	4420
3458.238	4344
3459.954	4347
3461.671	4263
3463.387	4290
3465.104	4306
3466.82	4261
3468.534	4304
3470.25	4286
3471.963	4295
3473.676	4292
3475.392	4296
3477.104	4318
3478.817	4320
3480.528	4346
3482.241	4246
3483.954	4318
3485.664	4251
3487.374	4139
3489.084	4278
3490.795	4290
3492.504	4245
3494.214	4222
3495.922	4238
3497.63	4305
3499.338	4288
3501.045	4250
3502.753	4246
3504.459	4216
3506.166	4201
3507.871	4217
3509.576	4212
3511.283	4240
3512.987	4195
3514.691	4184
3516.395	4169
3518.098	4166
3519.8	4163
3521.504	4151
3523.206	4164
3524.908	4207
3526.609	4158
3528.309	4228
3530.011	4183
3531.711	4205
3533.411	4128
3535.109	4155
3536.808	4128
3538.507	4190
3540.206	4145
3541.904	4143
3543.601	4121
3545.297	4194
3546.994	4088
3548.69	4177
3550.387	4170
3552.081	4094
3553.776	4026
3555.47	4141
3557.166	4109
3558.859	4134
3560.553	4071
3562.245	4087
3563.938	4097
3565.629	4098
3567.322	4015
3569.014	4012
3570.704	4095
3572.394	4077
3574.084	4019
3575.775	4054
3577.464	4014
3579.152	4102
3580.842	4129
3582.529	4070
3584.216	4029
3585.905	4036
3587.591	3980
3589.279	4005
3590.964	4033
3592.649	3992
3594.336	4054
3596.021	3989
3597.705	4016
3599.388	3972
3601.072	3941
3602.757	3966
3604.439	3897
3606.122	3938
3607.803	4036
3609.485	3982
3611.167	3951
3612.849	3953
3614.529	3836
3616.208	3968
3617.888	3939
3619.567	3901
3621.247	3928
3622.926	3857
3624.603	3953
3626.281	3894
3627.958	3859
3629.635	3851
3631.312	3889
3632.989	3920
3634.665	3891
3636.339	3844
3638.014	3818
3639.691	3777
3641.364	3796
3643.038	3817
3644.71	3772
3646.384	3878
3648.058	3875
3649.729	3750
3651.402	3875
3653.073	3772
3654.744	3848
3656.414	3789
3658.085	3805
3659.755	3816
3661.424	3754
3663.094	3743
3664.762	3738
3666.431	3774
3668.099	3819
3669.766	3849
3671.433	3799
3673.099	3736
3674.768	3715
3676.433	3791
3678.098	3845
3679.763	3853
3681.428	3805
3683.093	3758
3684.757	3691
3686.421	3741
3688.083	3717
3689.746	3754
3691.408	3833
3693.071	3674
3694.733	3747
3696.394	3791
3698.054	3694
3699.715	3745
3701.375	3659
3703.036	3758
3704.695	3680
3706.354	3695
3708.012	3803
3709.67	3699
3711.329	3716
3712.987	3742
3714.644	3743
3716.299	3673
3717.955	3707
3719.613	3678
3721.268	3644
3722.923	3742
3724.577	3644
3726.231	3793
3727.885	3667
3729.539	3663
3731.192	3694
3732.845	3651
3734.497	3683
3736.149	3696
3737.802	3708
3739.453	3685
3741.104	3653
3742.753	3683
3744.404	3702
3746.052	3751
3747.704	3635
3749.352	3631
3751	3626
3752.648	3672
3754.296	3632
3755.944	3664
3757.59	3559
3759.238	3631
3760.883	3600
3762.528	3622
3764.176	3600
3765.82	3599
3767.464	3619
3769.109	3569
3770.753	3677
3772.396	3570
3774.04	3595
3775.683	3547
3777.325	3626
3778.967	3609
3780.608	3536
3782.25	3596
3783.89	3540
3785.531	3601
3787.17	3571
3788.81	3551
3790.45	3586
3792.09	3570
3793.729	3520
3795.366	3592
3797.003	3477
3798.64	3471
3800.278	3476
3801.915	3445
3803.551	3506
3805.187	3469
3806.822	3584
3808.458	3539
3810.093	3460
3811.726	3551
3813.36	3482
3814.994	3477
3816.627	3562
3818.262	3580
3819.893	3400
3821.525	3366
3823.157	3459
3824.787	3432
3826.42	3530
3828.051	3460
3829.68	3539
3831.31	3471
3832.938	3388
3834.569	3439
3836.198	3491
3837.825	3414
3839.454	3451
3841.08	3440
3842.708	3533
3844.335	3531
3845.962	3410
3847.587	3409
3849.212	3419
3850.838	3409
3852.463	3410
3854.089	3469
3855.712	3482
3857.335	3366
3858.959	3413
3860.582	3385
3862.205	3347
3863.827	3418
3865.449	3383
3867.07	3350
3868.691	3422
3870.312	3349
3871.933	3352
3873.553	3362
3875.173	3410
3876.792	3353
3878.411	3292
3880.03	3359
3881.647	3397
3883.265	3382
3884.882	3331
3886.499	3334
3888.116	3459
3889.732	3297
3891.348	3421
3892.964	3353
3894.579	3318
3896.195	3383
3897.809	3307
3899.423	3348
3901.036	3351
3902.648	3335
3904.261	3371
3905.875	3407
3907.487	3299
3909.099	3316
3910.709	3337
3912.321	3323
3913.933	3350
3915.542	3300
3917.152	3323
3918.762	3321
3920.37	3275
3921.98	3377
3923.589	3306
3925.196	3262
3926.804	3383
3928.41	3322
3930.018	3283
3931.626	3276
3933.231	3290
3934.838	3258
3936.442	3361
3938.046	3288
3939.653	3238
3941.257	3334
3942.861	3314
3944.464	3269
3946.068	3289
3947.67	3247
3949.273	3243
3950.876	3191
3952.477	3208
3954.078	3268
3955.678	3223
3957.281	3209
3958.881	3226
3960.48	3219
3962.079	3219
3963.678	3171
3965.279	3236
3966.877	3199
3968.475	3244
3970.072	3260
3971.669	3176
3973.266	3183
3974.864	3239
3976.459	3215
3978.055	3207
3979.65	3223
3981.245	3117
3982.841	3136
3984.436	3157
3986.03	3144
3987.623	3143
3989.216	3156
3990.809	3145
3992.403	3180
3993.995	3122
3995.586	3195
3997.177	3199
3998.768	3147
4000.361	3198
4001.951	3189
4003.54	3109
4005.13	3094
4006.719	3189
4008.31	3158
4009.897	3143
4011.485	3099
4013.073	3111
4014.66	3100
4016.247	3145
4017.834	3038
4019.421	3082
4021.006	3118
4022.592	3072
4024.178	3107
4025.763	3042
4027.348	3106
4028.932	3068
4030.515	3039
4032.099	3031
4033.682	3089
4035.266	3027
4036.847	3126
4038.429	3131
4040.011	2981
4041.592	3022
4043.173	3113
4044.755	3060
4046.334	3048
4047.913	3012
4049.494	3066
4051.074	3111
4052.652	2995
4054.23	2978
4055.807	3024
4057.385	3024
4058.963	3000
4060.541	3064
4062.117	2998
4063.693	2997
4065.269	3007
4066.844	2956
4068.42	3062
4069.995	2995
4071.569	2939
4073.143	2999
4074.716	3011
4076.291	3034
4077.864	2963
4079.436	3015
4081.009	2936
4082.58	2941
4084.152	2973
4085.723	2959
4087.294	2865
4088.865	2961
4090.435	2961
4092.005	3017
4093.574	3020
4095.143	2995
4096.712	2994
4098.279	2960
4099.848	2967
4101.416	3028
4102.984	2925
4104.55	2901
4106.117	2976
4107.682	2970
4109.248	2836
4110.815	2925
4112.379	2951
4113.945	2923
4115.508	2834
4117.073	2895
4118.637	2907
4120.201	2911
4121.763	2884
4123.325	2928
4124.888	2906
4126.449	2904
4128.013	2885
4129.573	2902
4131.133	2915
4132.694	2898
4134.254	2861
4135.814	2821
4137.374	2880
4138.933	2890
4140.491	2824
4142.049	2812
4143.607	2849
4145.167	2774
4146.724	2869
4148.28	2848
4149.836	2821
4151.392	2797
4152.949	2859
4154.504	2778
4156.059	2859
4157.614	2863
4159.168	2826
4160.723	2862
4162.277	2750
4163.83	2815
4165.383	2831
4166.936	2800
4168.488	2878
4170.041	2804
4171.593	2798
4173.144	2769
4174.695	2789
4176.246	2789
4177.796	2789
4179.346	2784
4180.896	2743
4182.445	2795
4183.994	2821
4185.542	2782
4187.091	2777
4188.639	2769
4190.185	2819
4191.732	2712
4193.279	2712
4194.826	2706
4196.373	2771
4197.918	2769
4199.463	2785
4201.008	2734
4202.553	2691
4204.098	2733
4205.641	2731
4207.185	2715
4208.728	2745
4210.271	2746
4211.814	2701
4213.357	2671
4214.898	2721
4216.439	2611
4217.98	2658
4219.522	2690
4221.062	2664
4222.603	2702
4224.142	2692
4225.681	2657
4227.222	2706
4228.76	2705
4230.298	2661
4231.835	2691
4233.373	2664
4234.911	2665
4236.449	2692
4237.985	2683
4239.521	2652
4241.057	2676
4242.592	2646
4244.128	2676
4245.663	2580
4247.197	2680
4248.731	2645
4250.265	2640
4251.798	2736
4253.333	2705
4254.865	2635
4256.397	2644
4257.93	2647
4259.461	2649
4260.994	2622
4262.525	2653
4264.056	2653
4265.586	2688
4267.115	2700
4268.646	2605
4270.176	2558
4271.705	2619
4273.232	2658
4274.761	2651
4276.289	2639
4277.818	2634
4279.345	2568
4280.872	2605
4282.399	2614
4283.924	2595
4285.452	2604
4286.976	2538
4288.502	2606
4290.026	2620
4291.551	2622
4293.074	2617
4294.6	2608
4296.123	2586
4297.646	2509
4299.168	2549
4300.691	2587
4302.214	2567
4303.736	2549
4305.257	2618
4306.778	2505
4308.299	2573
4309.82	2596
4311.34	2562
4312.86	2550
4314.379	2588
