400.0745	4290
402.597	4361
405.1208	4357
407.6419	4359
410.1623	4420
412.6819	4331
415.201	4438
417.7172	4348
420.2369	4445
422.7538	4487
425.2701	4528
427.7856	4552
430.3005	4525
432.8147	4623
435.3282	4546
437.841	4604
440.3511	4641
442.8625	4760
445.3753	4692
447.8854	4572
450.3927	4601
452.9014	4642
455.4073	4618
457.9146	4691
460.4233	4695
462.9272	4682
465.4325	4702
467.935	4713
470.4389	4639
472.9421	4702
475.4446	4712
477.9444	4692
480.4456	4777
482.944	4703
485.4417	4706
487.9429	4850
490.4393	4830
492.935	4847
495.4321	4804
497.9264	4801
500.4221	4917
502.9171	4897
505.4094	4757
507.9011	4900
510.392	4799
512.8864	4822
515.3759	4963
517.8649	4821
520.3531	4924
522.8406	4925
525.3275	4946
527.8178	4869
530.3033	4923
532.7881	4918
535.2723	4898
537.7558	4917
540.2407	4942
542.7228	4942
545.2043	4966
547.6851	4963
550.1652	4931
552.6467	4827
555.1255	4929
557.6016	4959
560.079	4977
562.5557	4824
565.0318	4946
567.5092	5069
569.984	5027
572.456	4995
574.9294	4981
577.4022	5051
579.8762	5019
582.3456	5098
584.8163	5097
587.2863	5143
589.7557	5050
592.2224	5061
594.6924	5065
597.1578	5138
599.6245	5109
602.0905	5160
604.5538	5113
607.0206	5074
609.4825	5056
611.9459	5098
614.4066	5037
616.8686	5078
619.33	5077
621.7906	5163
624.2487	5028
626.708	5044
629.1647	5103
631.6207	5073
634.0801	5043
636.5348	5185
638.9888	4937
641.4442	5194
643.8969	5128
646.3509	5117
648.8022	5111
651.255	5288
653.705	5169
656.1544	5152
658.6031	5150
661.0532	5172
663.5026	5291
665.9493	5164
668.3954	5231
670.8409	5126
673.2877	5252
675.7318	5337
678.1752	5283
680.618	5247
683.0601	5231
685.5035	5357
687.9444	5296
690.3845	5306
692.824	5272
695.2628	5345
697.701	5345
700.1406	5185
702.5774	5358
705.0116	5328
707.4472	5411
709.8821	5333
712.3183	5374
714.7519	5436
717.1829	5366
719.6151	5409
722.0468	5449
724.4777	5503
726.908	5476
729.3377	5503
731.7667	5457
734.1931	5496
736.6208	5574
739.0498	5516
741.4742	5513
743.9	5493
746.3231	5489
748.7476	5537
751.1713	5683
753.5945	5557
756.015	5656
758.4368	5697
760.856	5621
763.2766	5707
765.6965	5689
768.1157	5606
770.5323	5633
772.9483	5655
775.3656	5631
777.7822	5640
780.1963	5715
782.6116	5715
785.0244	5616
787.4365	5609
789.8499	5716
792.2626	5662
794.6728	5564
797.0823	5622
799.4911	5709
801.8994	5637
804.3109	5695
806.7178	5720
809.124	5674
811.5297	5716
813.9347	5742
816.341	5780
818.7447	5762
821.1478	5751
823.5502	5820
825.952	5793
828.3531	5736
830.7556	5727
833.1554	5753
835.5546	5752
837.9532	5815
840.3511	5826
842.7504	5837
845.1451	5815
847.5411	5794
849.9365	5928
852.3312	5873
854.7272	5855
857.1187	5928
859.5115	5770
861.9037	5881
864.2952	5838
866.6842	5805
869.0764	5824
871.4661	5857
873.8531	5785
876.2415	5912
878.6272	5765
881.0162	5868
883.4026	5898
885.7866	5785
888.1717	5825
890.5543	5784
892.9382	5891
895.3215	5872
897.7041	5960
900.0842	5757
902.4655	5864
904.8443	5860
907.2244	5833
909.6039	5820
911.9808	5865
914.357	5987
916.7346	6024
919.1115	6023
921.4859	6010
923.8616	6028
926.2347	5995
928.6071	6139
930.979	6054
933.3541	6072
935.7247	6036
938.0946	6070
940.4639	6103
942.8326	6148
945.2026	6282
947.5701	6132
949.9369	6260
952.305	6386
954.6705	6486
957.0355	6615
959.4017	6655
961.7654	6766
964.1284	6744
966.4908	6648
968.8527	6542
971.2138	6596
973.5743	6374
975.9343	6081
978.2936	6150
980.6522	6065
983.0122	5979
985.3696	6048
987.7245	6020
990.0807	5918
992.4362	6056
994.7911	6047
997.1474	6070
999.4991	5972
1001.852	5969
1004.205	6009
1006.555	6149
1008.908	6060
1011.258	6112
1013.606	6113
1015.956	6136
1018.302	6089
1020.652	5978
1022.998	6016
1025.345	6133
1027.691	6077
1030.035	6172
1032.378	6008
1034.724	6078
1037.066	6105
1039.409	6123
1041.75	6071
1044.092	6152
1046.433	6143
1048.771	6102
1051.112	6184
1053.449	6104
1055.786	6198
1058.124	6099
1060.462	6192
1062.797	6206
1065.131	6236
1067.467	6282
1069.8	6119
1072.135	6230
1074.467	6223
1076.798	6157
1079.129	6055
1081.459	6266
1083.792	6314
1086.121	6184
1088.449	6272
1090.777	6147
1093.104	6064
1095.431	6357
1097.759	6152
1100.084	6215
1102.408	6193
1104.732	6144
1107.056	6218
1109.379	6242
1111.701	6154
1114.022	6214
1116.343	6300
1118.664	6238
1120.983	6271
1123.303	6322
1125.621	6316
1127.939	6227
1130.256	6333
1132.573	6271
1134.889	6172
1137.205	6244
1139.52	6221
1141.832	6356
1144.146	6223
1146.461	6218
1148.771	6261
1151.083	6231
1153.392	6250
1155.703	6187
1158.011	6177
1160.323	6268
1162.629	6282
1164.938	6285
1167.243	6208
1169.55	6214
1171.857	6220
1174.163	6410
1176.466	6214
1178.769	6209
1181.073	6307
1183.374	6191
1185.677	6346
1187.979	6249
1190.279	6205
1192.578	6199
1194.878	6300
1197.178	6147
1199.476	6292
1201.772	6333
1204.068	6323
1206.366	6228
1208.663	6188
1210.957	6251
1213.251	6187
1215.544	6397
1217.836	6237
1220.128	6283
1222.421	6146
1224.712	6276
1227.002	6324
1229.292	6388
1231.581	6376
1233.871	6294
1236.159	6483
1238.446	6386
1240.732	6381
1243.018	6284
1245.304	6506
1247.59	6374
1249.874	6495
1252.156	6556
1254.439	6376
1256.721	6632
1259.005	6425
1261.286	6467
1263.565	6442
1265.845	6489
1268.125	6446
1270.403	6468
1272.682	6437
1274.959	6460
1277.234	6406
1279.511	6441
1281.787	6443
1284.062	6508
1286.337	6350
1288.609	6499
1290.882	6409
1293.153	6397
1295.428	6457
1297.698	6366
1299.969	6310
1302.237	6333
1304.507	6396
1306.777	6411
1309.044	6284
1311.312	6450
1313.578	6355
1315.844	6335
1318.109	6419
1320.375	6349
1322.638	6207
1324.903	6408
1327.165	6435
1329.427	6466
1331.69	6289
1333.952	6361
1336.212	6307
1338.471	6398
1340.73	6404
1342.988	6303
1345.248	6426
1347.505	6353
1349.763	6419
1352.019	6377
1354.274	6358
1356.53	6474
1358.784	6419
1361.038	6437
1363.291	6422
1365.543	6363
1367.797	6359
1370.048	6407
1372.296	6377
1374.546	6447
1376.796	6423
1379.045	6353
1381.295	6482
1383.542	6397
1385.787	6434
1388.034	6464
1390.28	6348
1392.527	6424
1394.772	6491
1397.014	6493
1399.258	6413
1401.501	6547
1403.741	6528
1405.985	6599
1408.226	6556
1410.465	6445
1412.705	6476
1414.943	6577
1417.184	6411
1419.42	6623
1421.658	6528
1423.894	6528
1426.13	6553
1428.366	6651
1430.602	6534
1432.835	6691
1435.069	6490
1437.301	6555
1439.535	6529
1441.767	6591
1443.997	6544
1446.229	6622
1448.458	6638
1450.687	6613
1452.916	6665
1455.146	6683
1457.372	6640
1459.599	6669
1461.824	6574
1464.051	6681
1466.277	6644
1468.501	6628
1470.725	6655
1472.948	6552
1475.17	6611
1477.393	6631
1479.614	6402
1481.837	6500
1484.057	6543
1486.276	6476
1488.497	6494
1490.715	6464
1492.932	6484
1495.148	6416
1497.364	6513
1499.58	6428
1501.798	6426
1504.012	6350
1506.227	6430
1508.44	6376
1510.653	6449
1512.866	6339
1515.078	6352
1517.289	6379
1519.5	6441
1521.711	6402
1523.92	6402
1526.13	6377
1528.338	6394
1530.544	6355
1532.752	6440
1534.959	6408
1537.165	6358
1539.371	6410
1541.574	6401
1543.779	6449
1545.983	6454
1548.187	6412
1550.39	6603
1552.59	6448
1554.792	6461
1556.991	6477
1559.19	6600
1561.392	6534
1563.59	6434
1565.789	6483
1567.986	6487
1570.182	6500
1572.381	6457
1574.576	6564
1576.771	6553
1578.966	6643
1581.16	6522
1583.354	6517
1585.546	6582
1587.74	6563
1589.931	6548
1592.121	6541
1594.311	6649
1596.502	6485
1598.693	6586
1600.881	6490
1603.069	6642
1605.256	6537
1607.445	6589
1609.631	6588
1611.816	6672
1614.001	6554
1616.186	6605
1618.37	6630
1620.555	6664
1622.737	6583
1624.919	6668
1627.101	6656
1629.282	6720
1631.463	6650
1633.643	6587
1635.822	6671
1638.001	6571
1640.179	6636
1642.359	6727
1644.534	6651
1646.711	6712
1648.887	6601
1651.062	6707
1653.235	6689
1655.412	6574
1657.586	6727
1659.757	6763
1661.93	6604
1664.1	6684
1666.274	6701
1668.445	6598
1670.614	6640
1672.784	6620
1674.951	6649
1677.12	6634
1679.289	6751
1681.457	6584
1683.622	6693
1685.789	6674
1687.953	6629
1690.121	6614
1692.284	6637
1694.447	6645
1696.611	6554
1698.772	6710
1700.935	6569
1703.098	6696
1705.258	6581
1707.417	6563
1709.576	6568
1711.736	6594
1713.896	6528
1716.053	6627
1718.21	6505
1720.366	6535
1722.522	6530
1724.68	6597
1726.835	6536
1728.989	6572
1731.142	6485
1733.295	6569
1735.449	6628
1737.601	6640
1739.753	6650
1741.903	6532
1744.054	6730
1746.203	6506
1748.354	6508
1750.503	6491
1752.651	6660
1754.798	6533
1756.944	6655
1759.092	6543
1761.238	6563
1763.383	6572
1765.528	6572
1767.672	6591
1769.814	6547
1771.959	6665
1774.102	6630
1776.242	6695
1778.384	6689
1780.525	6611
1782.665	6556
1784.805	6599
1786.945	6583
1789.082	6642
1791.22	6748
1793.36	6593
1795.495	6724
1797.632	6679
1799.766	6616
1801.902	6700
1804.035	6689
1806.172	6565
1808.304	6721
1810.436	6561
1812.569	6665
1814.699	6660
1816.833	6652
1818.963	6673
1821.092	6556
1823.222	6714
1825.35	6640
1827.478	6596
1829.608	6620
1831.734	6622
1833.86	6653
1835.986	6575
1838.11	6548
1840.238	6621
1842.362	6633
1844.485	6593
1846.608	6510
1848.73	6499
1850.853	6518
1852.974	6522
1855.097	6416
1857.217	6548
1859.336	6761
1861.455	6555
1863.576	6550
1865.693	6536
1867.811	6557
1869.926	6567
1872.042	6512
1874.16	6519
1876.275	6595
1878.39	6625
1880.504	6595
1882.618	6595
1884.731	6489
1886.843	6526
1888.956	6685
1891.067	6494
1893.178	6563
1895.287	6493
1897.399	6601
1899.508	6578
1901.617	6507
1903.724	6603
1905.832	6575
1907.941	6630
1910.046	6700
1912.152	6506
1914.256	6686
1916.361	6764
1918.464	6652
1920.57	6628
1922.672	6632
1924.775	6658
1926.876	6633
1928.978	6624
1931.08	6711
1933.181	6633
1935.28	6785
1937.38	6634
1939.478	6679
1941.577	6847
1943.675	6661
1945.771	6583
1947.867	6528
1949.964	6670
1952.058	6774
1954.154	6611
1956.248	6625
1958.343	6674
1960.435	6721
1962.527	6631
1964.62	6669
1966.711	6682
1968.802	6710
1970.892	6603
1972.983	6537
1975.072	6643
1977.162	6615
1979.25	6629
1981.337	6672
1983.424	6647
1985.51	6584
1987.598	6471
1989.683	6647
1991.768	6612
1993.852	6550
1995.934	6678
1998.019	6634
2000.102	6498
2002.184	6536
2004.266	6559
2006.347	6575
2008.427	6520
2010.508	6471
2012.587	6510
2014.666	6531
2016.745	6549
2018.821	6427
2020.9	6638
2022.977	6654
2025.052	6507
2027.128	6579
2029.204	6410
2031.277	6584
2033.353	6633
2035.425	6431
2037.499	6609
2039.57	6668
2041.642	6581
2043.714	6560
2045.786	6550
2047.855	6632
2049.925	6602
2051.993	6557
2054.064	6569
2056.132	6517
2058.2	6580
2060.266	6531
2062.332	6542
2064.398	6617
2066.465	6498
2068.529	6438
2070.592	6561
2072.657	6549
2074.719	6584
2076.783	6576
2078.845	6481
2080.907	6571
2082.968	6455
2085.028	6631
2087.087	6586
2089.148	6557
2091.207	6555
2093.264	6506
2095.322	6614
2097.379	6574
2099.439	6586
2101.495	6578
2103.55	6524
2105.605	6575
2107.658	6597
2109.713	6480
2111.767	6552
2113.82	6574
2115.872	6603
2117.924	6525
2119.975	6449
2122.028	6483
2124.078	6575
2126.126	6517
2128.176	6557
2130.225	6576
2132.275	6502
2134.321	6600
2136.368	6439
2138.415	6517
2140.461	6467
2142.505	6495
2144.552	6517
2146.597	6377
2148.64	6532
2150.684	6516
2152.725	6470
2154.77	6457
2156.811	6566
2158.852	6474
2160.894	6540
2162.933	6413
2164.973	6411
2167.013	6553
2169.051	6446
2171.089	6482
2173.126	6527
2175.164	6478
2177.201	6415
2179.236	6465
2181.273	6488
2183.307	6357
2185.341	6411
2187.377	6412
2189.41	6360
2191.442	6455
2193.473	6401
2195.506	6428
2197.539	6435
2199.569	6460
2201.598	6334
2203.628	6436
2205.656	6439
2207.686	6325
2209.716	6427
2211.743	6395
2213.769	6439
2215.796	6391
2217.821	6390
2219.848	6254
2221.873	6388
2223.897	6340
2225.921	6318
2227.944	6323
2229.967	6290
2231.991	6277
2234.011	6428
2236.032	6262
2238.053	6346
2240.073	6372
2242.094	6422
2244.114	6333
2246.131	6299
2248.149	6344
2250.167	6316
2252.186	6330
2254.201	6358
2256.218	6243
2258.233	6405
2260.247	6436
2262.262	6276
2264.278	6289
2266.29	6385
2268.303	6342
2270.315	6276
2272.327	6186
2274.341	6353
2276.35	6376
2278.361	6348
2280.37	6304
2282.38	6237
2284.388	6370
2286.397	6303
2288.405	6267
2290.412	6182
2292.419	6309
2294.425	6324
2296.431	6339
2298.437	6283
2300.441	6356
2302.445	6281
2304.449	6267
2306.453	6175
2308.455	6304
2310.457	6204
2312.459	6167
2314.46	6335
2316.46	6358
2318.461	6201
2320.46	6341
2322.458	6265
2324.458	6257
2326.456	6161
2328.455	6331
2330.451	6234
2332.447	6146
2334.443	6213
2336.438	6245
2338.433	6255
2340.429	6230
2342.422	6240
2344.416	6242
2346.408	6260
2348.399	6341
2350.393	6255
2352.384	6223
2354.375	6220
2356.365	6204
2358.355	6053
2360.344	6106
2362.333	6151
2364.322	6158
2366.309	6022
2368.295	6147
2370.282	6130
2372.27	6203
2374.256	6184
2376.24	6277
2378.225	6129
2380.208	6091
2382.194	6162
2384.177	6070
2386.159	6107
2388.142	5949
2390.122	6107
2392.105	6037
2394.085	6068
2396.066	6126
2398.044	6116
2400.024	6046
2402.002	6129
2403.982	6082
2405.959	6192
2407.935	6138
2409.913	6169
2411.888	6045
2413.865	6019
2415.84	6052
2417.814	6172
2419.788	6083
2421.762	6028
2423.735	6140
2425.708	5982
2427.68	6077
2429.651	6106
2431.623	6072
2433.593	6148
2435.564	6037
2437.533	6070
2439.502	6065
2441.47	6031
2443.438	6096
2445.406	5983
2447.373	6045
2449.34	6114
2451.305	6074
2453.271	6063
2455.235	6041
2457.201	6078
2459.165	6130
2461.129	5992
2463.092	6049
2465.054	5959
2467.018	6085
2468.978	5970
2470.939	5994
2472.899	6079
2474.86	6143
2476.819	6019
2478.778	5969
2480.737	6046
2482.695	5956
2484.653	6048
2486.609	5965
2488.567	6183
2490.524	5996
2492.478	5937
2494.433	6014
2496.387	5898
2498.343	5980
2500.297	6006
2502.249	5886
2504.202	5983
2506.153	6015
2508.105	5930
2510.057	5889
2512.008	6062
2513.957	5967
2515.906	5982
2517.855	5883
2519.805	5991
2521.754	5970
2523.7	5821
2525.647	5943
2527.594	5914
2529.54	5945
2531.486	5903
2533.431	5907
2535.376	5959
2537.32	5898
2539.263	5995
2541.207	5942
2543.151	5858
2545.093	5899
2547.034	5873
2548.975	5876
2550.917	5899
2552.856	5811
2554.796	5995
2556.735	5858
2558.673	5938
2560.611	5966
2562.55	5922
2564.487	5973
2566.424	5855
2568.36	5910
2570.296	5946
2572.232	5841
2574.167	5854
2576.101	5834
2578.035	5923
2579.969	5893
2581.902	6037
2583.834	5975
2585.766	5869
2587.698	5898
2589.628	5864
2591.557	5910
2593.489	5915
2595.419	5951
2597.348	5866
2599.275	5972
2601.204	5912
2603.131	5905
2605.059	5852
2606.986	5854
2608.911	5879
2610.837	5931
2612.76	5876
2614.687	5868
2616.61	5816
2618.534	5943
2620.457	5940
2622.38	5846
2624.302	5920
2626.225	5824
2628.145	5878
2630.067	5922
2631.986	5850
2633.906	5851
2635.827	5916
2637.745	5992
2639.662	5907
2641.581	5952
2643.498	6017
2645.415	5992
2647.331	5978
2649.248	5865
2651.163	5836
2653.077	5881
2654.993	5749
2656.906	5860
2658.821	5914
2660.733	5916
2662.646	5900
2664.557	5759
2666.47	5885
2668.381	5850
2670.291	5822
2672.201	5943
2674.11	5893
2676.021	5810
2677.929	5786
2679.837	5913
2681.745	5855
2683.652	5868
2685.56	5745
2687.466	5934
2689.371	5728
2691.276	5788
2693.181	5802
2695.085	5823
2696.991	5701
2698.893	5744
2700.796	5786
2702.698	5654
2704.601	5760
2706.502	5852
2708.404	5815
2710.304	5869
2712.203	5708
2714.103	5723
2716.003	5808
2717.902	5703
2719.8	5706
2721.697	5685
2723.594	5880
2725.49	5683
2727.389	5750
2729.283	5694
2731.179	5749
2733.073	5683
2734.968	5822
2736.863	5696
2738.757	5827
2740.649	5783
2742.541	5779
2744.433	5740
2746.324	5707
2748.216	5630
2750.107	5734
2751.997	5722
2753.886	5727
2755.776	5652
2757.666	5715
2759.553	5669
2761.44	5671
2763.327	5678
2765.215	5737
2767.102	5718
2768.988	5715
2770.873	5637
2772.757	5676
2774.641	5708
2776.525	5616
2778.41	5703
2780.292	5764
2782.175	5641
2784.057	5734
2785.938	5589
2787.821	5682
2789.701	5626
2791.581	5736
2793.461	5582
2795.34	5607
2797.219	5666
2799.099	5751
2800.975	5630
2802.853	5629
2804.73	5703
2806.606	5663
2808.484	5561
2810.358	5694
2812.233	5616
2814.108	5504
2815.981	5605
2817.857	5673
2819.73	5541
2821.602	5709
2823.474	5661
2825.346	5623
2827.217	5573
2829.089	5679
2830.959	5604
2832.829	5621
2834.698	5548
2836.567	5592
2838.436	5584
2840.305	5578
2842.172	5555
2844.04	5576
2845.905	5629
2847.772	5592
2849.639	5621
2851.503	5673
2853.369	5566
2855.232	5636
2857.096	5694
2858.961	5676
2860.824	5640
2862.686	5732
2864.547	5710
2866.41	5756
2868.272	5677
2870.132	5778
2871.992	5713
2873.851	5795
2875.711	5776
2877.57	5855
2879.429	5878
2881.287	5919
2883.144	5847
2885.001	5897
2886.857	5934
2888.714	5830
2890.57	5945
2892.425	5958
2894.279	5889
2896.133	5930
2897.987	5892
2899.842	5955
2901.694	5895
2903.547	5851
2905.397	5859
2907.249	5948
2909.101	5905
2910.952	5989
2912.802	5952
2914.652	5809
2916.5	6057
2918.35	6044
2920.198	5921
2922.045	5983
2923.893	6040
2925.74	6024
2927.585	6105
2929.433	6122
2931.279	6053
2933.123	6099
2934.968	6198
2936.811	6223
2938.656	6255
2940.5	6278
2942.342	6412
2944.185	6372
2946.026	6418
2947.87	6394
2949.71	6310
2951.549	6294
2953.39	6289
2955.229	6245
2957.069	6107
2958.908	6236
2960.746	6146
2962.584	6173
2964.421	6119
2966.257	6175
2968.094	6012
2969.931	6036
2971.766	5965
2973.601	5844
2975.435	5937
2977.27	5841
2979.105	5880
2980.938	6009
2982.77	5864
2984.602	5914
2986.434	5757
2988.267	5691
2990.097	5804
2991.927	5745
2993.757	5726
2995.587	5697
2997.417	5668
2999.246	5602
3001.074	5597
3002.902	5576
3004.729	5603
3006.556	5551
3008.384	5541
3010.21	5511
3012.036	5470
3013.861	5324
3015.684	5318
3017.51	5492
3019.334	5348
3021.157	5392
3022.981	5318
3024.802	5244
3026.624	5361
3028.448	5256
3030.267	5327
3032.088	5179
3033.909	5309
3035.728	5194
3037.549	5277
3039.368	5218
3041.186	5231
3043.004	5259
3044.821	5264
3046.64	5169
3048.455	5272
3050.272	5209
3052.087	5290
3053.903	5207
3055.717	5199
3057.534	5194
3059.347	5252
3061.16	5146
3062.974	5151
3064.785	5164
3066.598	5063
3068.411	5210
3070.222	5148
3072.032	5238
3073.844	5236
3075.653	5217
3077.463	5222
3079.272	5120
3081.08	5094
3082.889	5146
3084.697	5103
3086.505	5139
3088.312	5106
3090.118	5146
3091.924	5028
3093.729	5152
3095.535	5024
3097.34	5074
3099.144	5156
3100.947	5135
3102.75	5068
3104.553	4902
3106.357	5000
3108.159	5077
3109.961	4993
3111.762	5022
3113.562	5034
3115.365	4912
3117.164	4958
3118.964	5044
3120.761	4987
3122.56	5032
3124.36	5044
3126.158	4911
3127.954	5021
3129.75	4938
3131.547	5035
3133.343	4917
3135.139	4928
3136.934	4881
3138.729	4934
3140.522	4932
3142.317	4917
3144.11	4938
3145.904	4945
3147.695	4846
3149.488	4927
3151.28	4972
3153.07	4895
3154.863	4904
3156.652	4885
3158.441	4974
3160.231	4971
3162.019	4818
3163.81	4961
3165.597	4851
3167.384	4899
3169.172	4848
3170.958	4788
3172.745	4866
3174.532	4830
3176.317	4835
3178.101	4777
3179.885	4890
3181.67	4776
3183.455	4866
3185.238	4852
3187.02	4810
3188.802	4758
3190.585	4772
3192.368	4867
3194.149	4736
3195.929	4737
3197.709	4837
3199.489	4899
3201.268	4749
3203.048	4740
3204.826	4813
3206.604	4801
3208.382	4751
3210.159	4732
3211.937	4837
3213.713	4789
3215.489	4739
3217.263	4708
3219.038	4774
3220.815	4720
3222.589	4672
3224.363	4699
3226.136	4751
3227.908	4744
3229.681	4823
3231.454	4746
3233.226	4757
3234.996	4668
3236.767	4802
3238.538	4781
3240.308	4705
3242.078	4806
3243.847	4816
3245.615	4762
3247.384	4703
3249.15	4777
3250.92	4801
3252.686	4659
3254.453	4729
3256.218	4790
3257.984	4702
3259.75	4680
3261.515	4824
3263.279	4798
3265.044	4678
3266.806	4648
3268.57	4735
3270.334	4629
3272.095	4676
3273.856	4648
3275.619	4794
3277.379	4717
3279.14	4748
3280.9	4690
3282.661	4719
3284.419	4707
3286.178	4701
3287.937	4660
3289.695	4638
3291.453	4648
3293.21	4706
3294.967	4615
3296.723	4754
3298.48	4778
3300.235	4686
3301.99	4650
3303.744	4685
3305.498	4682
3307.253	4665
3309.006	4742
3310.759	4740
3312.511	4694
3314.263	4717
3316.017	4743
3317.768	4690
3319.519	4701
3321.268	4762
3323.018	4760
3324.767	4707
3326.518	4737
3328.267	4747
3330.014	4712
3331.762	4712
3333.509	4652
3335.258	4675
3337.003	4678
3338.75	4666
3340.496	4650
3342.24	4581
3343.987	4747
3345.732	4681
3347.475	4629
3349.219	4599
3350.961	4678
3352.705	4625
3354.448	4609
3356.19	4662
3357.931	4673
3359.672	4559
3361.412	4646
3363.155	4553
3364.894	4648
3366.633	4630
3368.372	4634
3370.11	4499
3371.849	4596
3373.588	4629
3375.325	4638
3377.061	4508
3378.799	4611
3380.534	4565
3382.271	4568
3384.006	4553
3385.741	4456
3387.475	4543
3389.209	4556
3390.944	4555
3392.677	4531
3394.409	4409
3396.143	4464
3397.874	4404
3399.606	4521
3401.338	4458
3403.069	4443
3404.799	4461
3406.528	4437
3408.258	4458
3409.988	4566
3411.717	4533
3413.445	4424
3415.173	4449
3416.899	4475
3418.626	4453
3420.354	4474
3422.08	4479
3423.806	4428
3425.531	4504
3427.255	4510
3428.981	4556
3430.705	4443
3432.429	4487
3434.151	4520
3435.875	4414
3437.599	4470
3439.321	4359
3441.042	4497
3442.763	4392
3444.483	4306
3446.204	4510
3447.926	4418
3449.645	4308
3451.364	4395
3453.082	4333
3454.801	4388
3456.52	4255
3458.238	4344
3459.954	4367
3461.671	4386
3463.387	4284
3465.104	4374
3466.82	4374
3468.534	4332
3470.25	4217
3471.963	4294
3473.676	4286
3475.392	4348
3477.104	4227
3478.817	4228
3480.528	4281
3482.241	4244
3483.954	4185
3485.664	4366
3487.374	4119
3489.084	4306
3490.795	4157
3492.504	4284
3494.214	4237
3495.922	4283
3497.63	4212
3499.338	4170
3501.045	4255
3502.753	4206
3504.459	4155
3506.166	4245
3507.871	4231
3509.576	4284
3511.283	4239
3512.987	4200
3514.691	4193
3516.395	4209
3518.098	4187
3519.8	4267
3521.504	4172
3523.206	4190
3524.908	4156
3526.609	4205
3528.309	4181
3530.011	4056
3531.711	4226
3533.411	4141
3535.109	4161
3536.808	4136
3538.507	4158
3540.206	4103
3541.904	4140
3543.601	4148
3545.297	4163
3546.994	4065
3548.69	4112
3550.387	4026
3552.081	4012
3553.776	4125
3555.47	4108
3557.166	4064
3558.859	4119
3560.553	4028
3562.245	4096
3563.938	4057
3565.629	4019
3567.322	4045
3569.014	4149
3570.704	4077
3572.394	4032
3574.084	4100
3575.775	3992
3577.464	4101
3579.152	4086
3580.842	3976
3582.529	4014
3584.216	3992
3585.905	4027
3587.591	4025
3589.279	4039
3590.964	4021
3592.649	3922
3594.336	4020
3596.021	4013
3597.705	3960
3599.388	3919
3601.072	3971
3602.757	3941
3604.439	3928
3606.122	3969
3607.803	3891
3609.485	3928
3611.167	3895
3612.849	3938
3614.529	3996
3616.208	4005
3617.888	3965
3619.567	3909
3621.247	3911
3622.926	3919
3624.603	3844
3626.281	3828
3627.958	3938
3629.635	3878
3631.312	3840
3632.989	3809
3634.665	3894
3636.339	3920
3638.014	3830
3639.691	3893
3641.364	3896
3643.038	3853
3644.71	3833
3646.384	3855
3648.058	3708
3649.729	3787
3651.402	3752
3653.073	3793
3654.744	3815
3656.414	3816
3658.085	3678
3659.755	3828
3661.424	3823
3663.094	3787
3664.762	3755
3666.431	3790
3668.099	3768
3669.766	3744
3671.433	3737
3673.099	3789
3674.768	3729
3676.433	3798
3678.098	3792
3679.763	3683
3681.428	3729
3683.093	3749
3684.757	3801
3686.421	3788
3688.083	3764
3689.746	3722
3691.408	3722
3693.071	3741
3694.733	3680
3696.394	3758
3698.054	3715
3699.715	3728
3701.375	3718
3703.036	3672
3704.695	3784
3706.354	3636
3708.012	3724
3709.67	3604
3711.329	3746
3712.987	3641
3714.644	3709
3716.299	3727
3717.955	3654
3719.613	3696
3721.268	3678
3722.923	3612
3724.577	3695
3726.231	3656
3727.885	3633
3729.539	3651
3731.192	3688
3732.845	3631
3734.497	3693
3736.149	3658
3737.802	3632
3739.453	3661
3741.104	3660
3742.753	3626
3744.404	3617
3746.052	3630
3747.704	3612
3749.352	3602
3751	3620
3752.648	3615
3754.296	3628
3755.944	3614
3757.59	3478
3759.238	3579
3760.883	3598
3762.528	3609
3764.176	3571
3765.82	3571
3767.464	3593
3769.109	3587
3770.753	3608
3772.396	3501
3774.04	3576
3775.683	3473
3777.325	3623
3778.967	3539
3780.608	3584
3782.25	3581
3783.89	3479
3785.531	3556
3787.17	3490
3788.81	3503
3790.45	3519
3792.09	3509
3793.729	3566
3795.366	3519
3797.003	3542
3798.64	3491
3800.278	3474
3801.915	3467
3803.551	3409
3805.187	3543
3806.822	3500
3808.458	3567
3810.093	3432
3811.726	3536
3813.36	3526
3814.994	3528
3816.627	3548
3818.262	3481
3819.893	3528
3821.525	3464
3823.157	3447
3824.787	3355
3826.42	3411
3828.051	3380
3829.68	3423
3831.31	3455
3832.938	3457
3834.569	3480
3836.198	3467
3837.825	3433
3839.454	3371
3841.08	3400
3842.708	3470
3844.335	3480
3845.962	3523
3847.587	3377
3849.212	3413
3850.838	3367
3852.463	3404
3854.089	3399
3855.712	3411
3857.335	3476
3858.959	3314
3860.582	3354
3862.205	3423
3863.827	3358
3865.449	3425
3867.07	3453
3868.691	3389
3870.312	3443
3871.933	3330
3873.553	3390
3875.173	3316
3876.792	3289
3878.411	3269
3880.03	3389
3881.647	3305
3883.265	3350
3884.882	3370
3886.499	3296
3888.116	3351
3889.732	3296
3891.348	3354
3892.964	3407
3894.579	3325
3896.195	3283
3897.809	3239
3899.423	3353
3901.036	3303
3902.648	3385
3904.261	3285
3905.875	3365
3907.487	3312
3909.099	3247
3910.709	3157
3912.321	3319
3913.933	3319
3915.542	3350
3917.152	3250
3918.762	3287
3920.37	3289
3921.98	3286
3923.589	3281
3925.196	3188
3926.804	3251
3928.41	3268
3930.018	3287
3931.626	3295
3933.231	3289
3934.838	3336
3936.442	3276
3938.046	3301
3939.653	3285
3941.257	3298
3942.861	3295
3944.464	3252
3946.068	3223
3947.67	3244
3949.273	3271
3950.876	3241
3952.477	3256
3954.078	3251
3955.678	3166
3957.281	3151
3958.881	3235
3960.48	3196
3962.079	3192
3963.678	3280
3965.279	3227
3966.877	3223
3968.475	3167
3970.072	3295
3971.669	3173
3973.266	3147
3974.864	3147
3976.459	3162
3978.055	3220
3979.65	3210
3981.245	3177
3982.841	3277
3984.436	3141
3986.03	3136
3987.623	3173
3989.216	3104
3990.809	3160
3992.403	3141
3993.995	3162
3995.586	3150
3997.177	3081
3998.768	3133
4000.361	3164
4001.951	3107
4003.54	3082
4005.13	3057
4006.719	3141
4008.31	3131
4009.897	3089
4011.485	3089
4013.073	3083
4014.66	3047
4016.247	2986
4017.834	3077
4019.421	3013
4021.006	3091
4022.592	3096
4024.178	3066
4025.763	3029
4027.348	3102
4028.932	3066
4030.515	2984
4032.099	2994
4033.682	3018
4035.266	3089
4036.847	2988
4038.429	2948
4040.011	3018
4041.592	3022
4043.173	3006
4044.755	3001
4046.334	2992
4047.913	3001
4049.494	3043
4051.074	3024
4052.652	2991
4054.23	3049
4055.807	3007
4057.385	2986
4058.963	3022
4060.541	3012
4062.117	3017
4063.693	2903
4065.269	3008
4066.844	2991
4068.42	2960
4069.995	2965
4071.569	2984
4073.143	3013
4074.716	2973
4076.291	2909
4077.864	2926
4079.436	3025
4081.009	2891
4082.58	2967
4084.152	2887
4085.723	2961
4087.294	2885
4088.865	2923
4090.435	2901
4092.005	2879
4093.574	2902
4095.143	2987
4096.712	2900
4098.279	2868
4099.848	2953
4101.416	2938
4102.984	2913
4104.55	2939
4106.117	2918
4107.682	2918
4109.248	2881
4110.815	2910
4112.379	2890
4113.945	2879
4115.508	2855
4117.073	2935
4118.637	2904
4120.201	2840
4121.763	2893
4123.325	2832
4124.888	2882
4126.449	2917
4128.013	2922
4129.573	2837
4131.133	2831
4132.694	2870
4134.254	2821
4135.814	2900
4137.374	2765
4138.933	2759
4140.491	2833
4142.049	2823
4143.607	2913
4145.167	2790
4146.724	2810
4148.28	2784
4149.836	2800
4151.392	2779
4152.949	2738
4154.504	2740
4156.059	2755
4157.614	2858
4159.168	2771
4160.723	2778
4162.277	2757
4163.83	2747
4165.383	2797
4166.936	2770
4168.488	2730
4170.041	2755
4171.593	2761
4173.144	2688
4174.695	2687
4176.246	2731
4177.796	2810
4179.346	2716
4180.896	2693
4182.445	2726
4183.994	2694
4185.542	2747
4187.091	2722
4188.639	2801
4190.185	2707
4191.732	2708
4193.279	2723
4194.826	2707
4196.373	2701
4197.918	2695
4199.463	2747
4201.008	2723
4202.553	2685
4204.098	2652
4205.641	2724
4207.185	2700
4208.728	2678
4210.271	2579
4211.814	2605
4213.357	2689
4214.898	2641
4216.439	2658
4217.98	2691
4219.522	2681
4221.062	2667
4222.603	2670
4224.142	2645
4225.681	2670
4227.222	2703
4228.76	2669
4230.298	2648
4231.835	2616
4233.373	2608
4234.911	2711
4236.449	2677
4237.985	2609
4239.521	2711
4241.057	2619
4242.592	2624
4244.128	2645
4245.663	2690
4247.197	2635
4248.731	2573
4250.265	2635
4251.798	2697
4253.333	2578
4254.865	2634
4256.397	2622
4257.93	2668
4259.461	2562
4260.994	2613
4262.525	2586
4264.056	2599
4265.586	2577
4267.115	2585
4268.646	2586
4270.176	2572
4271.705	2594
4273.232	2562
4274.761	2577
4276.289	2537
4277.818	2610
4279.345	2589
4280.872	2562
4282.399	2551
4283.924	2616
4285.452	2574
4286.976	2554
4288.502	2578
4290.026	2564
4291.551	2573
4293.074	2539
4294.6	2529
4296.123	2544
4297.646	2528
4299.168	2518
4300.691	2526
4302.214	2504
4303.736	2576
4305.257	2494
4306.778	2535
4308.299	2553
4309.82	2493
4311.34	2573
4312.86	2499
4314.379	2482
