400.0745	3944
402.597	3923
405.1208	3972
407.6419	3948
410.1623	3989
412.6819	3939
415.201	3964
417.7172	4083
420.2369	4051
422.7538	4002
425.2701	4155
427.7856	4153
430.3005	4140
432.8147	4128
435.3282	4128
437.841	4198
440.3511	4180
442.8625	4155
445.3753	4243
447.8854	4154
450.3927	4281
452.9014	4203
455.4073	4084
457.9146	4121
460.4233	4272
462.9272	4114
465.4325	4202
467.935	4268
470.4389	4165
472.9421	4263
475.4446	4169
477.9444	4249
480.4456	4323
482.944	4260
485.4417	4269
487.9429	4166
490.4393	4258
492.935	4296
495.4321	4340
497.9264	4295
500.4221	4323
502.9171	4318
505.4094	4387
507.9011	4313
510.392	4330
512.8864	4267
515.3759	4403
517.8649	4367
520.3531	4415
522.8406	4301
525.3275	4389
527.8178	4382
530.3033	4430
532.7881	4377
535.2723	4403
537.7558	4241
540.2407	4387
542.7228	4426
545.2043	4369
547.6851	4386
550.1652	4342
552.6467	4408
555.1255	4345
557.6016	4446
560.079	4379
562.5557	4315
565.0318	4422
567.5092	4509
569.984	4400
572.456	4403
574.9294	4408
577.4022	4460
579.8762	4491
582.3456	4619
584.8163	4558
587.2863	4586
589.7557	4527
592.2224	4518
594.6924	4510
597.1578	4539
599.6245	4513
602.0905	4536
604.5538	4650
607.0206	4615
609.4825	4530
611.9459	4616
614.4066	4693
616.8686	4489
619.33	4606
621.7906	4500
624.2487	4427
626.708	4603
629.1647	4578
631.6207	4456
634.0801	4509
636.5348	4536
638.9888	4580
641.4442	4556
643.8969	4460
646.3509	4564
648.8022	4584
651.255	4669
653.705	4601
656.1544	4690
658.6031	4613
661.0532	4578
663.5026	4640
665.9493	4747
668.3954	4758
670.8409	4597
673.2877	4624
675.7318	4664
678.1752	4680
680.618	4633
683.0601	4735
685.5035	4651
687.9444	4660
690.3845	4758
692.824	4729
695.2628	4808
697.701	4691
700.1406	4710
702.5774	4722
705.0116	4740
707.4472	4842
709.8821	4734
712.3183	4816
714.7519	4726
717.1829	4697
719.6151	4852
722.0468	4806
724.4777	4844
726.908	4883
729.3377	4828
731.7667	4847
734.1931	4907
736.6208	4980
739.0498	4899
741.4742	4819
743.9	4985
746.3231	4951
748.7476	4911
751.1713	5055
753.5945	4950
756.015	5014
758.4368	4993
760.856	5039
763.2766	5029
765.6965	5106
768.1157	5125
770.5323	5061
772.9483	5078
775.3656	5060
777.7822	5056
780.1963	5098
782.6116	5123
785.0244	5089
787.4365	5133
789.8499	5094
792.2626	5090
794.6728	5033
797.0823	5068
799.4911	5073
801.8994	5102
804.3109	5057
806.7178	5138
809.124	5068
811.5297	5237
813.9347	5164
816.341	5116
818.7447	5135
821.1478	5074
823.5502	5084
825.952	5136
828.3531	5169
830.7556	5115
833.1554	5256
835.5546	5082
837.9532	5171
840.3511	5171
842.7504	5134
845.1451	5284
847.5411	5264
849.9365	5121
852.3312	5203
854.7272	5359
857.1187	5178
859.5115	5266
861.9037	5141
864.2952	5151
866.6842	5205
869.0764	5163
871.4661	5263
873.8531	5276
876.2415	5263
878.6272	5222
881.0162	5260
883.4026	5178
885.7866	5306
888.1717	5144
890.5543	5248
892.9382	5289
895.3215	5151
897.7041	5203
900.0842	5295
902.4655	5228
904.8443	5183
907.2244	5347
909.6039	5295
911.9808	5360
914.357	5178
916.7346	5416
919.1115	5338
921.4859	5375
923.8616	5373
926.2347	5420
928.6071	5404
930.979	5576
933.3541	5516
935.7247	5440
938.0946	5474
940.4639	5475
942.8326	5484
945.2026	5517
947.5701	5632
949.9369	5783
952.305	5816
954.6705	6025
957.0355	6062
959.4017	6348
961.7654	6283
964.1284	6324
966.4908	6234
968.8527	5978
971.2138	5822
973.5743	5802
975.9343	5637
978.2936	5565
980.6522	5494
983.0122	5353
985.3696	5331
987.7245	5386
990.0807	5357
992.4362	5414
994.7911	5367
997.1474	5463
999.4991	5394
1001.852	5505
1004.205	5399
1006.555	5366
1008.908	5426
1011.258	5447
1013.606	5418
1015.956	5298
1018.302	5479
1020.652	5484
1022.998	5460
1025.345	5405
1027.691	5477
1030.035	5482
1032.378	5448
1034.724	5472
1037.066	5376
1039.409	5436
1041.75	5420
1044.092	5513
1046.433	5452
1048.771	5432
1051.112	5529
1053.449	5430
1055.786	5578
1058.124	5515
1060.462	5527
1062.797	5652
1065.131	5598
1067.467	5561
1069.8	5616
1072.135	5487
1074.467	5586
1076.798	5688
1079.129	5583
1081.459	5588
1083.792	5545
1086.121	5597
1088.449	5610
1090.777	5579
1093.104	5450
1095.431	5473
1097.759	5481
1100.084	5549
1102.408	5532
1104.732	5434
1107.056	5665
1109.379	5500
1111.701	5566
1114.022	5478
1116.343	5545
1118.664	5448
1120.983	5628
1123.303	5605
1125.621	5495
1127.939	5483
1130.256	5616
1132.573	5487
1134.889	5472
1137.205	5478
1139.52	5549
1141.832	5561
1144.146	5460
1146.461	5486
1148.771	5554
1151.083	5565
1153.392	5514
1155.703	5464
1158.011	5564
1160.323	5556
1162.629	5499
1164.938	5563
1167.243	5574
1169.55	5545
1171.857	5553
1174.163	5570
1176.466	5552
1178.769	5507
1181.073	5441
1183.374	5657
1185.677	5455
1187.979	5592
1190.279	5560
1192.578	5504
1194.878	5567
1197.178	5559
1199.476	5675
1201.772	5551
1204.068	5584
1206.366	5634
1208.663	5610
1210.957	5540
1213.251	5600
1215.544	5603
1217.836	5621
1220.128	5654
1222.421	5575
1224.712	5578
1227.002	5631
1229.292	5637
1231.581	5532
1233.871	5732
1236.159	5618
1238.446	5748
1240.732	5740
1243.018	5753
1245.304	5767
1247.59	5733
1249.874	5866
1252.156	5828
1254.439	5753
1256.721	5691
1259.005	5784
1261.286	5681
1263.565	5838
1265.845	5562
1268.125	5776
1270.403	5759
1272.682	5713
1274.959	5683
1277.234	5623
1279.511	5675
1281.787	5775
1284.062	5657
1286.337	5712
1288.609	5605
1290.882	5703
1293.153	5659
1295.428	5693
1297.698	5713
1299.969	5702
1302.237	5676
1304.507	5569
1306.777	5745
1309.044	5693
1311.312	5564
1313.578	5689
1315.844	5757
1318.109	5532
1320.375	5679
1322.638	5629
1324.903	5755
1327.165	5623
1329.427	5667
1331.69	5686
1333.952	5712
1336.212	5601
1338.471	5641
1340.73	5680
1342.988	5576
1345.248	5644
1347.505	5597
1349.763	5703
1352.019	5608
1354.274	5574
1356.53	5656
1358.784	5593
1361.038	5727
1363.291	5727
1365.543	5652
1367.797	5646
1370.048	5689
1372.296	5693
1374.546	5629
1376.796	5716
1379.045	5645
1381.295	5759
1383.542	5793
1385.787	5812
1388.034	5667
1390.28	5656
1392.527	5738
1394.772	5671
1397.014	5678
1399.258	5701
1401.501	5690
1403.741	5764
1405.985	5740
1408.226	5809
1410.465	5777
1412.705	5832
1414.943	5804
1417.184	5702
1419.42	5862
1421.658	5788
1423.894	5872
1426.13	5839
1428.366	5863
1430.602	5782
1432.835	5799
1435.069	5886
1437.301	5908
1439.535	5825
1441.767	5837
1443.997	5878
1446.229	5900
1448.458	5929
1450.687	5844
1452.916	6010
1455.146	5859
1457.372	6030
1459.599	5839
1461.824	5865
1464.051	5923
1466.277	5966
1468.501	5910
1470.725	5908
1472.948	5903
1475.17	5881
1477.393	5757
1479.614	5771
1481.837	5804
1484.057	5722
1486.276	5703
1488.497	5691
1490.715	5762
1492.932	5678
1495.148	5670
1497.364	5606
1499.58	5668
1501.798	5579
1504.012	5641
1506.227	5615
1508.44	5644
1510.653	5628
1512.866	5656
1515.078	5606
1517.289	5701
1519.5	5607
1521.711	5638
1523.92	5611
1526.13	5696
1528.338	5671
1530.544	5669
1532.752	5626
1534.959	5700
1537.165	5618
1539.371	5561
1541.574	5832
1543.779	5662
1545.983	5667
1548.187	5607
1550.39	5759
1552.59	5797
1554.792	5717
1556.991	5740
1559.19	5717
1561.392	5870
1563.59	5687
1565.789	5785
1567.986	5806
1570.182	5786
1572.381	5801
1574.576	5686
1576.771	5821
1578.966	5782
1581.16	5912
1583.354	5779
1585.546	5860
1587.74	5934
1589.931	5813
1592.121	5712
1594.311	5662
1596.502	5765
1598.693	5699
1600.881	5863
1603.069	5833
1605.256	5806
1607.445	5868
1609.631	5640
1611.816	5839
1614.001	5831
1616.186	5834
1618.37	5859
1620.555	5804
1622.737	5836
1624.919	5755
1627.101	5842
1629.282	5970
1631.463	5841
1633.643	5896
1635.822	5917
1638.001	5876
1640.179	5958
1642.359	5925
1644.534	5932
1646.711	5875
1648.887	5965
1651.062	5882
1653.235	5949
1655.412	5805
1657.586	5892
1659.757	5897
1661.93	5865
1664.1	6007
1666.274	5828
1668.445	5984
1670.614	5925
1672.784	6043
1674.951	5926
1677.12	5916
1679.289	5967
1681.457	5955
1683.622	5920
1685.789	5821
1687.953	5851
1690.121	5959
1692.284	5954
1694.447	5950
1696.611	5950
1698.772	5877
1700.935	5790
1703.098	5861
1705.258	5908
1707.417	5707
1709.576	5792
1711.736	5879
1713.896	5760
1716.053	5842
1718.21	5789
1720.366	5736
1722.522	5853
1724.68	5734
1726.835	5680
1728.989	5785
1731.142	5831
1733.295	5704
1735.449	5900
1737.601	5792
1739.753	5864
1741.903	5855
1744.054	5829
1746.203	5833
1748.354	5821
1750.503	5692
1752.651	5918
1754.798	5855
1756.944	5913
1759.092	5788
1761.238	5867
1763.383	5735
1765.528	5874
1767.672	5773
1769.814	5882
1771.959	5865
1774.102	5775
1776.242	5761
1778.384	5935
1780.525	5874
1782.665	5806
1784.805	5838
1786.945	5792
1789.082	5838
1791.22	5831
1793.36	5890
1795.495	5811
1797.632	5929
1799.766	5848
1801.902	5740
1804.035	5988
1806.172	5774
1808.304	5829
1810.436	5878
1812.569	5839
1814.699	5954
1816.833	5857
1818.963	5862
1821.092	5844
1823.222	5876
1825.35	5884
1827.478	5811
1829.608	5936
1831.734	5819
1833.86	5988
1835.986	5840
1838.11	5885
1840.238	5839
1842.362	5774
1844.485	5894
1846.608	5831
1848.73	5746
1850.853	5818
1852.974	5819
1855.097	5739
1857.217	5781
1859.336	5898
1861.455	5787
1863.576	5756
1865.693	5706
1867.811	5740
1869.926	5761
1872.042	5763
1874.16	5773
1876.275	5757
1878.39	5777
1880.504	5748
1882.618	5730
1884.731	5813
1886.843	5912
1888.956	5818
1891.067	5841
1893.178	5845
1895.287	5831
1897.399	5807
1899.508	5754
1901.617	5815
1903.724	5807
1905.832	5874
1907.941	5751
1910.046	5819
1912.152	5827
1914.256	5902
1916.361	5885
1918.464	5881
1920.57	5858
1922.672	5777
1924.775	5878
1926.876	5772
1928.978	5837
1931.08	5916
1933.181	5832
1935.28	5866
1937.38	5766
1939.478	5806
1941.577	5887
1943.675	5901
1945.771	5811
1947.867	5870
1949.964	5965
1952.058	5852
1954.154	5938
1956.248	5824
1958.343	5859
1960.435	5843
1962.527	5776
1964.62	6022
1966.711	5802
1968.802	5900
1970.892	5869
1972.983	5935
1975.072	5819
1977.162	5855
1979.25	5958
1981.337	5841
1983.424	5846
1985.51	5903
1987.598	5945
1989.683	5801
1991.768	5797
1993.852	5879
1995.934	5794
1998.019	5826
2000.102	5843
2002.184	5857
2004.266	5884
2006.347	5846
2008.427	5761
2010.508	5855
2012.587	5855
2014.666	5791
2016.745	5751
2018.821	5740
2020.9	5791
2022.977	5744
2025.052	5785
2027.128	5850
2029.204	5701
2031.277	5700
2033.353	5718
2035.425	5804
2037.499	5907
2039.57	5814
2041.642	5836
2043.714	5817
2045.786	5786
2047.855	5778
2049.925	5787
2051.993	5750
2054.064	5800
2056.132	5798
2058.2	5849
2060.266	5851
2062.332	5794
2064.398	5758
2066.465	5808
2068.529	5717
2070.592	5708
2072.657	5807
2074.719	5683
2076.783	5823
2078.845	5777
2080.907	5857
2082.968	5769
2085.028	5803
2087.087	5859
2089.148	5918
2091.207	5745
2093.264	5812
2095.322	5824
2097.379	5803
2099.439	5701
2101.495	5713
2103.55	5890
2105.605	5668
2107.658	5649
2109.713	5819
2111.767	5858
2113.82	5797
2115.872	5780
2117.924	5711
2119.975	5815
2122.028	5874
2124.078	5815
2126.126	5747
2128.176	5770
2130.225	5762
2132.275	5777
2134.321	5868
2136.368	5827
2138.415	5806
2140.461	5792
2142.505	5769
2144.552	5668
2146.597	5767
2148.64	5804
2150.684	5749
2152.725	5694
2154.77	5737
2156.811	5888
2158.852	5623
2160.894	5736
2162.933	5655
2164.973	5760
2167.013	5763
2169.051	5652
2171.089	5654
2173.126	5674
2175.164	5767
2177.201	5676
2179.236	5601
2181.273	5750
2183.307	5658
2185.341	5575
2187.377	5688
2189.41	5672
2191.442	5755
2193.473	5682
2195.506	5744
2197.539	5662
2199.569	5656
2201.598	5653
2203.628	5630
2205.656	5619
2207.686	5609
2209.716	5637
2211.743	5624
2213.769	5639
2215.796	5622
2217.821	5625
2219.848	5640
2221.873	5613
2223.897	5564
2225.921	5734
2227.944	5668
2229.967	5594
2231.991	5528
2234.011	5727
2236.032	5622
2238.053	5567
2240.073	5617
2242.094	5508
2244.114	5648
2246.131	5728
2248.149	5609
2250.167	5569
2252.186	5638
2254.201	5625
2256.218	5571
2258.233	5599
2260.247	5696
2262.262	5592
2264.278	5484
2266.29	5684
2268.303	5588
2270.315	5586
2272.327	5622
2274.341	5579
2276.35	5639
2278.361	5564
2280.37	5643
2282.38	5595
2284.388	5528
2286.397	5617
2288.405	5578
2290.412	5600
2292.419	5629
2294.425	5581
2296.431	5562
2298.437	5585
2300.441	5619
2302.445	5520
2304.449	5487
2306.453	5589
2308.455	5632
2310.457	5630
2312.459	5609
2314.46	5505
2316.46	5496
2318.461	5548
2320.46	5564
2322.458	5505
2324.458	5542
2326.456	5575
2328.455	5583
2330.451	5593
2332.447	5473
2334.443	5485
2336.438	5417
2338.433	5420
2340.429	5515
2342.422	5504
2344.416	5540
2346.408	5613
2348.399	5442
2350.393	5464
2352.384	5476
2354.375	5599
2356.365	5480
2358.355	5535
2360.344	5380
2362.333	5314
2364.322	5577
2366.309	5450
2368.295	5462
2370.282	5501
2372.27	5420
2374.256	5290
2376.24	5414
2378.225	5482
2380.208	5406
2382.194	5408
2384.177	5334
2386.159	5488
2388.142	5357
2390.122	5345
2392.105	5479
2394.085	5384
2396.066	5407
2398.044	5352
2400.024	5364
2402.002	5394
2403.982	5347
2405.959	5390
2407.935	5417
2409.913	5296
2411.888	5324
2413.865	5440
2415.84	5318
2417.814	5354
2419.788	5313
2421.762	5429
2423.735	5349
2425.708	5355
2427.68	5387
2429.651	5362
2431.623	5327
2433.593	5416
2435.564	5295
2437.533	5397
2439.502	5410
2441.47	5366
2443.438	5410
2445.406	5408
2447.373	5280
2449.34	5481
2451.305	5349
2453.271	5254
2455.235	5488
2457.201	5351
2459.165	5369
2461.129	5295
2463.092	5351
2465.054	5350
2467.018	5380
2468.978	5302
2470.939	5368
2472.899	5359
2474.86	5371
2476.819	5359
2478.778	5287
2480.737	5272
2482.695	5344
2484.653	5293
2486.609	5253
2488.567	5283
2490.524	5248
2492.478	5175
2494.433	5353
2496.387	5341
2498.343	5364
2500.297	5263
2502.249	5237
2504.202	5331
2506.153	5243
2508.105	5313
2510.057	5219
2512.008	5259
2513.957	5258
2515.906	5368
2517.855	5319
2519.805	5218
2521.754	5250
2523.7	5266
2525.647	5248
2527.594	5251
2529.54	5185
2531.486	5194
2533.431	5168
2535.376	5303
2537.32	5247
2539.263	5254
2541.207	5207
2543.151	5264
2545.093	5212
2547.034	5190
2548.975	5150
2550.917	5262
2552.856	5243
2554.796	5266
2556.735	5237
2558.673	5199
2560.611	5217
2562.55	5260
2564.487	5173
2566.424	5260
2568.36	5163
2570.296	5255
2572.232	5179
2574.167	5203
2576.101	5195
2578.035	5166
2579.969	5269
2581.902	5305
2583.834	5243
2585.766	5243
2587.698	5245
2589.628	5233
2591.557	5183
2593.489	5227
2595.419	5201
2597.348	5276
2599.275	5268
2601.204	5210
2603.131	5214
2605.059	5212
2606.986	5248
2608.911	5214
2610.837	5213
2612.76	5321
2614.687	5289
2616.61	5157
2618.534	5207
2620.457	5219
2622.38	5177
2624.302	5249
2626.225	5324
2628.145	5165
2630.067	5270
2631.986	5364
2633.906	5218
2635.827	5313
2637.745	5129
2639.662	5323
2641.581	5285
2643.498	5282
2645.415	5255
2647.331	5235
2649.248	5226
2651.163	5222
2653.077	5214
2654.993	5209
2656.906	5243
2658.821	5354
2660.733	5180
2662.646	5143
2664.557	5187
2666.47	5272
2668.381	5238
2670.291	5201
2672.201	5197
2674.11	5211
2676.021	5222
2677.929	5196
2679.837	5173
2681.745	5190
2683.652	5265
2685.56	5179
2687.466	5172
2689.371	5194
2691.276	5161
2693.181	5150
2695.085	5140
2696.991	5185
2698.893	5115
2700.796	5184
2702.698	5083
2704.601	5183
2706.502	5113
2708.404	5081
2710.304	5223
2712.203	5070
2714.103	5119
2716.003	5204
2717.902	5135
2719.8	5135
2721.697	5127
2723.594	4995
2725.49	5121
2727.389	5040
2729.283	5131
2731.179	5001
2733.073	5172
2734.968	5067
2736.863	5122
2738.757	5151
2740.649	5126
2742.541	5026
2744.433	5129
2746.324	5061
2748.216	5112
2750.107	5158
2751.997	5093
2753.886	4980
2755.776	5021
2757.666	5068
2759.553	5002
2761.44	5045
2763.327	5070
2765.215	5076
2767.102	4967
2768.988	5055
2770.873	5100
2772.757	5046
2774.641	4981
2776.525	5074
2778.41	5020
2780.292	5011
2782.175	5061
2784.057	5033
2785.938	5023
2787.821	5029
2789.701	5000
2791.581	4922
2793.461	5074
2795.34	4990
2797.219	4948
2799.099	5120
2800.975	5074
2802.853	5021
2804.73	5035
2806.606	5073
2808.484	5001
2810.358	5035
2812.233	4974
2814.108	5031
2815.981	5017
2817.857	5043
2819.73	4898
2821.602	4957
2823.474	5017
2825.346	4942
2827.217	4938
2829.089	5013
2830.959	5084
2832.829	5001
2834.698	4922
2836.567	4922
2838.436	5065
2840.305	4959
2842.172	4985
2844.04	4947
2845.905	5027
2847.772	5068
2849.639	5080
2851.503	4977
2853.369	5138
2855.232	4978
2857.096	4976
2858.961	5000
2860.824	5067
2862.686	4990
2864.547	5024
2866.41	5104
2868.272	5099
2870.132	5049
2871.992	5100
2873.851	5182
2875.711	5182
2877.57	5256
2879.429	5184
2881.287	5323
2883.144	5282
2885.001	5357
2886.857	5336
2888.714	5221
2890.57	5247
2892.425	5389
2894.279	5297
2896.133	5242
2897.987	5268
2899.842	5193
2901.694	5189
2903.547	5259
2905.397	5272
2907.249	5180
2909.101	5240
2910.952	5238
2912.802	5297
2914.652	5264
2916.5	5331
2918.35	5419
2920.198	5445
2922.045	5409
2923.893	5412
2925.74	5489
2927.585	5455
2929.433	5590
2931.279	5558
2933.123	5814
2934.968	5589
2936.811	5546
2938.656	5719
2940.5	5667
2942.342	5745
2944.185	5771
2946.026	5791
2947.87	5802
2949.71	5703
2951.549	5646
2953.39	5710
2955.229	5565
2957.069	5582
2958.908	5625
2960.746	5507
2962.584	5531
2964.421	5417
2966.257	5415
2968.094	5351
2969.931	5389
2971.766	5361
2973.601	5323
2975.435	5383
2977.27	5339
2979.105	5282
2980.938	5347
2982.77	5239
2984.602	5237
2986.434	5347
2988.267	5223
2990.097	5302
2991.927	5200
2993.757	5138
2995.587	5090
2997.417	5183
2999.246	5150
3001.074	5014
3002.902	4994
3004.729	4937
3006.556	5003
3008.384	4937
3010.21	4909
3012.036	4910
3013.861	4879
3015.684	4896
3017.51	4775
3019.334	4798
3021.157	4835
3022.981	4751
3024.802	4736
3026.624	4727
3028.448	4619
3030.267	4727
3032.088	4735
3033.909	4735
3035.728	4685
3037.549	4685
3039.368	4772
3041.186	4661
3043.004	4661
3044.821	4622
3046.64	4650
3048.455	4731
3050.272	4690
3052.087	4664
3053.903	4609
3055.717	4572
3057.534	4757
3059.347	4678
3061.16	4632
3062.974	4679
3064.785	4604
3066.598	4559
3068.411	4603
3070.222	4644
3072.032	4644
3073.844	4605
3075.653	4645
3077.463	4592
3079.272	4535
3081.08	4571
3082.889	4546
3084.697	4514
3086.505	4624
3088.312	4643
3090.118	4527
3091.924	4551
3093.729	4580
3095.535	4524
3097.34	4495
3099.144	4608
3100.947	4478
3102.75	4463
3104.553	4555
3106.357	4468
3108.159	4593
3109.961	4467
3111.762	4468
3113.562	4537
3115.365	4438
3117.164	4415
3118.964	4476
3120.761	4438
3122.56	4355
3124.36	4459
3126.158	4360
3127.954	4408
3129.75	4441
3131.547	4401
3133.343	4382
3135.139	4472
3136.934	4394
3138.729	4394
3140.522	4351
3142.317	4439
3144.11	4478
3145.904	4450
3147.695	4418
3149.488	4384
3151.28	4447
3153.07	4441
3154.863	4354
3156.652	4444
3158.441	4485
3160.231	4305
3162.019	4335
3163.81	4384
3165.597	4407
3167.384	4294
3169.172	4422
3170.958	4374
3172.745	4334
3174.532	4385
3176.317	4275
3178.101	4381
3179.885	4345
3181.67	4340
3183.455	4292
3185.238	4238
3187.02	4401
3188.802	4329
3190.585	4321
3192.368	4381
3194.149	4363
3195.929	4333
3197.709	4278
3199.489	4291
3201.268	4260
3203.048	4253
3204.826	4398
3206.604	4303
3208.382	4335
3210.159	4315
3211.937	4426
3213.713	4297
3215.489	4303
3217.263	4287
3219.038	4312
3220.815	4301
3222.589	4267
3224.363	4304
3226.136	4310
3227.908	4305
3229.681	4225
3231.454	4242
3233.226	4250
3234.996	4342
3236.767	4250
3238.538	4293
3240.308	4259
3242.078	4232
3243.847	4280
3245.615	4325
3247.384	4357
3249.15	4261
3250.92	4281
3252.686	4265
3254.453	4298
3256.218	4194
3257.984	4177
3259.75	4252
3261.515	4305
3263.279	4223
3265.044	4172
3266.806	4204
3268.57	4182
3270.334	4230
3272.095	4235
3273.856	4237
3275.619	4282
3277.379	4283
3279.14	4266
3280.9	4264
3282.661	4319
3284.419	4253
3286.178	4295
3287.937	4284
3289.695	4234
3291.453	4328
3293.21	4223
3294.967	4248
3296.723	4213
3298.48	4302
3300.235	4158
3301.99	4233
3303.744	4336
3305.498	4220
3307.253	4211
3309.006	4234
3310.759	4239
3312.511	4193
3314.263	4239
3316.017	4256
3317.768	4298
3319.519	4352
3321.268	4235
3323.018	4280
3324.767	4131
3326.518	4199
3328.267	4181
3330.014	4261
3331.762	4263
3333.509	4236
3335.258	4251
3337.003	4167
3338.75	4126
3340.496	4218
3342.24	4232
3343.987	4251
3345.732	4288
3347.475	4242
3349.219	4243
3350.961	4248
3352.705	4210
3354.448	4253
3356.19	4143
3357.931	4147
3359.672	4222
3361.412	4091
3363.155	4083
3364.894	4176
3366.633	4196
3368.372	4140
3370.11	4177
3371.849	4078
3373.588	4178
3375.325	4133
3377.061	4114
3378.799	4069
3380.534	4183
3382.271	4096
3384.006	4098
3385.741	4156
3387.475	4051
3389.209	4191
3390.944	4096
3392.677	4210
3394.409	4100
3396.143	4097
3397.874	4124
3399.606	4224
3401.338	4162
3403.069	4061
3404.799	4134
3406.528	4078
3408.258	4081
3409.988	4091
3411.717	4115
3413.445	4078
3415.173	4052
3416.899	4106
3418.626	4024
3420.354	4014
3422.08	3996
3423.806	4096
3425.531	4032
3427.255	4052
3428.981	4054
3430.705	4110
3432.429	4034
3434.151	4041
3435.875	3987
3437.599	4033
3439.321	3996
3441.042	4115
3442.763	4061
3444.483	3920
3446.204	4071
3447.926	4039
3449.645	3946
3451.364	3990
3453.082	3972
3454.801	4069
3456.52	3932
3458.238	3895
3459.954	3867
3461.671	4012
3463.387	3915
3465.104	3939
3466.82	3912
3468.534	3965
3470.25	3933
3471.963	3880
3473.676	3936
3475.392	3918
3477.104	3931
3478.817	3972
3480.528	3949
3482.241	3882
3483.954	3837
3485.664	3844
3487.374	3899
3489.084	3863
3490.795	3903
3492.504	3930
3494.214	3861
3495.922	3893
3497.63	3806
3499.338	3817
3501.045	3898
3502.753	3881
3504.459	3858
3506.166	3776
3507.871	3766
3509.576	3695
3511.283	3798
3512.987	3821
3514.691	3826
3516.395	3793
3518.098	3761
3519.8	3785
3521.504	3751
3523.206	3818
3524.908	3862
3526.609	3759
3528.309	3871
3530.011	3804
3531.711	3836
3533.411	3767
3535.109	3686
3536.808	3774
3538.507	3740
3540.206	3697
3541.904	3723
3543.601	3737
3545.297	3688
3546.994	3704
3548.69	3713
3550.387	3669
3552.081	3745
3553.776	3686
3555.47	3724
3557.166	3725
3558.859	3736
3560.553	3785
3562.245	3679
3563.938	3764
3565.629	3728
3567.322	3743
3569.014	3681
3570.704	3759
3572.394	3689
3574.084	3714
3575.775	3688
3577.464	3702
3579.152	3663
3580.842	3715
3582.529	3626
3584.216	3632
3585.905	3634
3587.591	3616
3589.279	3678
3590.964	3648
3592.649	3654
3594.336	3529
3596.021	3640
3597.705	3628
3599.388	3548
3601.072	3583
3602.757	3588
3604.439	3639
3606.122	3638
3607.803	3648
3609.485	3525
3611.167	3582
3612.849	3506
3614.529	3590
3616.208	3483
3617.888	3437
3619.567	3522
3621.247	3506
3622.926	3594
3624.603	3572
3626.281	3481
3627.958	3489
3629.635	3510
3631.312	3549
3632.989	3522
3634.665	3479
3636.339	3510
3638.014	3508
3639.691	3481
3641.364	3528
3643.038	3521
3644.71	3408
3646.384	3498
3648.058	3570
3649.729	3487
3651.402	3536
3653.073	3478
3654.744	3476
3656.414	3511
3658.085	3479
3659.755	3440
3661.424	3443
3663.094	3469
3664.762	3379
3666.431	3474
3668.099	3452
3669.766	3335
3671.433	3436
3673.099	3332
3674.768	3469
3676.433	3384
3678.098	3431
3679.763	3398
3681.428	3355
3683.093	3403
3684.757	3413
3686.421	3432
3688.083	3457
3689.746	3447
3691.408	3464
3693.071	3348
3694.733	3370
3696.394	3320
3698.054	3434
3699.715	3499
3701.375	3330
3703.036	3437
3704.695	3433
3706.354	3332
3708.012	3429
3709.67	3434
3711.329	3383
3712.987	3431
3714.644	3387
3716.299	3348
3717.955	3339
3719.613	3324
3721.268	3313
3722.923	3314
3724.577	3407
3726.231	3372
3727.885	3335
3729.539	3357
3731.192	3426
3732.845	3298
3734.497	3377
3736.149	3329
3737.802	3339
3739.453	3372
3741.104	3353
3742.753	3317
3744.404	3291
3746.052	3339
3747.704	3314
3749.352	3290
3751	3282
3752.648	3301
3754.296	3279
3755.944	3331
3757.59	3289
3759.238	3285
3760.883	3265
3762.528	3273
3764.176	3329
3765.82	3310
3767.464	3292
3769.109	3344
3770.753	3277
3772.396	3238
3774.04	3318
3775.683	3332
3777.325	3260
3778.967	3250
3780.608	3276
3782.25	3319
3783.89	3287
3785.531	3260
3787.17	3260
3788.81	3228
3790.45	3269
3792.09	3259
3793.729	3202
3795.366	3280
3797.003	3231
3798.64	3282
3800.278	3201
3801.915	3177
3803.551	3173
3805.187	3208
3806.822	3193
3808.458	3212
3810.093	3195
3811.726	3186
3813.36	3235
3814.994	3219
3816.627	3216
3818.262	3244
3819.893	3255
3821.525	3158
3823.157	3235
3824.787	3158
3826.42	3174
3828.051	3231
3829.68	3215
3831.31	3155
3832.938	3174
3834.569	3175
3836.198	3144
3837.825	3075
3839.454	3137
3841.08	3185
3842.708	3212
3844.335	3216
3845.962	3167
3847.587	3169
3849.212	3155
3850.838	3109
3852.463	3136
3854.089	3156
3855.712	3150
3857.335	3138
3858.959	3180
3860.582	3059
3862.205	3136
3863.827	3135
3865.449	3132
3867.07	3157
3868.691	3125
3870.312	3148
3871.933	3124
3873.553	3152
3875.173	3054
3876.792	3030
3878.411	3063
3880.03	3061
3881.647	3095
3883.265	3071
3884.882	3119
3886.499	3115
3888.116	3128
3889.732	3052
3891.348	3069
3892.964	3115
3894.579	3044
3896.195	3157
3897.809	3036
3899.423	3137
3901.036	3022
3902.648	3071
3904.261	3078
3905.875	3042
3907.487	3018
3909.099	3037
3910.709	3086
3912.321	3117
3913.933	3035
3915.542	3076
3917.152	3084
3918.762	3069
3920.37	3053
3921.98	3053
3923.589	3090
3925.196	3089
3926.804	3093
3928.41	3085
3930.018	3058
3931.626	3039
3933.231	3010
3934.838	3071
3936.442	3051
3938.046	2991
3939.653	3106
3941.257	3018
3942.861	3053
3944.464	3032
3946.068	3021
3947.67	3020
3949.273	3079
3950.876	3055
3952.477	3042
3954.078	2962
3955.678	2956
3957.281	3034
3958.881	3055
3960.48	3021
3962.079	2993
3963.678	2986
3965.279	2934
3966.877	2939
3968.475	2911
3970.072	2990
3971.669	2970
3973.266	2986
3974.864	2950
3976.459	2951
3978.055	2995
3979.65	2982
3981.245	2930
3982.841	2950
3984.436	2938
3986.03	2932
3987.623	2913
3989.216	2929
3990.809	2974
3992.403	2928
3993.995	2908
3995.586	2909
3997.177	2982
3998.768	2933
4000.361	2943
4001.951	2910
4003.54	2898
4005.13	2865
4006.719	2871
4008.31	2819
4009.897	2956
4011.485	2948
4013.073	2896
4014.66	2929
4016.247	2864
4017.834	2866
4019.421	2801
4021.006	2864
4022.592	2878
4024.178	2858
4025.763	2898
4027.348	2882
4028.932	2881
4030.515	2848
4032.099	2821
4033.682	2830
4035.266	2831
4036.847	2874
4038.429	2797
4040.011	2816
4041.592	2834
4043.173	2831
4044.755	2784
4046.334	2804
4047.913	2916
4049.494	2782
4051.074	2832
4052.652	2816
4054.23	2818
4055.807	2846
4057.385	2840
4058.963	2799
4060.541	2865
4062.117	2799
4063.693	2756
4065.269	2809
4066.844	2818
4068.42	2876
4069.995	2778
4071.569	2814
4073.143	2785
4074.716	2770
4076.291	2811
4077.864	2778
4079.436	2799
4081.009	2813
4082.58	2779
4084.152	2733
4085.723	2784
4087.294	2786
4088.865	2762
4090.435	2736
4092.005	2814
4093.574	2752
4095.143	2724
4096.712	2755
4098.279	2808
4099.848	2843
4101.416	2796
4102.984	2720
4104.55	2738
4106.117	2762
4107.682	2713
4109.248	2753
4110.815	2746
4112.379	2761
4113.945	2690
4115.508	2737
4117.073	2776
4118.637	2767
4120.201	2699
4121.763	2699
4123.325	2662
4124.888	2847
4126.449	2801
4128.013	2662
4129.573	2688
4131.133	2685
4132.694	2677
4134.254	2757
4135.814	2696
4137.374	2669
4138.933	2691
4140.491	2683
4142.049	2665
4143.607	2643
4145.167	2689
4146.724	2698
4148.28	2684
4149.836	2614
4151.392	2650
4152.949	2633
4154.504	2642
4156.059	2661
4157.614	2613
4159.168	2582
4160.723	2667
4162.277	2640
4163.83	2666
4165.383	2669
4166.936	2654
4168.488	2625
4170.041	2575
4171.593	2612
4173.144	2649
4174.695	2631
4176.246	2603
4177.796	2626
4179.346	2656
4180.896	2599
4182.445	2557
4183.994	2575
4185.542	2603
4187.091	2621
4188.639	2587
4190.185	2591
4191.732	2601
4193.279	2599
4194.826	2610
4196.373	2519
4197.918	2524
4199.463	2516
4201.008	2566
4202.553	2566
4204.098	2595
4205.641	2657
4207.185	2595
4208.728	2563
4210.271	2592
4211.814	2562
4213.357	2570
4214.898	2538
4216.439	2538
4217.98	2562
4219.522	2592
4221.062	2570
4222.603	2524
4224.142	2556
4225.681	2571
4227.222	2574
4228.76	2531
4230.298	2586
4231.835	2472
4233.373	2519
4234.911	2609
4236.449	2571
4237.985	2534
4239.521	2526
4241.057	2544
4242.592	2619
4244.128	2562
4245.663	2556
4247.197	2519
4248.731	2542
4250.265	2441
4251.798	2546
4253.333	2517
4254.865	2509
4256.397	2493
4257.93	2504
4259.461	2474
4260.994	2484
4262.525	2528
4264.056	2557
4265.586	2492
4267.115	2551
4268.646	2490
4270.176	2497
4271.705	2512
4273.232	2494
4274.761	2587
4276.289	2471
4277.818	2465
4279.345	2571
4280.872	2456
4282.399	2463
4283.924	2478
4285.452	2452
4286.976	2518
4288.502	2437
4290.026	2483
4291.551	2502
4293.074	2441
4294.6	2493
4296.123	2419
4297.646	2542
4299.168	2506
4300.691	2446
4302.214	2444
4303.736	2408
4305.257	2502
4306.778	2423
4308.299	2461
4309.82	2428
4311.34	2436
4312.86	2417
4314.379	2427
