400.0745	5150
402.597	5032
405.1208	5091
407.6419	5133
410.1623	5153
412.6819	5208
415.201	5201
417.7172	5253
420.2369	5333
422.7538	5249
425.2701	5320
427.7856	5223
430.3005	5378
432.8147	5421
435.3282	5427
437.841	5475
440.3511	5357
442.8625	5371
445.3753	5399
447.8854	5479
450.3927	5596
452.9014	5425
455.4073	5461
457.9146	5485
460.4233	5457
462.9272	5456
465.4325	5464
467.935	5461
470.4389	5541
472.9421	5521
475.4446	5589
477.9444	5495
480.4456	5493
482.944	5502
485.4417	5688
487.9429	5520
490.4393	5571
492.935	5654
495.4321	5682
497.9264	5631
500.4221	5699
502.9171	5738
505.4094	5727
507.9011	5801
510.392	5759
512.8864	5638
515.3759	5715
517.8649	5810
520.3531	5707
522.8406	5715
525.3275	5709
527.8178	5661
530.3033	5713
532.7881	5641
535.2723	5692
537.7558	5855
540.2407	5735
542.7228	5775
545.2043	5789
547.6851	5750
550.1652	5726
552.6467	5720
555.1255	5772
557.6016	5817
560.079	5900
562.5557	5771
565.0318	5808
567.5092	5867
569.984	5881
572.456	5855
574.9294	5938
577.4022	5954
579.8762	5961
582.3456	5876
584.8163	5904
587.2863	5961
589.7557	5921
592.2224	6055
594.6924	5910
597.1578	5924
599.6245	5859
602.0905	5991
604.5538	6029
607.0206	5974
609.4825	5928
611.9459	6024
614.4066	5922
616.8686	5937
619.33	5942
621.7906	5901
624.2487	5972
626.708	5913
629.1647	5895
631.6207	5962
634.0801	6005
636.5348	5953
638.9888	5955
641.4442	6011
643.8969	5985
646.3509	5959
648.8022	5986
651.255	6068
653.705	6042
656.1544	5993
658.6031	6114
661.0532	6067
663.5026	6069
665.9493	6072
668.3954	6172
670.8409	6123
673.2877	6146
675.7318	6115
678.1752	6246
680.618	6127
683.0601	6246
685.5035	6188
687.9444	6269
690.3845	6190
692.824	6243
695.2628	6245
697.701	6357
700.1406	6386
702.5774	6195
705.0116	6315
707.4472	6235
709.8821	6123
712.3183	6214
714.7519	6191
717.1829	6277
719.6151	6267
722.0468	6279
724.4777	6434
726.908	6415
729.3377	6385
731.7667	6465
734.1931	6459
736.6208	6361
739.0498	6420
741.4742	6599
743.9	6507
746.3231	6453
748.7476	6572
751.1713	6429
753.5945	6526
756.015	6516
758.4368	6557
760.856	6613
763.2766	6579
765.6965	6704
768.1157	6664
770.5323	6614
772.9483	6712
775.3656	6601
777.7822	6583
780.1963	6667
782.6116	6664
785.0244	6527
787.4365	6624
789.8499	6653
792.2626	6683
794.6728	6575
797.0823	6717
799.4911	6692
801.8994	6602
804.3109	6694
806.7178	6681
809.124	6765
811.5297	6741
813.9347	6643
816.341	6790
818.7447	6794
821.1478	6791
823.5502	6820
825.952	6751
828.3531	6791
830.7556	6788
833.1554	6738
835.5546	6746
837.9532	6802
840.3511	6773
842.7504	6812
845.1451	6832
847.5411	6813
849.9365	6781
852.3312	6871
854.7272	6707
857.1187	6937
859.5115	6843
861.9037	6815
864.2952	6824
866.6842	6776
869.0764	6809
871.4661	6783
873.8531	6836
876.2415	6846
878.6272	6840
881.0162	6708
883.4026	6772
885.7866	6796
888.1717	6795
890.5543	6798
892.9382	6798
895.3215	6773
897.7041	6695
900.0842	6824
902.4655	6902
904.8443	6807
907.2244	6814
909.6039	6768
911.9808	6879
914.357	6893
916.7346	6994
919.1115	6960
921.4859	6895
923.8616	7104
926.2347	7012
928.6071	7064
930.979	7129
933.3541	7075
935.7247	7176
938.0946	7111
940.4639	7147
942.8326	7128
945.2026	7187
947.5701	7359
949.9369	7510
952.305	7556
954.6705	7696
957.0355	7869
959.4017	8081
961.7654	8147
964.1284	7994
966.4908	8009
968.8527	7814
971.2138	7556
973.5743	7385
975.9343	7200
978.2936	7134
980.6522	7253
983.0122	7062
985.3696	7009
987.7245	7133
990.0807	7044
992.4362	7096
994.7911	7094
997.1474	6895
999.4991	7010
1001.852	7033
1004.205	7119
1006.555	7152
1008.908	7053
1011.258	7066
1013.606	7070
1015.956	7131
1018.302	7179
1020.652	7071
1022.998	7132
1025.345	7129
1027.691	7179
1030.035	7135
1032.378	7130
1034.724	7005
1037.066	7201
1039.409	7153
1041.75	7177
1044.092	7204
1046.433	7181
1048.771	7175
1051.112	7112
1053.449	7104
1055.786	7298
1058.124	7115
1060.462	7305
1062.797	7300
1065.131	7269
1067.467	7159
1069.8	7294
1072.135	7348
1074.467	7377
1076.798	7194
1079.129	7277
1081.459	7322
1083.792	7241
1086.121	7218
1088.449	7195
1090.777	7224
1093.104	7258
1095.431	7272
1097.759	7178
1100.084	7174
1102.408	7270
1104.732	7157
1107.056	7357
1109.379	7264
1111.701	7100
1114.022	7303
1116.343	7280
1118.664	7301
1120.983	7362
1123.303	7412
1125.621	7117
1127.939	7273
1130.256	7320
1132.573	7256
1134.889	7327
1137.205	7359
1139.52	7248
1141.832	7406
1144.146	7322
1146.461	7477
1148.771	7248
1151.083	7411
1153.392	7280
1155.703	7383
1158.011	7279
1160.323	7243
1162.629	7280
1164.938	7230
1167.243	7281
1169.55	7309
1171.857	7335
1174.163	7295
1176.466	7213
1178.769	7222
1181.073	7329
1183.374	7296
1185.677	7321
1187.979	7317
1190.279	7257
1192.578	7289
1194.878	7270
1197.178	7332
1199.476	7181
1201.772	7322
1204.068	7333
1206.366	7311
1208.663	7331
1210.957	7384
1213.251	7445
1215.544	7256
1217.836	7297
1220.128	7375
1222.421	7182
1224.712	7328
1227.002	7432
1229.292	7269
1231.581	7387
1233.871	7364
1236.159	7435
1238.446	7447
1240.732	7470
1243.018	7413
1245.304	7516
1247.59	7481
1249.874	7541
1252.156	7487
1254.439	7510
1256.721	7501
1259.005	7571
1261.286	7482
1263.565	7433
1265.845	7521
1268.125	7564
1270.403	7615
1272.682	7503
1274.959	7511
1277.234	7524
1279.511	7482
1281.787	7457
1284.062	7458
1286.337	7484
1288.609	7485
1290.882	7368
1293.153	7354
1295.428	7475
1297.698	7546
1299.969	7421
1302.237	7383
1304.507	7386
1306.777	7349
1309.044	7522
1311.312	7543
1313.578	7375
1315.844	7383
1318.109	7480
1320.375	7323
1322.638	7422
1324.903	7449
1327.165	7560
1329.427	7354
1331.69	7431
1333.952	7413
1336.212	7403
1338.471	7441
1340.73	7444
1342.988	7433
1345.248	7565
1347.505	7523
1349.763	7466
1352.019	7458
1354.274	7427
1356.53	7563
1358.784	7398
1361.038	7395
1363.291	7535
1365.543	7520
1367.797	7509
1370.048	7564
1372.296	7498
1374.546	7543
1376.796	7530
1379.045	7411
1381.295	7479
1383.542	7554
1385.787	7477
1388.034	7467
1390.28	7627
1392.527	7542
1394.772	7544
1397.014	7582
1399.258	7479
1401.501	7425
1403.741	7580
1405.985	7584
1408.226	7590
1410.465	7584
1412.705	7634
1414.943	7659
1417.184	7579
1419.42	7647
1421.658	7617
1423.894	7552
1426.13	7622
1428.366	7640
1430.602	7529
1432.835	7570
1435.069	7713
1437.301	7682
1439.535	7631
1441.767	7798
1443.997	7738
1446.229	7779
1448.458	7703
1450.687	7726
1452.916	7880
1455.146	7707
1457.372	7781
1459.599	7755
1461.824	7646
1464.051	7819
1466.277	7760
1468.501	7662
1470.725	7694
1472.948	7680
1475.17	7631
1477.393	7730
1479.614	7634
1481.837	7519
1484.057	7536
1486.276	7548
1488.497	7413
1490.715	7507
1492.932	7406
1495.148	7428
1497.364	7517
1499.58	7535
1501.798	7533
1504.012	7349
1506.227	7558
1508.44	7417
1510.653	7499
1512.866	7503
1515.078	7368
1517.289	7445
1519.5	7567
1521.711	7449
1523.92	7438
1526.13	7449
1528.338	7360
1530.544	7410
1532.752	7418
1534.959	7484
1537.165	7571
1539.371	7593
1541.574	7570
1543.779	7607
1545.983	7513
1548.187	7550
1550.39	7517
1552.59	7433
1554.792	7591
1556.991	7637
1559.19	7562
1561.392	7611
1563.59	7644
1565.789	7620
1567.986	7591
1570.182	7747
1572.381	7553
1574.576	7674
1576.771	7585
1578.966	7613
1581.16	7619
1583.354	7684
1585.546	7711
1587.74	7696
1589.931	7633
1592.121	7661
1594.311	7741
1596.502	7610
1598.693	7665
1600.881	7535
1603.069	7673
1605.256	7709
1607.445	7718
1609.631	7829
1611.816	7817
1614.001	7668
1616.186	7777
1618.37	7870
1620.555	7648
1622.737	7741
1624.919	7811
1627.101	7719
1629.282	7720
1631.463	7705
1633.643	7708
1635.822	7799
1638.001	7809
1640.179	7692
1642.359	7696
1644.534	7709
1646.711	7786
1648.887	7669
1651.062	7690
1653.235	7777
1655.412	7700
1657.586	7643
1659.757	7854
1661.93	7799
1664.1	7798
1666.274	7824
1668.445	7780
1670.614	7818
1672.784	7821
1674.951	7741
1677.12	7679
1679.289	7683
1681.457	7824
1683.622	7785
1685.789	7786
1687.953	7791
1690.121	7811
1692.284	7759
1694.447	7685
1696.611	7769
1698.772	7807
1700.935	7850
1703.098	7725
1705.258	7757
1707.417	7639
1709.576	7695
1711.736	7636
1713.896	7656
1716.053	7660
1718.21	7708
1720.366	7779
1722.522	7723
1724.68	7598
1726.835	7694
1728.989	7692
1731.142	7586
1733.295	7670
1735.449	7722
1737.601	7647
1739.753	7665
1741.903	7699
1744.054	7755
1746.203	7610
1748.354	7598
1750.503	7652
1752.651	7748
1754.798	7733
1756.944	7648
1759.092	7705
1761.238	7715
1763.383	7720
1765.528	7786
1767.672	7725
1769.814	7682
1771.959	7653
1774.102	7737
1776.242	7807
1778.384	7700
1780.525	7822
1782.665	7632
1784.805	7744
1786.945	7829
1789.082	7738
1791.22	7797
1793.36	7698
1795.495	7699
1797.632	7775
1799.766	7773
1801.902	7814
1804.035	7779
1806.172	7696
1808.304	7804
1810.436	7806
1812.569	7664
1814.699	7698
1816.833	7631
1818.963	7722
1821.092	7711
1823.222	7812
1825.35	7723
1827.478	7794
1829.608	7789
1831.734	7746
1833.86	7735
1835.986	7782
1838.11	7635
1840.238	7711
1842.362	7594
1844.485	7616
1846.608	7708
1848.73	7771
1850.853	7596
1852.974	7740
1855.097	7663
1857.217	7699
1859.336	7741
1861.455	7737
1863.576	7656
1865.693	7629
1867.811	7752
1869.926	7704
1872.042	7653
1874.16	7642
1876.275	7760
1878.39	7660
1880.504	7676
1882.618	7677
1884.731	7721
1886.843	7818
1888.956	7687
1891.067	7665
1893.178	7768
1895.287	7537
1897.399	7690
1899.508	7857
1901.617	7754
1903.724	7677
1905.832	7713
1907.941	7857
1910.046	7783
1912.152	7697
1914.256	7702
1916.361	7624
1918.464	7757
1920.57	7792
1922.672	7771
1924.775	7764
1926.876	7752
1928.978	7831
1931.08	7799
1933.181	7775
1935.28	7699
1937.38	7781
1939.478	7623
1941.577	7731
1943.675	7787
1945.771	7712
1947.867	7811
1949.964	7827
1952.058	7868
1954.154	7718
1956.248	7704
1958.343	7731
1960.435	7744
1962.527	7726
1964.62	7681
1966.711	7853
1968.802	7762
1970.892	7827
1972.983	7775
1975.072	7728
1977.162	7738
1979.25	7812
1981.337	7644
1983.424	7733
1985.51	7749
1987.598	7641
1989.683	7805
1991.768	7720
1993.852	7749
1995.934	7663
1998.019	7815
2000.102	7674
2002.184	7690
2004.266	7745
2006.347	7509
2008.427	7744
2010.508	7684
2012.587	7529
2014.666	7692
2016.745	7691
2018.821	7678
2020.9	7707
2022.977	7743
2025.052	7563
2027.128	7596
2029.204	7776
2031.277	7690
2033.353	7785
2035.425	7757
2037.499	7579
2039.57	7706
2041.642	7676
2043.714	7603
2045.786	7790
2047.855	7630
2049.925	7665
2051.993	7703
2054.064	7646
2056.132	7621
2058.2	7678
2060.266	7630
2062.332	7620
2064.398	7550
2066.465	7623
2068.529	7671
2070.592	7669
2072.657	7692
2074.719	7626
2076.783	7788
2078.845	7725
2080.907	7638
2082.968	7676
2085.028	7676
2087.087	7673
2089.148	7593
2091.207	7660
2093.264	7739
2095.322	7656
2097.379	7628
2099.439	7601
2101.495	7697
2103.55	7708
2105.605	7737
2107.658	7697
2109.713	7657
2111.767	7798
2113.82	7732
2115.872	7688
2117.924	7641
2119.975	7752
2122.028	7626
2124.078	7727
2126.126	7715
2128.176	7652
2130.225	7655
2132.275	7590
2134.321	7592
2136.368	7589
2138.415	7708
2140.461	7698
2142.505	7605
2144.552	7577
2146.597	7716
2148.64	7659
2150.684	7600
2152.725	7678
2154.77	7598
2156.811	7540
2158.852	7614
2160.894	7550
2162.933	7636
2164.973	7649
2167.013	7618
2169.051	7509
2171.089	7575
2173.126	7597
2175.164	7460
2177.201	7542
2179.236	7525
2181.273	7620
2183.307	7661
2185.341	7617
2187.377	7398
2189.41	7620
2191.442	7518
2193.473	7543
2195.506	7624
2197.539	7566
2199.569	7542
2201.598	7430
2203.628	7549
2205.656	7518
2207.686	7517
2209.716	7506
2211.743	7467
2213.769	7591
2215.796	7402
2217.821	7311
2219.848	7539
2221.873	7473
2223.897	7415
2225.921	7398
2227.944	7460
2229.967	7383
2231.991	7572
2234.011	7577
2236.032	7417
2238.053	7495
2240.073	7499
2242.094	7490
2244.114	7477
2246.131	7476
2248.149	7523
2250.167	7481
2252.186	7444
2254.201	7390
2256.218	7474
2258.233	7463
2260.247	7352
2262.262	7537
2264.278	7492
2266.29	7518
2268.303	7504
2270.315	7516
2272.327	7405
2274.341	7435
2276.35	7595
2278.361	7533
2280.37	7479
2282.38	7433
2284.388	7515
2286.397	7356
2288.405	7633
2290.412	7396
2292.419	7466
2294.425	7390
2296.431	7440
2298.437	7533
2300.441	7504
2302.445	7378
2304.449	7481
2306.453	7525
2308.455	7416
2310.457	7459
2312.459	7429
2314.46	7413
2316.46	7434
2318.461	7341
2320.46	7363
2322.458	7471
2324.458	7342
2326.456	7395
2328.455	7510
2330.451	7322
2332.447	7295
2334.443	7466
2336.438	7348
2338.433	7398
2340.429	7334
2342.422	7393
2344.416	7316
2346.408	7289
2348.399	7321
2350.393	7276
2352.384	7364
2354.375	7223
2356.365	7308
2358.355	7257
2360.344	7354
2362.333	7235
2364.322	7278
2366.309	7328
2368.295	7240
2370.282	7333
2372.27	7325
2374.256	7227
2376.24	7273
2378.225	7191
2380.208	7334
2382.194	7323
2384.177	7101
2386.159	7194
2388.142	7136
2390.122	7184
2392.105	7408
2394.085	7191
2396.066	7212
2398.044	7215
2400.024	7106
2402.002	7106
2403.982	7163
2405.959	7124
2407.935	7156
2409.913	7203
2411.888	7321
2413.865	7086
2415.84	7264
2417.814	7211
2419.788	7316
2421.762	7114
2423.735	7270
2425.708	7174
2427.68	7191
2429.651	7225
2431.623	7183
2433.593	7229
2435.564	7104
2437.533	7182
2439.502	7225
2441.47	7283
2443.438	7179
2445.406	7238
2447.373	7246
2449.34	7150
2451.305	7172
2453.271	7084
2455.235	7161
2457.201	7098
2459.165	7225
2461.129	7208
2463.092	7184
2465.054	7191
2467.018	7114
2468.978	7221
2470.939	7230
2472.899	7126
2474.86	7086
2476.819	7176
2478.778	7069
2480.737	7188
2482.695	7107
2484.653	7056
2486.609	6960
2488.567	7007
2490.524	7170
2492.478	7017
2494.433	6938
2496.387	7146
2498.343	7099
2500.297	7068
2502.249	6936
2504.202	6966
2506.153	7137
2508.105	7020
2510.057	7073
2512.008	7018
2513.957	6970
2515.906	7048
2517.855	7094
2519.805	7029
2521.754	7098
2523.7	7043
2525.647	6979
2527.594	6959
2529.54	7041
2531.486	6987
2533.431	7049
2535.376	7097
2537.32	7015
2539.263	7081
2541.207	7119
2543.151	7064
2545.093	6950
2547.034	7008
2548.975	7131
2550.917	7102
2552.856	6966
2554.796	6978
2556.735	6929
2558.673	7065
2560.611	7051
2562.55	7091
2564.487	7063
2566.424	7006
2568.36	7104
2570.296	6985
2572.232	7022
2574.167	7077
2576.101	7132
2578.035	6968
2579.969	6993
2581.902	6909
2583.834	7080
2585.766	7020
2587.698	7052
2589.628	7046
2591.557	7081
2593.489	6983
2595.419	6976
2597.348	7037
2599.275	6906
2601.204	7110
2603.131	7043
2605.059	7015
2606.986	6995
2608.911	7074
2610.837	7097
2612.76	7007
2614.687	7017
2616.61	6994
2618.534	6970
2620.457	7046
2622.38	7082
2624.302	7042
2626.225	6967
2628.145	7190
2630.067	7014
2631.986	7055
2633.906	7035
2635.827	7098
2637.745	7078
2639.662	7144
2641.581	6917
2643.498	7032
2645.415	7021
2647.331	7051
2649.248	7054
2651.163	7035
2653.077	7028
2654.993	7028
2656.906	6985
2658.821	6927
2660.733	7135
2662.646	7068
2664.557	7045
2666.47	6938
2668.381	6979
2670.291	6929
2672.201	6833
2674.11	7007
2676.021	6938
2677.929	6981
2679.837	6937
2681.745	7009
2683.652	6922
2685.56	6945
2687.466	6929
2689.371	6855
2691.276	6926
2693.181	6959
2695.085	7005
2696.991	6895
2698.893	6884
2700.796	6838
2702.698	6952
2704.601	6958
2706.502	6961
2708.404	6944
2710.304	6869
2712.203	6898
2714.103	6839
2716.003	6885
2717.902	6887
2719.8	6825
2721.697	6805
2723.594	6901
2725.49	6911
2727.389	6771
2729.283	6900
2731.179	6850
2733.073	6866
2734.968	6847
2736.863	6761
2738.757	6913
2740.649	6837
2742.541	6740
2744.433	6779
2746.324	6868
2748.216	6805
2750.107	6814
2751.997	6824
2753.886	6856
2755.776	6769
2757.666	6880
2759.553	6819
2761.44	6777
2763.327	6752
2765.215	6780
2767.102	6798
2768.988	6757
2770.873	6717
2772.757	6950
2774.641	6818
2776.525	6677
2778.41	6657
2780.292	6758
2782.175	6835
2784.057	6733
2785.938	6876
2787.821	6662
2789.701	6756
2791.581	6796
2793.461	6724
2795.34	6712
2797.219	6757
2799.099	6693
2800.975	6602
2802.853	6763
2804.73	6648
2806.606	6666
2808.484	6772
2810.358	6702
2812.233	6766
2814.108	6605
2815.981	6780
2817.857	6648
2819.73	6652
2821.602	6682
2823.474	6644
2825.346	6740
2827.217	6625
2829.089	6676
2830.959	6649
2832.829	6668
2834.698	6714
2836.567	6703
2838.436	6604
2840.305	6759
2842.172	6684
2844.04	6652
2845.905	6710
2847.772	6658
2849.639	6622
2851.503	6650
2853.369	6656
2855.232	6612
2857.096	6531
2858.961	6748
2860.824	6688
2862.686	6692
2864.547	6765
2866.41	6736
2868.272	6778
2870.132	6776
2871.992	6826
2873.851	6826
2875.711	6914
2877.57	6895
2879.429	6903
2881.287	6914
2883.144	6973
2885.001	7009
2886.857	6927
2888.714	6964
2890.57	6941
2892.425	6986
2894.279	6884
2896.133	6828
2897.987	6933
2899.842	6856
2901.694	6823
2903.547	6906
2905.397	7021
2907.249	6999
2909.101	6936
2910.952	7023
2912.802	6956
2914.652	6993
2916.5	6936
2918.35	7058
2920.198	7117
2922.045	7020
2923.893	7141
2925.74	7197
2927.585	7093
2929.433	7152
2931.279	7274
2933.123	7243
2934.968	7286
2936.811	7331
2938.656	7384
2940.5	7220
2942.342	7410
2944.185	7433
2946.026	7404
2947.87	7351
2949.71	7292
2951.549	7350
2953.39	7366
2955.229	7160
2957.069	7290
2958.908	7220
2960.746	7165
2962.584	7074
2964.421	7130
2966.257	7092
2968.094	7096
2969.931	7035
2971.766	6892
2973.601	6927
2975.435	6971
2977.27	6889
2979.105	6874
2980.938	6937
2982.77	6736
2984.602	6745
2986.434	6851
2988.267	6825
2990.097	6725
2991.927	6752
2993.757	6852
2995.587	6812
2997.417	6728
2999.246	6709
3001.074	6562
3002.902	6587
3004.729	6443
3006.556	6530
3008.384	6448
3010.21	6408
3012.036	6479
3013.861	6440
3015.684	6463
3017.51	6388
3019.334	6370
3021.157	6319
3022.981	6323
3024.802	6299
3026.624	6306
3028.448	6289
3030.267	6372
3032.088	6225
3033.909	6310
3035.728	6220
3037.549	6209
3039.368	6364
3041.186	6198
3043.004	6231
3044.821	6133
3046.64	6149
3048.455	6151
3050.272	6327
3052.087	6232
3053.903	6230
3055.717	6173
3057.534	6266
3059.347	6153
3061.16	6139
3062.974	6179
3064.785	6235
3066.598	6147
3068.411	6143
3070.222	6104
3072.032	6121
3073.844	6130
3075.653	6159
3077.463	6163
3079.272	6063
3081.08	6163
3082.889	6104
3084.697	6074
3086.505	6146
3088.312	6166
3090.118	6057
3091.924	5957
3093.729	6051
3095.535	5988
3097.34	6012
3099.144	6041
3100.947	6119
3102.75	5906
3104.553	5965
3106.357	5989
3108.159	6000
3109.961	5925
3111.762	5947
3113.562	6052
3115.365	5917
3117.164	5956
3118.964	5978
3120.761	5944
3122.56	5883
3124.36	5943
3126.158	5950
3127.954	5961
3129.75	5853
3131.547	6008
3133.343	5931
3135.139	5887
3136.934	5886
3138.729	5865
3140.522	5848
3142.317	5862
3144.11	5867
3145.904	5894
3147.695	5856
3149.488	5822
3151.28	5857
3153.07	5918
3154.863	5842
3156.652	5866
3158.441	5903
3160.231	5848
3162.019	5845
3163.81	5807
3165.597	5805
3167.384	5807
3169.172	5745
3170.958	5766
3172.745	5849
3174.532	5762
3176.317	5820
3178.101	5814
3179.885	5822
3181.67	5747
3183.455	5783
3185.238	5746
3187.02	5819
3188.802	5721
3190.585	5676
3192.368	5727
3194.149	5735
3195.929	5824
3197.709	5668
3199.489	5829
3201.268	5649
3203.048	5756
3204.826	5713
3206.604	5651
3208.382	5680
3210.159	5509
3211.937	5725
3213.713	5720
3215.489	5668
3217.263	5742
3219.038	5686
3220.815	5623
3222.589	5698
3224.363	5606
3226.136	5714
3227.908	5641
3229.681	5709
3231.454	5650
3233.226	5681
3234.996	5645
3236.767	5693
3238.538	5647
3240.308	5621
3242.078	5628
3243.847	5558
3245.615	5590
3247.384	5584
3249.15	5634
3250.92	5728
3252.686	5643
3254.453	5626
3256.218	5651
3257.984	5597
3259.75	5617
3261.515	5618
3263.279	5679
3265.044	5607
3266.806	5610
3268.57	5581
3270.334	5629
3272.095	5693
3273.856	5588
3275.619	5646
3277.379	5671
3279.14	5664
3280.9	5490
3282.661	5632
3284.419	5580
3286.178	5638
3287.937	5623
3289.695	5635
3291.453	5694
3293.21	5577
3294.967	5655
3296.723	5598
3298.48	5670
3300.235	5592
3301.99	5592
3303.744	5586
3305.498	5625
3307.253	5566
3309.006	5638
3310.759	5663
3312.511	5637
3314.263	5623
3316.017	5627
3317.768	5597
3319.519	5575
3321.268	5491
3323.018	5534
3324.767	5535
3326.518	5551
3328.267	5601
3330.014	5602
3331.762	5591
3333.509	5627
3335.258	5495
3337.003	5488
3338.75	5505
3340.496	5598
3342.24	5516
3343.987	5567
3345.732	5535
3347.475	5561
3349.219	5602
3350.961	5530
3352.705	5481
3354.448	5530
3356.19	5537
3357.931	5429
3359.672	5431
3361.412	5431
3363.155	5482
3364.894	5496
3366.633	5441
3368.372	5449
3370.11	5409
3371.849	5422
3373.588	5470
3375.325	5354
3377.061	5431
3378.799	5409
3380.534	5331
3382.271	5414
3384.006	5331
3385.741	5463
3387.475	5521
3389.209	5480
3390.944	5372
3392.677	5364
3394.409	5486
3396.143	5298
3397.874	5486
3399.606	5365
3401.338	5243
3403.069	5357
3404.799	5375
3406.528	5399
3408.258	5318
3409.988	5276
3411.717	5287
3413.445	5341
3415.173	5422
3416.899	5247
3418.626	5335
3420.354	5263
3422.08	5342
3423.806	5291
3425.531	5323
3427.255	5347
3428.981	5167
3430.705	5314
3432.429	5283
3434.151	5273
3435.875	5298
3437.599	5264
3439.321	5344
3441.042	5245
3442.763	5341
3444.483	5192
3446.204	5209
3447.926	5199
3449.645	5216
3451.364	5297
3453.082	5245
3454.801	5284
3456.52	5179
3458.238	5242
3459.954	5182
3461.671	5130
3463.387	5216
3465.104	5154
3466.82	5071
3468.534	5139
3470.25	5216
3471.963	5171
3473.676	5212
3475.392	5168
3477.104	5025
3478.817	5056
3480.528	5043
3482.241	5102
3483.954	5080
3485.664	5028
3487.374	5041
3489.084	5054
3490.795	5013
3492.504	5122
3494.214	5007
3495.922	5066
3497.63	5039
3499.338	5077
3501.045	5002
3502.753	5042
3504.459	5088
3506.166	5040
3507.871	4970
3509.576	5009
3511.283	5048
3512.987	4948
3514.691	4928
3516.395	5006
3518.098	4992
3519.8	5029
3521.504	4977
3523.206	4994
3524.908	4955
3526.609	4968
3528.309	4955
3530.011	5035
3531.711	4962
3533.411	4876
3535.109	5009
3536.808	4777
3538.507	4946
3540.206	4821
3541.904	5001
3543.601	4935
3545.297	4913
3546.994	4946
3548.69	4988
3550.387	4963
3552.081	4887
3553.776	4866
3555.47	4812
3557.166	4866
3558.859	4872
3560.553	4871
3562.245	4898
3563.938	4857
3565.629	4847
3567.322	4858
3569.014	4853
3570.704	4867
3572.394	4838
3574.084	4844
3575.775	4805
3577.464	4827
3579.152	4810
3580.842	4772
3582.529	4807
3584.216	4766
3585.905	4807
3587.591	4822
3589.279	4783
3590.964	4755
3592.649	4770
3594.336	4740
3596.021	4749
3597.705	4752
3599.388	4710
3601.072	4672
3602.757	4739
3604.439	4778
3606.122	4640
3607.803	4736
3609.485	4745
3611.167	4698
3612.849	4669
3614.529	4662
3616.208	4686
3617.888	4632
3619.567	4569
3621.247	4692
3622.926	4549
3624.603	4718
3626.281	4600
3627.958	4588
3629.635	4750
3631.312	4714
3632.989	4613
3634.665	4567
3636.339	4591
3638.014	4617
3639.691	4598
3641.364	4598
3643.038	4627
3644.71	4584
3646.384	4635
3648.058	4517
3649.729	4592
3651.402	4505
3653.073	4546
3654.744	4562
3656.414	4582
3658.085	4572
3659.755	4475
3661.424	4539
3663.094	4481
3664.762	4476
3666.431	4534
3668.099	4556
3669.766	4563
3671.433	4538
3673.099	4538
3674.768	4586
3676.433	4492
3678.098	4511
3679.763	4459
3681.428	4421
3683.093	4495
3684.757	4487
3686.421	4429
3688.083	4506
3689.746	4495
3691.408	4546
3693.071	4418
3694.733	4453
3696.394	4468
3698.054	4448
3699.715	4487
3701.375	4511
3703.036	4451
3704.695	4418
3706.354	4394
3708.012	4541
3709.67	4415
3711.329	4476
3712.987	4363
3714.644	4444
3716.299	4408
3717.955	4510
3719.613	4412
3721.268	4399
3722.923	4441
3724.577	4372
3726.231	4386
3727.885	4418
3729.539	4409
3731.192	4453
3732.845	4422
3734.497	4399
3736.149	4312
3737.802	4418
3739.453	4394
3741.104	4391
3742.753	4479
3744.404	4293
3746.052	4323
3747.704	4331
3749.352	4389
3751	4330
3752.648	4393
3754.296	4326
3755.944	4323
3757.59	4381
3759.238	4410
3760.883	4310
3762.528	4220
3764.176	4302
3765.82	4260
3767.464	4251
3769.109	4253
3770.753	4259
3772.396	4253
3774.04	4322
3775.683	4296
3777.325	4322
3778.967	4286
3780.608	4340
3782.25	4219
3783.89	4295
3785.531	4191
3787.17	4248
3788.81	4246
3790.45	4225
3792.09	4248
3793.729	4117
3795.366	4261
3797.003	4251
3798.64	4220
3800.278	4199
3801.915	4135
3803.551	4201
3805.187	4106
3806.822	4234
3808.458	4160
3810.093	4170
3811.726	4223
3813.36	4162
3814.994	4161
3816.627	4141
3818.262	4186
3819.893	4182
3821.525	4139
3823.157	4220
3824.787	4019
3826.42	4213
3828.051	4156
3829.68	4213
3831.31	4076
3832.938	4136
3834.569	4063
3836.198	4105
3837.825	4139
3839.454	4128
3841.08	4135
3842.708	4031
3844.335	4025
3845.962	4093
3847.587	4104
3849.212	4132
3850.838	4052
3852.463	4084
3854.089	4134
3855.712	4104
3857.335	4061
3858.959	4106
3860.582	4102
3862.205	4128
3863.827	4029
3865.449	4115
3867.07	4046
3868.691	4176
3870.312	4047
3871.933	4050
3873.553	4021
3875.173	3964
3876.792	4053
3878.411	4006
3880.03	4007
3881.647	4077
3883.265	4072
3884.882	4003
3886.499	4007
3888.116	3959
3889.732	3978
3891.348	4068
3892.964	4013
3894.579	4036
3896.195	3973
3897.809	3996
3899.423	3952
3901.036	3962
3902.648	3936
3904.261	3953
3905.875	4009
3907.487	3997
3909.099	3884
3910.709	4053
3912.321	3994
3913.933	4011
3915.542	4025
3917.152	3937
3918.762	3987
3920.37	3989
3921.98	3990
3923.589	3904
3925.196	4033
3926.804	3895
3928.41	3901
3930.018	4046
3931.626	3950
3933.231	3920
3934.838	3914
3936.442	4018
3938.046	3848
3939.653	3951
3941.257	3929
3942.861	3886
3944.464	3895
3946.068	3994
3947.67	3867
3949.273	3906
3950.876	3900
3952.477	3914
3954.078	3989
3955.678	3895
3957.281	3938
3958.881	3896
3960.48	3907
3962.079	3829
3963.678	3788
3965.279	3800
3966.877	3929
3968.475	3833
3970.072	3862
3971.669	3849
3973.266	3820
3974.864	3898
3976.459	3853
3978.055	3853
3979.65	3858
3981.245	3876
3982.841	3831
3984.436	3839
3986.03	3799
3987.623	3762
3989.216	3776
3990.809	3800
3992.403	3762
3993.995	3764
3995.586	3762
3997.177	3726
3998.768	3720
4000.361	3711
4001.951	3760
4003.54	3750
4005.13	3725
4006.719	3742
4008.31	3774
4009.897	3766
4011.485	3701
4013.073	3733
4014.66	3739
4016.247	3719
4017.834	3669
4019.421	3694
4021.006	3751
4022.592	3625
4024.178	3614
4025.763	3636
4027.348	3777
4028.932	3611
4030.515	3667
4032.099	3653
4033.682	3581
4035.266	3657
4036.847	3645
4038.429	3678
4040.011	3587
4041.592	3636
4043.173	3626
4044.755	3654
4046.334	3665
4047.913	3544
4049.494	3684
4051.074	3588
4052.652	3547
4054.23	3579
4055.807	3557
4057.385	3605
4058.963	3655
4060.541	3606
4062.117	3599
4063.693	3568
4065.269	3530
4066.844	3639
4068.42	3513
4069.995	3621
4071.569	3551
4073.143	3506
4074.716	3584
4076.291	3544
4077.864	3580
4079.436	3584
4081.009	3579
4082.58	3545
4084.152	3476
4085.723	3471
4087.294	3488
4088.865	3487
4090.435	3576
4092.005	3510
4093.574	3584
4095.143	3457
4096.712	3478
4098.279	3457
4099.848	3557
4101.416	3469
4102.984	3551
4104.55	3497
4106.117	3496
4107.682	3555
4109.248	3405
4110.815	3508
4112.379	3502
4113.945	3561
4115.508	3367
4117.073	3508
4118.637	3500
4120.201	3455
4121.763	3442
4123.325	3494
4124.888	3429
4126.449	3429
4128.013	3460
4129.573	3431
4131.133	3493
4132.694	3459
4134.254	3402
4135.814	3399
4137.374	3330
4138.933	3434
4140.491	3409
4142.049	3365
4143.607	3389
4145.167	3411
4146.724	3476
4148.28	3389
4149.836	3369
4151.392	3350
4152.949	3305
4154.504	3446
4156.059	3412
4157.614	3382
4159.168	3342
4160.723	3380
4162.277	3368
4163.83	3311
4165.383	3336
4166.936	3328
4168.488	3281
4170.041	3370
4171.593	3316
4173.144	3358
4174.695	3342
4176.246	3280
4177.796	3280
4179.346	3316
4180.896	3370
4182.445	3296
4183.994	3302
4185.542	3319
4187.091	3288
4188.639	3263
4190.185	3245
4191.732	3241
4193.279	3205
4194.826	3297
4196.373	3166
4197.918	3319
4199.463	3188
4201.008	3344
4202.553	3290
4204.098	3248
4205.641	3216
4207.185	3253
4208.728	3278
4210.271	3270
4211.814	3220
4213.357	3198
4214.898	3294
4216.439	3176
4217.98	3205
4219.522	3227
4221.062	3197
4222.603	3267
4224.142	3221
4225.681	3172
4227.222	3204
4228.76	3238
4230.298	3260
4231.835	3178
4233.373	3264
4234.911	3214
4236.449	3189
4237.985	3167
4239.521	3182
4241.057	3193
4242.592	3134
4244.128	3108
4245.663	3166
4247.197	3252
4248.731	3164
4250.265	3172
4251.798	3152
4253.333	3117
4254.865	3229
4256.397	3107
4257.93	3164
4259.461	3248
4260.994	3145
4262.525	3141
4264.056	3164
4265.586	3198
4267.115	3160
4268.646	3124
4270.176	3135
4271.705	3097
4273.232	3095
4274.761	3120
4276.289	3051
4277.818	3087
4279.345	3159
4280.872	3085
4282.399	3130
4283.924	3070
4285.452	3056
4286.976	3092
4288.502	3066
4290.026	3046
4291.551	3147
4293.074	3156
4294.6	3103
4296.123	3102
4297.646	3017
4299.168	3080
4300.691	3053
4302.214	3080
4303.736	3070
4305.257	3066
4306.778	3073
4308.299	3013
4309.82	3019
4311.34	3045
4312.86	3053
4314.379	3016
