400.0745	3906
402.597	3948
405.1208	3956
407.6419	3920
410.1623	3997
412.6819	3955
415.201	4009
417.7172	4069
420.2369	4074
422.7538	4142
425.2701	4161
427.7856	4227
430.3005	4201
432.8147	4265
435.3282	4335
437.841	4155
440.3511	4219
442.8625	4282
445.3753	4249
447.8854	4228
450.3927	4204
452.9014	4344
455.4073	4308
457.9146	4259
460.4233	4305
462.9272	4267
465.4325	4211
467.935	4311
470.4389	4314
472.9421	4323
475.4446	4315
477.9444	4144
480.4456	4334
482.944	4247
485.4417	4358
487.9429	4371
490.4393	4356
492.935	4342
495.4321	4348
497.9264	4251
500.4221	4410
502.9171	4331
505.4094	4486
507.9011	4429
510.392	4460
512.8864	4473
515.3759	4455
517.8649	4368
520.3531	4519
522.8406	4362
525.3275	4381
527.8178	4545
530.3033	4358
532.7881	4453
535.2723	4436
537.7558	4501
540.2407	4481
542.7228	4512
545.2043	4419
547.6851	4416
550.1652	4437
552.6467	4536
555.1255	4419
557.6016	4498
560.079	4505
562.5557	4477
565.0318	4520
567.5092	4468
569.984	4623
572.456	4617
574.9294	4640
577.4022	4590
579.8762	4676
582.3456	4684
584.8163	4652
587.2863	4597
589.7557	4585
592.2224	4690
594.6924	4724
597.1578	4672
599.6245	4665
602.0905	4710
604.5538	4691
607.0206	4654
609.4825	4548
611.9459	4560
614.4066	4697
616.8686	4635
619.33	4599
621.7906	4554
624.2487	4649
626.708	4648
629.1647	4725
631.6207	4612
634.0801	4591
636.5348	4619
638.9888	4528
641.4442	4626
643.8969	4625
646.3509	4615
648.8022	4558
651.255	4653
653.705	4662
656.1544	4687
658.6031	4791
661.0532	4686
663.5026	4731
665.9493	4666
668.3954	4704
670.8409	4781
673.2877	4750
675.7318	4730
678.1752	4702
680.618	4759
683.0601	4767
685.5035	4775
687.9444	4786
690.3845	4811
692.824	4783
695.2628	4836
697.701	4866
700.1406	4790
702.5774	4806
705.0116	4786
707.4472	4761
709.8821	4830
712.3183	4833
714.7519	4943
717.1829	4749
719.6151	4844
722.0468	5039
724.4777	4928
726.908	4987
729.3377	4888
731.7667	4901
734.1931	4928
736.6208	4941
739.0498	5012
741.4742	4938
743.9	4954
746.3231	5004
748.7476	5027
751.1713	5056
753.5945	5059
756.015	5185
758.4368	5141
760.856	5185
763.2766	5114
765.6965	5167
768.1157	5125
770.5323	5062
772.9483	5148
775.3656	5155
777.7822	5154
780.1963	5095
782.6116	5158
785.0244	5136
787.4365	5184
789.8499	5215
792.2626	5147
794.6728	5143
797.0823	5054
799.4911	5112
801.8994	5111
804.3109	5150
806.7178	5100
809.124	5129
811.5297	5117
813.9347	5113
816.341	5245
818.7447	5158
821.1478	5204
823.5502	5162
825.952	5172
828.3531	5229
830.7556	5236
833.1554	5226
835.5546	5249
837.9532	5231
840.3511	5156
842.7504	5259
845.1451	5267
847.5411	5225
849.9365	5215
852.3312	5234
854.7272	5339
857.1187	5282
859.5115	5292
861.9037	5207
864.2952	5240
866.6842	5283
869.0764	5265
871.4661	5243
873.8531	5249
876.2415	5338
878.6272	5248
881.0162	5260
883.4026	5367
885.7866	5227
888.1717	5246
890.5543	5288
892.9382	5290
895.3215	5276
897.7041	5262
900.0842	5254
902.4655	5267
904.8443	5380
907.2244	5372
909.6039	5378
911.9808	5296
914.357	5356
916.7346	5378
919.1115	5451
921.4859	5453
923.8616	5469
926.2347	5348
928.6071	5441
930.979	5467
933.3541	5476
935.7247	5671
938.0946	5642
940.4639	5663
942.8326	5691
945.2026	5674
947.5701	5770
949.9369	5829
952.305	6038
954.6705	6247
957.0355	6498
959.4017	6638
961.7654	6647
964.1284	6587
966.4908	6444
968.8527	6341
971.2138	6061
973.5743	5800
975.9343	5694
978.2936	5613
980.6522	5539
983.0122	5504
985.3696	5456
987.7245	5508
990.0807	5461
992.4362	5436
994.7911	5453
997.1474	5481
999.4991	5358
1001.852	5510
1004.205	5484
1006.555	5518
1008.908	5550
1011.258	5510
1013.606	5483
1015.956	5486
1018.302	5488
1020.652	5502
1022.998	5590
1025.345	5545
1027.691	5533
1030.035	5545
1032.378	5575
1034.724	5569
1037.066	5638
1039.409	5609
1041.75	5561
1044.092	5572
1046.433	5653
1048.771	5560
1051.112	5585
1053.449	5621
1055.786	5572
1058.124	5640
1060.462	5619
1062.797	5740
1065.131	5691
1067.467	5669
1069.8	5558
1072.135	5790
1074.467	5699
1076.798	5679
1079.129	5594
1081.459	5681
1083.792	5646
1086.121	5601
1088.449	5591
1090.777	5705
1093.104	5560
1095.431	5552
1097.759	5623
1100.084	5596
1102.408	5618
1104.732	5604
1107.056	5701
1109.379	5511
1111.701	5666
1114.022	5709
1116.343	5662
1118.664	5634
1120.983	5636
1123.303	5698
1125.621	5627
1127.939	5647
1130.256	5626
1132.573	5638
1134.889	5572
1137.205	5571
1139.52	5618
1141.832	5601
1144.146	5597
1146.461	5624
1148.771	5581
1151.083	5664
1153.392	5634
1155.703	5636
1158.011	5516
1160.323	5754
1162.629	5684
1164.938	5652
1167.243	5694
1169.55	5654
1171.857	5607
1174.163	5612
1176.466	5714
1178.769	5632
1181.073	5549
1183.374	5579
1185.677	5555
1187.979	5592
1190.279	5571
1192.578	5585
1194.878	5604
1197.178	5654
1199.476	5674
1201.772	5585
1204.068	5551
1206.366	5819
1208.663	5660
1210.957	5497
1213.251	5745
1215.544	5700
1217.836	5633
1220.128	5589
1222.421	5584
1224.712	5620
1227.002	5792
1229.292	5755
1231.581	5788
1233.871	5691
1236.159	5709
1238.446	5788
1240.732	5675
1243.018	5817
1245.304	5880
1247.59	5743
1249.874	5799
1252.156	5792
1254.439	5844
1256.721	5893
1259.005	5828
1261.286	5928
1263.565	5808
1265.845	5760
1268.125	5833
1270.403	5900
1272.682	5829
1274.959	5851
1277.234	5704
1279.511	5793
1281.787	5836
1284.062	5793
1286.337	5821
1288.609	5820
1290.882	5737
1293.153	5738
1295.428	5761
1297.698	5774
1299.969	5737
1302.237	5742
1304.507	5760
1306.777	5685
1309.044	5681
1311.312	5776
1313.578	5761
1315.844	5702
1318.109	5708
1320.375	5725
1322.638	5696
1324.903	5704
1327.165	5727
1329.427	5773
1331.69	5734
1333.952	5677
1336.212	5663
1338.471	5776
1340.73	5731
1342.988	5774
1345.248	5800
1347.505	5844
1349.763	5719
1352.019	5788
1354.274	5745
1356.53	5749
1358.784	5720
1361.038	5726
1363.291	5843
1365.543	5671
1367.797	5749
1370.048	5828
1372.296	5725
1374.546	5724
1376.796	5771
1379.045	5816
1381.295	5818
1383.542	5769
1385.787	5758
1388.034	5694
1390.28	5788
1392.527	5891
1394.772	5863
1397.014	5858
1399.258	5796
1401.501	5808
1403.741	5817
1405.985	5769
1408.226	5832
1410.465	5773
1412.705	5865
1414.943	5842
1417.184	5914
1419.42	5822
1421.658	5831
1423.894	5806
1426.13	5976
1428.366	5800
1430.602	5929
1432.835	5929
1435.069	5931
1437.301	5913
1439.535	6019
1441.767	5970
1443.997	5933
1446.229	5882
1448.458	5950
1450.687	5954
1452.916	6094
1455.146	6071
1457.372	5899
1459.599	6031
1461.824	6027
1464.051	5996
1466.277	5972
1468.501	5835
1470.725	5913
1472.948	5918
1475.17	5980
1477.393	5920
1479.614	5925
1481.837	5755
1484.057	5834
1486.276	5836
1488.497	5835
1490.715	5802
1492.932	5854
1495.148	5694
1497.364	5740
1499.58	5742
1501.798	5793
1504.012	5728
1506.227	5702
1508.44	5691
1510.653	5764
1512.866	5908
1515.078	5749
1517.289	5813
1519.5	5797
1521.711	5835
1523.92	5776
1526.13	5748
1528.338	5667
1530.544	5792
1532.752	5711
1534.959	5737
1537.165	5671
1539.371	5812
1541.574	5876
1543.779	5749
1545.983	5784
1548.187	5774
1550.39	5863
1552.59	5642
1554.792	5825
1556.991	5680
1559.19	5853
1561.392	5874
1563.59	5717
1565.789	5862
1567.986	5969
1570.182	5848
1572.381	5914
1574.576	5873
1576.771	5928
1578.966	5814
1581.16	5921
1583.354	5985
1585.546	5895
1587.74	5952
1589.931	5936
1592.121	5899
1594.311	5922
1596.502	5945
1598.693	5989
1600.881	5880
1603.069	5992
1605.256	6023
1607.445	6085
1609.631	5920
1611.816	6021
1614.001	5949
1616.186	5931
1618.37	5982
1620.555	5965
1622.737	5983
1624.919	6078
1627.101	5972
1629.282	5996
1631.463	5988
1633.643	5981
1635.822	5927
1638.001	6125
1640.179	5948
1642.359	6061
1644.534	6030
1646.711	6025
1648.887	5995
1651.062	5946
1653.235	6022
1655.412	5970
1657.586	5985
1659.757	6051
1661.93	6076
1664.1	6026
1666.274	6156
1668.445	6056
1670.614	6050
1672.784	6006
1674.951	6161
1677.12	6120
1679.289	6064
1681.457	6104
1683.622	5982
1685.789	6078
1687.953	6015
1690.121	6008
1692.284	5911
1694.447	6041
1696.611	6050
1698.772	5955
1700.935	5936
1703.098	6063
1705.258	6002
1707.417	5857
1709.576	5834
1711.736	5819
1713.896	5967
1716.053	5955
1718.21	5926
1720.366	5907
1722.522	5852
1724.68	5835
1726.835	5803
1728.989	5857
1731.142	5891
1733.295	5980
1735.449	5964
1737.601	5927
1739.753	5904
1741.903	5884
1744.054	5937
1746.203	5934
1748.354	5954
1750.503	5943
1752.651	5978
1754.798	5968
1756.944	5983
1759.092	5961
1761.238	5950
1763.383	5953
1765.528	5885
1767.672	5935
1769.814	5891
1771.959	5840
1774.102	5980
1776.242	5869
1778.384	6033
1780.525	6033
1782.665	5871
1784.805	6042
1786.945	5899
1789.082	6001
1791.22	5918
1793.36	6035
1795.495	6020
1797.632	6009
1799.766	5876
1801.902	5888
1804.035	5938
1806.172	5980
1808.304	5979
1810.436	5947
1812.569	6008
1814.699	5952
1816.833	5967
1818.963	5860
1821.092	5929
1823.222	5945
1825.35	5998
1827.478	5949
1829.608	5912
1831.734	5878
1833.86	5919
1835.986	5874
1838.11	5847
1840.238	5822
1842.362	5846
1844.485	6001
1846.608	5916
1848.73	5935
1850.853	5961
1852.974	5875
1855.097	5940
1857.217	6001
1859.336	5921
1861.455	6013
1863.576	5900
1865.693	5943
1867.811	5940
1869.926	5876
1872.042	5929
1874.16	5786
1876.275	5893
1878.39	5798
1880.504	5849
1882.618	5948
1884.731	5951
1886.843	5844
1888.956	5897
1891.067	5899
1893.178	5921
1895.287	6003
1897.399	5943
1899.508	5989
1901.617	5980
1903.724	6026
1905.832	5977
1907.941	5949
1910.046	6032
1912.152	5909
1914.256	5948
1916.361	5963
1918.464	5983
1920.57	5947
1922.672	5893
1924.775	6014
1926.876	5947
1928.978	5990
1931.08	5918
1933.181	5904
1935.28	5989
1937.38	5954
1939.478	6048
1941.577	5983
1943.675	6093
1945.771	5989
1947.867	5940
1949.964	6003
1952.058	6059
1954.154	6010
1956.248	6001
1958.343	5858
1960.435	5836
1962.527	6031
1964.62	5922
1966.711	6015
1968.802	5992
1970.892	5962
1972.983	5926
1975.072	5890
1977.162	5983
1979.25	6022
1981.337	5958
1983.424	5914
1985.51	5914
1987.598	5974
1989.683	6045
1991.768	5947
1993.852	5848
1995.934	5967
1998.019	5873
2000.102	5927
2002.184	5875
2004.266	5845
2006.347	5898
2008.427	5934
2010.508	5875
2012.587	5853
2014.666	5880
2016.745	5894
2018.821	5991
2020.9	5974
2022.977	5833
2025.052	5792
2027.128	5846
2029.204	5883
2031.277	5954
2033.353	5900
2035.425	6011
2037.499	5927
2039.57	5854
2041.642	5837
2043.714	5877
2045.786	5883
2047.855	5917
2049.925	5850
2051.993	5831
2054.064	5877
2056.132	5955
2058.2	5857
2060.266	6063
2062.332	5943
2064.398	5797
2066.465	5997
2068.529	5951
2070.592	5943
2072.657	5908
2074.719	5877
2076.783	5787
2078.845	5917
2080.907	5901
2082.968	5999
2085.028	5929
2087.087	5833
2089.148	5962
2091.207	5940
2093.264	5905
2095.322	5838
2097.379	5915
2099.439	5930
2101.495	5936
2103.55	5901
2105.605	5879
2107.658	5969
2109.713	5829
2111.767	5774
2113.82	5904
2115.872	5992
2117.924	5984
2119.975	5909
2122.028	5922
2124.078	6028
2126.126	5902
2128.176	5838
2130.225	5776
2132.275	5874
2134.321	5864
2136.368	5841
2138.415	5925
2140.461	5850
2142.505	5928
2144.552	5850
2146.597	5784
2148.64	5862
2150.684	5830
2152.725	5960
2154.77	5856
2156.811	5881
2158.852	5992
2160.894	5840
2162.933	5826
2164.973	5808
2167.013	5835
2169.051	5813
2171.089	5760
2173.126	5899
2175.164	5671
2177.201	5850
2179.236	5765
2181.273	5820
2183.307	5780
2185.341	5728
2187.377	5750
2189.41	5879
2191.442	5726
2193.473	5675
2195.506	5731
2197.539	5793
2199.569	5776
2201.598	5759
2203.628	5733
2205.656	5765
2207.686	5678
2209.716	5739
2211.743	5706
2213.769	5574
2215.796	5691
2217.821	5737
2219.848	5774
2221.873	5623
2223.897	5711
2225.921	5672
2227.944	5668
2229.967	5774
2231.991	5691
2234.011	5805
2236.032	5678
2238.053	5680
2240.073	5661
2242.094	5681
2244.114	5694
2246.131	5662
2248.149	5746
2250.167	5704
2252.186	5599
2254.201	5874
2256.218	5726
2258.233	5714
2260.247	5819
2262.262	5742
2264.278	5742
2266.29	5693
2268.303	5623
2270.315	5786
2272.327	5650
2274.341	5645
2276.35	5715
2278.361	5721
2280.37	5642
2282.38	5712
2284.388	5715
2286.397	5747
2288.405	5717
2290.412	5614
2292.419	5665
2294.425	5676
2296.431	5609
2298.437	5677
2300.441	5677
2302.445	5604
2304.449	5696
2306.453	5766
2308.455	5581
2310.457	5665
2312.459	5830
2314.46	5673
2316.46	5728
2318.461	5648
2320.46	5703
2322.458	5605
2324.458	5623
2326.456	5629
2328.455	5630
2330.451	5626
2332.447	5569
2334.443	5606
2336.438	5638
2338.433	5597
2340.429	5669
2342.422	5557
2344.416	5613
2346.408	5658
2348.399	5638
2350.393	5677
2352.384	5598
2354.375	5586
2356.365	5534
2358.355	5608
2360.344	5535
2362.333	5624
2364.322	5603
2366.309	5564
2368.295	5518
2370.282	5625
2372.27	5662
2374.256	5517
2376.24	5535
2378.225	5532
2380.208	5520
2382.194	5551
2384.177	5486
2386.159	5378
2388.142	5445
2390.122	5477
2392.105	5571
2394.085	5500
2396.066	5512
2398.044	5540
2400.024	5413
2402.002	5451
2403.982	5530
2405.959	5478
2407.935	5475
2409.913	5380
2411.888	5466
2413.865	5348
2415.84	5399
2417.814	5483
2419.788	5508
2421.762	5376
2423.735	5445
2425.708	5441
2427.68	5460
2429.651	5536
2431.623	5599
2433.593	5425
2435.564	5527
2437.533	5579
2439.502	5495
2441.47	5513
2443.438	5433
2445.406	5526
2447.373	5455
2449.34	5442
2451.305	5398
2453.271	5380
2455.235	5368
2457.201	5435
2459.165	5523
2461.129	5491
2463.092	5456
2465.054	5356
2467.018	5469
2468.978	5504
2470.939	5374
2472.899	5354
2474.86	5364
2476.819	5466
2478.778	5409
2480.737	5396
2482.695	5453
2484.653	5323
2486.609	5356
2488.567	5325
2490.524	5348
2492.478	5407
2494.433	5427
2496.387	5359
2498.343	5434
2500.297	5269
2502.249	5391
2504.202	5313
2506.153	5294
2508.105	5404
2510.057	5341
2512.008	5401
2513.957	5332
2515.906	5310
2517.855	5336
2519.805	5313
2521.754	5322
2523.7	5359
2525.647	5344
2527.594	5284
2529.54	5415
2531.486	5331
2533.431	5303
2535.376	5437
2537.32	5346
2539.263	5438
2541.207	5201
2543.151	5307
2545.093	5346
2547.034	5345
2548.975	5368
2550.917	5354
2552.856	5267
2554.796	5313
2556.735	5418
2558.673	5316
2560.611	5328
2562.55	5255
2564.487	5280
2566.424	5327
2568.36	5269
2570.296	5390
2572.232	5310
2574.167	5402
2576.101	5247
2578.035	5307
2579.969	5295
2581.902	5346
2583.834	5261
2585.766	5334
2587.698	5355
2589.628	5324
2591.557	5280
2593.489	5345
2595.419	5282
2597.348	5271
2599.275	5337
2601.204	5327
2603.131	5332
2605.059	5336
2606.986	5384
2608.911	5306
2610.837	5360
2612.76	5410
2614.687	5312
2616.61	5344
2618.534	5305
2620.457	5410
2622.38	5307
2624.302	5330
2626.225	5312
2628.145	5268
2630.067	5355
2631.986	5272
2633.906	5341
2635.827	5312
2637.745	5374
2639.662	5324
2641.581	5360
2643.498	5446
2645.415	5368
2647.331	5310
2649.248	5314
2651.163	5325
2653.077	5354
2654.993	5251
2656.906	5325
2658.821	5286
2660.733	5251
2662.646	5268
2664.557	5243
2666.47	5302
2668.381	5294
2670.291	5318
2672.201	5192
2674.11	5256
2676.021	5335
2677.929	5300
2679.837	5294
2681.745	5279
2683.652	5324
2685.56	5133
2687.466	5282
2689.371	5347
2691.276	5246
2693.181	5278
2695.085	5232
2696.991	5174
2698.893	5237
2700.796	5214
2702.698	5194
2704.601	5189
2706.502	5220
2708.404	5204
2710.304	5118
2712.203	5151
2714.103	5197
2716.003	5243
2717.902	5254
2719.8	5227
2721.697	5113
2723.594	5178
2725.49	5215
2727.389	5232
2729.283	5201
2731.179	5163
2733.073	5304
2734.968	5140
2736.863	5227
2738.757	5209
2740.649	5184
2742.541	5174
2744.433	5272
2746.324	5129
2748.216	5190
2750.107	5109
2751.997	5163
2753.886	5001
2755.776	5199
2757.666	5214
2759.553	5166
2761.44	5054
2763.327	5056
2765.215	5109
2767.102	5107
2768.988	5160
2770.873	5141
2772.757	5062
2774.641	5121
2776.525	5073
2778.41	5125
2780.292	5150
2782.175	5058
2784.057	5084
2785.938	5129
2787.821	5090
2789.701	5076
2791.581	5110
2793.461	5053
2795.34	5036
2797.219	5000
2799.099	5051
2800.975	5096
2802.853	5133
2804.73	4983
2806.606	5110
2808.484	5140
2810.358	5023
2812.233	4948
2814.108	5023
2815.981	5099
2817.857	5064
2819.73	5103
2821.602	5050
2823.474	5059
2825.346	5010
2827.217	4986
2829.089	5100
2830.959	5098
2832.829	5176
2834.698	5018
2836.567	5077
2838.436	4989
2840.305	5145
2842.172	5006
2844.04	5114
2845.905	5107
2847.772	5000
2849.639	5137
2851.503	5081
2853.369	4956
2855.232	5048
2857.096	5077
2858.961	5042
2860.824	5064
2862.686	5090
2864.547	5117
2866.41	5125
2868.272	5204
2870.132	5217
2871.992	5172
2873.851	5230
2875.711	5237
2877.57	5229
2879.429	5280
2881.287	5310
2883.144	5209
2885.001	5299
2886.857	5264
2888.714	5343
2890.57	5312
2892.425	5194
2894.279	5297
2896.133	5250
2897.987	5266
2899.842	5328
2901.694	5314
2903.547	5228
2905.397	5202
2907.249	5330
2909.101	5274
2910.952	5334
2912.802	5314
2914.652	5291
2916.5	5305
2918.35	5380
2920.198	5480
2922.045	5552
2923.893	5453
2925.74	5563
2927.585	5592
2929.433	5572
2931.279	5642
2933.123	5573
2934.968	5799
2936.811	5711
2938.656	5622
2940.5	5831
2942.342	5730
2944.185	5736
2946.026	5779
2947.87	5904
2949.71	5738
2951.549	5738
2953.39	5706
2955.229	5642
2957.069	5613
2958.908	5626
2960.746	5642
2962.584	5568
2964.421	5375
2966.257	5449
2968.094	5429
2969.931	5413
2971.766	5272
2973.601	5353
2975.435	5360
2977.27	5407
2979.105	5273
2980.938	5255
2982.77	5300
2984.602	5351
2986.434	5256
2988.267	5342
2990.097	5316
2991.927	5209
2993.757	5205
2995.587	5246
2997.417	5139
2999.246	5123
3001.074	5129
3002.902	5082
3004.729	5017
3006.556	5014
3008.384	5034
3010.21	4964
3012.036	4903
3013.861	4914
3015.684	4850
3017.51	4844
3019.334	4833
3021.157	4806
3022.981	4837
3024.802	4830
3026.624	4816
3028.448	4744
3030.267	4814
3032.088	4738
3033.909	4734
3035.728	4769
3037.549	4827
3039.368	4735
3041.186	4751
3043.004	4698
3044.821	4728
3046.64	4730
3048.455	4649
3050.272	4721
3052.087	4792
3053.903	4810
3055.717	4730
3057.534	4737
3059.347	4675
3061.16	4698
3062.974	4750
3064.785	4691
3066.598	4650
3068.411	4773
3070.222	4709
3072.032	4674
3073.844	4636
3075.653	4631
3077.463	4696
3079.272	4646
3081.08	4671
3082.889	4641
3084.697	4644
3086.505	4682
3088.312	4618
3090.118	4607
3091.924	4549
3093.729	4686
3095.535	4523
3097.34	4564
3099.144	4576
3100.947	4527
3102.75	4589
3104.553	4577
3106.357	4610
3108.159	4532
3109.961	4621
3111.762	4550
3113.562	4531
3115.365	4473
3117.164	4482
3118.964	4578
3120.761	4424
3122.56	4538
3124.36	4490
3126.158	4526
3127.954	4486
3129.75	4520
3131.547	4420
3133.343	4515
3135.139	4434
3136.934	4523
3138.729	4439
3140.522	4498
3142.317	4392
3144.11	4420
3145.904	4488
3147.695	4419
3149.488	4384
3151.28	4485
3153.07	4432
3154.863	4425
3156.652	4502
3158.441	4396
3160.231	4483
3162.019	4492
3163.81	4334
3165.597	4413
3167.384	4405
3169.172	4483
3170.958	4429
3172.745	4382
3174.532	4433
3176.317	4382
3178.101	4292
3179.885	4350
3181.67	4428
3183.455	4473
3185.238	4367
3187.02	4389
3188.802	4398
3190.585	4389
3192.368	4272
3194.149	4375
3195.929	4412
3197.709	4338
3199.489	4321
3201.268	4311
3203.048	4410
3204.826	4502
3206.604	4338
3208.382	4277
3210.159	4338
3211.937	4291
3213.713	4320
3215.489	4348
3217.263	4394
3219.038	4411
3220.815	4369
3222.589	4326
3224.363	4374
3226.136	4379
3227.908	4306
3229.681	4344
3231.454	4476
3233.226	4406
3234.996	4381
3236.767	4318
3238.538	4269
3240.308	4283
3242.078	4329
3243.847	4346
3245.615	4407
3247.384	4305
3249.15	4348
3250.92	4235
3252.686	4291
3254.453	4320
3256.218	4259
3257.984	4168
3259.75	4246
3261.515	4313
3263.279	4249
3265.044	4342
3266.806	4337
3268.57	4287
3270.334	4271
3272.095	4290
3273.856	4409
3275.619	4316
3277.379	4295
3279.14	4360
3280.9	4351
3282.661	4278
3284.419	4327
3286.178	4260
3287.937	4278
3289.695	4306
3291.453	4338
3293.21	4359
3294.967	4329
3296.723	4310
3298.48	4440
3300.235	4313
3301.99	4327
3303.744	4343
3305.498	4373
3307.253	4279
3309.006	4308
3310.759	4343
3312.511	4279
3314.263	4314
3316.017	4311
3317.768	4277
3319.519	4186
3321.268	4347
3323.018	4239
3324.767	4314
3326.518	4244
3328.267	4276
3330.014	4280
3331.762	4313
3333.509	4378
3335.258	4313
3337.003	4312
3338.75	4255
3340.496	4247
3342.24	4285
3343.987	4337
3345.732	4248
3347.475	4217
3349.219	4283
3350.961	4182
3352.705	4183
3354.448	4287
3356.19	4268
3357.931	4225
3359.672	4237
3361.412	4143
3363.155	4076
3364.894	4164
3366.633	4159
3368.372	4123
3370.11	4251
3371.849	4160
3373.588	4158
3375.325	4145
3377.061	4238
3378.799	4172
3380.534	4194
3382.271	4128
3384.006	4129
3385.741	4224
3387.475	4142
3389.209	4164
3390.944	4116
3392.677	4120
3394.409	4217
3396.143	4085
3397.874	4079
3399.606	4066
3401.338	4163
3403.069	4145
3404.799	4201
3406.528	4132
3408.258	4076
3409.988	4034
3411.717	4171
3413.445	4041
3415.173	4036
3416.899	4120
3418.626	4133
3420.354	4151
3422.08	4075
3423.806	4132
3425.531	4030
3427.255	4034
3428.981	4093
3430.705	3977
3432.429	4082
3434.151	4046
3435.875	4051
3437.599	4034
3439.321	4024
3441.042	4084
3442.763	3939
3444.483	3983
3446.204	3986
3447.926	4073
3449.645	4064
3451.364	4066
3453.082	3966
3454.801	4029
3456.52	3950
3458.238	3945
3459.954	3956
3461.671	3982
3463.387	3988
3465.104	3987
3466.82	3993
3468.534	4025
3470.25	3962
3471.963	3863
3473.676	3927
3475.392	3937
3477.104	3996
3478.817	3894
3480.528	3877
3482.241	3915
3483.954	3874
3485.664	3916
3487.374	3896
3489.084	3945
3490.795	3830
3492.504	3868
3494.214	3840
3495.922	3849
3497.63	3857
3499.338	3905
3501.045	3812
3502.753	3855
3504.459	3847
3506.166	3850
3507.871	3777
3509.576	3746
3511.283	3856
3512.987	3835
3514.691	3866
3516.395	3801
3518.098	3808
3519.8	3840
3521.504	3811
3523.206	3800
3524.908	3844
3526.609	3797
3528.309	3746
3530.011	3790
3531.711	3792
3533.411	3754
3535.109	3787
3536.808	3781
3538.507	3746
3540.206	3682
3541.904	3781
3543.601	3827
3545.297	3828
3546.994	3752
3548.69	3728
3550.387	3646
3552.081	3728
3553.776	3688
3555.47	3768
3557.166	3659
3558.859	3796
3560.553	3679
3562.245	3762
3563.938	3712
3565.629	3772
3567.322	3670
3569.014	3755
3570.704	3720
3572.394	3695
3574.084	3733
3575.775	3657
3577.464	3716
3579.152	3730
3580.842	3682
3582.529	3709
3584.216	3559
3585.905	3566
3587.591	3665
3589.279	3609
3590.964	3684
3592.649	3683
3594.336	3615
3596.021	3568
3597.705	3572
3599.388	3660
3601.072	3655
3602.757	3556
3604.439	3605
3606.122	3598
3607.803	3629
3609.485	3693
3611.167	3592
3612.849	3609
3614.529	3476
3616.208	3541
3617.888	3603
3619.567	3571
3621.247	3596
3622.926	3531
3624.603	3516
3626.281	3592
3627.958	3512
3629.635	3531
3631.312	3644
3632.989	3497
3634.665	3487
3636.339	3511
3638.014	3583
3639.691	3475
3641.364	3545
3643.038	3476
3644.71	3509
3646.384	3515
3648.058	3435
3649.729	3483
3651.402	3374
3653.073	3512
3654.744	3510
3656.414	3450
3658.085	3418
3659.755	3399
3661.424	3419
3663.094	3410
3664.762	3437
3666.431	3453
3668.099	3449
3669.766	3363
3671.433	3397
3673.099	3410
3674.768	3466
3676.433	3408
3678.098	3416
3679.763	3382
3681.428	3461
3683.093	3352
3684.757	3434
3686.421	3410
3688.083	3433
3689.746	3303
3691.408	3457
3693.071	3465
3694.733	3357
3696.394	3365
3698.054	3422
3699.715	3376
3701.375	3378
3703.036	3401
3704.695	3470
3706.354	3348
3708.012	3385
3709.67	3394
3711.329	3340
3712.987	3412
3714.644	3348
3716.299	3416
3717.955	3382
3719.613	3414
3721.268	3426
3722.923	3337
3724.577	3367
3726.231	3338
3727.885	3317
3729.539	3315
3731.192	3337
3732.845	3351
3734.497	3206
3736.149	3339
3737.802	3332
3739.453	3280
3741.104	3268
3742.753	3359
3744.404	3355
3746.052	3302
3747.704	3167
3749.352	3298
3751	3344
3752.648	3290
3754.296	3320
3755.944	3277
3757.59	3265
3759.238	3237
3760.883	3358
3762.528	3269
3764.176	3276
3765.82	3261
3767.464	3220
3769.109	3269
3770.753	3311
3772.396	3253
3774.04	3226
3775.683	3192
3777.325	3223
3778.967	3256
3780.608	3250
3782.25	3261
3783.89	3221
3785.531	3176
3787.17	3220
3788.81	3200
3790.45	3215
3792.09	3229
3793.729	3190
3795.366	3190
3797.003	3191
3798.64	3234
3800.278	3201
3801.915	3162
3803.551	3180
3805.187	3135
3806.822	3154
3808.458	3200
3810.093	3168
3811.726	3117
3813.36	3181
3814.994	3240
3816.627	3098
3818.262	3131
3819.893	3161
3821.525	3164
3823.157	3165
3824.787	3161
3826.42	3134
3828.051	3174
3829.68	3069
3831.31	3103
3832.938	3216
3834.569	3129
3836.198	3110
3837.825	3235
3839.454	3093
3841.08	3076
3842.708	3087
3844.335	3122
3845.962	3078
3847.587	3092
3849.212	3088
3850.838	3073
3852.463	3123
3854.089	3077
3855.712	3086
3857.335	3076
3858.959	3068
3860.582	3088
3862.205	3092
3863.827	3040
3865.449	3087
3867.07	3098
3868.691	3044
3870.312	3077
3871.933	3076
3873.553	3119
3875.173	3045
3876.792	3098
3878.411	3093
3880.03	3057
3881.647	3054
3883.265	3060
3884.882	3017
3886.499	3049
3888.116	3124
3889.732	2969
3891.348	3079
3892.964	3037
3894.579	3009
3896.195	3040
3897.809	2988
3899.423	2964
3901.036	2984
3902.648	3006
3904.261	3047
3905.875	3021
3907.487	3002
3909.099	3103
3910.709	3012
3912.321	2975
3913.933	3107
3915.542	2963
3917.152	2955
3918.762	2935
3920.37	3024
3921.98	2936
3923.589	2979
3925.196	2959
3926.804	2952
3928.41	3055
3930.018	3015
3931.626	2970
3933.231	3049
3934.838	3030
3936.442	2959
3938.046	2998
3939.653	2956
3941.257	2912
3942.861	2969
3944.464	2917
3946.068	2982
3947.67	2920
3949.273	2991
3950.876	2941
3952.477	2908
3954.078	2956
3955.678	2936
3957.281	2928
3958.881	2938
3960.48	2931
3962.079	2910
3963.678	2952
3965.279	2953
3966.877	2957
3968.475	2881
3970.072	2943
3971.669	2921
3973.266	2962
3974.864	2909
3976.459	2921
3978.055	2901
3979.65	2935
3981.245	2829
3982.841	2815
3984.436	2913
3986.03	2887
3987.623	2841
3989.216	2859
3990.809	2891
3992.403	2834
3993.995	2892
3995.586	2852
3997.177	2848
3998.768	2877
4000.361	2829
4001.951	2809
4003.54	2837
4005.13	2889
4006.719	2804
4008.31	2868
4009.897	2847
4011.485	2793
4013.073	2832
4014.66	2844
4016.247	2814
4017.834	2803
4019.421	2828
4021.006	2814
4022.592	2766
4024.178	2771
4025.763	2816
4027.348	2807
4028.932	2807
4030.515	2747
4032.099	2725
4033.682	2792
4035.266	2806
4036.847	2811
4038.429	2775
4040.011	2659
4041.592	2761
4043.173	2788
4044.755	2764
4046.334	2721
4047.913	2754
4049.494	2781
4051.074	2708
4052.652	2733
4054.23	2753
4055.807	2747
4057.385	2753
4058.963	2724
4060.541	2742
4062.117	2759
4063.693	2690
4065.269	2674
4066.844	2709
4068.42	2738
4069.995	2694
4071.569	2739
4073.143	2597
4074.716	2699
4076.291	2722
4077.864	2759
4079.436	2752
4081.009	2687
4082.58	2655
4084.152	2760
4085.723	2736
4087.294	2772
4088.865	2710
4090.435	2731
4092.005	2597
4093.574	2692
4095.143	2747
4096.712	2643
4098.279	2694
4099.848	2641
4101.416	2687
4102.984	2663
4104.55	2688
4106.117	2616
4107.682	2613
4109.248	2679
4110.815	2646
4112.379	2663
4113.945	2646
4115.508	2664
4117.073	2627
4118.637	2623
4120.201	2601
4121.763	2653
4123.325	2630
4124.888	2639
4126.449	2646
4128.013	2575
4129.573	2584
4131.133	2613
4132.694	2559
4134.254	2536
4135.814	2594
4137.374	2604
4138.933	2574
4140.491	2659
4142.049	2551
4143.607	2624
4145.167	2625
4146.724	2599
4148.28	2584
4149.836	2612
4151.392	2588
4152.949	2543
4154.504	2519
4156.059	2602
4157.614	2548
4159.168	2529
4160.723	2500
4162.277	2593
4163.83	2514
4165.383	2557
4166.936	2469
4168.488	2564
4170.041	2576
4171.593	2503
4173.144	2550
4174.695	2533
4176.246	2520
4177.796	2479
4179.346	2518
4180.896	2474
4182.445	2503
4183.994	2516
4185.542	2482
4187.091	2460
4188.639	2428
4190.185	2510
4191.732	2446
4193.279	2481
4194.826	2462
4196.373	2489
4197.918	2472
4199.463	2488
4201.008	2509
4202.553	2426
4204.098	2470
4205.641	2580
4207.185	2508
4208.728	2448
4210.271	2421
4211.814	2436
4213.357	2525
4214.898	2478
4216.439	2462
4217.98	2523
4219.522	2376
4221.062	2500
4222.603	2481
4224.142	2481
4225.681	2469
4227.222	2430
4228.76	2454
4230.298	2440
4231.835	2404
4233.373	2430
4234.911	2486
4236.449	2445
4237.985	2397
4239.521	2433
4241.057	2395
4242.592	2311
4244.128	2388
4245.663	2448
4247.197	2446
4248.731	2397
4250.265	2355
4251.798	2387
4253.333	2416
4254.865	2406
4256.397	2407
4257.93	2375
4259.461	2346
4260.994	2358
4262.525	2372
4264.056	2399
4265.586	2391
4267.115	2413
4268.646	2475
4270.176	2353
4271.705	2391
4273.232	2377
4274.761	2355
4276.289	2346
4277.818	2378
4279.345	2377
4280.872	2275
4282.399	2354
4283.924	2340
4285.452	2371
4286.976	2299
4288.502	2346
4290.026	2382
4291.551	2430
4293.074	2342
4294.6	2349
4296.123	2335
4297.646	2317
4299.168	2356
4300.691	2330
4302.214	2344
4303.736	2340
4305.257	2345
4306.778	2321
4308.299	2321
4309.82	2358
4311.34	2329
4312.86	2299
4314.379	2289
