400.0745	6718
402.597	6788
405.1208	6813
407.6419	6927
410.1623	6890
412.6819	6883
415.201	6889
417.7172	6905
420.2369	7034
422.7538	7068
425.2701	7155
427.7856	7239
430.3005	7240
432.8147	7250
435.3282	7373
437.841	7324
440.3511	7212
442.8625	7251
445.3753	7329
447.8854	7284
450.3927	7375
452.9014	7308
455.4073	7288
457.9146	7304
460.4233	7454
462.9272	7181
465.4325	7264
467.935	7356
470.4389	7363
472.9421	7340
475.4446	7446
477.9444	7448
480.4456	7488
482.944	7480
485.4417	7423
487.9429	7383
490.4393	7347
492.935	7584
495.4321	7562
497.9264	7479
500.4221	7599
502.9171	7732
505.4094	7650
507.9011	7503
510.392	7488
512.8864	7689
515.3759	7643
517.8649	7675
520.3531	7619
522.8406	7678
525.3275	7634
527.8178	7739
530.3033	7639
532.7881	7640
535.2723	7702
537.7558	7661
540.2407	7590
542.7228	7701
545.2043	7725
547.6851	7733
550.1652	7612
552.6467	7698
555.1255	7724
557.6016	7566
560.079	7627
562.5557	7725
565.0318	7700
567.5092	7649
569.984	7885
572.456	7828
574.9294	7854
577.4022	7938
579.8762	7959
582.3456	7923
584.8163	7998
587.2863	7917
589.7557	8115
592.2224	7970
594.6924	7951
597.1578	7912
599.6245	8035
602.0905	7888
604.5538	7953
607.0206	7916
609.4825	7944
611.9459	7936
614.4066	7877
616.8686	7963
619.33	7899
621.7906	7919
624.2487	7886
626.708	8007
629.1647	7906
631.6207	8058
634.0801	8085
636.5348	8049
638.9888	7954
641.4442	7988
643.8969	7944
646.3509	7945
648.8022	8029
651.255	7947
653.705	8050
656.1544	8105
658.6031	8075
661.0532	8116
663.5026	8000
665.9493	8049
668.3954	8170
670.8409	8214
673.2877	8229
675.7318	8101
678.1752	8249
680.618	8123
683.0601	8235
685.5035	8201
687.9444	8172
690.3845	8297
692.824	8310
695.2628	8277
697.701	8252
700.1406	8237
702.5774	8425
705.0116	8379
707.4472	8461
709.8821	8448
712.3183	8368
714.7519	8362
717.1829	8299
719.6151	8486
722.0468	8384
724.4777	8440
726.908	8451
729.3377	8531
731.7667	8587
734.1931	8508
736.6208	8483
739.0498	8695
741.4742	8587
743.9	8539
746.3231	8657
748.7476	8707
751.1713	8892
753.5945	8778
756.015	8684
758.4368	8915
760.856	8822
763.2766	8798
765.6965	8935
768.1157	8658
770.5323	8950
772.9483	9144
775.3656	8867
777.7822	8953
780.1963	8807
782.6116	8838
785.0244	8886
787.4365	8975
789.8499	8896
792.2626	8848
794.6728	8847
797.0823	9069
799.4911	8998
801.8994	8876
804.3109	8930
806.7178	8962
809.124	8902
811.5297	9025
813.9347	8861
816.341	9071
818.7447	8888
821.1478	8961
823.5502	9001
825.952	8967
828.3531	9028
830.7556	9031
833.1554	9017
835.5546	9032
837.9532	9056
840.3511	9070
842.7504	9066
845.1451	9044
847.5411	9121
849.9365	9046
852.3312	9060
854.7272	9160
857.1187	9062
859.5115	9005
861.9037	9177
864.2952	9076
866.6842	8978
869.0764	9051
871.4661	9142
873.8531	8993
876.2415	8998
878.6272	9114
881.0162	9084
883.4026	9252
885.7866	9015
888.1717	9123
890.5543	9037
892.9382	8994
895.3215	9115
897.7041	9004
900.0842	9097
902.4655	9019
904.8443	9183
907.2244	9120
909.6039	9196
911.9808	9220
914.357	9291
916.7346	9195
919.1115	9291
921.4859	9224
923.8616	9394
926.2347	9502
928.6071	9510
930.979	9370
933.3541	9351
935.7247	9518
938.0946	9510
940.4639	9582
942.8326	9666
945.2026	9760
947.5701	9770
949.9369	9908
952.305	10215
954.6705	10348
957.0355	10788
959.4017	10885
961.7654	11164
964.1284	11144
966.4908	10700
968.8527	10523
971.2138	10289
973.5743	10119
975.9343	9725
978.2936	9548
980.6522	9452
983.0122	9495
985.3696	9281
987.7245	9391
990.0807	9306
992.4362	9405
994.7911	9465
997.1474	9403
999.4991	9419
1001.852	9531
1004.205	9387
1006.555	9371
1008.908	9531
1011.258	9454
1013.606	9494
1015.956	9458
1018.302	9378
1020.652	9272
1022.998	9331
1025.345	9446
1027.691	9501
1030.035	9645
1032.378	9566
1034.724	9446
1037.066	9569
1039.409	9456
1041.75	9544
1044.092	9687
1046.433	9583
1048.771	9618
1051.112	9593
1053.449	9568
1055.786	9576
1058.124	9615
1060.462	9575
1062.797	9566
1065.131	9630
1067.467	9752
1069.8	9722
1072.135	9569
1074.467	9793
1076.798	9731
1079.129	9732
1081.459	9545
1083.792	9634
1086.121	9515
1088.449	9745
1090.777	9573
1093.104	9558
1095.431	9643
1097.759	9468
1100.084	9664
1102.408	9760
1104.732	9586
1107.056	9499
1109.379	9553
1111.701	9577
1114.022	9647
1116.343	9525
1118.664	9639
1120.983	9664
1123.303	9552
1125.621	9731
1127.939	9737
1130.256	9617
1132.573	9615
1134.889	9653
1137.205	9771
1139.52	9602
1141.832	9646
1144.146	9740
1146.461	9629
1148.771	9611
1151.083	9779
1153.392	9667
1155.703	9623
1158.011	9748
1160.323	9835
1162.629	9620
1164.938	9665
1167.243	9719
1169.55	9691
1171.857	9705
1174.163	9646
1176.466	9655
1178.769	9749
1181.073	9609
1183.374	9678
1185.677	9741
1187.979	9608
1190.279	9516
1192.578	9713
1194.878	9602
1197.178	9550
1199.476	9754
1201.772	9647
1204.068	9695
1206.366	9841
1208.663	9671
1210.957	9659
1213.251	9675
1215.544	9693
1217.836	9689
1220.128	9776
1222.421	9775
1224.712	9791
1227.002	9903
1229.292	9778
1231.581	9852
1233.871	9928
1236.159	9906
1238.446	9863
1240.732	10023
1243.018	9962
1245.304	10047
1247.59	10011
1249.874	10034
1252.156	9808
1254.439	10179
1256.721	10059
1259.005	9990
1261.286	9965
1263.565	9870
1265.845	10011
1268.125	9845
1270.403	9823
1272.682	9969
1274.959	10079
1277.234	10087
1279.511	9873
1281.787	9942
1284.062	10108
1286.337	9960
1288.609	9850
1290.882	9849
1293.153	9945
1295.428	9844
1297.698	9846
1299.969	9936
1302.237	9825
1304.507	9852
1306.777	9649
1309.044	9846
1311.312	9820
1313.578	9676
1315.844	9972
1318.109	9913
1320.375	9756
1322.638	9933
1324.903	9777
1327.165	9871
1329.427	9892
1331.69	9709
1333.952	9879
1336.212	9738
1338.471	9909
1340.73	9824
1342.988	9792
1345.248	9920
1347.505	9817
1349.763	9827
1352.019	9825
1354.274	9822
1356.53	9928
1358.784	9816
1361.038	9820
1363.291	9947
1365.543	9955
1367.797	9919
1370.048	10010
1372.296	9830
1374.546	9814
1376.796	9930
1379.045	9987
1381.295	9919
1383.542	9939
1385.787	9842
1388.034	9863
1390.28	9885
1392.527	9871
1394.772	10169
1397.014	9968
1399.258	9733
1401.501	10066
1403.741	9954
1405.985	10022
1408.226	9989
1410.465	10053
1412.705	10117
1414.943	9976
1417.184	10107
1419.42	10084
1421.658	10157
1423.894	9963
1426.13	10072
1428.366	10078
1430.602	10230
1432.835	10179
1435.069	10046
1437.301	10111
1439.535	10227
1441.767	10144
1443.997	10114
1446.229	10268
1448.458	10138
1450.687	10219
1452.916	10374
1455.146	10285
1457.372	10233
1459.599	10259
1461.824	10312
1464.051	10307
1466.277	10279
1468.501	10158
1470.725	10267
1472.948	10102
1475.17	10016
1477.393	10204
1479.614	9947
1481.837	10056
1484.057	9918
1486.276	9972
1488.497	9903
1490.715	9981
1492.932	10060
1495.148	9874
1497.364	9955
1499.58	9763
1501.798	9818
1504.012	9845
1506.227	9901
1508.44	9851
1510.653	9818
1512.866	9863
1515.078	9824
1517.289	9869
1519.5	9845
1521.711	9891
1523.92	9970
1526.13	9842
1528.338	9768
1530.544	9837
1532.752	9962
1534.959	9852
1537.165	9856
1539.371	9935
1541.574	9828
1543.779	9881
1545.983	9978
1548.187	9837
1550.39	10153
1552.59	9975
1554.792	9989
1556.991	9924
1559.19	9968
1561.392	10052
1563.59	9854
1565.789	10138
1567.986	10123
1570.182	10069
1572.381	9989
1574.576	10136
1576.771	10103
1578.966	10098
1581.16	10139
1583.354	10064
1585.546	10007
1587.74	10035
1589.931	10269
1592.121	10207
1594.311	10034
1596.502	10111
1598.693	10197
1600.881	9989
1603.069	10230
1605.256	10179
1607.445	10240
1609.631	10258
1611.816	10177
1614.001	10214
1616.186	10233
1618.37	10209
1620.555	10124
1622.737	10134
1624.919	10241
1627.101	10130
1629.282	10169
1631.463	10237
1633.643	10337
1635.822	10298
1638.001	10312
1640.179	10254
1642.359	10257
1644.534	10303
1646.711	10265
1648.887	10109
1651.062	10259
1653.235	10308
1655.412	10228
1657.586	10272
1659.757	10432
1661.93	10216
1664.1	10302
1666.274	10323
1668.445	10321
1670.614	10236
1672.784	10281
1674.951	10198
1677.12	10448
1679.289	10175
1681.457	10195
1683.622	10119
1685.789	10121
1687.953	10244
1690.121	10287
1692.284	10259
1694.447	10294
1696.611	10314
1698.772	10144
1700.935	10019
1703.098	10243
1705.258	10129
1707.417	10062
1709.576	10145
1711.736	10196
1713.896	10153
1716.053	10132
1718.21	9955
1720.366	10014
1722.522	10025
1724.68	10104
1726.835	10019
1728.989	10110
1731.142	10201
1733.295	10175
1735.449	10150
1737.601	10210
1739.753	10024
1741.903	10078
1744.054	10079
1746.203	10218
1748.354	10013
1750.503	10196
1752.651	10218
1754.798	10076
1756.944	10151
1759.092	9997
1761.238	10224
1763.383	10120
1765.528	10147
1767.672	10196
1769.814	10128
1771.959	10210
1774.102	10127
1776.242	10224
1778.384	10258
1780.525	10215
1782.665	10234
1784.805	10189
1786.945	10264
1789.082	10221
1791.22	10195
1793.36	10086
1795.495	10228
1797.632	10115
1799.766	10185
1801.902	10368
1804.035	10171
1806.172	10078
1808.304	10111
1810.436	10202
1812.569	10043
1814.699	10266
1816.833	10178
1818.963	10067
1821.092	10289
1823.222	10045
1825.35	10224
1827.478	10227
1829.608	10171
1831.734	10244
1833.86	10160
1835.986	10265
1838.11	10186
1840.238	10091
1842.362	10151
1844.485	10122
1846.608	10002
1848.73	10013
1850.853	10089
1852.974	10048
1855.097	10177
1857.217	10113
1859.336	10113
1861.455	9990
1863.576	10102
1865.693	10109
1867.811	10138
1869.926	10063
1872.042	10073
1874.16	9997
1876.275	9897
1878.39	9969
1880.504	10178
1882.618	10094
1884.731	10152
1886.843	10091
1888.956	10182
1891.067	10162
1893.178	10151
1895.287	9996
1897.399	10130
1899.508	10136
1901.617	9991
1903.724	10123
1905.832	10123
1907.941	10118
1910.046	10173
1912.152	10133
1914.256	10337
1916.361	10296
1918.464	10191
1920.57	10253
1922.672	10077
1924.775	10037
1926.876	10255
1928.978	10177
1931.08	10086
1933.181	10297
1935.28	10277
1937.38	10275
1939.478	10149
1941.577	10218
1943.675	10387
1945.771	10251
1947.867	10122
1949.964	10221
1952.058	10363
1954.154	10124
1956.248	10131
1958.343	10171
1960.435	10172
1962.527	10312
1964.62	10101
1966.711	10284
1968.802	10152
1970.892	10121
1972.983	10159
1975.072	10191
1977.162	10169
1979.25	10014
1981.337	10193
1983.424	10069
1985.51	10138
1987.598	10136
1989.683	10189
1991.768	10179
1993.852	10149
1995.934	10153
1998.019	9959
2000.102	10164
2002.184	10096
2004.266	9985
2006.347	9959
2008.427	10028
2010.508	9938
2012.587	10099
2014.666	10040
2016.745	9859
2018.821	10126
2020.9	10044
2022.977	10131
2025.052	9997
2027.128	10084
2029.204	10176
2031.277	10144
2033.353	10045
2035.425	10049
2037.499	9936
2039.57	10078
2041.642	10047
2043.714	9991
2045.786	10063
2047.855	10119
2049.925	10021
2051.993	10019
2054.064	10058
2056.132	10011
2058.2	10149
2060.266	9980
2062.332	9958
2064.398	9966
2066.465	10053
2068.529	10081
2070.592	10107
2072.657	9972
2074.719	10140
2076.783	10014
2078.845	10059
2080.907	10104
2082.968	10167
2085.028	9920
2087.087	10041
2089.148	10022
2091.207	9958
2093.264	10083
2095.322	10051
2097.379	10100
2099.439	10003
2101.495	10181
2103.55	10050
2105.605	10175
2107.658	10220
2109.713	10065
2111.767	9924
2113.82	9991
2115.872	10145
2117.924	10138
2119.975	9960
2122.028	10007
2124.078	10055
2126.126	10123
2128.176	9991
2130.225	9989
2132.275	9923
2134.321	9934
2136.368	9984
2138.415	9991
2140.461	10029
2142.505	10035
2144.552	10022
2146.597	9954
2148.64	9960
2150.684	9811
2152.725	9917
2154.77	9970
2156.811	9870
2158.852	10034
2160.894	9985
2162.933	9850
2164.973	9830
2167.013	9938
2169.051	9837
2171.089	9884
2173.126	9834
2175.164	9982
2177.201	9814
2179.236	9876
2181.273	9830
2183.307	9809
2185.341	9853
2187.377	9855
2189.41	9828
2191.442	9715
2193.473	9809
2195.506	9764
2197.539	9700
2199.569	9751
2201.598	9831
2203.628	9781
2205.656	9727
2207.686	9780
2209.716	9800
2211.743	9792
2213.769	9686
2215.796	9770
2217.821	9590
2219.848	9765
2221.873	9780
2223.897	9629
2225.921	9630
2227.944	9705
2229.967	9769
2231.991	9614
2234.011	9807
2236.032	9641
2238.053	9628
2240.073	9719
2242.094	9659
2244.114	9788
2246.131	9732
2248.149	9756
2250.167	9606
2252.186	9639
2254.201	9723
2256.218	9770
2258.233	9743
2260.247	9697
2262.262	9688
2264.278	9710
2266.29	9709
2268.303	9863
2270.315	9638
2272.327	9649
2274.341	9636
2276.35	9741
2278.361	9591
2280.37	9696
2282.38	9628
2284.388	9583
2286.397	9646
2288.405	9780
2290.412	9523
2292.419	9599
2294.425	9625
2296.431	9637
2298.437	9571
2300.441	9588
2302.445	9659
2304.449	9753
2306.453	9517
2308.455	9633
2310.457	9697
2312.459	9720
2314.46	9566
2316.46	9514
2318.461	9513
2320.46	9416
2322.458	9467
2324.458	9430
2326.456	9498
2328.455	9540
2330.451	9665
2332.447	9505
2334.443	9404
2336.438	9506
2338.433	9479
2340.429	9433
2342.422	9586
2344.416	9484
2346.408	9555
2348.399	9501
2350.393	9475
2352.384	9511
2354.375	9285
2356.365	9507
2358.355	9496
2360.344	9389
2362.333	9323
2364.322	9279
2366.309	9472
2368.295	9459
2370.282	9313
2372.27	9385
2374.256	9369
2376.24	9322
2378.225	9381
2380.208	9400
2382.194	9352
2384.177	9325
2386.159	9330
2388.142	9336
2390.122	9396
2392.105	9217
2394.085	9285
2396.066	9309
2398.044	9375
2400.024	9326
2402.002	9375
2403.982	9212
2405.959	9455
2407.935	9132
2409.913	9363
2411.888	9230
2413.865	9375
2415.84	9331
2417.814	9217
2419.788	9278
2421.762	9371
2423.735	9207
2425.708	9220
2427.68	9333
2429.651	9237
2431.623	9210
2433.593	9244
2435.564	9134
2437.533	9360
2439.502	9160
2441.47	9319
2443.438	9266
2445.406	9270
2447.373	9292
2449.34	9308
2451.305	9171
2453.271	9042
2455.235	9226
2457.201	9159
2459.165	9097
2461.129	9179
2463.092	9285
2465.054	9197
2467.018	9016
2468.978	9250
2470.939	9039
2472.899	9002
2474.86	9142
2476.819	9123
2478.778	9028
2480.737	9242
2482.695	9101
2484.653	9176
2486.609	9202
2488.567	9133
2490.524	9139
2492.478	9030
2494.433	9135
2496.387	9000
2498.343	9132
2500.297	9107
2502.249	9059
2504.202	8985
2506.153	9003
2508.105	9128
2510.057	9103
2512.008	9015
2513.957	9151
2515.906	9066
2517.855	9045
2519.805	9076
2521.754	9064
2523.7	9009
2525.647	9073
2527.594	8945
2529.54	9068
2531.486	8908
2533.431	9050
2535.376	8996
2537.32	8971
2539.263	9171
2541.207	9000
2543.151	8973
2545.093	9021
2547.034	9117
2548.975	8974
2550.917	9005
2552.856	9143
2554.796	9137
2556.735	8883
2558.673	8914
2560.611	9030
2562.55	8988
2564.487	8971
2566.424	9122
2568.36	8984
2570.296	8974
2572.232	8850
2574.167	9014
2576.101	8947
2578.035	8802
2579.969	9042
2581.902	8911
2583.834	8993
2585.766	8998
2587.698	8934
2589.628	9151
2591.557	8937
2593.489	8992
2595.419	9021
2597.348	9026
2599.275	9109
2601.204	8995
2603.131	8865
2605.059	8938
2606.986	8965
2608.911	8829
2610.837	8977
2612.76	8989
2614.687	8971
2616.61	8982
2618.534	8962
2620.457	8962
2622.38	8939
2624.302	8981
2626.225	8817
2628.145	8958
2630.067	9071
2631.986	8958
2633.906	9054
2635.827	8995
2637.745	8968
2639.662	8890
2641.581	8932
2643.498	8851
2645.415	9107
2647.331	8983
2649.248	8910
2651.163	8926
2653.077	9056
2654.993	8815
2656.906	8841
2658.821	8916
2660.733	8964
2662.646	8918
2664.557	8807
2666.47	8966
2668.381	8965
2670.291	8939
2672.201	8969
2674.11	8977
2676.021	8960
2677.929	8729
2679.837	8877
2681.745	8859
2683.652	8858
2685.56	8888
2687.466	8841
2689.371	8882
2691.276	9009
2693.181	8797
2695.085	8938
2696.991	8915
2698.893	8724
2700.796	8849
2702.698	8835
2704.601	8756
2706.502	8738
2708.404	8802
2710.304	8858
2712.203	8779
2714.103	8676
2716.003	8891
2717.902	8781
2719.8	8777
2721.697	8691
2723.594	8739
2725.49	8714
2727.389	8765
2729.283	8869
2731.179	8638
2733.073	8662
2734.968	8632
2736.863	8530
2738.757	8588
2740.649	8745
2742.541	8615
2744.433	8738
2746.324	8670
2748.216	8633
2750.107	8696
2751.997	8655
2753.886	8719
2755.776	8555
2757.666	8715
2759.553	8456
2761.44	8656
2763.327	8627
2765.215	8607
2767.102	8666
2768.988	8508
2770.873	8642
2772.757	8633
2774.641	8494
2776.525	8567
2778.41	8612
2780.292	8572
2782.175	8640
2784.057	8672
2785.938	8546
2787.821	8478
2789.701	8634
2791.581	8500
2793.461	8471
2795.34	8455
2797.219	8600
2799.099	8526
2800.975	8542
2802.853	8586
2804.73	8504
2806.606	8659
2808.484	8556
2810.358	8509
2812.233	8435
2814.108	8465
2815.981	8430
2817.857	8512
2819.73	8442
2821.602	8555
2823.474	8588
2825.346	8381
2827.217	8494
2829.089	8495
2830.959	8455
2832.829	8524
2834.698	8529
2836.567	8458
2838.436	8556
2840.305	8435
2842.172	8527
2844.04	8374
2845.905	8491
2847.772	8585
2849.639	8539
2851.503	8530
2853.369	8342
2855.232	8419
2857.096	8583
2858.961	8559
2860.824	8539
2862.686	8634
2864.547	8606
2866.41	8549
2868.272	8691
2870.132	8579
2871.992	8739
2873.851	8683
2875.711	8707
2877.57	8737
2879.429	8763
2881.287	8784
2883.144	8905
2885.001	8826
2886.857	8924
2888.714	8732
2890.57	8881
2892.425	8792
2894.279	8825
2896.133	8832
2897.987	8830
2899.842	8778
2901.694	8765
2903.547	8861
2905.397	8681
2907.249	8805
2909.101	8907
2910.952	8782
2912.802	8874
2914.652	8906
2916.5	8951
2918.35	8988
2920.198	8985
2922.045	9105
2923.893	9130
2925.74	9146
2927.585	9211
2929.433	9167
2931.279	9375
2933.123	9310
2934.968	9371
2936.811	9466
2938.656	9434
2940.5	9424
2942.342	9599
2944.185	9628
2946.026	9482
2947.87	9597
2949.71	9477
2951.549	9495
2953.39	9409
2955.229	9420
2957.069	9274
2958.908	9290
2960.746	9246
2962.584	9189
2964.421	9010
2966.257	9108
2968.094	9019
2969.931	9033
2971.766	8790
2973.601	8766
2975.435	8702
2977.27	8917
2979.105	8802
2980.938	8772
2982.77	8661
2984.602	8761
2986.434	8657
2988.267	8870
2990.097	8693
2991.927	8646
2993.757	8592
2995.587	8663
2997.417	8486
2999.246	8536
3001.074	8502
3002.902	8438
3004.729	8328
3006.556	8415
3008.384	8377
3010.21	8229
3012.036	8260
3013.861	8097
3015.684	8177
3017.51	8276
3019.334	8138
3021.157	8150
3022.981	8186
3024.802	8134
3026.624	8036
3028.448	7914
3030.267	8061
3032.088	7854
3033.909	7997
3035.728	8005
3037.549	7947
3039.368	7955
3041.186	8099
3043.004	7890
3044.821	8053
3046.64	7962
3048.455	7857
3050.272	7821
3052.087	7898
3053.903	7982
3055.717	7758
3057.534	7991
3059.347	7772
3061.16	7842
3062.974	7877
3064.785	7860
3066.598	7774
3068.411	7863
3070.222	7638
3072.032	7766
3073.844	7972
3075.653	7789
3077.463	7757
3079.272	7725
3081.08	7677
3082.889	7740
3084.697	7717
3086.505	7815
3088.312	7826
3090.118	7858
3091.924	7601
3093.729	7684
3095.535	7646
3097.34	7577
3099.144	7767
3100.947	7626
3102.75	7533
3104.553	7559
3106.357	7680
3108.159	7566
3109.961	7658
3111.762	7589
3113.562	7602
3115.365	7438
3117.164	7494
3118.964	7591
3120.761	7506
3122.56	7595
3124.36	7462
3126.158	7574
3127.954	7585
3129.75	7545
3131.547	7581
3133.343	7436
3135.139	7519
3136.934	7503
3138.729	7409
3140.522	7371
3142.317	7490
3144.11	7450
3145.904	7522
3147.695	7433
3149.488	7374
3151.28	7525
3153.07	7402
3154.863	7421
3156.652	7548
3158.441	7392
3160.231	7493
3162.019	7377
3163.81	7447
3165.597	7356
3167.384	7413
3169.172	7417
3170.958	7310
3172.745	7335
3174.532	7418
3176.317	7229
3178.101	7293
3179.885	7296
3181.67	7338
3183.455	7334
3185.238	7289
3187.02	7265
3188.802	7404
3190.585	7214
3192.368	7204
3194.149	7311
3195.929	7246
3197.709	7199
3199.489	7176
3201.268	7248
3203.048	7227
3204.826	7243
3206.604	7347
3208.382	7162
3210.159	7206
3211.937	7329
3213.713	7328
3215.489	7074
3217.263	7103
3219.038	7270
3220.815	7319
3222.589	7205
3224.363	7244
3226.136	7285
3227.908	7190
3229.681	7236
3231.454	7192
3233.226	7170
3234.996	7210
3236.767	7095
3238.538	7318
3240.308	7137
3242.078	7136
3243.847	7207
3245.615	7149
3247.384	7144
3249.15	7237
3250.92	7211
3252.686	7135
3254.453	7130
3256.218	7220
3257.984	7177
3259.75	7146
3261.515	7160
3263.279	7153
3265.044	7148
3266.806	7161
3268.57	7087
3270.334	7258
3272.095	7166
3273.856	7028
3275.619	7182
3277.379	7077
3279.14	7119
3280.9	7169
3282.661	7208
3284.419	7158
3286.178	7049
3287.937	7192
3289.695	7160
3291.453	7068
3293.21	7145
3294.967	7149
3296.723	7170
3298.48	7016
3300.235	7246
3301.99	7197
3303.744	7108
3305.498	7195
3307.253	7189
3309.006	7028
3310.759	7216
3312.511	7174
3314.263	6970
3316.017	7086
3317.768	7175
3319.519	7063
3321.268	7003
3323.018	7052
3324.767	7089
3326.518	7043
3328.267	7120
3330.014	7173
3331.762	7104
3333.509	7000
3335.258	6952
3337.003	6971
3338.75	6991
3340.496	7048
3342.24	6958
3343.987	7193
3345.732	7022
3347.475	7006
3349.219	7009
3350.961	7097
3352.705	6944
3354.448	6983
3356.19	7067
3357.931	6952
3359.672	7062
3361.412	6982
3363.155	6953
3364.894	7032
3366.633	6922
3368.372	6986
3370.11	6957
3371.849	6996
3373.588	6867
3375.325	6781
3377.061	6915
3378.799	6831
3380.534	6862
3382.271	6876
3384.006	6913
3385.741	6820
3387.475	6813
3389.209	6960
3390.944	6789
3392.677	6854
3394.409	6853
3396.143	6916
3397.874	6761
3399.606	6851
3401.338	6767
3403.069	6937
3404.799	6869
3406.528	6982
3408.258	6751
3409.988	6815
3411.717	6887
3413.445	6877
3415.173	6822
3416.899	6852
3418.626	6782
3420.354	6760
3422.08	6763
3423.806	6718
3425.531	6780
3427.255	6685
3428.981	6784
3430.705	6695
3432.429	6788
3434.151	6696
3435.875	6718
3437.599	6657
3439.321	6647
3441.042	6789
3442.763	6581
3444.483	6681
3446.204	6644
3447.926	6672
3449.645	6500
3451.364	6572
3453.082	6624
3454.801	6598
3456.52	6688
3458.238	6625
3459.954	6478
3461.671	6674
3463.387	6618
3465.104	6485
3466.82	6524
3468.534	6494
3470.25	6585
3471.963	6485
3473.676	6444
3475.392	6562
3477.104	6407
3478.817	6421
3480.528	6406
3482.241	6478
3483.954	6394
3485.664	6535
3487.374	6362
3489.084	6446
3490.795	6479
3492.504	6463
3494.214	6365
3495.922	6374
3497.63	6344
3499.338	6387
3501.045	6391
3502.753	6309
3504.459	6412
3506.166	6394
3507.871	6322
3509.576	6298
3511.283	6392
3512.987	6338
3514.691	6353
3516.395	6249
3518.098	6359
3519.8	6345
3521.504	6186
3523.206	6276
3524.908	6173
3526.609	6119
3528.309	6229
3530.011	6144
3531.711	6225
3533.411	6271
3535.109	6389
3536.808	6186
3538.507	6218
3540.206	6193
3541.904	6246
3543.601	6273
3545.297	6261
3546.994	6186
3548.69	6159
3550.387	6282
3552.081	6215
3553.776	6128
3555.47	6166
3557.166	6150
3558.859	6081
3560.553	6151
3562.245	6140
3563.938	6231
3565.629	6121
3567.322	6149
3569.014	6124
3570.704	6123
3572.394	6018
3574.084	6123
3575.775	5993
3577.464	6075
3579.152	6087
3580.842	6070
3582.529	6090
3584.216	6101
3585.905	6086
3587.591	6074
3589.279	5968
3590.964	6023
3592.649	6024
3594.336	6046
3596.021	5978
3597.705	5990
3599.388	5899
3601.072	5962
3602.757	5873
3604.439	5900
3606.122	5917
3607.803	5950
3609.485	5913
3611.167	5887
3612.849	5937
3614.529	5947
3616.208	5970
3617.888	5862
3619.567	5936
3621.247	5854
3622.926	5762
3624.603	5845
3626.281	5874
3627.958	5776
3629.635	5845
3631.312	5830
3632.989	5850
3634.665	5765
3636.339	5774
3638.014	5769
3639.691	5833
3641.364	5798
3643.038	5703
3644.71	5622
3646.384	5774
3648.058	5808
3649.729	5779
3651.402	5726
3653.073	5693
3654.744	5642
3656.414	5697
3658.085	5739
3659.755	5698
3661.424	5734
3663.094	5635
3664.762	5618
3666.431	5687
3668.099	5587
3669.766	5629
3671.433	5645
3673.099	5571
3674.768	5651
3676.433	5543
3678.098	5614
3679.763	5582
3681.428	5714
3683.093	5613
3684.757	5668
3686.421	5637
3688.083	5528
3689.746	5584
3691.408	5659
3693.071	5654
3694.733	5689
3696.394	5547
3698.054	5546
3699.715	5517
3701.375	5591
3703.036	5596
3704.695	5692
3706.354	5582
3708.012	5531
3709.67	5485
3711.329	5537
3712.987	5584
3714.644	5468
3716.299	5548
3717.955	5470
3719.613	5554
3721.268	5514
3722.923	5363
3724.577	5438
3726.231	5556
3727.885	5453
3729.539	5529
3731.192	5458
3732.845	5490
3734.497	5487
3736.149	5422
3737.802	5559
3739.453	5414
3741.104	5420
3742.753	5365
3744.404	5452
3746.052	5400
3747.704	5465
3749.352	5401
3751	5408
3752.648	5490
3754.296	5395
3755.944	5358
3757.59	5393
3759.238	5371
3760.883	5479
3762.528	5458
3764.176	5422
3765.82	5338
3767.464	5321
3769.109	5202
3770.753	5306
3772.396	5383
3774.04	5286
3775.683	5362
3777.325	5430
3778.967	5261
3780.608	5270
3782.25	5330
3783.89	5215
3785.531	5341
3787.17	5307
3788.81	5292
3790.45	5311
3792.09	5254
3793.729	5274
3795.366	5362
3797.003	5163
3798.64	5267
3800.278	5266
3801.915	5180
3803.551	5263
3805.187	5217
3806.822	5249
3808.458	5273
3810.093	5203
3811.726	5166
3813.36	5207
3814.994	5113
3816.627	5218
3818.262	5125
3819.893	5151
3821.525	5162
3823.157	5144
3824.787	5177
3826.42	5145
3828.051	5158
3829.68	5120
3831.31	5067
3832.938	5123
3834.569	5065
3836.198	5093
3837.825	5122
3839.454	5104
3841.08	5122
3842.708	5038
3844.335	5124
3845.962	5111
3847.587	5044
3849.212	5015
3850.838	5014
3852.463	5156
3854.089	5082
3855.712	5049
3857.335	5090
3858.959	5045
3860.582	5067
3862.205	5049
3863.827	5025
3865.449	5120
3867.07	5038
3868.691	5036
3870.312	4942
3871.933	5041
3873.553	5053
3875.173	5019
3876.792	5045
3878.411	4986
3880.03	5003
3881.647	4997
3883.265	5013
3884.882	4894
3886.499	4911
3888.116	4975
3889.732	4985
3891.348	4967
3892.964	4980
3894.579	4902
3896.195	4972
3897.809	4952
3899.423	4938
3901.036	4965
3902.648	4951
3904.261	5009
3905.875	4966
3907.487	4922
3909.099	4944
3910.709	4872
3912.321	5014
3913.933	5007
3915.542	4931
3917.152	4947
3918.762	4920
3920.37	4900
3921.98	4951
3923.589	4869
3925.196	4864
3926.804	4873
3928.41	4844
3930.018	4881
3931.626	4882
3933.231	4864
3934.838	4897
3936.442	4876
3938.046	4876
3939.653	4854
3941.257	4791
3942.861	4881
3944.464	4771
3946.068	4881
3947.67	4834
3949.273	4775
3950.876	4903
3952.477	4894
3954.078	4733
3955.678	4775
3957.281	4851
3958.881	4767
3960.48	4809
3962.079	4715
3963.678	4773
3965.279	4735
3966.877	4847
3968.475	4862
3970.072	4809
3971.669	4753
3973.266	4764
3974.864	4663
3976.459	4806
3978.055	4761
3979.65	4803
3981.245	4733
3982.841	4682
3984.436	4663
3986.03	4635
3987.623	4678
3989.216	4750
3990.809	4700
3992.403	4580
3993.995	4638
3995.586	4685
3997.177	4582
3998.768	4658
4000.361	4616
4001.951	4713
4003.54	4573
4005.13	4583
4006.719	4668
4008.31	4642
4009.897	4563
4011.485	4601
4013.073	4532
4014.66	4559
4016.247	4626
4017.834	4571
4019.421	4595
4021.006	4507
4022.592	4559
4024.178	4583
4025.763	4451
4027.348	4562
4028.932	4522
4030.515	4445
4032.099	4504
4033.682	4469
4035.266	4540
4036.847	4487
4038.429	4564
4040.011	4464
4041.592	4463
4043.173	4440
4044.755	4441
4046.334	4510
4047.913	4424
4049.494	4483
4051.074	4475
4052.652	4448
4054.23	4523
4055.807	4374
4057.385	4465
4058.963	4451
4060.541	4498
4062.117	4429
4063.693	4438
4065.269	4457
4066.844	4410
4068.42	4317
4069.995	4440
4071.569	4415
4073.143	4327
4074.716	4390
4076.291	4301
4077.864	4396
4079.436	4420
4081.009	4412
4082.58	4385
4084.152	4412
4085.723	4391
4087.294	4326
4088.865	4454
4090.435	4398
4092.005	4382
4093.574	4290
4095.143	4305
4096.712	4311
4098.279	4256
4099.848	4373
4101.416	4318
4102.984	4321
4104.55	4322
4106.117	4247
4107.682	4303
4109.248	4285
4110.815	4363
4112.379	4355
4113.945	4338
4115.508	4368
4117.073	4271
4118.637	4291
4120.201	4337
4121.763	4241
4123.325	4358
4124.888	4217
4126.449	4364
4128.013	4173
4129.573	4253
4131.133	4235
4132.694	4159
4134.254	4138
4135.814	4214
4137.374	4157
4138.933	4188
4140.491	4133
4142.049	4167
4143.607	4161
4145.167	4100
4146.724	4245
4148.28	4199
4149.836	4129
4151.392	4149
4152.949	4179
4154.504	4000
4156.059	4147
4157.614	4208
4159.168	4154
4160.723	4131
4162.277	4171
4163.83	4055
4165.383	4084
4166.936	4117
4168.488	4124
4170.041	4034
4171.593	4035
4173.144	4123
4174.695	4119
4176.246	4017
4177.796	4079
4179.346	4036
4180.896	4095
4182.445	3995
4183.994	3996
4185.542	4024
4187.091	4046
4188.639	4018
4190.185	4018
4191.732	4034
4193.279	4049
4194.826	4065
4196.373	3976
4197.918	3965
4199.463	4002
4201.008	4003
4202.553	4007
4204.098	3965
4205.641	4023
4207.185	3924
4208.728	4008
4210.271	3814
4211.814	3963
4213.357	3991
4214.898	3908
4216.439	3989
4217.98	3982
4219.522	3946
4221.062	3992
4222.603	3946
4224.142	3969
4225.681	3880
4227.222	3897
4228.76	3865
4230.298	3994
4231.835	3907
4233.373	3931
4234.911	3896
4236.449	3910
4237.985	3843
4239.521	3898
4241.057	3904
4242.592	3859
4244.128	3874
4245.663	3849
4247.197	3917
4248.731	3900
4250.265	3881
4251.798	3886
4253.333	3850
4254.865	3849
4256.397	3847
4257.93	3876
4259.461	3912
4260.994	3922
4262.525	3881
4264.056	3826
4265.586	3860
4267.115	3790
4268.646	3904
4270.176	3860
4271.705	3881
4273.232	3802
4274.761	3865
4276.289	3844
4277.818	3813
4279.345	3803
4280.872	3765
4282.399	3777
4283.924	3794
4285.452	3849
4286.976	3744
4288.502	3812
4290.026	3779
4291.551	3740
4293.074	3766
4294.6	3750
4296.123	3758
4297.646	3758
4299.168	3698
4300.691	3714
4302.214	3727
4303.736	3765
4305.257	3773
4306.778	3690
4308.299	3662
4309.82	3717
4311.34	3768
4312.86	3614
4314.379	3666
