400.0745	4086
402.597	4087
405.1208	4191
407.6419	4201
410.1623	4069
412.6819	4113
415.201	4210
417.7172	4245
420.2369	4301
422.7538	4197
425.2701	4371
427.7856	4355
430.3005	4439
432.8147	4291
435.3282	4349
437.841	4374
440.3511	4295
442.8625	4342
445.3753	4477
447.8854	4353
450.3927	4443
452.9014	4442
455.4073	4320
457.9146	4416
460.4233	4327
462.9272	4398
465.4325	4293
467.935	4394
470.4389	4370
472.9421	4514
475.4446	4477
477.9444	4472
480.4456	4483
482.944	4500
485.4417	4480
487.9429	4548
490.4393	4433
492.935	4453
495.4321	4475
497.9264	4608
500.4221	4589
502.9171	4578
505.4094	4506
507.9011	4562
510.392	4575
512.8864	4557
515.3759	4539
517.8649	4584
520.3531	4589
522.8406	4506
525.3275	4725
527.8178	4566
530.3033	4627
532.7881	4602
535.2723	4604
537.7558	4592
540.2407	4689
542.7228	4610
545.2043	4652
547.6851	4546
550.1652	4727
552.6467	4673
555.1255	4699
557.6016	4593
560.079	4576
562.5557	4638
565.0318	4764
567.5092	4715
569.984	4708
572.456	4707
574.9294	4709
577.4022	4705
579.8762	4675
582.3456	4780
584.8163	4812
587.2863	4825
589.7557	4837
592.2224	4820
594.6924	4848
597.1578	4746
599.6245	4773
602.0905	4743
604.5538	4802
607.0206	4771
609.4825	4860
611.9459	4816
614.4066	4861
616.8686	4828
619.33	4830
621.7906	4810
624.2487	4804
626.708	4770
629.1647	4835
631.6207	4827
634.0801	4788
636.5348	4857
638.9888	4830
641.4442	4821
643.8969	4894
646.3509	4886
648.8022	4805
651.255	4799
653.705	4925
656.1544	4930
658.6031	4923
661.0532	4945
663.5026	4970
665.9493	4881
668.3954	4964
670.8409	4883
673.2877	4927
675.7318	4939
678.1752	4940
680.618	4889
683.0601	4990
685.5035	4977
687.9444	4906
690.3845	4974
692.824	4948
695.2628	4993
697.701	5068
700.1406	5054
702.5774	5052
705.0116	5041
707.4472	5016
709.8821	5095
712.3183	5030
714.7519	5020
717.1829	5048
719.6151	5159
722.0468	5103
724.4777	5013
726.908	5118
729.3377	5076
731.7667	5171
734.1931	5214
736.6208	5227
739.0498	5146
741.4742	5243
743.9	5175
746.3231	5224
748.7476	5182
751.1713	5181
753.5945	5263
756.015	5321
758.4368	5299
760.856	5338
763.2766	5287
765.6965	5472
768.1157	5377
770.5323	5325
772.9483	5281
775.3656	5388
777.7822	5345
780.1963	5343
782.6116	5432
785.0244	5347
787.4365	5372
789.8499	5330
792.2626	5408
794.6728	5381
797.0823	5431
799.4911	5350
801.8994	5351
804.3109	5366
806.7178	5300
809.124	5407
811.5297	5386
813.9347	5401
816.341	5216
818.7447	5388
821.1478	5420
823.5502	5283
825.952	5420
828.3531	5396
830.7556	5422
833.1554	5355
835.5546	5396
837.9532	5364
840.3511	5356
842.7504	5412
845.1451	5385
847.5411	5500
849.9365	5565
852.3312	5403
854.7272	5484
857.1187	5461
859.5115	5576
861.9037	5501
864.2952	5422
866.6842	5419
869.0764	5448
871.4661	5478
873.8531	5362
876.2415	5539
878.6272	5422
881.0162	5421
883.4026	5530
885.7866	5427
888.1717	5474
890.5543	5510
892.9382	5412
895.3215	5527
897.7041	5371
900.0842	5506
902.4655	5459
904.8443	5394
907.2244	5559
909.6039	5499
911.9808	5487
914.357	5549
916.7346	5601
919.1115	5655
921.4859	5725
923.8616	5757
926.2347	5650
928.6071	5734
930.979	5780
933.3541	5655
935.7247	5610
938.0946	5762
940.4639	5751
942.8326	5760
945.2026	5878
947.5701	5843
949.9369	5935
952.305	6023
954.6705	6099
957.0355	6253
959.4017	6383
961.7654	6414
964.1284	6545
966.4908	6225
968.8527	6116
971.2138	5914
973.5743	5885
975.9343	5842
978.2936	5750
980.6522	5759
983.0122	5615
985.3696	5720
987.7245	5639
990.0807	5667
992.4362	5690
994.7911	5706
997.1474	5656
999.4991	5718
1001.852	5765
1004.205	5687
1006.555	5749
1008.908	5788
1011.258	5656
1013.606	5715
1015.956	5700
1018.302	5695
1020.652	5674
1022.998	5749
1025.345	5760
1027.691	5785
1030.035	5725
1032.378	5741
1034.724	5800
1037.066	5697
1039.409	5728
1041.75	5790
1044.092	5728
1046.433	5741
1048.771	5830
1051.112	5777
1053.449	5784
1055.786	5749
1058.124	5734
1060.462	5844
1062.797	5784
1065.131	5892
1067.467	5855
1069.8	5824
1072.135	5928
1074.467	5771
1076.798	5797
1079.129	5830
1081.459	5822
1083.792	5880
1086.121	5764
1088.449	5708
1090.777	5818
1093.104	5765
1095.431	5747
1097.759	5847
1100.084	5797
1102.408	5893
1104.732	5776
1107.056	5748
1109.379	5811
1111.701	5811
1114.022	5952
1116.343	5816
1118.664	5729
1120.983	5831
1123.303	5852
1125.621	5910
1127.939	5889
1130.256	5927
1132.573	5794
1134.889	5867
1137.205	5828
1139.52	5735
1141.832	5764
1144.146	5862
1146.461	5797
1148.771	5840
1151.083	5846
1153.392	5884
1155.703	5868
1158.011	5803
1160.323	5948
1162.629	5899
1164.938	5880
1167.243	5897
1169.55	5971
1171.857	5888
1174.163	5897
1176.466	5997
1178.769	5800
1181.073	5880
1183.374	5881
1185.677	5910
1187.979	5843
1190.279	5807
1192.578	5947
1194.878	5835
1197.178	5822
1199.476	5844
1201.772	5870
1204.068	5879
1206.366	5895
1208.663	5886
1210.957	5872
1213.251	5938
1215.544	5937
1217.836	5900
1220.128	5839
1222.421	5904
1224.712	5831
1227.002	5945
1229.292	5989
1231.581	5988
1233.871	5938
1236.159	5957
1238.446	6016
1240.732	6072
1243.018	6022
1245.304	6131
1247.59	6069
1249.874	6085
1252.156	6021
1254.439	6090
1256.721	6063
1259.005	6062
1261.286	6014
1263.565	6147
1265.845	6174
1268.125	5988
1270.403	6149
1272.682	6133
1274.959	6106
1277.234	6147
1279.511	6090
1281.787	6005
1284.062	6023
1286.337	6059
1288.609	5855
1290.882	6071
1293.153	6145
1295.428	5933
1297.698	6026
1299.969	6017
1302.237	5986
1304.507	5926
1306.777	6075
1309.044	5877
1311.312	5970
1313.578	5999
1315.844	6017
1318.109	5977
1320.375	6047
1322.638	5950
1324.903	5989
1327.165	5980
1329.427	5888
1331.69	6009
1333.952	6033
1336.212	5989
1338.471	6012
1340.73	5995
1342.988	5984
1345.248	5965
1347.505	6031
1349.763	5973
1352.019	6001
1354.274	5953
1356.53	5963
1358.784	5965
1361.038	6042
1363.291	5969
1365.543	5971
1367.797	6046
1370.048	6019
1372.296	5957
1374.546	5934
1376.796	6051
1379.045	5899
1381.295	5889
1383.542	6036
1385.787	6059
1388.034	6164
1390.28	6091
1392.527	6052
1394.772	6068
1397.014	6127
1399.258	6176
1401.501	6144
1403.741	6116
1405.985	6147
1408.226	6170
1410.465	6048
1412.705	6156
1414.943	6164
1417.184	6113
1419.42	6147
1421.658	6169
1423.894	6135
1426.13	6237
1428.366	6225
1430.602	6172
1432.835	6278
1435.069	6179
1437.301	6217
1439.535	6139
1441.767	6162
1443.997	6239
1446.229	6253
1448.458	6366
1450.687	6237
1452.916	6336
1455.146	6294
1457.372	6201
1459.599	6359
1461.824	6297
1464.051	6257
1466.277	6376
1468.501	6235
1470.725	6196
1472.948	6139
1475.17	6127
1477.393	6152
1479.614	6211
1481.837	6055
1484.057	6054
1486.276	6043
1488.497	6064
1490.715	6134
1492.932	6081
1495.148	6078
1497.364	6063
1499.58	6090
1501.798	6144
1504.012	6012
1506.227	6096
1508.44	5955
1510.653	6054
1512.866	5926
1515.078	5859
1517.289	5929
1519.5	5989
1521.711	5996
1523.92	6051
1526.13	6069
1528.338	5962
1530.544	6051
1532.752	6039
1534.959	5956
1537.165	6053
1539.371	6106
1541.574	6081
1543.779	6001
1545.983	6024
1548.187	6071
1550.39	6129
1552.59	6086
1554.792	6087
1556.991	5950
1559.19	6150
1561.392	6076
1563.59	6080
1565.789	6150
1567.986	6091
1570.182	6160
1572.381	6124
1574.576	6196
1576.771	6222
1578.966	6205
1581.16	6169
1583.354	6256
1585.546	6180
1587.74	6135
1589.931	6348
1592.121	6161
1594.311	6141
1596.502	6202
1598.693	6121
1600.881	6193
1603.069	6262
1605.256	6254
1607.445	6173
1609.631	6293
1611.816	6214
1614.001	6217
1616.186	6242
1618.37	6198
1620.555	6197
1622.737	6185
1624.919	6198
1627.101	6154
1629.282	6277
1631.463	6302
1633.643	6254
1635.822	6223
1638.001	6361
1640.179	6130
1642.359	6328
1644.534	6223
1646.711	6434
1648.887	6382
1651.062	6322
1653.235	6328
1655.412	6239
1657.586	6320
1659.757	6368
1661.93	6197
1664.1	6307
1666.274	6309
1668.445	6274
1670.614	6345
1672.784	6282
1674.951	6353
1677.12	6453
1679.289	6286
1681.457	6356
1683.622	6333
1685.789	6351
1687.953	6416
1690.121	6274
1692.284	6245
1694.447	6326
1696.611	6243
1698.772	6273
1700.935	6259
1703.098	6376
1705.258	6250
1707.417	6275
1709.576	6275
1711.736	6276
1713.896	6273
1716.053	6255
1718.21	6252
1720.366	6275
1722.522	6196
1724.68	6237
1726.835	6252
1728.989	6312
1731.142	6290
1733.295	6255
1735.449	6275
1737.601	6276
1739.753	6234
1741.903	6290
1744.054	6263
1746.203	6285
1748.354	6305
1750.503	6377
1752.651	6384
1754.798	6231
1756.944	6241
1759.092	6275
1761.238	6359
1763.383	6288
1765.528	6384
1767.672	6197
1769.814	6398
1771.959	6209
1774.102	6349
1776.242	6305
1778.384	6363
1780.525	6411
1782.665	6239
1784.805	6254
1786.945	6275
1789.082	6330
1791.22	6337
1793.36	6408
1795.495	6285
1797.632	6340
1799.766	6343
1801.902	6390
1804.035	6329
1806.172	6264
1808.304	6327
1810.436	6308
1812.569	6357
1814.699	6347
1816.833	6365
1818.963	6301
1821.092	6370
1823.222	6333
1825.35	6253
1827.478	6312
1829.608	6314
1831.734	6312
1833.86	6359
1835.986	6292
1838.11	6287
1840.238	6316
1842.362	6332
1844.485	6317
1846.608	6373
1848.73	6311
1850.853	6208
1852.974	6288
1855.097	6310
1857.217	6318
1859.336	6223
1861.455	6386
1863.576	6244
1865.693	6157
1867.811	6317
1869.926	6309
1872.042	6296
1874.16	6342
1876.275	6239
1878.39	6234
1880.504	6288
1882.618	6266
1884.731	6297
1886.843	6353
1888.956	6340
1891.067	6389
1893.178	6288
1895.287	6266
1897.399	6370
1899.508	6330
1901.617	6312
1903.724	6341
1905.832	6410
1907.941	6397
1910.046	6324
1912.152	6345
1914.256	6302
1916.361	6302
1918.464	6422
1920.57	6397
1922.672	6288
1924.775	6387
1926.876	6430
1928.978	6430
1931.08	6348
1933.181	6484
1935.28	6448
1937.38	6379
1939.478	6361
1941.577	6490
1943.675	6373
1945.771	6388
1947.867	6421
1949.964	6390
1952.058	6400
1954.154	6336
1956.248	6441
1958.343	6318
1960.435	6367
1962.527	6420
1964.62	6497
1966.711	6435
1968.802	6318
1970.892	6313
1972.983	6383
1975.072	6448
1977.162	6365
1979.25	6403
1981.337	6359
1983.424	6347
1985.51	6358
1987.598	6428
1989.683	6373
1991.768	6213
1993.852	6266
1995.934	6264
1998.019	6397
2000.102	6185
2002.184	6379
2004.266	6333
2006.347	6315
2008.427	6384
2010.508	6339
2012.587	6327
2014.666	6294
2016.745	6242
2018.821	6227
2020.9	6210
2022.977	6294
2025.052	6179
2027.128	6274
2029.204	6266
2031.277	6222
2033.353	6220
2035.425	6252
2037.499	6291
2039.57	6275
2041.642	6322
2043.714	6360
2045.786	6285
2047.855	6370
2049.925	6268
2051.993	6303
2054.064	6280
2056.132	6229
2058.2	6329
2060.266	6332
2062.332	6321
2064.398	6343
2066.465	6320
2068.529	6300
2070.592	6249
2072.657	6361
2074.719	6203
2076.783	6195
2078.845	6271
2080.907	6307
2082.968	6242
2085.028	6269
2087.087	6266
2089.148	6272
2091.207	6272
2093.264	6231
2095.322	6260
2097.379	6231
2099.439	6183
2101.495	6301
2103.55	6278
2105.605	6290
2107.658	6175
2109.713	6266
2111.767	6207
2113.82	6216
2115.872	6325
2117.924	6243
2119.975	6282
2122.028	6090
2124.078	6203
2126.126	6235
2128.176	6208
2130.225	6176
2132.275	6229
2134.321	6147
2136.368	6226
2138.415	6159
2140.461	6232
2142.505	6141
2144.552	6265
2146.597	6306
2148.64	6174
2150.684	6125
2152.725	6076
2154.77	6165
2156.811	6222
2158.852	6188
2160.894	6065
2162.933	6115
2164.973	6154
2167.013	6193
2169.051	6065
2171.089	6181
2173.126	6146
2175.164	6193
2177.201	6134
2179.236	6147
2181.273	6128
2183.307	6145
2185.341	6119
2187.377	6065
2189.41	6182
2191.442	6082
2193.473	6165
2195.506	5937
2197.539	5942
2199.569	6195
2201.598	6071
2203.628	6119
2205.656	6171
2207.686	5985
2209.716	6067
2211.743	6070
2213.769	6071
2215.796	6035
2217.821	6131
2219.848	6121
2221.873	6076
2223.897	6055
2225.921	5983
2227.944	6010
2229.967	6026
2231.991	6033
2234.011	6161
2236.032	5944
2238.053	6006
2240.073	6055
2242.094	5961
2244.114	6070
2246.131	6036
2248.149	6050
2250.167	6085
2252.186	6028
2254.201	5917
2256.218	6016
2258.233	5973
2260.247	5910
2262.262	5984
2264.278	6016
2266.29	5857
2268.303	6029
2270.315	5954
2272.327	6037
2274.341	6129
2276.35	6084
2278.361	6009
2280.37	6097
2282.38	5990
2284.388	5915
2286.397	6010
2288.405	6014
2290.412	5992
2292.419	5928
2294.425	5993
2296.431	5903
2298.437	5981
2300.441	5965
2302.445	5956
2304.449	5979
2306.453	6071
2308.455	5989
2310.457	6006
2312.459	5979
2314.46	5817
2316.46	5989
2318.461	5990
2320.46	5947
2322.458	5922
2324.458	6024
2326.456	5999
2328.455	5889
2330.451	5972
2332.447	5947
2334.443	5886
2336.438	5895
2338.433	5866
2340.429	5900
2342.422	5913
2344.416	5947
2346.408	5871
2348.399	5950
2350.393	5885
2352.384	5915
2354.375	5800
2356.365	5900
2358.355	5802
2360.344	5902
2362.333	5810
2364.322	5806
2366.309	5691
2368.295	5870
2370.282	5928
2372.27	5868
2374.256	5753
2376.24	5807
2378.225	5902
2380.208	5679
2382.194	5798
2384.177	5797
2386.159	5766
2388.142	5827
2390.122	5735
2392.105	5816
2394.085	5850
2396.066	5761
2398.044	5762
2400.024	5874
2402.002	5706
2403.982	5782
2405.959	5956
2407.935	5771
2409.913	5840
2411.888	5696
2413.865	5688
2415.84	5851
2417.814	5812
2419.788	5730
2421.762	5737
2423.735	5712
2425.708	5683
2427.68	5696
2429.651	5754
2431.623	5716
2433.593	5732
2435.564	5744
2437.533	5795
2439.502	5803
2441.47	5603
2443.438	5659
2445.406	5832
2447.373	5680
2449.34	5743
2451.305	5664
2453.271	5668
2455.235	5680
2457.201	5637
2459.165	5451
2461.129	5702
2463.092	5697
2465.054	5766
2467.018	5611
2468.978	5673
2470.939	5739
2472.899	5685
2474.86	5635
2476.819	5613
2478.778	5680
2480.737	5615
2482.695	5703
2484.653	5686
2486.609	5550
2488.567	5729
2490.524	5726
2492.478	5689
2494.433	5692
2496.387	5520
2498.343	5728
2500.297	5512
2502.249	5662
2504.202	5621
2506.153	5651
2508.105	5582
2510.057	5631
2512.008	5660
2513.957	5677
2515.906	5686
2517.855	5635
2519.805	5619
2521.754	5683
2523.7	5554
2525.647	5593
2527.594	5682
2529.54	5496
2531.486	5666
2533.431	5635
2535.376	5698
2537.32	5552
2539.263	5641
2541.207	5512
2543.151	5551
2545.093	5471
2547.034	5640
2548.975	5570
2550.917	5602
2552.856	5560
2554.796	5584
2556.735	5639
2558.673	5586
2560.611	5506
2562.55	5550
2564.487	5682
2566.424	5571
2568.36	5659
2570.296	5550
2572.232	5678
2574.167	5675
2576.101	5596
2578.035	5512
2579.969	5672
2581.902	5527
2583.834	5524
2585.766	5610
2587.698	5583
2589.628	5637
2591.557	5544
2593.489	5620
2595.419	5515
2597.348	5575
2599.275	5651
2601.204	5558
2603.131	5550
2605.059	5615
2606.986	5511
2608.911	5580
2610.837	5603
2612.76	5560
2614.687	5615
2616.61	5562
2618.534	5546
2620.457	5540
2622.38	5583
2624.302	5548
2626.225	5508
2628.145	5582
2630.067	5467
2631.986	5605
2633.906	5613
2635.827	5601
2637.745	5545
2639.662	5543
2641.581	5568
2643.498	5497
2645.415	5609
2647.331	5573
2649.248	5618
2651.163	5481
2653.077	5669
2654.993	5568
2656.906	5504
2658.821	5522
2660.733	5482
2662.646	5586
2664.557	5512
2666.47	5594
2668.381	5516
2670.291	5542
2672.201	5449
2674.11	5548
2676.021	5468
2677.929	5446
2679.837	5514
2681.745	5438
2683.652	5448
2685.56	5548
2687.466	5491
2689.371	5539
2691.276	5505
2693.181	5494
2695.085	5530
2696.991	5492
2698.893	5476
2700.796	5413
2702.698	5455
2704.601	5435
2706.502	5509
2708.404	5390
2710.304	5474
2712.203	5371
2714.103	5365
2716.003	5456
2717.902	5351
2719.8	5373
2721.697	5403
2723.594	5425
2725.49	5439
2727.389	5405
2729.283	5372
2731.179	5343
2733.073	5413
2734.968	5309
2736.863	5433
2738.757	5436
2740.649	5433
2742.541	5376
2744.433	5385
2746.324	5426
2748.216	5446
2750.107	5327
2751.997	5361
2753.886	5275
2755.776	5349
2757.666	5538
2759.553	5389
2761.44	5422
2763.327	5330
2765.215	5321
2767.102	5344
2768.988	5297
2770.873	5399
2772.757	5395
2774.641	5422
2776.525	5422
2778.41	5197
2780.292	5444
2782.175	5237
2784.057	5343
2785.938	5355
2787.821	5349
2789.701	5327
2791.581	5388
2793.461	5345
2795.34	5389
2797.219	5421
2799.099	5306
2800.975	5270
2802.853	5366
2804.73	5363
2806.606	5215
2808.484	5302
2810.358	5198
2812.233	5293
2814.108	5282
2815.981	5328
2817.857	5364
2819.73	5306
2821.602	5254
2823.474	5381
2825.346	5404
2827.217	5267
2829.089	5406
2830.959	5368
2832.829	5253
2834.698	5311
2836.567	5276
2838.436	5384
2840.305	5296
2842.172	5281
2844.04	5375
2845.905	5266
2847.772	5235
2849.639	5302
2851.503	5356
2853.369	5353
2855.232	5437
2857.096	5362
2858.961	5347
2860.824	5345
2862.686	5468
2864.547	5397
2866.41	5403
2868.272	5333
2870.132	5452
2871.992	5444
2873.851	5394
2875.711	5485
2877.57	5544
2879.429	5543
2881.287	5582
2883.144	5509
2885.001	5742
2886.857	5600
2888.714	5540
2890.57	5615
2892.425	5664
2894.279	5653
2896.133	5662
2897.987	5594
2899.842	5622
2901.694	5605
2903.547	5596
2905.397	5695
2907.249	5568
2909.101	5602
2910.952	5587
2912.802	5582
2914.652	5570
2916.5	5711
2918.35	5727
2920.198	5712
2922.045	5706
2923.893	5699
2925.74	5839
2927.585	5868
2929.433	5897
2931.279	5877
2933.123	5908
2934.968	5954
2936.811	5940
2938.656	5990
2940.5	6012
2942.342	6004
2944.185	6056
2946.026	6140
2947.87	6172
2949.71	6044
2951.549	6095
2953.39	6027
2955.229	5990
2957.069	6060
2958.908	5977
2960.746	6035
2962.584	5787
2964.421	5881
2966.257	5853
2968.094	5799
2969.931	5777
2971.766	5775
2973.601	5747
2975.435	5646
2977.27	5664
2979.105	5645
2980.938	5456
2982.77	5582
2984.602	5575
2986.434	5534
2988.267	5499
2990.097	5518
2991.927	5522
2993.757	5552
2995.587	5397
2997.417	5399
2999.246	5328
3001.074	5296
3002.902	5333
3004.729	5261
3006.556	5240
3008.384	5243
3010.21	5088
3012.036	5239
3013.861	5085
3015.684	5219
3017.51	5070
3019.334	5134
3021.157	5065
3022.981	5060
3024.802	5103
3026.624	5018
3028.448	4972
3030.267	5021
3032.088	5027
3033.909	5053
3035.728	5016
3037.549	4946
3039.368	4973
3041.186	5022
3043.004	4948
3044.821	5073
3046.64	4974
3048.455	4961
3050.272	4899
3052.087	4974
3053.903	4962
3055.717	4875
3057.534	4955
3059.347	4913
3061.16	5004
3062.974	4889
3064.785	4854
3066.598	4900
3068.411	4915
3070.222	4885
3072.032	4901
3073.844	4876
3075.653	4916
3077.463	4851
3079.272	4809
3081.08	4826
3082.889	4821
3084.697	4822
3086.505	4800
3088.312	4805
3090.118	4923
3091.924	4820
3093.729	4836
3095.535	4896
3097.34	4917
3099.144	4806
3100.947	4850
3102.75	4765
3104.553	4799
3106.357	4807
3108.159	4823
3109.961	4852
3111.762	4802
3113.562	4707
3115.365	4788
3117.164	4812
3118.964	4760
3120.761	4795
3122.56	4752
3124.36	4706
3126.158	4822
3127.954	4762
3129.75	4657
3131.547	4710
3133.343	4719
3135.139	4788
3136.934	4764
3138.729	4667
3140.522	4690
3142.317	4754
3144.11	4728
3145.904	4690
3147.695	4673
3149.488	4730
3151.28	4695
3153.07	4736
3154.863	4718
3156.652	4728
3158.441	4608
3160.231	4700
3162.019	4780
3163.81	4631
3165.597	4637
3167.384	4591
3169.172	4693
3170.958	4574
3172.745	4645
3174.532	4655
3176.317	4615
3178.101	4560
3179.885	4585
3181.67	4648
3183.455	4569
3185.238	4710
3187.02	4582
3188.802	4637
3190.585	4545
3192.368	4657
3194.149	4653
3195.929	4554
3197.709	4577
3199.489	4613
3201.268	4526
3203.048	4672
3204.826	4642
3206.604	4610
3208.382	4651
3210.159	4519
3211.937	4614
3213.713	4555
3215.489	4542
3217.263	4549
3219.038	4636
3220.815	4460
3222.589	4653
3224.363	4634
3226.136	4475
3227.908	4571
3229.681	4631
3231.454	4542
3233.226	4567
3234.996	4571
3236.767	4553
3238.538	4577
3240.308	4493
3242.078	4556
3243.847	4579
3245.615	4557
3247.384	4561
3249.15	4574
3250.92	4513
3252.686	4511
3254.453	4568
3256.218	4606
3257.984	4571
3259.75	4475
3261.515	4576
3263.279	4542
3265.044	4533
3266.806	4458
3268.57	4582
3270.334	4546
3272.095	4574
3273.856	4563
3275.619	4481
3277.379	4658
3279.14	4555
3280.9	4476
3282.661	4507
3284.419	4569
3286.178	4649
3287.937	4547
3289.695	4503
3291.453	4563
3293.21	4522
3294.967	4540
3296.723	4449
3298.48	4556
3300.235	4426
3301.99	4555
3303.744	4538
3305.498	4446
3307.253	4540
3309.006	4541
3310.759	4506
3312.511	4562
3314.263	4488
3316.017	4499
3317.768	4517
3319.519	4551
3321.268	4552
3323.018	4422
3324.767	4485
3326.518	4525
3328.267	4450
3330.014	4506
3331.762	4505
3333.509	4546
3335.258	4509
3337.003	4534
3338.75	4439
3340.496	4497
3342.24	4443
3343.987	4420
3345.732	4425
3347.475	4455
3349.219	4489
3350.961	4508
3352.705	4430
3354.448	4411
3356.19	4493
3357.931	4440
3359.672	4383
3361.412	4377
3363.155	4430
3364.894	4441
3366.633	4402
3368.372	4378
3370.11	4411
3371.849	4398
3373.588	4445
3375.325	4397
3377.061	4402
3378.799	4380
3380.534	4385
3382.271	4376
3384.006	4403
3385.741	4283
3387.475	4444
3389.209	4377
3390.944	4328
3392.677	4331
3394.409	4392
3396.143	4315
3397.874	4308
3399.606	4396
3401.338	4304
3403.069	4271
3404.799	4348
3406.528	4325
3408.258	4412
3409.988	4313
3411.717	4268
3413.445	4269
3415.173	4242
3416.899	4235
3418.626	4333
3420.354	4210
3422.08	4164
3423.806	4288
3425.531	4326
3427.255	4181
3428.981	4293
3430.705	4192
3432.429	4247
3434.151	4283
3435.875	4217
3437.599	4148
3439.321	4192
3441.042	4269
3442.763	4285
3444.483	4164
3446.204	4197
3447.926	4183
3449.645	4164
3451.364	4240
3453.082	4181
3454.801	4274
3456.52	4151
3458.238	4226
3459.954	4181
3461.671	4074
3463.387	4275
3465.104	4190
3466.82	4167
3468.534	4126
3470.25	4147
3471.963	4146
3473.676	4034
3475.392	4098
3477.104	4067
3478.817	4059
3480.528	4125
3482.241	4035
3483.954	4119
3485.664	4132
3487.374	4185
3489.084	4115
3490.795	4059
3492.504	4127
3494.214	4041
3495.922	4048
3497.63	4014
3499.338	4026
3501.045	4109
3502.753	4015
3504.459	4010
3506.166	4036
3507.871	4018
3509.576	4004
3511.283	4000
3512.987	3924
3514.691	4019
3516.395	3890
3518.098	3995
3519.8	4000
3521.504	3972
3523.206	3970
3524.908	3965
3526.609	3943
3528.309	3998
3530.011	3881
3531.711	4065
3533.411	3966
3535.109	3953
3536.808	3930
3538.507	3906
3540.206	3926
3541.904	3987
3543.601	3922
3545.297	3903
3546.994	4023
3548.69	3826
3550.387	3914
3552.081	3946
3553.776	3925
3555.47	3861
3557.166	3903
3558.859	3904
3560.553	3924
3562.245	3950
3563.938	3809
3565.629	3891
3567.322	3897
3569.014	3877
3570.704	3803
3572.394	3829
3574.084	3808
3575.775	3895
3577.464	3824
3579.152	3857
3580.842	3817
3582.529	3895
3584.216	3818
3585.905	3837
3587.591	3770
3589.279	3802
3590.964	3743
3592.649	3764
3594.336	3744
3596.021	3763
3597.705	3752
3599.388	3686
3601.072	3789
3602.757	3714
3604.439	3820
3606.122	3782
3607.803	3779
3609.485	3678
3611.167	3733
3612.849	3758
3614.529	3719
3616.208	3709
3617.888	3749
3619.567	3742
3621.247	3707
3622.926	3758
3624.603	3671
3626.281	3753
3627.958	3612
3629.635	3615
3631.312	3742
3632.989	3617
3634.665	3665
3636.339	3698
3638.014	3667
3639.691	3619
3641.364	3576
3643.038	3620
3644.71	3583
3646.384	3606
3648.058	3636
3649.729	3655
3651.402	3570
3653.073	3580
3654.744	3633
3656.414	3577
3658.085	3611
3659.755	3549
3661.424	3604
3663.094	3623
3664.762	3646
3666.431	3590
3668.099	3587
3669.766	3553
3671.433	3626
3673.099	3607
3674.768	3601
3676.433	3539
3678.098	3533
3679.763	3549
3681.428	3521
3683.093	3557
3684.757	3538
3686.421	3540
3688.083	3615
3689.746	3605
3691.408	3517
3693.071	3492
3694.733	3551
3696.394	3506
3698.054	3486
3699.715	3527
3701.375	3534
3703.036	3482
3704.695	3488
3706.354	3518
3708.012	3505
3709.67	3496
3711.329	3501
3712.987	3531
3714.644	3453
3716.299	3454
3717.955	3552
3719.613	3510
3721.268	3456
3722.923	3427
3724.577	3502
3726.231	3498
3727.885	3506
3729.539	3487
3731.192	3433
3732.845	3492
3734.497	3426
3736.149	3309
3737.802	3437
3739.453	3476
3741.104	3423
3742.753	3425
3744.404	3446
3746.052	3432
3747.704	3396
3749.352	3415
3751	3429
3752.648	3461
3754.296	3452
3755.944	3445
3757.59	3458
3759.238	3401
3760.883	3454
3762.528	3381
3764.176	3308
3765.82	3329
3767.464	3420
3769.109	3338
3770.753	3389
3772.396	3400
3774.04	3321
3775.683	3362
3777.325	3376
3778.967	3433
3780.608	3363
3782.25	3385
3783.89	3345
3785.531	3360
3787.17	3344
3788.81	3326
3790.45	3311
3792.09	3300
3793.729	3316
3795.366	3263
3797.003	3315
3798.64	3247
3800.278	3357
3801.915	3290
3803.551	3336
3805.187	3375
3806.822	3261
3808.458	3302
3810.093	3299
3811.726	3237
3813.36	3362
3814.994	3235
3816.627	3272
3818.262	3320
3819.893	3174
3821.525	3246
3823.157	3340
3824.787	3231
3826.42	3331
3828.051	3207
3829.68	3173
3831.31	3169
3832.938	3222
3834.569	3195
3836.198	3321
3837.825	3257
3839.454	3154
3841.08	3226
3842.708	3182
3844.335	3316
3845.962	3226
3847.587	3313
3849.212	3215
3850.838	3253
3852.463	3174
3854.089	3224
3855.712	3171
3857.335	3223
3858.959	3239
3860.582	3081
3862.205	3182
3863.827	3216
3865.449	3113
3867.07	3243
3868.691	3191
3870.312	3199
3871.933	3190
3873.553	3190
3875.173	3117
3876.792	3261
3878.411	3197
3880.03	3180
3881.647	3158
3883.265	3158
3884.882	3111
3886.499	3178
3888.116	3127
3889.732	3174
3891.348	3166
3892.964	3141
3894.579	3185
3896.195	3216
3897.809	3114
3899.423	3104
3901.036	3094
3902.648	3184
3904.261	3096
3905.875	3043
3907.487	3054
3909.099	3171
3910.709	3118
3912.321	3129
3913.933	3064
3915.542	3049
3917.152	3071
3918.762	3113
3920.37	3170
3921.98	3102
3923.589	3148
3925.196	3099
3926.804	3130
3928.41	3132
3930.018	3069
3931.626	3059
3933.231	3111
3934.838	3116
3936.442	3045
3938.046	3069
3939.653	3086
3941.257	3058
3942.861	3052
3944.464	3038
3946.068	3070
3947.67	3125
3949.273	3085
3950.876	3021
3952.477	3067
3954.078	3024
3955.678	3067
3957.281	3089
3958.881	3042
3960.48	3044
3962.079	3006
3963.678	2976
3965.279	3055
3966.877	3027
3968.475	3032
3970.072	3028
3971.669	3111
3973.266	3002
3974.864	3017
3976.459	3004
3978.055	3006
3979.65	2927
3981.245	2984
3982.841	3015
3984.436	3032
3986.03	2937
3987.623	2959
3989.216	2905
3990.809	2918
3992.403	2896
3993.995	2924
3995.586	2996
3997.177	2964
3998.768	2916
4000.361	2993
4001.951	2927
4003.54	2919
4005.13	2940
4006.719	2952
4008.31	2940
4009.897	2905
4011.485	2878
4013.073	2925
4014.66	2913
4016.247	2877
4017.834	2924
4019.421	2853
4021.006	2953
4022.592	2882
4024.178	2933
4025.763	2906
4027.348	2799
4028.932	2865
4030.515	2928
4032.099	2897
4033.682	2802
4035.266	2850
4036.847	2871
4038.429	2844
4040.011	2898
4041.592	2810
4043.173	2862
4044.755	2835
4046.334	2736
4047.913	2848
4049.494	2821
4051.074	2871
4052.652	2816
4054.23	2820
4055.807	2802
4057.385	2856
4058.963	2828
4060.541	2834
4062.117	2807
4063.693	2798
4065.269	2831
4066.844	2798
4068.42	2807
4069.995	2806
4071.569	2878
4073.143	2798
4074.716	2793
4076.291	2826
4077.864	2728
4079.436	2740
4081.009	2763
4082.58	2766
4084.152	2790
4085.723	2785
4087.294	2877
4088.865	2786
4090.435	2773
4092.005	2751
4093.574	2779
4095.143	2697
4096.712	2704
4098.279	2716
4099.848	2769
4101.416	2759
4102.984	2700
4104.55	2752
4106.117	2702
4107.682	2735
4109.248	2738
4110.815	2787
4112.379	2704
4113.945	2760
4115.508	2703
4117.073	2681
4118.637	2744
4120.201	2696
4121.763	2695
4123.325	2646
4124.888	2732
4126.449	2678
4128.013	2672
4129.573	2685
4131.133	2671
4132.694	2692
4134.254	2652
4135.814	2684
4137.374	2681
4138.933	2662
4140.491	2710
4142.049	2618
4143.607	2624
4145.167	2637
4146.724	2642
4148.28	2631
4149.836	2622
4151.392	2650
4152.949	2574
4154.504	2572
4156.059	2637
4157.614	2578
4159.168	2643
4160.723	2664
4162.277	2605
4163.83	2686
4165.383	2572
4166.936	2548
4168.488	2604
4170.041	2640
4171.593	2632
4173.144	2593
4174.695	2578
4176.246	2565
4177.796	2595
4179.346	2549
4180.896	2555
4182.445	2584
4183.994	2579
4185.542	2610
4187.091	2513
4188.639	2582
4190.185	2510
4191.732	2491
4193.279	2578
4194.826	2584
4196.373	2532
4197.918	2570
4199.463	2524
4201.008	2578
4202.553	2595
4204.098	2509
4205.641	2553
4207.185	2556
4208.728	2566
4210.271	2498
4211.814	2547
4213.357	2585
4214.898	2511
4216.439	2563
4217.98	2582
4219.522	2559
4221.062	2531
4222.603	2569
4224.142	2520
4225.681	2525
4227.222	2500
4228.76	2599
4230.298	2475
4231.835	2466
4233.373	2459
4234.911	2501
4236.449	2532
4237.985	2493
4239.521	2490
4241.057	2517
4242.592	2501
4244.128	2492
4245.663	2522
4247.197	2479
4248.731	2539
4250.265	2506
4251.798	2498
4253.333	2466
4254.865	2476
4256.397	2445
4257.93	2430
4259.461	2489
4260.994	2433
4262.525	2454
4264.056	2485
4265.586	2505
4267.115	2466
4268.646	2474
4270.176	2454
4271.705	2411
4273.232	2434
4274.761	2426
4276.289	2449
4277.818	2472
4279.345	2488
4280.872	2452
4282.399	2381
4283.924	2470
4285.452	2419
4286.976	2452
4288.502	2411
4290.026	2401
4291.551	2345
4293.074	2408
4294.6	2395
4296.123	2415
4297.646	2440
4299.168	2446
4300.691	2383
4302.214	2368
4303.736	2402
4305.257	2325
4306.778	2387
4308.299	2412
4309.82	2373
4311.34	2380
4312.86	2378
4314.379	2311
