400.0745	3831
402.597	3679
405.1208	3815
407.6419	3714
410.1623	3749
412.6819	3833
415.201	3883
417.7172	3829
420.2369	3900
422.7538	3908
425.2701	4070
427.7856	4052
430.3005	4058
432.8147	4002
435.3282	4046
437.841	3946
440.3511	4068
442.8625	4027
445.3753	4044
447.8854	4008
450.3927	4055
452.9014	4094
455.4073	3976
457.9146	4042
460.4233	4105
462.9272	4045
465.4325	4086
467.935	4097
470.4389	4018
472.9421	4049
475.4446	3982
477.9444	4013
480.4456	4131
482.944	4081
485.4417	4133
487.9429	4186
490.4393	4167
492.935	4075
495.4321	4180
497.9264	4094
500.4221	4243
502.9171	4143
505.4094	4166
507.9011	4230
510.392	4173
512.8864	4184
515.3759	4228
517.8649	4244
520.3531	4265
522.8406	4178
525.3275	4273
527.8178	4240
530.3033	4219
532.7881	4181
535.2723	4190
537.7558	4163
540.2407	4210
542.7228	4244
545.2043	4239
547.6851	4248
550.1652	4269
552.6467	4223
555.1255	4258
557.6016	4287
560.079	4275
562.5557	4317
565.0318	4344
567.5092	4375
569.984	4408
572.456	4329
574.9294	4305
577.4022	4352
579.8762	4421
582.3456	4404
584.8163	4450
587.2863	4415
589.7557	4451
592.2224	4372
594.6924	4419
597.1578	4441
599.6245	4415
602.0905	4459
604.5538	4400
607.0206	4347
609.4825	4456
611.9459	4421
614.4066	4331
616.8686	4433
619.33	4385
621.7906	4404
624.2487	4459
626.708	4353
629.1647	4389
631.6207	4401
634.0801	4358
636.5348	4410
638.9888	4316
641.4442	4388
643.8969	4340
646.3509	4323
648.8022	4414
651.255	4476
653.705	4458
656.1544	4392
658.6031	4478
661.0532	4415
663.5026	4527
665.9493	4515
668.3954	4501
670.8409	4512
673.2877	4375
675.7318	4484
678.1752	4480
680.618	4434
683.0601	4553
685.5035	4479
687.9444	4636
690.3845	4527
692.824	4568
695.2628	4571
697.701	4557
700.1406	4689
702.5774	4591
705.0116	4553
707.4472	4591
709.8821	4635
712.3183	4599
714.7519	4562
717.1829	4579
719.6151	4649
722.0468	4606
724.4777	4633
726.908	4717
729.3377	4663
731.7667	4665
734.1931	4661
736.6208	4709
739.0498	4765
741.4742	4764
743.9	4698
746.3231	4783
748.7476	4806
751.1713	4774
753.5945	4875
756.015	4868
758.4368	4930
760.856	4739
763.2766	4763
765.6965	4746
768.1157	4809
770.5323	4849
772.9483	4764
775.3656	4920
777.7822	4802
780.1963	4796
782.6116	4883
785.0244	4898
787.4365	4795
789.8499	4898
792.2626	4855
794.6728	4888
797.0823	4885
799.4911	4892
801.8994	4881
804.3109	4885
806.7178	4901
809.124	4827
811.5297	4897
813.9347	4839
816.341	4944
818.7447	4880
821.1478	4916
823.5502	4825
825.952	4931
828.3531	4972
830.7556	4905
833.1554	4974
835.5546	4915
837.9532	4939
840.3511	4900
842.7504	4946
845.1451	4937
847.5411	4942
849.9365	5066
852.3312	4915
854.7272	5045
857.1187	5037
859.5115	5136
861.9037	5056
864.2952	5063
866.6842	4974
869.0764	5078
871.4661	5053
873.8531	5086
876.2415	4875
878.6272	4942
881.0162	4940
883.4026	4966
885.7866	5045
888.1717	5067
890.5543	5056
892.9382	4986
895.3215	4974
897.7041	4936
900.0842	5047
902.4655	4977
904.8443	5010
907.2244	5045
909.6039	5037
911.9808	5091
914.357	5082
916.7346	5179
919.1115	5051
921.4859	5129
923.8616	5160
926.2347	5162
928.6071	5243
930.979	5139
933.3541	5253
935.7247	5317
938.0946	5311
940.4639	5233
942.8326	5328
945.2026	5369
947.5701	5443
949.9369	5596
952.305	5702
954.6705	5858
957.0355	5951
959.4017	6119
961.7654	6141
964.1284	6089
966.4908	6037
968.8527	5843
971.2138	5675
973.5743	5587
975.9343	5282
978.2936	5307
980.6522	5239
983.0122	5300
985.3696	5147
987.7245	5179
990.0807	5153
992.4362	5226
994.7911	5101
997.1474	5204
999.4991	5157
1001.852	5284
1004.205	5199
1006.555	5234
1008.908	5294
1011.258	5265
1013.606	5146
1015.956	5181
1018.302	5116
1020.652	5210
1022.998	5244
1025.345	5250
1027.691	5229
1030.035	5376
1032.378	5331
1034.724	5332
1037.066	5307
1039.409	5276
1041.75	5321
1044.092	5253
1046.433	5239
1048.771	5367
1051.112	5260
1053.449	5284
1055.786	5216
1058.124	5358
1060.462	5299
1062.797	5403
1065.131	5432
1067.467	5373
1069.8	5438
1072.135	5450
1074.467	5347
1076.798	5401
1079.129	5334
1081.459	5295
1083.792	5413
1086.121	5386
1088.449	5351
1090.777	5341
1093.104	5250
1095.431	5298
1097.759	5300
1100.084	5337
1102.408	5276
1104.732	5272
1107.056	5334
1109.379	5313
1111.701	5245
1114.022	5316
1116.343	5322
1118.664	5369
1120.983	5356
1123.303	5285
1125.621	5384
1127.939	5309
1130.256	5432
1132.573	5314
1134.889	5435
1137.205	5363
1139.52	5360
1141.832	5366
1144.146	5304
1146.461	5324
1148.771	5328
1151.083	5319
1153.392	5410
1155.703	5454
1158.011	5401
1160.323	5445
1162.629	5212
1164.938	5332
1167.243	5351
1169.55	5348
1171.857	5414
1174.163	5183
1176.466	5332
1178.769	5362
1181.073	5426
1183.374	5344
1185.677	5402
1187.979	5378
1190.279	5331
1192.578	5377
1194.878	5429
1197.178	5358
1199.476	5331
1201.772	5357
1204.068	5346
1206.366	5377
1208.663	5475
1210.957	5364
1213.251	5404
1215.544	5404
1217.836	5403
1220.128	5393
1222.421	5462
1224.712	5376
1227.002	5465
1229.292	5426
1231.581	5462
1233.871	5387
1236.159	5488
1238.446	5582
1240.732	5551
1243.018	5550
1245.304	5634
1247.59	5622
1249.874	5554
1252.156	5554
1254.439	5625
1256.721	5608
1259.005	5477
1261.286	5604
1263.565	5555
1265.845	5491
1268.125	5495
1270.403	5599
1272.682	5518
1274.959	5642
1277.234	5492
1279.511	5557
1281.787	5475
1284.062	5545
1286.337	5495
1288.609	5572
1290.882	5351
1293.153	5536
1295.428	5420
1297.698	5551
1299.969	5397
1302.237	5518
1304.507	5498
1306.777	5336
1309.044	5494
1311.312	5388
1313.578	5475
1315.844	5426
1318.109	5599
1320.375	5417
1322.638	5533
1324.903	5446
1327.165	5579
1329.427	5364
1331.69	5502
1333.952	5402
1336.212	5483
1338.471	5518
1340.73	5580
1342.988	5412
1345.248	5427
1347.505	5467
1349.763	5546
1352.019	5467
1354.274	5435
1356.53	5574
1358.784	5524
1361.038	5477
1363.291	5412
1365.543	5461
1367.797	5450
1370.048	5480
1372.296	5513
1374.546	5504
1376.796	5461
1379.045	5452
1381.295	5412
1383.542	5504
1385.787	5670
1388.034	5571
1390.28	5618
1392.527	5557
1394.772	5611
1397.014	5476
1399.258	5598
1401.501	5605
1403.741	5673
1405.985	5560
1408.226	5589
1410.465	5572
1412.705	5688
1414.943	5671
1417.184	5636
1419.42	5608
1421.658	5586
1423.894	5679
1426.13	5632
1428.366	5605
1430.602	5593
1432.835	5628
1435.069	5731
1437.301	5746
1439.535	5650
1441.767	5739
1443.997	5691
1446.229	5712
1448.458	5627
1450.687	5747
1452.916	5706
1455.146	5743
1457.372	5688
1459.599	5754
1461.824	5721
1464.051	5708
1466.277	5747
1468.501	5563
1470.725	5662
1472.948	5640
1475.17	5603
1477.393	5675
1479.614	5594
1481.837	5543
1484.057	5565
1486.276	5644
1488.497	5528
1490.715	5461
1492.932	5529
1495.148	5494
1497.364	5483
1499.58	5551
1501.798	5453
1504.012	5473
1506.227	5630
1508.44	5496
1510.653	5450
1512.866	5424
1515.078	5453
1517.289	5488
1519.5	5488
1521.711	5496
1523.92	5543
1526.13	5404
1528.338	5519
1530.544	5503
1532.752	5421
1534.959	5566
1537.165	5562
1539.371	5508
1541.574	5514
1543.779	5509
1545.983	5580
1548.187	5508
1550.39	5587
1552.59	5573
1554.792	5502
1556.991	5574
1559.19	5519
1561.392	5641
1563.59	5494
1565.789	5601
1567.986	5520
1570.182	5662
1572.381	5617
1574.576	5630
1576.771	5609
1578.966	5618
1581.16	5654
1583.354	5600
1585.546	5624
1587.74	5611
1589.931	5653
1592.121	5692
1594.311	5744
1596.502	5700
1598.693	5527
1600.881	5653
1603.069	5777
1605.256	5684
1607.445	5665
1609.631	5739
1611.816	5608
1614.001	5661
1616.186	5700
1618.37	5782
1620.555	5646
1622.737	5657
1624.919	5692
1627.101	5679
1629.282	5703
1631.463	5650
1633.643	5648
1635.822	5805
1638.001	5651
1640.179	5637
1642.359	5643
1644.534	5775
1646.711	5677
1648.887	5683
1651.062	5816
1653.235	5716
1655.412	5765
1657.586	5747
1659.757	5853
1661.93	5808
1664.1	5782
1666.274	5781
1668.445	5732
1670.614	5817
1672.784	5853
1674.951	5734
1677.12	5890
1679.289	5662
1681.457	5803
1683.622	5844
1685.789	5820
1687.953	5707
1690.121	5684
1692.284	5710
1694.447	5715
1696.611	5608
1698.772	5734
1700.935	5596
1703.098	5727
1705.258	5599
1707.417	5710
1709.576	5724
1711.736	5611
1713.896	5604
1716.053	5645
1718.21	5712
1720.366	5514
1722.522	5705
1724.68	5718
1726.835	5571
1728.989	5615
1731.142	5657
1733.295	5469
1735.449	5702
1737.601	5552
1739.753	5639
1741.903	5672
1744.054	5632
1746.203	5688
1748.354	5563
1750.503	5748
1752.651	5700
1754.798	5794
1756.944	5690
1759.092	5798
1761.238	5655
1763.383	5607
1765.528	5760
1767.672	5616
1769.814	5712
1771.959	5676
1774.102	5738
1776.242	5683
1778.384	5761
1780.525	5701
1782.665	5737
1784.805	5707
1786.945	5670
1789.082	5682
1791.22	5731
1793.36	5606
1795.495	5635
1797.632	5699
1799.766	5688
1801.902	5754
1804.035	5668
1806.172	5685
1808.304	5728
1810.436	5641
1812.569	5679
1814.699	5787
1816.833	5603
1818.963	5704
1821.092	5776
1823.222	5637
1825.35	5600
1827.478	5719
1829.608	5653
1831.734	5621
1833.86	5693
1835.986	5745
1838.11	5634
1840.238	5662
1842.362	5710
1844.485	5597
1846.608	5595
1848.73	5614
1850.853	5795
1852.974	5768
1855.097	5598
1857.217	5524
1859.336	5726
1861.455	5570
1863.576	5689
1865.693	5638
1867.811	5584
1869.926	5595
1872.042	5510
1874.16	5672
1876.275	5638
1878.39	5600
1880.504	5686
1882.618	5677
1884.731	5590
1886.843	5641
1888.956	5589
1891.067	5633
1893.178	5592
1895.287	5531
1897.399	5731
1899.508	5616
1901.617	5640
1903.724	5618
1905.832	5675
1907.941	5703
1910.046	5657
1912.152	5579
1914.256	5780
1916.361	5668
1918.464	5650
1920.57	5672
1922.672	5775
1924.775	5637
1926.876	5666
1928.978	5684
1931.08	5737
1933.181	5737
1935.28	5677
1937.38	5783
1939.478	5701
1941.577	5682
1943.675	5686
1945.771	5763
1947.867	5641
1949.964	5710
1952.058	5762
1954.154	5739
1956.248	5759
1958.343	5698
1960.435	5743
1962.527	5805
1964.62	5704
1966.711	5672
1968.802	5806
1970.892	5707
1972.983	5700
1975.072	5733
1977.162	5637
1979.25	5689
1981.337	5716
1983.424	5714
1985.51	5568
1987.598	5740
1989.683	5614
1991.768	5685
1993.852	5648
1995.934	5680
1998.019	5765
2000.102	5634
2002.184	5644
2004.266	5695
2006.347	5636
2008.427	5685
2010.508	5685
2012.587	5701
2014.666	5566
2016.745	5546
2018.821	5709
2020.9	5647
2022.977	5643
2025.052	5555
2027.128	5629
2029.204	5647
2031.277	5615
2033.353	5616
2035.425	5725
2037.499	5534
2039.57	5682
2041.642	5609
2043.714	5671
2045.786	5652
2047.855	5577
2049.925	5682
2051.993	5565
2054.064	5644
2056.132	5602
2058.2	5712
2060.266	5702
2062.332	5626
2064.398	5584
2066.465	5492
2068.529	5773
2070.592	5648
2072.657	5707
2074.719	5713
2076.783	5625
2078.845	5706
2080.907	5646
2082.968	5617
2085.028	5714
2087.087	5649
2089.148	5615
2091.207	5601
2093.264	5631
2095.322	5735
2097.379	5696
2099.439	5646
2101.495	5763
2103.55	5647
2105.605	5652
2107.658	5631
2109.713	5702
2111.767	5550
2113.82	5731
2115.872	5653
2117.924	5613
2119.975	5679
2122.028	5648
2124.078	5623
2126.126	5697
2128.176	5623
2130.225	5496
2132.275	5525
2134.321	5586
2136.368	5649
2138.415	5599
2140.461	5616
2142.505	5618
2144.552	5551
2146.597	5594
2148.64	5503
2150.684	5555
2152.725	5668
2154.77	5648
2156.811	5619
2158.852	5617
2160.894	5537
2162.933	5495
2164.973	5656
2167.013	5603
2169.051	5602
2171.089	5620
2173.126	5586
2175.164	5463
2177.201	5625
2179.236	5582
2181.273	5565
2183.307	5499
2185.341	5601
2187.377	5550
2189.41	5626
2191.442	5475
2193.473	5592
2195.506	5496
2197.539	5548
2199.569	5552
2201.598	5545
2203.628	5462
2205.656	5521
2207.686	5387
2209.716	5508
2211.743	5469
2213.769	5533
2215.796	5616
2217.821	5427
2219.848	5456
2221.873	5514
2223.897	5515
2225.921	5532
2227.944	5511
2229.967	5324
2231.991	5415
2234.011	5651
2236.032	5445
2238.053	5503
2240.073	5502
2242.094	5467
2244.114	5397
2246.131	5605
2248.149	5548
2250.167	5449
2252.186	5432
2254.201	5468
2256.218	5535
2258.233	5443
2260.247	5466
2262.262	5444
2264.278	5424
2266.29	5464
2268.303	5485
2270.315	5471
2272.327	5431
2274.341	5424
2276.35	5523
2278.361	5435
2280.37	5435
2282.38	5556
2284.388	5404
2286.397	5515
2288.405	5507
2290.412	5468
2292.419	5488
2294.425	5481
2296.431	5440
2298.437	5438
2300.441	5469
2302.445	5404
2304.449	5417
2306.453	5450
2308.455	5522
2310.457	5401
2312.459	5541
2314.46	5481
2316.46	5428
2318.461	5387
2320.46	5363
2322.458	5421
2324.458	5395
2326.456	5434
2328.455	5421
2330.451	5341
2332.447	5391
2334.443	5327
2336.438	5436
2338.433	5443
2340.429	5449
2342.422	5464
2344.416	5341
2346.408	5398
2348.399	5463
2350.393	5401
2352.384	5397
2354.375	5387
2356.365	5399
2358.355	5350
2360.344	5390
2362.333	5266
2364.322	5442
2366.309	5428
2368.295	5311
2370.282	5292
2372.27	5289
2374.256	5287
2376.24	5314
2378.225	5393
2380.208	5294
2382.194	5224
2384.177	5231
2386.159	5331
2388.142	5299
2390.122	5290
2392.105	5218
2394.085	5316
2396.066	5236
2398.044	5248
2400.024	5324
2402.002	5262
2403.982	5229
2405.959	5393
2407.935	5343
2409.913	5190
2411.888	5196
2413.865	5239
2415.84	5241
2417.814	5189
2419.788	5230
2421.762	5287
2423.735	5228
2425.708	5257
2427.68	5226
2429.651	5189
2431.623	5207
2433.593	5224
2435.564	5288
2437.533	5249
2439.502	5250
2441.47	5255
2443.438	5314
2445.406	5261
2447.373	5223
2449.34	5246
2451.305	5243
2453.271	5260
2455.235	5225
2457.201	5214
2459.165	5132
2461.129	5293
2463.092	5246
2465.054	5230
2467.018	5148
2468.978	5214
2470.939	5094
2472.899	5290
2474.86	5145
2476.819	5174
2478.778	5098
2480.737	5203
2482.695	5154
2484.653	5196
2486.609	5160
2488.567	5192
2490.524	5149
2492.478	5146
2494.433	5149
2496.387	5157
2498.343	5282
2500.297	5105
2502.249	5117
2504.202	5118
2506.153	5203
2508.105	5175
2510.057	5131
2512.008	5155
2513.957	5118
2515.906	5108
2517.855	5095
2519.805	5133
2521.754	5165
2523.7	5147
2525.647	5153
2527.594	5093
2529.54	5034
2531.486	5088
2533.431	5155
2535.376	5128
2537.32	5037
2539.263	5169
2541.207	5128
2543.151	5076
2545.093	5011
2547.034	5217
2548.975	5166
2550.917	5135
2552.856	5084
2554.796	5031
2556.735	5041
2558.673	5027
2560.611	5060
2562.55	5119
2564.487	5131
2566.424	5206
2568.36	5088
2570.296	5160
2572.232	5124
2574.167	5122
2576.101	5213
2578.035	5178
2579.969	5137
2581.902	5101
2583.834	5095
2585.766	5203
2587.698	5081
2589.628	5122
2591.557	5049
2593.489	5135
2595.419	5180
2597.348	5146
2599.275	5144
2601.204	5125
2603.131	5100
2605.059	5113
2606.986	5172
2608.911	5083
2610.837	5085
2612.76	5076
2614.687	5258
2616.61	5173
2618.534	5085
2620.457	5135
2622.38	5077
2624.302	5182
2626.225	5121
2628.145	5241
2630.067	5147
2631.986	5085
2633.906	5176
2635.827	5151
2637.745	5169
2639.662	5141
2641.581	5086
2643.498	5150
2645.415	5160
2647.331	5133
2649.248	5175
2651.163	5106
2653.077	5136
2654.993	5082
2656.906	5098
2658.821	5108
2660.733	5015
2662.646	5124
2664.557	5089
2666.47	5194
2668.381	5146
2670.291	5012
2672.201	5135
2674.11	5073
2676.021	5051
2677.929	5023
2679.837	5086
2681.745	5069
2683.652	5169
2685.56	5046
2687.466	4975
2689.371	4994
2691.276	5012
2693.181	5059
2695.085	4877
2696.991	5143
2698.893	5009
2700.796	5038
2702.698	4961
2704.601	4941
2706.502	4992
2708.404	5020
2710.304	5057
2712.203	4903
2714.103	4947
2716.003	5104
2717.902	4968
2719.8	4968
2721.697	4937
2723.594	4980
2725.49	5084
2727.389	4981
2729.283	4926
2731.179	4880
2733.073	5050
2734.968	5049
2736.863	4935
2738.757	4978
2740.649	4961
2742.541	5059
2744.433	4935
2746.324	5010
2748.216	4912
2750.107	4940
2751.997	4847
2753.886	4927
2755.776	5061
2757.666	4954
2759.553	4923
2761.44	4894
2763.327	5032
2765.215	4827
2767.102	5095
2768.988	4975
2770.873	4919
2772.757	4980
2774.641	4885
2776.525	4909
2778.41	4879
2780.292	4954
2782.175	4921
2784.057	4925
2785.938	4885
2787.821	4920
2789.701	4964
2791.581	4910
2793.461	4962
2795.34	4912
2797.219	4918
2799.099	4965
2800.975	4822
2802.853	4857
2804.73	4813
2806.606	4876
2808.484	4979
2810.358	4844
2812.233	4852
2814.108	4830
2815.981	4925
2817.857	4831
2819.73	4952
2821.602	4840
2823.474	4875
2825.346	4900
2827.217	4860
2829.089	4841
2830.959	4795
2832.829	4874
2834.698	4841
2836.567	4829
2838.436	4950
2840.305	4865
2842.172	4868
2844.04	4819
2845.905	4881
2847.772	5041
2849.639	4966
2851.503	4884
2853.369	4923
2855.232	4839
2857.096	4890
2858.961	4984
2860.824	4917
2862.686	4869
2864.547	5025
2866.41	4930
2868.272	4955
2870.132	5047
2871.992	4974
2873.851	5026
2875.711	5136
2877.57	5156
2879.429	5121
2881.287	4990
2883.144	5218
2885.001	5112
2886.857	5143
2888.714	5057
2890.57	5212
2892.425	5165
2894.279	5185
2896.133	5242
2897.987	5162
2899.842	5085
2901.694	5098
2903.547	5099
2905.397	5198
2907.249	5120
2909.101	5150
2910.952	5113
2912.802	5236
2914.652	5196
2916.5	5166
2918.35	5235
2920.198	5283
2922.045	5303
2923.893	5210
2925.74	5355
2927.585	5337
2929.433	5386
2931.279	5490
2933.123	5400
2934.968	5421
2936.811	5527
2938.656	5667
2940.5	5567
2942.342	5659
2944.185	5596
2946.026	5585
2947.87	5620
2949.71	5569
2951.549	5606
2953.39	5484
2955.229	5467
2957.069	5425
2958.908	5434
2960.746	5441
2962.584	5344
2964.421	5335
2966.257	5415
2968.094	5244
2969.931	5243
2971.766	5244
2973.601	5186
2975.435	5177
2977.27	5200
2979.105	5182
2980.938	5128
2982.77	5126
2984.602	4989
2986.434	5036
2988.267	5060
2990.097	5045
2991.927	5055
2993.757	5096
2995.587	4999
2997.417	4999
2999.246	4950
3001.074	4920
3002.902	4814
3004.729	4914
3006.556	4818
3008.384	4917
3010.21	4818
3012.036	4860
3013.861	4800
3015.684	4666
3017.51	4725
3019.334	4663
3021.157	4645
3022.981	4691
3024.802	4620
3026.624	4708
3028.448	4572
3030.267	4617
3032.088	4605
3033.909	4665
3035.728	4572
3037.549	4628
3039.368	4535
3041.186	4700
3043.004	4554
3044.821	4581
3046.64	4517
3048.455	4581
3050.272	4553
3052.087	4550
3053.903	4549
3055.717	4584
3057.534	4578
3059.347	4632
3061.16	4467
3062.974	4607
3064.785	4595
3066.598	4492
3068.411	4565
3070.222	4505
3072.032	4488
3073.844	4529
3075.653	4524
3077.463	4515
3079.272	4456
3081.08	4493
3082.889	4477
3084.697	4544
3086.505	4483
3088.312	4497
3090.118	4481
3091.924	4405
3093.729	4543
3095.535	4389
3097.34	4473
3099.144	4470
3100.947	4361
3102.75	4485
3104.553	4341
3106.357	4412
3108.159	4339
3109.961	4458
3111.762	4461
3113.562	4379
3115.365	4381
3117.164	4364
3118.964	4377
3120.761	4356
3122.56	4285
3124.36	4437
3126.158	4366
3127.954	4348
3129.75	4290
3131.547	4368
3133.343	4401
3135.139	4264
3136.934	4390
3138.729	4382
3140.522	4264
3142.317	4314
3144.11	4263
3145.904	4345
3147.695	4329
3149.488	4305
3151.28	4291
3153.07	4307
3154.863	4344
3156.652	4323
3158.441	4304
3160.231	4271
3162.019	4262
3163.81	4304
3165.597	4215
3167.384	4237
3169.172	4197
3170.958	4254
3172.745	4240
3174.532	4304
3176.317	4328
3178.101	4204
3179.885	4295
3181.67	4205
3183.455	4278
3185.238	4217
3187.02	4191
3188.802	4156
3190.585	4241
3192.368	4185
3194.149	4326
3195.929	4179
3197.709	4253
3199.489	4192
3201.268	4201
3203.048	4201
3204.826	4180
3206.604	4082
3208.382	4300
3210.159	4228
3211.937	4271
3213.713	4225
3215.489	4209
3217.263	4197
3219.038	4156
3220.815	4213
3222.589	4179
3224.363	4264
3226.136	4125
3227.908	4123
3229.681	4268
3231.454	4113
3233.226	4188
3234.996	4199
3236.767	4128
3238.538	4186
3240.308	4156
3242.078	4164
3243.847	4187
3245.615	4158
3247.384	4172
3249.15	4188
3250.92	4286
3252.686	4177
3254.453	4162
3256.218	4203
3257.984	4211
3259.75	4158
3261.515	4236
3263.279	4281
3265.044	4111
3266.806	4125
3268.57	4165
3270.334	4211
3272.095	4213
3273.856	4206
3275.619	4169
3277.379	4187
3279.14	4160
3280.9	4136
3282.661	4160
3284.419	4166
3286.178	4099
3287.937	4207
3289.695	4159
3291.453	4151
3293.21	4140
3294.967	4094
3296.723	4211
3298.48	4134
3300.235	4045
3301.99	4077
3303.744	4175
3305.498	4164
3307.253	4162
3309.006	4095
3310.759	4116
3312.511	4138
3314.263	4133
3316.017	4130
3317.768	4117
3319.519	4203
3321.268	4207
3323.018	4176
3324.767	4155
3326.518	4205
3328.267	4018
3330.014	4152
3331.762	4208
3333.509	4078
3335.258	4137
3337.003	4196
3338.75	4090
3340.496	4002
3342.24	4089
3343.987	4170
3345.732	4103
3347.475	4119
3349.219	4095
3350.961	4067
3352.705	4014
3354.448	4094
3356.19	3988
3357.931	4027
3359.672	4081
3361.412	4115
3363.155	3992
3364.894	4089
3366.633	4081
3368.372	4028
3370.11	4000
3371.849	4037
3373.588	4098
3375.325	3955
3377.061	4042
3378.799	3937
3380.534	4019
3382.271	3934
3384.006	4054
3385.741	4040
3387.475	3973
3389.209	3972
3390.944	4024
3392.677	3987
3394.409	3991
3396.143	3966
3397.874	3908
3399.606	4009
3401.338	3911
3403.069	4046
3404.799	3998
3406.528	3997
3408.258	4049
3409.988	3963
3411.717	4037
3413.445	3984
3415.173	3996
3416.899	3881
3418.626	4095
3420.354	3944
3422.08	3944
3423.806	3928
3425.531	4009
3427.255	3958
3428.981	4028
3430.705	3906
3432.429	3961
3434.151	3952
3435.875	3904
3437.599	3996
3439.321	3945
3441.042	3974
3442.763	3813
3444.483	3801
3446.204	3929
3447.926	3930
3449.645	3892
3451.364	3857
3453.082	3826
3454.801	3859
3456.52	3889
3458.238	3852
3459.954	3886
3461.671	3892
3463.387	3865
3465.104	3804
3466.82	3798
3468.534	3878
3470.25	3844
3471.963	3820
3473.676	3803
3475.392	3715
3477.104	3792
3478.817	3848
3480.528	3803
3482.241	3764
3483.954	3760
3485.664	3763
3487.374	3771
3489.084	3747
3490.795	3830
3492.504	3800
3494.214	3807
3495.922	3780
3497.63	3788
3499.338	3632
3501.045	3751
3502.753	3723
3504.459	3699
3506.166	3711
3507.871	3741
3509.576	3764
3511.283	3722
3512.987	3773
3514.691	3787
3516.395	3749
3518.098	3677
3519.8	3677
3521.504	3711
3523.206	3736
3524.908	3652
3526.609	3632
3528.309	3672
3530.011	3700
3531.711	3620
3533.411	3592
3535.109	3696
3536.808	3706
3538.507	3620
3540.206	3670
3541.904	3682
3543.601	3653
3545.297	3684
3546.994	3581
3548.69	3657
3550.387	3607
3552.081	3657
3553.776	3599
3555.47	3683
3557.166	3522
3558.859	3632
3560.553	3563
3562.245	3654
3563.938	3642
3565.629	3621
3567.322	3558
3569.014	3665
3570.704	3588
3572.394	3612
3574.084	3611
3575.775	3642
3577.464	3589
3579.152	3561
3580.842	3610
3582.529	3634
3584.216	3624
3585.905	3553
3587.591	3592
3589.279	3639
3590.964	3532
3592.649	3510
3594.336	3533
3596.021	3559
3597.705	3488
3599.388	3531
3601.072	3514
3602.757	3468
3604.439	3412
3606.122	3459
3607.803	3533
3609.485	3513
3611.167	3523
3612.849	3441
3614.529	3492
3616.208	3489
3617.888	3494
3619.567	3527
3621.247	3440
3622.926	3441
3624.603	3424
3626.281	3461
3627.958	3318
3629.635	3462
3631.312	3456
3632.989	3420
3634.665	3510
3636.339	3346
3638.014	3451
3639.691	3405
3641.364	3445
3643.038	3360
3644.71	3375
3646.384	3415
3648.058	3351
3649.729	3338
3651.402	3335
3653.073	3411
3654.744	3286
3656.414	3437
3658.085	3351
3659.755	3339
3661.424	3432
3663.094	3378
3664.762	3312
3666.431	3357
3668.099	3373
3669.766	3253
3671.433	3412
3673.099	3352
3674.768	3380
3676.433	3357
3678.098	3310
3679.763	3317
3681.428	3302
3683.093	3353
3684.757	3376
3686.421	3354
3688.083	3293
3689.746	3299
3691.408	3256
3693.071	3247
3694.733	3312
3696.394	3254
3698.054	3296
3699.715	3360
3701.375	3175
3703.036	3285
3704.695	3285
3706.354	3332
3708.012	3242
3709.67	3255
3711.329	3320
3712.987	3318
3714.644	3271
3716.299	3250
3717.955	3257
3719.613	3275
3721.268	3269
3722.923	3256
3724.577	3285
3726.231	3267
3727.885	3268
3729.539	3340
3731.192	3170
3732.845	3241
3734.497	3196
3736.149	3238
3737.802	3229
3739.453	3281
3741.104	3242
3742.753	3238
3744.404	3153
3746.052	3245
3747.704	3196
3749.352	3210
3751	3181
3752.648	3167
3754.296	3240
3755.944	3193
3757.59	3219
3759.238	3238
3760.883	3218
3762.528	3218
3764.176	3245
3765.82	3223
3767.464	3103
3769.109	3217
3770.753	3200
3772.396	3129
3774.04	3193
3775.683	3137
3777.325	3122
3778.967	3185
3780.608	3222
3782.25	3100
3783.89	3179
3785.531	3167
3787.17	3135
3788.81	3167
3790.45	3055
3792.09	3142
3793.729	3148
3795.366	3086
3797.003	3084
3798.64	3121
3800.278	3125
3801.915	3037
3803.551	3098
3805.187	3072
3806.822	3146
3808.458	3057
3810.093	3123
3811.726	3106
3813.36	3059
3814.994	3001
3816.627	3082
3818.262	3116
3819.893	3053
3821.525	3045
3823.157	3126
3824.787	3087
3826.42	3112
3828.051	3030
3829.68	3078
3831.31	3098
3832.938	3020
3834.569	3096
3836.198	3076
3837.825	3020
3839.454	3025
3841.08	3064
3842.708	3046
3844.335	3067
3845.962	3024
3847.587	3012
3849.212	3044
3850.838	3045
3852.463	2988
3854.089	3028
3855.712	2963
3857.335	3027
3858.959	2995
3860.582	3054
3862.205	3061
3863.827	3060
3865.449	2985
3867.07	3034
3868.691	3019
3870.312	2945
3871.933	2988
3873.553	3050
3875.173	2938
3876.792	2984
3878.411	3002
3880.03	2931
3881.647	3082
3883.265	2977
3884.882	2992
3886.499	2979
3888.116	2964
3889.732	2937
3891.348	3006
3892.964	2953
3894.579	2921
3896.195	2954
3897.809	2989
3899.423	2935
3901.036	2928
3902.648	2941
3904.261	2991
3905.875	2987
3907.487	2936
3909.099	2871
3910.709	2978
3912.321	2911
3913.933	2921
3915.542	2988
3917.152	2950
3918.762	2929
3920.37	2946
3921.98	2994
3923.589	2922
3925.196	2923
3926.804	2950
3928.41	2973
3930.018	2935
3931.626	2851
3933.231	2924
3934.838	2893
3936.442	2918
3938.046	2916
3939.653	3010
3941.257	2956
3942.861	2906
3944.464	2924
3946.068	2937
3947.67	2895
3949.273	2872
3950.876	2857
3952.477	2937
3954.078	2864
3955.678	2903
3957.281	2916
3958.881	2890
3960.48	2893
3962.079	2956
3963.678	2825
3965.279	2824
3966.877	2844
3968.475	2842
3970.072	2875
3971.669	2768
3973.266	2794
3974.864	2865
3976.459	2767
3978.055	2895
3979.65	2839
3981.245	2859
3982.841	2847
3984.436	2753
3986.03	2856
3987.623	2751
3989.216	2780
3990.809	2781
3992.403	2755
3993.995	2788
3995.586	2785
3997.177	2791
3998.768	2781
4000.361	2694
4001.951	2713
4003.54	2742
4005.13	2773
4006.719	2759
4008.31	2758
4009.897	2773
4011.485	2779
4013.073	2694
4014.66	2763
4016.247	2761
4017.834	2807
4019.421	2755
4021.006	2763
4022.592	2697
4024.178	2665
4025.763	2651
4027.348	2754
4028.932	2775
4030.515	2722
4032.099	2658
4033.682	2743
4035.266	2737
4036.847	2705
4038.429	2657
4040.011	2608
4041.592	2646
4043.173	2728
4044.755	2695
4046.334	2712
4047.913	2742
4049.494	2755
4051.074	2615
4052.652	2684
4054.23	2715
4055.807	2679
4057.385	2703
4058.963	2629
4060.541	2694
4062.117	2672
4063.693	2692
4065.269	2645
4066.844	2705
4068.42	2621
4069.995	2720
4071.569	2715
4073.143	2680
4074.716	2625
4076.291	2625
4077.864	2609
4079.436	2607
4081.009	2652
4082.58	2571
4084.152	2636
4085.723	2618
4087.294	2662
4088.865	2612
4090.435	2604
4092.005	2625
4093.574	2626
4095.143	2632
4096.712	2507
4098.279	2588
4099.848	2642
4101.416	2600
4102.984	2551
4104.55	2663
4106.117	2603
4107.682	2588
4109.248	2611
4110.815	2621
4112.379	2599
4113.945	2568
4115.508	2581
4117.073	2608
4118.637	2613
4120.201	2590
4121.763	2573
4123.325	2523
4124.888	2583
4126.449	2579
4128.013	2562
4129.573	2553
4131.133	2611
4132.694	2579
4134.254	2580
4135.814	2572
4137.374	2481
4138.933	2547
4140.491	2524
4142.049	2527
4143.607	2503
4145.167	2457
4146.724	2574
4148.28	2561
4149.836	2535
4151.392	2469
4152.949	2497
4154.504	2537
4156.059	2499
4157.614	2491
4159.168	2456
4160.723	2454
4162.277	2538
4163.83	2500
4165.383	2453
4166.936	2524
4168.488	2475
4170.041	2451
4171.593	2446
4173.144	2442
4174.695	2483
4176.246	2501
4177.796	2439
4179.346	2430
4180.896	2463
4182.445	2493
4183.994	2383
4185.542	2454
4187.091	2413
4188.639	2421
4190.185	2491
4191.732	2462
4193.279	2426
4194.826	2435
4196.373	2448
4197.918	2436
4199.463	2451
4201.008	2408
4202.553	2484
4204.098	2464
4205.641	2412
4207.185	2425
4208.728	2424
4210.271	2395
4211.814	2398
4213.357	2488
4214.898	2436
4216.439	2425
4217.98	2393
4219.522	2456
4221.062	2434
4222.603	2389
4224.142	2352
4225.681	2402
4227.222	2353
4228.76	2420
4230.298	2380
4231.835	2392
4233.373	2371
4234.911	2400
4236.449	2324
4237.985	2403
4239.521	2405
4241.057	2410
4242.592	2426
4244.128	2388
4245.663	2286
4247.197	2402
4248.731	2357
4250.265	2342
4251.798	2300
4253.333	2412
4254.865	2384
4256.397	2348
4257.93	2333
4259.461	2431
4260.994	2389
4262.525	2374
4264.056	2321
4265.586	2331
4267.115	2324
4268.646	2339
4270.176	2364
4271.705	2303
4273.232	2362
4274.761	2307
4276.289	2298
4277.818	2371
4279.345	2357
4280.872	2331
4282.399	2404
4283.924	2289
4285.452	2331
4286.976	2335
4288.502	2331
4290.026	2335
4291.551	2253
4293.074	2326
4294.6	2330
4296.123	2397
4297.646	2284
4299.168	2330
4300.691	2312
4302.214	2281
4303.736	2285
4305.257	2262
4306.778	2335
4308.299	2268
4309.82	2268
4311.34	2236
4312.86	2269
4314.379	2229
