400.0745	5799
402.597	5889
405.1208	5924
407.6419	5920
410.1623	5923
412.6819	5992
415.201	6103
417.7172	6074
420.2369	6103
422.7538	6244
425.2701	6279
427.7856	6291
430.3005	6282
432.8147	6359
435.3282	6458
437.841	6441
440.3511	6461
442.8625	6310
445.3753	6424
447.8854	6423
450.3927	6324
452.9014	6306
455.4073	6327
457.9146	6393
460.4233	6274
462.9272	6338
465.4325	6278
467.935	6328
470.4389	6325
472.9421	6342
475.4446	6447
477.9444	6291
480.4456	6446
482.944	6431
485.4417	6385
487.9429	6347
490.4393	6473
492.935	6370
495.4321	6548
497.9264	6385
500.4221	6515
502.9171	6516
505.4094	6542
507.9011	6571
510.392	6571
512.8864	6320
515.3759	6458
517.8649	6464
520.3531	6454
522.8406	6461
525.3275	6623
527.8178	6654
530.3033	6762
532.7881	6667
535.2723	6682
537.7558	6769
540.2407	6550
542.7228	6571
545.2043	6478
547.6851	6533
550.1652	6681
552.6467	6616
555.1255	6754
557.6016	6612
560.079	6688
562.5557	6647
565.0318	6659
567.5092	6659
569.984	6850
572.456	6734
574.9294	6817
577.4022	6879
579.8762	6827
582.3456	6850
584.8163	6974
587.2863	6999
589.7557	7132
592.2224	6989
594.6924	6919
597.1578	6887
599.6245	6808
602.0905	6818
604.5538	6817
607.0206	6773
609.4825	6848
611.9459	6918
614.4066	6810
616.8686	6873
619.33	6975
621.7906	6943
624.2487	6962
626.708	6815
629.1647	6676
631.6207	6827
634.0801	6836
636.5348	6763
638.9888	6743
641.4442	6890
643.8969	6832
646.3509	6965
648.8022	6897
651.255	6796
653.705	6984
656.1544	6857
658.6031	6976
661.0532	6959
663.5026	6950
665.9493	6928
668.3954	7021
670.8409	6884
673.2877	7112
675.7318	7047
678.1752	6999
680.618	6989
683.0601	7084
685.5035	7066
687.9444	6937
690.3845	7244
692.824	7171
695.2628	7132
697.701	7156
700.1406	7107
702.5774	7078
705.0116	7097
707.4472	7089
709.8821	7224
712.3183	7201
714.7519	7116
717.1829	7259
719.6151	7245
722.0468	7215
724.4777	7277
726.908	7356
729.3377	7212
731.7667	7328
734.1931	7364
736.6208	7280
739.0498	7326
741.4742	7331
743.9	7384
746.3231	7529
748.7476	7472
751.1713	7518
753.5945	7419
756.015	7415
758.4368	7568
760.856	7539
763.2766	7597
765.6965	7592
768.1157	7467
770.5323	7673
772.9483	7552
775.3656	7585
777.7822	7590
780.1963	7744
782.6116	7685
785.0244	7529
787.4365	7719
789.8499	7588
792.2626	7661
794.6728	7563
797.0823	7591
799.4911	7601
801.8994	7717
804.3109	7590
806.7178	7654
809.124	7613
811.5297	7607
813.9347	7727
816.341	7695
818.7447	7792
821.1478	7785
823.5502	7710
825.952	7781
828.3531	7699
830.7556	7921
833.1554	7611
835.5546	7639
837.9532	7722
840.3511	7771
842.7504	7745
845.1451	7845
847.5411	7924
849.9365	7883
852.3312	7869
854.7272	7915
857.1187	7942
859.5115	7891
861.9037	7869
864.2952	7924
866.6842	7885
869.0764	7832
871.4661	7873
873.8531	7782
876.2415	8024
878.6272	7840
881.0162	7856
883.4026	7972
885.7866	7994
888.1717	7899
890.5543	7778
892.9382	7860
895.3215	7807
897.7041	7868
900.0842	7731
902.4655	7941
904.8443	7762
907.2244	7886
909.6039	7929
911.9808	7845
914.357	8156
916.7346	8070
919.1115	8034
921.4859	8117
923.8616	8259
926.2347	8150
928.6071	8234
930.979	8284
933.3541	8257
935.7247	7956
938.0946	8326
940.4639	8407
942.8326	8537
945.2026	8720
947.5701	8789
949.9369	9021
952.305	9246
954.6705	9505
957.0355	10060
959.4017	10471
961.7654	10674
964.1284	10479
966.4908	10323
968.8527	9932
971.2138	9355
973.5743	8974
975.9343	8734
978.2936	8425
980.6522	8462
983.0122	8171
985.3696	8292
987.7245	8224
990.0807	8001
992.4362	8066
994.7911	8081
997.1474	8154
999.4991	8138
1001.852	8130
1004.205	8116
1006.555	8124
1008.908	8249
1011.258	8232
1013.606	8150
1015.956	8179
1018.302	8247
1020.652	8248
1022.998	8301
1025.345	8347
1027.691	8277
1030.035	8191
1032.378	8305
1034.724	8345
1037.066	8427
1039.409	8406
1041.75	8277
1044.092	8455
1046.433	8253
1048.771	8426
1051.112	8456
1053.449	8380
1055.786	8323
1058.124	8520
1060.462	8268
1062.797	8316
1065.131	8438
1067.467	8540
1069.8	8650
1072.135	8648
1074.467	8633
1076.798	8535
1079.129	8370
1081.459	8529
1083.792	8490
1086.121	8415
1088.449	8380
1090.777	8388
1093.104	8294
1095.431	8339
1097.759	8275
1100.084	8294
1102.408	8358
1104.732	8349
1107.056	8371
1109.379	8403
1111.701	8308
1114.022	8325
1116.343	8277
1118.664	8204
1120.983	8393
1123.303	8308
1125.621	8328
1127.939	8413
1130.256	8414
1132.573	8370
1134.889	8388
1137.205	8405
1139.52	8378
1141.832	8378
1144.146	8340
1146.461	8462
1148.771	8425
1151.083	8283
1153.392	8422
1155.703	8288
1158.011	8356
1160.323	8317
1162.629	8355
1164.938	8430
1167.243	8359
1169.55	8387
1171.857	8338
1174.163	8451
1176.466	8409
1178.769	8285
1181.073	8467
1183.374	8383
1185.677	8383
1187.979	8284
1190.279	8360
1192.578	8360
1194.878	8401
1197.178	8334
1199.476	8240
1201.772	8354
1204.068	8369
1206.366	8437
1208.663	8268
1210.957	8392
1213.251	8461
1215.544	8338
1217.836	8303
1220.128	8330
1222.421	8300
1224.712	8435
1227.002	8514
1229.292	8509
1231.581	8586
1233.871	8654
1236.159	8495
1238.446	8610
1240.732	8610
1243.018	8572
1245.304	8679
1247.59	8601
1249.874	8804
1252.156	8660
1254.439	8712
1256.721	8687
1259.005	8716
1261.286	8791
1263.565	8676
1265.845	8541
1268.125	8671
1270.403	8677
1272.682	8735
1274.959	8648
1277.234	8629
1279.511	8573
1281.787	8694
1284.062	8621
1286.337	8565
1288.609	8639
1290.882	8544
1293.153	8541
1295.428	8600
1297.698	8507
1299.969	8592
1302.237	8594
1304.507	8478
1306.777	8463
1309.044	8433
1311.312	8511
1313.578	8455
1315.844	8589
1318.109	8509
1320.375	8398
1322.638	8434
1324.903	8505
1327.165	8519
1329.427	8634
1331.69	8450
1333.952	8592
1336.212	8434
1338.471	8516
1340.73	8497
1342.988	8435
1345.248	8564
1347.505	8559
1349.763	8577
1352.019	8589
1354.274	8496
1356.53	8514
1358.784	8323
1361.038	8493
1363.291	8535
1365.543	8572
1367.797	8551
1370.048	8548
1372.296	8508
1374.546	8503
1376.796	8567
1379.045	8489
1381.295	8728
1383.542	8624
1385.787	8689
1388.034	8606
1390.28	8386
1392.527	8510
1394.772	8582
1397.014	8670
1399.258	8628
1401.501	8555
1403.741	8766
1405.985	8609
1408.226	8582
1410.465	8515
1412.705	8771
1414.943	8745
1417.184	8600
1419.42	8737
1421.658	8534
1423.894	8772
1426.13	8768
1428.366	8776
1430.602	8796
1432.835	8858
1435.069	8827
1437.301	8848
1439.535	8829
1441.767	8879
1443.997	8836
1446.229	8984
1448.458	8888
1450.687	8997
1452.916	8989
1455.146	8880
1457.372	8946
1459.599	8889
1461.824	8994
1464.051	8924
1466.277	8933
1468.501	8859
1470.725	8903
1472.948	8735
1475.17	8762
1477.393	8610
1479.614	8702
1481.837	8760
1484.057	8641
1486.276	8651
1488.497	8582
1490.715	8583
1492.932	8505
1495.148	8483
1497.364	8585
1499.58	8587
1501.798	8539
1504.012	8442
1506.227	8470
1508.44	8367
1510.653	8541
1512.866	8451
1515.078	8536
1517.289	8385
1519.5	8466
1521.711	8503
1523.92	8448
1526.13	8392
1528.338	8502
1530.544	8396
1532.752	8427
1534.959	8299
1537.165	8576
1539.371	8577
1541.574	8533
1543.779	8616
1545.983	8398
1548.187	8457
1550.39	8488
1552.59	8512
1554.792	8565
1556.991	8558
1559.19	8657
1561.392	8673
1563.59	8645
1565.789	8622
1567.986	8556
1570.182	8751
1572.381	8717
1574.576	8656
1576.771	8686
1578.966	8739
1581.16	8734
1583.354	8567
1585.546	8638
1587.74	8624
1589.931	8740
1592.121	8638
1594.311	8743
1596.502	8648
1598.693	8916
1600.881	8736
1603.069	8713
1605.256	8827
1607.445	8688
1609.631	8660
1611.816	8713
1614.001	8849
1616.186	8725
1618.37	8753
1620.555	8659
1622.737	8748
1624.919	8846
1627.101	8874
1629.282	8859
1631.463	8742
1633.643	8814
1635.822	8968
1638.001	8859
1640.179	8975
1642.359	8992
1644.534	8941
1646.711	8845
1648.887	8908
1651.062	8941
1653.235	8893
1655.412	8933
1657.586	8921
1659.757	8977
1661.93	9021
1664.1	8962
1666.274	9026
1668.445	9052
1670.614	8989
1672.784	8966
1674.951	9078
1677.12	8944
1679.289	8936
1681.457	9003
1683.622	8961
1685.789	8986
1687.953	8915
1690.121	8889
1692.284	8827
1694.447	8891
1696.611	8756
1698.772	8739
1700.935	8715
1703.098	8778
1705.258	8670
1707.417	8751
1709.576	8745
1711.736	8574
1713.896	8797
1716.053	8683
1718.21	8677
1720.366	8479
1722.522	8777
1724.68	8677
1726.835	8650
1728.989	8599
1731.142	8677
1733.295	8606
1735.449	8692
1737.601	8641
1739.753	8676
1741.903	8719
1744.054	8649
1746.203	8769
1748.354	8643
1750.503	8866
1752.651	8599
1754.798	8659
1756.944	8764
1759.092	8629
1761.238	8689
1763.383	8721
1765.528	8798
1767.672	8724
1769.814	8785
1771.959	8774
1774.102	8605
1776.242	8702
1778.384	8695
1780.525	8776
1782.665	8690
1784.805	8756
1786.945	8657
1789.082	8736
1791.22	8813
1793.36	8784
1795.495	8760
1797.632	8871
1799.766	8693
1801.902	8746
1804.035	8753
1806.172	8707
1808.304	8785
1810.436	8785
1812.569	8707
1814.699	8800
1816.833	8684
1818.963	8707
1821.092	8749
1823.222	8704
1825.35	8696
1827.478	8792
1829.608	8782
1831.734	8720
1833.86	8586
1835.986	8692
1838.11	8736
1840.238	8751
1842.362	8751
1844.485	8687
1846.608	8702
1848.73	8781
1850.853	8551
1852.974	8702
1855.097	8681
1857.217	8527
1859.336	8734
1861.455	8684
1863.576	8716
1865.693	8548
1867.811	8705
1869.926	8658
1872.042	8520
1874.16	8592
1876.275	8520
1878.39	8677
1880.504	8656
1882.618	8699
1884.731	8598
1886.843	8658
1888.956	8660
1891.067	8558
1893.178	8791
1895.287	8669
1897.399	8658
1899.508	8593
1901.617	8807
1903.724	8696
1905.832	8845
1907.941	8781
1910.046	8618
1912.152	8760
1914.256	8825
1916.361	8813
1918.464	8905
1920.57	8811
1922.672	8740
1924.775	8748
1926.876	8855
1928.978	8759
1931.08	8801
1933.181	8817
1935.28	8804
1937.38	8776
1939.478	8841
1941.577	8767
1943.675	8722
1945.771	8806
1947.867	8721
1949.964	8880
1952.058	8859
1954.154	8709
1956.248	8758
1958.343	8793
1960.435	8828
1962.527	8908
1964.62	8788
1966.711	8745
1968.802	8655
1970.892	8841
1972.983	8679
1975.072	8797
1977.162	8747
1979.25	8603
1981.337	8707
1983.424	8649
1985.51	8640
1987.598	8662
1989.683	8726
1991.768	8765
1993.852	8646
1995.934	8618
1998.019	8674
2000.102	8706
2002.184	8677
2004.266	8646
2006.347	8493
2008.427	8609
2010.508	8753
2012.587	8630
2014.666	8622
2016.745	8804
2018.821	8718
2020.9	8618
2022.977	8591
2025.052	8736
2027.128	8648
2029.204	8633
2031.277	8619
2033.353	8572
2035.425	8585
2037.499	8646
2039.57	8593
2041.642	8529
2043.714	8710
2045.786	8641
2047.855	8734
2049.925	8572
2051.993	8628
2054.064	8602
2056.132	8637
2058.2	8721
2060.266	8715
2062.332	8775
2064.398	8647
2066.465	8556
2068.529	8705
2070.592	8632
2072.657	8634
2074.719	8539
2076.783	8642
2078.845	8541
2080.907	8548
2082.968	8658
2085.028	8713
2087.087	8626
2089.148	8627
2091.207	8672
2093.264	8563
2095.322	8665
2097.379	8800
2099.439	8498
2101.495	8630
2103.55	8611
2105.605	8713
2107.658	8628
2109.713	8663
2111.767	8715
2113.82	8505
2115.872	8625
2117.924	8603
2119.975	8626
2122.028	8626
2124.078	8731
2126.126	8673
2128.176	8657
2130.225	8562
2132.275	8599
2134.321	8582
2136.368	8523
2138.415	8548
2140.461	8566
2142.505	8566
2144.552	8510
2146.597	8470
2148.64	8555
2150.684	8634
2152.725	8464
2154.77	8485
2156.811	8590
2158.852	8548
2160.894	8503
2162.933	8612
2164.973	8425
2167.013	8557
2169.051	8496
2171.089	8396
2173.126	8605
2175.164	8614
2177.201	8511
2179.236	8540
2181.273	8599
2183.307	8465
2185.341	8387
2187.377	8524
2189.41	8698
2191.442	8394
2193.473	8418
2195.506	8463
2197.539	8449
2199.569	8508
2201.598	8380
2203.628	8391
2205.656	8367
2207.686	8416
2209.716	8571
2211.743	8415
2213.769	8251
2215.796	8380
2217.821	8418
2219.848	8315
2221.873	8321
2223.897	8422
2225.921	8349
2227.944	8301
2229.967	8253
2231.991	8309
2234.011	8324
2236.032	8232
2238.053	8236
2240.073	8262
2242.094	8353
2244.114	8342
2246.131	8217
2248.149	8396
2250.167	8438
2252.186	8386
2254.201	8394
2256.218	8369
2258.233	8374
2260.247	8417
2262.262	8426
2264.278	8413
2266.29	8186
2268.303	8309
2270.315	8358
2272.327	8399
2274.341	8307
2276.35	8337
2278.361	8330
2280.37	8273
2282.38	8293
2284.388	8256
2286.397	8233
2288.405	8474
2290.412	8317
2292.419	8311
2294.425	8272
2296.431	8314
2298.437	8229
2300.441	8194
2302.445	8280
2304.449	8242
2306.453	8293
2308.455	8295
2310.457	8237
2312.459	8242
2314.46	8260
2316.46	8237
2318.461	8149
2320.46	8254
2322.458	8082
2324.458	8219
2326.456	8206
2328.455	8241
2330.451	8125
2332.447	8192
2334.443	8211
2336.438	8190
2338.433	8116
2340.429	8088
2342.422	8167
2344.416	8102
2346.408	8178
2348.399	8060
2350.393	8187
2352.384	8204
2354.375	8219
2356.365	8201
2358.355	8135
2360.344	8032
2362.333	8067
2364.322	8165
2366.309	8231
2368.295	8011
2370.282	8142
2372.27	8119
2374.256	8010
2376.24	8176
2378.225	8116
2380.208	7996
2382.194	8103
2384.177	8056
2386.159	7968
2388.142	7925
2390.122	8013
2392.105	8056
2394.085	7983
2396.066	8016
2398.044	7976
2400.024	8102
2402.002	7950
2403.982	8027
2405.959	7995
2407.935	7994
2409.913	7825
2411.888	8027
2413.865	8083
2415.84	8048
2417.814	8014
2419.788	7980
2421.762	7901
2423.735	7956
2425.708	8039
2427.68	7913
2429.651	7921
2431.623	7949
2433.593	8059
2435.564	7857
2437.533	7991
2439.502	7907
2441.47	7999
2443.438	8132
2445.406	8039
2447.373	7964
2449.34	7845
2451.305	8108
2453.271	7946
2455.235	7881
2457.201	7880
2459.165	7948
2461.129	7913
2463.092	7856
2465.054	7963
2467.018	7840
2468.978	7890
2470.939	7728
2472.899	7895
2474.86	7880
2476.819	7895
2478.778	7861
2480.737	7794
2482.695	7732
2484.653	7799
2486.609	7978
2488.567	7910
2490.524	7677
2492.478	7773
2494.433	7776
2496.387	7845
2498.343	7837
2500.297	7828
2502.249	7785
2504.202	7677
2506.153	7823
2508.105	7722
2510.057	7757
2512.008	7811
2513.957	7778
2515.906	7818
2517.855	7747
2519.805	7806
2521.754	7742
2523.7	7789
2525.647	7762
2527.594	7837
2529.54	7681
2531.486	7750
2533.431	7806
2535.376	7727
2537.32	7736
2539.263	7690
2541.207	7766
2543.151	7865
2545.093	7636
2547.034	7813
2548.975	7554
2550.917	7698
2552.856	7648
2554.796	7737
2556.735	7713
2558.673	7677
2560.611	7756
2562.55	7756
2564.487	7792
2566.424	7771
2568.36	7713
2570.296	7719
2572.232	7705
2574.167	7667
2576.101	7658
2578.035	7643
2579.969	7744
2581.902	7748
2583.834	7727
2585.766	7739
2587.698	7671
2589.628	7651
2591.557	7674
2593.489	7723
2595.419	7736
2597.348	7741
2599.275	7832
2601.204	7627
2603.131	7808
2605.059	7824
2606.986	7780
2608.911	7748
2610.837	7795
2612.76	7695
2614.687	7750
2616.61	7676
2618.534	7724
2620.457	7695
2622.38	7722
2624.302	7799
2626.225	7781
2628.145	7693
2630.067	7792
2631.986	7772
2633.906	7799
2635.827	7832
2637.745	7762
2639.662	7748
2641.581	7730
2643.498	7792
2645.415	7738
2647.331	7786
2649.248	7519
2651.163	7826
2653.077	7663
2654.993	7767
2656.906	7751
2658.821	7779
2660.733	7692
2662.646	7747
2664.557	7487
2666.47	7702
2668.381	7911
2670.291	7675
2672.201	7579
2674.11	7786
2676.021	7691
2677.929	7688
2679.837	7710
2681.745	7576
2683.652	7792
2685.56	7633
2687.466	7619
2689.371	7596
2691.276	7590
2693.181	7543
2695.085	7475
2696.991	7499
2698.893	7556
2700.796	7583
2702.698	7494
2704.601	7533
2706.502	7576
2708.404	7408
2710.304	7567
2712.203	7549
2714.103	7552
2716.003	7644
2717.902	7510
2719.8	7648
2721.697	7548
2723.594	7591
2725.49	7525
2727.389	7585
2729.283	7436
2731.179	7584
2733.073	7547
2734.968	7578
2736.863	7591
2738.757	7480
2740.649	7579
2742.541	7636
2744.433	7534
2746.324	7575
2748.216	7403
2750.107	7447
2751.997	7530
2753.886	7501
2755.776	7495
2757.666	7646
2759.553	7447
2761.44	7442
2763.327	7367
2765.215	7545
2767.102	7582
2768.988	7466
2770.873	7363
2772.757	7401
2774.641	7399
2776.525	7531
2778.41	7423
2780.292	7344
2782.175	7467
2784.057	7613
2785.938	7364
2787.821	7630
2789.701	7409
2791.581	7445
2793.461	7250
2795.34	7460
2797.219	7405
2799.099	7391
2800.975	7350
2802.853	7356
2804.73	7428
2806.606	7331
2808.484	7386
2810.358	7297
2812.233	7296
2814.108	7297
2815.981	7288
2817.857	7370
2819.73	7293
2821.602	7363
2823.474	7377
2825.346	7417
2827.217	7291
2829.089	7318
2830.959	7354
2832.829	7363
2834.698	7361
2836.567	7251
2838.436	7291
2840.305	7270
2842.172	7392
2844.04	7407
2845.905	7425
2847.772	7384
2849.639	7362
2851.503	7314
2853.369	7471
2855.232	7397
2857.096	7434
2858.961	7360
2860.824	7460
2862.686	7476
2864.547	7564
2866.41	7660
2868.272	7437
2870.132	7625
2871.992	7673
2873.851	7752
2875.711	7763
2877.57	7692
2879.429	7905
2881.287	7869
2883.144	7931
2885.001	7956
2886.857	7895
2888.714	7985
2890.57	7918
2892.425	7918
2894.279	7843
2896.133	7904
2897.987	7971
2899.842	7822
2901.694	7881
2903.547	7873
2905.397	7921
2907.249	7865
2909.101	8031
2910.952	7876
2912.802	7880
2914.652	8115
2916.5	8067
2918.35	8101
2920.198	8082
2922.045	8320
2923.893	8431
2925.74	8438
2927.585	8451
2929.433	8578
2931.279	8669
2933.123	8777
2934.968	8610
2936.811	8821
2938.656	9028
2940.5	8864
2942.342	8976
2944.185	8852
2946.026	8983
2947.87	8993
2949.71	8824
2951.549	8778
2953.39	8873
2955.229	8749
2957.069	8695
2958.908	8551
2960.746	8572
2962.584	8342
2964.421	8280
2966.257	8302
2968.094	8226
2969.931	8160
2971.766	8153
2973.601	8087
2975.435	8179
2977.27	8210
2979.105	8005
2980.938	8030
2982.77	7964
2984.602	7999
2986.434	7934
2988.267	8015
2990.097	7992
2991.927	7839
2993.757	7818
2995.587	7809
2997.417	7696
2999.246	7739
3001.074	7553
3002.902	7705
3004.729	7582
3006.556	7458
3008.384	7495
3010.21	7404
3012.036	7369
3013.861	7179
3015.684	7192
3017.51	7197
3019.334	7066
3021.157	6949
3022.981	6886
3024.802	7052
3026.624	6962
3028.448	6991
3030.267	6987
3032.088	6839
3033.909	7011
3035.728	6952
3037.549	6968
3039.368	6886
3041.186	6885
3043.004	6805
3044.821	6995
3046.64	6913
3048.455	6904
3050.272	6760
3052.087	6873
3053.903	6922
3055.717	6764
3057.534	6825
3059.347	6879
3061.16	6821
3062.974	6905
3064.785	6827
3066.598	6857
3068.411	6884
3070.222	6719
3072.032	6810
3073.844	6736
3075.653	6831
3077.463	6807
3079.272	6769
3081.08	6588
3082.889	6756
3084.697	6584
3086.505	6707
3088.312	6667
3090.118	6723
3091.924	6708
3093.729	6833
3095.535	6620
3097.34	6556
3099.144	6735
3100.947	6585
3102.75	6588
3104.553	6645
3106.357	6575
3108.159	6615
3109.961	6593
3111.762	6509
3113.562	6735
3115.365	6643
3117.164	6651
3118.964	6591
3120.761	6552
3122.56	6539
3124.36	6576
3126.158	6530
3127.954	6600
3129.75	6507
3131.547	6572
3133.343	6453
3135.139	6403
3136.934	6478
3138.729	6621
3140.522	6449
3142.317	6510
3144.11	6521
3145.904	6540
3147.695	6468
3149.488	6541
3151.28	6462
3153.07	6446
3154.863	6440
3156.652	6500
3158.441	6424
3160.231	6571
3162.019	6496
3163.81	6450
3165.597	6554
3167.384	6471
3169.172	6503
3170.958	6368
3172.745	6340
3174.532	6383
3176.317	6469
3178.101	6450
3179.885	6454
3181.67	6390
3183.455	6360
3185.238	6256
3187.02	6359
3188.802	6379
3190.585	6288
3192.368	6332
3194.149	6399
3195.929	6350
3197.709	6383
3199.489	6421
3201.268	6371
3203.048	6349
3204.826	6412
3206.604	6395
3208.382	6279
3210.159	6300
3211.937	6340
3213.713	6315
3215.489	6274
3217.263	6435
3219.038	6359
3220.815	6391
3222.589	6179
3224.363	6431
3226.136	6323
3227.908	6326
3229.681	6402
3231.454	6296
3233.226	6384
3234.996	6375
3236.767	6402
3238.538	6315
3240.308	6208
3242.078	6347
3243.847	6299
3245.615	6318
3247.384	6310
3249.15	6410
3250.92	6228
3252.686	6322
3254.453	6165
3256.218	6321
3257.984	6343
3259.75	6395
3261.515	6207
3263.279	6306
3265.044	6325
3266.806	6349
3268.57	6213
3270.334	6232
3272.095	6364
3273.856	6377
3275.619	6320
3277.379	6339
3279.14	6247
3280.9	6261
3282.661	6266
3284.419	6286
3286.178	6383
3287.937	6238
3289.695	6349
3291.453	6298
3293.21	6427
3294.967	6305
3296.723	6332
3298.48	6354
3300.235	6338
3301.99	6319
3303.744	6374
3305.498	6274
3307.253	6315
3309.006	6314
3310.759	6379
3312.511	6323
3314.263	6288
3316.017	6240
3317.768	6333
3319.519	6308
3321.268	6255
3323.018	6202
3324.767	6207
3326.518	6254
3328.267	6251
3330.014	6374
3331.762	6247
3333.509	6183
3335.258	6238
3337.003	6265
3338.75	6291
3340.496	6191
3342.24	6207
3343.987	6344
3345.732	6315
3347.475	6233
3349.219	6081
3350.961	6216
3352.705	6284
3354.448	6221
3356.19	6229
3357.931	6167
3359.672	6292
3361.412	6062
3363.155	6119
3364.894	6150
3366.633	6118
3368.372	6142
3370.11	6105
3371.849	6096
3373.588	6096
3375.325	6136
3377.061	6236
3378.799	6135
3380.534	6222
3382.271	6149
3384.006	6127
3385.741	6042
3387.475	6133
3389.209	6239
3390.944	5990
3392.677	5981
3394.409	5945
3396.143	5929
3397.874	5903
3399.606	5966
3401.338	6128
3403.069	5983
3404.799	6067
3406.528	5935
3408.258	6072
3409.988	6006
3411.717	6033
3413.445	6045
3415.173	6039
3416.899	5931
3418.626	6071
3420.354	6024
3422.08	6009
3423.806	5975
3425.531	6054
3427.255	5953
3428.981	5946
3430.705	5903
3432.429	5903
3434.151	5937
3435.875	5907
3437.599	5929
3439.321	5911
3441.042	6026
3442.763	5819
3444.483	5738
3446.204	5903
3447.926	5934
3449.645	5760
3451.364	5780
3453.082	5924
3454.801	5895
3456.52	5841
3458.238	5876
3459.954	5828
3461.671	5787
3463.387	5790
3465.104	5778
3466.82	5836
3468.534	5763
3470.25	5690
3471.963	5667
3473.676	5656
3475.392	5691
3477.104	5758
3478.817	5599
3480.528	5696
3482.241	5645
3483.954	5632
3485.664	5727
3487.374	5557
3489.084	5630
3490.795	5534
3492.504	5625
3494.214	5534
3495.922	5712
3497.63	5633
3499.338	5646
3501.045	5602
3502.753	5590
3504.459	5644
3506.166	5575
3507.871	5603
3509.576	5540
3511.283	5510
3512.987	5522
3514.691	5599
3516.395	5604
3518.098	5594
3519.8	5570
3521.504	5501
3523.206	5508
3524.908	5467
3526.609	5516
3528.309	5506
3530.011	5426
3531.711	5416
3533.411	5422
3535.109	5455
3536.808	5418
3538.507	5481
3540.206	5438
3541.904	5319
3543.601	5361
3545.297	5440
3546.994	5420
3548.69	5434
3550.387	5389
3552.081	5375
3553.776	5379
3555.47	5382
3557.166	5421
3558.859	5321
3560.553	5291
3562.245	5427
3563.938	5343
3565.629	5281
3567.322	5343
3569.014	5388
3570.704	5308
3572.394	5305
3574.084	5348
3575.775	5287
3577.464	5327
3579.152	5371
3580.842	5329
3582.529	5295
3584.216	5282
3585.905	5206
3587.591	5244
3589.279	5099
3590.964	5194
3592.649	5299
3594.336	5130
3596.021	5201
3597.705	5196
3599.388	5099
3601.072	5201
3602.757	5143
3604.439	5093
3606.122	5125
3607.803	5213
3609.485	5161
3611.167	5113
3612.849	5119
3614.529	4997
3616.208	5061
3617.888	5012
3619.567	5111
3621.247	5044
3622.926	5088
3624.603	5002
3626.281	5032
3627.958	5034
3629.635	5028
3631.312	5123
3632.989	5078
3634.665	5019
3636.339	4933
3638.014	5021
3639.691	4989
3641.364	4913
3643.038	5064
3644.71	4932
3646.384	5029
3648.058	4988
3649.729	4932
3651.402	4950
3653.073	4966
3654.744	4947
3656.414	4901
3658.085	5054
3659.755	4935
3661.424	4902
3663.094	4881
3664.762	4828
3666.431	4851
3668.099	4903
3669.766	4880
3671.433	4910
3673.099	4895
3674.768	4862
3676.433	4883
3678.098	4846
3679.763	4905
3681.428	4832
3683.093	4866
3684.757	4936
3686.421	4777
3688.083	4828
3689.746	4775
3691.408	4807
3693.071	4843
3694.733	4748
3696.394	4765
3698.054	4827
3699.715	4839
3701.375	4752
3703.036	4842
3704.695	4742
3706.354	4797
3708.012	4736
3709.67	4726
3711.329	4682
3712.987	4781
3714.644	4761
3716.299	4783
3717.955	4705
3719.613	4792
3721.268	4671
3722.923	4826
3724.577	4713
3726.231	4758
3727.885	4699
3729.539	4768
3731.192	4769
3732.845	4665
3734.497	4719
3736.149	4741
3737.802	4679
3739.453	4679
3741.104	4728
3742.753	4744
3744.404	4675
3746.052	4718
3747.704	4661
3749.352	4636
3751	4615
3752.648	4605
3754.296	4650
3755.944	4655
3757.59	4680
3759.238	4690
3760.883	4598
3762.528	4506
3764.176	4575
3765.82	4561
3767.464	4648
3769.109	4586
3770.753	4630
3772.396	4637
3774.04	4588
3775.683	4480
3777.325	4683
3778.967	4618
3780.608	4614
3782.25	4530
3783.89	4572
3785.531	4499
3787.17	4503
3788.81	4528
3790.45	4463
3792.09	4575
3793.729	4528
3795.366	4471
3797.003	4513
3798.64	4531
3800.278	4556
3801.915	4463
3803.551	4499
3805.187	4520
3806.822	4577
3808.458	4478
3810.093	4478
3811.726	4493
3813.36	4464
3814.994	4444
3816.627	4534
3818.262	4465
3819.893	4494
3821.525	4477
3823.157	4432
3824.787	4423
3826.42	4556
3828.051	4395
3829.68	4431
3831.31	4450
3832.938	4417
3834.569	4422
3836.198	4410
3837.825	4371
3839.454	4460
3841.08	4447
3842.708	4413
3844.335	4495
3845.962	4356
3847.587	4340
3849.212	4390
3850.838	4438
3852.463	4409
3854.089	4369
3855.712	4416
3857.335	4356
3858.959	4398
3860.582	4310
3862.205	4397
3863.827	4433
3865.449	4421
3867.07	4296
3868.691	4307
3870.312	4375
3871.933	4331
3873.553	4340
3875.173	4363
3876.792	4279
3878.411	4273
3880.03	4248
3881.647	4352
3883.265	4371
3884.882	4290
3886.499	4333
3888.116	4251
3889.732	4329
3891.348	4328
3892.964	4245
3894.579	4294
3896.195	4302
3897.809	4303
3899.423	4243
3901.036	4272
3902.648	4233
3904.261	4292
3905.875	4385
3907.487	4252
3909.099	4214
3910.709	4292
3912.321	4293
3913.933	4301
3915.542	4374
3917.152	4201
3918.762	4216
3920.37	4225
3921.98	4213
3923.589	4206
3925.196	4230
3926.804	4258
3928.41	4187
3930.018	4153
3931.626	4258
3933.231	4171
3934.838	4212
3936.442	4198
3938.046	4159
3939.653	4182
3941.257	4132
3942.861	4168
3944.464	4139
3946.068	4134
3947.67	4172
3949.273	4135
3950.876	4182
3952.477	4133
3954.078	4097
3955.678	4145
3957.281	4202
3958.881	4137
3960.48	4136
3962.079	4091
3963.678	4174
3965.279	4144
3966.877	4051
3968.475	4091
3970.072	4037
3971.669	4076
3973.266	4066
3974.864	4135
3976.459	4079
3978.055	4042
3979.65	4088
3981.245	4090
3982.841	4064
3984.436	4184
3986.03	4027
3987.623	4049
3989.216	3992
3990.809	3999
3992.403	4045
3993.995	4000
3995.586	4078
3997.177	4003
3998.768	3929
4000.361	3982
4001.951	4073
4003.54	3965
4005.13	4029
4006.719	3935
4008.31	4069
4009.897	3984
4011.485	3953
4013.073	3986
4014.66	3881
4016.247	3992
4017.834	3901
4019.421	3915
4021.006	3989
4022.592	3852
4024.178	3927
4025.763	3814
4027.348	3789
4028.932	3897
4030.515	3840
4032.099	3914
4033.682	3920
4035.266	3856
4036.847	3870
4038.429	3849
4040.011	3877
4041.592	3834
4043.173	3865
4044.755	3823
4046.334	3805
4047.913	3810
4049.494	3810
4051.074	3871
4052.652	3892
4054.23	3900
4055.807	3884
4057.385	3825
4058.963	3847
4060.541	3826
4062.117	3758
4063.693	3850
4065.269	3763
4066.844	3860
4068.42	3781
4069.995	3810
4071.569	3744
4073.143	3767
4074.716	3826
4076.291	3805
4077.864	3764
4079.436	3747
4081.009	3747
4082.58	3760
4084.152	3657
4085.723	3783
4087.294	3739
4088.865	3803
4090.435	3775
4092.005	3742
4093.574	3670
4095.143	3779
4096.712	3611
4098.279	3787
4099.848	3741
4101.416	3782
4102.984	3691
4104.55	3715
4106.117	3758
4107.682	3755
4109.248	3699
4110.815	3726
4112.379	3685
4113.945	3696
4115.508	3682
4117.073	3725
4118.637	3708
4120.201	3672
4121.763	3696
4123.325	3609
4124.888	3672
4126.449	3653
4128.013	3689
4129.573	3653
4131.133	3645
4132.694	3612
4134.254	3590
4135.814	3726
4137.374	3590
4138.933	3607
4140.491	3596
4142.049	3610
4143.607	3537
4145.167	3534
4146.724	3571
4148.28	3577
4149.836	3565
4151.392	3552
4152.949	3596
4154.504	3635
4156.059	3534
4157.614	3598
4159.168	3598
4160.723	3556
4162.277	3483
4163.83	3500
4165.383	3543
4166.936	3517
4168.488	3507
4170.041	3528
4171.593	3443
4173.144	3465
4174.695	3447
4176.246	3485
4177.796	3561
4179.346	3432
4180.896	3475
4182.445	3524
4183.994	3465
4185.542	3466
4187.091	3444
4188.639	3432
4190.185	3406
4191.732	3435
4193.279	3410
4194.826	3485
4196.373	3428
4197.918	3383
4199.463	3468
4201.008	3427
4202.553	3473
4204.098	3367
4205.641	3391
4207.185	3340
4208.728	3455
4210.271	3407
4211.814	3386
4213.357	3465
4214.898	3396
4216.439	3407
4217.98	3364
4219.522	3354
4221.062	3345
4222.603	3491
4224.142	3435
4225.681	3358
4227.222	3487
4228.76	3342
4230.298	3339
4231.835	3402
4233.373	3393
4234.911	3423
4236.449	3390
4237.985	3433
4239.521	3341
4241.057	3389
4242.592	3374
4244.128	3303
4245.663	3323
4247.197	3384
4248.731	3398
4250.265	3379
4251.798	3341
4253.333	3273
4254.865	3313
4256.397	3349
4257.93	3293
4259.461	3324
4260.994	3281
4262.525	3314
4264.056	3279
4265.586	3299
4267.115	3246
4268.646	3296
4270.176	3243
4271.705	3292
4273.232	3323
4274.761	3336
4276.289	3318
4277.818	3312
4279.345	3231
4280.872	3301
4282.399	3324
4283.924	3244
4285.452	3228
4286.976	3198
4288.502	3240
4290.026	3222
4291.551	3207
4293.074	3280
4294.6	3129
4296.123	3212
4297.646	3249
4299.168	3232
4300.691	3274
4302.214	3227
4303.736	3231
4305.257	3153
4306.778	3242
4308.299	3162
4309.82	3193
4311.34	3228
4312.86	3111
4314.379	3128
