400.0745	5383
402.597	5509
405.1208	5521
407.6419	5600
410.1623	5569
412.6819	5515
415.201	5515
417.7172	5552
420.2369	5533
422.7538	5592
425.2701	5766
427.7856	5619
430.3005	5785
432.8147	5817
435.3282	5725
437.841	5722
440.3511	5741
442.8625	5816
445.3753	5839
447.8854	5771
450.3927	5785
452.9014	5861
455.4073	5854
457.9146	5854
460.4233	5944
462.9272	5883
465.4325	5786
467.935	5885
470.4389	6011
472.9421	5930
475.4446	6062
477.9444	5885
480.4456	5970
482.944	6104
485.4417	6043
487.9429	6012
490.4393	5998
492.935	6058
495.4321	6102
497.9264	6073
500.4221	6146
502.9171	6043
505.4094	6055
507.9011	6100
510.392	6216
512.8864	6217
515.3759	6250
517.8649	6202
520.3531	6192
522.8406	6182
525.3275	6252
527.8178	6208
530.3033	6169
532.7881	6268
535.2723	6283
537.7558	6174
540.2407	6163
542.7228	6140
545.2043	6106
547.6851	6168
550.1652	6221
552.6467	6262
555.1255	6202
557.6016	6285
560.079	6286
562.5557	6351
565.0318	6425
567.5092	6230
569.984	6331
572.456	6307
574.9294	6321
577.4022	6304
579.8762	6456
582.3456	6506
584.8163	6493
587.2863	6510
589.7557	6407
592.2224	6480
594.6924	6350
597.1578	6510
599.6245	6412
602.0905	6429
604.5538	6537
607.0206	6447
609.4825	6519
611.9459	6448
614.4066	6370
616.8686	6568
619.33	6534
621.7906	6438
624.2487	6515
626.708	6454
629.1647	6450
631.6207	6464
634.0801	6344
636.5348	6541
638.9888	6484
641.4442	6579
643.8969	6472
646.3509	6596
648.8022	6537
651.255	6562
653.705	6493
656.1544	6667
658.6031	6756
661.0532	6661
663.5026	6638
665.9493	6648
668.3954	6691
670.8409	6674
673.2877	6751
675.7318	6704
678.1752	6715
680.618	6628
683.0601	6733
685.5035	6663
687.9444	6727
690.3845	6661
692.824	6661
695.2628	6709
697.701	6792
700.1406	6876
702.5774	6797
705.0116	6779
707.4472	6646
709.8821	6789
712.3183	6887
714.7519	6905
717.1829	6947
719.6151	6857
722.0468	6900
724.4777	6985
726.908	6991
729.3377	6938
731.7667	6941
734.1931	6996
736.6208	7040
739.0498	7034
741.4742	7089
743.9	7219
746.3231	7076
748.7476	7142
751.1713	7203
753.5945	7165
756.015	7281
758.4368	7393
760.856	7287
763.2766	7177
765.6965	7251
768.1157	7297
770.5323	7308
772.9483	7310
775.3656	7380
777.7822	7303
780.1963	7261
782.6116	7409
785.0244	7281
787.4365	7370
789.8499	7280
792.2626	7444
794.6728	7228
797.0823	7320
799.4911	7355
801.8994	7300
804.3109	7534
806.7178	7450
809.124	7364
811.5297	7450
813.9347	7441
816.341	7425
818.7447	7340
821.1478	7420
823.5502	7456
825.952	7463
828.3531	7498
830.7556	7486
833.1554	7533
835.5546	7497
837.9532	7481
840.3511	7433
842.7504	7419
845.1451	7643
847.5411	7467
849.9365	7645
852.3312	7652
854.7272	7497
857.1187	7547
859.5115	7627
861.9037	7554
864.2952	7579
866.6842	7499
869.0764	7592
871.4661	7533
873.8531	7543
876.2415	7580
878.6272	7732
881.0162	7510
883.4026	7557
885.7866	7551
888.1717	7533
890.5543	7828
892.9382	7565
895.3215	7626
897.7041	7680
900.0842	7575
902.4655	7551
904.8443	7650
907.2244	7626
909.6039	7541
911.9808	7782
914.357	7601
916.7346	7585
919.1115	7703
921.4859	7731
923.8616	7803
926.2347	7896
928.6071	7760
930.979	7988
933.3541	7874
935.7247	7894
938.0946	7817
940.4639	7908
942.8326	7997
945.2026	7950
947.5701	8020
949.9369	8113
952.305	8106
954.6705	8449
957.0355	8504
959.4017	8718
961.7654	8712
964.1284	8676
966.4908	8556
968.8527	8489
971.2138	8438
973.5743	8355
975.9343	8049
978.2936	8197
980.6522	7967
983.0122	7923
985.3696	7975
987.7245	7837
990.0807	7878
992.4362	7961
994.7911	7992
997.1474	7915
999.4991	7958
1001.852	8134
1004.205	7897
1006.555	8015
1008.908	8012
1011.258	7960
1013.606	7988
1015.956	8031
1018.302	8127
1020.652	8022
1022.998	8146
1025.345	8015
1027.691	8064
1030.035	8114
1032.378	8103
1034.724	7978
1037.066	8092
1039.409	8101
1041.75	7998
1044.092	8107
1046.433	8131
1048.771	8149
1051.112	8110
1053.449	8150
1055.786	8152
1058.124	8182
1060.462	8286
1062.797	8250
1065.131	8232
1067.467	8262
1069.8	8356
1072.135	8350
1074.467	8281
1076.798	8344
1079.129	8323
1081.459	8175
1083.792	8143
1086.121	8274
1088.449	8273
1090.777	8276
1093.104	8194
1095.431	8262
1097.759	8187
1100.084	8225
1102.408	8388
1104.732	8288
1107.056	8326
1109.379	8405
1111.701	8282
1114.022	8420
1116.343	8260
1118.664	8304
1120.983	8505
1123.303	8364
1125.621	8481
1127.939	8327
1130.256	8341
1132.573	8322
1134.889	8345
1137.205	8326
1139.52	8486
1141.832	8461
1144.146	8372
1146.461	8539
1148.771	8406
1151.083	8450
1153.392	8448
1155.703	8440
1158.011	8378
1160.323	8492
1162.629	8427
1164.938	8395
1167.243	8529
1169.55	8531
1171.857	8444
1174.163	8362
1176.466	8452
1178.769	8585
1181.073	8563
1183.374	8441
1185.677	8404
1187.979	8482
1190.279	8593
1192.578	8494
1194.878	8633
1197.178	8520
1199.476	8489
1201.772	8519
1204.068	8384
1206.366	8595
1208.663	8576
1210.957	8596
1213.251	8500
1215.544	8611
1217.836	8520
1220.128	8725
1222.421	8547
1224.712	8586
1227.002	8633
1229.292	8646
1231.581	8754
1233.871	8703
1236.159	8705
1238.446	8781
1240.732	8717
1243.018	8785
1245.304	8758
1247.59	8725
1249.874	8727
1252.156	8787
1254.439	8798
1256.721	8845
1259.005	8792
1261.286	8719
1263.565	8823
1265.845	8783
1268.125	8780
1270.403	8884
1272.682	8949
1274.959	8847
1277.234	8912
1279.511	8848
1281.787	8866
1284.062	8863
1286.337	8842
1288.609	8783
1290.882	8813
1293.153	8763
1295.428	8767
1297.698	8762
1299.969	8872
1302.237	8837
1304.507	8741
1306.777	8797
1309.044	8951
1311.312	8830
1313.578	8863
1315.844	8838
1318.109	8940
1320.375	8975
1322.638	9016
1324.903	8970
1327.165	8839
1329.427	8802
1331.69	8835
1333.952	8970
1336.212	8925
1338.471	8948
1340.73	8925
1342.988	9037
1345.248	8976
1347.505	8987
1349.763	8911
1352.019	8968
1354.274	8902
1356.53	9028
1358.784	8909
1361.038	9139
1363.291	8994
1365.543	9085
1367.797	8954
1370.048	9067
1372.296	8991
1374.546	9063
1376.796	8958
1379.045	8859
1381.295	9008
1383.542	9026
1385.787	8935
1388.034	8968
1390.28	9012
1392.527	9117
1394.772	9134
1397.014	9035
1399.258	9182
1401.501	9035
1403.741	9107
1405.985	9094
1408.226	9109
1410.465	9021
1412.705	9155
1414.943	9166
1417.184	9154
1419.42	9154
1421.658	9168
1423.894	9255
1426.13	9167
1428.366	9324
1430.602	9098
1432.835	9329
1435.069	9262
1437.301	9231
1439.535	9274
1441.767	9331
1443.997	9500
1446.229	9347
1448.458	9293
1450.687	9368
1452.916	9507
1455.146	9353
1457.372	9327
1459.599	9489
1461.824	9213
1464.051	9312
1466.277	9382
1468.501	9197
1470.725	9357
1472.948	9285
1475.17	9418
1477.393	9408
1479.614	9219
1481.837	9262
1484.057	9387
1486.276	9403
1488.497	9221
1490.715	9033
1492.932	9018
1495.148	9323
1497.364	9229
1499.58	9223
1501.798	9229
1504.012	9289
1506.227	9098
1508.44	9206
1510.653	9224
1512.866	9230
1515.078	9319
1517.289	9119
1519.5	9262
1521.711	9308
1523.92	9223
1526.13	9257
1528.338	9163
1530.544	9153
1532.752	9214
1534.959	9228
1537.165	9262
1539.371	9214
1541.574	9172
1543.779	9461
1545.983	9345
1548.187	9370
1550.39	9441
1552.59	9310
1554.792	9256
1556.991	9406
1559.19	9426
1561.392	9546
1563.59	9445
1565.789	9382
1567.986	9426
1570.182	9428
1572.381	9479
1574.576	9457
1576.771	9642
1578.966	9438
1581.16	9603
1583.354	9616
1585.546	9541
1587.74	9447
1589.931	9728
1592.121	9553
1594.311	9570
1596.502	9579
1598.693	9581
1600.881	9509
1603.069	9485
1605.256	9710
1607.445	9586
1609.631	9750
1611.816	9653
1614.001	9765
1616.186	9568
1618.37	9747
1620.555	9608
1622.737	9712
1624.919	9651
1627.101	9575
1629.282	9839
1631.463	9600
1633.643	9729
1635.822	9691
1638.001	9755
1640.179	9555
1642.359	9424
1644.534	9668
1646.711	9624
1648.887	9755
1651.062	9878
1653.235	9733
1655.412	9795
1657.586	9725
1659.757	9733
1661.93	9645
1664.1	9865
1666.274	9766
1668.445	9613
1670.614	9831
1672.784	9732
1674.951	9661
1677.12	9683
1679.289	9743
1681.457	9681
1683.622	9686
1685.789	9922
1687.953	9678
1690.121	9577
1692.284	9915
1694.447	9709
1696.611	9754
1698.772	9678
1700.935	9851
1703.098	9756
1705.258	9640
1707.417	9734
1709.576	9673
1711.736	9756
1713.896	9704
1716.053	9626
1718.21	9805
1720.366	9681
1722.522	9720
1724.68	9719
1726.835	9682
1728.989	9756
1731.142	9631
1733.295	9665
1735.449	9705
1737.601	9790
1739.753	9660
1741.903	9765
1744.054	9719
1746.203	9742
1748.354	9790
1750.503	9792
1752.651	9729
1754.798	9851
1756.944	9929
1759.092	9722
1761.238	9831
1763.383	9800
1765.528	9810
1767.672	9935
1769.814	9816
1771.959	9934
1774.102	9881
1776.242	9763
1778.384	10015
1780.525	9835
1782.665	10039
1784.805	9887
1786.945	9967
1789.082	9921
1791.22	9917
1793.36	9965
1795.495	9903
1797.632	9746
1799.766	9909
1801.902	9968
1804.035	10049
1806.172	9946
1808.304	9891
1810.436	9796
1812.569	9904
1814.699	10079
1816.833	9884
1818.963	9815
1821.092	9862
1823.222	9822
1825.35	10075
1827.478	9968
1829.608	9806
1831.734	10021
1833.86	9988
1835.986	9881
1838.11	10049
1840.238	9965
1842.362	9891
1844.485	9882
1846.608	9961
1848.73	9754
1850.853	9920
1852.974	9948
1855.097	9767
1857.217	9803
1859.336	10086
1861.455	9974
1863.576	9929
1865.693	9818
1867.811	9889
1869.926	9933
1872.042	9967
1874.16	9943
1876.275	9843
1878.39	9954
1880.504	9989
1882.618	9935
1884.731	10019
1886.843	10059
1888.956	10063
1891.067	9931
1893.178	10053
1895.287	10040
1897.399	10112
1899.508	10024
1901.617	9998
1903.724	9880
1905.832	10070
1907.941	10075
1910.046	9966
1912.152	10119
1914.256	10170
1916.361	10119
1918.464	9988
1920.57	10099
1922.672	10177
1924.775	10107
1926.876	9983
1928.978	10069
1931.08	10128
1933.181	10113
1935.28	10155
1937.38	10115
1939.478	10220
1941.577	10191
1943.675	10206
1945.771	10264
1947.867	10297
1949.964	10241
1952.058	10148
1954.154	10242
1956.248	10283
1958.343	10280
1960.435	10294
1962.527	10204
1964.62	10219
1966.711	10174
1968.802	10269
1970.892	10266
1972.983	10047
1975.072	10270
1977.162	10273
1979.25	10378
1981.337	10137
1983.424	10257
1985.51	10183
1987.598	10260
1989.683	10158
1991.768	10133
1993.852	10145
1995.934	10048
1998.019	10171
2000.102	10120
2002.184	10234
2004.266	10235
2006.347	10148
2008.427	10133
2010.508	10104
2012.587	10265
2014.666	10178
2016.745	10100
2018.821	10074
2020.9	10137
2022.977	10165
2025.052	10186
2027.128	10192
2029.204	10253
2031.277	10204
2033.353	10117
2035.425	10298
2037.499	10231
2039.57	10206
2041.642	10232
2043.714	10330
2045.786	10290
2047.855	10291
2049.925	10297
2051.993	10169
2054.064	10305
2056.132	10359
2058.2	10384
2060.266	10313
2062.332	10276
2064.398	10322
2066.465	10292
2068.529	10216
2070.592	10384
2072.657	10210
2074.719	10417
2076.783	10434
2078.845	10437
2080.907	10354
2082.968	10366
2085.028	10174
2087.087	10271
2089.148	10370
2091.207	10312
2093.264	10358
2095.322	10347
2097.379	10300
2099.439	10255
2101.495	10313
2103.55	10364
2105.605	10348
2107.658	10252
2109.713	10291
2111.767	10316
2113.82	10374
2115.872	10386
2117.924	10541
2119.975	10517
2122.028	10427
2124.078	10354
2126.126	10337
2128.176	10342
2130.225	10518
2132.275	10280
2134.321	10302
2136.368	10402
2138.415	10440
2140.461	10475
2142.505	10409
2144.552	10501
2146.597	10319
2148.64	10436
2150.684	10334
2152.725	10434
2154.77	10252
2156.811	10344
2158.852	10436
2160.894	10203
2162.933	10389
2164.973	10489
2167.013	10397
2169.051	10440
2171.089	10399
2173.126	10347
2175.164	10318
2177.201	10382
2179.236	10321
2181.273	10571
2183.307	10428
2185.341	10261
2187.377	10374
2189.41	10370
2191.442	10206
2193.473	10244
2195.506	10300
2197.539	10275
2199.569	10250
2201.598	10288
2203.628	10473
2205.656	10406
2207.686	10223
2209.716	10238
2211.743	10281
2213.769	10231
2215.796	10244
2217.821	10306
2219.848	10172
2221.873	10228
2223.897	10310
2225.921	10278
2227.944	10338
2229.967	10302
2231.991	10307
2234.011	10314
2236.032	10327
2238.053	10171
2240.073	10222
2242.094	10244
2244.114	10280
2246.131	10246
2248.149	10336
2250.167	10352
2252.186	10208
2254.201	10307
2256.218	10368
2258.233	10337
2260.247	10387
2262.262	10277
2264.278	10237
2266.29	10325
2268.303	10199
2270.315	10498
2272.327	10388
2274.341	10409
2276.35	10270
2278.361	10394
2280.37	10332
2282.38	10328
2284.388	10447
2286.397	10423
2288.405	10389
2290.412	10351
2292.419	10382
2294.425	10300
2296.431	10221
2298.437	10488
2300.441	10423
2302.445	10213
2304.449	10407
2306.453	10236
2308.455	10278
2310.457	10314
2312.459	10459
2314.46	10324
2316.46	10495
2318.461	10254
2320.46	10294
2322.458	10176
2324.458	10283
2326.456	10313
2328.455	10394
2330.451	10455
2332.447	10296
2334.443	10295
2336.438	10242
2338.433	10313
2340.429	10405
2342.422	10217
2344.416	10423
2346.408	10398
2348.399	10424
2350.393	10246
2352.384	10276
2354.375	10336
2356.365	10254
2358.355	10259
2360.344	10378
2362.333	10294
2364.322	10304
2366.309	10207
2368.295	10296
2370.282	10258
2372.27	10279
2374.256	10218
2376.24	10342
2378.225	10280
2380.208	10373
2382.194	10222
2384.177	10231
2386.159	10180
2388.142	10161
2390.122	10268
2392.105	10350
2394.085	10235
2396.066	10245
2398.044	10245
2400.024	10188
2402.002	10102
2403.982	10159
2405.959	10110
2407.935	10219
2409.913	10160
2411.888	10280
2413.865	10200
2415.84	10260
2417.814	10188
2419.788	10399
2421.762	10152
2423.735	10129
2425.708	10335
2427.68	10155
2429.651	10377
2431.623	10165
2433.593	10235
2435.564	10241
2437.533	10221
2439.502	10441
2441.47	10223
2443.438	10313
2445.406	10348
2447.373	10210
2449.34	10144
2451.305	10265
2453.271	10139
2455.235	10270
2457.201	10231
2459.165	10157
2461.129	10103
2463.092	10360
2465.054	10380
2467.018	10148
2468.978	10341
2470.939	10189
2472.899	10180
2474.86	10238
2476.819	10143
2478.778	10280
2480.737	10214
2482.695	10142
2484.653	10178
2486.609	10341
2488.567	10091
2490.524	10306
2492.478	10246
2494.433	10199
2496.387	10176
2498.343	10117
2500.297	10207
2502.249	10196
2504.202	10134
2506.153	10217
2508.105	10322
2510.057	10131
2512.008	10287
2513.957	10265
2515.906	10048
2517.855	10213
2519.805	10349
2521.754	10203
2523.7	10224
2525.647	10180
2527.594	10167
2529.54	10092
2531.486	10290
2533.431	10249
2535.376	10334
2537.32	10164
2539.263	10300
2541.207	10121
2543.151	10314
2545.093	10128
2547.034	10161
2548.975	10312
2550.917	10118
2552.856	10281
2554.796	10235
2556.735	10241
2558.673	10168
2560.611	10308
2562.55	10268
2564.487	10376
2566.424	10308
2568.36	10197
2570.296	10226
2572.232	10281
2574.167	10258
2576.101	10139
2578.035	10267
2579.969	10193
2581.902	10399
2583.834	10336
2585.766	10298
2587.698	10309
2589.628	10486
2591.557	10361
2593.489	10246
2595.419	10404
2597.348	10329
2599.275	10354
2601.204	10477
2603.131	10306
2605.059	10428
2606.986	10388
2608.911	10202
2610.837	10322
2612.76	10283
2614.687	10280
2616.61	10347
2618.534	10565
2620.457	10492
2622.38	10402
2624.302	10498
2626.225	10226
2628.145	10460
2630.067	10272
2631.986	10450
2633.906	10456
2635.827	10556
2637.745	10543
2639.662	10420
2641.581	10505
2643.498	10381
2645.415	10500
2647.331	10567
2649.248	10425
2651.163	10372
2653.077	10404
2654.993	10470
2656.906	10323
2658.821	10472
2660.733	10341
2662.646	10540
2664.557	10572
2666.47	10489
2668.381	10493
2670.291	10420
2672.201	10510
2674.11	10598
2676.021	10560
2677.929	10537
2679.837	10489
2681.745	10590
2683.652	10506
2685.56	10375
2687.466	10365
2689.371	10459
2691.276	10413
2693.181	10367
2695.085	10478
2696.991	10402
2698.893	10455
2700.796	10343
2702.698	10465
2704.601	10453
2706.502	10304
2708.404	10334
2710.304	10498
2712.203	10339
2714.103	10339
2716.003	10435
2717.902	10435
2719.8	10386
2721.697	10391
2723.594	10470
2725.49	10319
2727.389	10351
2729.283	10311
2731.179	10333
2733.073	10304
2734.968	10549
2736.863	10359
2738.757	10448
2740.649	10419
2742.541	10271
2744.433	10451
2746.324	10328
2748.216	10314
2750.107	10384
2751.997	10258
2753.886	10279
2755.776	10416
2757.666	10491
2759.553	10337
2761.44	10434
2763.327	10492
2765.215	10336
2767.102	10399
2768.988	10300
2770.873	10347
2772.757	10213
2774.641	10405
2776.525	10379
2778.41	10406
2780.292	10340
2782.175	10456
2784.057	10524
2785.938	10238
2787.821	10448
2789.701	10358
2791.581	10349
2793.461	10394
2795.34	10242
2797.219	10354
2799.099	10404
2800.975	10378
2802.853	10509
2804.73	10339
2806.606	10311
2808.484	10337
2810.358	10334
2812.233	10344
2814.108	10317
2815.981	10489
2817.857	10213
2819.73	10277
2821.602	10340
2823.474	10382
2825.346	10424
2827.217	10274
2829.089	10516
2830.959	10295
2832.829	10293
2834.698	10326
2836.567	10376
2838.436	10498
2840.305	10337
2842.172	10363
2844.04	10339
2845.905	10383
2847.772	10297
2849.639	10370
2851.503	10424
2853.369	10547
2855.232	10436
2857.096	10579
2858.961	10350
2860.824	10608
2862.686	10551
2864.547	10491
2866.41	10605
2868.272	10457
2870.132	10440
2871.992	10597
2873.851	10557
2875.711	10667
2877.57	10550
2879.429	10637
2881.287	10692
2883.144	10570
2885.001	10770
2886.857	10700
2888.714	10627
2890.57	10636
2892.425	10654
2894.279	10675
2896.133	10667
2897.987	10589
2899.842	10811
2901.694	10739
2903.547	10643
2905.397	10565
2907.249	10685
2909.101	10758
2910.952	10690
2912.802	10675
2914.652	10840
2916.5	10792
2918.35	10832
2920.198	10856
2922.045	10719
2923.893	10830
2925.74	10760
2927.585	10922
2929.433	10898
2931.279	10950
2933.123	11053
2934.968	11016
2936.811	11049
2938.656	10959
2940.5	11020
2942.342	11119
2944.185	11100
2946.026	11046
2947.87	11148
2949.71	11007
2951.549	10976
2953.39	10929
2955.229	10772
2957.069	10829
2958.908	10879
2960.746	10924
2962.584	10758
2964.421	10913
2966.257	10783
2968.094	10791
2969.931	10932
2971.766	10717
2973.601	10713
2975.435	10805
2977.27	10529
2979.105	10883
2980.938	10927
2982.77	10586
2984.602	10673
2986.434	10470
2988.267	10617
2990.097	10636
2991.927	10546
2993.757	10665
2995.587	10545
2997.417	10394
2999.246	10477
3001.074	10437
3002.902	10523
3004.729	10474
3006.556	10459
3008.384	10515
3010.21	10290
3012.036	10321
3013.861	10242
3015.684	10358
3017.51	10239
3019.334	10332
3021.157	10295
3022.981	10371
3024.802	10295
3026.624	10109
3028.448	10190
3030.267	10089
3032.088	10137
3033.909	10197
3035.728	10209
3037.549	10195
3039.368	10050
3041.186	10090
3043.004	10234
3044.821	10250
3046.64	10013
3048.455	10083
3050.272	10149
3052.087	10097
3053.903	10192
3055.717	10043
3057.534	10176
3059.347	10201
3061.16	10127
3062.974	10071
3064.785	10111
3066.598	10075
3068.411	10214
3070.222	9973
3072.032	10049
3073.844	10120
3075.653	9938
3077.463	10085
3079.272	10122
3081.08	9981
3082.889	10094
3084.697	10012
3086.505	10148
3088.312	9992
3090.118	10024
3091.924	9816
3093.729	9945
3095.535	9889
3097.34	9896
3099.144	10118
3100.947	9986
3102.75	9893
3104.553	9966
3106.357	9844
3108.159	9887
3109.961	9813
3111.762	9860
3113.562	9948
3115.365	9937
3117.164	9914
3118.964	9856
3120.761	10004
3122.56	9815
3124.36	9831
3126.158	9863
3127.954	9802
3129.75	9659
3131.547	9837
3133.343	9633
3135.139	9914
3136.934	9791
3138.729	9834
3140.522	9789
3142.317	9754
3144.11	9684
3145.904	9702
3147.695	9750
3149.488	9844
3151.28	9809
3153.07	9658
3154.863	9676
3156.652	9718
3158.441	9574
3160.231	9830
3162.019	9625
3163.81	9666
3165.597	9707
3167.384	9731
3169.172	9592
3170.958	9712
3172.745	9685
3174.532	9743
3176.317	9680
3178.101	9565
3179.885	9727
3181.67	9676
3183.455	9521
3185.238	9731
3187.02	9655
3188.802	9666
3190.585	9566
3192.368	9521
3194.149	9522
3195.929	9616
3197.709	9719
3199.489	9672
3201.268	9603
3203.048	9629
3204.826	9672
3206.604	9621
3208.382	9683
3210.159	9590
3211.937	9537
3213.713	9578
3215.489	9591
3217.263	9646
3219.038	9717
3220.815	9511
3222.589	9474
3224.363	9522
3226.136	9637
3227.908	9633
3229.681	9666
3231.454	9613
3233.226	9469
3234.996	9525
3236.767	9539
3238.538	9565
3240.308	9509
3242.078	9444
3243.847	9456
3245.615	9513
3247.384	9661
3249.15	9616
3250.92	9700
3252.686	9603
3254.453	9503
3256.218	9718
3257.984	9489
3259.75	9579
3261.515	9491
3263.279	9539
3265.044	9781
3266.806	9515
3268.57	9658
3270.334	9587
3272.095	9613
3273.856	9661
3275.619	9575
3277.379	9636
3279.14	9455
3280.9	9570
3282.661	9488
3284.419	9597
3286.178	9624
3287.937	9625
3289.695	9481
3291.453	9705
3293.21	9555
3294.967	9529
3296.723	9497
3298.48	9534
3300.235	9597
3301.99	9423
3303.744	9500
3305.498	9529
3307.253	9667
3309.006	9480
3310.759	9526
3312.511	9605
3314.263	9498
3316.017	9636
3317.768	9689
3319.519	9452
3321.268	9604
3323.018	9410
3324.767	9632
3326.518	9501
3328.267	9491
3330.014	9453
3331.762	9467
3333.509	9720
3335.258	9538
3337.003	9410
3338.75	9565
3340.496	9609
3342.24	9425
3343.987	9644
3345.732	9768
3347.475	9520
3349.219	9622
3350.961	9502
3352.705	9490
3354.448	9605
3356.19	9524
3357.931	9441
3359.672	9507
3361.412	9360
3363.155	9376
3364.894	9515
3366.633	9459
3368.372	9479
3370.11	9698
3371.849	9467
3373.588	9451
3375.325	9511
3377.061	9419
3378.799	9519
3380.534	9439
3382.271	9507
3384.006	9444
3385.741	9319
3387.475	9511
3389.209	9429
3390.944	9451
3392.677	9416
3394.409	9460
3396.143	9402
3397.874	9456
3399.606	9421
3401.338	9448
3403.069	9481
3404.799	9450
3406.528	9407
3408.258	9515
3409.988	9611
3411.717	9400
3413.445	9408
3415.173	9403
3416.899	9382
3418.626	9424
3420.354	9455
3422.08	9298
3423.806	9299
3425.531	9377
3427.255	9440
3428.981	9386
3430.705	9438
3432.429	9481
3434.151	9342
3435.875	9357
3437.599	9393
3439.321	9259
3441.042	9295
3442.763	9351
3444.483	9278
3446.204	9349
3447.926	9283
3449.645	9181
3451.364	9220
3453.082	9319
3454.801	9269
3456.52	9217
3458.238	9210
3459.954	9317
3461.671	9199
3463.387	9324
3465.104	9256
3466.82	9358
3468.534	9260
3470.25	9227
3471.963	9228
3473.676	9184
3475.392	9318
3477.104	9162
3478.817	9242
3480.528	9030
3482.241	9184
3483.954	9346
3485.664	9219
3487.374	9126
3489.084	9110
3490.795	9217
3492.504	9262
3494.214	9177
3495.922	9112
3497.63	9160
3499.338	9189
3501.045	9048
3502.753	9194
3504.459	9105
3506.166	9253
3507.871	9012
3509.576	9072
3511.283	9079
3512.987	8943
3514.691	9168
3516.395	9115
3518.098	8993
3519.8	8950
3521.504	9104
3523.206	9006
3524.908	9221
3526.609	8925
3528.309	9158
3530.011	9210
3531.711	9087
3533.411	9105
3535.109	9124
3536.808	9139
3538.507	9081
3540.206	9055
3541.904	9098
3543.601	9052
3545.297	9007
3546.994	9007
3548.69	9031
3550.387	9131
3552.081	9063
3553.776	9084
3555.47	9043
3557.166	9136
3558.859	9114
3560.553	8976
3562.245	9119
3563.938	9061
3565.629	8979
3567.322	9135
3569.014	9161
3570.704	9112
3572.394	9024
3574.084	9040
3575.775	9070
3577.464	9050
3579.152	9058
3580.842	8951
3582.529	8977
3584.216	9039
3585.905	8980
3587.591	9082
3589.279	8904
3590.964	9047
3592.649	8941
3594.336	8893
3596.021	8997
3597.705	8853
3599.388	8871
3601.072	8801
3602.757	8886
3604.439	8971
3606.122	8828
3607.803	9032
3609.485	8968
3611.167	8881
3612.849	8780
3614.529	8789
3616.208	8708
3617.888	8860
3619.567	8864
3621.247	8850
3622.926	8753
3624.603	8843
3626.281	8766
3627.958	8815
3629.635	8829
3631.312	8905
3632.989	8756
3634.665	8889
3636.339	8628
3638.014	8709
3639.691	8853
3641.364	8800
3643.038	8697
3644.71	8771
3646.384	8775
3648.058	8786
3649.729	8789
3651.402	8828
3653.073	8889
3654.744	8765
3656.414	8706
3658.085	8702
3659.755	8601
3661.424	8793
3663.094	8557
3664.762	8837
3666.431	8690
3668.099	8560
3669.766	8742
3671.433	8804
3673.099	8709
3674.768	8713
3676.433	8793
3678.098	8712
3679.763	8844
3681.428	8786
3683.093	8785
3684.757	8627
3686.421	8749
3688.083	8637
3689.746	8766
3691.408	8806
3693.071	8689
3694.733	8830
3696.394	8746
3698.054	8681
3699.715	8743
3701.375	8651
3703.036	8743
3704.695	8687
3706.354	8891
3708.012	8775
3709.67	8742
3711.329	8615
3712.987	8646
3714.644	8762
3716.299	8715
3717.955	8594
3719.613	8670
3721.268	8693
3722.923	8710
3724.577	8636
3726.231	8558
3727.885	8596
3729.539	8578
3731.192	8641
3732.845	8663
3734.497	8680
3736.149	8602
3737.802	8629
3739.453	8559
3741.104	8688
3742.753	8591
3744.404	8692
3746.052	8736
3747.704	8596
3749.352	8600
3751	8664
3752.648	8513
3754.296	8754
3755.944	8635
3757.59	8609
3759.238	8619
3760.883	8667
3762.528	8575
3764.176	8607
3765.82	8547
3767.464	8597
3769.109	8715
3770.753	8524
3772.396	8616
3774.04	8584
3775.683	8428
3777.325	8521
3778.967	8552
3780.608	8571
3782.25	8421
3783.89	8513
3785.531	8395
3787.17	8531
3788.81	8463
3790.45	8417
3792.09	8500
3793.729	8365
3795.366	8433
3797.003	8301
3798.64	8458
3800.278	8495
3801.915	8550
3803.551	8569
3805.187	8357
3806.822	8525
3808.458	8406
3810.093	8446
3811.726	8380
3813.36	8469
3814.994	8394
3816.627	8465
3818.262	8482
3819.893	8454
3821.525	8399
3823.157	8412
3824.787	8302
3826.42	8360
3828.051	8347
3829.68	8337
3831.31	8388
3832.938	8395
3834.569	8338
3836.198	8329
3837.825	8368
3839.454	8345
3841.08	8368
3842.708	8253
3844.335	8262
3845.962	8272
3847.587	8268
3849.212	8298
3850.838	8409
3852.463	8223
3854.089	8176
3855.712	8343
3857.335	8309
3858.959	8245
3860.582	8294
3862.205	8144
3863.827	8200
3865.449	8268
3867.07	8252
3868.691	8332
3870.312	8187
3871.933	8378
3873.553	8192
3875.173	8252
3876.792	8202
3878.411	8211
3880.03	8281
3881.647	8176
3883.265	8282
3884.882	8256
3886.499	8154
3888.116	8108
3889.732	8159
3891.348	8208
3892.964	8212
3894.579	8289
3896.195	8168
3897.809	8210
3899.423	8249
3901.036	8264
3902.648	8266
3904.261	8234
3905.875	8286
3907.487	8233
3909.099	8153
3910.709	8237
3912.321	8303
3913.933	8183
3915.542	8218
3917.152	8262
3918.762	8312
3920.37	8142
3921.98	8307
3923.589	8220
3925.196	8266
3926.804	8192
3928.41	8309
3930.018	8157
3931.626	8211
3933.231	8210
3934.838	8190
3936.442	8077
3938.046	8125
3939.653	8193
3941.257	8103
3942.861	8253
3944.464	8116
3946.068	8237
3947.67	8154
3949.273	8206
3950.876	8089
3952.477	8163
3954.078	8170
3955.678	8170
3957.281	8204
3958.881	7997
3960.48	8055
3962.079	8093
3963.678	8093
3965.279	8146
3966.877	8100
3968.475	8225
3970.072	8092
3971.669	8016
3973.266	8074
3974.864	8103
3976.459	8035
3978.055	8057
3979.65	8091
3981.245	7986
3982.841	8001
3984.436	7994
3986.03	8037
3987.623	8157
3989.216	7979
3990.809	8104
3992.403	7876
3993.995	7984
3995.586	7993
3997.177	7927
3998.768	8005
4000.361	7981
4001.951	7949
4003.54	7855
4005.13	7850
4006.719	7837
4008.31	7935
4009.897	7959
4011.485	7862
4013.073	7760
4014.66	7920
4016.247	7936
4017.834	7879
4019.421	7767
4021.006	7789
4022.592	7962
4024.178	7915
4025.763	7696
4027.348	7832
4028.932	7678
4030.515	7848
4032.099	7717
4033.682	7738
4035.266	7817
4036.847	7881
4038.429	7799
4040.011	7677
4041.592	7722
4043.173	7825
4044.755	7657
4046.334	7774
4047.913	7724
4049.494	7807
4051.074	7822
4052.652	7697
4054.23	7692
4055.807	7758
4057.385	7730
4058.963	7688
4060.541	7581
4062.117	7802
4063.693	7694
4065.269	7685
4066.844	7755
4068.42	7696
4069.995	7731
4071.569	7649
4073.143	7620
4074.716	7594
4076.291	7684
4077.864	7553
4079.436	7718
4081.009	7648
4082.58	7663
4084.152	7614
4085.723	7691
4087.294	7717
4088.865	7536
4090.435	7580
4092.005	7563
4093.574	7647
4095.143	7685
4096.712	7581
4098.279	7652
4099.848	7678
4101.416	7542
4102.984	7606
4104.55	7531
4106.117	7629
4107.682	7564
4109.248	7708
4110.815	7705
4112.379	7541
4113.945	7512
4115.508	7537
4117.073	7523
4118.637	7525
4120.201	7581
4121.763	7466
4123.325	7474
4124.888	7564
4126.449	7573
4128.013	7571
4129.573	7476
4131.133	7576
4132.694	7535
4134.254	7319
4135.814	7420
4137.374	7506
4138.933	7508
4140.491	7508
4142.049	7455
4143.607	7354
4145.167	7369
4146.724	7404
4148.28	7433
4149.836	7326
4151.392	7430
4152.949	7387
4154.504	7379
4156.059	7320
4157.614	7271
4159.168	7484
4160.723	7335
4162.277	7364
4163.83	7314
4165.383	7324
4166.936	7422
4168.488	7426
4170.041	7349
4171.593	7346
4173.144	7364
4174.695	7282
4176.246	7266
4177.796	7374
4179.346	7266
4180.896	7321
4182.445	7273
4183.994	7381
4185.542	7212
4187.091	7250
4188.639	7342
4190.185	7184
4191.732	7054
4193.279	7257
4194.826	7285
4196.373	7257
4197.918	7286
4199.463	7304
4201.008	7283
4202.553	7259
4204.098	7309
4205.641	7206
4207.185	7228
4208.728	7251
4210.271	7185
4211.814	7273
4213.357	7085
4214.898	7143
4216.439	7162
4217.98	7122
4219.522	7238
4221.062	7163
4222.603	7170
4224.142	7114
4225.681	7172
4227.222	7288
4228.76	7133
4230.298	7256
4231.835	7167
4233.373	7208
4234.911	7118
4236.449	7332
4237.985	7102
4239.521	7219
4241.057	7128
4242.592	7157
4244.128	7175
4245.663	7142
4247.197	7191
4248.731	7083
4250.265	7138
4251.798	7176
4253.333	7277
4254.865	7028
4256.397	7070
4257.93	7228
4259.461	7038
4260.994	7123
4262.525	7036
4264.056	7147
4265.586	7123
4267.115	7137
4268.646	7169
4270.176	7142
4271.705	6919
4273.232	7210
4274.761	7135
4276.289	7140
4277.818	7031
4279.345	7054
4280.872	7158
4282.399	6995
4283.924	7005
4285.452	7116
4286.976	7007
4288.502	6953
4290.026	7113
4291.551	7150
4293.074	7083
4294.6	7025
4296.123	7042
4297.646	7003
4299.168	7040
4300.691	6889
4302.214	6983
4303.736	7058
4305.257	6936
4306.778	7024
4308.299	6969
4309.82	7011
4311.34	7059
4312.86	6995
4314.379	6999
