400.0745	5486
402.597	5511
405.1208	5588
407.6419	5551
410.1623	5558
412.6819	5680
415.201	5642
417.7172	5645
420.2369	5684
422.7538	5791
425.2701	5786
427.7856	5765
430.3005	5870
432.8147	5778
435.3282	5817
437.841	5931
440.3511	5831
442.8625	5916
445.3753	5909
447.8854	5852
450.3927	5961
452.9014	5840
455.4073	5987
457.9146	5865
460.4233	5857
462.9272	5834
465.4325	5952
467.935	5939
470.4389	5998
472.9421	6076
475.4446	5946
477.9444	6076
480.4456	6015
482.944	6011
485.4417	5936
487.9429	6036
490.4393	6015
492.935	6128
495.4321	6108
497.9264	6062
500.4221	6109
502.9171	6239
505.4094	6107
507.9011	6061
510.392	6264
512.8864	6216
515.3759	6115
517.8649	6159
520.3531	6182
522.8406	6031
525.3275	6303
527.8178	6215
530.3033	6236
532.7881	6102
535.2723	6171
537.7558	6293
540.2407	6311
542.7228	6133
545.2043	6263
547.6851	6253
550.1652	6273
552.6467	6389
555.1255	6275
557.6016	6266
560.079	6308
562.5557	6346
565.0318	6277
567.5092	6301
569.984	6275
572.456	6456
574.9294	6277
577.4022	6428
579.8762	6367
582.3456	6618
584.8163	6394
587.2863	6348
589.7557	6530
592.2224	6494
594.6924	6452
597.1578	6510
599.6245	6465
602.0905	6572
604.5538	6405
607.0206	6381
609.4825	6496
611.9459	6484
614.4066	6544
616.8686	6446
619.33	6425
621.7906	6459
624.2487	6366
626.708	6551
629.1647	6515
631.6207	6517
634.0801	6537
636.5348	6500
638.9888	6483
641.4442	6568
643.8969	6577
646.3509	6606
648.8022	6546
651.255	6595
653.705	6711
656.1544	6638
658.6031	6574
661.0532	6602
663.5026	6540
665.9493	6686
668.3954	6673
670.8409	6641
673.2877	6691
675.7318	6807
678.1752	6687
680.618	6773
683.0601	6638
685.5035	6771
687.9444	6719
690.3845	6759
692.824	6723
695.2628	6700
697.701	6821
700.1406	6763
702.5774	6823
705.0116	6616
707.4472	6745
709.8821	6792
712.3183	6786
714.7519	6758
717.1829	6961
719.6151	6719
722.0468	6851
724.4777	6910
726.908	6909
729.3377	6914
731.7667	6996
734.1931	7042
736.6208	6969
739.0498	6995
741.4742	6999
743.9	7109
746.3231	7187
748.7476	7072
751.1713	7161
753.5945	7161
756.015	7171
758.4368	7211
760.856	7258
763.2766	7193
765.6965	7201
768.1157	7170
770.5323	7226
772.9483	7190
775.3656	7397
777.7822	7235
780.1963	7201
782.6116	7288
785.0244	7235
787.4365	7377
789.8499	7236
792.2626	7317
794.6728	7369
797.0823	7285
799.4911	7229
801.8994	7262
804.3109	7279
806.7178	7368
809.124	7335
811.5297	7307
813.9347	7402
816.341	7219
818.7447	7425
821.1478	7433
823.5502	7383
825.952	7373
828.3531	7356
830.7556	7335
833.1554	7373
835.5546	7305
837.9532	7385
840.3511	7350
842.7504	7300
845.1451	7447
847.5411	7482
849.9365	7488
852.3312	7520
854.7272	7411
857.1187	7572
859.5115	7453
861.9037	7455
864.2952	7363
866.6842	7547
869.0764	7517
871.4661	7550
873.8531	7395
876.2415	7436
878.6272	7453
881.0162	7396
883.4026	7443
885.7866	7512
888.1717	7408
890.5543	7410
892.9382	7478
895.3215	7391
897.7041	7459
900.0842	7448
902.4655	7309
904.8443	7456
907.2244	7406
909.6039	7406
911.9808	7554
914.357	7488
916.7346	7674
919.1115	7651
921.4859	7695
923.8616	7664
926.2347	7670
928.6071	7886
930.979	7802
933.3541	7785
935.7247	7771
938.0946	7713
940.4639	7805
942.8326	7880
945.2026	7956
947.5701	7867
949.9369	8037
952.305	8013
954.6705	8240
957.0355	8172
959.4017	8471
961.7654	8436
964.1284	8238
966.4908	8410
968.8527	8172
971.2138	8019
973.5743	8139
975.9343	7812
978.2936	7895
980.6522	7857
983.0122	7743
985.3696	7632
987.7245	7585
990.0807	7668
992.4362	7774
994.7911	7748
997.1474	7678
999.4991	7675
1001.852	7788
1004.205	7828
1006.555	7702
1008.908	7744
1011.258	7677
1013.606	7809
1015.956	7774
1018.302	7742
1020.652	7790
1022.998	7789
1025.345	7795
1027.691	7785
1030.035	7840
1032.378	7743
1034.724	7825
1037.066	7862
1039.409	7875
1041.75	7792
1044.092	7813
1046.433	7677
1048.771	7831
1051.112	7860
1053.449	7749
1055.786	7835
1058.124	7763
1060.462	7920
1062.797	7776
1065.131	7973
1067.467	7955
1069.8	7901
1072.135	7848
1074.467	7872
1076.798	7926
1079.129	7895
1081.459	7910
1083.792	7811
1086.121	7897
1088.449	7787
1090.777	7742
1093.104	7846
1095.431	7885
1097.759	7882
1100.084	8030
1102.408	8084
1104.732	7675
1107.056	7973
1109.379	7859
1111.701	7977
1114.022	7811
1116.343	7996
1118.664	7837
1120.983	7984
1123.303	7890
1125.621	7927
1127.939	7999
1130.256	7941
1132.573	7912
1134.889	7957
1137.205	7918
1139.52	7918
1141.832	7921
1144.146	7889
1146.461	7898
1148.771	7934
1151.083	8023
1153.392	7996
1155.703	7961
1158.011	8031
1160.323	7909
1162.629	8097
1164.938	7902
1167.243	7981
1169.55	7957
1171.857	7912
1174.163	7902
1176.466	7975
1178.769	7925
1181.073	8082
1183.374	8048
1185.677	7867
1187.979	7950
1190.279	7899
1192.578	7807
1194.878	7982
1197.178	7851
1199.476	7904
1201.772	7932
1204.068	7963
1206.366	7990
1208.663	7948
1210.957	7832
1213.251	8050
1215.544	7972
1217.836	8015
1220.128	7952
1222.421	7988
1224.712	8033
1227.002	8097
1229.292	8088
1231.581	8044
1233.871	8188
1236.159	8136
1238.446	8074
1240.732	8203
1243.018	8251
1245.304	8161
1247.59	8123
1249.874	8362
1252.156	8274
1254.439	8227
1256.721	8140
1259.005	8215
1261.286	8269
1263.565	8349
1265.845	8194
1268.125	8174
1270.403	8241
1272.682	8261
1274.959	8164
1277.234	8199
1279.511	8271
1281.787	8177
1284.062	8217
1286.337	8088
1288.609	8186
1290.882	8083
1293.153	8217
1295.428	8068
1297.698	8008
1299.969	8082
1302.237	8169
1304.507	8160
1306.777	8145
1309.044	8096
1311.312	8025
1313.578	8019
1315.844	8243
1318.109	8120
1320.375	8052
1322.638	8121
1324.903	8137
1327.165	8098
1329.427	8004
1331.69	8007
1333.952	8204
1336.212	8005
1338.471	8204
1340.73	8240
1342.988	8132
1345.248	8195
1347.505	8012
1349.763	8023
1352.019	8142
1354.274	8090
1356.53	8024
1358.784	8029
1361.038	7999
1363.291	8100
1365.543	8164
1367.797	8168
1370.048	8060
1372.296	8184
1374.546	8132
1376.796	8173
1379.045	8239
1381.295	8340
1383.542	8249
1385.787	8247
1388.034	8090
1390.28	8161
1392.527	8248
1394.772	8336
1397.014	8299
1399.258	8209
1401.501	8153
1403.741	8333
1405.985	8208
1408.226	8204
1410.465	8141
1412.705	8207
1414.943	8366
1417.184	8273
1419.42	8209
1421.658	8299
1423.894	8367
1426.13	8405
1428.366	8460
1430.602	8221
1432.835	8357
1435.069	8387
1437.301	8406
1439.535	8286
1441.767	8379
1443.997	8348
1446.229	8371
1448.458	8518
1450.687	8425
1452.916	8540
1455.146	8502
1457.372	8517
1459.599	8511
1461.824	8538
1464.051	8466
1466.277	8405
1468.501	8488
1470.725	8332
1472.948	8336
1475.17	8387
1477.393	8308
1479.614	8265
1481.837	8157
1484.057	8211
1486.276	8256
1488.497	8172
1490.715	8270
1492.932	8202
1495.148	8154
1497.364	8097
1499.58	8170
1501.798	8118
1504.012	8221
1506.227	8044
1508.44	8128
1510.653	8053
1512.866	8154
1515.078	8102
1517.289	8095
1519.5	8162
1521.711	8133
1523.92	8045
1526.13	8168
1528.338	8119
1530.544	8106
1532.752	8177
1534.959	8289
1537.165	8114
1539.371	8049
1541.574	8166
1543.779	8026
1545.983	8123
1548.187	8207
1550.39	8169
1552.59	8163
1554.792	8229
1556.991	8290
1559.19	8248
1561.392	8240
1563.59	8178
1565.789	8328
1567.986	8272
1570.182	8434
1572.381	8378
1574.576	8320
1576.771	8224
1578.966	8508
1581.16	8303
1583.354	8304
1585.546	8381
1587.74	8248
1589.931	8400
1592.121	8476
1594.311	8396
1596.502	8286
1598.693	8340
1600.881	8434
1603.069	8486
1605.256	8484
1607.445	8272
1609.631	8546
1611.816	8399
1614.001	8349
1616.186	8298
1618.37	8526
1620.555	8365
1622.737	8547
1624.919	8460
1627.101	8356
1629.282	8452
1631.463	8436
1633.643	8493
1635.822	8600
1638.001	8592
1640.179	8409
1642.359	8416
1644.534	8425
1646.711	8525
1648.887	8346
1651.062	8482
1653.235	8455
1655.412	8554
1657.586	8435
1659.757	8604
1661.93	8329
1664.1	8475
1666.274	8453
1668.445	8381
1670.614	8556
1672.784	8416
1674.951	8558
1677.12	8538
1679.289	8704
1681.457	8356
1683.622	8413
1685.789	8509
1687.953	8438
1690.121	8461
1692.284	8495
1694.447	8492
1696.611	8407
1698.772	8397
1700.935	8457
1703.098	8299
1705.258	8240
1707.417	8292
1709.576	8335
1711.736	8245
1713.896	8348
1716.053	8349
1718.21	8402
1720.366	8299
1722.522	8286
1724.68	8421
1726.835	8279
1728.989	8258
1731.142	8261
1733.295	8252
1735.449	8331
1737.601	8345
1739.753	8308
1741.903	8368
1744.054	8297
1746.203	8339
1748.354	8340
1750.503	8322
1752.651	8370
1754.798	8279
1756.944	8468
1759.092	8456
1761.238	8374
1763.383	8326
1765.528	8400
1767.672	8273
1769.814	8404
1771.959	8471
1774.102	8375
1776.242	8297
1778.384	8271
1780.525	8264
1782.665	8415
1784.805	8347
1786.945	8412
1789.082	8278
1791.22	8409
1793.36	8384
1795.495	8385
1797.632	8344
1799.766	8567
1801.902	8430
1804.035	8465
1806.172	8433
1808.304	8415
1810.436	8472
1812.569	8437
1814.699	8465
1816.833	8429
1818.963	8404
1821.092	8555
1823.222	8302
1825.35	8436
1827.478	8358
1829.608	8320
1831.734	8338
1833.86	8382
1835.986	8366
1838.11	8457
1840.238	8416
1842.362	8356
1844.485	8309
1846.608	8265
1848.73	8398
1850.853	8270
1852.974	8382
1855.097	8323
1857.217	8408
1859.336	8204
1861.455	8323
1863.576	8294
1865.693	8304
1867.811	8267
1869.926	8354
1872.042	8263
1874.16	8424
1876.275	8286
1878.39	8288
1880.504	8301
1882.618	8436
1884.731	8237
1886.843	8344
1888.956	8223
1891.067	8219
1893.178	8384
1895.287	8234
1897.399	8366
1899.508	8289
1901.617	8304
1903.724	8447
1905.832	8353
1907.941	8352
1910.046	8421
1912.152	8415
1914.256	8375
1916.361	8352
1918.464	8369
1920.57	8453
1922.672	8324
1924.775	8357
1926.876	8614
1928.978	8399
1931.08	8415
1933.181	8367
1935.28	8395
1937.38	8435
1939.478	8430
1941.577	8568
1943.675	8511
1945.771	8458
1947.867	8361
1949.964	8372
1952.058	8295
1954.154	8530
1956.248	8484
1958.343	8480
1960.435	8398
1962.527	8440
1964.62	8428
1966.711	8350
1968.802	8429
1970.892	8351
1972.983	8423
1975.072	8397
1977.162	8332
1979.25	8281
1981.337	8398
1983.424	8314
1985.51	8310
1987.598	8444
1989.683	8390
1991.768	8304
1993.852	8333
1995.934	8226
1998.019	8386
2000.102	8245
2002.184	8279
2004.266	8329
2006.347	8324
2008.427	8344
2010.508	8404
2012.587	8318
2014.666	8376
2016.745	8246
2018.821	8293
2020.9	8134
2022.977	8206
2025.052	8290
2027.128	8220
2029.204	8228
2031.277	8167
2033.353	8191
2035.425	8341
2037.499	8315
2039.57	8083
2041.642	8438
2043.714	8394
2045.786	8335
2047.855	8191
2049.925	8199
2051.993	8278
2054.064	8320
2056.132	8285
2058.2	8152
2060.266	8306
2062.332	8346
2064.398	8240
2066.465	8262
2068.529	8361
2070.592	8279
2072.657	8339
2074.719	8145
2076.783	8183
2078.845	8226
2080.907	8333
2082.968	8242
2085.028	8377
2087.087	8185
2089.148	8321
2091.207	8277
2093.264	8344
2095.322	8400
2097.379	8244
2099.439	8208
2101.495	8317
2103.55	8150
2105.605	8274
2107.658	8333
2109.713	8268
2111.767	8222
2113.82	8171
2115.872	8379
2117.924	8335
2119.975	8322
2122.028	8304
2124.078	8241
2126.126	8202
2128.176	8337
2130.225	8315
2132.275	8377
2134.321	8276
2136.368	8275
2138.415	8217
2140.461	8157
2142.505	8219
2144.552	8194
2146.597	8235
2148.64	8319
2150.684	8162
2152.725	8100
2154.77	8249
2156.811	8181
2158.852	8190
2160.894	8128
2162.933	8082
2164.973	8137
2167.013	8172
2169.051	8130
2171.089	8169
2173.126	8202
2175.164	8262
2177.201	8091
2179.236	8099
2181.273	8159
2183.307	8059
2185.341	8213
2187.377	8168
2189.41	8128
2191.442	7989
2193.473	8166
2195.506	8126
2197.539	8034
2199.569	7984
2201.598	7997
2203.628	8090
2205.656	8123
2207.686	7933
2209.716	8043
2211.743	8110
2213.769	8030
2215.796	8042
2217.821	8068
2219.848	7932
2221.873	8073
2223.897	7933
2225.921	7978
2227.944	8096
2229.967	7970
2231.991	8014
2234.011	8026
2236.032	7935
2238.053	7894
2240.073	7965
2242.094	8008
2244.114	8081
2246.131	7951
2248.149	7992
2250.167	7919
2252.186	8121
2254.201	8035
2256.218	8064
2258.233	7982
2260.247	7935
2262.262	8188
2264.278	7976
2266.29	8007
2268.303	7948
2270.315	7955
2272.327	8058
2274.341	7934
2276.35	7972
2278.361	7906
2280.37	7908
2282.38	7990
2284.388	7921
2286.397	7953
2288.405	7975
2290.412	8013
2292.419	8001
2294.425	7911
2296.431	7883
2298.437	7993
2300.441	7873
2302.445	7909
2304.449	7907
2306.453	7925
2308.455	7924
2310.457	7908
2312.459	8130
2314.46	7960
2316.46	7928
2318.461	7957
2320.46	7891
2322.458	7879
2324.458	7832
2326.456	7866
2328.455	7836
2330.451	7902
2332.447	7750
2334.443	7894
2336.438	7883
2338.433	7747
2340.429	7773
2342.422	7763
2344.416	7786
2346.408	7810
2348.399	7867
2350.393	7865
2352.384	7823
2354.375	7793
2356.365	7708
2358.355	7857
2360.344	7771
2362.333	7729
2364.322	7827
2366.309	7853
2368.295	7796
2370.282	7790
2372.27	7805
2374.256	7772
2376.24	7808
2378.225	7740
2380.208	7658
2382.194	7714
2384.177	7677
2386.159	7631
2388.142	7671
2390.122	7752
2392.105	7794
2394.085	7519
2396.066	7704
2398.044	7702
2400.024	7702
2402.002	7503
2403.982	7637
2405.959	7531
2407.935	7578
2409.913	7650
2411.888	7660
2413.865	7722
2415.84	7620
2417.814	7733
2419.788	7592
2421.762	7663
2423.735	7592
2425.708	7556
2427.68	7586
2429.651	7765
2431.623	7690
2433.593	7690
2435.564	7689
2437.533	7598
2439.502	7640
2441.47	7580
2443.438	7670
2445.406	7697
2447.373	7562
2449.34	7527
2451.305	7665
2453.271	7583
2455.235	7528
2457.201	7504
2459.165	7560
2461.129	7522
2463.092	7611
2465.054	7491
2467.018	7595
2468.978	7675
2470.939	7478
2472.899	7515
2474.86	7498
2476.819	7558
2478.778	7546
2480.737	7584
2482.695	7524
2484.653	7626
2486.609	7522
2488.567	7578
2490.524	7712
2492.478	7475
2494.433	7459
2496.387	7546
2498.343	7551
2500.297	7360
2502.249	7322
2504.202	7389
2506.153	7614
2508.105	7386
2510.057	7457
2512.008	7496
2513.957	7456
2515.906	7595
2517.855	7448
2519.805	7454
2521.754	7550
2523.7	7434
2525.647	7381
2527.594	7324
2529.54	7428
2531.486	7525
2533.431	7494
2535.376	7520
2537.32	7432
2539.263	7458
2541.207	7457
2543.151	7519
2545.093	7388
2547.034	7508
2548.975	7468
2550.917	7298
2552.856	7533
2554.796	7343
2556.735	7417
2558.673	7368
2560.611	7393
2562.55	7442
2564.487	7351
2566.424	7391
2568.36	7324
2570.296	7463
2572.232	7299
2574.167	7448
2576.101	7406
2578.035	7419
2579.969	7346
2581.902	7396
2583.834	7489
2585.766	7497
2587.698	7488
2589.628	7377
2591.557	7334
2593.489	7405
2595.419	7386
2597.348	7396
2599.275	7479
2601.204	7312
2603.131	7491
2605.059	7259
2606.986	7334
2608.911	7446
2610.837	7278
2612.76	7504
2614.687	7402
2616.61	7408
2618.534	7364
2620.457	7399
2622.38	7391
2624.302	7487
2626.225	7418
2628.145	7324
2630.067	7371
2631.986	7464
2633.906	7362
2635.827	7358
2637.745	7534
2639.662	7278
2641.581	7411
2643.498	7348
2645.415	7403
2647.331	7480
2649.248	7381
2651.163	7303
2653.077	7578
2654.993	7380
2656.906	7566
2658.821	7425
2660.733	7297
2662.646	7341
2664.557	7434
2666.47	7390
2668.381	7430
2670.291	7316
2672.201	7233
2674.11	7412
2676.021	7209
2677.929	7346
2679.837	7213
2681.745	7270
2683.652	7340
2685.56	7436
2687.466	7280
2689.371	7425
2691.276	7370
2693.181	7355
2695.085	7375
2696.991	7178
2698.893	7378
2700.796	7385
2702.698	7232
2704.601	7216
2706.502	7249
2708.404	7111
2710.304	7194
2712.203	7299
2714.103	7153
2716.003	7245
2717.902	7171
2719.8	7156
2721.697	7252
2723.594	7152
2725.49	7201
2727.389	7199
2729.283	7136
2731.179	7191
2733.073	7253
2734.968	7172
2736.863	7194
2738.757	7193
2740.649	7234
2742.541	7219
2744.433	7116
2746.324	7115
2748.216	7190
2750.107	7187
2751.997	7208
2753.886	7146
2755.776	7001
2757.666	7144
2759.553	7147
2761.44	7088
2763.327	7118
2765.215	7091
2767.102	7212
2768.988	7097
2770.873	7090
2772.757	6992
2774.641	7103
2776.525	7097
2778.41	7074
2780.292	7101
2782.175	7132
2784.057	7145
2785.938	7012
2787.821	7177
2789.701	7255
2791.581	7059
2793.461	7053
2795.34	7008
2797.219	7202
2799.099	6980
2800.975	6993
2802.853	7118
2804.73	6941
2806.606	7093
2808.484	7067
2810.358	7091
2812.233	7020
2814.108	7067
2815.981	7048
2817.857	7075
2819.73	7032
2821.602	7127
2823.474	7067
2825.346	7016
2827.217	7022
2829.089	6939
2830.959	6936
2832.829	7080
2834.698	7068
2836.567	6954
2838.436	6995
2840.305	7034
2842.172	7004
2844.04	7023
2845.905	7040
2847.772	6956
2849.639	7191
2851.503	7117
2853.369	7112
2855.232	7146
2857.096	7044
2858.961	7172
2860.824	7254
2862.686	7109
2864.547	7087
2866.41	7180
2868.272	7171
2870.132	7222
2871.992	7279
2873.851	7354
2875.711	7308
2877.57	7403
2879.429	7357
2881.287	7444
2883.144	7260
2885.001	7451
2886.857	7585
2888.714	7476
2890.57	7525
2892.425	7467
2894.279	7483
2896.133	7407
2897.987	7444
2899.842	7376
2901.694	7375
2903.547	7563
2905.397	7374
2907.249	7469
2909.101	7330
2910.952	7439
2912.802	7489
2914.652	7576
2916.5	7425
2918.35	7630
2920.198	7586
2922.045	7587
2923.893	7707
2925.74	7714
2927.585	7672
2929.433	7899
2931.279	7779
2933.123	7869
2934.968	7827
2936.811	7950
2938.656	8133
2940.5	8013
2942.342	8207
2944.185	8086
2946.026	8051
2947.87	8050
2949.71	8058
2951.549	8016
2953.39	8073
2955.229	7841
2957.069	7895
2958.908	7871
2960.746	7734
2962.584	7590
2964.421	7554
2966.257	7604
2968.094	7611
2969.931	7677
2971.766	7538
2973.601	7428
2975.435	7439
2977.27	7490
2979.105	7387
2980.938	7395
2982.77	7474
2984.602	7297
2986.434	7318
2988.267	7348
2990.097	7287
2991.927	7132
2993.757	7142
2995.587	7168
2997.417	7150
2999.246	7101
3001.074	7076
3002.902	6955
3004.729	7033
3006.556	6915
3008.384	6849
3010.21	6889
3012.036	6838
3013.861	6812
3015.684	6805
3017.51	6703
3019.334	6637
3021.157	6677
3022.981	6669
3024.802	6735
3026.624	6656
3028.448	6564
3030.267	6588
3032.088	6550
3033.909	6678
3035.728	6505
3037.549	6529
3039.368	6529
3041.186	6472
3043.004	6646
3044.821	6669
3046.64	6476
3048.455	6566
3050.272	6555
3052.087	6592
3053.903	6502
3055.717	6565
3057.534	6539
3059.347	6444
3061.16	6458
3062.974	6438
3064.785	6526
3066.598	6362
3068.411	6409
3070.222	6405
3072.032	6476
3073.844	6511
3075.653	6433
3077.463	6448
3079.272	6406
3081.08	6438
3082.889	6430
3084.697	6177
3086.505	6284
3088.312	6356
3090.118	6379
3091.924	6332
3093.729	6347
3095.535	6289
3097.34	6326
3099.144	6288
3100.947	6346
3102.75	6232
3104.553	6294
3106.357	6340
3108.159	6262
3109.961	6307
3111.762	6182
3113.562	6266
3115.365	6257
3117.164	6297
3118.964	6252
3120.761	6229
3122.56	6345
3124.36	6139
3126.158	6040
3127.954	6147
3129.75	6168
3131.547	6157
3133.343	6070
3135.139	6152
3136.934	6157
3138.729	6219
3140.522	6185
3142.317	6214
3144.11	6126
3145.904	6051
3147.695	6093
3149.488	6116
3151.28	6187
3153.07	6125
3154.863	6066
3156.652	6050
3158.441	6089
3160.231	6054
3162.019	6034
3163.81	6062
3165.597	6022
3167.384	6066
3169.172	6139
3170.958	6027
3172.745	5998
3174.532	5949
3176.317	6115
3178.101	5943
3179.885	6049
3181.67	6010
3183.455	6076
3185.238	6042
3187.02	6031
3188.802	5992
3190.585	6110
3192.368	5973
3194.149	6015
3195.929	5975
3197.709	5938
3199.489	5990
3201.268	5926
3203.048	5996
3204.826	5986
3206.604	5962
3208.382	5993
3210.159	5971
3211.937	5947
3213.713	5939
3215.489	5887
3217.263	5887
3219.038	5927
3220.815	6030
3222.589	5987
3224.363	5886
3226.136	6002
3227.908	5930
3229.681	6008
3231.454	5824
3233.226	5894
3234.996	5888
3236.767	5911
3238.538	5813
3240.308	5834
3242.078	5921
3243.847	5902
3245.615	5838
3247.384	5927
3249.15	5931
3250.92	5913
3252.686	5912
3254.453	5902
3256.218	5979
3257.984	5802
3259.75	6040
3261.515	5806
3263.279	5842
3265.044	5938
3266.806	5914
3268.57	5829
3270.334	5901
3272.095	5961
3273.856	5891
3275.619	5938
3277.379	5833
3279.14	5859
3280.9	5874
3282.661	5841
3284.419	5850
3286.178	5895
3287.937	5846
3289.695	5734
3291.453	5787
3293.21	5759
3294.967	5863
3296.723	5874
3298.48	5859
3300.235	5874
3301.99	5798
3303.744	5818
3305.498	5907
3307.253	5863
3309.006	5842
3310.759	5843
3312.511	5791
3314.263	5892
3316.017	5730
3317.768	5814
3319.519	5884
3321.268	5823
3323.018	5860
3324.767	5908
3326.518	5808
3328.267	5808
3330.014	5825
3331.762	5799
3333.509	5898
3335.258	5805
3337.003	5736
3338.75	5873
3340.496	5805
3342.24	5776
3343.987	5850
3345.732	5752
3347.475	5665
3349.219	5761
3350.961	5657
3352.705	5727
3354.448	5780
3356.19	5684
3357.931	5712
3359.672	5671
3361.412	5721
3363.155	5619
3364.894	5811
3366.633	5727
3368.372	5652
3370.11	5731
3371.849	5647
3373.588	5637
3375.325	5676
3377.061	5640
3378.799	5698
3380.534	5655
3382.271	5692
3384.006	5729
3385.741	5597
3387.475	5552
3389.209	5593
3390.944	5641
3392.677	5519
3394.409	5560
3396.143	5521
3397.874	5542
3399.606	5643
3401.338	5644
3403.069	5562
3404.799	5571
3406.528	5596
3408.258	5519
3409.988	5613
3411.717	5559
3413.445	5539
3415.173	5616
3416.899	5506
3418.626	5508
3420.354	5587
3422.08	5519
3423.806	5445
3425.531	5670
3427.255	5517
3428.981	5526
3430.705	5577
3432.429	5479
3434.151	5434
3435.875	5530
3437.599	5448
3439.321	5373
3441.042	5575
3442.763	5408
3444.483	5392
3446.204	5469
3447.926	5438
3449.645	5391
3451.364	5384
3453.082	5363
3454.801	5429
3456.52	5416
3458.238	5425
3459.954	5451
3461.671	5304
3463.387	5353
3465.104	5344
3466.82	5375
3468.534	5333
3470.25	5335
3471.963	5316
3473.676	5271
3475.392	5323
3477.104	5221
3478.817	5185
3480.528	5332
3482.241	5499
3483.954	5340
3485.664	5317
3487.374	5327
3489.084	5332
3490.795	5263
3492.504	5229
3494.214	5223
3495.922	5172
3497.63	5201
3499.338	5283
3501.045	5203
3502.753	5320
3504.459	5116
3506.166	5212
3507.871	5259
3509.576	5187
3511.283	5138
3512.987	5160
3514.691	5138
3516.395	5148
3518.098	5185
3519.8	5066
3521.504	5084
3523.206	5119
3524.908	5176
3526.609	5071
3528.309	5007
3530.011	5094
3531.711	5079
3533.411	5130
3535.109	5220
3536.808	5109
3538.507	5165
3540.206	5155
3541.904	5045
3543.601	5069
3545.297	5090
3546.994	5021
3548.69	5022
3550.387	4973
3552.081	5094
3553.776	5053
3555.47	5026
3557.166	5058
3558.859	5131
3560.553	4964
3562.245	5060
3563.938	5023
3565.629	5032
3567.322	5023
3569.014	5094
3570.704	4967
3572.394	4961
3574.084	4980
3575.775	5007
3577.464	5011
3579.152	4962
3580.842	5024
3582.529	4988
3584.216	4897
3585.905	5001
3587.591	4932
3589.279	4870
3590.964	5006
3592.649	4768
3594.336	4946
3596.021	4826
3597.705	4851
3599.388	4874
3601.072	4742
3602.757	4976
3604.439	4819
3606.122	4821
3607.803	4915
3609.485	4826
3611.167	4804
3612.849	4822
3614.529	4877
3616.208	4814
3617.888	4819
3619.567	4871
3621.247	4731
3622.926	4774
3624.603	4672
3626.281	4716
3627.958	4767
3629.635	4748
3631.312	4748
3632.989	4758
3634.665	4724
3636.339	4710
3638.014	4716
3639.691	4749
3641.364	4672
3643.038	4632
3644.71	4661
3646.384	4792
3648.058	4728
3649.729	4798
3651.402	4645
3653.073	4643
3654.744	4657
3656.414	4676
3658.085	4640
3659.755	4686
3661.424	4734
3663.094	4631
3664.762	4694
3666.431	4604
3668.099	4632
3669.766	4575
3671.433	4689
3673.099	4539
3674.768	4664
3676.433	4674
3678.098	4652
3679.763	4672
3681.428	4616
3683.093	4687
3684.757	4545
3686.421	4671
3688.083	4524
3689.746	4668
3691.408	4591
3693.071	4594
3694.733	4506
3696.394	4565
3698.054	4619
3699.715	4612
3701.375	4636
3703.036	4561
3704.695	4504
3706.354	4491
3708.012	4509
3709.67	4528
3711.329	4530
3712.987	4519
3714.644	4557
3716.299	4576
3717.955	4489
3719.613	4429
3721.268	4472
3722.923	4457
3724.577	4480
3726.231	4515
3727.885	4461
3729.539	4511
3731.192	4431
3732.845	4537
3734.497	4479
3736.149	4466
3737.802	4482
3739.453	4391
3741.104	4602
3742.753	4509
3744.404	4477
3746.052	4449
3747.704	4475
3749.352	4480
3751	4445
3752.648	4411
3754.296	4496
3755.944	4469
3757.59	4469
3759.238	4394
3760.883	4457
3762.528	4444
3764.176	4434
3765.82	4367
3767.464	4490
3769.109	4373
3770.753	4442
3772.396	4346
3774.04	4381
3775.683	4368
3777.325	4452
3778.967	4385
3780.608	4397
3782.25	4341
3783.89	4370
3785.531	4342
3787.17	4256
3788.81	4377
3790.45	4321
3792.09	4301
3793.729	4396
3795.366	4316
3797.003	4349
3798.64	4342
3800.278	4410
3801.915	4389
3803.551	4281
3805.187	4246
3806.822	4256
3808.458	4354
3810.093	4286
3811.726	4261
3813.36	4245
3814.994	4261
3816.627	4204
3818.262	4295
3819.893	4327
3821.525	4232
3823.157	4272
3824.787	4168
3826.42	4248
3828.051	4296
3829.68	4196
3831.31	4183
3832.938	4305
3834.569	4201
3836.198	4177
3837.825	4205
3839.454	4244
3841.08	4207
3842.708	4188
3844.335	4244
3845.962	4329
3847.587	4186
3849.212	4220
3850.838	4159
3852.463	4168
3854.089	4243
3855.712	4141
3857.335	4201
3858.959	4148
3860.582	4145
3862.205	4147
3863.827	4157
3865.449	4096
3867.07	4108
3868.691	4120
3870.312	4046
3871.933	4153
3873.553	4113
3875.173	4150
3876.792	4149
3878.411	4139
3880.03	4044
3881.647	4128
3883.265	4095
3884.882	4053
3886.499	4053
3888.116	4030
3889.732	4130
3891.348	4068
3892.964	4123
3894.579	4064
3896.195	4090
3897.809	4080
3899.423	4041
3901.036	4036
3902.648	4163
3904.261	4092
3905.875	3980
3907.487	4104
3909.099	4065
3910.709	4058
3912.321	4016
3913.933	4036
3915.542	3973
3917.152	4019
3918.762	4041
3920.37	4095
3921.98	3940
3923.589	4023
3925.196	4099
3926.804	4014
3928.41	4130
3930.018	4015
3931.626	4045
3933.231	3940
3934.838	3999
3936.442	3981
3938.046	3943
3939.653	4022
3941.257	4030
3942.861	3986
3944.464	3946
3946.068	4052
3947.67	3913
3949.273	3894
3950.876	4003
3952.477	3959
3954.078	3863
3955.678	3956
3957.281	3944
3958.881	3966
3960.48	3975
3962.079	4044
3963.678	3878
3965.279	3969
3966.877	3990
3968.475	4026
3970.072	3951
3971.669	3945
3973.266	3886
3974.864	3885
3976.459	3884
3978.055	3924
3979.65	3948
3981.245	3842
3982.841	3819
3984.436	3850
3986.03	3835
3987.623	3866
3989.216	3850
3990.809	3826
3992.403	3840
3993.995	3795
3995.586	3876
3997.177	3897
3998.768	3861
4000.361	3805
4001.951	3813
4003.54	3775
4005.13	3774
4006.719	3782
4008.31	3837
4009.897	3732
4011.485	3764
4013.073	3764
4014.66	3747
4016.247	3773
4017.834	3706
4019.421	3699
4021.006	3699
4022.592	3731
4024.178	3700
4025.763	3684
4027.348	3692
4028.932	3769
4030.515	3754
4032.099	3692
4033.682	3714
4035.266	3699
4036.847	3710
4038.429	3650
4040.011	3672
4041.592	3672
4043.173	3657
4044.755	3624
4046.334	3705
4047.913	3747
4049.494	3699
4051.074	3735
4052.652	3612
4054.23	3594
4055.807	3629
4057.385	3615
4058.963	3634
4060.541	3646
4062.117	3652
4063.693	3576
4065.269	3640
4066.844	3693
4068.42	3639
4069.995	3644
4071.569	3666
4073.143	3668
4074.716	3502
4076.291	3529
4077.864	3621
4079.436	3600
4081.009	3568
4082.58	3600
4084.152	3604
4085.723	3594
4087.294	3566
4088.865	3591
4090.435	3571
4092.005	3586
4093.574	3578
4095.143	3574
4096.712	3534
4098.279	3492
4099.848	3543
4101.416	3560
4102.984	3587
4104.55	3535
4106.117	3569
4107.682	3550
4109.248	3552
4110.815	3521
4112.379	3595
4113.945	3551
4115.508	3512
4117.073	3493
4118.637	3509
4120.201	3459
4121.763	3509
4123.325	3535
4124.888	3491
4126.449	3530
4128.013	3483
4129.573	3488
4131.133	3487
4132.694	3442
4134.254	3478
4135.814	3455
4137.374	3372
4138.933	3446
4140.491	3491
4142.049	3477
4143.607	3483
4145.167	3426
4146.724	3534
4148.28	3444
4149.836	3464
4151.392	3497
4152.949	3360
4154.504	3461
4156.059	3361
4157.614	3425
4159.168	3377
4160.723	3470
4162.277	3384
4163.83	3395
4165.383	3438
4166.936	3403
4168.488	3279
4170.041	3328
4171.593	3364
4173.144	3355
4174.695	3351
4176.246	3341
4177.796	3329
4179.346	3270
4180.896	3265
4182.445	3308
4183.994	3328
4185.542	3203
4187.091	3221
4188.639	3333
4190.185	3299
4191.732	3299
4193.279	3256
4194.826	3276
4196.373	3304
4197.918	3331
4199.463	3274
4201.008	3374
4202.553	3257
4204.098	3313
4205.641	3292
4207.185	3287
4208.728	3269
4210.271	3299
4211.814	3330
4213.357	3293
4214.898	3271
4216.439	3301
4217.98	3274
4219.522	3306
4221.062	3271
4222.603	3245
4224.142	3225
4225.681	3216
4227.222	3262
4228.76	3186
4230.298	3300
4231.835	3192
4233.373	3216
4234.911	3226
4236.449	3186
4237.985	3184
4239.521	3234
4241.057	3214
4242.592	3224
4244.128	3163
4245.663	3233
4247.197	3184
4248.731	3110
4250.265	3163
4251.798	3222
4253.333	3034
4254.865	3121
4256.397	3161
4257.93	3190
4259.461	3147
4260.994	3224
4262.525	3188
4264.056	3145
4265.586	3140
4267.115	3149
4268.646	3120
4270.176	3151
4271.705	3109
4273.232	3216
4274.761	3137
4276.289	3152
4277.818	3182
4279.345	3137
4280.872	3152
4282.399	3109
4283.924	3094
4285.452	3090
4286.976	3030
4288.502	3079
4290.026	3129
4291.551	3065
4293.074	3003
4294.6	3159
4296.123	3146
4297.646	3060
4299.168	3060
4300.691	3142
4302.214	3053
4303.736	3166
4305.257	3033
4306.778	3070
4308.299	3028
4309.82	3079
4311.34	3127
4312.86	3025
4314.379	3071
