400.0745	4175
402.597	4253
405.1208	4185
407.6419	4157
410.1623	4315
412.6819	4182
415.201	4271
417.7172	4397
420.2369	4310
422.7538	4380
425.2701	4441
427.7856	4488
430.3005	4449
432.8147	4432
435.3282	4516
437.841	4412
440.3511	4467
442.8625	4502
445.3753	4446
447.8854	4543
450.3927	4505
452.9014	4560
455.4073	4478
457.9146	4445
460.4233	4495
462.9272	4442
465.4325	4545
467.935	4499
470.4389	4451
472.9421	4568
475.4446	4526
477.9444	4466
480.4456	4537
482.944	4576
485.4417	4514
487.9429	4521
490.4393	4612
492.935	4642
495.4321	4511
497.9264	4689
500.4221	4514
502.9171	4600
505.4094	4617
507.9011	4645
510.392	4667
512.8864	4678
515.3759	4664
517.8649	4701
520.3531	4666
522.8406	4740
525.3275	4742
527.8178	4629
530.3033	4601
532.7881	4718
535.2723	4737
537.7558	4743
540.2407	4721
542.7228	4647
545.2043	4764
547.6851	4590
550.1652	4697
552.6467	4654
555.1255	4748
557.6016	4675
560.079	4659
562.5557	4828
565.0318	4767
567.5092	4799
569.984	4729
572.456	4726
574.9294	4837
577.4022	4959
579.8762	4874
582.3456	4990
584.8163	4890
587.2863	4944
589.7557	4979
592.2224	4888
594.6924	4976
597.1578	4855
599.6245	4891
602.0905	4855
604.5538	4851
607.0206	4823
609.4825	4866
611.9459	4835
614.4066	4906
616.8686	4867
619.33	4761
621.7906	4847
624.2487	4860
626.708	4859
629.1647	4880
631.6207	4860
634.0801	4899
636.5348	4897
638.9888	4850
641.4442	4836
643.8969	4904
646.3509	4868
648.8022	4996
651.255	4955
653.705	4956
656.1544	4999
658.6031	4899
661.0532	4916
663.5026	4857
665.9493	4971
668.3954	4976
670.8409	5028
673.2877	4915
675.7318	4969
678.1752	4995
680.618	5002
683.0601	5028
685.5035	5104
687.9444	4946
690.3845	5055
692.824	5007
695.2628	5074
697.701	5044
700.1406	5078
702.5774	5085
705.0116	5094
707.4472	5070
709.8821	5059
712.3183	5167
714.7519	5064
717.1829	5183
719.6151	5199
722.0468	5156
724.4777	5251
726.908	5175
729.3377	5161
731.7667	5166
734.1931	5300
736.6208	5233
739.0498	5292
741.4742	5207
743.9	5294
746.3231	5275
748.7476	5293
751.1713	5251
753.5945	5299
756.015	5423
758.4368	5332
760.856	5379
763.2766	5342
765.6965	5364
768.1157	5332
770.5323	5342
772.9483	5406
775.3656	5338
777.7822	5273
780.1963	5314
782.6116	5490
785.0244	5416
787.4365	5459
789.8499	5456
792.2626	5397
794.6728	5452
797.0823	5445
799.4911	5391
801.8994	5305
804.3109	5365
806.7178	5483
809.124	5393
811.5297	5518
813.9347	5510
816.341	5490
818.7447	5494
821.1478	5471
823.5502	5510
825.952	5552
828.3531	5469
830.7556	5525
833.1554	5400
835.5546	5570
837.9532	5532
840.3511	5462
842.7504	5507
845.1451	5503
847.5411	5489
849.9365	5520
852.3312	5630
854.7272	5514
857.1187	5591
859.5115	5548
861.9037	5517
864.2952	5497
866.6842	5566
869.0764	5587
871.4661	5637
873.8531	5481
876.2415	5600
878.6272	5614
881.0162	5535
883.4026	5612
885.7866	5637
888.1717	5500
890.5543	5501
892.9382	5502
895.3215	5564
897.7041	5495
900.0842	5422
902.4655	5588
904.8443	5605
907.2244	5651
909.6039	5563
911.9808	5643
914.357	5640
916.7346	5674
919.1115	5689
921.4859	5674
923.8616	5755
926.2347	5754
928.6071	5823
930.979	5703
933.3541	5841
935.7247	5826
938.0946	5808
940.4639	5916
942.8326	6016
945.2026	6069
947.5701	6162
949.9369	6225
952.305	6483
954.6705	6645
957.0355	6956
959.4017	7203
961.7654	7195
964.1284	7132
966.4908	6843
968.8527	6670
971.2138	6369
973.5743	6187
975.9343	6020
978.2936	5885
980.6522	5879
983.0122	5798
985.3696	5696
987.7245	5763
990.0807	5685
992.4362	5774
994.7911	5710
997.1474	5814
999.4991	5708
1001.852	5812
1004.205	5975
1006.555	5735
1008.908	5816
1011.258	5717
1013.606	5787
1015.956	5851
1018.302	5823
1020.652	5809
1022.998	5759
1025.345	5743
1027.691	5867
1030.035	5751
1032.378	5885
1034.724	5941
1037.066	5808
1039.409	5919
1041.75	5921
1044.092	5866
1046.433	5877
1048.771	5881
1051.112	5923
1053.449	5858
1055.786	5914
1058.124	5989
1060.462	5903
1062.797	6008
1065.131	6120
1067.467	5962
1069.8	6020
1072.135	6057
1074.467	6077
1076.798	5970
1079.129	6018
1081.459	5832
1083.792	5929
1086.121	5979
1088.449	5913
1090.777	5853
1093.104	5882
1095.431	5923
1097.759	5939
1100.084	5854
1102.408	5997
1104.732	5964
1107.056	5953
1109.379	5891
1111.701	5919
1114.022	5964
1116.343	5952
1118.664	5878
1120.983	5890
1123.303	5923
1125.621	5938
1127.939	5978
1130.256	5938
1132.573	5908
1134.889	5933
1137.205	5935
1139.52	5839
1141.832	5935
1144.146	5890
1146.461	5889
1148.771	5918
1151.083	6034
1153.392	5963
1155.703	6007
1158.011	5915
1160.323	6097
1162.629	5953
1164.938	5881
1167.243	5939
1169.55	5890
1171.857	5902
1174.163	5902
1176.466	5876
1178.769	5905
1181.073	5952
1183.374	5935
1185.677	5861
1187.979	5976
1190.279	5892
1192.578	6001
1194.878	5963
1197.178	5828
1199.476	5999
1201.772	5902
1204.068	5931
1206.366	5946
1208.663	6006
1210.957	5994
1213.251	5907
1215.544	5922
1217.836	5950
1220.128	5862
1222.421	5856
1224.712	6069
1227.002	6098
1229.292	6074
1231.581	5956
1233.871	6020
1236.159	6013
1238.446	6089
1240.732	5989
1243.018	6154
1245.304	6172
1247.59	6118
1249.874	6080
1252.156	6093
1254.439	6165
1256.721	6035
1259.005	5947
1261.286	6123
1263.565	6060
1265.845	6214
1268.125	6103
1270.403	6203
1272.682	6109
1274.959	6137
1277.234	6152
1279.511	6134
1281.787	6060
1284.062	6156
1286.337	6255
1288.609	6073
1290.882	6100
1293.153	6040
1295.428	6016
1297.698	6043
1299.969	6006
1302.237	6089
1304.507	5961
1306.777	6000
1309.044	6018
1311.312	5907
1313.578	6074
1315.844	5967
1318.109	5925
1320.375	6097
1322.638	6052
1324.903	5957
1327.165	6179
1329.427	6011
1331.69	6011
1333.952	6050
1336.212	6063
1338.471	6200
1340.73	6133
1342.988	6097
1345.248	5982
1347.505	6048
1349.763	6038
1352.019	6116
1354.274	6127
1356.53	6108
1358.784	6091
1361.038	6111
1363.291	6079
1365.543	6026
1367.797	6068
1370.048	6012
1372.296	6061
1374.546	6083
1376.796	6045
1379.045	6151
1381.295	6141
1383.542	6159
1385.787	6098
1388.034	6126
1390.28	6122
1392.527	6089
1394.772	6131
1397.014	6100
1399.258	6249
1401.501	6175
1403.741	6159
1405.985	5980
1408.226	6247
1410.465	6152
1412.705	6267
1414.943	6110
1417.184	6130
1419.42	6121
1421.658	6150
1423.894	6279
1426.13	6240
1428.366	6161
1430.602	6275
1432.835	6225
1435.069	6330
1437.301	6245
1439.535	6328
1441.767	6234
1443.997	6278
1446.229	6399
1448.458	6266
1450.687	6196
1452.916	6249
1455.146	6358
1457.372	6329
1459.599	6260
1461.824	6366
1464.051	6295
1466.277	6384
1468.501	6297
1470.725	6238
1472.948	6269
1475.17	6164
1477.393	6178
1479.614	6161
1481.837	6173
1484.057	6121
1486.276	6217
1488.497	6179
1490.715	6054
1492.932	6148
1495.148	6039
1497.364	6007
1499.58	6159
1501.798	6204
1504.012	6144
1506.227	5994
1508.44	6040
1510.653	6031
1512.866	6102
1515.078	6041
1517.289	6129
1519.5	6038
1521.711	6056
1523.92	6102
1526.13	6076
1528.338	6050
1530.544	6090
1532.752	5947
1534.959	6032
1537.165	6062
1539.371	6145
1541.574	6140
1543.779	6021
1545.983	6092
1548.187	6078
1550.39	6187
1552.59	6098
1554.792	6079
1556.991	6147
1559.19	6186
1561.392	6277
1563.59	6200
1565.789	6135
1567.986	6251
1570.182	6277
1572.381	6141
1574.576	6102
1576.771	6176
1578.966	6214
1581.16	6331
1583.354	6257
1585.546	6323
1587.74	6297
1589.931	6298
1592.121	6345
1594.311	6190
1596.502	6320
1598.693	6246
1600.881	6298
1603.069	6319
1605.256	6217
1607.445	6224
1609.631	6326
1611.816	6291
1614.001	6214
1616.186	6217
1618.37	6332
1620.555	6244
1622.737	6313
1624.919	6356
1627.101	6294
1629.282	6221
1631.463	6404
1633.643	6274
1635.822	6259
1638.001	6389
1640.179	6364
1642.359	6336
1644.534	6418
1646.711	6436
1648.887	6248
1651.062	6397
1653.235	6440
1655.412	6324
1657.586	6353
1659.757	6491
1661.93	6389
1664.1	6361
1666.274	6406
1668.445	6492
1670.614	6435
1672.784	6323
1674.951	6323
1677.12	6373
1679.289	6307
1681.457	6310
1683.622	6357
1685.789	6399
1687.953	6372
1690.121	6494
1692.284	6489
1694.447	6099
1696.611	6373
1698.772	6355
1700.935	6249
1703.098	6260
1705.258	6244
1707.417	6341
1709.576	6290
1711.736	6127
1713.896	6167
1716.053	6242
1718.21	6277
1720.366	6235
1722.522	6208
1724.68	6333
1726.835	6210
1728.989	6171
1731.142	6234
1733.295	6254
1735.449	6193
1737.601	6184
1739.753	6313
1741.903	6170
1744.054	6430
1746.203	6198
1748.354	6124
1750.503	6243
1752.651	6207
1754.798	6130
1756.944	6293
1759.092	6265
1761.238	6225
1763.383	6242
1765.528	6344
1767.672	6203
1769.814	6315
1771.959	6319
1774.102	6347
1776.242	6322
1778.384	6279
1780.525	6247
1782.665	6306
1784.805	6255
1786.945	6250
1789.082	6372
1791.22	6268
1793.36	6430
1795.495	6432
1797.632	6337
1799.766	6353
1801.902	6447
1804.035	6235
1806.172	6334
1808.304	6251
1810.436	6316
1812.569	6448
1814.699	6264
1816.833	6306
1818.963	6307
1821.092	6346
1823.222	6287
1825.35	6225
1827.478	6329
1829.608	6289
1831.734	6295
1833.86	6274
1835.986	6279
1838.11	6296
1840.238	6249
1842.362	6191
1844.485	6262
1846.608	6289
1848.73	6200
1850.853	6181
1852.974	6163
1855.097	6348
1857.217	6291
1859.336	6273
1861.455	6215
1863.576	6181
1865.693	6239
1867.811	6206
1869.926	6268
1872.042	6188
1874.16	6320
1876.275	6318
1878.39	6337
1880.504	6298
1882.618	6300
1884.731	6276
1886.843	6320
1888.956	6269
1891.067	6255
1893.178	6195
1895.287	6215
1897.399	6170
1899.508	6242
1901.617	6420
1903.724	6263
1905.832	6337
1907.941	6349
1910.046	6300
1912.152	6284
1914.256	6326
1916.361	6345
1918.464	6287
1920.57	6372
1922.672	6258
1924.775	6223
1926.876	6303
1928.978	6368
1931.08	6402
1933.181	6410
1935.28	6274
1937.38	6419
1939.478	6362
1941.577	6345
1943.675	6408
1945.771	6327
1947.867	6236
1949.964	6362
1952.058	6374
1954.154	6282
1956.248	6306
1958.343	6371
1960.435	6385
1962.527	6311
1964.62	6270
1966.711	6328
1968.802	6289
1970.892	6217
1972.983	6353
1975.072	6327
1977.162	6336
1979.25	6275
1981.337	6235
1983.424	6299
1985.51	6302
1987.598	6253
1989.683	6273
1991.768	6389
1993.852	6277
1995.934	6318
1998.019	6354
2000.102	6339
2002.184	6295
2004.266	6345
2006.347	6366
2008.427	6275
2010.508	6319
2012.587	6301
2014.666	6223
2016.745	6193
2018.821	6218
2020.9	6280
2022.977	6236
2025.052	6175
2027.128	6266
2029.204	6183
2031.277	6262
2033.353	6268
2035.425	6305
2037.499	6328
2039.57	6318
2041.642	6181
2043.714	6282
2045.786	6250
2047.855	6280
2049.925	6229
2051.993	6216
2054.064	6310
2056.132	6271
2058.2	6259
2060.266	6234
2062.332	6319
2064.398	6237
2066.465	6281
2068.529	6343
2070.592	6225
2072.657	6268
2074.719	6267
2076.783	6305
2078.845	6276
2080.907	6307
2082.968	6271
2085.028	6326
2087.087	6280
2089.148	6293
2091.207	6258
2093.264	6244
2095.322	6202
2097.379	6246
2099.439	6281
2101.495	6316
2103.55	6219
2105.605	6284
2107.658	6169
2109.713	6238
2111.767	6336
2113.82	6340
2115.872	6328
2117.924	6333
2119.975	6314
2122.028	6189
2124.078	6168
2126.126	6186
2128.176	6151
2130.225	6245
2132.275	6216
2134.321	6440
2136.368	6292
2138.415	6212
2140.461	6234
2142.505	6088
2144.552	6202
2146.597	6239
2148.64	6212
2150.684	6179
2152.725	6163
2154.77	6262
2156.811	6199
2158.852	6167
2160.894	6219
2162.933	6046
2164.973	6202
2167.013	6182
2169.051	6193
2171.089	6142
2173.126	6147
2175.164	6130
2177.201	6083
2179.236	6189
2181.273	6202
2183.307	6161
2185.341	6135
2187.377	6095
2189.41	6097
2191.442	6017
2193.473	6129
2195.506	6132
2197.539	6093
2199.569	6093
2201.598	6035
2203.628	6031
2205.656	6169
2207.686	6130
2209.716	6122
2211.743	6180
2213.769	6082
2215.796	5971
2217.821	5964
2219.848	6135
2221.873	6096
2223.897	6126
2225.921	6139
2227.944	6080
2229.967	6106
2231.991	6071
2234.011	5993
2236.032	6129
2238.053	6080
2240.073	6023
2242.094	6078
2244.114	6082
2246.131	6081
2248.149	6060
2250.167	6015
2252.186	6065
2254.201	6000
2256.218	6021
2258.233	6074
2260.247	6065
2262.262	6099
2264.278	6119
2266.29	6086
2268.303	5974
2270.315	6129
2272.327	6091
2274.341	6130
2276.35	6084
2278.361	6028
2280.37	5931
2282.38	6096
2284.388	6038
2286.397	5883
2288.405	6093
2290.412	6169
2292.419	6096
2294.425	6016
2296.431	6050
2298.437	6009
2300.441	6044
2302.445	6075
2304.449	6141
2306.453	6090
2308.455	6044
2310.457	5984
2312.459	6058
2314.46	5975
2316.46	6012
2318.461	5981
2320.46	6043
2322.458	6040
2324.458	5984
2326.456	5975
2328.455	6011
2330.451	6023
2332.447	5951
2334.443	5981
2336.438	6005
2338.433	5910
2340.429	5918
2342.422	6041
2344.416	5934
2346.408	6043
2348.399	6015
2350.393	6023
2352.384	5910
2354.375	5946
2356.365	5866
2358.355	5955
2360.344	5816
2362.333	5924
2364.322	5978
2366.309	5914
2368.295	5885
2370.282	5937
2372.27	5893
2374.256	5827
2376.24	5883
2378.225	5740
2380.208	5836
2382.194	5884
2384.177	5849
2386.159	5813
2388.142	5824
2390.122	5725
2392.105	5911
2394.085	5833
2396.066	5861
2398.044	5899
2400.024	5909
2402.002	5929
2403.982	5825
2405.959	5779
2407.935	5800
2409.913	5875
2411.888	5845
2413.865	5730
2415.84	5751
2417.814	5790
2419.788	5973
2421.762	5746
2423.735	5680
2425.708	5994
2427.68	5888
2429.651	5711
2431.623	5756
2433.593	5769
2435.564	5879
2437.533	5837
2439.502	5776
2441.47	5721
2443.438	5827
2445.406	5813
2447.373	5869
2449.34	5847
2451.305	5826
2453.271	5824
2455.235	5875
2457.201	5738
2459.165	5710
2461.129	5939
2463.092	5759
2465.054	5800
2467.018	5725
2468.978	5870
2470.939	5680
2472.899	5788
2474.86	5779
2476.819	5879
2478.778	5796
2480.737	5790
2482.695	5642
2484.653	5663
2486.609	5682
2488.567	5886
2490.524	5771
2492.478	5714
2494.433	5740
2496.387	5689
2498.343	5730
2500.297	5783
2502.249	5680
2504.202	5658
2506.153	5686
2508.105	5679
2510.057	5636
2512.008	5729
2513.957	5733
2515.906	5687
2517.855	5737
2519.805	5702
2521.754	5782
2523.7	5650
2525.647	5614
2527.594	5643
2529.54	5685
2531.486	5705
2533.431	5728
2535.376	5687
2537.32	5658
2539.263	5581
2541.207	5743
2543.151	5694
2545.093	5735
2547.034	5628
2548.975	5692
2550.917	5693
2552.856	5632
2554.796	5717
2556.735	5632
2558.673	5657
2560.611	5611
2562.55	5625
2564.487	5700
2566.424	5718
2568.36	5631
2570.296	5670
2572.232	5618
2574.167	5675
2576.101	5666
2578.035	5753
2579.969	5606
2581.902	5744
2583.834	5527
2585.766	5739
2587.698	5593
2589.628	5684
2591.557	5756
2593.489	5683
2595.419	5617
2597.348	5681
2599.275	5708
2601.204	5591
2603.131	5589
2605.059	5749
2606.986	5735
2608.911	5668
2610.837	5733
2612.76	5764
2614.687	5709
2616.61	5748
2618.534	5621
2620.457	5650
2622.38	5618
2624.302	5675
2626.225	5660
2628.145	5669
2630.067	5682
2631.986	5665
2633.906	5647
2635.827	5609
2637.745	5749
2639.662	5651
2641.581	5782
2643.498	5671
2645.415	5659
2647.331	5644
2649.248	5536
2651.163	5620
2653.077	5618
2654.993	5568
2656.906	5580
2658.821	5665
2660.733	5754
2662.646	5676
2664.557	5656
2666.47	5719
2668.381	5678
2670.291	5651
2672.201	5506
2674.11	5637
2676.021	5648
2677.929	5523
2679.837	5516
2681.745	5575
2683.652	5501
2685.56	5548
2687.466	5566
2689.371	5515
2691.276	5720
2693.181	5579
2695.085	5582
2696.991	5627
2698.893	5675
2700.796	5489
2702.698	5522
2704.601	5609
2706.502	5650
2708.404	5566
2710.304	5460
2712.203	5553
2714.103	5545
2716.003	5536
2717.902	5487
2719.8	5559
2721.697	5457
2723.594	5526
2725.49	5604
2727.389	5555
2729.283	5557
2731.179	5490
2733.073	5535
2734.968	5567
2736.863	5447
2738.757	5505
2740.649	5633
2742.541	5407
2744.433	5541
2746.324	5514
2748.216	5406
2750.107	5597
2751.997	5489
2753.886	5575
2755.776	5548
2757.666	5533
2759.553	5430
2761.44	5529
2763.327	5486
2765.215	5436
2767.102	5482
2768.988	5387
2770.873	5458
2772.757	5468
2774.641	5469
2776.525	5398
2778.41	5365
2780.292	5493
2782.175	5520
2784.057	5444
2785.938	5468
2787.821	5411
2789.701	5431
2791.581	5459
2793.461	5473
2795.34	5449
2797.219	5471
2799.099	5361
2800.975	5452
2802.853	5367
2804.73	5412
2806.606	5385
2808.484	5539
2810.358	5378
2812.233	5353
2814.108	5401
2815.981	5455
2817.857	5455
2819.73	5455
2821.602	5459
2823.474	5277
2825.346	5336
2827.217	5443
2829.089	5414
2830.959	5416
2832.829	5412
2834.698	5307
2836.567	5402
2838.436	5256
2840.305	5397
2842.172	5408
2844.04	5322
2845.905	5405
2847.772	5381
2849.639	5414
2851.503	5353
2853.369	5487
2855.232	5430
2857.096	5339
2858.961	5418
2860.824	5435
2862.686	5490
2864.547	5483
2866.41	5380
2868.272	5547
2870.132	5399
2871.992	5546
2873.851	5505
2875.711	5537
2877.57	5542
2879.429	5536
2881.287	5648
2883.144	5655
2885.001	5680
2886.857	5643
2888.714	5641
2890.57	5729
2892.425	5671
2894.279	5537
2896.133	5688
2897.987	5494
2899.842	5608
2901.694	5546
2903.547	5550
2905.397	5499
2907.249	5703
2909.101	5608
2910.952	5587
2912.802	5640
2914.652	5628
2916.5	5659
2918.35	5789
2920.198	5585
2922.045	5649
2923.893	5754
2925.74	5909
2927.585	5729
2929.433	5819
2931.279	5835
2933.123	5813
2934.968	5911
2936.811	5938
2938.656	5998
2940.5	5984
2942.342	6049
2944.185	5945
2946.026	6031
2947.87	5966
2949.71	6042
2951.549	5997
2953.39	5944
2955.229	5980
2957.069	5805
2958.908	5928
2960.746	5739
2962.584	5818
2964.421	5781
2966.257	5762
2968.094	5849
2969.931	5709
2971.766	5804
2973.601	5683
2975.435	5626
2977.27	5684
2979.105	5605
2980.938	5630
2982.77	5550
2984.602	5694
2986.434	5558
2988.267	5585
2990.097	5536
2991.927	5409
2993.757	5365
2995.587	5468
2997.417	5426
2999.246	5520
3001.074	5320
3002.902	5282
3004.729	5270
3006.556	5251
3008.384	5375
3010.21	5214
3012.036	5190
3013.861	5142
3015.684	5179
3017.51	5115
3019.334	5232
3021.157	5222
3022.981	5191
3024.802	5034
3026.624	5154
3028.448	5205
3030.267	5184
3032.088	5042
3033.909	5062
3035.728	5119
3037.549	5089
3039.368	5083
3041.186	5059
3043.004	5082
3044.821	5055
3046.64	5133
3048.455	4950
3050.272	5059
3052.087	5106
3053.903	4997
3055.717	5041
3057.534	5059
3059.347	5008
3061.16	5070
3062.974	4971
3064.785	5071
3066.598	5001
3068.411	4987
3070.222	4923
3072.032	4998
3073.844	4901
3075.653	4951
3077.463	5059
3079.272	5005
3081.08	5022
3082.889	5031
3084.697	4964
3086.505	4894
3088.312	4940
3090.118	4974
3091.924	4934
3093.729	4940
3095.535	4905
3097.34	4923
3099.144	4816
3100.947	4924
3102.75	4959
3104.553	4838
3106.357	4942
3108.159	4868
3109.961	4873
3111.762	4835
3113.562	4854
3115.365	5011
3117.164	4823
3118.964	4873
3120.761	4836
3122.56	4824
3124.36	4807
3126.158	4841
3127.954	4792
3129.75	4735
3131.547	4895
3133.343	4757
3135.139	4750
3136.934	4942
3138.729	4779
3140.522	4741
3142.317	4796
3144.11	4727
3145.904	4786
3147.695	4682
3149.488	4703
3151.28	4735
3153.07	4810
3154.863	4742
3156.652	4710
3158.441	4761
3160.231	4698
3162.019	4760
3163.81	4724
3165.597	4777
3167.384	4751
3169.172	4853
3170.958	4809
3172.745	4751
3174.532	4734
3176.317	4712
3178.101	4759
3179.885	4711
3181.67	4760
3183.455	4748
3185.238	4723
3187.02	4762
3188.802	4648
3190.585	4620
3192.368	4692
3194.149	4729
3195.929	4634
3197.709	4730
3199.489	4583
3201.268	4730
3203.048	4694
3204.826	4609
3206.604	4589
3208.382	4742
3210.159	4646
3211.937	4563
3213.713	4622
3215.489	4576
3217.263	4735
3219.038	4697
3220.815	4618
3222.589	4518
3224.363	4698
3226.136	4613
3227.908	4576
3229.681	4588
3231.454	4551
3233.226	4571
3234.996	4689
3236.767	4654
3238.538	4553
3240.308	4591
3242.078	4565
3243.847	4591
3245.615	4682
3247.384	4514
3249.15	4634
3250.92	4616
3252.686	4595
3254.453	4686
3256.218	4624
3257.984	4539
3259.75	4765
3261.515	4644
3263.279	4550
3265.044	4610
3266.806	4583
3268.57	4644
3270.334	4573
3272.095	4626
3273.856	4598
3275.619	4536
3277.379	4572
3279.14	4549
3280.9	4575
3282.661	4572
3284.419	4551
3286.178	4564
3287.937	4606
3289.695	4620
3291.453	4651
3293.21	4569
3294.967	4681
3296.723	4625
3298.48	4591
3300.235	4675
3301.99	4612
3303.744	4591
3305.498	4635
3307.253	4549
3309.006	4531
3310.759	4641
3312.511	4576
3314.263	4541
3316.017	4703
3317.768	4554
3319.519	4488
3321.268	4589
3323.018	4635
3324.767	4547
3326.518	4483
3328.267	4530
3330.014	4632
3331.762	4519
3333.509	4583
3335.258	4497
3337.003	4489
3338.75	4458
3340.496	4602
3342.24	4645
3343.987	4618
3345.732	4492
3347.475	4535
3349.219	4540
3350.961	4557
3352.705	4476
3354.448	4511
3356.19	4555
3357.931	4511
3359.672	4388
3361.412	4516
3363.155	4395
3364.894	4542
3366.633	4445
3368.372	4434
3370.11	4465
3371.849	4466
3373.588	4391
3375.325	4362
3377.061	4381
3378.799	4429
3380.534	4422
3382.271	4423
3384.006	4481
3385.741	4412
3387.475	4458
3389.209	4403
3390.944	4511
3392.677	4376
3394.409	4327
3396.143	4344
3397.874	4388
3399.606	4424
3401.338	4367
3403.069	4401
3404.799	4374
3406.528	4407
3408.258	4351
3409.988	4363
3411.717	4347
3413.445	4359
3415.173	4381
3416.899	4316
3418.626	4291
3420.354	4342
3422.08	4300
3423.806	4352
3425.531	4326
3427.255	4385
3428.981	4399
3430.705	4300
3432.429	4414
3434.151	4336
3435.875	4248
3437.599	4437
3439.321	4312
3441.042	4304
3442.763	4247
3444.483	4322
3446.204	4245
3447.926	4305
3449.645	4300
3451.364	4253
3453.082	4299
3454.801	4282
3456.52	4227
3458.238	4240
3459.954	4339
3461.671	4214
3463.387	4322
3465.104	4188
3466.82	4175
3468.534	4325
3470.25	4319
3471.963	4183
3473.676	4184
3475.392	4212
3477.104	4165
3478.817	4248
3480.528	4151
3482.241	4245
3483.954	4237
3485.664	4249
3487.374	4182
3489.084	4146
3490.795	4140
3492.504	4189
3494.214	4082
3495.922	4105
3497.63	4202
3499.338	4125
3501.045	4076
3502.753	4082
3504.459	4113
3506.166	4086
3507.871	4080
3509.576	4033
3511.283	4080
3512.987	4044
3514.691	4131
3516.395	4122
3518.098	4059
3519.8	3999
3521.504	4154
3523.206	4118
3524.908	4031
3526.609	4030
3528.309	3978
3530.011	4084
3531.711	4049
3533.411	4028
3535.109	3923
3536.808	4011
3538.507	4029
3540.206	4035
3541.904	4029
3543.601	4018
3545.297	4031
3546.994	4076
3548.69	3944
3550.387	3956
3552.081	4035
3553.776	4014
3555.47	4008
3557.166	4040
3558.859	3964
3560.553	3886
3562.245	3993
3563.938	4012
3565.629	4029
3567.322	3935
3569.014	4064
3570.704	3934
3572.394	4017
3574.084	4023
3575.775	3906
3577.464	3962
3579.152	3919
3580.842	3926
3582.529	3954
3584.216	3823
3585.905	3995
3587.591	3949
3589.279	3966
3590.964	3969
3592.649	3909
3594.336	3911
3596.021	3840
3597.705	3881
3599.388	3976
3601.072	3893
3602.757	3863
3604.439	3802
3606.122	3841
3607.803	3831
3609.485	3832
3611.167	3819
3612.849	3867
3614.529	3884
3616.208	3734
3617.888	3939
3619.567	3826
3621.247	3857
3622.926	3758
3624.603	3721
3626.281	3805
3627.958	3801
3629.635	3738
3631.312	3763
3632.989	3753
3634.665	3765
3636.339	3777
3638.014	3759
3639.691	3703
3641.364	3707
3643.038	3766
3644.71	3766
3646.384	3746
3648.058	3682
3649.729	3715
3651.402	3671
3653.073	3708
3654.744	3739
3656.414	3760
3658.085	3720
3659.755	3721
3661.424	3687
3663.094	3725
3664.762	3736
3666.431	3764
3668.099	3671
3669.766	3694
3671.433	3650
3673.099	3689
3674.768	3763
3676.433	3776
3678.098	3686
3679.763	3728
3681.428	3647
3683.093	3637
3684.757	3683
3686.421	3672
3688.083	3678
3689.746	3656
3691.408	3666
3693.071	3617
3694.733	3734
3696.394	3643
3698.054	3637
3699.715	3668
3701.375	3741
3703.036	3679
3704.695	3621
3706.354	3667
3708.012	3634
3709.67	3629
3711.329	3557
3712.987	3624
3714.644	3637
3716.299	3653
3717.955	3649
3719.613	3659
3721.268	3637
3722.923	3641
3724.577	3578
3726.231	3556
3727.885	3659
3729.539	3615
3731.192	3620
3732.845	3572
3734.497	3547
3736.149	3514
3737.802	3618
3739.453	3628
3741.104	3513
3742.753	3537
3744.404	3586
3746.052	3651
3747.704	3560
3749.352	3563
3751	3569
3752.648	3634
3754.296	3622
3755.944	3558
3757.59	3508
3759.238	3508
3760.883	3473
3762.528	3527
3764.176	3503
3765.82	3445
3767.464	3536
3769.109	3516
3770.753	3538
3772.396	3511
3774.04	3461
3775.683	3375
3777.325	3538
3778.967	3551
3780.608	3482
3782.25	3501
3783.89	3429
3785.531	3525
3787.17	3534
3788.81	3457
3790.45	3465
3792.09	3398
3793.729	3380
3795.366	3545
3797.003	3454
3798.64	3525
3800.278	3431
3801.915	3338
3803.551	3458
3805.187	3441
3806.822	3487
3808.458	3386
3810.093	3425
3811.726	3440
3813.36	3469
3814.994	3381
3816.627	3434
3818.262	3368
3819.893	3413
3821.525	3344
3823.157	3445
3824.787	3407
3826.42	3367
3828.051	3420
3829.68	3420
3831.31	3389
3832.938	3435
3834.569	3435
3836.198	3405
3837.825	3277
3839.454	3328
3841.08	3411
3842.708	3325
3844.335	3334
3845.962	3414
3847.587	3352
3849.212	3350
3850.838	3439
3852.463	3332
3854.089	3369
3855.712	3305
3857.335	3386
3858.959	3283
3860.582	3359
3862.205	3307
3863.827	3297
3865.449	3325
3867.07	3300
3868.691	3290
3870.312	3305
3871.933	3345
3873.553	3301
3875.173	3279
3876.792	3333
3878.411	3262
3880.03	3268
3881.647	3317
3883.265	3343
3884.882	3264
3886.499	3220
3888.116	3164
3889.732	3267
3891.348	3317
3892.964	3253
3894.579	3250
3896.195	3271
3897.809	3290
3899.423	3292
3901.036	3227
3902.648	3275
3904.261	3308
3905.875	3292
3907.487	3274
3909.099	3213
3910.709	3266
3912.321	3267
3913.933	3227
3915.542	3269
3917.152	3254
3918.762	3182
3920.37	3249
3921.98	3234
3923.589	3257
3925.196	3235
3926.804	3207
3928.41	3265
3930.018	3196
3931.626	3248
3933.231	3192
3934.838	3156
3936.442	3175
3938.046	3202
3939.653	3264
3941.257	3179
3942.861	3244
3944.464	3219
3946.068	3271
3947.67	3187
3949.273	3195
3950.876	3216
3952.477	3206
3954.078	3123
3955.678	3206
3957.281	3149
3958.881	3147
3960.48	3191
3962.079	3166
3963.678	3149
3965.279	3208
3966.877	3132
3968.475	3123
3970.072	3186
3971.669	3122
3973.266	3116
3974.864	3080
3976.459	3155
3978.055	3102
3979.65	3096
3981.245	3112
3982.841	3197
3984.436	3203
3986.03	3038
3987.623	3117
3989.216	3038
3990.809	3117
3992.403	3081
3993.995	3033
3995.586	3067
3997.177	3078
3998.768	3107
4000.361	3088
4001.951	3104
4003.54	3085
4005.13	3003
4006.719	3025
4008.31	3066
4009.897	3030
4011.485	3031
4013.073	3105
4014.66	3059
4016.247	3081
4017.834	3019
4019.421	3028
4021.006	3047
4022.592	2974
4024.178	3029
4025.763	2956
4027.348	3038
4028.932	2965
4030.515	3008
4032.099	3006
4033.682	2931
4035.266	3016
4036.847	2894
4038.429	2922
4040.011	2938
4041.592	3089
4043.173	2900
4044.755	3024
4046.334	2975
4047.913	2945
4049.494	2853
4051.074	2972
4052.652	2861
4054.23	2923
4055.807	2892
4057.385	3001
4058.963	2903
4060.541	2979
4062.117	2918
4063.693	2943
4065.269	2900
4066.844	2988
4068.42	2966
4069.995	2877
4071.569	2883
4073.143	2900
4074.716	2912
4076.291	2965
4077.864	2913
4079.436	2902
4081.009	2903
4082.58	2885
4084.152	2857
4085.723	2841
4087.294	2828
4088.865	2866
4090.435	2919
4092.005	2883
4093.574	2888
4095.143	2942
4096.712	2900
4098.279	2890
4099.848	2865
4101.416	2846
4102.984	2870
4104.55	2843
4106.117	2908
4107.682	2874
4109.248	2827
4110.815	2828
4112.379	2746
4113.945	2823
4115.508	2832
4117.073	2886
4118.637	2894
4120.201	2903
4121.763	2868
4123.325	2805
4124.888	2843
4126.449	2812
4128.013	2818
4129.573	2830
4131.133	2779
4132.694	2831
4134.254	2786
4135.814	2775
4137.374	2826
4138.933	2752
4140.491	2853
4142.049	2772
4143.607	2830
4145.167	2799
4146.724	2780
4148.28	2804
4149.836	2752
4151.392	2749
4152.949	2787
4154.504	2737
4156.059	2707
4157.614	2681
4159.168	2757
4160.723	2745
4162.277	2677
4163.83	2671
4165.383	2737
4166.936	2707
4168.488	2723
4170.041	2704
4171.593	2672
4173.144	2776
4174.695	2711
4176.246	2718
4177.796	2827
4179.346	2700
4180.896	2694
4182.445	2756
4183.994	2718
4185.542	2731
4187.091	2703
4188.639	2668
4190.185	2719
4191.732	2613
4193.279	2702
4194.826	2685
4196.373	2698
4197.918	2613
4199.463	2688
4201.008	2638
4202.553	2685
4204.098	2673
4205.641	2673
4207.185	2602
4208.728	2666
4210.271	2651
4211.814	2594
4213.357	2711
4214.898	2614
4216.439	2682
4217.98	2677
4219.522	2646
4221.062	2635
4222.603	2649
4224.142	2664
4225.681	2685
4227.222	2648
4228.76	2637
4230.298	2627
4231.835	2650
4233.373	2594
4234.911	2624
4236.449	2561
4237.985	2657
4239.521	2552
4241.057	2631
4242.592	2621
4244.128	2571
4245.663	2596
4247.197	2576
4248.731	2621
4250.265	2582
4251.798	2602
4253.333	2598
4254.865	2631
4256.397	2624
4257.93	2542
4259.461	2566
4260.994	2585
4262.525	2592
4264.056	2568
4265.586	2528
4267.115	2633
4268.646	2538
4270.176	2607
4271.705	2515
4273.232	2554
4274.761	2534
4276.289	2552
4277.818	2570
4279.345	2508
4280.872	2568
4282.399	2554
4283.924	2517
4285.452	2578
4286.976	2581
4288.502	2548
4290.026	2590
4291.551	2517
4293.074	2556
4294.6	2571
4296.123	2496
4297.646	2517
4299.168	2528
4300.691	2482
4302.214	2423
4303.736	2517
4305.257	2576
4306.778	2497
4308.299	2514
4309.82	2469
4311.34	2533
4312.86	2491
4314.379	2440
