400.0745	4416
402.597	4317
405.1208	4478
407.6419	4432
410.1623	4467
412.6819	4458
415.201	4458
417.7172	4556
420.2369	4501
422.7538	4532
425.2701	4592
427.7856	4621
430.3005	4635
432.8147	4717
435.3282	4754
437.841	4701
440.3511	4653
442.8625	4751
445.3753	4700
447.8854	4687
450.3927	4768
452.9014	4643
455.4073	4770
457.9146	4709
460.4233	4788
462.9272	4810
465.4325	4643
467.935	4743
470.4389	4763
472.9421	4739
475.4446	4781
477.9444	4727
480.4456	4705
482.944	4743
485.4417	4789
487.9429	4798
490.4393	4800
492.935	4773
495.4321	4746
497.9264	4831
500.4221	4800
502.9171	4807
505.4094	4866
507.9011	4870
510.392	4891
512.8864	4874
515.3759	4904
517.8649	4829
520.3531	4900
522.8406	4962
525.3275	4925
527.8178	4947
530.3033	4925
532.7881	4880
535.2723	4944
537.7558	4929
540.2407	4909
542.7228	5019
545.2043	4814
547.6851	4906
550.1652	4957
552.6467	4925
555.1255	4949
557.6016	4999
560.079	5003
562.5557	5003
565.0318	5103
567.5092	5081
569.984	5012
572.456	4922
574.9294	5105
577.4022	5136
579.8762	5078
582.3456	5228
584.8163	5096
587.2863	5114
589.7557	5158
592.2224	5111
594.6924	5207
597.1578	5218
599.6245	5116
602.0905	5234
604.5538	5191
607.0206	5201
609.4825	5112
611.9459	5146
614.4066	5204
616.8686	5162
619.33	5191
621.7906	5174
624.2487	5128
626.708	5107
629.1647	5140
631.6207	5042
634.0801	4995
636.5348	5114
638.9888	5144
641.4442	5163
643.8969	5137
646.3509	5219
648.8022	5092
651.255	5131
653.705	5173
656.1544	5146
658.6031	5162
661.0532	5193
663.5026	5222
665.9493	5295
668.3954	5090
670.8409	5223
673.2877	5194
675.7318	5301
678.1752	5164
680.618	5271
683.0601	5335
685.5035	5243
687.9444	5390
690.3845	5318
692.824	5285
695.2628	5283
697.701	5316
700.1406	5436
702.5774	5340
705.0116	5331
707.4472	5349
709.8821	5353
712.3183	5328
714.7519	5327
717.1829	5417
719.6151	5363
722.0468	5442
724.4777	5442
726.908	5459
729.3377	5463
731.7667	5386
734.1931	5422
736.6208	5524
739.0498	5497
741.4742	5691
743.9	5413
746.3231	5526
748.7476	5686
751.1713	5692
753.5945	5635
756.015	5689
758.4368	5573
760.856	5581
763.2766	5553
765.6965	5719
768.1157	5621
770.5323	5747
772.9483	5702
775.3656	5663
777.7822	5658
780.1963	5627
782.6116	5705
785.0244	5643
787.4365	5647
789.8499	5677
792.2626	5755
794.6728	5746
797.0823	5808
799.4911	5717
801.8994	5713
804.3109	5742
806.7178	5715
809.124	5787
811.5297	5592
813.9347	5850
816.341	5700
818.7447	5678
821.1478	5714
823.5502	5729
825.952	5780
828.3531	5793
830.7556	5850
833.1554	5787
835.5546	5733
837.9532	5800
840.3511	5815
842.7504	5842
845.1451	5933
847.5411	5873
849.9365	5805
852.3312	5809
854.7272	5932
857.1187	5840
859.5115	5793
861.9037	5893
864.2952	5984
866.6842	5904
869.0764	6007
871.4661	5838
873.8531	5834
876.2415	5873
878.6272	5889
881.0162	5808
883.4026	5848
885.7866	5899
888.1717	5932
890.5543	5877
892.9382	5898
895.3215	5910
897.7041	5937
900.0842	5776
902.4655	5794
904.8443	5781
907.2244	5912
909.6039	5842
911.9808	5867
914.357	5931
916.7346	5936
919.1115	5940
921.4859	5996
923.8616	6071
926.2347	6054
928.6071	6090
930.979	6098
933.3541	6073
935.7247	6091
938.0946	6115
940.4639	6318
942.8326	6211
945.2026	6347
947.5701	6391
949.9369	6585
952.305	6580
954.6705	6861
957.0355	6882
959.4017	7262
961.7654	7273
964.1284	7159
966.4908	7224
968.8527	6989
971.2138	6684
973.5743	6597
975.9343	6523
978.2936	6244
980.6522	6156
983.0122	6064
985.3696	6065
987.7245	5997
990.0807	6029
992.4362	6069
994.7911	6182
997.1474	6107
999.4991	6052
1001.852	6094
1004.205	6114
1006.555	6081
1008.908	6133
1011.258	6058
1013.606	6061
1015.956	6015
1018.302	6065
1020.652	6154
1022.998	6191
1025.345	6173
1027.691	6114
1030.035	6101
1032.378	6167
1034.724	6159
1037.066	6134
1039.409	6283
1041.75	6181
1044.092	6246
1046.433	6231
1048.771	6147
1051.112	6224
1053.449	6252
1055.786	6257
1058.124	6313
1060.462	6162
1062.797	6181
1065.131	6177
1067.467	6199
1069.8	6389
1072.135	6419
1074.467	6347
1076.798	6362
1079.129	6294
1081.459	6324
1083.792	6411
1086.121	6265
1088.449	6246
1090.777	6242
1093.104	6146
1095.431	6311
1097.759	6193
1100.084	6107
1102.408	6295
1104.732	6231
1107.056	6331
1109.379	6225
1111.701	6221
1114.022	6210
1116.343	6210
1118.664	6175
1120.983	6185
1123.303	6305
1125.621	6236
1127.939	6251
1130.256	6228
1132.573	6339
1134.889	6263
1137.205	6289
1139.52	6212
1141.832	6225
1144.146	6191
1146.461	6175
1148.771	6240
1151.083	6226
1153.392	6312
1155.703	6238
1158.011	6286
1160.323	6210
1162.629	6195
1164.938	6233
1167.243	6240
1169.55	6259
1171.857	6177
1174.163	6311
1176.466	6299
1178.769	6290
1181.073	6290
1183.374	6265
1185.677	6198
1187.979	6172
1190.279	6183
1192.578	6312
1194.878	6246
1197.178	6072
1199.476	6308
1201.772	6318
1204.068	6318
1206.366	6235
1208.663	6201
1210.957	6159
1213.251	6147
1215.544	6346
1217.836	6317
1220.128	6394
1222.421	6414
1224.712	6356
1227.002	6386
1229.292	6288
1231.581	6345
1233.871	6423
1236.159	6402
1238.446	6327
1240.732	6364
1243.018	6489
1245.304	6406
1247.59	6389
1249.874	6466
1252.156	6359
1254.439	6323
1256.721	6482
1259.005	6491
1261.286	6595
1263.565	6420
1265.845	6407
1268.125	6406
1270.403	6482
1272.682	6413
1274.959	6391
1277.234	6553
1279.511	6404
1281.787	6581
1284.062	6374
1286.337	6439
1288.609	6435
1290.882	6385
1293.153	6352
1295.428	6424
1297.698	6418
1299.969	6435
1302.237	6262
1304.507	6365
1306.777	6379
1309.044	6343
1311.312	6404
1313.578	6448
1315.844	6370
1318.109	6331
1320.375	6320
1322.638	6381
1324.903	6464
1327.165	6418
1329.427	6439
1331.69	6405
1333.952	6503
1336.212	6356
1338.471	6429
1340.73	6307
1342.988	6395
1345.248	6382
1347.505	6367
1349.763	6468
1352.019	6384
1354.274	6353
1356.53	6411
1358.784	6317
1361.038	6441
1363.291	6421
1365.543	6309
1367.797	6487
1370.048	6441
1372.296	6453
1374.546	6393
1376.796	6464
1379.045	6404
1381.295	6447
1383.542	6395
1385.787	6368
1388.034	6410
1390.28	6487
1392.527	6423
1394.772	6635
1397.014	6535
1399.258	6508
1401.501	6492
1403.741	6542
1405.985	6526
1408.226	6569
1410.465	6456
1412.705	6492
1414.943	6562
1417.184	6587
1419.42	6446
1421.658	6510
1423.894	6560
1426.13	6576
1428.366	6572
1430.602	6627
1432.835	6536
1435.069	6556
1437.301	6537
1439.535	6593
1441.767	6619
1443.997	6648
1446.229	6629
1448.458	6617
1450.687	6660
1452.916	6556
1455.146	6696
1457.372	6791
1459.599	6604
1461.824	6755
1464.051	6629
1466.277	6621
1468.501	6604
1470.725	6532
1472.948	6654
1475.17	6544
1477.393	6572
1479.614	6369
1481.837	6471
1484.057	6506
1486.276	6495
1488.497	6468
1490.715	6398
1492.932	6406
1495.148	6413
1497.364	6373
1499.58	6401
1501.798	6583
1504.012	6428
1506.227	6439
1508.44	6431
1510.653	6446
1512.866	6378
1515.078	6384
1517.289	6397
1519.5	6389
1521.711	6342
1523.92	6312
1526.13	6321
1528.338	6469
1530.544	6345
1532.752	6382
1534.959	6420
1537.165	6259
1539.371	6497
1541.574	6577
1543.779	6414
1545.983	6519
1548.187	6406
1550.39	6480
1552.59	6538
1554.792	6440
1556.991	6453
1559.19	6469
1561.392	6535
1563.59	6426
1565.789	6620
1567.986	6570
1570.182	6581
1572.381	6516
1574.576	6541
1576.771	6614
1578.966	6531
1581.16	6563
1583.354	6559
1585.546	6642
1587.74	6605
1589.931	6489
1592.121	6551
1594.311	6546
1596.502	6545
1598.693	6517
1600.881	6628
1603.069	6579
1605.256	6602
1607.445	6710
1609.631	6608
1611.816	6727
1614.001	6677
1616.186	6613
1618.37	6747
1620.555	6624
1622.737	6612
1624.919	6561
1627.101	6614
1629.282	6606
1631.463	6629
1633.643	6766
1635.822	6628
1638.001	6743
1640.179	6610
1642.359	6682
1644.534	6643
1646.711	6703
1648.887	6713
1651.062	6825
1653.235	6778
1655.412	6672
1657.586	6579
1659.757	6797
1661.93	6678
1664.1	6710
1666.274	6691
1668.445	6688
1670.614	6784
1672.784	6656
1674.951	6760
1677.12	6670
1679.289	6676
1681.457	6681
1683.622	6681
1685.789	6752
1687.953	6613
1690.121	6787
1692.284	6739
1694.447	6678
1696.611	6615
1698.772	6684
1700.935	6731
1703.098	6642
1705.258	6545
1707.417	6495
1709.576	6623
1711.736	6529
1713.896	6582
1716.053	6519
1718.21	6605
1720.366	6580
1722.522	6653
1724.68	6562
1726.835	6555
1728.989	6521
1731.142	6599
1733.295	6549
1735.449	6753
1737.601	6526
1739.753	6582
1741.903	6614
1744.054	6647
1746.203	6693
1748.354	6526
1750.503	6657
1752.651	6624
1754.798	6528
1756.944	6726
1759.092	6643
1761.238	6622
1763.383	6574
1765.528	6686
1767.672	6637
1769.814	6665
1771.959	6778
1774.102	6594
1776.242	6577
1778.384	6667
1780.525	6586
1782.665	6614
1784.805	6602
1786.945	6650
1789.082	6573
1791.22	6797
1793.36	6733
1795.495	6677
1797.632	6719
1799.766	6765
1801.902	6595
1804.035	6727
1806.172	6625
1808.304	6714
1810.436	6688
1812.569	6655
1814.699	6673
1816.833	6718
1818.963	6634
1821.092	6704
1823.222	6582
1825.35	6664
1827.478	6459
1829.608	6689
1831.734	6580
1833.86	6676
1835.986	6620
1838.11	6656
1840.238	6660
1842.362	6647
1844.485	6596
1846.608	6615
1848.73	6618
1850.853	6592
1852.974	6576
1855.097	6575
1857.217	6616
1859.336	6642
1861.455	6668
1863.576	6505
1865.693	6561
1867.811	6512
1869.926	6566
1872.042	6665
1874.16	6607
1876.275	6682
1878.39	6620
1880.504	6611
1882.618	6579
1884.731	6580
1886.843	6590
1888.956	6590
1891.067	6647
1893.178	6733
1895.287	6656
1897.399	6766
1899.508	6724
1901.617	6600
1903.724	6662
1905.832	6657
1907.941	6618
1910.046	6626
1912.152	6715
1914.256	6641
1916.361	6776
1918.464	6847
1920.57	6824
1922.672	6804
1924.775	6647
1926.876	6749
1928.978	6806
1931.08	6737
1933.181	6647
1935.28	6853
1937.38	6611
1939.478	6820
1941.577	6745
1943.675	6729
1945.771	6757
1947.867	6673
1949.964	6788
1952.058	6693
1954.154	6800
1956.248	6723
1958.343	6756
1960.435	6786
1962.527	6805
1964.62	6752
1966.711	6770
1968.802	6596
1970.892	6683
1972.983	6732
1975.072	6663
1977.162	6750
1979.25	6744
1981.337	6694
1983.424	6676
1985.51	6779
1987.598	6686
1989.683	6701
1991.768	6724
1993.852	6694
1995.934	6743
1998.019	6701
2000.102	6595
2002.184	6765
2004.266	6731
2006.347	6694
2008.427	6693
2010.508	6615
2012.587	6619
2014.666	6786
2016.745	6630
2018.821	6661
2020.9	6785
2022.977	6672
2025.052	6762
2027.128	6817
2029.204	6783
2031.277	6665
2033.353	6775
2035.425	6680
2037.499	6695
2039.57	6837
2041.642	6569
2043.714	6709
2045.786	6757
2047.855	6649
2049.925	6748
2051.993	6717
2054.064	6664
2056.132	6638
2058.2	6682
2060.266	6631
2062.332	6772
2064.398	6695
2066.465	6693
2068.529	6711
2070.592	6710
2072.657	6623
2074.719	6675
2076.783	6694
2078.845	6787
2080.907	6800
2082.968	6642
2085.028	6764
2087.087	6740
2089.148	6804
2091.207	6605
2093.264	6763
2095.322	6787
2097.379	6709
2099.439	6810
2101.495	6646
2103.55	6657
2105.605	6706
2107.658	6666
2109.713	6677
2111.767	6613
2113.82	6567
2115.872	6712
2117.924	6661
2119.975	6730
2122.028	6743
2124.078	6666
2126.126	6734
2128.176	6811
2130.225	6606
2132.275	6711
2134.321	6773
2136.368	6585
2138.415	6649
2140.461	6660
2142.505	6591
2144.552	6733
2146.597	6639
2148.64	6705
2150.684	6665
2152.725	6672
2154.77	6701
2156.811	6621
2158.852	6657
2160.894	6624
2162.933	6712
2164.973	6668
2167.013	6637
2169.051	6584
2171.089	6627
2173.126	6696
2175.164	6626
2177.201	6650
2179.236	6536
2181.273	6673
2183.307	6513
2185.341	6495
2187.377	6513
2189.41	6531
2191.442	6583
2193.473	6674
2195.506	6521
2197.539	6480
2199.569	6467
2201.598	6677
2203.628	6584
2205.656	6635
2207.686	6449
2209.716	6475
2211.743	6629
2213.769	6578
2215.796	6617
2217.821	6530
2219.848	6592
2221.873	6646
2223.897	6510
2225.921	6496
2227.944	6529
2229.967	6368
2231.991	6571
2234.011	6538
2236.032	6530
2238.053	6556
2240.073	6566
2242.094	6523
2244.114	6502
2246.131	6497
2248.149	6438
2250.167	6441
2252.186	6450
2254.201	6413
2256.218	6516
2258.233	6549
2260.247	6497
2262.262	6589
2264.278	6476
2266.29	6446
2268.303	6493
2270.315	6433
2272.327	6517
2274.341	6359
2276.35	6421
2278.361	6395
2280.37	6534
2282.38	6478
2284.388	6494
2286.397	6409
2288.405	6538
2290.412	6429
2292.419	6483
2294.425	6439
2296.431	6496
2298.437	6501
2300.441	6572
2302.445	6406
2304.449	6392
2306.453	6400
2308.455	6355
2310.457	6379
2312.459	6405
2314.46	6445
2316.46	6445
2318.461	6521
2320.46	6393
2322.458	6383
2324.458	6433
2326.456	6386
2328.455	6306
2330.451	6428
2332.447	6362
2334.443	6358
2336.438	6336
2338.433	6398
2340.429	6369
2342.422	6385
2344.416	6375
2346.408	6327
2348.399	6325
2350.393	6325
2352.384	6324
2354.375	6325
2356.365	6310
2358.355	6274
2360.344	6335
2362.333	6334
2364.322	6390
2366.309	6231
2368.295	6318
2370.282	6328
2372.27	6288
2374.256	6305
2376.24	6253
2378.225	6383
2380.208	6339
2382.194	6222
2384.177	6372
2386.159	6231
2388.142	6206
2390.122	6180
2392.105	6263
2394.085	6164
2396.066	6226
2398.044	6252
2400.024	6215
2402.002	6371
2403.982	6233
2405.959	6289
2407.935	6184
2409.913	6237
2411.888	6154
2413.865	6194
2415.84	6454
2417.814	8539
2419.788	6172
2421.762	6058
2423.735	6154
2425.708	6214
2427.68	6177
2429.651	6278
2431.623	6091
2433.593	6143
2435.564	6195
2437.533	6194
2439.502	6219
2441.47	6144
2443.438	6211
2445.406	6233
2447.373	6138
2449.34	6166
2451.305	6202
2453.271	6037
2455.235	6200
2457.201	6216
2459.165	6079
2461.129	6154
2463.092	6111
2465.054	6156
2467.018	6092
2468.978	6260
2470.939	6189
2472.899	6123
2474.86	6188
2476.819	6200
2478.778	6235
2480.737	6207
2482.695	6258
2484.653	6184
2486.609	6221
2488.567	6211
2490.524	6090
2492.478	6059
2494.433	6227
2496.387	6057
2498.343	6157
2500.297	6238
2502.249	6084
2504.202	6112
2506.153	6056
2508.105	6093
2510.057	6157
2512.008	6040
2513.957	6134
2515.906	6107
2517.855	6141
2519.805	6133
2521.754	6112
2523.7	6048
2525.647	6114
2527.594	5994
2529.54	6138
2531.486	6002
2533.431	6027
2535.376	6045
2537.32	6069
2539.263	5994
2541.207	6241
2543.151	6104
2545.093	5986
2547.034	6028
2548.975	6070
2550.917	6096
2552.856	6193
2554.796	6044
2556.735	6122
2558.673	5993
2560.611	6044
2562.55	6062
2564.487	6040
2566.424	6056
2568.36	6109
2570.296	6128
2572.232	6131
2574.167	6208
2576.101	6087
2578.035	5972
2579.969	6165
2581.902	6125
2583.834	6094
2585.766	6066
2587.698	6012
2589.628	6157
2591.557	6061
2593.489	6071
2595.419	6071
2597.348	6010
2599.275	6143
2601.204	6166
2603.131	6016
2605.059	6005
2606.986	6218
2608.911	6082
2610.837	6090
2612.76	6094
2614.687	6017
2616.61	6191
2618.534	6094
2620.457	6149
2622.38	5987
2624.302	6124
2626.225	6023
2628.145	6169
2630.067	6041
2631.986	6112
2633.906	6153
2635.827	6128
2637.745	6177
2639.662	6060
2641.581	6116
2643.498	6199
2645.415	6091
2647.331	6073
2649.248	6117
2651.163	6207
2653.077	6178
2654.993	5989
2656.906	6046
2658.821	6065
2660.733	6134
2662.646	6149
2664.557	6055
2666.47	6110
2668.381	6092
2670.291	6168
2672.201	6008
2674.11	5985
2676.021	5997
2677.929	6032
2679.837	5924
2681.745	6114
2683.652	5990
2685.56	6121
2687.466	6084
2689.371	6084
2691.276	6004
2693.181	6015
2695.085	6078
2696.991	5997
2698.893	5942
2700.796	5918
2702.698	6018
2704.601	6095
2706.502	6004
2708.404	5946
2710.304	5998
2712.203	5966
2714.103	5996
2716.003	6046
2717.902	5922
2719.8	5967
2721.697	5963
2723.594	6020
2725.49	5964
2727.389	5979
2729.283	5984
2731.179	5918
2733.073	5936
2734.968	6021
2736.863	5952
2738.757	5973
2740.649	5891
2742.541	5895
2744.433	5951
2746.324	5892
2748.216	5948
2750.107	5880
2751.997	6005
2753.886	5935
2755.776	5890
2757.666	5935
2759.553	5992
2761.44	5896
2763.327	5943
2765.215	5913
2767.102	5924
2768.988	5943
2770.873	5892
2772.757	5848
2774.641	6000
2776.525	5832
2778.41	5845
2780.292	5891
2782.175	5813
2784.057	5921
2785.938	5818
2787.821	5874
2789.701	5808
2791.581	5818
2793.461	5847
2795.34	5864
2797.219	5751
2799.099	5891
2800.975	5911
2802.853	5822
2804.73	5856
2806.606	5840
2808.484	5767
2810.358	5901
2812.233	5808
2814.108	5825
2815.981	5861
2817.857	5827
2819.73	5828
2821.602	5830
2823.474	5736
2825.346	5792
2827.217	5769
2829.089	5805
2830.959	5864
2832.829	5854
2834.698	5652
2836.567	5794
2838.436	5826
2840.305	5834
2842.172	5876
2844.04	5853
2845.905	5812
2847.772	5818
2849.639	5895
2851.503	5826
2853.369	5862
2855.232	5809
2857.096	5862
2858.961	5934
2860.824	5882
2862.686	5927
2864.547	5943
2866.41	6006
2868.272	5905
2870.132	5901
2871.992	6049
2873.851	6015
2875.711	6068
2877.57	6081
2879.429	6134
2881.287	6200
2883.144	6104
2885.001	6279
2886.857	6264
2888.714	6193
2890.57	6114
2892.425	6152
2894.279	6318
2896.133	6128
2897.987	6066
2899.842	6161
2901.694	6052
2903.547	6144
2905.397	6083
2907.249	6284
2909.101	6146
2910.952	6153
2912.802	6235
2914.652	6182
2916.5	6256
2918.35	6405
2920.198	6245
2922.045	6415
2923.893	6385
2925.74	6466
2927.585	6483
2929.433	6500
2931.279	6557
2933.123	6502
2934.968	6613
2936.811	6618
2938.656	6621
2940.5	6638
2942.342	6691
2944.185	6729
2946.026	6735
2947.87	6737
2949.71	6621
2951.549	6625
2953.39	6743
2955.229	6541
2957.069	6632
2958.908	6513
2960.746	6599
2962.584	6496
2964.421	6456
2966.257	6386
2968.094	6425
2969.931	6320
2971.766	6299
2973.601	6326
2975.435	6143
2977.27	6310
2979.105	6180
2980.938	6063
2982.77	6147
2984.602	6171
2986.434	6228
2988.267	6080
2990.097	6106
2991.927	6111
2993.757	6047
2995.587	6082
2997.417	6013
2999.246	6021
3001.074	5971
3002.902	5877
3004.729	5749
3006.556	5827
3008.384	5855
3010.21	5815
3012.036	5613
3013.861	5733
3015.684	5587
3017.51	5576
3019.334	5743
3021.157	5576
3022.981	5758
3024.802	5486
3026.624	5556
3028.448	5638
3030.267	5547
3032.088	5482
3033.909	5575
3035.728	5693
3037.549	5567
3039.368	5467
3041.186	5570
3043.004	5473
3044.821	5429
3046.64	5597
3048.455	5388
3050.272	5466
3052.087	5529
3053.903	5488
3055.717	5394
3057.534	5577
3059.347	5503
3061.16	5531
3062.974	5526
3064.785	5489
3066.598	5433
3068.411	5667
3070.222	5528
3072.032	5503
3073.844	5453
3075.653	5443
3077.463	5459
3079.272	5479
3081.08	5402
3082.889	5436
3084.697	5319
3086.505	5490
3088.312	5502
3090.118	5394
3091.924	5311
3093.729	5423
3095.535	5374
3097.34	5335
3099.144	5363
3100.947	5373
3102.75	5433
3104.553	5381
3106.357	5440
3108.159	5327
3109.961	5305
3111.762	5318
3113.562	5356
3115.365	5232
3117.164	5386
3118.964	5415
3120.761	5285
3122.56	5330
3124.36	5318
3126.158	5322
3127.954	5310
3129.75	5179
3131.547	5282
3133.343	5335
3135.139	5264
3136.934	5315
3138.729	5309
3140.522	5293
3142.317	5234
3144.11	5267
3145.904	5221
3147.695	5256
3149.488	5224
3151.28	5241
3153.07	5192
3154.863	5166
3156.652	5211
3158.441	5160
3160.231	5199
3162.019	5175
3163.81	5215
3165.597	5208
3167.384	5251
3169.172	5284
3170.958	5206
3172.745	5287
3174.532	5187
3176.317	5089
3178.101	5245
3179.885	5169
3181.67	5208
3183.455	5177
3185.238	5254
3187.02	5210
3188.802	5308
3190.585	5195
3192.368	5084
3194.149	5108
3195.929	5284
3197.709	5174
3199.489	5118
3201.268	5145
3203.048	5138
3204.826	5125
3206.604	5207
3208.382	5248
3210.159	5192
3211.937	5122
3213.713	5176
3215.489	5085
3217.263	5108
3219.038	5112
3220.815	5208
3222.589	5184
3224.363	5254
3226.136	5199
3227.908	5271
3229.681	5092
3231.454	5214
3233.226	5132
3234.996	5252
3236.767	5128
3238.538	5148
3240.308	5189
3242.078	5166
3243.847	5098
3245.615	5189
3247.384	5094
3249.15	5201
3250.92	5313
3252.686	5108
3254.453	5183
3256.218	5150
3257.984	5075
3259.75	5195
3261.515	5224
3263.279	5189
3265.044	5173
3266.806	5206
3268.57	5094
3270.334	5152
3272.095	5113
3273.856	5157
3275.619	5090
3277.379	5210
3279.14	5194
3280.9	5153
3282.661	5090
3284.419	5145
3286.178	5119
3287.937	5248
3289.695	5173
3291.453	5128
3293.21	5170
3294.967	5150
3296.723	5237
3298.48	5237
3300.235	5130
3301.99	5216
3303.744	5200
3305.498	5195
3307.253	5108
3309.006	5183
3310.759	5168
3312.511	5093
3314.263	5094
3316.017	5139
3317.768	5158
3319.519	5094
3321.268	5230
3323.018	5210
3324.767	5218
3326.518	5153
3328.267	5112
3330.014	5210
3331.762	5164
3333.509	5094
3335.258	5136
3337.003	5198
3338.75	5073
3340.496	5198
3342.24	5103
3343.987	5119
3345.732	5119
3347.475	5092
3349.219	5198
3350.961	5196
3352.705	5072
3354.448	5082
3356.19	5160
3357.931	5146
3359.672	5121
3361.412	5030
3363.155	5166
3364.894	5109
3366.633	5075
3368.372	5257
3370.11	5204
3371.849	5043
3373.588	5052
3375.325	5005
3377.061	5005
3378.799	5095
3380.534	5134
3382.271	5061
3384.006	5024
3385.741	5024
3387.475	5086
3389.209	5087
3390.944	5041
3392.677	5062
3394.409	5050
3396.143	5028
3397.874	5093
3399.606	5084
3401.338	5043
3403.069	4983
3404.799	5014
3406.528	5000
3408.258	4905
3409.988	5041
3411.717	5045
3413.445	5130
3415.173	5028
3416.899	5009
3418.626	5012
3420.354	5031
3422.08	4990
3423.806	4984
3425.531	5084
3427.255	5025
3428.981	4950
3430.705	5037
3432.429	4987
3434.151	4966
3435.875	4968
3437.599	4963
3439.321	4969
3441.042	4982
3442.763	5055
3444.483	4855
3446.204	5006
3447.926	4953
3449.645	4874
3451.364	5019
3453.082	4798
3454.801	5033
3456.52	4936
3458.238	5025
3459.954	4870
3461.671	4934
3463.387	5005
3465.104	4942
3466.82	4840
3468.534	4915
3470.25	4889
3471.963	4930
3473.676	4862
3475.392	4826
3477.104	4855
3478.817	4835
3480.528	4901
3482.241	4875
3483.954	4795
3485.664	4896
3487.374	4911
3489.084	4873
3490.795	4844
3492.504	4841
3494.214	4722
3495.922	4806
3497.63	4833
3499.338	4793
3501.045	4735
3502.753	4836
3504.459	4713
3506.166	4744
3507.871	4874
3509.576	4809
3511.283	4855
3512.987	4790
3514.691	4735
3516.395	4796
3518.098	4814
3519.8	4890
3521.504	4757
3523.206	4742
3524.908	4787
3526.609	4727
3528.309	4761
3530.011	4684
3531.711	4822
3533.411	4742
3535.109	4825
3536.808	4670
3538.507	4690
3540.206	4759
3541.904	4700
3543.601	4744
3545.297	4737
3546.994	4642
3548.69	4767
3550.387	4722
3552.081	4715
3553.776	4783
3555.47	4805
3557.166	4681
3558.859	4632
3560.553	4700
3562.245	4689
3563.938	4643
3565.629	4592
3567.322	4701
3569.014	4677
3570.704	4671
3572.394	4666
3574.084	4692
3575.775	4722
3577.464	4659
3579.152	4613
3580.842	4572
3582.529	4714
3584.216	4615
3585.905	4611
3587.591	4665
3589.279	4616
3590.964	4684
3592.649	4494
3594.336	4660
3596.021	4568
3597.705	4574
3599.388	4637
3601.072	4666
3602.757	4589
3604.439	4573
3606.122	4471
3607.803	4617
3609.485	4620
3611.167	4565
3612.849	4534
3614.529	4596
3616.208	4597
3617.888	4543
3619.567	4527
3621.247	4589
3622.926	4495
3624.603	4549
3626.281	4528
3627.958	4560
3629.635	4479
3631.312	4569
3632.989	4525
3634.665	4514
3636.339	4516
3638.014	4446
3639.691	4518
3641.364	4495
3643.038	4460
3644.71	4543
3646.384	4510
3648.058	4497
3649.729	4418
3651.402	4498
3653.073	4459
3654.744	4507
3656.414	4445
3658.085	4470
3659.755	4454
3661.424	4549
3663.094	4483
3664.762	4380
3666.431	4449
3668.099	4372
3669.766	4427
3671.433	4441
3673.099	4418
3674.768	4404
3676.433	4413
3678.098	4500
3679.763	4529
3681.428	4445
3683.093	4446
3684.757	4405
3686.421	4464
3688.083	4461
3689.746	4353
3691.408	4502
3693.071	4411
3694.733	4387
3696.394	4373
3698.054	4425
3699.715	4429
3701.375	4465
3703.036	4429
3704.695	4351
3706.354	4395
3708.012	4459
3709.67	4371
3711.329	4385
3712.987	4411
3714.644	4322
3716.299	4345
3717.955	4460
3719.613	4461
3721.268	4407
3722.923	4409
3724.577	4418
3726.231	4432
3727.885	4383
3729.539	4430
3731.192	4357
3732.845	4408
3734.497	4379
3736.149	4369
3737.802	4417
3739.453	4427
3741.104	4414
3742.753	4343
3744.404	4429
3746.052	4357
3747.704	4381
3749.352	4381
3751	4440
3752.648	4465
3754.296	4320
3755.944	4335
3757.59	4397
3759.238	4337
3760.883	4265
3762.528	4297
3764.176	4299
3765.82	4360
3767.464	4416
3769.109	4337
3770.753	4371
3772.396	4302
3774.04	4355
3775.683	4312
3777.325	4395
3778.967	4271
3780.608	4233
3782.25	4167
3783.89	4296
3785.531	4392
3787.17	4333
3788.81	4261
3790.45	4299
3792.09	4314
3793.729	4466
3795.366	4334
3797.003	4351
3798.64	4294
3800.278	4230
3801.915	4239
3803.551	4312
3805.187	4291
3806.822	4324
3808.458	4331
3810.093	4324
3811.726	4278
3813.36	4202
3814.994	4276
3816.627	4321
3818.262	4173
3819.893	4260
3821.525	4234
3823.157	4358
3824.787	4360
3826.42	4234
3828.051	4325
3829.68	4331
3831.31	4228
3832.938	4286
3834.569	4211
3836.198	4243
3837.825	4210
3839.454	4253
3841.08	4371
3842.708	4335
3844.335	4172
3845.962	4249
3847.587	4235
3849.212	4265
3850.838	4209
3852.463	4194
3854.089	4204
3855.712	4249
3857.335	4120
3858.959	4229
3860.582	4213
3862.205	4110
3863.827	4250
3865.449	4117
3867.07	4174
3868.691	4127
3870.312	4199
3871.933	4250
3873.553	4212
3875.173	4221
3876.792	4263
3878.411	4206
3880.03	4242
3881.647	4204
3883.265	4294
3884.882	4092
3886.499	4245
3888.116	4227
3889.732	4201
3891.348	4201
3892.964	4212
3894.579	4146
3896.195	4203
3897.809	4237
3899.423	4152
3901.036	4164
3902.648	4237
3904.261	4209
3905.875	4254
3907.487	4172
3909.099	4192
3910.709	4164
3912.321	4151
3913.933	4222
3915.542	4126
3917.152	4211
3918.762	4213
3920.37	4187
3921.98	4188
3923.589	4185
3925.196	4126
3926.804	4266
3928.41	4273
3930.018	4207
3931.626	4256
3933.231	4222
3934.838	4191
3936.442	4139
3938.046	4140
3939.653	4197
3941.257	4155
3942.861	4186
3944.464	4121
3946.068	4183
3947.67	4134
3949.273	4185
3950.876	4135
3952.477	4197
3954.078	4160
3955.678	4151
3957.281	4162
3958.881	4095
3960.48	4253
3962.079	4269
3963.678	4215
3965.279	4207
3966.877	4126
3968.475	4183
3970.072	4237
3971.669	4169
3973.266	4200
3974.864	4107
3976.459	4110
3978.055	4160
3979.65	4171
3981.245	4095
3982.841	4212
3984.436	4158
3986.03	4052
3987.623	4209
3989.216	4181
3990.809	4164
3992.403	4106
3993.995	4063
3995.586	4125
3997.177	4110
3998.768	4012
4000.361	4059
4001.951	4107
4003.54	4083
4005.13	4159
4006.719	4037
4008.31	4048
4009.897	4086
4011.485	4043
4013.073	4037
4014.66	4092
4016.247	4090
4017.834	4030
4019.421	4064
4021.006	4140
4022.592	4027
4024.178	3973
4025.763	4113
4027.348	4105
4028.932	4034
4030.515	4122
4032.099	4033
4033.682	4055
4035.266	3990
4036.847	4010
4038.429	4002
4040.011	4158
4041.592	3949
4043.173	4060
4044.755	4081
4046.334	4087
4047.913	4096
4049.494	3992
4051.074	4056
4052.652	4018
4054.23	4010
4055.807	4059
4057.385	4007
4058.963	3993
4060.541	4081
4062.117	4001
4063.693	4012
4065.269	3977
4066.844	3987
4068.42	3969
4069.995	4062
4071.569	3993
4073.143	4000
4074.716	4001
4076.291	4136
4077.864	3967
4079.436	4041
4081.009	4062
4082.58	4053
4084.152	4023
4085.723	4016
4087.294	4025
4088.865	3999
4090.435	4049
4092.005	4026
4093.574	4008
4095.143	4035
4096.712	3939
4098.279	4065
4099.848	3971
4101.416	4103
4102.984	3967
4104.55	4023
4106.117	3999
4107.682	4090
4109.248	3938
4110.815	4059
4112.379	4007
4113.945	3949
4115.508	3982
4117.073	3951
4118.637	3986
4120.201	4000
4121.763	4000
4123.325	3870
4124.888	3960
4126.449	3932
4128.013	4018
4129.573	3996
4131.133	3972
4132.694	4082
4134.254	3986
4135.814	3978
4137.374	3859
4138.933	4002
4140.491	3929
4142.049	3937
4143.607	3915
4145.167	3986
4146.724	3949
4148.28	3933
4149.836	3914
4151.392	3981
4152.949	3941
4154.504	3919
4156.059	3929
4157.614	3948
4159.168	3940
4160.723	3962
4162.277	3832
4163.83	3963
4165.383	3997
4166.936	3955
4168.488	3942
4170.041	3963
4171.593	3920
4173.144	3928
4174.695	3792
4176.246	3953
4177.796	3864
4179.346	3914
4180.896	3824
4182.445	3942
4183.994	3894
4185.542	3892
4187.091	3916
4188.639	3959
4190.185	3919
4191.732	3937
4193.279	3852
4194.826	3957
4196.373	3837
4197.918	3880
4199.463	3846
4201.008	3856
4202.553	3828
4204.098	3904
4205.641	3972
4207.185	3964
4208.728	3966
4210.271	3842
4211.814	3892
4213.357	3834
4214.898	3812
4216.439	3904
4217.98	3861
4219.522	3853
4221.062	3820
4222.603	3878
4224.142	3871
4225.681	3857
4227.222	3922
4228.76	3822
4230.298	3858
4231.835	3805
4233.373	3841
4234.911	3814
4236.449	3930
4237.985	3903
4239.521	3872
4241.057	3889
4242.592	3873
4244.128	3893
4245.663	3900
4247.197	3931
4248.731	3877
4250.265	3900
4251.798	3935
4253.333	3871
4254.865	3793
4256.397	3785
4257.93	3837
4259.461	3921
4260.994	3892
4262.525	3697
4264.056	3817
4265.586	3823
4267.115	3907
4268.646	3917
4270.176	3889
4271.705	3802
4273.232	3880
4274.761	3952
4276.289	3949
4277.818	3808
4279.345	3879
4280.872	3861
4282.399	3861
4283.924	3881
4285.452	3879
4286.976	3868
4288.502	3838
4290.026	3888
4291.551	3840
4293.074	3844
4294.6	3840
4296.123	3925
4297.646	3846
4299.168	3793
4300.691	3876
4302.214	3869
4303.736	3856
4305.257	3816
4306.778	3769
4308.299	3883
4309.82	3796
4311.34	3781
4312.86	3793
4314.379	3852
