400.0745	4042
402.597	4090
405.1208	4134
407.6419	3998
410.1623	4069
412.6819	4153
415.201	4178
417.7172	4216
420.2369	4149
422.7538	4323
425.2701	4218
427.7856	4329
430.3005	4287
432.8147	4252
435.3282	4251
437.841	4361
440.3511	4243
442.8625	4356
445.3753	4363
447.8854	4351
450.3927	4367
452.9014	4294
455.4073	4394
457.9146	4275
460.4233	4355
462.9272	4390
465.4325	4334
467.935	4290
470.4389	4336
472.9421	4383
475.4446	4361
477.9444	4290
480.4456	4350
482.944	4520
485.4417	4293
487.9429	4347
490.4393	4450
492.935	4480
495.4321	4429
497.9264	4461
500.4221	4451
502.9171	4474
505.4094	4385
507.9011	4607
510.392	4467
512.8864	4504
515.3759	4594
517.8649	4473
520.3531	4578
522.8406	4427
525.3275	4530
527.8178	4542
530.3033	4545
532.7881	4532
535.2723	4435
537.7558	4509
540.2407	4620
542.7228	4606
545.2043	4368
547.6851	4565
550.1652	4605
552.6467	4683
555.1255	4505
557.6016	4548
560.079	4553
562.5557	4615
565.0318	4576
567.5092	4614
569.984	4643
572.456	4626
574.9294	4754
577.4022	4713
579.8762	4654
582.3456	4672
584.8163	4710
587.2863	4671
589.7557	4745
592.2224	4711
594.6924	4809
597.1578	4752
599.6245	4688
602.0905	4609
604.5538	4694
607.0206	4724
609.4825	4736
611.9459	4761
614.4066	4708
616.8686	4726
619.33	4738
621.7906	4690
624.2487	4678
626.708	4727
629.1647	4650
631.6207	4679
634.0801	4675
636.5348	4719
638.9888	4710
641.4442	4708
643.8969	4760
646.3509	4770
648.8022	4746
651.255	4721
653.705	4707
656.1544	4814
658.6031	4811
661.0532	4670
663.5026	4780
665.9493	4832
668.3954	4813
670.8409	4834
673.2877	4747
675.7318	4856
678.1752	4824
680.618	4930
683.0601	4737
685.5035	4875
687.9444	4909
690.3845	4954
692.824	4871
695.2628	4887
697.701	4886
700.1406	4808
702.5774	4848
705.0116	4854
707.4472	4915
709.8821	4931
712.3183	4966
714.7519	4910
717.1829	4919
719.6151	5005
722.0468	4965
724.4777	5047
726.908	5031
729.3377	5034
731.7667	5061
734.1931	5042
736.6208	4975
739.0498	5079
741.4742	5055
743.9	5083
746.3231	5066
748.7476	5114
751.1713	5168
753.5945	5156
756.015	5240
758.4368	5190
760.856	5233
763.2766	5216
765.6965	5262
768.1157	5284
770.5323	5160
772.9483	5222
775.3656	5245
777.7822	5249
780.1963	5250
782.6116	5264
785.0244	5217
787.4365	5228
789.8499	5209
792.2626	5282
794.6728	5248
797.0823	5298
799.4911	5246
801.8994	5172
804.3109	5247
806.7178	5231
809.124	5300
811.5297	5243
813.9347	5240
816.341	5242
818.7447	5261
821.1478	5273
823.5502	5229
825.952	5332
828.3531	5299
830.7556	5221
833.1554	5320
835.5546	5384
837.9532	5308
840.3511	5280
842.7504	5344
845.1451	5364
847.5411	5448
849.9365	5454
852.3312	5455
854.7272	5388
857.1187	5316
859.5115	5318
861.9037	5308
864.2952	5440
866.6842	5358
869.0764	5406
871.4661	5282
873.8531	5379
876.2415	5319
878.6272	5298
881.0162	5306
883.4026	5325
885.7866	5303
888.1717	5388
890.5543	5333
892.9382	5321
895.3215	5343
897.7041	5392
900.0842	5378
902.4655	5436
904.8443	5438
907.2244	5354
909.6039	5357
911.9808	5521
914.357	5417
916.7346	5482
919.1115	5486
921.4859	5472
923.8616	5560
926.2347	5564
928.6071	5504
930.979	5618
933.3541	5564
935.7247	5658
938.0946	5515
940.4639	5740
942.8326	5609
945.2026	5802
947.5701	5875
949.9369	5961
952.305	6081
954.6705	6313
957.0355	6420
959.4017	6623
961.7654	6725
964.1284	6680
966.4908	6553
968.8527	6398
971.2138	6131
973.5743	5892
975.9343	5800
978.2936	5810
980.6522	5751
983.0122	5717
985.3696	5576
987.7245	5643
990.0807	5548
992.4362	5479
994.7911	5535
997.1474	5559
999.4991	5586
1001.852	5597
1004.205	5564
1006.555	5652
1008.908	5611
1011.258	5512
1013.606	5547
1015.956	5522
1018.302	5671
1020.652	5666
1022.998	5622
1025.345	5687
1027.691	5678
1030.035	5675
1032.378	5738
1034.724	5649
1037.066	5606
1039.409	5628
1041.75	5620
1044.092	5738
1046.433	5627
1048.771	5631
1051.112	5726
1053.449	5645
1055.786	5789
1058.124	5723
1060.462	5703
1062.797	5671
1065.131	5846
1067.467	5655
1069.8	5818
1072.135	5778
1074.467	5824
1076.798	5688
1079.129	5835
1081.459	5687
1083.792	5788
1086.121	5704
1088.449	5687
1090.777	5628
1093.104	5754
1095.431	5695
1097.759	5675
1100.084	5690
1102.408	5635
1104.732	5789
1107.056	5598
1109.379	5716
1111.701	5727
1114.022	5714
1116.343	5815
1118.664	5748
1120.983	5756
1123.303	5669
1125.621	5697
1127.939	5771
1130.256	5743
1132.573	5618
1134.889	5630
1137.205	5796
1139.52	5685
1141.832	5772
1144.146	5804
1146.461	5697
1148.771	5712
1151.083	5755
1153.392	5826
1155.703	5742
1158.011	5662
1160.323	5773
1162.629	5681
1164.938	5716
1167.243	5742
1169.55	5737
1171.857	5793
1174.163	5770
1176.466	5747
1178.769	5878
1181.073	5686
1183.374	5669
1185.677	5700
1187.979	5842
1190.279	5685
1192.578	5817
1194.878	5826
1197.178	5732
1199.476	5731
1201.772	5677
1204.068	5673
1206.366	5730
1208.663	5823
1210.957	5752
1213.251	5704
1215.544	5764
1217.836	5772
1220.128	5858
1222.421	5895
1224.712	5759
1227.002	5771
1229.292	5808
1231.581	5887
1233.871	5900
1236.159	5855
1238.446	5957
1240.732	5846
1243.018	5888
1245.304	5878
1247.59	5956
1249.874	5914
1252.156	5976
1254.439	5845
1256.721	5908
1259.005	5974
1261.286	5970
1263.565	5966
1265.845	5912
1268.125	5932
1270.403	5967
1272.682	5884
1274.959	5977
1277.234	5930
1279.511	6000
1281.787	5828
1284.062	5877
1286.337	5902
1288.609	5966
1290.882	5746
1293.153	5875
1295.428	5800
1297.698	5920
1299.969	5907
1302.237	5810
1304.507	5767
1306.777	5946
1309.044	5799
1311.312	5878
1313.578	5887
1315.844	5913
1318.109	5877
1320.375	5793
1322.638	5833
1324.903	5768
1327.165	5831
1329.427	5880
1331.69	5815
1333.952	5880
1336.212	5841
1338.471	5951
1340.73	5869
1342.988	5810
1345.248	5861
1347.505	5753
1349.763	5932
1352.019	5847
1354.274	5865
1356.53	5774
1358.784	5810
1361.038	5829
1363.291	5913
1365.543	5928
1367.797	5848
1370.048	5957
1372.296	5927
1374.546	5946
1376.796	5911
1379.045	5854
1381.295	5843
1383.542	5925
1385.787	5768
1388.034	5842
1390.28	5982
1392.527	5835
1394.772	5916
1397.014	5916
1399.258	5932
1401.501	5921
1403.741	5980
1405.985	5955
1408.226	6023
1410.465	6009
1412.705	5927
1414.943	5960
1417.184	5942
1419.42	5959
1421.658	5970
1423.894	5936
1426.13	5986
1428.366	6026
1430.602	6010
1432.835	5967
1435.069	6003
1437.301	5916
1439.535	6004
1441.767	5908
1443.997	6048
1446.229	6023
1448.458	6020
1450.687	5946
1452.916	6129
1455.146	6023
1457.372	6111
1459.599	6178
1461.824	6154
1464.051	5944
1466.277	6005
1468.501	6147
1470.725	6149
1472.948	5987
1475.17	6029
1477.393	5936
1479.614	5984
1481.837	5899
1484.057	5888
1486.276	6019
1488.497	5937
1490.715	5877
1492.932	5848
1495.148	5837
1497.364	6022
1499.58	5883
1501.798	5869
1504.012	5879
1506.227	5791
1508.44	5874
1510.653	5798
1512.866	5875
1515.078	5880
1517.289	5828
1519.5	5832
1521.711	5849
1523.92	5944
1526.13	5809
1528.338	5857
1530.544	5895
1532.752	5858
1534.959	5867
1537.165	5957
1539.371	5833
1541.574	5815
1543.779	5860
1545.983	5877
1548.187	6014
1550.39	5942
1552.59	5949
1554.792	5960
1556.991	5955
1559.19	5950
1561.392	5942
1563.59	5841
1565.789	5973
1567.986	6012
1570.182	6025
1572.381	5960
1574.576	6023
1576.771	6005
1578.966	6058
1581.16	6064
1583.354	6058
1585.546	6072
1587.74	6139
1589.931	6095
1592.121	6055
1594.311	5954
1596.502	6107
1598.693	6007
1600.881	6101
1603.069	6103
1605.256	6047
1607.445	6069
1609.631	6076
1611.816	6109
1614.001	6089
1616.186	6079
1618.37	6145
1620.555	6035
1622.737	6121
1624.919	6132
1627.101	6082
1629.282	6088
1631.463	6133
1633.643	6150
1635.822	6027
1638.001	6111
1640.179	6095
1642.359	6170
1644.534	6135
1646.711	6152
1648.887	6135
1651.062	6080
1653.235	6121
1655.412	6156
1657.586	6081
1659.757	6241
1661.93	6176
1664.1	6097
1666.274	6149
1668.445	6225
1670.614	6173
1672.784	6095
1674.951	6175
1677.12	6153
1679.289	6185
1681.457	6111
1683.622	6168
1685.789	6118
1687.953	6162
1690.121	6200
1692.284	6048
1694.447	6148
1696.611	6088
1698.772	6030
1700.935	6087
1703.098	5967
1705.258	6022
1707.417	6005
1709.576	6132
1711.736	6069
1713.896	6028
1716.053	5990
1718.21	6013
1720.366	5942
1722.522	6044
1724.68	6142
1726.835	6077
1728.989	5992
1731.142	5937
1733.295	6075
1735.449	6030
1737.601	5995
1739.753	6063
1741.903	6097
1744.054	6049
1746.203	6039
1748.354	5982
1750.503	6090
1752.651	6025
1754.798	6078
1756.944	6059
1759.092	5999
1761.238	6190
1763.383	6055
1765.528	6013
1767.672	6149
1769.814	5987
1771.959	6133
1774.102	6001
1776.242	6146
1778.384	6154
1780.525	6153
1782.665	5954
1784.805	6082
1786.945	6317
1789.082	6094
1791.22	6199
1793.36	6076
1795.495	6063
1797.632	6246
1799.766	6211
1801.902	5988
1804.035	6145
1806.172	6063
1808.304	6069
1810.436	6072
1812.569	6209
1814.699	6227
1816.833	6055
1818.963	6184
1821.092	6088
1823.222	6039
1825.35	6102
1827.478	6081
1829.608	6065
1831.734	5922
1833.86	5947
1835.986	6058
1838.11	6043
1840.238	6011
1842.362	6111
1844.485	6076
1846.608	6133
1848.73	6117
1850.853	5964
1852.974	6136
1855.097	6060
1857.217	6054
1859.336	6046
1861.455	6000
1863.576	6131
1865.693	5997
1867.811	6094
1869.926	6026
1872.042	6000
1874.16	6024
1876.275	6007
1878.39	6187
1880.504	6119
1882.618	5986
1884.731	5980
1886.843	6052
1888.956	6043
1891.067	6035
1893.178	6046
1895.287	6038
1897.399	6165
1899.508	6104
1901.617	6062
1903.724	6025
1905.832	6155
1907.941	6083
1910.046	6064
1912.152	6101
1914.256	6109
1916.361	6172
1918.464	6050
1920.57	6160
1922.672	6124
1924.775	6145
1926.876	6045
1928.978	6080
1931.08	6216
1933.181	6145
1935.28	6084
1937.38	6126
1939.478	6112
1941.577	6287
1943.675	6176
1945.771	6211
1947.867	6087
1949.964	6084
1952.058	6183
1954.154	6130
1956.248	6026
1958.343	6150
1960.435	6271
1962.527	6178
1964.62	6148
1966.711	6117
1968.802	6165
1970.892	6129
1972.983	6022
1975.072	6093
1977.162	6129
1979.25	6006
1981.337	6081
1983.424	6124
1985.51	6071
1987.598	6084
1989.683	6057
1991.768	6143
1993.852	6017
1995.934	6163
1998.019	6060
2000.102	6068
2002.184	6075
2004.266	6087
2006.347	5966
2008.427	6071
2010.508	6113
2012.587	6083
2014.666	6056
2016.745	6095
2018.821	6031
2020.9	6027
2022.977	6077
2025.052	6062
2027.128	6053
2029.204	6003
2031.277	6044
2033.353	6049
2035.425	6095
2037.499	6002
2039.57	6045
2041.642	6049
2043.714	6152
2045.786	5987
2047.855	6041
2049.925	6135
2051.993	6035
2054.064	6035
2056.132	6083
2058.2	6048
2060.266	6118
2062.332	6073
2064.398	5972
2066.465	5978
2068.529	6069
2070.592	6098
2072.657	6071
2074.719	6019
2076.783	6026
2078.845	5973
2080.907	6155
2082.968	5990
2085.028	6056
2087.087	6200
2089.148	6081
2091.207	6036
2093.264	5964
2095.322	6049
2097.379	5933
2099.439	5998
2101.495	5974
2103.55	6048
2105.605	6047
2107.658	6022
2109.713	5999
2111.767	6055
2113.82	6026
2115.872	6110
2117.924	5957
2119.975	5992
2122.028	6017
2124.078	6014
2126.126	6009
2128.176	5889
2130.225	6013
2132.275	6118
2134.321	5906
2136.368	6005
2138.415	5966
2140.461	6099
2142.505	6019
2144.552	6073
2146.597	5987
2148.64	6079
2150.684	6034
2152.725	6006
2154.77	5973
2156.811	5973
2158.852	5959
2160.894	5947
2162.933	6066
2164.973	6093
2167.013	5940
2169.051	5968
2171.089	5958
2173.126	5995
2175.164	5890
2177.201	6051
2179.236	5965
2181.273	5924
2183.307	5883
2185.341	5797
2187.377	5927
2189.41	5812
2191.442	5859
2193.473	5985
2195.506	5978
2197.539	5922
2199.569	5796
2201.598	5835
2203.628	5886
2205.656	5938
2207.686	5878
2209.716	5942
2211.743	5833
2213.769	5897
2215.796	5829
2217.821	5828
2219.848	5716
2221.873	5755
2223.897	5830
2225.921	5782
2227.944	5856
2229.967	5827
2231.991	5879
2234.011	5869
2236.032	5794
2238.053	5811
2240.073	5942
2242.094	5788
2244.114	5853
2246.131	5789
2248.149	5717
2250.167	5915
2252.186	5758
2254.201	5938
2256.218	5802
2258.233	5891
2260.247	5875
2262.262	5878
2264.278	5940
2266.29	5766
2268.303	5816
2270.315	5776
2272.327	5789
2274.341	5825
2276.35	5767
2278.361	5819
2280.37	5729
2282.38	5859
2284.388	5741
2286.397	5852
2288.405	5834
2290.412	5815
2292.419	5866
2294.425	5820
2296.431	5727
2298.437	5807
2300.441	5789
2302.445	5790
2304.449	5654
2306.453	5906
2308.455	5773
2310.457	5823
2312.459	5870
2314.46	5863
2316.46	5851
2318.461	5793
2320.46	5910
2322.458	5814
2324.458	5807
2326.456	5715
2328.455	5818
2330.451	5733
2332.447	5742
2334.443	5797
2336.438	5757
2338.433	5728
2340.429	5772
2342.422	5620
2344.416	5703
2346.408	5756
2348.399	5701
2350.393	5686
2352.384	5755
2354.375	5693
2356.365	5781
2358.355	5649
2360.344	5634
2362.333	5713
2364.322	5658
2366.309	5696
2368.295	5696
2370.282	5715
2372.27	5767
2374.256	5621
2376.24	5727
2378.225	5748
2380.208	5687
2382.194	5783
2384.177	5580
2386.159	5681
2388.142	5639
2390.122	5643
2392.105	5644
2394.085	5515
2396.066	5674
2398.044	5636
2400.024	5736
2402.002	5687
2403.982	5582
2405.959	5647
2407.935	5591
2409.913	5579
2411.888	5591
2413.865	5524
2415.84	5634
2417.814	5602
2419.788	5526
2421.762	5515
2423.735	5595
2425.708	5583
2427.68	5474
2429.651	5614
2431.623	5579
2433.593	5592
2435.564	5516
2437.533	5657
2439.502	5557
2441.47	5557
2443.438	5652
2445.406	5637
2447.373	5549
2449.34	5610
2451.305	5560
2453.271	5601
2455.235	5557
2457.201	5656
2459.165	5653
2461.129	5558
2463.092	5454
2465.054	5526
2467.018	5560
2468.978	5565
2470.939	5553
2472.899	5529
2474.86	5508
2476.819	5458
2478.778	5591
2480.737	5505
2482.695	5504
2484.653	5461
2486.609	5543
2488.567	5492
2490.524	5504
2492.478	5423
2494.433	5522
2496.387	5543
2498.343	5518
2500.297	5498
2502.249	5520
2504.202	5503
2506.153	5492
2508.105	5492
2510.057	5506
2512.008	5582
2513.957	5464
2515.906	5455
2517.855	5530
2519.805	5485
2521.754	5410
2523.7	5406
2525.647	5610
2527.594	5359
2529.54	5595
2531.486	5461
2533.431	5521
2535.376	5408
2537.32	5479
2539.263	5422
2541.207	5388
2543.151	5489
2545.093	5507
2547.034	5527
2548.975	5363
2550.917	5418
2552.856	5499
2554.796	5447
2556.735	5506
2558.673	5528
2560.611	5460
2562.55	5526
2564.487	5455
2566.424	5454
2568.36	5443
2570.296	5361
2572.232	5445
2574.167	5433
2576.101	5455
2578.035	5413
2579.969	5427
2581.902	5406
2583.834	5460
2585.766	5563
2587.698	5382
2589.628	5502
2591.557	5487
2593.489	5423
2595.419	5452
2597.348	5530
2599.275	5454
2601.204	5413
2603.131	5435
2605.059	5446
2606.986	5407
2608.911	5512
2610.837	5446
2612.76	5488
2614.687	5476
2616.61	5472
2618.534	5474
2620.457	5467
2622.38	5498
2624.302	5473
2626.225	5420
2628.145	5418
2630.067	5497
2631.986	5453
2633.906	5450
2635.827	5481
2637.745	5452
2639.662	5551
2641.581	5437
2643.498	5326
2645.415	5455
2647.331	5531
2649.248	5389
2651.163	5469
2653.077	5392
2654.993	5462
2656.906	5407
2658.821	5423
2660.733	5469
2662.646	5453
2664.557	5418
2666.47	5419
2668.381	5460
2670.291	5446
2672.201	5355
2674.11	5378
2676.021	5458
2677.929	5394
2679.837	5423
2681.745	5448
2683.652	5373
2685.56	5411
2687.466	5423
2689.371	5388
2691.276	5339
2693.181	5404
2695.085	5393
2696.991	5363
2698.893	5429
2700.796	5360
2702.698	5399
2704.601	5238
2706.502	5327
2708.404	5295
2710.304	5359
2712.203	5403
2714.103	5252
2716.003	5454
2717.902	5361
2719.8	5229
2721.697	5282
2723.594	5317
2725.49	5352
2727.389	5282
2729.283	5353
2731.179	5283
2733.073	5279
2734.968	5329
2736.863	5269
2738.757	5378
2740.649	5272
2742.541	5324
2744.433	5368
2746.324	5255
2748.216	5214
2750.107	5301
2751.997	5280
2753.886	5166
2755.776	5264
2757.666	5396
2759.553	5227
2761.44	5223
2763.327	5270
2765.215	5275
2767.102	5199
2768.988	5282
2770.873	5196
2772.757	5261
2774.641	5278
2776.525	5295
2778.41	5246
2780.292	5226
2782.175	5190
2784.057	5170
2785.938	5211
2787.821	5246
2789.701	5147
2791.581	5120
2793.461	5115
2795.34	5140
2797.219	5254
2799.099	5290
2800.975	5223
2802.853	5249
2804.73	5228
2806.606	5159
2808.484	5179
2810.358	5142
2812.233	5217
2814.108	5105
2815.981	5261
2817.857	5183
2819.73	5196
2821.602	5143
2823.474	5157
2825.346	5274
2827.217	5072
2829.089	5221
2830.959	5220
2832.829	5207
2834.698	5097
2836.567	5167
2838.436	5190
2840.305	5157
2842.172	5154
2844.04	5144
2845.905	5143
2847.772	5195
2849.639	5096
2851.503	5098
2853.369	5087
2855.232	5219
2857.096	5209
2858.961	5183
2860.824	5211
2862.686	5188
2864.547	5294
2866.41	5252
2868.272	5158
2870.132	5172
2871.992	5369
2873.851	5310
2875.711	5337
2877.57	5307
2879.429	5380
2881.287	5453
2883.144	5554
2885.001	5418
2886.857	5356
2888.714	5361
2890.57	5460
2892.425	5356
2894.279	5444
2896.133	5479
2897.987	5198
2899.842	5446
2901.694	5281
2903.547	5328
2905.397	5528
2907.249	5283
2909.101	5394
2910.952	5318
2912.802	5398
2914.652	5354
2916.5	5425
2918.35	5488
2920.198	5543
2922.045	5429
2923.893	5605
2925.74	5513
2927.585	5603
2929.433	5636
2931.279	5561
2933.123	5699
2934.968	5663
2936.811	5674
2938.656	5725
2940.5	5747
2942.342	5835
2944.185	5802
2946.026	5901
2947.87	5843
2949.71	5620
2951.549	5758
2953.39	5762
2955.229	5728
2957.069	5642
2958.908	5593
2960.746	5632
2962.584	5475
2964.421	5570
2966.257	5560
2968.094	5470
2969.931	5411
2971.766	5353
2973.601	5432
2975.435	5412
2977.27	5363
2979.105	5358
2980.938	5435
2982.77	5367
2984.602	5417
2986.434	5349
2988.267	5346
2990.097	5243
2991.927	5215
2993.757	5315
2995.587	5279
2997.417	5132
2999.246	5249
3001.074	5086
3002.902	5129
3004.729	5076
3006.556	5186
3008.384	5089
3010.21	5127
3012.036	5113
3013.861	5027
3015.684	4957
3017.51	4952
3019.334	4999
3021.157	4980
3022.981	5009
3024.802	4940
3026.624	4955
3028.448	4899
3030.267	4847
3032.088	4899
3033.909	4897
3035.728	4911
3037.549	4839
3039.368	4867
3041.186	4880
3043.004	4850
3044.821	4882
3046.64	4836
3048.455	4894
3050.272	4757
3052.087	4901
3053.903	4796
3055.717	4812
3057.534	4754
3059.347	4831
3061.16	4730
3062.974	4866
3064.785	4785
3066.598	4785
3068.411	4757
3070.222	4802
3072.032	4765
3073.844	4876
3075.653	4815
3077.463	4882
3079.272	4757
3081.08	4774
3082.889	4670
3084.697	4695
3086.505	4676
3088.312	4755
3090.118	4682
3091.924	4735
3093.729	4785
3095.535	4660
3097.34	4667
3099.144	4768
3100.947	4727
3102.75	4628
3104.553	4668
3106.357	4766
3108.159	4588
3109.961	4663
3111.762	4674
3113.562	4610
3115.365	4644
3117.164	4518
3118.964	4643
3120.761	4599
3122.56	4712
3124.36	4635
3126.158	4683
3127.954	4687
3129.75	4629
3131.547	4556
3133.343	4562
3135.139	4563
3136.934	4593
3138.729	4606
3140.522	4543
3142.317	4576
3144.11	4702
3145.904	4628
3147.695	4483
3149.488	4706
3151.28	4595
3153.07	4617
3154.863	4569
3156.652	4515
3158.441	4608
3160.231	4527
3162.019	4546
3163.81	4541
3165.597	4448
3167.384	4568
3169.172	4592
3170.958	4518
3172.745	4511
3174.532	4420
3176.317	4512
3178.101	4492
3179.885	4526
3181.67	4480
3183.455	4523
3185.238	4489
3187.02	4511
3188.802	4510
3190.585	4426
3192.368	4421
3194.149	4451
3195.929	4497
3197.709	4479
3199.489	4529
3201.268	4445
3203.048	4473
3204.826	4535
3206.604	4428
3208.382	4503
3210.159	4492
3211.937	4411
3213.713	4381
3215.489	4395
3217.263	4452
3219.038	4417
3220.815	4496
3222.589	4452
3224.363	4509
3226.136	4430
3227.908	4415
3229.681	4522
3231.454	4421
3233.226	4416
3234.996	4449
3236.767	4456
3238.538	4391
3240.308	4322
3242.078	4352
3243.847	4398
3245.615	4374
3247.384	4438
3249.15	4396
3250.92	4394
3252.686	4374
3254.453	4383
3256.218	4418
3257.984	4406
3259.75	4450
3261.515	4423
3263.279	4404
3265.044	4385
3266.806	4401
3268.57	4407
3270.334	4457
3272.095	4360
3273.856	4366
3275.619	4428
3277.379	4459
3279.14	4402
3280.9	4321
3282.661	4446
3284.419	4384
3286.178	4307
3287.937	4422
3289.695	4325
3291.453	4356
3293.21	4391
3294.967	4339
3296.723	4453
3298.48	4421
3300.235	4398
3301.99	4504
3303.744	4405
3305.498	4417
3307.253	4384
3309.006	4310
3310.759	4361
3312.511	4393
3314.263	4412
3316.017	4439
3317.768	4404
3319.519	4373
3321.268	4310
3323.018	4362
3324.767	4324
3326.518	4376
3328.267	4289
3330.014	4487
3331.762	4375
3333.509	4438
3335.258	4383
3337.003	4348
3338.75	4366
3340.496	4384
3342.24	4352
3343.987	4345
3345.732	4235
3347.475	4249
3349.219	4282
3350.961	4288
3352.705	4315
3354.448	4230
3356.19	4319
3357.931	4234
3359.672	4339
3361.412	4232
3363.155	4229
3364.894	4256
3366.633	4279
3368.372	4196
3370.11	4347
3371.849	4326
3373.588	4185
3375.325	4233
3377.061	4279
3378.799	4253
3380.534	4278
3382.271	4258
3384.006	4155
3385.741	4293
3387.475	4210
3389.209	4276
3390.944	4295
3392.677	4180
3394.409	4177
3396.143	4263
3397.874	4169
3399.606	4233
3401.338	4214
3403.069	4204
3404.799	4185
3406.528	4233
3408.258	4159
3409.988	4163
3411.717	4213
3413.445	4175
3415.173	4162
3416.899	4270
3418.626	4163
3420.354	4159
3422.08	4121
3423.806	4183
3425.531	4131
3427.255	4232
3428.981	4171
3430.705	4155
3432.429	4161
3434.151	4177
3435.875	4189
3437.599	4122
3439.321	4056
3441.042	4104
3442.763	4067
3444.483	4063
3446.204	4069
3447.926	4184
3449.645	4119
3451.364	4119
3453.082	3983
3454.801	4094
3456.52	4142
3458.238	4049
3459.954	4034
3461.671	3951
3463.387	4045
3465.104	4105
3466.82	4056
3468.534	4121
3470.25	4066
3471.963	3987
3473.676	3992
3475.392	4011
3477.104	4047
3478.817	3988
3480.528	4015
3482.241	4050
3483.954	3931
3485.664	4089
3487.374	3961
3489.084	3929
3490.795	3929
3492.504	3970
3494.214	3942
3495.922	3920
3497.63	3941
3499.338	3963
3501.045	3880
3502.753	3917
3504.459	3914
3506.166	3959
3507.871	3942
3509.576	3925
3511.283	3931
3512.987	3919
3514.691	3885
3516.395	3962
3518.098	3883
3519.8	3939
3521.504	3942
3523.206	3914
3524.908	3893
3526.609	3912
3528.309	3888
3530.011	3943
3531.711	3840
3533.411	3850
3535.109	3919
3536.808	3828
3538.507	3903
3540.206	3811
3541.904	3829
3543.601	3913
3545.297	3845
3546.994	3944
3548.69	3902
3550.387	3781
3552.081	3859
3553.776	3809
3555.47	3811
3557.166	3768
3558.859	3866
3560.553	3855
3562.245	3842
3563.938	3776
3565.629	3824
3567.322	3854
3569.014	3811
3570.704	3793
3572.394	3827
3574.084	3783
3575.775	3773
3577.464	3803
3579.152	3667
3580.842	3789
3582.529	3815
3584.216	3792
3585.905	3783
3587.591	3806
3589.279	3636
3590.964	3825
3592.649	3738
3594.336	3739
3596.021	3724
3597.705	3753
3599.388	3707
3601.072	3755
3602.757	3732
3604.439	3711
3606.122	3659
3607.803	3732
3609.485	3573
3611.167	3710
3612.849	3594
3614.529	3618
3616.208	3717
3617.888	3695
3619.567	3672
3621.247	3645
3622.926	3600
3624.603	3665
3626.281	3621
3627.958	3549
3629.635	3640
3631.312	3637
3632.989	3563
3634.665	3569
3636.339	3576
3638.014	3573
3639.691	3561
3641.364	3554
3643.038	3595
3644.71	3586
3646.384	3664
3648.058	3641
3649.729	3662
3651.402	3509
3653.073	3572
3654.744	3480
3656.414	3516
3658.085	3497
3659.755	3565
3661.424	3602
3663.094	3528
3664.762	3499
3666.431	3555
3668.099	3579
3669.766	3492
3671.433	3496
3673.099	3526
3674.768	3571
3676.433	3580
3678.098	3399
3679.763	3553
3681.428	3504
3683.093	3456
3684.757	3514
3686.421	3509
3688.083	3487
3689.746	3622
3691.408	3549
3693.071	3441
3694.733	3475
3696.394	3533
3698.054	3524
3699.715	3481
3701.375	3523
3703.036	3529
3704.695	3456
3706.354	3436
3708.012	3513
3709.67	3509
3711.329	3458
3712.987	3501
3714.644	3451
3716.299	3422
3717.955	3426
3719.613	3413
3721.268	3450
3722.923	3406
3724.577	3497
3726.231	3444
3727.885	3397
3729.539	3446
3731.192	3360
3732.845	3393
3734.497	3422
3736.149	3367
3737.802	3387
3739.453	3447
3741.104	3392
3742.753	3324
3744.404	3476
3746.052	3337
3747.704	3431
3749.352	3360
3751	3397
3752.648	3392
3754.296	3381
3755.944	3405
3757.59	3331
3759.238	3346
3760.883	3345
3762.528	3335
3764.176	3418
3765.82	3328
3767.464	3331
3769.109	3348
3770.753	3321
3772.396	3390
3774.04	3237
3775.683	3404
3777.325	3396
3778.967	3368
3780.608	3355
3782.25	3282
3783.89	3251
3785.531	3296
3787.17	3330
3788.81	3354
3790.45	3293
3792.09	3269
3793.729	3351
3795.366	3316
3797.003	3355
3798.64	3330
3800.278	3241
3801.915	3220
3803.551	3293
3805.187	3177
3806.822	3261
3808.458	3302
3810.093	3252
3811.726	3307
3813.36	3345
3814.994	3259
3816.627	3227
3818.262	3229
3819.893	3245
3821.525	3223
3823.157	3239
3824.787	3244
3826.42	3256
3828.051	3240
3829.68	3196
3831.31	3225
3832.938	3184
3834.569	3255
3836.198	3237
3837.825	3154
3839.454	3177
3841.08	3265
3842.708	3185
3844.335	3242
3845.962	3228
3847.587	3173
3849.212	3215
3850.838	3182
3852.463	3144
3854.089	3204
3855.712	3256
3857.335	3221
3858.959	3182
3860.582	3203
3862.205	3139
3863.827	3144
3865.449	3226
3867.07	3070
3868.691	3238
3870.312	3120
3871.933	3134
3873.553	3139
3875.173	3164
3876.792	3100
3878.411	3108
3880.03	3055
3881.647	3210
3883.265	3169
3884.882	3110
3886.499	3127
3888.116	3120
3889.732	3159
3891.348	3081
3892.964	3155
3894.579	3044
3896.195	3174
3897.809	3109
3899.423	3126
3901.036	3087
3902.648	3092
3904.261	3055
3905.875	3140
3907.487	3106
3909.099	3132
3910.709	3111
3912.321	3192
3913.933	3099
3915.542	3137
3917.152	3060
3918.762	3083
3920.37	3120
3921.98	3083
3923.589	3029
3925.196	3032
3926.804	3116
3928.41	3126
3930.018	3019
3931.626	3108
3933.231	3017
3934.838	3092
3936.442	3031
3938.046	3008
3939.653	3081
3941.257	3015
3942.861	3051
3944.464	2969
3946.068	3083
3947.67	3026
3949.273	3078
3950.876	3019
3952.477	3073
3954.078	3061
3955.678	3020
3957.281	3033
3958.881	2991
3960.48	3029
3962.079	3058
3963.678	2993
3965.279	2900
3966.877	3012
3968.475	3044
3970.072	3017
3971.669	3060
3973.266	3063
3974.864	2961
3976.459	2988
3978.055	2952
3979.65	2994
3981.245	3019
3982.841	2974
3984.436	3000
3986.03	3000
3987.623	2917
3989.216	2974
3990.809	2937
3992.403	2943
3993.995	2941
3995.586	3014
3997.177	2943
3998.768	2971
4000.361	2927
4001.951	2901
4003.54	2866
4005.13	2873
4006.719	2911
4008.31	2895
4009.897	2911
4011.485	2890
4013.073	2941
4014.66	2919
4016.247	2904
4017.834	2896
4019.421	2855
4021.006	2787
4022.592	2875
4024.178	2849
4025.763	2904
4027.348	2892
4028.932	2909
4030.515	2908
4032.099	2959
4033.682	2863
4035.266	2848
4036.847	2825
4038.429	2891
4040.011	2854
4041.592	2869
4043.173	2892
4044.755	2813
4046.334	2810
4047.913	2819
4049.494	2765
4051.074	2815
4052.652	2785
4054.23	2861
4055.807	2856
4057.385	2838
4058.963	2847
4060.541	2812
4062.117	2846
4063.693	2814
4065.269	2875
4066.844	2882
4068.42	2879
4069.995	2803
4071.569	2787
4073.143	2780
4074.716	2770
4076.291	2749
4077.864	2713
4079.436	2768
4081.009	2823
4082.58	2767
4084.152	2825
4085.723	2714
4087.294	2742
4088.865	2772
4090.435	2807
4092.005	2792
4093.574	2744
4095.143	2808
4096.712	2718
4098.279	2842
4099.848	2706
4101.416	2782
4102.984	2789
4104.55	2679
4106.117	2756
4107.682	2805
4109.248	2664
4110.815	2728
4112.379	2695
4113.945	2729
4115.508	2736
4117.073	2690
4118.637	2698
4120.201	2706
4121.763	2680
4123.325	2692
4124.888	2621
4126.449	2656
4128.013	2757
4129.573	2713
4131.133	2743
4132.694	2663
4134.254	2672
4135.814	2643
4137.374	2672
4138.933	2699
4140.491	2685
4142.049	2667
4143.607	2620
4145.167	2749
4146.724	2686
4148.28	2656
4149.836	2619
4151.392	2630
4152.949	2567
4154.504	2631
4156.059	2599
4157.614	2549
4159.168	2606
4160.723	2656
4162.277	2649
4163.83	2584
4165.383	2632
4166.936	2625
4168.488	2607
4170.041	2542
4171.593	2542
4173.144	2616
4174.695	2574
4176.246	2604
4177.796	2557
4179.346	2614
4180.896	2574
4182.445	2604
4183.994	2609
4185.542	2534
4187.091	2578
4188.639	2578
4190.185	2543
4191.732	2575
4193.279	2496
4194.826	2489
4196.373	2542
4197.918	2569
4199.463	2582
4201.008	2535
4202.553	2515
4204.098	2575
4205.641	2536
4207.185	2539
4208.728	2503
4210.271	2546
4211.814	2491
4213.357	2528
4214.898	2519
4216.439	2490
4217.98	2512
4219.522	2557
4221.062	2453
4222.603	2506
4224.142	2560
4225.681	2459
4227.222	2475
4228.76	2495
4230.298	2513
4231.835	2472
4233.373	2557
4234.911	2558
4236.449	2531
4237.985	2486
4239.521	2481
4241.057	2491
4242.592	2385
4244.128	2571
4245.663	2530
4247.197	2508
4248.731	2437
4250.265	2442
4251.798	2491
4253.333	2475
4254.865	2482
4256.397	2461
4257.93	2441
4259.461	2462
4260.994	2418
4262.525	2475
4264.056	2421
4265.586	2498
4267.115	2466
4268.646	2447
4270.176	2548
4271.705	2451
4273.232	2451
4274.761	2433
4276.289	2421
4277.818	2428
4279.345	2420
4280.872	2406
4282.399	2358
4283.924	2420
4285.452	2434
4286.976	2473
4288.502	2485
4290.026	2450
4291.551	2460
4293.074	2395
4294.6	2344
4296.123	2362
4297.646	2374
4299.168	2456
4300.691	2409
4302.214	2328
4303.736	2414
4305.257	2402
4306.778	2329
4308.299	2377
4309.82	2407
4311.34	2264
4312.86	2363
4314.379	2389
