400.0745	5524
402.597	5647
405.1208	5528
407.6419	5545
410.1623	5554
412.6819	5571
415.201	5618
417.7172	5610
420.2369	5660
422.7538	5771
425.2701	5825
427.7856	5876
430.3005	5937
432.8147	5936
435.3282	5884
437.841	5804
440.3511	5773
442.8625	5860
445.3753	6024
447.8854	5949
450.3927	5933
452.9014	5857
455.4073	5917
457.9146	5882
460.4233	5982
462.9272	5948
465.4325	5881
467.935	5880
470.4389	5915
472.9421	5929
475.4446	5906
477.9444	5928
480.4456	5863
482.944	5972
485.4417	6102
487.9429	6056
490.4393	6043
492.935	6049
495.4321	6045
497.9264	6097
500.4221	6027
502.9171	6155
505.4094	6135
507.9011	6121
510.392	6112
512.8864	6023
515.3759	6022
517.8649	6148
520.3531	6044
522.8406	6095
525.3275	6152
527.8178	6144
530.3033	6112
532.7881	6177
535.2723	6143
537.7558	6232
540.2407	6149
542.7228	6233
545.2043	6068
547.6851	6157
550.1652	6279
552.6467	6119
555.1255	6226
557.6016	6153
560.079	6125
562.5557	6358
565.0318	6266
567.5092	6352
569.984	6419
572.456	6361
574.9294	6347
577.4022	6488
579.8762	6518
582.3456	6392
584.8163	6403
587.2863	6459
589.7557	6450
592.2224	6516
594.6924	6462
597.1578	6401
599.6245	6356
602.0905	6383
604.5538	6402
607.0206	6341
609.4825	6387
611.9459	6386
614.4066	6429
616.8686	6350
619.33	6431
621.7906	6416
624.2487	6398
626.708	6416
629.1647	6357
631.6207	6441
634.0801	6345
636.5348	6427
638.9888	6343
641.4442	6395
643.8969	6384
646.3509	6471
648.8022	6406
651.255	6395
653.705	6473
656.1544	6498
658.6031	6391
661.0532	6626
663.5026	6564
665.9493	6516
668.3954	6511
670.8409	6623
673.2877	6623
675.7318	6522
678.1752	6575
680.618	6577
683.0601	6545
685.5035	6642
687.9444	6631
690.3845	6659
692.824	6553
695.2628	6590
697.701	6728
700.1406	6690
702.5774	6633
705.0116	6722
707.4472	6820
709.8821	6770
712.3183	6832
714.7519	6678
717.1829	6789
719.6151	6787
722.0468	6614
724.4777	6768
726.908	6767
729.3377	6899
731.7667	6913
734.1931	6764
736.6208	6909
739.0498	6880
741.4742	6889
743.9	7023
746.3231	7016
748.7476	6985
751.1713	6944
753.5945	6985
756.015	7031
758.4368	7078
760.856	7111
763.2766	7020
765.6965	7095
768.1157	7171
770.5323	7224
772.9483	7055
775.3656	7067
777.7822	7128
780.1963	7121
782.6116	7131
785.0244	7162
787.4365	7250
789.8499	7136
792.2626	7023
794.6728	7037
797.0823	7135
799.4911	7119
801.8994	7047
804.3109	7136
806.7178	7173
809.124	7160
811.5297	7139
813.9347	7203
816.341	7237
818.7447	7282
821.1478	7220
823.5502	7272
825.952	7310
828.3531	7289
830.7556	7217
833.1554	7194
835.5546	7201
837.9532	7166
840.3511	7304
842.7504	7304
845.1451	7273
847.5411	7250
849.9365	7426
852.3312	7368
854.7272	7377
857.1187	7358
859.5115	7337
861.9037	7359
864.2952	7316
866.6842	7214
869.0764	7381
871.4661	7308
873.8531	7361
876.2415	7441
878.6272	7415
881.0162	7487
883.4026	7444
885.7866	7267
888.1717	7305
890.5543	7302
892.9382	7286
895.3215	7248
897.7041	7281
900.0842	7378
902.4655	7408
904.8443	7306
907.2244	7412
909.6039	7425
911.9808	7453
914.357	7449
916.7346	7612
919.1115	7563
921.4859	7704
923.8616	7687
926.2347	7766
928.6071	7842
930.979	7696
933.3541	7694
935.7247	7697
938.0946	7740
940.4639	7876
942.8326	7974
945.2026	8014
947.5701	8140
949.9369	8346
952.305	8614
954.6705	8742
957.0355	9132
959.4017	9556
961.7654	9678
964.1284	9505
966.4908	9097
968.8527	8909
971.2138	8419
973.5743	8107
975.9343	8006
978.2936	7911
980.6522	7831
983.0122	7642
985.3696	7674
987.7245	7596
990.0807	7524
992.4362	7594
994.7911	7665
997.1474	7658
999.4991	7543
1001.852	7793
1004.205	7739
1006.555	7688
1008.908	7648
1011.258	7525
1013.606	7626
1015.956	7679
1018.302	7653
1020.652	7554
1022.998	7758
1025.345	7695
1027.691	7675
1030.035	7767
1032.378	7729
1034.724	7866
1037.066	7759
1039.409	7742
1041.75	7780
1044.092	7912
1046.433	7755
1048.771	7738
1051.112	7842
1053.449	7792
1055.786	7811
1058.124	7821
1060.462	7672
1062.797	7873
1065.131	7894
1067.467	7890
1069.8	8031
1072.135	7964
1074.467	7952
1076.798	7909
1079.129	7914
1081.459	7805
1083.792	7769
1086.121	7853
1088.449	7816
1090.777	7890
1093.104	7781
1095.431	7849
1097.759	7793
1100.084	7764
1102.408	7822
1104.732	7763
1107.056	7827
1109.379	7745
1111.701	7890
1114.022	7748
1116.343	7877
1118.664	7836
1120.983	7802
1123.303	7811
1125.621	7798
1127.939	7934
1130.256	7854
1132.573	7712
1134.889	7869
1137.205	7759
1139.52	7805
1141.832	7850
1144.146	7791
1146.461	7759
1148.771	7891
1151.083	7865
1153.392	7721
1155.703	7684
1158.011	7816
1160.323	7849
1162.629	7844
1164.938	7833
1167.243	7775
1169.55	7871
1171.857	7955
1174.163	7858
1176.466	7919
1178.769	7761
1181.073	7806
1183.374	7781
1185.677	7730
1187.979	7885
1190.279	7737
1192.578	7737
1194.878	7826
1197.178	7902
1199.476	8030
1201.772	7817
1204.068	7757
1206.366	7890
1208.663	7819
1210.957	7883
1213.251	7932
1215.544	7817
1217.836	7780
1220.128	7867
1222.421	7840
1224.712	7880
1227.002	7956
1229.292	7922
1231.581	8125
1233.871	7971
1236.159	7965
1238.446	8047
1240.732	8254
1243.018	8074
1245.304	8185
1247.59	8128
1249.874	8186
1252.156	8162
1254.439	8177
1256.721	8111
1259.005	8185
1261.286	8043
1263.565	8106
1265.845	8185
1268.125	8054
1270.403	8115
1272.682	8163
1274.959	8174
1277.234	8009
1279.511	8038
1281.787	8040
1284.062	7977
1286.337	8099
1288.609	7927
1290.882	7937
1293.153	8017
1295.428	8073
1297.698	7935
1299.969	7886
1302.237	8020
1304.507	7899
1306.777	8099
1309.044	7879
1311.312	8040
1313.578	7925
1315.844	8060
1318.109	7842
1320.375	7998
1322.638	7995
1324.903	7971
1327.165	7935
1329.427	7923
1331.69	7969
1333.952	7969
1336.212	8021
1338.471	8037
1340.73	7961
1342.988	8011
1345.248	8026
1347.505	8005
1349.763	8053
1352.019	7992
1354.274	7992
1356.53	7926
1358.784	7886
1361.038	8021
1363.291	7947
1365.543	8024
1367.797	8079
1370.048	7982
1372.296	7984
1374.546	7940
1376.796	8001
1379.045	8015
1381.295	7962
1383.542	8143
1385.787	8026
1388.034	8089
1390.28	8173
1392.527	8048
1394.772	8113
1397.014	8018
1399.258	8097
1401.501	8150
1403.741	8314
1405.985	7914
1408.226	8087
1410.465	8105
1412.705	8237
1414.943	8131
1417.184	8115
1419.42	8269
1421.658	8204
1423.894	8156
1426.13	8248
1428.366	8247
1430.602	8374
1432.835	8216
1435.069	8286
1437.301	8297
1439.535	8291
1441.767	8346
1443.997	8312
1446.229	8285
1448.458	8367
1450.687	8316
1452.916	8319
1455.146	8401
1457.372	8413
1459.599	8439
1461.824	8254
1464.051	8285
1466.277	8460
1468.501	8441
1470.725	8341
1472.948	8234
1475.17	8235
1477.393	8215
1479.614	8086
1481.837	8104
1484.057	8226
1486.276	8039
1488.497	7975
1490.715	8084
1492.932	8127
1495.148	7947
1497.364	8022
1499.58	8003
1501.798	8047
1504.012	7920
1506.227	7921
1508.44	7903
1510.653	7997
1512.866	7951
1515.078	7956
1517.289	7939
1519.5	7870
1521.711	7982
1523.92	7861
1526.13	7861
1528.338	7952
1530.544	7988
1532.752	8005
1534.959	7877
1537.165	7952
1539.371	8025
1541.574	7924
1543.779	7974
1545.983	7908
1548.187	8005
1550.39	8104
1552.59	8034
1554.792	8119
1556.991	7986
1559.19	8022
1561.392	8178
1563.59	8028
1565.789	8136
1567.986	8101
1570.182	8186
1572.381	8150
1574.576	8054
1576.771	8141
1578.966	8188
1581.16	8132
1583.354	8207
1585.546	8113
1587.74	8175
1589.931	8137
1592.121	8016
1594.311	8108
1596.502	8106
1598.693	8174
1600.881	8243
1603.069	8121
1605.256	8271
1607.445	8253
1609.631	8150
1611.816	8220
1614.001	8202
1616.186	8122
1618.37	8373
1620.555	8159
1622.737	8213
1624.919	8413
1627.101	8200
1629.282	8390
1631.463	8218
1633.643	8349
1635.822	8316
1638.001	8299
1640.179	8198
1642.359	8447
1644.534	8420
1646.711	8322
1648.887	8328
1651.062	8354
1653.235	8314
1655.412	8454
1657.586	8482
1659.757	8436
1661.93	8314
1664.1	8399
1666.274	8436
1668.445	8478
1670.614	8474
1672.784	8451
1674.951	8431
1677.12	8408
1679.289	8410
1681.457	8339
1683.622	8403
1685.789	8368
1687.953	8500
1690.121	8267
1692.284	8372
1694.447	8450
1696.611	8134
1698.772	8226
1700.935	8143
1703.098	8274
1705.258	8222
1707.417	8249
1709.576	8317
1711.736	8087
1713.896	8056
1716.053	8329
1718.21	8344
1720.366	8139
1722.522	8175
1724.68	8185
1726.835	8074
1728.989	8102
1731.142	8148
1733.295	8125
1735.449	8072
1737.601	8108
1739.753	8258
1741.903	8138
1744.054	8216
1746.203	8176
1748.354	8170
1750.503	8203
1752.651	8186
1754.798	8224
1756.944	8291
1759.092	8244
1761.238	8210
1763.383	8325
1765.528	8135
1767.672	8126
1769.814	8173
1771.959	8074
1774.102	8302
1776.242	8236
1778.384	8193
1780.525	8297
1782.665	8151
1784.805	8207
1786.945	8273
1789.082	8233
1791.22	8283
1793.36	8189
1795.495	8366
1797.632	8149
1799.766	8356
1801.902	8341
1804.035	8209
1806.172	8397
1808.304	8261
1810.436	8314
1812.569	8394
1814.699	8274
1816.833	8214
1818.963	8275
1821.092	8154
1823.222	8270
1825.35	8210
1827.478	8193
1829.608	8336
1831.734	8168
1833.86	8169
1835.986	8290
1838.11	8270
1840.238	8079
1842.362	8213
1844.485	8191
1846.608	8373
1848.73	8106
1850.853	8264
1852.974	8156
1855.097	8240
1857.217	8188
1859.336	8243
1861.455	8233
1863.576	8183
1865.693	8147
1867.811	8191
1869.926	8243
1872.042	8132
1874.16	8136
1876.275	8143
1878.39	8314
1880.504	8201
1882.618	8169
1884.731	8172
1886.843	8194
1888.956	8220
1891.067	8292
1893.178	8318
1895.287	8138
1897.399	8182
1899.508	8277
1901.617	8337
1903.724	8311
1905.832	8267
1907.941	8245
1910.046	8225
1912.152	8231
1914.256	8245
1916.361	8364
1918.464	8388
1920.57	8203
1922.672	8442
1924.775	8366
1926.876	8442
1928.978	8398
1931.08	8350
1933.181	8458
1935.28	8313
1937.38	8420
1939.478	8273
1941.577	8309
1943.675	8389
1945.771	8480
1947.867	8495
1949.964	8325
1952.058	8337
1954.154	8350
1956.248	8438
1958.343	8329
1960.435	8416
1962.527	8433
1964.62	8218
1966.711	8429
1968.802	8301
1970.892	8379
1972.983	8372
1975.072	8414
1977.162	8348
1979.25	8389
1981.337	8397
1983.424	8304
1985.51	8317
1987.598	8306
1989.683	8305
1991.768	8314
1993.852	8317
1995.934	8126
1998.019	8341
2000.102	8305
2002.184	8354
2004.266	8375
2006.347	8363
2008.427	8362
2010.508	8248
2012.587	8376
2014.666	8409
2016.745	8416
2018.821	8356
2020.9	8435
2022.977	8156
2025.052	8241
2027.128	8415
2029.204	8226
2031.277	8404
2033.353	8404
2035.425	8355
2037.499	8343
2039.57	8403
2041.642	8406
2043.714	8421
2045.786	8325
2047.855	8378
2049.925	8352
2051.993	8305
2054.064	8355
2056.132	8357
2058.2	8371
2060.266	8404
2062.332	8397
2064.398	8416
2066.465	8380
2068.529	8292
2070.592	8407
2072.657	8366
2074.719	8436
2076.783	8289
2078.845	8375
2080.907	8437
2082.968	8469
2085.028	8409
2087.087	8452
2089.148	8465
2091.207	8332
2093.264	8423
2095.322	8361
2097.379	8441
2099.439	8517
2101.495	8573
2103.55	8460
2105.605	8477
2107.658	8370
2109.713	8453
2111.767	8478
2113.82	8338
2115.872	8586
2117.924	8387
2119.975	8433
2122.028	8346
2124.078	8500
2126.126	8337
2128.176	8462
2130.225	8452
2132.275	8412
2134.321	8510
2136.368	8435
2138.415	8530
2140.461	8348
2142.505	8537
2144.552	8354
2146.597	8495
2148.64	8396
2150.684	8372
2152.725	8546
2154.77	8448
2156.811	8310
2158.852	8330
2160.894	8390
2162.933	8336
2164.973	8488
2167.013	8326
2169.051	8437
2171.089	8426
2173.126	8383
2175.164	8337
2177.201	8395
2179.236	8324
2181.273	8387
2183.307	8437
2185.341	8351
2187.377	8289
2189.41	8414
2191.442	8364
2193.473	8378
2195.506	8407
2197.539	8341
2199.569	8338
2201.598	8289
2203.628	8288
2205.656	8497
2207.686	8186
2209.716	8366
2211.743	8272
2213.769	8286
2215.796	8379
2217.821	8275
2219.848	8314
2221.873	8360
2223.897	8341
2225.921	8238
2227.944	8291
2229.967	8231
2231.991	8290
2234.011	8237
2236.032	8330
2238.053	8274
2240.073	8405
2242.094	8197
2244.114	8394
2246.131	8269
2248.149	8320
2250.167	8308
2252.186	8284
2254.201	8356
2256.218	8347
2258.233	8299
2260.247	8206
2262.262	8482
2264.278	8253
2266.29	8258
2268.303	8328
2270.315	8279
2272.327	8259
2274.341	8277
2276.35	8338
2278.361	8295
2280.37	8296
2282.38	8347
2284.388	8260
2286.397	8189
2288.405	8206
2290.412	8252
2292.419	8466
2294.425	8308
2296.431	8387
2298.437	8280
2300.441	8253
2302.445	8329
2304.449	8372
2306.453	8320
2308.455	8230
2310.457	8257
2312.459	8399
2314.46	8172
2316.46	8282
2318.461	8248
2320.46	8214
2322.458	8257
2324.458	8319
2326.456	8331
2328.455	8295
2330.451	8286
2332.447	8139
2334.443	8348
2336.438	8118
2338.433	8110
2340.429	8201
2342.422	8201
2344.416	8242
2346.408	8213
2348.399	8188
2350.393	8056
2352.384	8334
2354.375	8188
2356.365	8128
2358.355	8106
2360.344	8098
2362.333	8149
2364.322	8045
2366.309	8266
2368.295	8067
2370.282	8140
2372.27	8013
2374.256	8089
2376.24	8198
2378.225	8062
2380.208	8222
2382.194	7983
2384.177	8050
2386.159	8122
2388.142	8023
2390.122	8075
2392.105	8099
2394.085	7924
2396.066	8100
2398.044	8015
2400.024	8154
2402.002	8018
2403.982	7975
2405.959	8016
2407.935	8047
2409.913	8020
2411.888	8073
2413.865	7870
2415.84	8077
2417.814	7965
2419.788	8105
2421.762	7999
2423.735	8104
2425.708	7955
2427.68	7993
2429.651	7985
2431.623	7957
2433.593	8038
2435.564	7922
2437.533	8006
2439.502	8004
2441.47	7942
2443.438	7931
2445.406	8036
2447.373	7910
2449.34	7975
2451.305	7911
2453.271	8004
2455.235	7928
2457.201	7857
2459.165	7980
2461.129	7925
2463.092	7832
2465.054	7962
2467.018	7920
2468.978	8001
2470.939	7861
2472.899	7858
2474.86	7997
2476.819	7863
2478.778	7913
2480.737	8032
2482.695	7862
2484.653	7938
2486.609	7747
2488.567	7822
2490.524	7780
2492.478	7790
2494.433	7904
2496.387	7817
2498.343	7723
2500.297	7788
2502.249	7795
2504.202	7855
2506.153	7839
2508.105	7819
2510.057	7804
2512.008	7761
2513.957	7748
2515.906	7656
2517.855	7770
2519.805	7797
2521.754	7695
2523.7	7748
2525.647	7799
2527.594	7652
2529.54	7776
2531.486	7757
2533.431	7710
2535.376	7646
2537.32	7647
2539.263	7711
2541.207	7740
2543.151	7733
2545.093	7781
2547.034	7821
2548.975	7850
2550.917	7628
2552.856	7766
2554.796	7664
2556.735	7711
2558.673	7675
2560.611	7623
2562.55	7627
2564.487	7676
2566.424	7634
2568.36	7703
2570.296	7626
2572.232	7777
2574.167	7754
2576.101	7666
2578.035	7743
2579.969	7725
2581.902	7715
2583.834	7560
2585.766	7656
2587.698	7612
2589.628	7546
2591.557	7542
2593.489	7730
2595.419	7752
2597.348	7645
2599.275	7660
2601.204	7691
2603.131	7682
2605.059	7639
2606.986	7675
2608.911	7684
2610.837	7590
2612.76	7608
2614.687	7743
2616.61	7671
2618.534	7602
2620.457	7557
2622.38	7751
2624.302	7686
2626.225	7797
2628.145	7609
2630.067	7708
2631.986	7730
2633.906	7653
2635.827	7873
2637.745	7513
2639.662	7549
2641.581	7634
2643.498	7493
2645.415	7641
2647.331	7602
2649.248	7653
2651.163	7528
2653.077	7659
2654.993	7572
2656.906	7640
2658.821	7528
2660.733	7596
2662.646	7591
2664.557	7600
2666.47	7536
2668.381	7581
2670.291	7538
2672.201	7471
2674.11	7513
2676.021	7603
2677.929	7467
2679.837	7505
2681.745	7439
2683.652	7443
2685.56	7484
2687.466	7543
2689.371	7487
2691.276	7454
2693.181	7437
2695.085	7476
2696.991	7457
2698.893	7414
2700.796	7385
2702.698	7440
2704.601	7356
2706.502	7382
2708.404	7468
2710.304	7362
2712.203	7382
2714.103	7310
2716.003	7487
2717.902	7343
2719.8	7343
2721.697	7397
2723.594	7509
2725.49	7358
2727.389	7343
2729.283	7435
2731.179	7283
2733.073	7453
2734.968	7282
2736.863	7310
2738.757	7467
2740.649	7242
2742.541	7436
2744.433	7231
2746.324	7321
2748.216	7278
2750.107	7320
2751.997	7348
2753.886	7238
2755.776	7266
2757.666	7167
2759.553	7356
2761.44	7280
2763.327	7305
2765.215	7222
2767.102	7256
2768.988	7311
2770.873	7224
2772.757	7252
2774.641	7323
2776.525	7217
2778.41	7203
2780.292	7140
2782.175	7231
2784.057	7290
2785.938	7159
2787.821	7288
2789.701	7244
2791.581	7123
2793.461	7203
2795.34	7243
2797.219	7120
2799.099	7175
2800.975	7181
2802.853	7244
2804.73	7182
2806.606	7162
2808.484	7157
2810.358	7207
2812.233	7195
2814.108	7147
2815.981	7189
2817.857	7072
2819.73	7122
2821.602	7150
2823.474	7145
2825.346	7068
2827.217	7116
2829.089	7129
2830.959	7106
2832.829	7179
2834.698	7078
2836.567	7077
2838.436	7183
2840.305	7076
2842.172	7145
2844.04	7220
2845.905	7082
2847.772	7235
2849.639	7142
2851.503	7229
2853.369	7039
2855.232	7207
2857.096	7270
2858.961	7193
2860.824	7293
2862.686	7123
2864.547	7422
2866.41	7399
2868.272	7327
2870.132	7368
2871.992	7478
2873.851	7423
2875.711	7527
2877.57	7591
2879.429	7612
2881.287	7713
2883.144	7543
2885.001	7758
2886.857	7768
2888.714	7684
2890.57	7661
2892.425	7776
2894.279	7687
2896.133	7628
2897.987	7628
2899.842	7676
2901.694	7509
2903.547	7712
2905.397	7595
2907.249	7458
2909.101	7693
2910.952	7619
2912.802	7676
2914.652	7708
2916.5	7778
2918.35	7782
2920.198	7883
2922.045	7944
2923.893	7903
2925.74	7981
2927.585	8168
2929.433	8218
2931.279	8208
2933.123	8305
2934.968	8322
2936.811	8394
2938.656	8538
2940.5	8341
2942.342	8595
2944.185	8438
2946.026	8481
2947.87	8605
2949.71	8584
2951.549	8340
2953.39	8402
2955.229	8293
2957.069	8306
2958.908	8166
2960.746	8193
2962.584	8142
2964.421	7980
2966.257	7933
2968.094	7955
2969.931	7782
2971.766	7772
2973.601	7772
2975.435	7691
2977.27	7819
2979.105	7658
2980.938	7636
2982.77	7652
2984.602	7527
2986.434	7581
2988.267	7563
2990.097	7567
2991.927	7452
2993.757	7610
2995.587	7393
2997.417	7272
2999.246	7338
3001.074	7221
3002.902	7100
3004.729	6995
3006.556	7112
3008.384	7086
3010.21	7068
3012.036	6939
3013.861	6891
3015.684	6807
3017.51	6785
3019.334	6719
3021.157	6807
3022.981	6760
3024.802	6645
3026.624	6734
3028.448	6646
3030.267	6695
3032.088	6546
3033.909	6649
3035.728	6661
3037.549	6525
3039.368	6587
3041.186	6594
3043.004	6594
3044.821	6623
3046.64	6659
3048.455	6546
3050.272	6497
3052.087	6574
3053.903	6532
3055.717	6589
3057.534	6532
3059.347	6583
3061.16	6566
3062.974	6506
3064.785	6560
3066.598	6500
3068.411	6522
3070.222	6460
3072.032	6593
3073.844	6468
3075.653	6467
3077.463	6471
3079.272	6432
3081.08	6623
3082.889	6503
3084.697	6303
3086.505	6474
3088.312	6377
3090.118	6378
3091.924	6325
3093.729	6430
3095.535	6378
3097.34	6394
3099.144	6373
3100.947	6508
3102.75	6332
3104.553	6311
3106.357	6300
3108.159	6191
3109.961	6266
3111.762	6389
3113.562	6323
3115.365	6319
3117.164	6356
3118.964	6309
3120.761	6227
3122.56	6272
3124.36	6278
3126.158	6217
3127.954	6261
3129.75	6143
3131.547	6244
3133.343	6081
3135.139	6201
3136.934	6231
3138.729	6213
3140.522	6180
3142.317	6128
3144.11	6096
3145.904	6037
3147.695	6089
3149.488	6089
3151.28	6188
3153.07	6116
3154.863	6168
3156.652	6069
3158.441	6054
3160.231	6089
3162.019	6093
3163.81	6138
3165.597	6156
3167.384	6118
3169.172	6122
3170.958	6144
3172.745	6112
3174.532	6155
3176.317	6156
3178.101	6100
3179.885	6153
3181.67	6121
3183.455	6150
3185.238	6035
3187.02	6063
3188.802	6044
3190.585	6085
3192.368	6021
3194.149	6054
3195.929	6031
3197.709	5987
3199.489	6088
3201.268	6068
3203.048	6129
3204.826	5980
3206.604	6055
3208.382	6011
3210.159	6077
3211.937	5921
3213.713	6039
3215.489	5980
3217.263	5980
3219.038	6021
3220.815	5999
3222.589	6082
3224.363	5979
3226.136	6117
3227.908	5973
3229.681	6004
3231.454	6039
3233.226	5890
3234.996	6024
3236.767	6029
3238.538	5933
3240.308	5979
3242.078	6123
3243.847	6000
3245.615	5976
3247.384	5995
3249.15	5936
3250.92	6014
3252.686	5906
3254.453	5918
3256.218	6062
3257.984	5933
3259.75	6021
3261.515	6085
3263.279	6036
3265.044	5899
3266.806	5987
3268.57	6044
3270.334	6049
3272.095	5952
3273.856	5978
3275.619	5982
3277.379	5992
3279.14	5965
3280.9	5953
3282.661	6080
3284.419	6139
3286.178	6053
3287.937	5899
3289.695	5924
3291.453	6021
3293.21	6023
3294.967	6006
3296.723	6043
3298.48	6051
3300.235	6047
3301.99	5953
3303.744	5977
3305.498	5987
3307.253	5880
3309.006	6009
3310.759	5904
3312.511	6073
3314.263	5980
3316.017	5975
3317.768	5898
3319.519	5957
3321.268	6061
3323.018	6017
3324.767	6045
3326.518	5985
3328.267	5815
3330.014	5983
3331.762	5989
3333.509	6020
3335.258	6034
3337.003	5957
3338.75	5964
3340.496	5941
3342.24	5935
3343.987	5955
3345.732	5976
3347.475	5923
3349.219	5932
3350.961	5935
3352.705	5887
3354.448	5890
3356.19	5953
3357.931	5920
3359.672	5914
3361.412	5869
3363.155	5831
3364.894	5909
3366.633	5839
3368.372	5897
3370.11	5933
3371.849	5758
3373.588	5843
3375.325	5696
3377.061	5701
3378.799	5710
3380.534	5815
3382.271	5780
3384.006	5830
3385.741	5745
3387.475	5813
3389.209	5730
3390.944	5746
3392.677	5782
3394.409	5747
3396.143	5676
3397.874	5877
3399.606	5722
3401.338	5723
3403.069	5730
3404.799	5729
3406.528	5769
3408.258	5715
3409.988	5721
3411.717	5830
3413.445	5781
3415.173	5802
3416.899	5658
3418.626	5781
3420.354	5709
3422.08	5594
3423.806	5782
3425.531	5688
3427.255	5709
3428.981	5748
3430.705	5614
3432.429	5723
3434.151	5611
3435.875	5589
3437.599	5671
3439.321	5576
3441.042	5607
3442.763	5670
3444.483	5449
3446.204	5589
3447.926	5625
3449.645	5559
3451.364	5563
3453.082	5528
3454.801	5607
3456.52	5513
3458.238	5588
3459.954	5568
3461.671	5579
3463.387	5450
3465.104	5546
3466.82	5490
3468.534	5404
3470.25	5458
3471.963	5481
3473.676	5595
3475.392	5456
3477.104	5499
3478.817	5371
3480.528	5408
3482.241	5370
3483.954	5494
3485.664	5564
3487.374	5464
3489.084	5474
3490.795	5364
3492.504	5448
3494.214	5419
3495.922	5368
3497.63	5381
3499.338	5355
3501.045	5389
3502.753	5365
3504.459	5362
3506.166	5460
3507.871	5325
3509.576	5235
3511.283	5345
3512.987	5337
3514.691	5280
3516.395	5301
3518.098	5271
3519.8	5325
3521.504	5240
3523.206	5440
3524.908	5254
3526.609	5218
3528.309	5203
3530.011	5293
3531.711	5347
3533.411	5158
3535.109	5151
3536.808	5292
3538.507	5271
3540.206	5280
3541.904	5282
3543.601	5222
3545.297	5255
3546.994	5127
3548.69	5286
3550.387	5209
3552.081	5266
3553.776	5182
3555.47	5117
3557.166	5220
3558.859	5187
3560.553	5183
3562.245	5123
3563.938	5174
3565.629	5155
3567.322	5256
3569.014	5120
3570.704	5155
3572.394	5262
3574.084	5044
3575.775	5126
3577.464	5143
3579.152	4959
3580.842	5091
3582.529	5174
3584.216	5083
3585.905	5066
3587.591	5046
3589.279	5030
3590.964	5036
3592.649	4925
3594.336	5051
3596.021	5057
3597.705	5066
3599.388	4957
3601.072	5031
3602.757	4997
3604.439	4989
3606.122	4932
3607.803	5005
3609.485	4935
3611.167	4957
3612.849	4947
3614.529	4934
3616.208	4968
3617.888	4914
3619.567	5018
3621.247	4985
3622.926	4796
3624.603	4898
3626.281	4886
3627.958	4956
3629.635	4811
3631.312	4873
3632.989	4867
3634.665	4870
3636.339	4874
3638.014	4855
3639.691	4912
3641.364	4869
3643.038	4809
3644.71	4748
3646.384	4785
3648.058	4755
3649.729	4832
3651.402	4739
3653.073	4832
3654.744	4829
3656.414	4754
3658.085	4855
3659.755	4785
3661.424	4870
3663.094	4772
3664.762	4718
3666.431	4677
3668.099	4729
3669.766	4755
3671.433	4767
3673.099	4785
3674.768	4706
3676.433	4643
3678.098	4787
3679.763	4594
3681.428	4672
3683.093	4720
3684.757	4835
3686.421	4713
3688.083	4699
3689.746	4686
3691.408	4636
3693.071	4700
3694.733	4725
3696.394	4636
3698.054	4731
3699.715	4672
3701.375	4718
3703.036	4650
3704.695	4627
3706.354	4639
3708.012	4652
3709.67	4593
3711.329	4680
3712.987	4518
3714.644	4634
3716.299	4694
3717.955	4568
3719.613	4564
3721.268	4601
3722.923	4588
3724.577	4655
3726.231	4688
3727.885	4562
3729.539	4613
3731.192	4564
3732.845	4579
3734.497	4522
3736.149	4551
3737.802	4668
3739.453	4535
3741.104	4494
3742.753	4575
3744.404	4623
3746.052	4507
3747.704	4437
3749.352	4635
3751	4522
3752.648	4394
3754.296	4531
3755.944	4579
3757.59	4480
3759.238	4516
3760.883	4546
3762.528	4597
3764.176	4509
3765.82	4486
3767.464	4441
3769.109	4535
3770.753	4485
3772.396	4465
3774.04	4458
3775.683	4451
3777.325	4426
3778.967	4454
3780.608	4544
3782.25	4413
3783.89	4448
3785.531	4420
3787.17	4408
3788.81	4376
3790.45	4397
3792.09	4436
3793.729	4321
3795.366	4315
3797.003	4438
3798.64	4439
3800.278	4319
3801.915	4353
3803.551	4400
3805.187	4427
3806.822	4415
3808.458	4267
3810.093	4336
3811.726	4347
3813.36	4393
3814.994	4226
3816.627	4335
3818.262	4365
3819.893	4254
3821.525	4319
3823.157	4302
3824.787	4356
3826.42	4286
3828.051	4284
3829.68	4331
3831.31	4260
3832.938	4301
3834.569	4210
3836.198	4211
3837.825	4265
3839.454	4259
3841.08	4321
3842.708	4194
3844.335	4277
3845.962	4213
3847.587	4282
3849.212	4223
3850.838	4225
3852.463	4305
3854.089	4211
3855.712	4184
3857.335	4099
3858.959	4194
3860.582	4302
3862.205	4208
3863.827	4202
3865.449	4293
3867.07	4101
3868.691	4118
3870.312	4151
3871.933	4191
3873.553	4140
3875.173	4233
3876.792	4133
3878.411	4195
3880.03	4177
3881.647	4100
3883.265	4277
3884.882	4122
3886.499	4124
3888.116	4123
3889.732	4061
3891.348	4143
3892.964	4066
3894.579	4071
3896.195	4141
3897.809	4153
3899.423	4182
3901.036	4053
3902.648	4146
3904.261	4128
3905.875	4076
3907.487	4099
3909.099	4134
3910.709	4057
3912.321	4049
3913.933	4039
3915.542	4075
3917.152	3931
3918.762	4100
3920.37	4028
3921.98	4080
3923.589	3997
3925.196	4003
3926.804	4081
3928.41	4083
3930.018	3974
3931.626	4053
3933.231	3972
3934.838	3979
3936.442	4006
3938.046	4078
3939.653	4012
3941.257	3945
3942.861	4070
3944.464	3991
3946.068	4118
3947.67	3956
3949.273	4083
3950.876	3980
3952.477	3887
3954.078	3977
3955.678	3959
3957.281	4040
3958.881	3987
3960.48	3927
3962.079	3887
3963.678	3971
3965.279	3917
3966.877	4010
3968.475	4046
3970.072	3918
3971.669	3954
3973.266	3893
3974.864	3987
3976.459	3842
3978.055	3858
3979.65	3929
3981.245	3790
3982.841	3934
3984.436	3812
3986.03	3943
3987.623	3868
3989.216	3856
3990.809	3825
3992.403	3843
3993.995	3773
3995.586	3846
3997.177	3824
3998.768	3853
4000.361	3816
4001.951	3850
4003.54	3823
4005.13	3784
4006.719	3757
4008.31	3852
4009.897	3735
4011.485	3823
4013.073	3709
4014.66	3658
4016.247	3749
4017.834	3762
4019.421	3732
4021.006	3737
4022.592	3664
4024.178	3727
4025.763	3737
4027.348	3695
4028.932	3729
4030.515	3703
4032.099	3719
4033.682	3649
4035.266	3574
4036.847	3696
4038.429	3740
4040.011	3734
4041.592	3663
4043.173	3587
4044.755	3665
4046.334	3650
4047.913	3712
4049.494	3632
4051.074	3658
4052.652	3622
4054.23	3581
4055.807	3643
4057.385	3731
4058.963	3733
4060.541	3635
4062.117	3609
4063.693	3623
4065.269	3558
4066.844	3562
4068.42	3656
4069.995	3630
4071.569	3602
4073.143	3587
4074.716	3522
4076.291	3627
4077.864	3606
4079.436	3617
4081.009	3631
4082.58	3607
4084.152	3635
4085.723	3481
4087.294	3550
4088.865	3555
4090.435	3584
4092.005	3523
4093.574	3522
4095.143	3551
4096.712	3575
4098.279	3591
4099.848	3607
4101.416	3471
4102.984	3624
4104.55	3503
4106.117	3563
4107.682	3507
4109.248	3518
4110.815	3525
4112.379	3465
4113.945	3561
4115.508	3499
4117.073	3497
4118.637	3541
4120.201	3408
4121.763	3461
4123.325	3477
4124.888	3395
4126.449	3442
4128.013	3465
4129.573	3487
4131.133	3492
4132.694	3375
4134.254	3364
4135.814	3437
4137.374	3425
4138.933	3506
4140.491	3339
4142.049	3410
4143.607	3446
4145.167	3411
4146.724	3388
4148.28	3331
4149.836	3375
4151.392	3354
4152.949	3393
4154.504	3367
4156.059	3287
4157.614	3416
4159.168	3401
4160.723	3329
4162.277	3262
4163.83	3298
4165.383	3310
4166.936	3355
4168.488	3278
4170.041	3295
4171.593	3296
4173.144	3337
4174.695	3278
4176.246	3317
4177.796	3279
4179.346	3335
4180.896	3310
4182.445	3259
4183.994	3316
4185.542	3210
4187.091	3268
4188.639	3236
4190.185	3217
4191.732	3233
4193.279	3232
4194.826	3313
4196.373	3234
4197.918	3290
4199.463	3214
4201.008	3237
4202.553	3211
4204.098	3192
4205.641	3333
4207.185	3232
4208.728	3328
4210.271	3196
4211.814	3281
4213.357	3130
4214.898	3210
4216.439	3213
4217.98	3202
4219.522	3201
4221.062	3222
4222.603	3193
4224.142	3169
4225.681	3250
4227.222	3146
4228.76	3160
4230.298	3196
4231.835	3215
4233.373	3181
4234.911	3263
4236.449	3163
4237.985	3188
4239.521	3191
4241.057	3102
4242.592	3190
4244.128	3117
4245.663	3124
4247.197	3136
4248.731	3178
4250.265	3088
4251.798	3084
4253.333	3189
4254.865	3159
4256.397	3209
4257.93	3161
4259.461	3125
4260.994	3086
4262.525	3091
4264.056	3062
4265.586	3067
4267.115	3118
4268.646	3022
4270.176	3039
4271.705	3109
4273.232	3073
4274.761	3029
4276.289	3131
4277.818	3032
4279.345	3062
4280.872	3066
4282.399	3058
4283.924	3069
4285.452	3080
4286.976	3017
4288.502	3021
4290.026	3094
4291.551	3074
4293.074	2991
4294.6	3024
4296.123	3000
4297.646	3063
4299.168	3036
4300.691	3016
4302.214	3023
4303.736	2938
4305.257	2963
4306.778	3027
4308.299	2957
4309.82	2984
4311.34	3035
4312.86	2990
4314.379	3050
