400.0745	3849
402.597	3763
405.1208	3840
407.6419	3933
410.1623	3816
412.6819	3861
415.201	3933
417.7172	3979
420.2369	3937
422.7538	4034
425.2701	3989
427.7856	4091
430.3005	4175
432.8147	4105
435.3282	4070
437.841	4101
440.3511	4096
442.8625	4155
445.3753	4050
447.8854	4045
450.3927	4175
452.9014	4046
455.4073	4093
457.9146	4059
460.4233	4116
462.9272	4082
465.4325	4131
467.935	4115
470.4389	4021
472.9421	4084
475.4446	4198
477.9444	4105
480.4456	4067
482.944	4045
485.4417	4184
487.9429	4114
490.4393	4146
492.935	4188
495.4321	4133
497.9264	4275
500.4221	4236
502.9171	4223
505.4094	4204
507.9011	4143
510.392	4200
512.8864	4288
515.3759	4269
517.8649	4205
520.3531	4302
522.8406	4277
525.3275	4303
527.8178	4280
530.3033	4246
532.7881	4309
535.2723	4347
537.7558	4327
540.2407	4310
542.7228	4305
545.2043	4277
547.6851	4265
550.1652	4265
552.6467	4340
555.1255	4285
557.6016	4218
560.079	4389
562.5557	4279
565.0318	4367
567.5092	4353
569.984	4409
572.456	4355
574.9294	4485
577.4022	4399
579.8762	4479
582.3456	4434
584.8163	4381
587.2863	4480
589.7557	4467
592.2224	4434
594.6924	4541
597.1578	4464
599.6245	4396
602.0905	4479
604.5538	4440
607.0206	4454
609.4825	4436
611.9459	4511
614.4066	4412
616.8686	4452
619.33	4416
621.7906	4420
624.2487	4449
626.708	4402
629.1647	4413
631.6207	4428
634.0801	4373
636.5348	4471
638.9888	4519
641.4442	4506
643.8969	4504
646.3509	4466
648.8022	4462
651.255	4488
653.705	4459
656.1544	4432
658.6031	4438
661.0532	4544
663.5026	4525
665.9493	4490
668.3954	4588
670.8409	4502
673.2877	4552
675.7318	4498
678.1752	4558
680.618	4606
683.0601	4665
685.5035	4651
687.9444	4549
690.3845	4611
692.824	4565
695.2628	4594
697.701	4622
700.1406	4601
702.5774	4629
705.0116	4656
707.4472	4687
709.8821	4662
712.3183	4646
714.7519	4704
717.1829	4538
719.6151	4756
722.0468	4659
724.4777	4618
726.908	4753
729.3377	4710
731.7667	4746
734.1931	4702
736.6208	4582
739.0498	4691
741.4742	4842
743.9	4816
746.3231	4788
748.7476	4792
751.1713	4803
753.5945	4971
756.015	4876
758.4368	4926
760.856	4967
763.2766	4888
765.6965	4916
768.1157	4912
770.5323	4994
772.9483	4962
775.3656	4840
777.7822	4847
780.1963	4926
782.6116	4951
785.0244	4970
787.4365	4995
789.8499	4899
792.2626	4949
794.6728	4943
797.0823	4868
799.4911	5040
801.8994	4782
804.3109	4860
806.7178	4989
809.124	4958
811.5297	5014
813.9347	5050
816.341	4965
818.7447	4976
821.1478	5008
823.5502	4919
825.952	5026
828.3531	4881
830.7556	5015
833.1554	5050
835.5546	4970
837.9532	4985
840.3511	5128
842.7504	5076
845.1451	5056
847.5411	5092
849.9365	5130
852.3312	5048
854.7272	5141
857.1187	5154
859.5115	5073
861.9037	5032
864.2952	5129
866.6842	5114
869.0764	5172
871.4661	5099
873.8531	4996
876.2415	5103
878.6272	5042
881.0162	5082
883.4026	5011
885.7866	5088
888.1717	5110
890.5543	5039
892.9382	5142
895.3215	5128
897.7041	5086
900.0842	5058
902.4655	5131
904.8443	5017
907.2244	5188
909.6039	5236
911.9808	5214
914.357	5219
916.7346	5210
919.1115	5266
921.4859	5260
923.8616	5243
926.2347	5402
928.6071	5268
930.979	5324
933.3541	5422
935.7247	5432
938.0946	5290
940.4639	5382
942.8326	5372
945.2026	5507
947.5701	5596
949.9369	5701
952.305	5758
954.6705	5848
957.0355	6125
959.4017	6427
961.7654	6282
964.1284	6300
966.4908	6253
968.8527	5983
971.2138	5836
973.5743	5643
975.9343	5547
978.2936	5417
980.6522	5314
983.0122	5188
985.3696	5299
987.7245	5316
990.0807	5190
992.4362	5275
994.7911	5206
997.1474	5280
999.4991	5194
1001.852	5341
1004.205	5343
1006.555	5280
1008.908	5337
1011.258	5375
1013.606	5214
1015.956	5358
1018.302	5192
1020.652	5378
1022.998	5215
1025.345	5355
1027.691	5341
1030.035	5265
1032.378	5246
1034.724	5391
1037.066	5493
1039.409	5372
1041.75	5365
1044.092	5391
1046.433	5325
1048.771	5337
1051.112	5362
1053.449	5413
1055.786	5409
1058.124	5337
1060.462	5324
1062.797	5356
1065.131	5481
1067.467	5392
1069.8	5445
1072.135	5440
1074.467	5470
1076.798	5392
1079.129	5397
1081.459	5359
1083.792	5363
1086.121	5373
1088.449	5345
1090.777	5421
1093.104	5402
1095.431	5336
1097.759	5416
1100.084	5348
1102.408	5444
1104.732	5429
1107.056	5313
1109.379	5406
1111.701	5477
1114.022	5316
1116.343	5360
1118.664	5337
1120.983	5358
1123.303	5335
1125.621	5386
1127.939	5339
1130.256	5410
1132.573	5406
1134.889	5439
1137.205	5459
1139.52	5454
1141.832	5444
1144.146	5333
1146.461	5403
1148.771	5315
1151.083	5358
1153.392	5386
1155.703	5465
1158.011	5356
1160.323	5383
1162.629	5508
1164.938	5298
1167.243	5264
1169.55	5451
1171.857	5371
1174.163	5463
1176.466	5544
1178.769	5372
1181.073	5446
1183.374	5361
1185.677	5352
1187.979	5400
1190.279	5363
1192.578	5390
1194.878	5442
1197.178	5420
1199.476	5331
1201.772	5371
1204.068	5427
1206.366	5351
1208.663	5394
1210.957	5377
1213.251	5464
1215.544	5392
1217.836	5353
1220.128	5509
1222.421	5367
1224.712	5423
1227.002	5504
1229.292	5490
1231.581	5498
1233.871	5391
1236.159	5663
1238.446	5504
1240.732	5499
1243.018	5688
1245.304	5690
1247.59	5615
1249.874	5646
1252.156	5688
1254.439	5599
1256.721	5625
1259.005	5732
1261.286	5646
1263.565	5595
1265.845	5706
1268.125	5764
1270.403	5623
1272.682	5595
1274.959	5671
1277.234	5600
1279.511	5600
1281.787	5559
1284.062	5642
1286.337	5599
1288.609	5541
1290.882	5463
1293.153	5503
1295.428	5491
1297.698	5546
1299.969	5636
1302.237	5459
1304.507	5487
1306.777	5537
1309.044	5520
1311.312	5524
1313.578	5506
1315.844	5462
1318.109	5587
1320.375	5439
1322.638	5475
1324.903	5500
1327.165	5545
1329.427	5519
1331.69	5502
1333.952	5553
1336.212	5558
1338.471	5589
1340.73	5463
1342.988	5474
1345.248	5387
1347.505	5491
1349.763	5542
1352.019	5494
1354.274	5492
1356.53	5580
1358.784	5500
1361.038	5463
1363.291	5453
1365.543	5570
1367.797	5454
1370.048	5702
1372.296	5513
1374.546	5517
1376.796	5545
1379.045	5526
1381.295	5585
1383.542	5561
1385.787	5570
1388.034	5542
1390.28	5655
1392.527	5548
1394.772	5710
1397.014	5508
1399.258	5541
1401.501	5592
1403.741	5536
1405.985	5640
1408.226	5629
1410.465	5643
1412.705	5654
1414.943	5625
1417.184	5678
1419.42	5742
1421.658	5673
1423.894	5719
1426.13	5773
1428.366	5565
1430.602	5650
1432.835	5733
1435.069	5732
1437.301	5638
1439.535	5734
1441.767	5820
1443.997	5814
1446.229	5771
1448.458	5753
1450.687	5775
1452.916	5915
1455.146	5822
1457.372	5794
1459.599	5798
1461.824	5742
1464.051	5802
1466.277	5792
1468.501	5715
1470.725	5734
1472.948	5747
1475.17	5626
1477.393	5606
1479.614	5650
1481.837	5623
1484.057	5550
1486.276	5517
1488.497	5564
1490.715	5467
1492.932	5518
1495.148	5375
1497.364	5578
1499.58	5527
1501.798	5501
1504.012	5396
1506.227	5454
1508.44	5451
1510.653	5411
1512.866	5456
1515.078	5495
1517.289	5449
1519.5	5406
1521.711	5506
1523.92	5546
1526.13	5448
1528.338	5441
1530.544	5457
1532.752	5510
1534.959	5511
1537.165	5504
1539.371	5443
1541.574	5458
1543.779	5463
1545.983	5546
1548.187	5503
1550.39	5518
1552.59	5458
1554.792	5549
1556.991	5512
1559.19	5649
1561.392	5578
1563.59	5524
1565.789	5509
1567.986	5691
1570.182	5707
1572.381	5619
1574.576	5568
1576.771	5606
1578.966	5645
1581.16	5549
1583.354	5603
1585.546	5560
1587.74	5688
1589.931	5665
1592.121	5641
1594.311	5633
1596.502	5613
1598.693	5660
1600.881	5717
1603.069	5642
1605.256	5685
1607.445	5684
1609.631	5679
1611.816	5587
1614.001	5741
1616.186	5699
1618.37	5656
1620.555	5823
1622.737	5722
1624.919	5795
1627.101	5630
1629.282	5693
1631.463	5787
1633.643	5747
1635.822	5655
1638.001	5750
1640.179	5818
1642.359	5680
1644.534	5826
1646.711	5718
1648.887	5696
1651.062	5799
1653.235	5782
1655.412	5911
1657.586	5764
1659.757	5703
1661.93	5725
1664.1	5837
1666.274	5803
1668.445	5787
1670.614	5912
1672.784	5851
1674.951	5678
1677.12	5765
1679.289	5772
1681.457	5703
1683.622	5802
1685.789	5861
1687.953	5756
1690.121	5784
1692.284	5722
1694.447	5832
1696.611	5720
1698.772	5675
1700.935	5616
1703.098	5673
1705.258	5671
1707.417	5614
1709.576	5663
1711.736	5522
1713.896	5675
1716.053	5746
1718.21	5667
1720.366	5647
1722.522	5702
1724.68	5671
1726.835	5637
1728.989	5605
1731.142	5571
1733.295	5665
1735.449	5572
1737.601	5598
1739.753	5682
1741.903	5714
1744.054	5637
1746.203	5600
1748.354	5610
1750.503	5642
1752.651	5595
1754.798	5674
1756.944	5698
1759.092	5778
1761.238	5694
1763.383	5704
1765.528	5601
1767.672	5655
1769.814	5692
1771.959	5634
1774.102	5657
1776.242	5723
1778.384	5770
1780.525	5668
1782.665	5613
1784.805	5636
1786.945	5747
1789.082	5615
1791.22	5715
1793.36	5631
1795.495	5711
1797.632	5648
1799.766	5675
1801.902	5700
1804.035	5680
1806.172	5644
1808.304	5590
1810.436	5622
1812.569	5715
1814.699	5663
1816.833	5528
1818.963	5660
1821.092	5593
1823.222	5624
1825.35	5603
1827.478	5640
1829.608	5577
1831.734	5603
1833.86	5673
1835.986	5662
1838.11	5576
1840.238	5566
1842.362	5643
1844.485	5614
1846.608	5678
1848.73	5643
1850.853	5672
1852.974	5691
1855.097	5560
1857.217	5615
1859.336	5550
1861.455	5603
1863.576	5604
1865.693	5632
1867.811	5590
1869.926	5695
1872.042	5551
1874.16	5613
1876.275	5645
1878.39	5705
1880.504	5723
1882.618	5552
1884.731	5651
1886.843	5666
1888.956	5585
1891.067	5693
1893.178	5555
1895.287	5580
1897.399	5632
1899.508	5584
1901.617	5639
1903.724	5633
1905.832	5749
1907.941	5635
1910.046	5698
1912.152	5659
1914.256	5614
1916.361	5798
1918.464	5657
1920.57	5681
1922.672	5643
1924.775	5568
1926.876	5618
1928.978	5605
1931.08	5621
1933.181	5587
1935.28	5620
1937.38	5732
1939.478	5698
1941.577	5664
1943.675	5744
1945.771	5697
1947.867	5669
1949.964	5642
1952.058	5806
1954.154	5657
1956.248	5709
1958.343	5679
1960.435	5744
1962.527	5706
1964.62	5669
1966.711	5734
1968.802	5671
1970.892	5704
1972.983	5700
1975.072	5717
1977.162	5567
1979.25	5612
1981.337	5674
1983.424	5523
1985.51	5603
1987.598	5611
1989.683	5676
1991.768	5555
1993.852	5648
1995.934	5570
1998.019	5545
2000.102	5483
2002.184	5669
2004.266	5632
2006.347	5548
2008.427	5606
2010.508	5506
2012.587	5690
2014.666	5588
2016.745	5677
2018.821	5652
2020.9	5678
2022.977	5649
2025.052	5594
2027.128	5689
2029.204	5593
2031.277	5646
2033.353	5635
2035.425	5623
2037.499	5610
2039.57	5562
2041.642	5633
2043.714	5676
2045.786	5598
2047.855	5711
2049.925	5612
2051.993	5582
2054.064	5599
2056.132	5677
2058.2	5680
2060.266	5602
2062.332	5733
2064.398	5533
2066.465	5613
2068.529	5537
2070.592	5639
2072.657	5557
2074.719	5606
2076.783	5537
2078.845	5521
2080.907	5637
2082.968	5644
2085.028	5631
2087.087	5614
2089.148	5632
2091.207	5627
2093.264	5624
2095.322	5609
2097.379	5569
2099.439	5531
2101.495	5514
2103.55	5602
2105.605	5646
2107.658	5600
2109.713	5637
2111.767	5590
2113.82	5544
2115.872	5596
2117.924	5619
2119.975	5521
2122.028	5508
2124.078	5585
2126.126	5623
2128.176	5619
2130.225	5584
2132.275	5542
2134.321	5634
2136.368	5612
2138.415	5643
2140.461	5684
2142.505	5520
2144.552	5631
2146.597	5638
2148.64	5529
2150.684	5537
2152.725	5625
2154.77	5588
2156.811	5530
2158.852	5680
2160.894	5485
2162.933	5592
2164.973	5461
2167.013	5569
2169.051	5428
2171.089	5478
2173.126	5469
2175.164	5421
2177.201	5504
2179.236	5601
2181.273	5510
2183.307	5548
2185.341	5480
2187.377	5520
2189.41	5533
2191.442	5452
2193.473	5436
2195.506	5423
2197.539	5525
2199.569	5493
2201.598	5455
2203.628	5533
2205.656	5496
2207.686	5482
2209.716	5493
2211.743	5508
2213.769	5479
2215.796	5434
2217.821	5528
2219.848	5534
2221.873	5329
2223.897	5419
2225.921	5443
2227.944	5430
2229.967	5470
2231.991	5415
2234.011	5417
2236.032	5478
2238.053	5432
2240.073	5453
2242.094	5564
2244.114	5504
2246.131	5466
2248.149	5385
2250.167	5532
2252.186	5408
2254.201	5400
2256.218	5381
2258.233	5405
2260.247	5459
2262.262	5409
2264.278	5380
2266.29	5436
2268.303	5315
2270.315	5442
2272.327	5319
2274.341	5436
2276.35	5376
2278.361	5461
2280.37	5418
2282.38	5435
2284.388	5420
2286.397	5506
2288.405	5482
2290.412	5353
2292.419	5509
2294.425	5532
2296.431	5347
2298.437	5491
2300.441	5440
2302.445	5349
2304.449	5352
2306.453	5406
2308.455	5369
2310.457	5282
2312.459	5404
2314.46	5387
2316.46	5368
2318.461	5435
2320.46	5354
2322.458	5357
2324.458	5405
2326.456	5418
2328.455	5386
2330.451	5302
2332.447	5296
2334.443	5364
2336.438	5424
2338.433	5362
2340.429	5243
2342.422	5272
2344.416	5295
2346.408	5368
2348.399	5354
2350.393	5302
2352.384	5339
2354.375	5360
2356.365	5222
2358.355	5324
2360.344	5293
2362.333	5260
2364.322	5262
2366.309	5248
2368.295	5251
2370.282	5196
2372.27	5342
2374.256	5269
2376.24	5335
2378.225	5282
2380.208	5355
2382.194	5350
2384.177	5218
2386.159	5218
2388.142	5239
2390.122	5164
2392.105	5272
2394.085	5192
2396.066	5289
2398.044	5151
2400.024	5237
2402.002	5235
2403.982	5168
2405.959	5296
2407.935	5275
2409.913	5190
2411.888	5205
2413.865	5189
2415.84	5170
2417.814	5228
2419.788	5157
2421.762	5154
2423.735	5211
2425.708	5289
2427.68	5133
2429.651	5322
2431.623	5202
2433.593	5242
2435.564	5216
2437.533	5223
2439.502	5147
2441.47	5237
2443.438	5226
2445.406	5183
2447.373	5284
2449.34	5200
2451.305	5179
2453.271	5150
2455.235	5186
2457.201	5262
2459.165	5224
2461.129	5116
2463.092	5203
2465.054	5225
2467.018	5191
2468.978	5042
2470.939	5088
2472.899	5180
2474.86	5192
2476.819	5057
2478.778	5182
2480.737	5236
2482.695	5076
2484.653	5091
2486.609	5187
2488.567	5151
2490.524	5192
2492.478	5106
2494.433	5057
2496.387	5210
2498.343	5071
2500.297	5107
2502.249	5103
2504.202	5142
2506.153	5146
2508.105	5064
2510.057	5115
2512.008	5177
2513.957	5084
2515.906	5125
2517.855	5152
2519.805	5055
2521.754	5032
2523.7	5081
2525.647	5092
2527.594	5083
2529.54	5075
2531.486	5023
2533.431	5139
2535.376	5098
2537.32	5101
2539.263	5057
2541.207	5063
2543.151	5097
2545.093	5035
2547.034	5010
2548.975	5053
2550.917	5105
2552.856	5051
2554.796	5159
2556.735	5068
2558.673	5056
2560.611	5074
2562.55	5032
2564.487	5037
2566.424	5014
2568.36	5166
2570.296	4995
2572.232	5032
2574.167	5137
2576.101	5031
2578.035	5090
2579.969	5098
2581.902	5117
2583.834	5053
2585.766	5030
2587.698	5088
2589.628	4994
2591.557	5099
2593.489	5071
2595.419	5208
2597.348	5006
2599.275	5013
2601.204	5098
2603.131	5059
2605.059	5047
2606.986	5083
2608.911	5025
2610.837	5081
2612.76	5011
2614.687	5146
2616.61	5031
2618.534	5096
2620.457	5095
2622.38	5057
2624.302	5071
2626.225	5007
2628.145	5049
2630.067	5146
2631.986	5039
2633.906	5119
2635.827	5043
2637.745	5145
2639.662	5068
2641.581	5088
2643.498	5061
2645.415	5100
2647.331	5093
2649.248	5087
2651.163	5056
2653.077	5029
2654.993	5015
2656.906	5028
2658.821	5106
2660.733	5019
2662.646	5010
2664.557	5068
2666.47	4967
2668.381	5022
2670.291	5146
2672.201	5016
2674.11	5070
2676.021	5057
2677.929	5018
2679.837	5093
2681.745	5005
2683.652	4942
2685.56	5105
2687.466	5017
2689.371	5022
2691.276	5022
2693.181	4995
2695.085	4938
2696.991	5018
2698.893	5040
2700.796	4974
2702.698	5013
2704.601	4935
2706.502	4974
2708.404	4931
2710.304	4932
2712.203	4969
2714.103	4887
2716.003	5061
2717.902	5019
2719.8	4975
2721.697	4923
2723.594	4971
2725.49	4869
2727.389	5013
2729.283	4977
2731.179	4863
2733.073	5061
2734.968	4912
2736.863	4832
2738.757	4938
2740.649	4933
2742.541	4871
2744.433	5032
2746.324	4870
2748.216	4936
2750.107	4952
2751.997	4765
2753.886	4921
2755.776	4858
2757.666	4989
2759.553	4910
2761.44	4935
2763.327	4842
2765.215	4876
2767.102	4910
2768.988	5010
2770.873	4902
2772.757	4891
2774.641	4952
2776.525	4995
2778.41	4941
2780.292	4912
2782.175	4956
2784.057	4890
2785.938	4820
2787.821	4825
2789.701	4878
2791.581	4833
2793.461	4862
2795.34	4920
2797.219	4954
2799.099	4918
2800.975	4791
2802.853	4799
2804.73	4886
2806.606	4867
2808.484	4813
2810.358	4925
2812.233	4946
2814.108	4836
2815.981	4748
2817.857	4788
2819.73	4865
2821.602	4942
2823.474	4936
2825.346	4894
2827.217	4771
2829.089	4864
2830.959	4806
2832.829	4895
2834.698	4954
2836.567	4813
2838.436	4954
2840.305	4832
2842.172	4919
2844.04	4922
2845.905	4923
2847.772	4837
2849.639	4841
2851.503	4912
2853.369	4937
2855.232	4941
2857.096	4785
2858.961	5032
2860.824	4968
2862.686	5052
2864.547	4978
2866.41	5045
2868.272	4966
2870.132	5006
2871.992	5089
2873.851	5029
2875.711	5152
2877.57	5127
2879.429	5122
2881.287	5298
2883.144	5330
2885.001	5345
2886.857	5166
2888.714	5220
2890.57	5302
2892.425	5281
2894.279	5220
2896.133	5313
2897.987	5169
2899.842	5224
2901.694	5202
2903.547	5351
2905.397	5212
2907.249	5191
2909.101	5153
2910.952	5253
2912.802	5303
2914.652	5312
2916.5	5366
2918.35	5422
2920.198	5388
2922.045	5425
2923.893	5496
2925.74	5613
2927.585	5596
2929.433	5631
2931.279	5765
2933.123	5707
2934.968	5756
2936.811	5835
2938.656	5850
2940.5	5890
2942.342	5959
2944.185	5912
2946.026	5812
2947.87	6033
2949.71	5820
2951.549	5854
2953.39	5789
2955.229	5689
2957.069	5640
2958.908	5731
2960.746	5700
2962.584	5522
2964.421	5462
2966.257	5542
2968.094	5357
2969.931	5336
2971.766	5388
2973.601	5395
2975.435	5307
2977.27	5323
2979.105	5248
2980.938	5326
2982.77	5183
2984.602	5243
2986.434	5251
2988.267	5258
2990.097	5198
2991.927	5152
2993.757	5217
2995.587	5096
2997.417	5063
2999.246	5037
3001.074	5000
3002.902	5039
3004.729	4918
3006.556	4998
3008.384	4908
3010.21	4789
3012.036	4765
3013.861	4759
3015.684	4828
3017.51	4719
3019.334	4712
3021.157	4668
3022.981	4758
3024.802	4597
3026.624	4693
3028.448	4538
3030.267	4580
3032.088	4537
3033.909	4578
3035.728	4559
3037.549	4489
3039.368	4471
3041.186	4482
3043.004	4647
3044.821	4558
3046.64	4475
3048.455	4575
3050.272	4550
3052.087	4615
3053.903	4550
3055.717	4519
3057.534	4499
3059.347	4538
3061.16	4510
3062.974	4582
3064.785	4484
3066.598	4502
3068.411	4540
3070.222	4456
3072.032	4422
3073.844	4427
3075.653	4506
3077.463	4435
3079.272	4414
3081.08	4442
3082.889	4486
3084.697	4364
3086.505	4460
3088.312	4474
3090.118	4473
3091.924	4387
3093.729	4484
3095.535	4239
3097.34	4322
3099.144	4475
3100.947	4352
3102.75	4466
3104.553	4387
3106.357	4425
3108.159	4398
3109.961	4375
3111.762	4332
3113.562	4319
3115.365	4394
3117.164	4402
3118.964	4352
3120.761	4319
3122.56	4255
3124.36	4229
3126.158	4286
3127.954	4346
3129.75	4273
3131.547	4241
3133.343	4277
3135.139	4324
3136.934	4249
3138.729	4246
3140.522	4243
3142.317	4300
3144.11	4293
3145.904	4235
3147.695	4231
3149.488	4250
3151.28	4280
3153.07	4226
3154.863	4184
3156.652	4226
3158.441	4267
3160.231	4261
3162.019	4133
3163.81	4287
3165.597	4244
3167.384	4237
3169.172	4295
3170.958	4199
3172.745	4201
3174.532	4222
3176.317	4293
3178.101	4246
3179.885	4208
3181.67	4275
3183.455	4202
3185.238	4227
3187.02	4270
3188.802	4251
3190.585	4192
3192.368	4149
3194.149	4210
3195.929	4193
3197.709	4178
3199.489	4192
3201.268	4234
3203.048	4287
3204.826	4142
3206.604	4277
3208.382	4211
3210.159	4262
3211.937	4171
3213.713	4172
3215.489	4077
3217.263	4101
3219.038	4211
3220.815	4196
3222.589	4227
3224.363	4253
3226.136	4192
3227.908	4260
3229.681	4140
3231.454	4227
3233.226	4149
3234.996	4149
3236.767	4237
3238.538	4179
3240.308	4214
3242.078	4188
3243.847	4228
3245.615	4075
3247.384	4154
3249.15	4123
3250.92	4115
3252.686	4101
3254.453	4138
3256.218	4214
3257.984	4101
3259.75	4134
3261.515	4159
3263.279	4170
3265.044	4103
3266.806	4286
3268.57	4120
3270.334	4175
3272.095	4178
3273.856	4187
3275.619	4191
3277.379	4150
3279.14	4236
3280.9	4120
3282.661	4072
3284.419	4202
3286.178	4097
3287.937	4160
3289.695	4209
3291.453	4100
3293.21	4136
3294.967	4146
3296.723	4222
3298.48	4132
3300.235	4177
3301.99	4165
3303.744	4170
3305.498	4147
3307.253	4090
3309.006	4168
3310.759	4098
3312.511	4159
3314.263	4129
3316.017	4157
3317.768	4235
3319.519	4231
3321.268	4140
3323.018	4154
3324.767	4202
3326.518	4119
3328.267	4092
3330.014	4208
3331.762	4186
3333.509	4152
3335.258	4035
3337.003	4117
3338.75	4114
3340.496	4148
3342.24	4080
3343.987	4120
3345.732	4162
3347.475	4098
3349.219	4118
3350.961	4083
3352.705	4114
3354.448	4085
3356.19	4066
3357.931	4024
3359.672	4064
3361.412	4104
3363.155	4043
3364.894	4136
3366.633	4068
3368.372	4040
3370.11	4082
3371.849	4090
3373.588	4148
3375.325	4036
3377.061	4025
3378.799	4037
3380.534	4087
3382.271	4085
3384.006	4077
3385.741	4071
3387.475	4028
3389.209	4047
3390.944	3988
3392.677	4041
3394.409	3995
3396.143	4017
3397.874	3994
3399.606	3964
3401.338	4002
3403.069	4001
3404.799	3958
3406.528	4014
3408.258	3950
3409.988	3971
3411.717	3957
3413.445	3906
3415.173	3948
3416.899	3923
3418.626	4028
3420.354	4073
3422.08	4001
3423.806	3860
3425.531	3984
3427.255	3973
3428.981	3956
3430.705	3934
3432.429	3926
3434.151	3904
3435.875	3870
3437.599	3918
3439.321	3871
3441.042	3970
3442.763	3871
3444.483	3910
3446.204	3917
3447.926	3906
3449.645	3872
3451.364	3895
3453.082	3889
3454.801	3932
3456.52	3844
3458.238	3875
3459.954	3811
3461.671	3808
3463.387	3786
3465.104	3873
3466.82	3736
3468.534	3865
3470.25	3827
3471.963	3857
3473.676	3794
3475.392	3822
3477.104	3770
3478.817	3733
3480.528	3731
3482.241	3703
3483.954	3870
3485.664	3725
3487.374	3852
3489.084	3691
3490.795	3714
3492.504	3699
3494.214	3689
3495.922	3666
3497.63	3719
3499.338	3719
3501.045	3737
3502.753	3705
3504.459	3722
3506.166	3740
3507.871	3812
3509.576	3679
3511.283	3684
3512.987	3683
3514.691	3747
3516.395	3655
3518.098	3602
3519.8	3659
3521.504	3625
3523.206	3595
3524.908	3680
3526.609	3687
3528.309	3659
3530.011	3691
3531.711	3661
3533.411	3611
3535.109	3571
3536.808	3702
3538.507	3645
3540.206	3665
3541.904	3689
3543.601	3535
3545.297	3572
3546.994	3672
3548.69	3562
3550.387	3619
3552.081	3562
3553.776	3611
3555.47	3628
3557.166	3658
3558.859	3674
3560.553	3620
3562.245	3580
3563.938	3530
3565.629	3505
3567.322	3544
3569.014	3540
3570.704	3616
3572.394	3536
3574.084	3544
3575.775	3548
3577.464	3555
3579.152	3573
3580.842	3529
3582.529	3536
3584.216	3527
3585.905	3535
3587.591	3477
3589.279	3536
3590.964	3457
3592.649	3493
3594.336	3500
3596.021	3517
3597.705	3359
3599.388	3423
3601.072	3385
3602.757	3435
3604.439	3427
3606.122	3414
3607.803	3415
3609.485	3350
3611.167	3397
3612.849	3407
3614.529	3487
3616.208	3446
3617.888	3406
3619.567	3353
3621.247	3452
3622.926	3486
3624.603	3369
3626.281	3419
3627.958	3466
3629.635	3387
3631.312	3356
3632.989	3391
3634.665	3403
3636.339	3337
3638.014	3421
3639.691	3373
3641.364	3371
3643.038	3352
3644.71	3316
3646.384	3371
3648.058	3332
3649.729	3410
3651.402	3352
3653.073	3268
3654.744	3337
3656.414	3361
3658.085	3326
3659.755	3314
3661.424	3272
3663.094	3346
3664.762	3333
3666.431	3304
3668.099	3248
3669.766	3249
3671.433	3278
3673.099	3320
3674.768	3307
3676.433	3275
3678.098	3218
3679.763	3336
3681.428	3278
3683.093	3269
3684.757	3272
3686.421	3224
3688.083	3284
3689.746	3166
3691.408	3248
3693.071	3258
3694.733	3255
3696.394	3230
3698.054	3233
3699.715	3292
3701.375	3295
3703.036	3174
3704.695	3207
3706.354	3257
3708.012	3176
3709.67	3168
3711.329	3228
3712.987	3189
3714.644	3189
3716.299	3230
3717.955	3256
3719.613	3218
3721.268	3278
3722.923	3203
3724.577	3231
3726.231	3253
3727.885	3158
3729.539	3140
3731.192	3240
3732.845	3184
3734.497	3145
3736.149	3141
3737.802	3247
3739.453	3184
3741.104	3182
3742.753	3154
3744.404	3194
3746.052	3120
3747.704	3153
3749.352	3106
3751	3138
3752.648	3163
3754.296	3180
3755.944	3189
3757.59	3180
3759.238	3130
3760.883	3107
3762.528	3105
3764.176	3123
3765.82	3211
3767.464	3109
3769.109	3085
3770.753	3130
3772.396	3097
3774.04	3117
3775.683	3055
3777.325	3138
3778.967	3061
3780.608	3134
3782.25	3097
3783.89	3113
3785.531	3036
3787.17	3086
3788.81	3032
3790.45	3076
3792.09	3142
3793.729	3095
3795.366	3043
3797.003	3108
3798.64	3072
3800.278	2949
3801.915	3032
3803.551	3120
3805.187	3042
3806.822	3052
3808.458	2987
3810.093	3021
3811.726	3031
3813.36	3046
3814.994	3051
3816.627	3031
3818.262	3063
3819.893	3038
3821.525	2983
3823.157	3037
3824.787	3014
3826.42	2990
3828.051	3049
3829.68	3028
3831.31	3028
3832.938	3030
3834.569	3008
3836.198	2943
3837.825	3039
3839.454	2997
3841.08	2957
3842.708	2994
3844.335	2963
3845.962	3052
3847.587	2988
3849.212	2985
3850.838	2983
3852.463	2957
3854.089	2882
3855.712	3022
3857.335	2960
3858.959	2939
3860.582	2917
3862.205	2925
3863.827	2947
3865.449	2921
3867.07	2977
3868.691	2920
3870.312	2924
3871.933	2920
3873.553	2857
3875.173	2945
3876.792	2966
3878.411	2926
3880.03	2967
3881.647	2892
3883.265	2860
3884.882	2933
3886.499	2878
3888.116	2902
3889.732	2885
3891.348	2960
3892.964	2952
3894.579	2903
3896.195	2889
3897.809	2897
3899.423	2906
3901.036	2881
3902.648	2894
3904.261	2874
3905.875	2899
3907.487	2820
3909.099	2933
3910.709	2880
3912.321	2856
3913.933	2894
3915.542	2814
3917.152	2867
3918.762	2872
3920.37	2787
3921.98	2864
3923.589	2874
3925.196	2863
3926.804	2822
3928.41	2846
3930.018	2860
3931.626	2901
3933.231	2844
3934.838	2790
3936.442	2977
3938.046	2826
3939.653	2816
3941.257	2823
3942.861	2871
3944.464	2825
3946.068	2813
3947.67	2828
3949.273	2802
3950.876	2782
3952.477	2849
3954.078	2852
3955.678	2829
3957.281	2851
3958.881	2797
3960.48	2821
3962.079	2809
3963.678	2779
3965.279	2920
3966.877	2811
3968.475	2804
3970.072	2773
3971.669	2727
3973.266	2860
3974.864	2815
3976.459	2733
3978.055	2794
3979.65	2769
3981.245	2735
3982.841	2794
3984.436	2749
3986.03	2756
3987.623	2768
3989.216	2757
3990.809	2761
3992.403	2798
3993.995	2702
3995.586	2816
3997.177	2721
3998.768	2742
4000.361	2713
4001.951	2741
4003.54	2747
4005.13	2718
4006.719	2732
4008.31	2686
4009.897	2715
4011.485	2737
4013.073	2662
4014.66	2674
4016.247	2691
4017.834	2702
4019.421	2722
4021.006	2660
4022.592	2805
4024.178	2690
4025.763	2701
4027.348	2651
4028.932	2633
4030.515	2664
4032.099	2719
4033.682	2721
4035.266	2675
4036.847	2643
4038.429	2734
4040.011	2612
4041.592	2654
4043.173	2640
4044.755	2578
4046.334	2699
4047.913	2643
4049.494	2623
4051.074	2591
4052.652	2674
4054.23	2508
4055.807	2662
4057.385	2573
4058.963	2659
4060.541	2639
4062.117	2578
4063.693	2577
4065.269	2606
4066.844	2563
4068.42	2551
4069.995	2574
4071.569	2516
4073.143	2616
4074.716	2578
4076.291	2698
4077.864	2552
4079.436	2567
4081.009	2635
4082.58	2570
4084.152	2551
4085.723	2530
4087.294	2617
4088.865	2606
4090.435	2628
4092.005	2593
4093.574	2618
4095.143	2552
4096.712	2603
4098.279	2514
4099.848	2594
4101.416	2596
4102.984	2591
4104.55	2482
4106.117	2542
4107.682	2519
4109.248	2572
4110.815	2515
4112.379	2578
4113.945	2533
4115.508	2601
4117.073	2525
4118.637	2499
4120.201	2530
4121.763	2577
4123.325	2436
4124.888	2484
4126.449	2498
4128.013	2534
4129.573	2498
4131.133	2505
4132.694	2527
4134.254	2379
4135.814	2438
4137.374	2417
4138.933	2502
4140.491	2472
4142.049	2484
4143.607	2446
4145.167	2502
4146.724	2480
4148.28	2462
4149.836	2430
4151.392	2475
4152.949	2482
4154.504	2498
4156.059	2479
4157.614	2466
4159.168	2420
4160.723	2441
4162.277	2457
4163.83	2414
4165.383	2454
4166.936	2398
4168.488	2466
4170.041	2408
4171.593	2397
4173.144	2492
4174.695	2416
4176.246	2460
4177.796	2426
4179.346	2425
4180.896	2390
4182.445	2368
4183.994	2428
4185.542	2413
4187.091	2363
4188.639	2356
4190.185	2394
4191.732	2415
4193.279	2415
4194.826	2417
4196.373	2417
4197.918	2360
4199.463	2350
4201.008	2335
4202.553	2387
4204.098	2348
4205.641	2423
4207.185	2349
4208.728	2361
4210.271	2366
4211.814	2315
4213.357	2396
4214.898	2327
4216.439	2368
4217.98	2327
4219.522	2348
4221.062	2411
4222.603	2332
4224.142	2341
4225.681	2323
4227.222	2355
4228.76	2352
4230.298	2341
4231.835	2314
4233.373	2318
4234.911	2327
4236.449	2364
4237.985	2343
4239.521	2327
4241.057	2318
4242.592	2375
4244.128	2324
4245.663	2354
4247.197	2316
4248.731	2373
4250.265	2331
4251.798	2376
4253.333	2349
4254.865	2317
4256.397	2316
4257.93	2310
4259.461	2315
4260.994	2413
4262.525	2272
4264.056	2371
4265.586	2281
4267.115	2273
4268.646	2270
4270.176	2304
4271.705	2250
4273.232	2303
4274.761	2328
4276.289	2260
4277.818	2217
4279.345	2258
4280.872	2276
4282.399	2229
4283.924	2225
4285.452	2260
4286.976	2247
4288.502	2271
4290.026	2313
4291.551	2274
4293.074	2254
4294.6	2232
4296.123	2206
4297.646	2202
4299.168	2272
4300.691	2239
4302.214	2205
4303.736	2264
4305.257	2271
4306.778	2231
4308.299	2270
4309.82	2204
4311.34	2247
4312.86	2232
4314.379	2195
