400.0745	3648
402.597	3740
405.1208	3727
407.6419	3708
410.1623	3723
412.6819	3772
415.201	3739
417.7172	3764
420.2369	3820
422.7538	3839
425.2701	3890
427.7856	3832
430.3005	3836
432.8147	3948
435.3282	3855
437.841	3920
440.3511	3847
442.8625	3810
445.3753	3930
447.8854	3900
450.3927	3899
452.9014	3938
455.4073	4025
457.9146	3878
460.4233	3946
462.9272	3877
465.4325	3935
467.935	3980
470.4389	3982
472.9421	3976
475.4446	3982
477.9444	4015
480.4456	3925
482.944	4034
485.4417	3982
487.9429	3978
490.4393	4002
492.935	3989
495.4321	4006
497.9264	3996
500.4221	4129
502.9171	4072
505.4094	4081
507.9011	3997
510.392	4125
512.8864	4093
515.3759	4120
517.8649	4100
520.3531	4109
522.8406	4139
525.3275	4114
527.8178	4084
530.3033	4084
532.7881	4068
535.2723	4074
537.7558	4119
540.2407	4126
542.7228	4112
545.2043	4069
547.6851	4115
550.1652	4098
552.6467	4158
555.1255	4236
557.6016	4126
560.079	4260
562.5557	4112
565.0318	4129
567.5092	4195
569.984	4215
572.456	4228
574.9294	4238
577.4022	4179
579.8762	4327
582.3456	4228
584.8163	4241
587.2863	4292
589.7557	4210
592.2224	4243
594.6924	4324
597.1578	4253
599.6245	4273
602.0905	4237
604.5538	4220
607.0206	4255
609.4825	4216
611.9459	4249
614.4066	4274
616.8686	4278
619.33	4292
621.7906	4256
624.2487	4234
626.708	4269
629.1647	4219
631.6207	4246
634.0801	4253
636.5348	4224
638.9888	4245
641.4442	4206
643.8969	4185
646.3509	4271
648.8022	4262
651.255	4326
653.705	4277
656.1544	4316
658.6031	4293
661.0532	4348
663.5026	4310
665.9493	4252
668.3954	4329
670.8409	4323
673.2877	4404
675.7318	4439
678.1752	4337
680.618	4383
683.0601	4339
685.5035	4402
687.9444	4410
690.3845	4357
692.824	4407
695.2628	4372
697.701	4469
700.1406	4345
702.5774	4545
705.0116	4484
707.4472	4427
709.8821	4501
712.3183	4492
714.7519	4464
717.1829	4499
719.6151	4468
722.0468	4506
724.4777	4534
726.908	4610
729.3377	4524
731.7667	4532
734.1931	4587
736.6208	4667
739.0498	4557
741.4742	4520
743.9	4620
746.3231	4693
748.7476	4634
751.1713	4692
753.5945	4742
756.015	4689
758.4368	4792
760.856	4711
763.2766	4614
765.6965	4760
768.1157	4712
770.5323	4692
772.9483	4724
775.3656	4737
777.7822	4771
780.1963	4693
782.6116	4682
785.0244	4736
787.4365	4807
789.8499	4731
792.2626	4675
794.6728	4773
797.0823	4742
799.4911	4702
801.8994	4661
804.3109	4721
806.7178	4857
809.124	4760
811.5297	4816
813.9347	4784
816.341	4869
818.7447	4895
821.1478	4859
823.5502	4824
825.952	4837
828.3531	4786
830.7556	4795
833.1554	4824
835.5546	4878
837.9532	4760
840.3511	4836
842.7504	4875
845.1451	4869
847.5411	4902
849.9365	4861
852.3312	5018
854.7272	4865
857.1187	4926
859.5115	4989
861.9037	4876
864.2952	4856
866.6842	4878
869.0764	4904
871.4661	4836
873.8531	4843
876.2415	4873
878.6272	4856
881.0162	4924
883.4026	4838
885.7866	4897
888.1717	4879
890.5543	4837
892.9382	4859
895.3215	4899
897.7041	4812
900.0842	4947
902.4655	4871
904.8443	4884
907.2244	4878
909.6039	4871
911.9808	4958
914.357	5007
916.7346	5027
919.1115	4947
921.4859	5103
923.8616	5048
926.2347	5054
928.6071	5134
930.979	5083
933.3541	5136
935.7247	5116
938.0946	5110
940.4639	5216
942.8326	5060
945.2026	5243
947.5701	5241
949.9369	5349
952.305	5299
954.6705	5486
957.0355	5677
959.4017	5806
961.7654	5770
964.1284	5662
966.4908	5716
968.8527	5590
971.2138	5468
973.5743	5330
975.9343	5278
978.2936	5128
980.6522	5159
983.0122	5022
985.3696	4991
987.7245	4972
990.0807	5105
992.4362	5026
994.7911	5033
997.1474	5105
999.4991	4991
1001.852	5027
1004.205	5075
1006.555	5054
1008.908	5065
1011.258	5146
1013.606	5052
1015.956	5060
1018.302	5033
1020.652	4991
1022.998	5036
1025.345	5121
1027.691	5148
1030.035	5012
1032.378	5099
1034.724	5118
1037.066	5113
1039.409	5170
1041.75	5162
1044.092	5182
1046.433	5125
1048.771	5155
1051.112	5123
1053.449	5021
1055.786	5130
1058.124	5072
1060.462	5132
1062.797	5175
1065.131	5218
1067.467	5204
1069.8	5229
1072.135	5139
1074.467	5214
1076.798	5334
1079.129	5194
1081.459	5131
1083.792	5182
1086.121	5109
1088.449	5185
1090.777	5035
1093.104	5149
1095.431	5201
1097.759	5033
1100.084	5171
1102.408	5231
1104.732	5064
1107.056	5136
1109.379	5233
1111.701	5219
1114.022	5197
1116.343	5188
1118.664	5191
1120.983	5167
1123.303	5207
1125.621	5148
1127.939	5224
1130.256	5176
1132.573	5220
1134.889	5086
1137.205	5244
1139.52	5068
1141.832	5234
1144.146	5230
1146.461	5199
1148.771	5122
1151.083	5183
1153.392	5198
1155.703	5240
1158.011	5247
1160.323	5208
1162.629	5135
1164.938	5232
1167.243	5170
1169.55	5267
1171.857	5212
1174.163	5142
1176.466	5152
1178.769	5178
1181.073	5213
1183.374	5223
1185.677	5175
1187.979	5184
1190.279	5197
1192.578	5024
1194.878	5166
1197.178	5190
1199.476	5180
1201.772	5226
1204.068	5158
1206.366	5285
1208.663	5247
1210.957	5272
1213.251	5211
1215.544	5067
1217.836	5271
1220.128	5073
1222.421	5214
1224.712	5308
1227.002	5214
1229.292	5246
1231.581	5344
1233.871	5313
1236.159	5451
1238.446	5405
1240.732	5356
1243.018	5352
1245.304	5497
1247.59	5367
1249.874	5424
1252.156	5443
1254.439	5388
1256.721	5316
1259.005	5471
1261.286	5427
1263.565	5427
1265.845	5409
1268.125	5510
1270.403	5327
1272.682	5430
1274.959	5390
1277.234	5393
1279.511	5311
1281.787	5301
1284.062	5294
1286.337	5321
1288.609	5281
1290.882	5222
1293.153	5472
1295.428	5299
1297.698	5414
1299.969	5232
1302.237	5268
1304.507	5300
1306.777	5261
1309.044	5392
1311.312	5313
1313.578	5301
1315.844	5372
1318.109	5450
1320.375	5320
1322.638	5362
1324.903	5326
1327.165	5323
1329.427	5374
1331.69	5447
1333.952	5314
1336.212	5312
1338.471	5358
1340.73	5353
1342.988	5430
1345.248	5274
1347.505	5336
1349.763	5288
1352.019	5338
1354.274	5293
1356.53	5305
1358.784	5327
1361.038	5302
1363.291	5348
1365.543	5292
1367.797	5343
1370.048	5335
1372.296	5295
1374.546	5372
1376.796	5294
1379.045	5328
1381.295	5221
1383.542	5351
1385.787	5415
1388.034	5378
1390.28	5427
1392.527	5443
1394.772	5459
1397.014	5401
1399.258	5413
1401.501	5385
1403.741	5429
1405.985	5444
1408.226	5372
1410.465	5494
1412.705	5460
1414.943	5411
1417.184	5404
1419.42	5530
1421.658	5516
1423.894	5360
1426.13	5475
1428.366	5515
1430.602	5447
1432.835	5450
1435.069	5655
1437.301	5558
1439.535	5531
1441.767	5552
1443.997	5485
1446.229	5615
1448.458	5588
1450.687	5508
1452.916	5621
1455.146	5548
1457.372	5512
1459.599	5668
1461.824	5523
1464.051	5630
1466.277	5568
1468.501	5478
1470.725	5498
1472.948	5496
1475.17	5498
1477.393	5443
1479.614	5501
1481.837	5425
1484.057	5459
1486.276	5347
1488.497	5390
1490.715	5368
1492.932	5310
1495.148	5337
1497.364	5305
1499.58	5280
1501.798	5394
1504.012	5290
1506.227	5300
1508.44	5264
1510.653	5273
1512.866	5276
1515.078	5341
1517.289	5286
1519.5	5235
1521.711	5278
1523.92	5307
1526.13	5317
1528.338	5264
1530.544	5353
1532.752	5225
1534.959	5334
1537.165	5288
1539.371	5354
1541.574	5386
1543.779	5328
1545.983	5359
1548.187	5307
1550.39	5265
1552.59	5366
1554.792	5334
1556.991	5373
1559.19	5396
1561.392	5476
1563.59	5308
1565.789	5344
1567.986	5388
1570.182	5514
1572.381	5353
1574.576	5464
1576.771	5373
1578.966	5405
1581.16	5397
1583.354	5405
1585.546	5486
1587.74	5361
1589.931	5457
1592.121	5480
1594.311	5419
1596.502	5542
1598.693	5425
1600.881	5537
1603.069	5457
1605.256	5489
1607.445	5524
1609.631	5424
1611.816	5449
1614.001	5463
1616.186	5395
1618.37	5467
1620.555	5413
1622.737	5572
1624.919	5482
1627.101	5484
1629.282	5502
1631.463	5458
1633.643	5486
1635.822	5553
1638.001	5499
1640.179	5531
1642.359	5463
1644.534	5544
1646.711	5536
1648.887	5618
1651.062	5530
1653.235	5616
1655.412	5555
1657.586	5457
1659.757	5599
1661.93	5559
1664.1	5583
1666.274	5609
1668.445	5611
1670.614	5556
1672.784	5623
1674.951	5603
1677.12	5569
1679.289	5575
1681.457	5600
1683.622	5520
1685.789	5603
1687.953	5504
1690.121	5540
1692.284	5524
1694.447	5507
1696.611	5461
1698.772	5443
1700.935	5550
1703.098	5425
1705.258	5477
1707.417	5544
1709.576	5551
1711.736	5524
1713.896	5475
1716.053	5406
1718.21	5511
1720.366	5439
1722.522	5441
1724.68	5351
1726.835	5529
1728.989	5461
1731.142	5470
1733.295	5488
1735.449	5411
1737.601	5376
1739.753	5483
1741.903	5437
1744.054	5405
1746.203	5488
1748.354	5479
1750.503	5441
1752.651	5421
1754.798	5548
1756.944	5442
1759.092	5519
1761.238	5445
1763.383	5451
1765.528	5584
1767.672	5497
1769.814	5569
1771.959	5439
1774.102	5442
1776.242	5543
1778.384	5487
1780.525	5543
1782.665	5470
1784.805	5485
1786.945	5531
1789.082	5433
1791.22	5461
1793.36	5468
1795.495	5421
1797.632	5476
1799.766	5479
1801.902	5396
1804.035	5473
1806.172	5523
1808.304	5467
1810.436	5457
1812.569	5432
1814.699	5497
1816.833	5536
1818.963	5456
1821.092	5475
1823.222	5433
1825.35	5470
1827.478	5517
1829.608	5363
1831.734	5421
1833.86	5472
1835.986	5612
1838.11	5564
1840.238	5523
1842.362	5456
1844.485	5427
1846.608	5412
1848.73	5456
1850.853	5371
1852.974	5425
1855.097	5424
1857.217	5487
1859.336	5421
1861.455	5406
1863.576	5413
1865.693	5446
1867.811	5376
1869.926	5433
1872.042	5420
1874.16	5421
1876.275	5466
1878.39	5435
1880.504	5448
1882.618	5432
1884.731	5480
1886.843	5453
1888.956	5476
1891.067	5507
1893.178	5464
1895.287	5447
1897.399	5383
1899.508	5481
1901.617	5450
1903.724	5460
1905.832	5516
1907.941	5392
1910.046	5484
1912.152	5461
1914.256	5572
1916.361	5387
1918.464	5473
1920.57	5559
1922.672	5569
1924.775	5615
1926.876	5474
1928.978	5492
1931.08	5487
1933.181	5466
1935.28	5521
1937.38	5494
1939.478	5641
1941.577	5558
1943.675	5527
1945.771	5490
1947.867	5516
1949.964	5405
1952.058	5479
1954.154	5501
1956.248	5546
1958.343	5454
1960.435	5536
1962.527	5554
1964.62	5488
1966.711	5571
1968.802	5508
1970.892	5463
1972.983	5514
1975.072	5635
1977.162	5458
1979.25	5502
1981.337	5561
1983.424	5476
1985.51	5491
1987.598	5554
1989.683	5472
1991.768	5452
1993.852	5492
1995.934	5512
1998.019	5489
2000.102	5478
2002.184	5511
2004.266	5475
2006.347	5371
2008.427	5441
2010.508	5486
2012.587	5528
2014.666	5483
2016.745	5499
2018.821	5343
2020.9	5413
2022.977	5462
2025.052	5466
2027.128	5372
2029.204	5406
2031.277	5389
2033.353	5464
2035.425	5491
2037.499	5423
2039.57	5377
2041.642	5418
2043.714	5464
2045.786	5500
2047.855	5552
2049.925	5423
2051.993	5513
2054.064	5482
2056.132	5472
2058.2	5494
2060.266	5482
2062.332	5430
2064.398	5462
2066.465	5409
2068.529	5502
2070.592	5445
2072.657	5587
2074.719	5478
2076.783	5560
2078.845	5461
2080.907	5442
2082.968	5453
2085.028	5342
2087.087	5465
2089.148	5308
2091.207	5421
2093.264	5529
2095.322	5521
2097.379	5511
2099.439	5474
2101.495	5487
2103.55	5469
2105.605	5491
2107.658	5458
2109.713	5408
2111.767	5515
2113.82	5375
2115.872	5510
2117.924	5399
2119.975	5531
2122.028	5490
2124.078	5364
2126.126	5394
2128.176	5394
2130.225	5486
2132.275	5406
2134.321	5495
2136.368	5326
2138.415	5433
2140.461	5423
2142.505	5405
2144.552	5439
2146.597	5382
2148.64	5441
2150.684	5419
2152.725	5407
2154.77	5416
2156.811	5482
2158.852	5505
2160.894	5473
2162.933	5332
2164.973	5427
2167.013	5479
2169.051	5434
2171.089	5486
2173.126	5396
2175.164	5414
2177.201	5394
2179.236	5411
2181.273	5327
2183.307	5366
2185.341	5466
2187.377	5370
2189.41	5375
2191.442	5386
2193.473	5311
2195.506	5173
2197.539	5376
2199.569	5340
2201.598	5344
2203.628	5334
2205.656	5345
2207.686	5301
2209.716	5391
2211.743	5371
2213.769	5348
2215.796	5425
2217.821	5330
2219.848	5255
2221.873	5349
2223.897	5371
2225.921	5334
2227.944	5275
2229.967	5210
2231.991	5309
2234.011	5290
2236.032	5344
2238.053	5292
2240.073	5262
2242.094	5262
2244.114	5373
2246.131	5348
2248.149	5241
2250.167	5367
2252.186	5381
2254.201	5352
2256.218	5306
2258.233	5376
2260.247	5231
2262.262	5287
2264.278	5297
2266.29	5375
2268.303	5249
2270.315	5313
2272.327	5354
2274.341	5270
2276.35	5338
2278.361	5284
2280.37	5278
2282.38	5265
2284.388	5285
2286.397	5261
2288.405	5379
2290.412	5304
2292.419	5344
2294.425	5354
2296.431	5346
2298.437	5415
2300.441	5256
2302.445	5342
2304.449	5356
2306.453	5359
2308.455	5258
2310.457	5262
2312.459	5194
2314.46	5278
2316.46	5260
2318.461	5149
2320.46	5303
2322.458	5276
2324.458	5277
2326.456	5239
2328.455	5243
2330.451	5334
2332.447	5320
2334.443	5270
2336.438	5340
2338.433	5139
2340.429	5285
2342.422	5220
2344.416	5274
2346.408	5250
2348.399	5265
2350.393	5216
2352.384	5187
2354.375	5264
2356.365	5178
2358.355	5216
2360.344	5237
2362.333	5161
2364.322	5184
2366.309	5159
2368.295	5288
2370.282	5207
2372.27	5193
2374.256	5197
2376.24	5290
2378.225	5147
2380.208	5196
2382.194	5189
2384.177	5223
2386.159	5201
2388.142	5273
2390.122	5116
2392.105	5244
2394.085	5108
2396.066	5081
2398.044	5117
2400.024	5181
2402.002	5171
2403.982	5193
2405.959	5195
2407.935	5101
2409.913	5055
2411.888	5159
2413.865	5149
2415.84	5060
2417.814	5057
2419.788	5190
2421.762	5071
2423.735	5086
2425.708	5013
2427.68	5092
2429.651	5080
2431.623	5164
2433.593	5009
2435.564	5077
2437.533	5066
2439.502	5116
2441.47	5000
2443.438	5133
2445.406	5101
2447.373	5091
2449.34	5089
2451.305	5140
2453.271	5115
2455.235	5078
2457.201	5115
2459.165	5106
2461.129	5164
2463.092	4995
2465.054	5134
2467.018	5087
2468.978	5067
2470.939	5021
2472.899	4993
2474.86	5079
2476.819	5057
2478.778	5001
2480.737	5072
2482.695	4912
2484.653	5037
2486.609	5059
2488.567	4949
2490.524	4976
2492.478	5055
2494.433	5130
2496.387	5023
2498.343	5037
2500.297	4950
2502.249	4991
2504.202	5041
2506.153	5071
2508.105	5046
2510.057	5034
2512.008	4939
2513.957	5022
2515.906	5040
2517.855	5011
2519.805	5060
2521.754	4946
2523.7	4920
2525.647	4896
2527.594	4934
2529.54	5003
2531.486	5002
2533.431	4971
2535.376	4924
2537.32	4970
2539.263	4991
2541.207	5074
2543.151	4931
2545.093	4996
2547.034	5036
2548.975	5000
2550.917	4980
2552.856	4981
2554.796	5015
2556.735	4940
2558.673	4993
2560.611	4954
2562.55	4892
2564.487	4942
2566.424	5031
2568.36	4993
2570.296	4990
2572.232	4952
2574.167	5045
2576.101	5046
2578.035	5070
2579.969	5026
2581.902	4845
2583.834	5003
2585.766	4977
2587.698	4902
2589.628	4996
2591.557	4963
2593.489	4841
2595.419	5005
2597.348	5007
2599.275	4992
2601.204	4951
2603.131	4972
2605.059	5046
2606.986	5007
2608.911	4935
2610.837	5006
2612.76	4940
2614.687	4988
2616.61	4917
2618.534	4958
2620.457	5057
2622.38	4948
2624.302	4982
2626.225	4958
2628.145	4982
2630.067	4954
2631.986	4986
2633.906	5106
2635.827	4941
2637.745	5009
2639.662	4994
2641.581	5036
2643.498	4901
2645.415	5034
2647.331	4915
2649.248	4997
2651.163	4935
2653.077	5004
2654.993	4900
2656.906	5056
2658.821	5024
2660.733	4957
2662.646	4968
2664.557	4948
2666.47	4978
2668.381	4966
2670.291	4960
2672.201	4999
2674.11	4889
2676.021	4869
2677.929	4867
2679.837	5012
2681.745	4992
2683.652	5011
2685.56	4829
2687.466	4875
2689.371	4871
2691.276	4989
2693.181	4913
2695.085	4939
2696.991	4923
2698.893	4868
2700.796	4900
2702.698	4941
2704.601	4771
2706.502	4786
2708.404	4856
2710.304	4877
2712.203	4877
2714.103	4767
2716.003	4914
2717.902	4764
2719.8	4902
2721.697	4856
2723.594	4874
2725.49	4915
2727.389	4780
2729.283	4832
2731.179	4838
2733.073	4828
2734.968	4826
2736.863	4868
2738.757	4760
2740.649	4834
2742.541	4833
2744.433	4925
2746.324	4785
2748.216	4841
2750.107	4876
2751.997	4791
2753.886	4849
2755.776	4837
2757.666	4832
2759.553	4763
2761.44	4829
2763.327	4811
2765.215	4803
2767.102	4783
2768.988	4847
2770.873	4724
2772.757	4791
2774.641	4797
2776.525	4868
2778.41	4717
2780.292	4774
2782.175	4766
2784.057	4824
2785.938	4744
2787.821	4762
2789.701	4785
2791.581	4763
2793.461	4810
2795.34	4694
2797.219	4725
2799.099	4838
2800.975	4660
2802.853	4815
2804.73	4796
2806.606	4766
2808.484	4810
2810.358	4646
2812.233	4805
2814.108	4750
2815.981	4739
2817.857	4836
2819.73	4703
2821.602	4786
2823.474	4757
2825.346	4675
2827.217	4729
2829.089	4851
2830.959	4704
2832.829	4763
2834.698	4753
2836.567	4726
2838.436	4714
2840.305	4710
2842.172	4753
2844.04	4805
2845.905	4763
2847.772	4786
2849.639	4749
2851.503	4822
2853.369	4793
2855.232	4799
2857.096	4815
2858.961	4855
2860.824	4785
2862.686	4816
2864.547	4887
2866.41	5012
2868.272	4935
2870.132	4993
2871.992	5000
2873.851	4975
2875.711	5082
2877.57	5068
2879.429	5046
2881.287	5034
2883.144	5141
2885.001	5175
2886.857	5146
2888.714	5207
2890.57	5181
2892.425	5131
2894.279	5144
2896.133	5058
2897.987	5211
2899.842	5060
2901.694	5098
2903.547	5157
2905.397	5053
2907.249	5105
2909.101	5243
2910.952	5117
2912.802	5237
2914.652	5255
2916.5	5249
2918.35	5164
2920.198	5290
2922.045	5357
2923.893	5420
2925.74	5410
2927.585	5482
2929.433	5518
2931.279	5620
2933.123	5505
2934.968	5548
2936.811	5619
2938.656	5676
2940.5	5670
2942.342	5804
2944.185	5655
2946.026	5759
2947.87	5765
2949.71	5635
2951.549	5643
2953.39	5626
2955.229	5689
2957.069	5606
2958.908	5581
2960.746	5519
2962.584	5490
2964.421	5490
2966.257	5411
2968.094	5261
2969.931	5331
2971.766	5324
2973.601	5222
2975.435	5161
2977.27	5166
2979.105	5109
2980.938	5276
2982.77	5249
2984.602	5170
2986.434	5135
2988.267	5085
2990.097	5107
2991.927	4974
2993.757	4951
2995.587	4985
2997.417	4931
2999.246	4921
3001.074	4852
3002.902	4807
3004.729	4739
3006.556	4736
3008.384	4762
3010.21	4705
3012.036	4663
3013.861	4669
3015.684	4715
3017.51	4577
3019.334	4666
3021.157	4613
3022.981	4598
3024.802	4567
3026.624	4467
3028.448	4464
3030.267	4532
3032.088	4516
3033.909	4518
3035.728	4443
3037.549	4488
3039.368	4423
3041.186	4499
3043.004	4440
3044.821	4538
3046.64	4398
3048.455	4628
3050.272	4414
3052.087	4407
3053.903	4467
3055.717	4482
3057.534	4443
3059.347	4410
3061.16	4444
3062.974	4396
3064.785	4512
3066.598	4374
3068.411	4403
3070.222	4411
3072.032	4454
3073.844	4409
3075.653	4395
3077.463	4353
3079.272	4310
3081.08	4325
3082.889	4363
3084.697	4393
3086.505	4258
3088.312	4297
3090.118	4401
3091.924	4415
3093.729	4345
3095.535	4310
3097.34	4302
3099.144	4341
3100.947	4302
3102.75	4310
3104.553	4391
3106.357	4266
3108.159	4230
3109.961	4238
3111.762	4262
3113.562	4285
3115.365	4247
3117.164	4274
3118.964	4266
3120.761	4292
3122.56	4203
3124.36	4266
3126.158	4236
3127.954	4264
3129.75	4185
3131.547	4298
3133.343	4242
3135.139	4234
3136.934	4148
3138.729	4229
3140.522	4190
3142.317	4218
3144.11	4209
3145.904	4145
3147.695	4213
3149.488	4173
3151.28	4151
3153.07	4155
3154.863	4159
3156.652	4155
3158.441	4211
3160.231	4158
3162.019	4152
3163.81	4228
3165.597	4129
3167.384	4151
3169.172	4136
3170.958	4182
3172.745	4125
3174.532	4134
3176.317	4124
3178.101	4074
3179.885	4206
3181.67	4126
3183.455	4156
3185.238	4252
3187.02	4112
3188.802	4088
3190.585	4143
3192.368	4159
3194.149	4055
3195.929	4117
3197.709	4085
3199.489	4128
3201.268	4158
3203.048	4091
3204.826	4111
3206.604	4106
3208.382	4120
3210.159	4085
3211.937	4151
3213.713	4126
3215.489	4066
3217.263	4127
3219.038	4121
3220.815	4088
3222.589	4125
3224.363	4146
3226.136	4074
3227.908	4056
3229.681	4094
3231.454	4133
3233.226	3993
3234.996	4014
3236.767	4124
3238.538	4086
3240.308	4040
3242.078	4083
3243.847	4043
3245.615	4078
3247.384	4052
3249.15	4102
3250.92	4046
3252.686	3978
3254.453	4071
3256.218	4107
3257.984	4063
3259.75	4081
3261.515	4018
3263.279	4042
3265.044	4028
3266.806	4163
3268.57	4080
3270.334	4044
3272.095	4110
3273.856	4064
3275.619	4089
3277.379	4035
3279.14	4001
3280.9	4046
3282.661	4016
3284.419	4095
3286.178	4101
3287.937	3987
3289.695	4102
3291.453	4072
3293.21	4038
3294.967	4041
3296.723	4039
3298.48	4000
3300.235	4092
3301.99	4082
3303.744	4135
3305.498	4013
3307.253	4092
3309.006	4073
3310.759	4146
3312.511	3965
3314.263	4040
3316.017	4037
3317.768	4060
3319.519	4006
3321.268	4088
3323.018	4037
3324.767	4092
3326.518	4116
3328.267	4004
3330.014	4044
3331.762	4024
3333.509	4000
3335.258	4028
3337.003	4061
3338.75	3958
3340.496	4096
3342.24	4006
3343.987	3989
3345.732	4050
3347.475	3951
3349.219	3978
3350.961	3974
3352.705	3912
3354.448	3975
3356.19	4005
3357.931	3976
3359.672	3997
3361.412	3982
3363.155	3954
3364.894	4047
3366.633	4093
3368.372	3955
3370.11	3927
3371.849	3992
3373.588	3963
3375.325	3972
3377.061	3971
3378.799	3922
3380.534	3910
3382.271	3942
3384.006	3988
3385.741	3887
3387.475	3891
3389.209	4002
3390.944	3912
3392.677	3953
3394.409	3955
3396.143	3977
3397.874	3879
3399.606	3924
3401.338	3926
3403.069	3959
3404.799	3888
3406.528	3951
3408.258	3850
3409.988	3925
3411.717	3958
3413.445	3872
3415.173	3899
3416.899	3950
3418.626	3892
3420.354	3744
3422.08	3810
3423.806	3823
3425.531	3823
3427.255	3853
3428.981	3876
3430.705	3830
3432.429	3900
3434.151	3935
3435.875	3910
3437.599	3781
3439.321	3859
3441.042	3807
3442.763	3740
3444.483	3856
3446.204	3756
3447.926	3805
3449.645	3758
3451.364	3853
3453.082	3816
3454.801	3784
3456.52	3788
3458.238	3796
3459.954	3719
3461.671	3831
3463.387	3694
3465.104	3803
3466.82	3701
3468.534	3788
3470.25	3825
3471.963	3738
3473.676	3704
3475.392	3699
3477.104	3763
3478.817	3703
3480.528	3688
3482.241	3679
3483.954	3744
3485.664	3674
3487.374	3712
3489.084	3659
3490.795	3649
3492.504	3710
3494.214	3684
3495.922	3744
3497.63	3696
3499.338	3656
3501.045	3626
3502.753	3616
3504.459	3589
3506.166	3669
3507.871	3642
3509.576	3615
3511.283	3667
3512.987	3568
3514.691	3675
3516.395	3634
3518.098	3541
3519.8	3616
3521.504	3570
3523.206	3578
3524.908	3645
3526.609	3548
3528.309	3651
3530.011	3646
3531.711	3627
3533.411	3538
3535.109	3560
3536.808	3566
3538.507	3579
3540.206	3596
3541.904	3562
3543.601	3634
3545.297	3619
3546.994	3565
3548.69	3570
3550.387	3526
3552.081	3548
3553.776	3475
3555.47	3506
3557.166	3513
3558.859	3551
3560.553	3476
3562.245	3489
3563.938	3549
3565.629	3473
3567.322	3597
3569.014	3525
3570.704	3486
3572.394	3420
3574.084	3451
3575.775	3526
3577.464	3461
3579.152	3492
3580.842	3431
3582.529	3506
3584.216	3475
3585.905	3457
3587.591	3517
3589.279	3468
3590.964	3391
3592.649	3406
3594.336	3503
3596.021	3449
3597.705	3425
3599.388	3427
3601.072	3416
3602.757	3486
3604.439	3430
3606.122	3379
3607.803	3486
3609.485	3370
3611.167	3406
3612.849	3410
3614.529	3404
3616.208	3328
3617.888	3316
3619.567	3361
3621.247	3434
3622.926	3336
3624.603	3379
3626.281	3422
3627.958	3372
3629.635	3293
3631.312	3360
3632.989	3291
3634.665	3393
3636.339	3339
3638.014	3406
3639.691	3322
3641.364	3334
3643.038	3284
3644.71	3204
3646.384	3350
3648.058	3248
3649.729	3311
3651.402	3245
3653.073	3350
3654.744	3298
3656.414	3237
3658.085	3242
3659.755	3278
3661.424	3272
3663.094	3279
3664.762	3274
3666.431	3255
3668.099	3253
3669.766	3233
3671.433	3286
3673.099	3259
3674.768	3288
3676.433	3228
3678.098	3277
3679.763	3316
3681.428	3137
3683.093	3184
3684.757	3276
3686.421	3191
3688.083	3181
3689.746	3259
3691.408	3189
3693.071	3209
3694.733	3224
3696.394	3202
3698.054	3263
3699.715	3289
3701.375	3233
3703.036	3188
3704.695	3206
3706.354	3171
3708.012	3160
3709.67	3298
3711.329	3177
3712.987	3247
3714.644	3188
3716.299	3254
3717.955	3136
3719.613	3155
3721.268	3154
3722.923	3265
3724.577	3097
3726.231	3210
3727.885	3195
3729.539	3265
3731.192	3163
3732.845	3194
3734.497	3148
3736.149	3132
3737.802	3106
3739.453	3156
3741.104	3166
3742.753	3174
3744.404	3115
3746.052	3158
3747.704	3188
3749.352	3087
3751	3059
3752.648	3092
3754.296	3114
3755.944	3098
3757.59	3125
3759.238	3149
3760.883	3142
3762.528	3180
3764.176	3093
3765.82	3134
3767.464	3111
3769.109	3128
3770.753	3066
3772.396	3142
3774.04	3069
3775.683	3122
3777.325	3074
3778.967	3124
3780.608	3086
3782.25	3103
3783.89	3128
3785.531	3046
3787.17	3126
3788.81	3169
3790.45	3057
3792.09	3063
3793.729	3078
3795.366	3007
3797.003	3013
3798.64	3043
3800.278	2985
3801.915	3099
3803.551	3046
3805.187	2996
3806.822	3049
3808.458	3032
3810.093	2996
3811.726	2960
3813.36	3018
3814.994	3008
3816.627	3012
3818.262	3016
3819.893	2949
3821.525	2961
3823.157	3033
3824.787	2968
3826.42	2980
3828.051	2964
3829.68	2971
3831.31	3117
3832.938	3018
3834.569	3026
3836.198	2976
3837.825	2975
3839.454	2926
3841.08	3020
3842.708	2977
3844.335	2994
3845.962	3024
3847.587	2931
3849.212	2909
3850.838	2995
3852.463	2940
3854.089	2889
3855.712	2919
3857.335	2970
3858.959	2994
3860.582	2915
3862.205	2944
3863.827	2911
3865.449	2982
3867.07	2887
3868.691	2910
3870.312	2956
3871.933	2931
3873.553	2860
3875.173	2982
3876.792	2962
3878.411	2982
3880.03	2888
3881.647	2939
3883.265	2872
3884.882	2991
3886.499	2943
3888.116	2891
3889.732	2924
3891.348	2899
3892.964	2855
3894.579	2861
3896.195	2844
3897.809	2878
3899.423	2856
3901.036	2851
3902.648	2873
3904.261	2793
3905.875	2827
3907.487	2904
3909.099	2822
3910.709	2850
3912.321	2891
3913.933	2855
3915.542	2845
3917.152	2876
3918.762	2836
3920.37	2857
3921.98	2869
3923.589	2841
3925.196	2841
3926.804	2816
3928.41	2853
3930.018	2817
3931.626	2820
3933.231	2806
3934.838	2849
3936.442	2838
3938.046	2822
3939.653	2881
3941.257	2820
3942.861	2865
3944.464	2809
3946.068	2840
3947.67	2777
3949.273	2739
3950.876	2851
3952.477	2819
3954.078	2833
3955.678	2846
3957.281	2837
3958.881	2739
3960.48	2789
3962.079	2862
3963.678	2787
3965.279	2822
3966.877	2768
3968.475	2842
3970.072	2763
3971.669	2780
3973.266	2787
3974.864	2796
3976.459	2765
3978.055	2731
3979.65	2690
3981.245	2775
3982.841	2735
3984.436	2693
3986.03	2665
3987.623	2751
3989.216	2764
3990.809	2742
3992.403	2673
3993.995	2650
3995.586	2814
3997.177	2659
3998.768	2689
4000.361	2685
4001.951	2683
4003.54	2679
4005.13	2740
4006.719	2760
4008.31	2724
4009.897	2619
4011.485	2692
4013.073	2646
4014.66	2711
4016.247	2781
4017.834	2632
4019.421	2656
4021.006	2612
4022.592	2661
4024.178	2627
4025.763	2697
4027.348	2655
4028.932	2614
4030.515	2615
4032.099	2654
4033.682	2585
4035.266	2596
4036.847	2676
4038.429	2684
4040.011	2655
4041.592	2666
4043.173	2639
4044.755	2631
4046.334	2592
4047.913	2655
4049.494	2615
4051.074	2561
4052.652	2562
4054.23	2623
4055.807	2548
4057.385	2595
4058.963	2512
4060.541	2680
4062.117	2615
4063.693	2641
4065.269	2584
4066.844	2544
4068.42	2617
4069.995	2620
4071.569	2618
4073.143	2601
4074.716	2648
4076.291	2604
4077.864	2574
4079.436	2530
4081.009	2611
4082.58	2564
4084.152	2581
4085.723	2598
4087.294	2572
4088.865	2563
4090.435	2523
4092.005	2490
4093.574	2601
4095.143	2530
4096.712	2522
4098.279	2562
4099.848	2531
4101.416	2537
4102.984	2537
4104.55	2540
4106.117	2509
4107.682	2561
4109.248	2542
4110.815	2422
4112.379	2516
4113.945	2509
4115.508	2485
4117.073	2462
4118.637	2516
4120.201	2562
4121.763	2514
4123.325	2570
4124.888	2446
4126.449	2504
4128.013	2492
4129.573	2523
4131.133	2522
4132.694	2471
4134.254	2520
4135.814	2478
4137.374	2480
4138.933	2475
4140.491	2498
4142.049	2555
4143.607	2466
4145.167	2435
4146.724	2473
4148.28	2432
4149.836	2453
4151.392	2408
4152.949	2439
4154.504	2378
4156.059	2423
4157.614	2456
4159.168	2396
4160.723	2441
4162.277	2505
4163.83	2408
4165.383	2431
4166.936	2459
4168.488	2412
4170.041	2375
4171.593	2432
4173.144	2380
4174.695	2391
4176.246	2474
4177.796	2421
4179.346	2370
4180.896	2398
4182.445	2421
4183.994	2364
4185.542	2372
4187.091	2339
4188.639	2403
4190.185	2351
4191.732	2332
4193.279	2378
4194.826	2372
4196.373	2342
4197.918	2365
4199.463	2404
4201.008	2371
4202.553	2379
4204.098	2364
4205.641	2344
4207.185	2365
4208.728	2325
4210.271	2366
4211.814	2367
4213.357	2359
4214.898	2340
4216.439	2344
4217.98	2351
4219.522	2346
4221.062	2290
4222.603	2344
4224.142	2317
4225.681	2330
4227.222	2344
4228.76	2365
4230.298	2313
4231.835	2307
4233.373	2330
4234.911	2257
4236.449	2300
4237.985	2376
4239.521	2322
4241.057	2293
4242.592	2368
4244.128	2294
4245.663	2381
4247.197	2338
4248.731	2271
4250.265	2297
4251.798	2285
4253.333	2239
4254.865	2327
4256.397	2339
4257.93	2275
4259.461	2296
4260.994	2352
4262.525	2316
4264.056	2312
4265.586	2284
4267.115	2280
4268.646	2244
4270.176	2297
4271.705	2285
4273.232	2288
4274.761	2240
4276.289	2311
4277.818	2314
4279.345	2287
4280.872	2353
4282.399	2240
4283.924	2285
4285.452	2210
4286.976	2236
4288.502	2289
4290.026	2255
4291.551	2257
4293.074	2234
4294.6	2235
4296.123	2284
4297.646	2287
4299.168	2209
4300.691	2205
4302.214	2223
4303.736	2212
4305.257	2227
4306.778	2206
4308.299	2275
4309.82	2302
4311.34	2200
4312.86	2228
4314.379	2195
