400.0745	4358
402.597	4333
405.1208	4304
407.6419	4280
410.1623	4292
412.6819	4417
415.201	4418
417.7172	4307
420.2369	4438
422.7538	4513
425.2701	4583
427.7856	4671
430.3005	4569
432.8147	4627
435.3282	4566
437.841	4582
440.3511	4566
442.8625	4566
445.3753	4653
447.8854	4607
450.3927	4571
452.9014	4548
455.4073	4641
457.9146	4640
460.4233	4594
462.9272	4647
465.4325	4636
467.935	4647
470.4389	4731
472.9421	4564
475.4446	4673
477.9444	4649
480.4456	4635
482.944	4686
485.4417	4707
487.9429	4699
490.4393	4654
492.935	4705
495.4321	4595
497.9264	4695
500.4221	4696
502.9171	4676
505.4094	4814
507.9011	4767
510.392	4774
512.8864	4735
515.3759	4787
517.8649	4753
520.3531	4803
522.8406	4777
525.3275	4798
527.8178	4774
530.3033	4720
532.7881	4813
535.2723	4753
537.7558	4875
540.2407	4734
542.7228	4781
545.2043	4761
547.6851	4804
550.1652	4873
552.6467	4754
555.1255	4847
557.6016	4738
560.079	4865
562.5557	4875
565.0318	4805
567.5092	4911
569.984	4953
572.456	4938
574.9294	4916
577.4022	4935
579.8762	4901
582.3456	5111
584.8163	4992
587.2863	5069
589.7557	4985
592.2224	5025
594.6924	5013
597.1578	5012
599.6245	5078
602.0905	4952
604.5538	5067
607.0206	5046
609.4825	4971
611.9459	4967
614.4066	4991
616.8686	4910
619.33	4999
621.7906	5008
624.2487	4897
626.708	4915
629.1647	4876
631.6207	4906
634.0801	4913
636.5348	4961
638.9888	4996
641.4442	5018
643.8969	4965
646.3509	5019
648.8022	5038
651.255	5092
653.705	4982
656.1544	4992
658.6031	4981
661.0532	5058
663.5026	4944
665.9493	5143
668.3954	5134
670.8409	5144
673.2877	5147
675.7318	5066
678.1752	5187
680.618	5131
683.0601	5125
685.5035	5105
687.9444	5113
690.3845	5165
692.824	5092
695.2628	5132
697.701	5137
700.1406	5246
702.5774	5149
705.0116	5241
707.4472	5075
709.8821	5182
712.3183	5251
714.7519	5198
717.1829	5184
719.6151	5299
722.0468	5262
724.4777	5255
726.908	5346
729.3377	5232
731.7667	5236
734.1931	5374
736.6208	5325
739.0498	5403
741.4742	5344
743.9	5387
746.3231	5403
748.7476	5501
751.1713	5478
753.5945	5321
756.015	5322
758.4368	5555
760.856	5528
763.2766	5571
765.6965	5524
768.1157	5447
770.5323	5496
772.9483	5477
775.3656	5575
777.7822	5527
780.1963	5666
782.6116	5575
785.0244	5539
787.4365	5448
789.8499	5484
792.2626	5565
794.6728	5389
797.0823	5500
799.4911	5487
801.8994	5545
804.3109	5604
806.7178	5549
809.124	5545
811.5297	5558
813.9347	5578
816.341	5626
818.7447	5611
821.1478	5706
823.5502	5698
825.952	5664
828.3531	5537
830.7556	5489
833.1554	5611
835.5546	5633
837.9532	5663
840.3511	5649
842.7504	5638
845.1451	5680
847.5411	5685
849.9365	5739
852.3312	5727
854.7272	5796
857.1187	5726
859.5115	5774
861.9037	5766
864.2952	5711
866.6842	5707
869.0764	5605
871.4661	5697
873.8531	5767
876.2415	5732
878.6272	5719
881.0162	5742
883.4026	5722
885.7866	5703
888.1717	5625
890.5543	5790
892.9382	5666
895.3215	5702
897.7041	5706
900.0842	5701
902.4655	5712
904.8443	5786
907.2244	5702
909.6039	5709
911.9808	5685
914.357	5882
916.7346	5846
919.1115	5882
921.4859	5912
923.8616	6010
926.2347	5859
928.6071	5997
930.979	5924
933.3541	5886
935.7247	5971
938.0946	6023
940.4639	6099
942.8326	6145
945.2026	6082
947.5701	6293
949.9369	6484
952.305	6666
954.6705	6792
957.0355	7084
959.4017	7279
961.7654	7450
964.1284	7463
966.4908	7202
968.8527	7016
971.2138	6740
973.5743	6478
975.9343	6150
978.2936	6108
980.6522	6044
983.0122	6029
985.3696	5835
987.7245	5999
990.0807	5860
992.4362	5929
994.7911	5931
997.1474	5952
999.4991	5923
1001.852	5871
1004.205	5900
1006.555	5950
1008.908	6003
1011.258	5991
1013.606	5807
1015.956	5879
1018.302	6004
1020.652	5958
1022.998	5967
1025.345	5999
1027.691	5989
1030.035	6059
1032.378	5970
1034.724	6102
1037.066	6013
1039.409	6128
1041.75	5992
1044.092	5912
1046.433	6086
1048.771	6069
1051.112	6080
1053.449	5953
1055.786	6131
1058.124	6064
1060.462	6063
1062.797	6047
1065.131	6196
1067.467	6079
1069.8	6239
1072.135	6156
1074.467	6194
1076.798	6154
1079.129	6273
1081.459	6066
1083.792	6103
1086.121	6134
1088.449	6210
1090.777	6106
1093.104	6066
1095.431	6091
1097.759	5987
1100.084	6010
1102.408	6011
1104.732	6061
1107.056	6035
1109.379	6126
1111.701	6107
1114.022	6042
1116.343	6054
1118.664	6075
1120.983	6075
1123.303	6078
1125.621	6094
1127.939	6157
1130.256	6066
1132.573	6104
1134.889	6076
1137.205	6042
1139.52	5993
1141.832	6083
1144.146	6067
1146.461	6080
1148.771	5994
1151.083	6120
1153.392	6114
1155.703	6004
1158.011	6068
1160.323	6190
1162.629	6055
1164.938	5942
1167.243	6155
1169.55	6079
1171.857	6107
1174.163	6150
1176.466	6115
1178.769	6026
1181.073	6070
1183.374	6194
1185.677	6021
1187.979	6079
1190.279	6054
1192.578	6069
1194.878	5971
1197.178	5986
1199.476	6035
1201.772	6045
1204.068	6080
1206.366	6123
1208.663	6043
1210.957	6174
1213.251	5967
1215.544	6119
1217.836	6127
1220.128	6223
1222.421	6066
1224.712	6194
1227.002	6128
1229.292	6052
1231.581	6250
1233.871	6252
1236.159	6366
1238.446	6287
1240.732	6392
1243.018	6278
1245.304	6322
1247.59	6355
1249.874	6236
1252.156	6299
1254.439	6339
1256.721	6279
1259.005	6276
1261.286	6290
1263.565	6331
1265.845	6353
1268.125	6396
1270.403	6444
1272.682	6293
1274.959	6246
1277.234	6353
1279.511	6266
1281.787	6265
1284.062	6319
1286.337	6189
1288.609	6312
1290.882	6180
1293.153	6255
1295.428	6214
1297.698	6207
1299.969	6231
1302.237	6142
1304.507	6229
1306.777	6187
1309.044	6096
1311.312	6153
1313.578	6176
1315.844	6178
1318.109	6184
1320.375	6198
1322.638	6229
1324.903	6164
1327.165	6085
1329.427	6244
1331.69	6219
1333.952	6351
1336.212	6157
1338.471	6361
1340.73	6305
1342.988	6315
1345.248	6197
1347.505	6248
1349.763	6310
1352.019	6217
1354.274	6151
1356.53	6193
1358.784	6205
1361.038	6142
1363.291	6274
1365.543	6181
1367.797	6267
1370.048	6228
1372.296	6211
1374.546	6094
1376.796	6311
1379.045	6181
1381.295	6210
1383.542	6318
1385.787	6338
1388.034	6345
1390.28	6294
1392.527	6347
1394.772	6394
1397.014	6273
1399.258	6375
1401.501	6379
1403.741	6303
1405.985	6358
1408.226	6318
1410.465	6267
1412.705	6417
1414.943	6380
1417.184	6376
1419.42	6474
1421.658	6377
1423.894	6412
1426.13	6350
1428.366	6322
1430.602	6386
1432.835	6389
1435.069	6530
1437.301	6468
1439.535	6492
1441.767	6560
1443.997	6433
1446.229	6547
1448.458	6431
1450.687	6532
1452.916	6546
1455.146	6629
1457.372	6690
1459.599	6476
1461.824	6497
1464.051	6612
1466.277	6418
1468.501	6562
1470.725	6451
1472.948	6427
1475.17	6500
1477.393	6359
1479.614	6423
1481.837	6317
1484.057	6329
1486.276	6321
1488.497	6267
1490.715	6265
1492.932	6215
1495.148	6125
1497.364	6326
1499.58	6262
1501.798	6279
1504.012	6286
1506.227	6197
1508.44	6216
1510.653	6197
1512.866	6269
1515.078	6253
1517.289	6291
1519.5	6101
1521.711	6305
1523.92	6180
1526.13	6296
1528.338	6175
1530.544	6230
1532.752	6169
1534.959	6221
1537.165	6146
1539.371	6209
1541.574	6194
1543.779	6135
1545.983	6295
1548.187	6179
1550.39	6242
1552.59	6272
1554.792	6250
1556.991	6359
1559.19	6329
1561.392	6240
1563.59	6330
1565.789	6360
1567.986	6316
1570.182	6358
1572.381	6329
1574.576	6371
1576.771	6389
1578.966	6271
1581.16	6346
1583.354	6426
1585.546	6365
1587.74	6378
1589.931	6367
1592.121	6414
1594.311	6371
1596.502	6335
1598.693	6489
1600.881	6432
1603.069	6400
1605.256	6442
1607.445	6376
1609.631	6350
1611.816	6422
1614.001	6443
1616.186	6391
1618.37	6451
1620.555	6423
1622.737	6505
1624.919	6545
1627.101	6354
1629.282	6499
1631.463	6575
1633.643	6578
1635.822	6510
1638.001	6526
1640.179	6620
1642.359	6473
1644.534	6541
1646.711	6619
1648.887	6558
1651.062	6588
1653.235	6587
1655.412	6535
1657.586	6528
1659.757	6583
1661.93	6564
1664.1	6610
1666.274	6580
1668.445	6618
1670.614	6644
1672.784	6555
1674.951	6577
1677.12	6677
1679.289	6484
1681.457	6590
1683.622	6735
1685.789	6525
1687.953	6535
1690.121	6518
1692.284	6473
1694.447	6504
1696.611	6463
1698.772	6525
1700.935	6440
1703.098	6473
1705.258	6370
1707.417	6473
1709.576	6405
1711.736	6392
1713.896	6316
1716.053	6311
1718.21	6399
1720.366	6346
1722.522	6422
1724.68	6310
1726.835	6381
1728.989	6425
1731.142	6441
1733.295	6357
1735.449	6478
1737.601	6346
1739.753	6434
1741.903	6470
1744.054	6510
1746.203	6390
1748.354	6312
1750.503	6408
1752.651	6446
1754.798	6300
1756.944	6338
1759.092	6438
1761.238	6305
1763.383	6351
1765.528	6416
1767.672	6427
1769.814	6429
1771.959	6513
1774.102	6491
1776.242	6471
1778.384	6530
1780.525	6464
1782.665	6456
1784.805	6529
1786.945	6391
1789.082	6408
1791.22	6461
1793.36	6449
1795.495	6479
1797.632	6495
1799.766	6487
1801.902	6396
1804.035	6515
1806.172	6355
1808.304	6525
1810.436	6524
1812.569	6564
1814.699	6489
1816.833	6363
1818.963	6508
1821.092	6466
1823.222	6395
1825.35	6510
1827.478	6583
1829.608	6435
1831.734	6481
1833.86	6418
1835.986	6489
1838.11	6562
1840.238	6558
1842.362	6436
1844.485	6375
1846.608	6395
1848.73	6422
1850.853	6408
1852.974	6516
1855.097	6418
1857.217	6476
1859.336	6492
1861.455	6423
1863.576	6474
1865.693	6333
1867.811	6431
1869.926	6478
1872.042	6337
1874.16	6451
1876.275	6453
1878.39	6384
1880.504	6361
1882.618	6412
1884.731	6369
1886.843	6448
1888.956	6398
1891.067	6406
1893.178	6454
1895.287	6462
1897.399	6511
1899.508	6406
1901.617	6481
1903.724	6400
1905.832	6599
1907.941	6502
1910.046	6466
1912.152	6549
1914.256	6531
1916.361	6442
1918.464	6480
1920.57	6589
1922.672	6498
1924.775	6588
1926.876	6490
1928.978	6590
1931.08	6524
1933.181	6539
1935.28	6508
1937.38	6470
1939.478	6501
1941.577	6478
1943.675	6563
1945.771	6565
1947.867	6551
1949.964	6515
1952.058	6523
1954.154	6475
1956.248	6517
1958.343	6504
1960.435	6538
1962.527	6458
1964.62	6494
1966.711	6609
1968.802	6529
1970.892	6492
1972.983	6583
1975.072	6460
1977.162	6553
1979.25	6495
1981.337	6541
1983.424	6519
1985.51	6480
1987.598	6539
1989.683	6536
1991.768	6397
1993.852	6585
1995.934	6462
1998.019	6494
2000.102	6445
2002.184	6483
2004.266	6549
2006.347	6388
2008.427	6588
2010.508	6372
2012.587	6428
2014.666	6437
2016.745	6326
2018.821	6414
2020.9	6422
2022.977	6415
2025.052	6342
2027.128	6434
2029.204	6524
2031.277	6497
2033.353	6438
2035.425	6589
2037.499	6373
2039.57	6461
2041.642	6430
2043.714	6494
2045.786	6509
2047.855	6517
2049.925	6427
2051.993	6411
2054.064	6473
2056.132	6466
2058.2	6410
2060.266	6552
2062.332	6480
2064.398	6465
2066.465	6467
2068.529	6515
2070.592	6441
2072.657	6371
2074.719	6527
2076.783	6398
2078.845	6485
2080.907	6406
2082.968	6500
2085.028	6510
2087.087	6378
2089.148	6492
2091.207	6480
2093.264	6428
2095.322	6490
2097.379	6563
2099.439	6526
2101.495	6458
2103.55	6500
2105.605	6537
2107.658	6520
2109.713	6470
2111.767	6550
2113.82	6463
2115.872	6491
2117.924	6574
2119.975	6462
2122.028	6468
2124.078	6517
2126.126	6416
2128.176	6523
2130.225	6514
2132.275	6454
2134.321	6470
2136.368	6353
2138.415	6503
2140.461	6371
2142.505	6433
2144.552	6433
2146.597	6487
2148.64	6416
2150.684	6374
2152.725	6459
2154.77	6382
2156.811	6455
2158.852	6469
2160.894	6433
2162.933	6529
2164.973	6339
2167.013	6411
2169.051	6357
2171.089	6445
2173.126	6379
2175.164	6440
2177.201	6309
2179.236	6424
2181.273	6362
2183.307	6311
2185.341	6364
2187.377	6323
2189.41	6386
2191.442	6252
2193.473	6375
2195.506	6418
2197.539	6328
2199.569	6353
2201.598	6439
2203.628	6366
2205.656	6336
2207.686	6310
2209.716	6280
2211.743	6378
2213.769	6331
2215.796	6381
2217.821	6331
2219.848	6262
2221.873	6377
2223.897	6260
2225.921	6282
2227.944	6295
2229.967	6353
2231.991	6267
2234.011	6341
2236.032	6341
2238.053	6284
2240.073	6199
2242.094	6283
2244.114	6428
2246.131	6306
2248.149	6344
2250.167	6301
2252.186	6299
2254.201	6318
2256.218	6346
2258.233	6375
2260.247	6372
2262.262	6452
2264.278	6288
2266.29	6381
2268.303	6251
2270.315	6274
2272.327	6366
2274.341	6335
2276.35	6303
2278.361	6342
2280.37	6349
2282.38	6344
2284.388	6312
2286.397	6393
2288.405	6311
2290.412	6417
2292.419	6300
2294.425	6449
2296.431	6337
2298.437	6372
2300.441	6320
2302.445	6294
2304.449	6436
2306.453	6221
2308.455	6266
2310.457	6280
2312.459	6393
2314.46	6363
2316.46	6335
2318.461	6206
2320.46	6290
2322.458	6317
2324.458	6363
2326.456	6362
2328.455	6238
2330.451	6248
2332.447	6233
2334.443	6228
2336.438	6186
2338.433	6259
2340.429	6366
2342.422	6302
2344.416	6168
2346.408	6343
2348.399	6248
2350.393	6251
2352.384	6129
2354.375	6298
2356.365	6201
2358.355	6238
2360.344	6391
2362.333	6248
2364.322	6254
2366.309	6204
2368.295	6245
2370.282	6240
2372.27	6156
2374.256	6258
2376.24	6303
2378.225	6122
2380.208	6262
2382.194	6131
2384.177	6225
2386.159	6203
2388.142	6260
2390.122	6264
2392.105	6203
2394.085	6176
2396.066	6218
2398.044	6250
2400.024	6216
2402.002	6124
2403.982	6091
2405.959	6230
2407.935	6246
2409.913	6155
2411.888	6133
2413.865	6224
2415.84	6160
2417.814	6022
2419.788	6148
2421.762	6153
2423.735	6276
2425.708	6271
2427.68	6268
2429.651	6216
2431.623	6198
2433.593	6194
2435.564	6212
2437.533	6201
2439.502	6211
2441.47	6171
2443.438	6234
2445.406	6143
2447.373	6097
2449.34	6159
2451.305	6218
2453.271	6144
2455.235	6157
2457.201	6048
2459.165	6198
2461.129	6133
2463.092	6196
2465.054	6132
2467.018	6263
2468.978	6113
2470.939	6027
2472.899	6115
2474.86	6166
2476.819	6234
2478.778	6196
2480.737	6237
2482.695	6238
2484.653	6190
2486.609	6064
2488.567	6223
2490.524	6066
2492.478	6169
2494.433	6191
2496.387	6178
2498.343	6053
2500.297	6272
2502.249	6050
2504.202	6233
2506.153	6190
2508.105	6183
2510.057	6124
2512.008	5957
2513.957	6054
2515.906	6150
2517.855	6124
2519.805	6103
2521.754	6156
2523.7	6142
2525.647	6095
2527.594	6054
2529.54	6150
2531.486	6066
2533.431	6245
2535.376	6047
2537.32	6127
2539.263	6151
2541.207	6203
2543.151	6067
2545.093	6179
2547.034	6201
2548.975	6144
2550.917	6144
2552.856	6203
2554.796	6155
2556.735	6149
2558.673	6153
2560.611	6162
2562.55	6068
2564.487	6092
2566.424	6092
2568.36	6138
2570.296	6119
2572.232	6056
2574.167	6210
2576.101	6141
2578.035	6171
2579.969	6128
2581.902	6196
2583.834	6067
2585.766	6197
2587.698	6145
2589.628	6209
2591.557	6308
2593.489	6216
2595.419	6267
2597.348	6185
2599.275	6172
2601.204	6219
2603.131	6207
2605.059	6068
2606.986	6156
2608.911	6144
2610.837	6175
2612.76	6264
2614.687	6221
2616.61	6204
2618.534	6085
2620.457	6219
2622.38	6210
2624.302	6250
2626.225	6137
2628.145	6215
2630.067	6229
2631.986	6221
2633.906	6220
2635.827	6156
2637.745	6245
2639.662	6250
2641.581	6146
2643.498	6240
2645.415	6324
2647.331	6287
2649.248	6214
2651.163	6245
2653.077	6310
2654.993	6193
2656.906	6212
2658.821	6387
2660.733	6235
2662.646	6276
2664.557	6201
2666.47	6262
2668.381	6188
2670.291	6317
2672.201	6234
2674.11	6323
2676.021	6205
2677.929	6090
2679.837	6216
2681.745	6179
2683.652	6198
2685.56	6214
2687.466	6159
2689.371	6260
2691.276	6191
2693.181	6251
2695.085	6185
2696.991	6175
2698.893	6174
2700.796	6175
2702.698	6220
2704.601	6165
2706.502	6277
2708.404	6129
2710.304	6345
2712.203	6245
2714.103	6104
2716.003	6185
2717.902	6209
2719.8	6155
2721.697	6106
2723.594	6248
2725.49	6265
2727.389	6124
2729.283	6137
2731.179	6183
2733.073	6176
2734.968	6177
2736.863	6201
2738.757	6194
2740.649	6230
2742.541	6244
2744.433	6274
2746.324	6199
2748.216	6270
2750.107	6215
2751.997	6256
2753.886	6240
2755.776	6279
2757.666	6172
2759.553	6166
2761.44	6316
2763.327	6257
2765.215	6165
2767.102	6105
2768.988	6147
2770.873	6209
2772.757	6150
2774.641	6142
2776.525	6240
2778.41	6194
2780.292	6132
2782.175	6181
2784.057	6246
2785.938	6184
2787.821	6252
2789.701	6222
2791.581	6158
2793.461	6163
2795.34	6160
2797.219	6237
2799.099	6204
2800.975	6245
2802.853	6174
2804.73	6131
2806.606	6166
2808.484	6149
2810.358	6110
2812.233	6199
2814.108	6262
2815.981	6222
2817.857	6056
2819.73	6160
2821.602	6326
2823.474	6152
2825.346	6334
2827.217	6183
2829.089	6328
2830.959	6182
2832.829	6244
2834.698	6037
2836.567	6338
2838.436	6220
2840.305	6205
2842.172	6244
2844.04	6216
2845.905	6288
2847.772	6245
2849.639	6290
2851.503	6210
2853.369	6281
2855.232	6352
2857.096	6283
2858.961	6360
2860.824	6283
2862.686	6306
2864.547	6436
2866.41	6399
2868.272	6455
2870.132	6454
2871.992	6605
2873.851	6490
2875.711	6555
2877.57	6607
2879.429	6759
2881.287	6751
2883.144	6730
2885.001	6827
2886.857	6789
2888.714	6644
2890.57	6721
2892.425	6804
2894.279	6875
2896.133	6759
2897.987	6816
2899.842	6833
2901.694	6764
2903.547	6734
2905.397	6713
2907.249	6823
2909.101	6862
2910.952	6865
2912.802	6899
2914.652	6985
2916.5	6931
2918.35	6910
2920.198	7020
2922.045	7016
2923.893	7070
2925.74	7153
2927.585	7221
2929.433	7309
2931.279	7250
2933.123	7392
2934.968	7461
2936.811	7355
2938.656	7525
2940.5	7524
2942.342	7512
2944.185	7606
2946.026	7628
2947.87	7720
2949.71	7610
2951.549	7449
2953.39	7578
2955.229	7504
2957.069	7439
2958.908	7323
2960.746	7391
2962.584	7336
2964.421	7277
2966.257	7214
2968.094	7225
2969.931	7183
2971.766	7040
2973.601	7037
2975.435	7015
2977.27	7042
2979.105	7071
2980.938	6932
2982.77	7004
2984.602	6894
2986.434	7026
2988.267	6995
2990.097	6985
2991.927	6955
2993.757	6905
2995.587	6901
2997.417	6785
2999.246	6689
3001.074	6661
3002.902	6654
3004.729	6646
3006.556	6563
3008.384	6567
3010.21	6517
3012.036	6584
3013.861	6531
3015.684	6342
3017.51	6463
3019.334	6540
3021.157	6387
3022.981	6432
3024.802	6232
3026.624	6380
3028.448	6344
3030.267	6307
3032.088	6300
3033.909	6270
3035.728	6222
3037.549	6294
3039.368	6243
3041.186	6251
3043.004	6307
3044.821	6266
3046.64	6261
3048.455	6397
3050.272	6220
3052.087	6354
3053.903	6318
3055.717	6251
3057.534	6179
3059.347	6322
3061.16	6324
3062.974	6219
3064.785	6229
3066.598	6191
3068.411	6391
3070.222	6278
3072.032	6227
3073.844	6143
3075.653	6239
3077.463	6284
3079.272	6262
3081.08	6178
3082.889	6354
3084.697	6118
3086.505	6235
3088.312	6274
3090.118	6224
3091.924	6201
3093.729	6241
3095.535	6194
3097.34	6308
3099.144	6162
3100.947	6165
3102.75	6286
3104.553	6143
3106.357	6094
3108.159	6124
3109.961	6241
3111.762	6277
3113.562	6277
3115.365	6193
3117.164	6221
3118.964	6171
3120.761	6060
3122.56	6258
3124.36	6273
3126.158	6296
3127.954	6119
3129.75	6215
3131.547	6246
3133.343	6207
3135.139	6064
3136.934	6186
3138.729	6159
3140.522	6104
3142.317	6235
3144.11	6217
3145.904	6188
3147.695	6231
3149.488	6249
3151.28	6238
3153.07	6088
3154.863	6189
3156.652	6151
3158.441	6100
3160.231	6292
3162.019	6115
3163.81	6229
3165.597	6151
3167.384	6272
3169.172	6147
3170.958	6207
3172.745	6211
3174.532	6157
3176.317	6178
3178.101	6246
3179.885	6236
3181.67	6255
3183.455	6237
3185.238	6273
3187.02	6212
3188.802	6142
3190.585	6141
3192.368	6168
3194.149	6243
3195.929	6126
3197.709	6203
3199.489	6153
3201.268	6162
3203.048	6330
3204.826	6176
3206.604	6095
3208.382	6261
3210.159	6327
3211.937	6219
3213.713	6165
3215.489	6207
3217.263	6265
3219.038	6409
3220.815	6343
3222.589	6293
3224.363	6195
3226.136	6334
3227.908	6274
3229.681	6309
3231.454	6277
3233.226	6190
3234.996	6307
3236.767	6372
3238.538	6331
3240.308	6370
3242.078	6290
3243.847	6239
3245.615	6218
3247.384	6260
3249.15	6398
3250.92	6419
3252.686	6412
3254.453	6384
3256.218	6477
3257.984	6395
3259.75	6333
3261.515	6312
3263.279	6395
3265.044	6310
3266.806	6243
3268.57	6419
3270.334	6431
3272.095	6346
3273.856	6349
3275.619	6546
3277.379	6302
3279.14	6334
3280.9	6540
3282.661	6487
3284.419	6438
3286.178	6473
3287.937	6448
3289.695	6566
3291.453	6499
3293.21	6556
3294.967	6486
3296.723	6547
3298.48	6429
3300.235	6460
3301.99	6613
3303.744	6434
3305.498	6533
3307.253	6533
3309.006	6589
3310.759	6584
3312.511	6449
3314.263	6559
3316.017	6456
3317.768	6627
3319.519	6570
3321.268	6563
3323.018	6583
3324.767	6549
3326.518	6692
3328.267	6432
3330.014	6536
3331.762	6539
3333.509	6501
3335.258	6546
3337.003	6645
3338.75	6581
3340.496	6655
3342.24	6593
3343.987	6663
3345.732	6584
3347.475	6535
3349.219	6576
3350.961	6549
3352.705	6588
3354.448	6577
3356.19	6598
3357.931	6570
3359.672	6667
3361.412	6529
3363.155	6622
3364.894	6675
3366.633	6584
3368.372	6610
3370.11	6578
3371.849	6661
3373.588	6615
3375.325	6626
3377.061	6650
3378.799	6684
3380.534	6696
3382.271	6623
3384.006	6605
3385.741	6512
3387.475	6643
3389.209	6621
3390.944	6521
3392.677	6677
3394.409	6601
3396.143	6596
3397.874	6655
3399.606	6646
3401.338	6707
3403.069	6659
3404.799	6553
3406.528	6588
3408.258	6693
3409.988	6656
3411.717	6715
3413.445	6703
3415.173	6666
3416.899	6727
3418.626	6763
3420.354	6635
3422.08	6635
3423.806	6689
3425.531	6641
3427.255	6603
3428.981	6740
3430.705	6656
3432.429	6744
3434.151	6751
3435.875	6602
3437.599	6705
3439.321	6776
3441.042	6672
3442.763	6643
3444.483	6560
3446.204	6705
3447.926	6591
3449.645	6635
3451.364	6640
3453.082	6687
3454.801	6736
3456.52	6717
3458.238	6638
3459.954	6634
3461.671	6671
3463.387	6700
3465.104	6688
3466.82	6602
3468.534	6714
3470.25	6685
3471.963	6659
3473.676	6567
3475.392	6756
3477.104	6655
3478.817	6677
3480.528	6627
3482.241	6634
3483.954	6771
3485.664	6629
3487.374	6635
3489.084	6662
3490.795	6594
3492.504	6671
3494.214	6538
3495.922	6778
3497.63	6717
3499.338	6674
3501.045	6600
3502.753	6719
3504.459	6693
3506.166	6687
3507.871	6722
3509.576	6573
3511.283	6690
3512.987	6756
3514.691	6700
3516.395	6693
3518.098	6639
3519.8	6739
3521.504	6622
3523.206	6750
3524.908	6709
3526.609	6667
3528.309	6769
3530.011	6666
3531.711	6872
3533.411	6744
3535.109	6621
3536.808	6703
3538.507	6814
3540.206	6647
3541.904	6597
3543.601	6834
3545.297	6743
3546.994	6767
3548.69	6793
3550.387	6767
3552.081	6685
3553.776	6822
3555.47	6682
3557.166	6685
3558.859	6846
3560.553	6787
3562.245	6873
3563.938	6814
3565.629	6845
3567.322	6783
3569.014	6677
3570.704	6860
3572.394	6765
3574.084	6754
3575.775	6804
3577.464	6814
3579.152	6786
3580.842	6708
3582.529	6827
3584.216	6828
3585.905	6818
3587.591	6869
3589.279	6834
3590.964	6932
3592.649	6919
3594.336	6816
3596.021	6793
3597.705	6945
3599.388	6852
3601.072	6762
3602.757	6781
3604.439	6779
3606.122	6861
3607.803	6701
3609.485	6872
3611.167	6769
3612.849	6811
3614.529	6934
3616.208	6846
3617.888	6800
3619.567	6808
3621.247	6880
3622.926	6871
3624.603	6773
3626.281	6840
3627.958	6828
3629.635	6820
3631.312	6910
3632.989	6877
3634.665	6835
3636.339	6721
3638.014	6863
3639.691	6939
3641.364	6831
3643.038	6776
3644.71	6803
3646.384	6985
3648.058	6968
3649.729	6764
3651.402	6846
3653.073	6860
3654.744	6851
3656.414	6823
3658.085	6840
3659.755	6972
3661.424	6805
3663.094	6842
3664.762	6771
3666.431	6886
3668.099	6932
3669.766	6965
3671.433	6937
3673.099	6963
3674.768	6857
3676.433	7038
3678.098	6891
3679.763	6911
3681.428	6981
3683.093	6949
3684.757	6945
3686.421	6891
3688.083	7028
3689.746	6986
3691.408	6939
3693.071	6991
3694.733	6967
3696.394	6951
3698.054	6990
3699.715	6955
3701.375	7024
3703.036	7072
3704.695	7038
3706.354	7055
3708.012	7049
3709.67	7010
3711.329	7091
3712.987	7018
3714.644	7003
3716.299	7093
3717.955	7153
3719.613	7120
3721.268	7085
3722.923	7046
3724.577	7151
3726.231	7137
3727.885	7073
3729.539	7176
3731.192	7117
3732.845	7151
3734.497	7167
3736.149	7241
3737.802	7133
3739.453	7094
3741.104	7266
3742.753	7189
3744.404	7244
3746.052	7042
3747.704	7304
3749.352	7192
3751	7331
3752.648	7241
3754.296	7248
3755.944	7176
3757.59	7189
3759.238	7274
3760.883	7244
3762.528	7281
3764.176	7221
3765.82	7256
3767.464	7173
3769.109	7231
3770.753	7214
3772.396	7139
3774.04	7328
3775.683	7267
3777.325	7253
3778.967	7239
3780.608	7239
3782.25	7245
3783.89	7304
3785.531	7353
3787.17	7240
3788.81	7297
3790.45	7264
3792.09	7362
3793.729	7315
3795.366	7316
3797.003	7262
3798.64	7389
3800.278	7252
3801.915	7155
3803.551	7500
3805.187	7269
3806.822	7305
3808.458	7314
3810.093	7255
3811.726	7289
3813.36	7409
3814.994	7400
3816.627	7475
3818.262	7369
3819.893	7365
3821.525	7412
3823.157	7534
3824.787	7326
3826.42	7415
3828.051	7456
3829.68	7420
3831.31	7293
3832.938	7351
3834.569	7377
3836.198	7348
3837.825	7326
3839.454	7535
3841.08	7479
3842.708	7525
3844.335	7316
3845.962	7495
3847.587	7519
3849.212	7487
3850.838	7455
3852.463	7418
3854.089	7451
3855.712	7520
3857.335	7382
3858.959	7581
3860.582	7547
3862.205	7444
3863.827	7424
3865.449	7640
3867.07	7557
3868.691	7473
3870.312	7492
3871.933	7561
3873.553	7605
3875.173	7536
3876.792	7508
3878.411	7450
3880.03	7529
3881.647	7612
3883.265	7637
3884.882	7496
3886.499	7595
3888.116	7639
3889.732	7506
3891.348	7657
3892.964	7553
3894.579	7635
3896.195	7537
3897.809	7507
3899.423	7616
3901.036	7523
3902.648	7715
3904.261	7754
3905.875	7639
3907.487	7568
3909.099	7678
3910.709	7661
3912.321	7700
3913.933	7747
3915.542	7683
3917.152	7676
3918.762	7703
3920.37	7816
3921.98	7741
3923.589	7704
3925.196	7659
3926.804	7603
3928.41	7813
3930.018	7731
3931.626	7687
3933.231	7785
3934.838	7746
3936.442	7926
3938.046	7816
3939.653	7875
3941.257	7723
3942.861	7870
3944.464	7824
3946.068	7849
3947.67	7805
3949.273	7803
3950.876	7862
3952.477	8020
3954.078	7898
3955.678	7935
3957.281	7908
3958.881	7927
3960.48	7936
3962.079	7767
3963.678	7865
3965.279	7814
3966.877	7785
3968.475	7937
3970.072	7962
3971.669	7929
3973.266	7849
3974.864	7983
3976.459	7878
3978.055	7949
3979.65	7888
3981.245	7990
3982.841	7920
3984.436	8022
3986.03	7923
3987.623	7975
3989.216	7862
3990.809	7923
3992.403	8010
3993.995	8051
3995.586	7966
3997.177	8038
3998.768	8018
4000.361	7924
4001.951	8047
4003.54	8069
4005.13	7900
4006.719	8030
4008.31	7995
4009.897	7963
4011.485	8095
4013.073	8040
4014.66	7930
4016.247	8136
4017.834	8003
4019.421	8024
4021.006	7987
4022.592	7911
4024.178	8050
4025.763	8051
4027.348	8066
4028.932	8004
4030.515	7962
4032.099	8136
4033.682	8075
4035.266	7996
4036.847	8060
4038.429	8028
4040.011	8221
4041.592	8065
4043.173	8016
4044.755	8050
4046.334	8062
4047.913	8146
4049.494	8189
4051.074	8048
4052.652	8022
4054.23	8041
4055.807	8142
4057.385	8096
4058.963	8280
4060.541	8232
4062.117	8096
4063.693	8209
4065.269	8199
4066.844	8189
4068.42	8266
4069.995	8317
4071.569	8243
4073.143	8172
4074.716	8176
4076.291	8351
4077.864	8264
4079.436	8302
4081.009	8299
4082.58	8189
4084.152	8234
4085.723	8252
4087.294	8272
4088.865	8400
4090.435	8368
4092.005	8360
4093.574	8423
4095.143	8338
4096.712	8380
4098.279	8448
4099.848	8349
4101.416	8316
4102.984	8391
4104.55	8453
4106.117	8471
4107.682	8428
4109.248	8376
4110.815	8291
4112.379	8476
4113.945	8337
4115.508	8475
4117.073	8372
4118.637	8453
4120.201	8247
4121.763	8419
4123.325	8514
4124.888	8321
4126.449	8409
4128.013	8487
4129.573	8465
4131.133	8432
4132.694	8330
4134.254	8322
4135.814	8518
4137.374	8452
4138.933	8440
4140.491	8513
4142.049	8407
4143.607	8331
4145.167	8402
4146.724	8489
4148.28	8419
4149.836	8453
4151.392	8554
4152.949	8424
4154.504	8522
4156.059	8408
4157.614	8451
4159.168	8455
4160.723	8405
4162.277	8560
4163.83	8406
4165.383	8523
4166.936	8365
4168.488	8539
4170.041	8472
4171.593	8545
4173.144	8581
4174.695	8549
4176.246	8465
4177.796	8385
4179.346	8536
4180.896	8464
4182.445	8440
4183.994	8456
4185.542	8572
4187.091	8557
4188.639	8516
4190.185	8523
4191.732	8447
4193.279	8585
4194.826	8491
4196.373	8574
4197.918	8561
4199.463	8587
4201.008	8632
4202.553	8541
4204.098	8564
4205.641	8688
4207.185	8538
4208.728	8678
4210.271	8546
4211.814	8521
4213.357	8688
4214.898	8746
4216.439	8702
4217.98	8693
4219.522	8638
4221.062	8595
4222.603	8690
4224.142	8629
4225.681	8553
4227.222	8683
4228.76	8646
4230.298	8797
4231.835	8682
4233.373	8725
4234.911	8663
4236.449	8681
4237.985	8847
4239.521	8671
4241.057	8784
4242.592	8645
4244.128	8740
4245.663	8808
4247.197	8753
4248.731	8815
4250.265	8778
4251.798	8865
4253.333	8781
4254.865	8981
4256.397	8870
4257.93	8776
4259.461	8942
4260.994	8810
4262.525	8890
4264.056	8859
4265.586	8907
4267.115	9032
4268.646	8825
4270.176	8956
4271.705	8896
4273.232	8928
4274.761	8904
4276.289	8938
4277.818	9025
4279.345	8889
4280.872	8885
4282.399	8927
4283.924	9022
4285.452	9085
4286.976	8987
4288.502	8886
4290.026	8951
4291.551	8909
4293.074	9059
4294.6	8970
4296.123	8869
4297.646	8959
4299.168	9067
4300.691	8986
4302.214	9099
4303.736	9075
4305.257	9016
4306.778	8986
4308.299	9070
4309.82	9108
4311.34	9071
4312.86	8972
4314.379	9038
