400.0745	3872
402.597	3952
405.1208	3951
407.6419	3860
410.1623	3998
412.6819	3870
415.201	3937
417.7172	3971
420.2369	4004
422.7538	4095
425.2701	4058
427.7856	4105
430.3005	4106
432.8147	4062
435.3282	4194
437.841	4135
440.3511	4173
442.8625	4146
445.3753	4146
447.8854	4254
450.3927	4213
452.9014	4165
455.4073	4196
457.9146	4199
460.4233	4208
462.9272	4272
465.4325	4237
467.935	4132
470.4389	4162
472.9421	4254
475.4446	4243
477.9444	4224
480.4456	4298
482.944	4251
485.4417	4330
487.9429	4350
490.4393	4282
492.935	4323
495.4321	4388
497.9264	4338
500.4221	4368
502.9171	4265
505.4094	4432
507.9011	4429
510.392	4363
512.8864	4409
515.3759	4423
517.8649	4480
520.3531	4251
522.8406	4498
525.3275	4357
527.8178	4370
530.3033	4482
532.7881	4329
535.2723	4341
537.7558	4461
540.2407	4396
542.7228	4404
545.2043	4329
547.6851	4448
550.1652	4475
552.6467	4480
555.1255	4407
557.6016	4577
560.079	4437
562.5557	4519
565.0318	4453
567.5092	4558
569.984	4412
572.456	4492
574.9294	4461
577.4022	4567
579.8762	4521
582.3456	4566
584.8163	4633
587.2863	4553
589.7557	4513
592.2224	4518
594.6924	4484
597.1578	4530
599.6245	4626
602.0905	4583
604.5538	4508
607.0206	4617
609.4825	4556
611.9459	4630
614.4066	4527
616.8686	4505
619.33	4512
621.7906	4584
624.2487	4559
626.708	4536
629.1647	4554
631.6207	4584
634.0801	4460
636.5348	4573
638.9888	4582
641.4442	4612
643.8969	4559
646.3509	4546
648.8022	4548
651.255	4644
653.705	4514
656.1544	4600
658.6031	4675
661.0532	4668
663.5026	4639
665.9493	4608
668.3954	4644
670.8409	4646
673.2877	4623
675.7318	4667
678.1752	4745
680.618	4751
683.0601	4659
685.5035	4735
687.9444	4619
690.3845	4688
692.824	4688
695.2628	4824
697.701	4766
700.1406	4687
702.5774	4743
705.0116	4747
707.4472	4640
709.8821	4855
712.3183	4811
714.7519	4750
717.1829	4765
719.6151	4943
722.0468	4882
724.4777	4853
726.908	4827
729.3377	4870
731.7667	4857
734.1931	4864
736.6208	4890
739.0498	4908
741.4742	4986
743.9	4988
746.3231	5028
748.7476	4953
751.1713	5053
753.5945	5111
756.015	5086
758.4368	5064
760.856	4938
763.2766	4994
765.6965	5039
768.1157	5012
770.5323	5044
772.9483	5076
775.3656	5001
777.7822	5125
780.1963	4990
782.6116	5092
785.0244	5122
787.4365	5028
789.8499	5052
792.2626	5139
794.6728	5124
797.0823	5173
799.4911	5111
801.8994	5069
804.3109	4930
806.7178	5155
809.124	5082
811.5297	5142
813.9347	5140
816.341	5153
818.7447	5110
821.1478	5199
823.5502	5093
825.952	5220
828.3531	5182
830.7556	5170
833.1554	5106
835.5546	5157
837.9532	5173
840.3511	5075
842.7504	5090
845.1451	5272
847.5411	5156
849.9365	5235
852.3312	5239
854.7272	5271
857.1187	5303
859.5115	5308
861.9037	5209
864.2952	5362
866.6842	5214
869.0764	5249
871.4661	5200
873.8531	5256
876.2415	5231
878.6272	5362
881.0162	5175
883.4026	5266
885.7866	5214
888.1717	5110
890.5543	5214
892.9382	5262
895.3215	5243
897.7041	5198
900.0842	5231
902.4655	5214
904.8443	5274
907.2244	5215
909.6039	5332
911.9808	5281
914.357	5353
916.7346	5379
919.1115	5354
921.4859	5428
923.8616	5449
926.2347	5513
928.6071	5420
930.979	5481
933.3541	5439
935.7247	5537
938.0946	5440
940.4639	5485
942.8326	5443
945.2026	5577
947.5701	5656
949.9369	5803
952.305	5731
954.6705	5983
957.0355	6131
959.4017	6156
961.7654	6296
964.1284	6262
966.4908	6104
968.8527	5953
971.2138	5858
973.5743	5794
975.9343	5514
978.2936	5575
980.6522	5525
983.0122	5478
985.3696	5529
987.7245	5399
990.0807	5466
992.4362	5412
994.7911	5471
997.1474	5433
999.4991	5374
1001.852	5476
1004.205	5440
1006.555	5470
1008.908	5494
1011.258	5429
1013.606	5431
1015.956	5464
1018.302	5395
1020.652	5398
1022.998	5585
1025.345	5550
1027.691	5449
1030.035	5518
1032.378	5457
1034.724	5578
1037.066	5445
1039.409	5629
1041.75	5495
1044.092	5482
1046.433	5563
1048.771	5635
1051.112	5550
1053.449	5524
1055.786	5474
1058.124	5571
1060.462	5553
1062.797	5510
1065.131	5546
1067.467	5635
1069.8	5648
1072.135	5738
1074.467	5636
1076.798	5661
1079.129	5745
1081.459	5544
1083.792	5593
1086.121	5594
1088.449	5545
1090.777	5664
1093.104	5544
1095.431	5546
1097.759	5652
1100.084	5618
1102.408	5713
1104.732	5525
1107.056	5631
1109.379	5664
1111.701	5549
1114.022	5478
1116.343	5535
1118.664	5523
1120.983	5539
1123.303	5604
1125.621	5670
1127.939	5638
1130.256	5801
1132.573	5611
1134.889	5536
1137.205	5638
1139.52	5612
1141.832	5758
1144.146	5653
1146.461	5745
1148.771	5556
1151.083	5727
1153.392	5674
1155.703	5636
1158.011	5637
1160.323	5550
1162.629	5599
1164.938	5642
1167.243	5671
1169.55	5698
1171.857	5674
1174.163	5659
1176.466	5637
1178.769	5646
1181.073	5625
1183.374	5627
1185.677	5561
1187.979	5606
1190.279	5701
1192.578	5559
1194.878	5661
1197.178	5644
1199.476	5572
1201.772	5677
1204.068	5612
1206.366	5679
1208.663	5538
1210.957	5616
1213.251	5681
1215.544	5731
1217.836	5588
1220.128	5732
1222.421	5715
1224.712	5784
1227.002	5789
1229.292	5770
1231.581	5766
1233.871	5643
1236.159	5857
1238.446	5846
1240.732	5747
1243.018	5876
1245.304	5893
1247.59	5854
1249.874	5843
1252.156	5877
1254.439	5804
1256.721	5886
1259.005	5745
1261.286	5810
1263.565	5836
1265.845	5862
1268.125	5832
1270.403	5831
1272.682	5856
1274.959	5883
1277.234	5895
1279.511	5882
1281.787	5843
1284.062	5825
1286.337	5833
1288.609	5879
1290.882	5813
1293.153	5780
1295.428	5858
1297.698	5807
1299.969	5705
1302.237	5761
1304.507	5855
1306.777	5784
1309.044	5718
1311.312	5774
1313.578	5757
1315.844	5787
1318.109	5874
1320.375	5864
1322.638	5849
1324.903	5863
1327.165	5754
1329.427	5820
1331.69	5846
1333.952	5770
1336.212	5862
1338.471	5842
1340.73	5835
1342.988	5690
1345.248	5765
1347.505	5729
1349.763	5803
1352.019	5846
1354.274	5676
1356.53	5776
1358.784	5766
1361.038	5867
1363.291	5775
1365.543	5778
1367.797	5889
1370.048	5736
1372.296	5812
1374.546	5708
1376.796	5829
1379.045	5888
1381.295	5798
1383.542	5853
1385.787	5854
1388.034	5820
1390.28	5883
1392.527	5793
1394.772	5990
1397.014	5812
1399.258	5868
1401.501	5983
1403.741	5888
1405.985	5839
1408.226	5921
1410.465	5831
1412.705	5950
1414.943	5885
1417.184	6017
1419.42	6040
1421.658	5878
1423.894	6057
1426.13	5888
1428.366	5833
1430.602	5960
1432.835	5941
1435.069	5935
1437.301	6035
1439.535	6032
1441.767	6003
1443.997	6012
1446.229	6028
1448.458	6044
1450.687	6090
1452.916	5979
1455.146	6024
1457.372	6082
1459.599	6156
1461.824	5976
1464.051	6150
1466.277	6100
1468.501	5901
1470.725	5986
1472.948	6089
1475.17	5949
1477.393	5973
1479.614	5837
1481.837	6112
1484.057	5872
1486.276	5927
1488.497	5978
1490.715	5933
1492.932	5972
1495.148	5898
1497.364	5877
1499.58	5828
1501.798	5869
1504.012	5764
1506.227	5820
1508.44	5855
1510.653	5922
1512.866	5764
1515.078	5765
1517.289	5833
1519.5	5843
1521.711	5788
1523.92	5919
1526.13	5954
1528.338	5845
1530.544	5773
1532.752	5909
1534.959	5848
1537.165	5891
1539.371	5920
1541.574	5811
1543.779	5891
1545.983	5910
1548.187	5899
1550.39	5937
1552.59	6058
1554.792	5871
1556.991	5951
1559.19	6001
1561.392	5953
1563.59	5910
1565.789	5989
1567.986	6070
1570.182	6074
1572.381	5977
1574.576	6092
1576.771	6045
1578.966	5954
1581.16	5901
1583.354	6039
1585.546	5976
1587.74	6117
1589.931	6052
1592.121	6030
1594.311	6090
1596.502	6067
1598.693	6042
1600.881	5966
1603.069	6024
1605.256	6130
1607.445	6015
1609.631	6080
1611.816	6187
1614.001	5976
1616.186	5989
1618.37	6051
1620.555	6063
1622.737	6059
1624.919	6200
1627.101	6169
1629.282	6057
1631.463	6137
1633.643	6168
1635.822	6144
1638.001	6200
1640.179	6035
1642.359	6201
1644.534	6202
1646.711	6152
1648.887	6197
1651.062	6127
1653.235	6286
1655.412	6165
1657.586	6218
1659.757	6245
1661.93	6154
1664.1	6215
1666.274	6186
1668.445	6245
1670.614	6240
1672.784	6199
1674.951	6317
1677.12	6221
1679.289	6205
1681.457	6204
1683.622	6232
1685.789	6222
1687.953	6125
1690.121	6145
1692.284	6218
1694.447	6114
1696.611	6206
1698.772	6258
1700.935	6149
1703.098	6208
1705.258	6241
1707.417	6038
1709.576	6200
1711.736	6165
1713.896	6197
1716.053	6181
1718.21	6222
1720.366	6036
1722.522	6140
1724.68	6167
1726.835	6067
1728.989	6174
1731.142	6093
1733.295	6223
1735.449	6132
1737.601	6141
1739.753	6124
1741.903	6172
1744.054	6243
1746.203	6229
1748.354	6130
1750.503	6199
1752.651	6080
1754.798	6268
1756.944	6243
1759.092	6189
1761.238	6287
1763.383	6124
1765.528	6177
1767.672	6215
1769.814	6255
1771.959	6259
1774.102	6321
1776.242	6249
1778.384	6318
1780.525	6279
1782.665	6219
1784.805	6207
1786.945	6337
1789.082	6220
1791.22	6308
1793.36	6266
1795.495	6318
1797.632	6199
1799.766	6339
1801.902	6226
1804.035	6442
1806.172	6207
1808.304	6278
1810.436	6358
1812.569	6384
1814.699	6342
1816.833	6365
1818.963	6311
1821.092	6351
1823.222	6209
1825.35	6291
1827.478	6317
1829.608	6328
1831.734	6271
1833.86	6379
1835.986	6300
1838.11	6276
1840.238	6291
1842.362	6241
1844.485	6248
1846.608	6300
1848.73	6242
1850.853	6250
1852.974	6275
1855.097	6274
1857.217	6261
1859.336	6239
1861.455	6277
1863.576	6256
1865.693	6193
1867.811	6202
1869.926	6227
1872.042	6266
1874.16	6243
1876.275	6411
1878.39	6364
1880.504	6330
1882.618	6310
1884.731	6375
1886.843	6286
1888.956	6335
1891.067	6370
1893.178	6357
1895.287	6343
1897.399	6336
1899.508	6280
1901.617	6403
1903.724	6308
1905.832	6396
1907.941	6349
1910.046	6450
1912.152	6432
1914.256	6479
1916.361	6283
1918.464	6422
1920.57	6372
1922.672	6402
1924.775	6270
1926.876	6484
1928.978	6465
1931.08	6427
1933.181	6327
1935.28	6373
1937.38	6449
1939.478	6435
1941.577	6471
1943.675	6370
1945.771	6420
1947.867	6450
1949.964	6493
1952.058	6388
1954.154	6406
1956.248	6449
1958.343	6401
1960.435	6428
1962.527	6347
1964.62	6352
1966.711	6374
1968.802	6363
1970.892	6339
1972.983	6482
1975.072	6468
1977.162	6381
1979.25	6361
1981.337	6431
1983.424	6400
1985.51	6373
1987.598	6397
1989.683	6421
1991.768	6298
1993.852	6274
1995.934	6379
1998.019	6323
2000.102	6303
2002.184	6383
2004.266	6416
2006.347	6226
2008.427	6351
2010.508	6317
2012.587	6291
2014.666	6308
2016.745	6329
2018.821	6337
2020.9	6212
2022.977	6413
2025.052	6412
2027.128	6387
2029.204	6324
2031.277	6269
2033.353	6303
2035.425	6385
2037.499	6304
2039.57	6337
2041.642	6421
2043.714	6340
2045.786	6330
2047.855	6279
2049.925	6353
2051.993	6185
2054.064	6319
2056.132	6289
2058.2	6371
2060.266	6350
2062.332	6416
2064.398	6375
2066.465	6403
2068.529	6239
2070.592	6287
2072.657	6364
2074.719	6283
2076.783	6340
2078.845	6296
2080.907	6313
2082.968	6263
2085.028	6347
2087.087	6379
2089.148	6367
2091.207	6258
2093.264	6469
2095.322	6376
2097.379	6292
2099.439	6334
2101.495	6387
2103.55	6398
2105.605	6316
2107.658	6338
2109.713	6392
2111.767	6334
2113.82	6449
2115.872	6294
2117.924	6432
2119.975	6301
2122.028	6323
2124.078	6286
2126.126	6299
2128.176	6323
2130.225	6323
2132.275	6202
2134.321	6391
2136.368	6373
2138.415	6313
2140.461	6322
2142.505	6421
2144.552	6428
2146.597	6276
2148.64	6325
2150.684	6237
2152.725	6232
2154.77	6348
2156.811	6399
2158.852	6370
2160.894	6302
2162.933	6334
2164.973	6248
2167.013	6323
2169.051	6299
2171.089	6339
2173.126	6257
2175.164	6201
2177.201	6194
2179.236	6175
2181.273	6324
2183.307	6218
2185.341	6316
2187.377	6224
2189.41	6300
2191.442	6148
2193.473	6303
2195.506	6294
2197.539	6230
2199.569	6220
2201.598	6193
2203.628	6135
2205.656	6204
2207.686	6190
2209.716	6159
2211.743	6117
2213.769	6203
2215.796	6264
2217.821	6102
2219.848	6177
2221.873	6083
2223.897	6031
2225.921	6064
2227.944	6144
2229.967	6202
2231.991	6138
2234.011	6161
2236.032	6129
2238.053	6204
2240.073	6137
2242.094	6121
2244.114	6138
2246.131	6226
2248.149	6038
2250.167	6147
2252.186	6168
2254.201	6083
2256.218	6141
2258.233	6206
2260.247	6155
2262.262	6036
2264.278	6138
2266.29	6086
2268.303	6270
2270.315	6060
2272.327	6084
2274.341	5961
2276.35	6192
2278.361	6070
2280.37	6198
2282.38	6145
2284.388	6224
2286.397	6108
2288.405	6086
2290.412	6109
2292.419	6132
2294.425	6238
2296.431	6139
2298.437	6251
2300.441	6202
2302.445	6189
2304.449	6140
2306.453	6099
2308.455	6015
2310.457	6036
2312.459	6076
2314.46	6041
2316.46	6157
2318.461	6057
2320.46	6101
2322.458	6092
2324.458	6015
2326.456	6032
2328.455	5953
2330.451	6059
2332.447	6042
2334.443	6139
2336.438	6031
2338.433	6012
2340.429	6017
2342.422	6096
2344.416	5994
2346.408	6023
2348.399	5976
2350.393	5975
2352.384	5950
2354.375	6030
2356.365	5942
2358.355	5981
2360.344	6023
2362.333	5994
2364.322	5954
2366.309	5791
2368.295	5958
2370.282	5802
2372.27	5911
2374.256	5915
2376.24	5984
2378.225	5954
2380.208	5923
2382.194	6015
2384.177	5920
2386.159	5858
2388.142	5919
2390.122	5876
2392.105	5916
2394.085	5888
2396.066	5969
2398.044	5792
2400.024	5992
2402.002	5860
2403.982	5824
2405.959	5993
2407.935	5886
2409.913	5802
2411.888	5822
2413.865	5876
2415.84	5720
2417.814	5805
2419.788	5830
2421.762	5789
2423.735	5928
2425.708	5899
2427.68	5826
2429.651	5884
2431.623	5825
2433.593	5810
2435.564	5829
2437.533	5860
2439.502	5968
2441.47	5769
2443.438	5844
2445.406	5883
2447.373	5822
2449.34	5930
2451.305	5853
2453.271	5768
2455.235	5783
2457.201	5866
2459.165	5847
2461.129	5853
2463.092	5739
2465.054	5824
2467.018	5711
2468.978	5852
2470.939	5776
2472.899	5782
2474.86	5679
2476.819	5646
2478.778	5766
2480.737	5815
2482.695	5651
2484.653	5728
2486.609	5723
2488.567	5681
2490.524	5712
2492.478	5682
2494.433	5809
2496.387	5785
2498.343	5751
2500.297	5725
2502.249	5669
2504.202	5749
2506.153	5665
2508.105	5760
2510.057	5695
2512.008	5668
2513.957	5656
2515.906	5674
2517.855	5693
2519.805	5713
2521.754	5726
2523.7	5617
2525.647	5667
2527.594	5645
2529.54	5594
2531.486	5623
2533.431	5783
2535.376	5572
2537.32	5619
2539.263	5686
2541.207	5626
2543.151	5685
2545.093	5741
2547.034	5669
2548.975	5600
2550.917	5614
2552.856	5572
2554.796	5623
2556.735	5624
2558.673	5627
2560.611	5660
2562.55	5527
2564.487	5641
2566.424	5634
2568.36	5527
2570.296	5617
2572.232	5594
2574.167	5674
2576.101	5622
2578.035	5616
2579.969	5603
2581.902	5655
2583.834	5585
2585.766	5600
2587.698	5557
2589.628	5642
2591.557	5590
2593.489	5661
2595.419	5628
2597.348	5595
2599.275	5667
2601.204	5625
2603.131	5558
2605.059	5606
2606.986	5657
2608.911	5568
2610.837	5719
2612.76	5602
2614.687	5674
2616.61	5508
2618.534	5581
2620.457	5577
2622.38	5544
2624.302	5697
2626.225	5546
2628.145	5652
2630.067	5624
2631.986	5632
2633.906	5621
2635.827	5611
2637.745	5626
2639.662	5561
2641.581	5650
2643.498	5519
2645.415	5585
2647.331	5674
2649.248	5543
2651.163	5718
2653.077	5581
2654.993	5590
2656.906	5608
2658.821	5638
2660.733	5568
2662.646	5673
2664.557	5573
2666.47	5570
2668.381	5562
2670.291	5541
2672.201	5572
2674.11	5560
2676.021	5513
2677.929	5545
2679.837	5569
2681.745	5605
2683.652	5519
2685.56	5504
2687.466	5550
2689.371	5626
2691.276	5489
2693.181	5516
2695.085	5469
2696.991	5529
2698.893	5494
2700.796	5531
2702.698	5371
2704.601	5384
2706.502	5393
2708.404	5456
2710.304	5441
2712.203	5420
2714.103	5380
2716.003	5506
2717.902	5424
2719.8	5412
2721.697	5467
2723.594	5413
2725.49	5422
2727.389	5439
2729.283	5454
2731.179	5432
2733.073	5459
2734.968	5393
2736.863	5406
2738.757	5452
2740.649	5395
2742.541	5534
2744.433	5413
2746.324	5421
2748.216	5343
2750.107	5452
2751.997	5494
2753.886	5454
2755.776	5453
2757.666	5421
2759.553	5359
2761.44	5464
2763.327	5419
2765.215	5405
2767.102	5330
2768.988	5377
2770.873	5324
2772.757	5390
2774.641	5355
2776.525	5363
2778.41	5368
2780.292	5388
2782.175	5397
2784.057	5373
2785.938	5308
2787.821	5299
2789.701	5250
2791.581	5402
2793.461	5245
2795.34	5445
2797.219	5314
2799.099	5282
2800.975	5275
2802.853	5375
2804.73	5268
2806.606	5205
2808.484	5282
2810.358	5234
2812.233	5277
2814.108	5320
2815.981	5287
2817.857	5253
2819.73	5337
2821.602	5316
2823.474	5374
2825.346	5231
2827.217	5356
2829.089	5291
2830.959	5378
2832.829	5330
2834.698	5214
2836.567	5212
2838.436	5351
2840.305	5191
2842.172	5320
2844.04	5290
2845.905	5199
2847.772	5338
2849.639	5294
2851.503	5418
2853.369	5321
2855.232	5336
2857.096	5330
2858.961	5300
2860.824	5396
2862.686	5391
2864.547	5461
2866.41	5430
2868.272	5341
2870.132	5375
2871.992	5621
2873.851	5456
2875.711	5507
2877.57	5405
2879.429	5557
2881.287	5584
2883.144	5589
2885.001	5680
2886.857	5571
2888.714	5471
2890.57	5609
2892.425	5557
2894.279	5569
2896.133	5593
2897.987	5555
2899.842	5516
2901.694	5599
2903.547	5620
2905.397	5504
2907.249	5628
2909.101	5650
2910.952	5608
2912.802	5671
2914.652	5617
2916.5	5659
2918.35	5753
2920.198	5757
2922.045	5718
2923.893	5723
2925.74	5801
2927.585	5837
2929.433	5806
2931.279	5876
2933.123	5942
2934.968	6010
2936.811	6006
2938.656	6128
2940.5	6063
2942.342	6088
2944.185	6090
2946.026	6088
2947.87	6148
2949.71	5992
2951.549	6025
2953.39	5992
2955.229	5885
2957.069	5953
2958.908	5903
2960.746	5893
2962.584	5863
2964.421	5900
2966.257	5774
2968.094	5776
2969.931	5714
2971.766	5711
2973.601	5638
2975.435	5701
2977.27	5519
2979.105	5622
2980.938	5535
2982.77	5587
2984.602	5503
2986.434	5627
2988.267	5474
2990.097	5390
2991.927	5413
2993.757	5482
2995.587	5445
2997.417	5500
2999.246	5363
3001.074	5414
3002.902	5345
3004.729	5304
3006.556	5263
3008.384	5244
3010.21	5151
3012.036	5141
3013.861	5133
3015.684	5092
3017.51	5100
3019.334	5130
3021.157	5019
3022.981	4955
3024.802	5060
3026.624	5105
3028.448	5007
3030.267	5024
3032.088	5096
3033.909	4942
3035.728	5022
3037.549	4961
3039.368	4988
3041.186	5066
3043.004	4899
3044.821	4941
3046.64	4963
3048.455	5040
3050.272	4919
3052.087	4951
3053.903	4967
3055.717	4969
3057.534	5060
3059.347	5001
3061.16	4981
3062.974	4932
3064.785	4868
3066.598	4958
3068.411	5009
3070.222	4896
3072.032	4895
3073.844	4942
3075.653	4907
3077.463	4929
3079.272	4887
3081.08	4913
3082.889	4801
3084.697	4858
3086.505	4852
3088.312	4863
3090.118	4954
3091.924	4859
3093.729	4829
3095.535	4865
3097.34	4856
3099.144	4964
3100.947	4796
3102.75	4761
3104.553	4818
3106.357	4741
3108.159	4791
3109.961	4883
3111.762	4773
3113.562	4824
3115.365	4815
3117.164	4781
3118.964	4787
3120.761	4783
3122.56	4793
3124.36	4771
3126.158	4736
3127.954	4748
3129.75	4707
3131.547	4816
3133.343	4687
3135.139	4625
3136.934	4723
3138.729	4720
3140.522	4696
3142.317	4738
3144.11	4668
3145.904	4651
3147.695	4713
3149.488	4686
3151.28	4680
3153.07	4693
3154.863	4685
3156.652	4596
3158.441	4606
3160.231	4701
3162.019	4686
3163.81	4654
3165.597	4708
3167.384	4669
3169.172	4665
3170.958	4704
3172.745	4654
3174.532	4729
3176.317	4578
3178.101	4707
3179.885	4648
3181.67	4637
3183.455	4627
3185.238	4606
3187.02	4641
3188.802	4738
3190.585	4717
3192.368	4634
3194.149	4637
3195.929	4623
3197.709	4662
3199.489	4604
3201.268	4656
3203.048	4622
3204.826	4654
3206.604	4600
3208.382	4484
3210.159	4616
3211.937	4564
3213.713	4662
3215.489	4668
3217.263	4614
3219.038	4577
3220.815	4673
3222.589	4557
3224.363	4476
3226.136	4597
3227.908	4566
3229.681	4732
3231.454	4531
3233.226	4545
3234.996	4649
3236.767	4588
3238.538	4607
3240.308	4535
3242.078	4555
3243.847	4492
3245.615	4591
3247.384	4653
3249.15	4569
3250.92	4541
3252.686	4520
3254.453	4490
3256.218	4584
3257.984	4554
3259.75	4598
3261.515	4553
3263.279	4569
3265.044	4576
3266.806	4524
3268.57	4566
3270.334	4574
3272.095	4557
3273.856	4478
3275.619	4559
3277.379	4514
3279.14	4592
3280.9	4487
3282.661	4530
3284.419	4552
3286.178	4625
3287.937	4622
3289.695	4522
3291.453	4565
3293.21	4531
3294.967	4644
3296.723	4548
3298.48	4532
3300.235	4650
3301.99	4567
3303.744	4593
3305.498	4550
3307.253	4591
3309.006	4524
3310.759	4612
3312.511	4488
3314.263	4504
3316.017	4503
3317.768	4547
3319.519	4637
3321.268	4547
3323.018	4499
3324.767	4528
3326.518	4592
3328.267	4423
3330.014	4451
3331.762	4520
3333.509	4516
3335.258	4399
3337.003	4525
3338.75	4469
3340.496	4410
3342.24	4481
3343.987	4448
3345.732	4461
3347.475	4435
3349.219	4395
3350.961	4443
3352.705	4495
3354.448	4465
3356.19	4477
3357.931	4458
3359.672	4375
3361.412	4457
3363.155	4316
3364.894	4324
3366.633	4459
3368.372	4416
3370.11	4531
3371.849	4418
3373.588	4519
3375.325	4394
3377.061	4407
3378.799	4453
3380.534	4380
3382.271	4352
3384.006	4385
3385.741	4382
3387.475	4448
3389.209	4431
3390.944	4389
3392.677	4436
3394.409	4414
3396.143	4360
3397.874	4321
3399.606	4293
3401.338	4369
3403.069	4386
3404.799	4328
3406.528	4337
3408.258	4373
3409.988	4381
3411.717	4328
3413.445	4371
3415.173	4302
3416.899	4344
3418.626	4287
3420.354	4334
3422.08	4227
3423.806	4338
3425.531	4300
3427.255	4422
3428.981	4225
3430.705	4204
3432.429	4366
3434.151	4341
3435.875	4325
3437.599	4297
3439.321	4267
3441.042	4396
3442.763	4306
3444.483	4224
3446.204	4279
3447.926	4238
3449.645	4239
3451.364	4254
3453.082	4266
3454.801	4249
3456.52	4123
3458.238	4176
3459.954	4251
3461.671	4169
3463.387	4197
3465.104	4197
3466.82	4145
3468.534	4202
3470.25	4187
3471.963	4183
3473.676	4179
3475.392	4133
3477.104	4180
3478.817	4105
3480.528	4166
3482.241	4137
3483.954	4100
3485.664	4215
3487.374	4049
3489.084	4130
3490.795	4098
3492.504	4051
3494.214	4029
3495.922	4099
3497.63	4038
3499.338	4127
3501.045	4069
3502.753	4093
3504.459	4118
3506.166	4088
3507.871	4069
3509.576	4057
3511.283	4078
3512.987	4022
3514.691	4118
3516.395	4126
3518.098	4079
3519.8	4074
3521.504	4129
3523.206	4035
3524.908	4072
3526.609	3988
3528.309	4068
3530.011	4007
3531.711	3976
3533.411	3952
3535.109	4041
3536.808	3984
3538.507	3917
3540.206	4027
3541.904	4015
3543.601	3973
3545.297	4069
3546.994	3990
3548.69	3978
3550.387	3964
3552.081	3932
3553.776	3858
3555.47	4057
3557.166	3929
3558.859	4088
3560.553	3957
3562.245	3897
3563.938	3955
3565.629	3918
3567.322	3906
3569.014	3919
3570.704	3854
3572.394	3901
3574.084	3867
3575.775	3946
3577.464	3921
3579.152	3896
3580.842	3868
3582.529	3928
3584.216	3894
3585.905	3876
3587.591	3899
3589.279	3905
3590.964	3823
3592.649	3821
3594.336	3833
3596.021	3953
3597.705	3867
3599.388	3857
3601.072	3770
3602.757	3740
3604.439	3827
3606.122	3780
3607.803	3811
3609.485	3752
3611.167	3834
3612.849	3812
3614.529	3814
3616.208	3779
3617.888	3807
3619.567	3734
3621.247	3749
3622.926	3801
3624.603	3735
3626.281	3742
3627.958	3744
3629.635	3756
3631.312	3733
3632.989	3732
3634.665	3732
3636.339	3680
3638.014	3777
3639.691	3684
3641.364	3787
3643.038	3739
3644.71	3682
3646.384	3735
3648.058	3677
3649.729	3798
3651.402	3701
3653.073	3693
3654.744	3665
3656.414	3651
3658.085	3658
3659.755	3620
3661.424	3679
3663.094	3679
3664.762	3669
3666.431	3689
3668.099	3682
3669.766	3659
3671.433	3556
3673.099	3609
3674.768	3709
3676.433	3590
3678.098	3635
3679.763	3747
3681.428	3583
3683.093	3573
3684.757	3616
3686.421	3622
3688.083	3592
3689.746	3597
3691.408	3648
3693.071	3593
3694.733	3626
3696.394	3594
3698.054	3646
3699.715	3602
3701.375	3624
3703.036	3549
3704.695	3649
3706.354	3605
3708.012	3587
3709.67	3527
3711.329	3533
3712.987	3521
3714.644	3555
3716.299	3573
3717.955	3530
3719.613	3602
3721.268	3536
3722.923	3551
3724.577	3593
3726.231	3610
3727.885	3493
3729.539	3528
3731.192	3566
3732.845	3504
3734.497	3506
3736.149	3517
3737.802	3537
3739.453	3568
3741.104	3575
3742.753	3495
3744.404	3466
3746.052	3512
3747.704	3447
3749.352	3502
3751	3482
3752.648	3502
3754.296	3472
3755.944	3524
3757.59	3462
3759.238	3442
3760.883	3491
3762.528	3522
3764.176	3455
3765.82	3427
3767.464	3467
3769.109	3514
3770.753	3409
3772.396	3453
3774.04	3457
3775.683	3408
3777.325	3512
3778.967	3408
3780.608	3501
3782.25	3444
3783.89	3475
3785.531	3432
3787.17	3483
3788.81	3359
3790.45	3374
3792.09	3414
3793.729	3462
3795.366	3367
3797.003	3413
3798.64	3385
3800.278	3320
3801.915	3410
3803.551	3392
3805.187	3310
3806.822	3341
3808.458	3292
3810.093	3360
3811.726	3281
3813.36	3332
3814.994	3335
3816.627	3365
3818.262	3368
3819.893	3392
3821.525	3329
3823.157	3332
3824.787	3281
3826.42	3284
3828.051	3367
3829.68	3301
3831.31	3240
3832.938	3352
3834.569	3242
3836.198	3288
3837.825	3252
3839.454	3274
3841.08	3375
3842.708	3281
3844.335	3274
3845.962	3331
3847.587	3211
3849.212	3279
3850.838	3228
3852.463	3285
3854.089	3210
3855.712	3295
3857.335	3282
3858.959	3330
3860.582	3279
3862.205	3203
3863.827	3266
3865.449	3268
3867.07	3260
3868.691	3288
3870.312	3257
3871.933	3167
3873.553	3235
3875.173	3162
3876.792	3249
3878.411	3241
3880.03	3172
3881.647	3233
3883.265	3222
3884.882	3195
3886.499	3153
3888.116	3193
3889.732	3213
3891.348	3185
3892.964	3158
3894.579	3236
3896.195	3202
3897.809	3134
3899.423	3158
3901.036	3221
3902.648	3143
3904.261	3152
3905.875	3171
3907.487	3178
3909.099	3195
3910.709	3105
3912.321	3117
3913.933	3182
3915.542	3141
3917.152	3098
3918.762	3178
3920.37	3173
3921.98	3159
3923.589	3172
3925.196	3146
3926.804	3238
3928.41	3136
3930.018	3165
3931.626	3143
3933.231	3131
3934.838	3141
3936.442	3174
3938.046	3052
3939.653	3135
3941.257	3056
3942.861	3154
3944.464	3108
3946.068	3164
3947.67	3055
3949.273	3148
3950.876	3117
3952.477	3144
3954.078	3026
3955.678	3052
3957.281	3117
3958.881	3044
3960.48	3084
3962.079	3086
3963.678	3107
3965.279	3166
3966.877	3096
3968.475	3034
3970.072	3103
3971.669	3039
3973.266	3030
3974.864	3012
3976.459	3086
3978.055	3098
3979.65	3020
3981.245	3028
3982.841	3024
3984.436	3048
3986.03	3014
3987.623	3065
3989.216	3037
3990.809	3014
3992.403	2967
3993.995	3036
3995.586	3059
3997.177	2954
3998.768	3020
4000.361	2976
4001.951	3041
4003.54	3007
4005.13	2959
4006.719	2981
4008.31	2905
4009.897	2940
4011.485	2950
4013.073	3007
4014.66	2971
4016.247	2950
4017.834	2867
4019.421	3008
4021.006	2916
4022.592	2935
4024.178	2924
4025.763	2870
4027.348	2889
4028.932	2928
4030.515	2949
4032.099	2935
4033.682	2918
4035.266	2877
4036.847	2905
4038.429	2899
4040.011	2944
4041.592	2944
4043.173	2854
4044.755	2881
4046.334	2828
4047.913	2822
4049.494	2864
4051.074	2885
4052.652	2947
4054.23	2902
4055.807	2857
4057.385	2873
4058.963	2901
4060.541	2841
4062.117	2934
4063.693	2870
4065.269	2872
4066.844	2884
4068.42	2841
4069.995	2818
4071.569	2810
4073.143	2831
4074.716	2851
4076.291	2876
4077.864	2743
4079.436	2865
4081.009	2867
4082.58	2852
4084.152	2733
4085.723	2796
4087.294	2821
4088.865	2790
4090.435	2795
4092.005	2746
4093.574	2834
4095.143	2786
4096.712	2750
4098.279	2793
4099.848	2743
4101.416	2807
4102.984	2784
4104.55	2732
4106.117	2733
4107.682	2801
4109.248	2746
4110.815	2737
4112.379	2757
4113.945	2748
4115.508	2795
4117.073	2800
4118.637	2717
4120.201	2775
4121.763	2721
4123.325	2745
4124.888	2712
4126.449	2726
4128.013	2694
4129.573	2766
4131.133	2697
4132.694	2705
4134.254	2696
4135.814	2686
4137.374	2733
4138.933	2695
4140.491	2759
4142.049	2682
4143.607	2697
4145.167	2752
4146.724	2662
4148.28	2627
4149.836	2766
4151.392	2709
4152.949	2653
4154.504	2675
4156.059	2638
4157.614	2658
4159.168	2676
4160.723	2598
4162.277	2680
4163.83	2595
4165.383	2683
4166.936	2672
4168.488	2602
4170.041	2648
4171.593	2671
4173.144	2686
4174.695	2632
4176.246	2717
4177.796	2651
4179.346	2615
4180.896	2641
4182.445	2684
4183.994	2576
4185.542	2516
4187.091	2582
4188.639	2613
4190.185	2622
4191.732	2519
4193.279	2551
4194.826	2590
4196.373	2566
4197.918	2528
4199.463	2628
4201.008	2584
4202.553	2585
4204.098	2625
4205.641	2544
4207.185	2578
4208.728	2613
4210.271	2617
4211.814	2592
4213.357	2534
4214.898	2523
4216.439	2552
4217.98	2623
4219.522	2604
4221.062	2600
4222.603	2572
4224.142	2552
4225.681	2545
4227.222	2557
4228.76	2538
4230.298	2504
4231.835	2507
4233.373	2555
4234.911	2580
4236.449	2483
4237.985	2505
4239.521	2503
4241.057	2553
4242.592	2533
4244.128	2498
4245.663	2519
4247.197	2472
4248.731	2533
4250.265	2486
4251.798	2523
4253.333	2530
4254.865	2481
4256.397	2499
4257.93	2578
4259.461	2445
4260.994	2509
4262.525	2490
4264.056	2435
4265.586	2513
4267.115	2501
4268.646	2537
4270.176	2467
4271.705	2491
4273.232	2442
4274.761	2502
4276.289	2444
4277.818	2465
4279.345	2450
4280.872	2461
4282.399	2518
4283.924	2445
4285.452	2448
4286.976	2441
4288.502	2467
4290.026	2488
4291.551	2474
4293.074	2427
4294.6	2522
4296.123	2495
4297.646	2432
4299.168	2494
4300.691	2488
4302.214	2414
4303.736	2414
4305.257	2386
4306.778	2367
4308.299	2437
4309.82	2471
4311.34	2405
4312.86	2490
4314.379	2458
