400.0745	4038
402.597	4018
405.1208	4067
407.6419	4131
410.1623	4080
412.6819	4063
415.201	4141
417.7172	4137
420.2369	4152
422.7538	4202
425.2701	4254
427.7856	4323
430.3005	4311
432.8147	4324
435.3282	4357
437.841	4300
440.3511	4346
442.8625	4325
445.3753	4386
447.8854	4390
450.3927	4273
452.9014	4312
455.4073	4322
457.9146	4349
460.4233	4376
462.9272	4382
465.4325	4382
467.935	4344
470.4389	4308
472.9421	4427
475.4446	4322
477.9444	4361
480.4456	4316
482.944	4412
485.4417	4434
487.9429	4485
490.4393	4449
492.935	4436
495.4321	4516
497.9264	4456
500.4221	4479
502.9171	4497
505.4094	4572
507.9011	4571
510.392	4476
512.8864	4571
515.3759	4553
517.8649	4664
520.3531	4546
522.8406	4384
525.3275	4554
527.8178	4602
530.3033	4578
532.7881	4602
535.2723	4583
537.7558	4511
540.2407	4530
542.7228	4528
545.2043	4507
547.6851	4520
550.1652	4590
552.6467	4539
555.1255	4434
557.6016	4615
560.079	4588
562.5557	4595
565.0318	4508
567.5092	4687
569.984	4637
572.456	4591
574.9294	4650
577.4022	4702
579.8762	4726
582.3456	4730
584.8163	4708
587.2863	4666
589.7557	4729
592.2224	4691
594.6924	4716
597.1578	4690
599.6245	4802
602.0905	4765
604.5538	4745
607.0206	4742
609.4825	4675
611.9459	4629
614.4066	4695
616.8686	4710
619.33	4625
621.7906	4624
624.2487	4818
626.708	4749
629.1647	4681
631.6207	4611
634.0801	4726
636.5348	4699
638.9888	4762
641.4442	4647
643.8969	4578
646.3509	4749
648.8022	4761
651.255	4751
653.705	4737
656.1544	4746
658.6031	4801
661.0532	4790
663.5026	4719
665.9493	4806
668.3954	4818
670.8409	4864
673.2877	4857
675.7318	4860
678.1752	4805
680.618	4926
683.0601	4874
685.5035	4961
687.9444	4921
690.3845	4914
692.824	4906
695.2628	4863
697.701	4956
700.1406	4940
702.5774	4904
705.0116	4976
707.4472	4902
709.8821	4873
712.3183	5035
714.7519	5093
717.1829	4959
719.6151	4996
722.0468	4924
724.4777	4999
726.908	5055
729.3377	4932
731.7667	5093
734.1931	5116
736.6208	5039
739.0498	5029
741.4742	5004
743.9	5185
746.3231	5121
748.7476	5057
751.1713	5162
753.5945	5275
756.015	5264
758.4368	5296
760.856	5140
763.2766	5200
765.6965	5201
768.1157	5334
770.5323	5171
772.9483	5197
775.3656	5158
777.7822	5341
780.1963	5270
782.6116	5171
785.0244	5284
787.4365	5182
789.8499	5259
792.2626	5175
794.6728	5325
797.0823	5362
799.4911	5227
801.8994	5301
804.3109	5276
806.7178	5275
809.124	5297
811.5297	5337
813.9347	5361
816.341	5429
818.7447	5321
821.1478	5310
823.5502	5334
825.952	5304
828.3531	5381
830.7556	5325
833.1554	5295
835.5546	5298
837.9532	5343
840.3511	5381
842.7504	5523
845.1451	5301
847.5411	5424
849.9365	5423
852.3312	5360
854.7272	5475
857.1187	5318
859.5115	5355
861.9037	5413
864.2952	5400
866.6842	5431
869.0764	5316
871.4661	5330
873.8531	5362
876.2415	5401
878.6272	5342
881.0162	5381
883.4026	5349
885.7866	5357
888.1717	5361
890.5543	5362
892.9382	5431
895.3215	5425
897.7041	5356
900.0842	5368
902.4655	5427
904.8443	5396
907.2244	5487
909.6039	5357
911.9808	5508
914.357	5512
916.7346	5499
919.1115	5444
921.4859	5543
923.8616	5615
926.2347	5594
928.6071	5567
930.979	5634
933.3541	5611
935.7247	5642
938.0946	5631
940.4639	5639
942.8326	5660
945.2026	5612
947.5701	5897
949.9369	5840
952.305	6049
954.6705	6074
957.0355	6292
959.4017	6440
961.7654	6429
964.1284	6456
966.4908	6340
968.8527	6117
971.2138	6079
973.5743	6031
975.9343	5819
978.2936	5863
980.6522	5633
983.0122	5625
985.3696	5501
987.7245	5512
990.0807	5628
992.4362	5522
994.7911	5647
997.1474	5643
999.4991	5591
1001.852	5644
1004.205	5543
1006.555	5638
1008.908	5705
1011.258	5552
1013.606	5567
1015.956	5595
1018.302	5554
1020.652	5605
1022.998	5559
1025.345	5710
1027.691	5655
1030.035	5669
1032.378	5658
1034.724	5756
1037.066	5671
1039.409	5689
1041.75	5725
1044.092	5705
1046.433	5674
1048.771	5750
1051.112	5647
1053.449	5715
1055.786	5816
1058.124	5724
1060.462	5641
1062.797	5670
1065.131	5752
1067.467	5784
1069.8	5765
1072.135	5830
1074.467	5699
1076.798	5839
1079.129	5772
1081.459	5743
1083.792	5743
1086.121	5801
1088.449	5793
1090.777	5642
1093.104	5729
1095.431	5738
1097.759	5738
1100.084	5756
1102.408	5801
1104.732	5658
1107.056	5848
1109.379	5718
1111.701	5699
1114.022	5709
1116.343	5793
1118.664	5860
1120.983	5715
1123.303	5734
1125.621	5753
1127.939	5821
1130.256	5702
1132.573	5690
1134.889	5760
1137.205	5779
1139.52	5773
1141.832	5672
1144.146	5786
1146.461	5869
1148.771	5793
1151.083	5783
1153.392	5825
1155.703	5819
1158.011	5814
1160.323	5780
1162.629	5801
1164.938	5751
1167.243	5669
1169.55	5798
1171.857	5675
1174.163	5840
1176.466	5765
1178.769	5727
1181.073	5759
1183.374	5739
1185.677	5708
1187.979	5792
1190.279	5716
1192.578	5774
1194.878	5550
1197.178	5826
1199.476	5828
1201.772	5795
1204.068	5818
1206.366	5821
1208.663	5717
1210.957	5747
1213.251	5847
1215.544	5758
1217.836	5799
1220.128	5855
1222.421	5843
1224.712	5890
1227.002	5839
1229.292	5757
1231.581	5806
1233.871	5758
1236.159	5909
1238.446	5889
1240.732	6013
1243.018	5926
1245.304	5852
1247.59	5989
1249.874	5994
1252.156	5935
1254.439	5942
1256.721	5998
1259.005	5987
1261.286	6041
1263.565	6023
1265.845	5939
1268.125	5986
1270.403	6116
1272.682	5924
1274.959	5954
1277.234	5913
1279.511	5978
1281.787	5913
1284.062	5911
1286.337	5980
1288.609	5906
1290.882	5862
1293.153	5940
1295.428	5903
1297.698	5822
1299.969	5788
1302.237	5849
1304.507	5883
1306.777	5943
1309.044	5913
1311.312	5877
1313.578	5881
1315.844	5837
1318.109	5814
1320.375	5868
1322.638	5800
1324.903	5870
1327.165	5901
1329.427	5900
1331.69	5910
1333.952	5944
1336.212	5963
1338.471	5900
1340.73	5999
1342.988	5884
1345.248	5886
1347.505	5911
1349.763	5941
1352.019	5867
1354.274	5853
1356.53	5848
1358.784	5847
1361.038	5852
1363.291	5878
1365.543	5847
1367.797	5885
1370.048	5889
1372.296	5877
1374.546	5974
1376.796	5995
1379.045	5914
1381.295	5963
1383.542	5879
1385.787	5938
1388.034	6003
1390.28	6068
1392.527	6025
1394.772	5974
1397.014	5951
1399.258	5998
1401.501	5959
1403.741	5901
1405.985	6002
1408.226	5966
1410.465	6005
1412.705	6042
1414.943	6105
1417.184	6083
1419.42	6070
1421.658	6117
1423.894	6053
1426.13	6019
1428.366	6045
1430.602	5981
1432.835	6075
1435.069	6061
1437.301	6102
1439.535	6050
1441.767	6104
1443.997	6150
1446.229	6100
1448.458	6033
1450.687	6092
1452.916	6252
1455.146	6148
1457.372	6128
1459.599	6167
1461.824	6118
1464.051	6076
1466.277	6077
1468.501	5992
1470.725	6021
1472.948	5989
1475.17	6169
1477.393	6040
1479.614	6007
1481.837	5930
1484.057	6014
1486.276	5914
1488.497	5986
1490.715	6046
1492.932	5953
1495.148	5915
1497.364	5873
1499.58	6101
1501.798	5882
1504.012	5912
1506.227	5914
1508.44	5881
1510.653	5868
1512.866	5983
1515.078	5871
1517.289	5964
1519.5	5997
1521.711	5912
1523.92	6003
1526.13	5787
1528.338	5906
1530.544	5867
1532.752	5973
1534.959	5883
1537.165	5830
1539.371	5979
1541.574	5943
1543.779	5942
1545.983	5885
1548.187	5866
1550.39	6025
1552.59	5974
1554.792	5930
1556.991	5996
1559.19	5949
1561.392	5988
1563.59	6084
1565.789	6050
1567.986	6068
1570.182	6129
1572.381	6061
1574.576	6056
1576.771	5958
1578.966	6086
1581.16	6162
1583.354	6099
1585.546	5903
1587.74	6113
1589.931	6137
1592.121	6067
1594.311	5993
1596.502	6108
1598.693	6148
1600.881	6172
1603.069	6218
1605.256	6032
1607.445	6171
1609.631	6185
1611.816	6101
1614.001	6107
1616.186	6139
1618.37	6209
1620.555	5928
1622.737	6231
1624.919	6055
1627.101	6044
1629.282	6156
1631.463	6323
1633.643	6206
1635.822	6173
1638.001	6136
1640.179	6124
1642.359	6112
1644.534	6141
1646.711	6267
1648.887	6099
1651.062	6152
1653.235	6225
1655.412	6271
1657.586	6099
1659.757	6257
1661.93	6163
1664.1	6161
1666.274	6114
1668.445	6215
1670.614	6111
1672.784	6216
1674.951	6238
1677.12	6297
1679.289	6127
1681.457	6204
1683.622	6159
1685.789	6231
1687.953	6127
1690.121	6055
1692.284	6161
1694.447	6181
1696.611	6124
1698.772	6100
1700.935	6195
1703.098	6116
1705.258	6211
1707.417	6103
1709.576	6155
1711.736	6063
1713.896	6056
1716.053	6008
1718.21	6169
1720.366	6069
1722.522	6024
1724.68	6057
1726.835	6093
1728.989	6076
1731.142	6153
1733.295	6117
1735.449	6141
1737.601	6057
1739.753	6101
1741.903	6059
1744.054	6042
1746.203	6122
1748.354	6082
1750.503	6076
1752.651	6206
1754.798	6115
1756.944	6032
1759.092	6082
1761.238	6123
1763.383	6102
1765.528	6094
1767.672	6189
1769.814	6067
1771.959	6103
1774.102	6143
1776.242	6121
1778.384	6253
1780.525	6139
1782.665	6179
1784.805	6155
1786.945	6104
1789.082	6139
1791.22	6156
1793.36	6190
1795.495	6195
1797.632	6141
1799.766	6097
1801.902	6216
1804.035	6046
1806.172	6084
1808.304	5991
1810.436	6028
1812.569	6187
1814.699	6248
1816.833	6077
1818.963	6089
1821.092	6143
1823.222	5967
1825.35	6116
1827.478	6243
1829.608	6098
1831.734	6196
1833.86	6204
1835.986	6089
1838.11	6138
1840.238	6152
1842.362	6056
1844.485	6056
1846.608	6180
1848.73	6190
1850.853	6170
1852.974	6171
1855.097	6077
1857.217	6091
1859.336	6059
1861.455	5976
1863.576	6187
1865.693	6021
1867.811	6154
1869.926	6073
1872.042	6069
1874.16	6053
1876.275	6087
1878.39	6062
1880.504	6049
1882.618	6118
1884.731	6150
1886.843	6145
1888.956	6173
1891.067	6114
1893.178	6129
1895.287	6123
1897.399	6194
1899.508	6113
1901.617	6101
1903.724	6065
1905.832	6144
1907.941	6097
1910.046	6118
1912.152	6075
1914.256	6135
1916.361	6243
1918.464	6270
1920.57	6155
1922.672	6265
1924.775	6108
1926.876	6114
1928.978	6233
1931.08	6146
1933.181	6173
1935.28	6123
1937.38	6111
1939.478	6150
1941.577	6211
1943.675	6087
1945.771	6008
1947.867	6108
1949.964	6188
1952.058	6119
1954.154	6175
1956.248	6146
1958.343	6103
1960.435	6141
1962.527	6201
1964.62	6264
1966.711	6128
1968.802	6247
1970.892	6088
1972.983	6105
1975.072	6117
1977.162	6083
1979.25	6021
1981.337	6215
1983.424	6146
1985.51	6161
1987.598	6121
1989.683	6104
1991.768	6160
1993.852	6189
1995.934	6167
1998.019	6074
2000.102	5986
2002.184	6095
2004.266	6172
2006.347	6132
2008.427	6178
2010.508	6031
2012.587	6126
2014.666	6178
2016.745	6138
2018.821	6061
2020.9	6050
2022.977	6049
2025.052	6135
2027.128	6146
2029.204	6052
2031.277	5885
2033.353	6108
2035.425	6083
2037.499	6053
2039.57	6100
2041.642	6112
2043.714	6049
2045.786	6165
2047.855	6035
2049.925	6106
2051.993	6065
2054.064	6113
2056.132	6177
2058.2	6164
2060.266	6097
2062.332	6156
2064.398	6006
2066.465	6130
2068.529	6104
2070.592	6063
2072.657	6092
2074.719	6123
2076.783	6090
2078.845	6095
2080.907	6125
2082.968	6089
2085.028	6113
2087.087	6216
2089.148	6131
2091.207	6207
2093.264	6117
2095.322	6174
2097.379	6135
2099.439	6062
2101.495	6123
2103.55	6137
2105.605	6158
2107.658	6065
2109.713	6253
2111.767	6259
2113.82	6121
2115.872	6036
2117.924	6005
2119.975	6114
2122.028	6077
2124.078	6193
2126.126	6070
2128.176	6072
2130.225	6155
2132.275	6082
2134.321	6081
2136.368	6069
2138.415	6001
2140.461	6107
2142.505	6116
2144.552	5995
2146.597	6066
2148.64	6084
2150.684	6142
2152.725	6185
2154.77	6018
2156.811	6043
2158.852	6069
2160.894	6007
2162.933	6066
2164.973	6091
2167.013	6004
2169.051	6059
2171.089	6105
2173.126	6026
2175.164	5990
2177.201	6010
2179.236	5932
2181.273	6109
2183.307	5923
2185.341	6019
2187.377	5904
2189.41	5844
2191.442	5998
2193.473	5993
2195.506	6017
2197.539	5930
2199.569	6018
2201.598	5980
2203.628	6016
2205.656	5935
2207.686	5828
2209.716	5971
2211.743	5898
2213.769	5853
2215.796	5891
2217.821	5924
2219.848	6003
2221.873	5848
2223.897	5926
2225.921	5934
2227.944	6020
2229.967	5967
2231.991	5966
2234.011	5953
2236.032	5985
2238.053	5869
2240.073	5943
2242.094	5879
2244.114	5920
2246.131	5807
2248.149	5891
2250.167	5872
2252.186	5953
2254.201	5876
2256.218	5936
2258.233	5839
2260.247	5925
2262.262	5942
2264.278	5808
2266.29	5919
2268.303	6057
2270.315	5827
2272.327	5996
2274.341	5962
2276.35	5976
2278.361	5982
2280.37	5872
2282.38	5855
2284.388	5913
2286.397	5851
2288.405	5897
2290.412	5908
2292.419	5974
2294.425	6015
2296.431	5796
2298.437	5972
2300.441	5983
2302.445	5915
2304.449	5757
2306.453	5896
2308.455	5937
2310.457	5958
2312.459	5900
2314.46	5906
2316.46	5796
2318.461	5697
2320.46	5833
2322.458	5777
2324.458	5801
2326.456	5837
2328.455	5896
2330.451	5910
2332.447	5802
2334.443	5858
2336.438	5832
2338.433	5829
2340.429	5895
2342.422	5798
2344.416	5927
2346.408	5775
2348.399	5814
2350.393	5805
2352.384	5820
2354.375	5752
2356.365	5788
2358.355	5751
2360.344	5785
2362.333	5970
2364.322	5756
2366.309	5803
2368.295	5783
2370.282	5824
2372.27	5883
2374.256	5758
2376.24	5825
2378.225	5693
2380.208	5746
2382.194	5795
2384.177	5792
2386.159	5738
2388.142	5750
2390.122	5689
2392.105	5802
2394.085	5712
2396.066	5699
2398.044	5701
2400.024	5708
2402.002	5616
2403.982	5661
2405.959	5737
2407.935	5618
2409.913	5776
2411.888	5668
2413.865	5587
2415.84	5630
2417.814	5793
2419.788	5708
2421.762	5728
2423.735	5761
2425.708	5697
2427.68	5656
2429.651	5708
2431.623	5543
2433.593	5677
2435.564	5650
2437.533	5668
2439.502	5768
2441.47	5651
2443.438	5686
2445.406	5785
2447.373	5634
2449.34	5685
2451.305	5633
2453.271	5651
2455.235	5686
2457.201	5605
2459.165	5582
2461.129	5693
2463.092	5631
2465.054	5675
2467.018	5709
2468.978	5742
2470.939	5568
2472.899	5675
2474.86	5720
2476.819	5704
2478.778	5723
2480.737	5562
2482.695	5541
2484.653	5616
2486.609	5532
2488.567	5643
2490.524	5569
2492.478	5539
2494.433	5594
2496.387	5567
2498.343	5683
2500.297	5540
2502.249	5643
2504.202	5607
2506.153	5677
2508.105	5543
2510.057	5578
2512.008	5624
2513.957	5584
2515.906	5590
2517.855	5603
2519.805	5614
2521.754	5687
2523.7	5520
2525.647	5574
2527.594	5605
2529.54	5627
2531.486	5593
2533.431	5555
2535.376	5603
2537.32	5746
2539.263	5476
2541.207	5592
2543.151	5508
2545.093	5544
2547.034	5604
2548.975	5569
2550.917	5428
2552.856	5426
2554.796	5476
2556.735	5551
2558.673	5535
2560.611	5620
2562.55	5553
2564.487	5581
2566.424	5578
2568.36	5531
2570.296	5422
2572.232	5628
2574.167	5528
2576.101	5562
2578.035	5624
2579.969	5591
2581.902	5598
2583.834	5637
2585.766	5509
2587.698	5561
2589.628	5627
2591.557	5569
2593.489	5668
2595.419	5617
2597.348	5546
2599.275	5496
2601.204	5517
2603.131	5492
2605.059	5639
2606.986	5610
2608.911	5500
2610.837	5640
2612.76	5524
2614.687	5482
2616.61	5478
2618.534	5585
2620.457	5531
2622.38	5583
2624.302	5580
2626.225	5459
2628.145	5570
2630.067	5463
2631.986	5594
2633.906	5547
2635.827	5491
2637.745	5553
2639.662	5626
2641.581	5524
2643.498	5480
2645.415	5513
2647.331	5428
2649.248	5538
2651.163	5617
2653.077	5599
2654.993	5535
2656.906	5522
2658.821	5529
2660.733	5629
2662.646	5564
2664.557	5532
2666.47	5472
2668.381	5496
2670.291	5520
2672.201	5511
2674.11	5507
2676.021	5555
2677.929	5527
2679.837	5537
2681.745	5452
2683.652	5467
2685.56	5435
2687.466	5477
2689.371	5406
2691.276	5449
2693.181	5520
2695.085	5416
2696.991	5579
2698.893	5511
2700.796	5441
2702.698	5398
2704.601	5465
2706.502	5403
2708.404	5403
2710.304	5385
2712.203	5514
2714.103	5321
2716.003	5408
2717.902	5413
2719.8	5418
2721.697	5493
2723.594	5442
2725.49	5404
2727.389	5340
2729.283	5318
2731.179	5283
2733.073	5525
2734.968	5442
2736.863	5428
2738.757	5480
2740.649	5405
2742.541	5269
2744.433	5405
2746.324	5355
2748.216	5433
2750.107	5391
2751.997	5423
2753.886	5337
2755.776	5382
2757.666	5377
2759.553	5321
2761.44	5472
2763.327	5331
2765.215	5346
2767.102	5310
2768.988	5338
2770.873	5369
2772.757	5313
2774.641	5307
2776.525	5419
2778.41	5325
2780.292	5335
2782.175	5353
2784.057	5237
2785.938	5273
2787.821	5364
2789.701	5289
2791.581	5352
2793.461	5282
2795.34	5306
2797.219	5411
2799.099	5233
2800.975	5182
2802.853	5250
2804.73	5281
2806.606	5212
2808.484	5279
2810.358	5338
2812.233	5419
2814.108	5261
2815.981	5250
2817.857	5269
2819.73	5260
2821.602	5304
2823.474	5243
2825.346	5306
2827.217	5273
2829.089	5347
2830.959	5276
2832.829	5287
2834.698	5293
2836.567	5333
2838.436	5326
2840.305	5168
2842.172	5284
2844.04	5278
2845.905	5296
2847.772	5294
2849.639	5287
2851.503	5316
2853.369	5288
2855.232	5341
2857.096	5306
2858.961	5345
2860.824	5293
2862.686	5379
2864.547	5353
2866.41	5292
2868.272	5316
2870.132	5387
2871.992	5450
2873.851	5436
2875.711	5476
2877.57	5482
2879.429	5508
2881.287	5615
2883.144	5482
2885.001	5509
2886.857	5528
2888.714	5502
2890.57	5469
2892.425	5538
2894.279	5537
2896.133	5472
2897.987	5597
2899.842	5508
2901.694	5566
2903.547	5555
2905.397	5550
2907.249	5479
2909.101	5594
2910.952	5496
2912.802	5651
2914.652	5547
2916.5	5583
2918.35	5622
2920.198	5576
2922.045	5655
2923.893	5710
2925.74	5690
2927.585	5805
2929.433	5839
2931.279	5808
2933.123	5786
2934.968	5837
2936.811	5947
2938.656	5806
2940.5	5847
2942.342	5912
2944.185	5929
2946.026	5953
2947.87	5965
2949.71	5957
2951.549	5972
2953.39	5870
2955.229	5943
2957.069	5863
2958.908	5828
2960.746	5764
2962.584	5800
2964.421	5797
2966.257	5692
2968.094	5689
2969.931	5650
2971.766	5662
2973.601	5568
2975.435	5540
2977.27	5570
2979.105	5531
2980.938	5521
2982.77	5507
2984.602	5413
2986.434	5477
2988.267	5476
2990.097	5504
2991.927	5411
2993.757	5490
2995.587	5364
2997.417	5335
2999.246	5365
3001.074	5228
3002.902	5210
3004.729	5325
3006.556	5297
3008.384	5209
3010.21	5141
3012.036	5257
3013.861	5071
3015.684	5061
3017.51	5128
3019.334	5047
3021.157	5050
3022.981	5049
3024.802	4979
3026.624	5016
3028.448	5060
3030.267	5064
3032.088	5041
3033.909	5051
3035.728	5062
3037.549	4981
3039.368	4951
3041.186	5027
3043.004	5035
3044.821	4999
3046.64	4962
3048.455	4968
3050.272	5111
3052.087	4854
3053.903	4893
3055.717	4881
3057.534	4949
3059.347	4956
3061.16	4972
3062.974	4989
3064.785	4991
3066.598	4928
3068.411	4918
3070.222	4937
3072.032	4920
3073.844	4886
3075.653	4857
3077.463	4892
3079.272	4870
3081.08	4836
3082.889	4916
3084.697	4891
3086.505	4842
3088.312	4859
3090.118	5020
3091.924	4858
3093.729	4882
3095.535	4776
3097.34	4803
3099.144	4814
3100.947	4759
3102.75	4748
3104.553	4853
3106.357	4764
3108.159	4696
3109.961	4774
3111.762	4773
3113.562	4873
3115.365	4714
3117.164	4745
3118.964	4694
3120.761	4683
3122.56	4755
3124.36	4722
3126.158	4781
3127.954	4749
3129.75	4716
3131.547	4795
3133.343	4728
3135.139	4697
3136.934	4690
3138.729	4774
3140.522	4599
3142.317	4652
3144.11	4563
3145.904	4706
3147.695	4694
3149.488	4602
3151.28	4812
3153.07	4705
3154.863	4719
3156.652	4615
3158.441	4713
3160.231	4654
3162.019	4574
3163.81	4646
3165.597	4593
3167.384	4667
3169.172	4591
3170.958	4617
3172.745	4595
3174.532	4572
3176.317	4533
3178.101	4575
3179.885	4495
3181.67	4663
3183.455	4593
3185.238	4596
3187.02	4576
3188.802	4486
3190.585	4575
3192.368	4605
3194.149	4526
3195.929	4512
3197.709	4517
3199.489	4591
3201.268	4589
3203.048	4560
3204.826	4566
3206.604	4537
3208.382	4608
3210.159	4525
3211.937	4556
3213.713	4597
3215.489	4589
3217.263	4619
3219.038	4609
3220.815	4519
3222.589	4557
3224.363	4587
3226.136	4608
3227.908	4444
3229.681	4525
3231.454	4492
3233.226	4528
3234.996	4517
3236.767	4527
3238.538	4603
3240.308	4523
3242.078	4564
3243.847	4528
3245.615	4459
3247.384	4436
3249.15	4544
3250.92	4517
3252.686	4542
3254.453	4509
3256.218	4465
3257.984	4508
3259.75	4482
3261.515	4517
3263.279	4540
3265.044	4446
3266.806	4568
3268.57	4481
3270.334	4510
3272.095	4562
3273.856	4584
3275.619	4456
3277.379	4566
3279.14	4544
3280.9	4509
3282.661	4512
3284.419	4467
3286.178	4467
3287.937	4543
3289.695	4489
3291.453	4555
3293.21	4456
3294.967	4473
3296.723	4604
3298.48	4517
3300.235	4447
3301.99	4536
3303.744	4478
3305.498	4430
3307.253	4472
3309.006	4486
3310.759	4568
3312.511	4483
3314.263	4473
3316.017	4457
3317.768	4488
3319.519	4423
3321.268	4495
3323.018	4526
3324.767	4448
3326.518	4492
3328.267	4390
3330.014	4457
3331.762	4473
3333.509	4404
3335.258	4519
3337.003	4492
3338.75	4453
3340.496	4450
3342.24	4415
3343.987	4401
3345.732	4429
3347.475	4444
3349.219	4404
3350.961	4356
3352.705	4373
3354.448	4418
3356.19	4384
3357.931	4360
3359.672	4512
3361.412	4305
3363.155	4389
3364.894	4473
3366.633	4294
3368.372	4316
3370.11	4475
3371.849	4385
3373.588	4413
3375.325	4335
3377.061	4364
3378.799	4370
3380.534	4261
3382.271	4346
3384.006	4338
3385.741	4394
3387.475	4286
3389.209	4343
3390.944	4291
3392.677	4353
3394.409	4327
3396.143	4311
3397.874	4242
3399.606	4278
3401.338	4304
3403.069	4359
3404.799	4302
3406.528	4287
3408.258	4373
3409.988	4318
3411.717	4416
3413.445	4298
3415.173	4232
3416.899	4269
3418.626	4304
3420.354	4262
3422.08	4283
3423.806	4300
3425.531	4270
3427.255	4294
3428.981	4259
3430.705	4208
3432.429	4216
3434.151	4204
3435.875	4177
3437.599	4099
3439.321	4195
3441.042	4251
3442.763	4299
3444.483	4166
3446.204	4228
3447.926	4248
3449.645	4112
3451.364	4146
3453.082	4134
3454.801	4205
3456.52	4156
3458.238	4252
3459.954	4125
3461.671	4115
3463.387	4167
3465.104	4194
3466.82	4115
3468.534	4053
3470.25	4171
3471.963	4084
3473.676	4112
3475.392	4144
3477.104	4137
3478.817	4058
3480.528	4161
3482.241	4020
3483.954	4093
3485.664	4042
3487.374	4074
3489.084	4089
3490.795	4135
3492.504	4074
3494.214	4074
3495.922	4056
3497.63	4080
3499.338	4129
3501.045	4089
3502.753	4080
3504.459	3959
3506.166	4015
3507.871	3913
3509.576	4050
3511.283	4040
3512.987	4045
3514.691	3999
3516.395	4038
3518.098	4017
3519.8	3995
3521.504	3977
3523.206	4050
3524.908	3963
3526.609	3984
3528.309	3953
3530.011	4036
3531.711	4083
3533.411	3961
3535.109	3985
3536.808	3937
3538.507	4012
3540.206	4027
3541.904	3973
3543.601	3918
3545.297	3997
3546.994	3853
3548.69	4041
3550.387	3936
3552.081	3995
3553.776	3928
3555.47	3961
3557.166	3947
3558.859	3955
3560.553	3850
3562.245	3923
3563.938	3953
3565.629	4008
3567.322	3903
3569.014	3934
3570.704	3904
3572.394	3838
3574.084	3830
3575.775	3930
3577.464	3883
3579.152	3879
3580.842	3817
3582.529	3846
3584.216	3861
3585.905	3796
3587.591	3901
3589.279	3789
3590.964	3851
3592.649	3803
3594.336	3883
3596.021	3851
3597.705	3844
3599.388	3818
3601.072	3764
3602.757	3871
3604.439	3788
3606.122	3764
3607.803	3749
3609.485	3818
3611.167	3844
3612.849	3786
3614.529	3780
3616.208	3756
3617.888	3733
3619.567	3694
3621.247	3748
3622.926	3683
3624.603	3749
3626.281	3750
3627.958	3681
3629.635	3706
3631.312	3739
3632.989	3603
3634.665	3721
3636.339	3652
3638.014	3650
3639.691	3682
3641.364	3729
3643.038	3688
3644.71	3636
3646.384	3766
3648.058	3662
3649.729	3696
3651.402	3670
3653.073	3683
3654.744	3640
3656.414	3642
3658.085	3710
3659.755	3636
3661.424	3614
3663.094	3629
3664.762	3677
3666.431	3573
3668.099	3547
3669.766	3649
3671.433	3641
3673.099	3652
3674.768	3648
3676.433	3603
3678.098	3576
3679.763	3693
3681.428	3666
3683.093	3646
3684.757	3640
3686.421	3615
3688.083	3683
3689.746	3657
3691.408	3630
3693.071	3597
3694.733	3580
3696.394	3600
3698.054	3589
3699.715	3640
3701.375	3600
3703.036	3614
3704.695	3543
3706.354	3521
3708.012	3583
3709.67	3549
3711.329	3537
3712.987	3537
3714.644	3628
3716.299	3498
3717.955	3512
3719.613	3576
3721.268	3542
3722.923	3557
3724.577	3561
3726.231	3560
3727.885	3540
3729.539	3480
3731.192	3536
3732.845	3596
3734.497	3578
3736.149	3468
3737.802	3439
3739.453	3485
3741.104	3479
3742.753	3497
3744.404	3474
3746.052	3561
3747.704	3521
3749.352	3510
3751	3486
3752.648	3526
3754.296	3508
3755.944	3521
3757.59	3541
3759.238	3453
3760.883	3462
3762.528	3529
3764.176	3506
3765.82	3439
3767.464	3440
3769.109	3500
3770.753	3439
3772.396	3429
3774.04	3430
3775.683	3417
3777.325	3368
3778.967	3400
3780.608	3423
3782.25	3376
3783.89	3476
3785.531	3369
3787.17	3466
3788.81	3437
3790.45	3539
3792.09	3403
3793.729	3429
3795.366	3417
3797.003	3347
3798.64	3390
3800.278	3331
3801.915	3395
3803.551	3348
3805.187	3329
3806.822	3473
3808.458	3277
3810.093	3336
3811.726	3312
3813.36	3461
3814.994	3381
3816.627	3369
3818.262	3356
3819.893	3336
3821.525	3258
3823.157	3309
3824.787	3305
3826.42	3292
3828.051	3333
3829.68	3340
3831.31	3276
3832.938	3338
3834.569	3293
3836.198	3294
3837.825	3361
3839.454	3288
3841.08	3321
3842.708	3298
3844.335	3364
3845.962	3266
3847.587	3289
3849.212	3327
3850.838	3363
3852.463	3310
3854.089	3309
3855.712	3311
3857.335	3290
3858.959	3231
3860.582	3284
3862.205	3277
3863.827	3266
3865.449	3253
3867.07	3305
3868.691	3258
3870.312	3265
3871.933	3274
3873.553	3261
3875.173	3274
3876.792	3182
3878.411	3349
3880.03	3233
3881.647	3299
3883.265	3186
3884.882	3273
3886.499	3236
3888.116	3233
3889.732	3237
3891.348	3205
3892.964	3214
3894.579	3168
3896.195	3163
3897.809	3232
3899.423	3233
3901.036	3178
3902.648	3195
3904.261	3215
3905.875	3193
3907.487	3120
3909.099	3239
3910.709	3170
3912.321	3181
3913.933	3147
3915.542	3156
3917.152	3206
3918.762	3151
3920.37	3194
3921.98	3269
3923.589	3179
3925.196	3177
3926.804	3212
3928.41	3192
3930.018	3164
3931.626	3191
3933.231	3168
3934.838	3133
3936.442	3164
3938.046	3121
3939.653	3269
3941.257	3169
3942.861	3142
3944.464	3183
3946.068	3100
3947.67	3117
3949.273	3160
3950.876	3104
3952.477	3130
3954.078	3170
3955.678	3135
3957.281	3088
3958.881	3167
3960.48	3171
3962.079	3169
3963.678	3123
3965.279	3106
3966.877	3115
3968.475	3090
3970.072	3043
3971.669	3097
3973.266	3034
3974.864	3072
3976.459	3077
3978.055	3104
3979.65	3076
3981.245	3032
3982.841	3059
3984.436	3130
3986.03	3099
3987.623	3093
3989.216	3035
3990.809	3075
3992.403	3000
3993.995	3083
3995.586	3092
3997.177	2998
3998.768	2990
4000.361	3001
4001.951	3031
4003.54	2982
4005.13	3017
4006.719	3048
4008.31	2941
4009.897	3084
4011.485	3053
4013.073	2941
4014.66	3002
4016.247	3067
4017.834	2925
4019.421	2997
4021.006	2949
4022.592	2990
4024.178	2945
4025.763	2948
4027.348	2985
4028.932	2949
4030.515	2929
4032.099	3039
4033.682	3000
4035.266	2981
4036.847	2984
4038.429	2956
4040.011	2916
4041.592	2868
4043.173	2922
4044.755	2949
4046.334	2998
4047.913	2956
4049.494	2882
4051.074	2894
4052.652	2912
4054.23	2854
4055.807	2969
4057.385	2933
4058.963	2929
4060.541	2912
4062.117	2879
4063.693	2907
4065.269	2903
4066.844	2896
4068.42	2909
4069.995	2864
4071.569	2846
4073.143	2930
4074.716	2922
4076.291	2907
4077.864	2864
4079.436	2849
4081.009	2880
4082.58	2908
4084.152	2850
4085.723	2850
4087.294	2831
4088.865	2942
4090.435	2863
4092.005	2867
4093.574	2909
4095.143	2915
4096.712	2858
4098.279	2829
4099.848	2854
4101.416	2871
4102.984	2855
4104.55	2882
4106.117	2827
4107.682	2892
4109.248	2753
4110.815	2768
4112.379	2851
4113.945	2774
4115.508	2878
4117.073	2719
4118.637	2769
4120.201	2824
4121.763	2774
4123.325	2841
4124.888	2867
4126.449	2756
4128.013	2801
4129.573	2723
4131.133	2756
4132.694	2806
4134.254	2760
4135.814	2766
4137.374	2735
4138.933	2760
4140.491	2718
4142.049	2708
4143.607	2810
4145.167	2743
4146.724	2735
4148.28	2756
4149.836	2706
4151.392	2726
4152.949	2724
4154.504	2652
4156.059	2697
4157.614	2718
4159.168	2661
4160.723	2704
4162.277	2752
4163.83	2777
4165.383	2672
4166.936	2643
4168.488	2669
4170.041	2685
4171.593	2685
4173.144	2660
4174.695	2685
4176.246	2659
4177.796	2745
4179.346	2650
4180.896	2771
4182.445	2593
4183.994	2590
4185.542	2692
4187.091	2640
4188.639	2684
4190.185	2689
4191.732	2675
4193.279	2680
4194.826	2699
4196.373	2639
4197.918	2561
4199.463	2664
4201.008	2663
4202.553	2636
4204.098	2591
4205.641	2616
4207.185	2588
4208.728	2612
4210.271	2598
4211.814	2540
4213.357	2536
4214.898	2583
4216.439	2588
4217.98	2569
4219.522	2619
4221.062	2554
4222.603	2652
4224.142	2624
4225.681	2605
4227.222	2588
4228.76	2616
4230.298	2588
4231.835	2579
4233.373	2611
4234.911	2599
4236.449	2539
4237.985	2609
4239.521	2605
4241.057	2573
4242.592	2556
4244.128	2638
4245.663	2557
4247.197	2562
4248.731	2526
4250.265	2599
4251.798	2629
4253.333	2551
4254.865	2534
4256.397	2508
4257.93	2535
4259.461	2578
4260.994	2576
4262.525	2560
4264.056	2599
4265.586	2572
4267.115	2534
4268.646	2539
4270.176	2481
4271.705	2590
4273.232	2542
4274.761	2476
4276.289	2515
4277.818	2477
4279.345	2438
4280.872	2565
4282.399	2475
4283.924	2500
4285.452	2408
4286.976	2511
4288.502	2481
4290.026	2551
4291.551	2483
4293.074	2456
4294.6	2454
4296.123	2459
4297.646	2411
4299.168	2492
4300.691	2470
4302.214	2455
4303.736	2419
4305.257	2452
4306.778	2462
4308.299	2503
4309.82	2433
4311.34	2491
4312.86	2477
4314.379	2500
