400.0745	4627
402.597	4616
405.1208	4612
407.6419	4619
410.1623	4608
412.6819	4609
415.201	4672
417.7172	4786
420.2369	4868
422.7538	4753
425.2701	4861
427.7856	4808
430.3005	4946
432.8147	5037
435.3282	4838
437.841	5018
440.3511	4927
442.8625	5028
445.3753	4995
447.8854	4993
450.3927	4941
452.9014	4956
455.4073	4950
457.9146	4873
460.4233	4905
462.9272	4977
465.4325	4928
467.935	5005
470.4389	4992
472.9421	4919
475.4446	4913
477.9444	4915
480.4456	4972
482.944	4970
485.4417	5085
487.9429	4982
490.4393	4965
492.935	5018
495.4321	5104
497.9264	5124
500.4221	5092
502.9171	5157
505.4094	5114
507.9011	5041
510.392	5138
512.8864	5012
515.3759	5103
517.8649	5122
520.3531	5180
522.8406	5184
525.3275	5127
527.8178	5146
530.3033	5023
532.7881	5130
535.2723	5162
537.7558	5145
540.2407	5143
542.7228	5196
545.2043	5207
547.6851	5159
550.1652	5148
552.6467	5256
555.1255	5176
557.6016	5172
560.079	5213
562.5557	5164
565.0318	5186
567.5092	5289
569.984	5337
572.456	5327
574.9294	5304
577.4022	5436
579.8762	5393
582.3456	5439
584.8163	5336
587.2863	5356
589.7557	5345
592.2224	5398
594.6924	5486
597.1578	5379
599.6245	5441
602.0905	5327
604.5538	5289
607.0206	5348
609.4825	5318
611.9459	5394
614.4066	5307
616.8686	5379
619.33	5320
621.7906	5406
624.2487	5270
626.708	5271
629.1647	5307
631.6207	5394
634.0801	5357
636.5348	5267
638.9888	5344
641.4442	5313
643.8969	5410
646.3509	5344
648.8022	5279
651.255	5371
653.705	5278
656.1544	5459
658.6031	5440
661.0532	5369
663.5026	5487
665.9493	5447
668.3954	5431
670.8409	5414
673.2877	5531
675.7318	5540
678.1752	5564
680.618	5535
683.0601	5483
685.5035	5470
687.9444	5564
690.3845	5512
692.824	5491
695.2628	5576
697.701	5495
700.1406	5576
702.5774	5602
705.0116	5522
707.4472	5600
709.8821	5672
712.3183	5605
714.7519	5592
717.1829	5579
719.6151	5687
722.0468	5636
724.4777	5648
726.908	5727
729.3377	5665
731.7667	5770
734.1931	5683
736.6208	5702
739.0498	5810
741.4742	5744
743.9	5706
746.3231	5767
748.7476	5787
751.1713	5876
753.5945	5878
756.015	5917
758.4368	5895
760.856	6044
763.2766	5851
765.6965	5964
768.1157	5910
770.5323	5994
772.9483	5940
775.3656	5946
777.7822	5951
780.1963	5950
782.6116	5917
785.0244	5906
787.4365	5907
789.8499	5715
792.2626	5972
794.6728	6049
797.0823	6009
799.4911	5922
801.8994	5914
804.3109	5959
806.7178	5950
809.124	6037
811.5297	5881
813.9347	6025
816.341	5985
818.7447	5982
821.1478	6055
823.5502	6026
825.952	6076
828.3531	6020
830.7556	5995
833.1554	6010
835.5546	5950
837.9532	6069
840.3511	6117
842.7504	6066
845.1451	6138
847.5411	6178
849.9365	6163
852.3312	6248
854.7272	6153
857.1187	6253
859.5115	6179
861.9037	6167
864.2952	6169
866.6842	6157
869.0764	6141
871.4661	6229
873.8531	6078
876.2415	6173
878.6272	6069
881.0162	6079
883.4026	6150
885.7866	6153
888.1717	6071
890.5543	6100
892.9382	6083
895.3215	6196
897.7041	6068
900.0842	6178
902.4655	6215
904.8443	6150
907.2244	6176
909.6039	6149
911.9808	6203
914.357	6261
916.7346	6394
919.1115	6276
921.4859	6361
923.8616	6394
926.2347	6490
928.6071	6577
930.979	6392
933.3541	6423
935.7247	6414
938.0946	6451
940.4639	6620
942.8326	6516
945.2026	6488
947.5701	6786
949.9369	6759
952.305	7049
954.6705	7281
957.0355	7526
959.4017	7573
961.7654	7802
964.1284	7727
966.4908	7393
968.8527	7323
971.2138	6956
973.5743	6861
975.9343	6699
978.2936	6545
980.6522	6466
983.0122	6411
985.3696	6300
987.7245	6400
990.0807	6301
992.4362	6354
994.7911	6355
997.1474	6275
999.4991	6302
1001.852	6356
1004.205	6389
1006.555	6359
1008.908	6324
1011.258	6365
1013.606	6355
1015.956	6406
1018.302	6368
1020.652	6460
1022.998	6470
1025.345	6404
1027.691	6360
1030.035	6441
1032.378	6405
1034.724	6476
1037.066	6455
1039.409	6485
1041.75	6530
1044.092	6450
1046.433	6498
1048.771	6520
1051.112	6440
1053.449	6407
1055.786	6532
1058.124	6473
1060.462	6521
1062.797	6495
1065.131	6560
1067.467	6488
1069.8	6653
1072.135	6556
1074.467	6604
1076.798	6497
1079.129	6543
1081.459	6555
1083.792	6564
1086.121	6556
1088.449	6519
1090.777	6486
1093.104	6601
1095.431	6515
1097.759	6465
1100.084	6548
1102.408	6466
1104.732	6579
1107.056	6575
1109.379	6464
1111.701	6475
1114.022	6577
1116.343	6543
1118.664	6451
1120.983	6399
1123.303	6427
1125.621	6515
1127.939	6543
1130.256	6590
1132.573	6428
1134.889	6520
1137.205	6520
1139.52	6474
1141.832	6498
1144.146	6320
1146.461	6390
1148.771	6457
1151.083	6444
1153.392	6621
1155.703	6576
1158.011	6506
1160.323	6461
1162.629	6519
1164.938	6542
1167.243	6459
1169.55	6426
1171.857	6476
1174.163	6452
1176.466	6438
1178.769	6527
1181.073	6640
1183.374	6575
1185.677	6443
1187.979	6489
1190.279	6535
1192.578	6458
1194.878	6346
1197.178	6619
1199.476	6370
1201.772	6552
1204.068	6411
1206.366	6523
1208.663	6439
1210.957	6500
1213.251	6442
1215.544	6554
1217.836	6640
1220.128	6522
1222.421	6503
1224.712	6557
1227.002	6607
1229.292	6589
1231.581	6716
1233.871	6613
1236.159	6625
1238.446	6740
1240.732	6754
1243.018	6837
1245.304	6803
1247.59	6809
1249.874	6676
1252.156	6804
1254.439	6822
1256.721	6813
1259.005	6771
1261.286	6844
1263.565	6724
1265.845	6658
1268.125	6741
1270.403	6887
1272.682	6719
1274.959	6820
1277.234	6759
1279.511	6718
1281.787	6681
1284.062	6637
1286.337	6750
1288.609	6592
1290.882	6685
1293.153	6718
1295.428	6707
1297.698	6722
1299.969	6620
1302.237	6654
1304.507	6599
1306.777	6723
1309.044	6628
1311.312	6559
1313.578	6581
1315.844	6631
1318.109	6593
1320.375	6622
1322.638	6627
1324.903	6562
1327.165	6639
1329.427	6740
1331.69	6689
1333.952	6700
1336.212	6794
1338.471	6707
1340.73	6644
1342.988	6624
1345.248	6674
1347.505	6573
1349.763	6500
1352.019	6624
1354.274	6566
1356.53	6618
1358.784	6644
1361.038	6638
1363.291	6537
1365.543	6623
1367.797	6724
1370.048	6751
1372.296	6687
1374.546	6588
1376.796	6619
1379.045	6754
1381.295	6637
1383.542	6696
1385.787	6688
1388.034	6806
1390.28	6662
1392.527	6780
1394.772	6801
1397.014	6891
1399.258	6759
1401.501	6717
1403.741	6840
1405.985	6909
1408.226	6828
1410.465	6920
1412.705	6832
1414.943	6766
1417.184	6828
1419.42	6856
1421.658	6777
1423.894	6895
1426.13	6869
1428.366	6905
1430.602	6724
1432.835	7013
1435.069	6883
1437.301	6877
1439.535	6978
1441.767	6917
1443.997	6972
1446.229	7030
1448.458	6859
1450.687	6979
1452.916	6939
1455.146	7114
1457.372	6980
1459.599	7032
1461.824	6967
1464.051	6877
1466.277	6944
1468.501	6853
1470.725	6826
1472.948	6746
1475.17	6758
1477.393	6780
1479.614	6700
1481.837	6883
1484.057	6628
1486.276	6763
1488.497	6706
1490.715	6599
1492.932	6660
1495.148	6727
1497.364	6581
1499.58	6676
1501.798	6603
1504.012	6623
1506.227	6658
1508.44	6611
1510.653	6601
1512.866	6704
1515.078	6668
1517.289	6616
1519.5	6532
1521.711	6502
1523.92	6679
1526.13	6620
1528.338	6504
1530.544	6527
1532.752	6636
1534.959	6563
1537.165	6614
1539.371	6572
1541.574	6590
1543.779	6658
1545.983	6643
1548.187	6629
1550.39	6791
1552.59	6671
1554.792	6672
1556.991	6703
1559.19	6710
1561.392	6672
1563.59	6689
1565.789	6795
1567.986	6787
1570.182	6783
1572.381	6779
1574.576	6778
1576.771	6784
1578.966	6877
1581.16	6742
1583.354	6788
1585.546	6756
1587.74	6743
1589.931	6804
1592.121	6721
1594.311	6756
1596.502	6837
1598.693	6784
1600.881	6814
1603.069	6847
1605.256	6868
1607.445	6878
1609.631	6867
1611.816	6813
1614.001	6765
1616.186	6853
1618.37	6813
1620.555	6837
1622.737	6820
1624.919	6871
1627.101	6800
1629.282	6839
1631.463	6884
1633.643	6912
1635.822	6862
1638.001	6963
1640.179	6824
1642.359	6875
1644.534	7014
1646.711	7101
1648.887	6869
1651.062	6881
1653.235	7027
1655.412	7021
1657.586	6963
1659.757	7064
1661.93	6820
1664.1	6987
1666.274	7016
1668.445	7046
1670.614	6982
1672.784	7026
1674.951	6976
1677.12	7006
1679.289	6944
1681.457	6970
1683.622	7071
1685.789	7008
1687.953	7099
1690.121	6992
1692.284	6870
1694.447	6865
1696.611	6886
1698.772	6973
1700.935	6844
1703.098	6799
1705.258	6937
1707.417	6816
1709.576	6847
1711.736	6891
1713.896	6785
1716.053	6758
1718.21	6761
1720.366	6849
1722.522	6756
1724.68	6814
1726.835	6759
1728.989	6706
1731.142	6793
1733.295	6773
1735.449	6673
1737.601	6620
1739.753	6716
1741.903	6790
1744.054	6773
1746.203	6712
1748.354	6751
1750.503	6768
1752.651	6747
1754.798	6850
1756.944	6849
1759.092	6743
1761.238	6824
1763.383	6691
1765.528	6712
1767.672	6748
1769.814	6747
1771.959	6837
1774.102	6747
1776.242	6887
1778.384	6802
1780.525	6727
1782.665	6802
1784.805	6892
1786.945	6942
1789.082	6833
1791.22	6791
1793.36	6825
1795.495	6925
1797.632	6927
1799.766	6773
1801.902	6912
1804.035	6812
1806.172	6888
1808.304	6823
1810.436	6885
1812.569	6856
1814.699	6857
1816.833	6744
1818.963	6825
1821.092	6767
1823.222	6771
1825.35	6856
1827.478	6736
1829.608	6815
1831.734	6686
1833.86	6871
1835.986	6820
1838.11	6659
1840.238	6831
1842.362	6816
1844.485	6766
1846.608	6931
1848.73	6780
1850.853	6786
1852.974	6709
1855.097	6803
1857.217	6839
1859.336	6739
1861.455	6735
1863.576	6747
1865.693	6735
1867.811	6765
1869.926	6703
1872.042	6599
1874.16	6849
1876.275	6737
1878.39	6831
1880.504	6844
1882.618	6746
1884.731	6712
1886.843	6702
1888.956	6766
1891.067	6764
1893.178	6805
1895.287	6677
1897.399	6761
1899.508	6868
1901.617	6850
1903.724	6796
1905.832	6847
1907.941	6746
1910.046	6880
1912.152	6810
1914.256	6935
1916.361	6879
1918.464	6820
1920.57	6723
1922.672	6803
1924.775	6806
1926.876	6945
1928.978	6862
1931.08	6755
1933.181	6888
1935.28	6923
1937.38	6738
1939.478	6783
1941.577	6916
1943.675	6987
1945.771	6889
1947.867	6855
1949.964	6882
1952.058	6941
1954.154	6931
1956.248	6835
1958.343	6747
1960.435	6755
1962.527	6791
1964.62	6839
1966.711	6755
1968.802	6925
1970.892	6951
1972.983	6732
1975.072	6718
1977.162	6768
1979.25	6740
1981.337	6718
1983.424	6819
1985.51	6878
1987.598	6874
1989.683	6650
1991.768	6841
1993.852	6747
1995.934	6767
1998.019	6859
2000.102	6727
2002.184	6759
2004.266	6699
2006.347	6825
2008.427	6653
2010.508	6634
2012.587	6659
2014.666	6709
2016.745	6764
2018.821	6693
2020.9	6835
2022.977	6706
2025.052	6793
2027.128	6770
2029.204	6702
2031.277	6654
2033.353	6573
2035.425	6757
2037.499	6646
2039.57	6657
2041.642	6737
2043.714	6813
2045.786	6761
2047.855	6751
2049.925	6714
2051.993	6735
2054.064	6785
2056.132	6801
2058.2	6596
2060.266	6671
2062.332	6870
2064.398	6753
2066.465	6735
2068.529	6795
2070.592	6713
2072.657	6851
2074.719	6628
2076.783	6828
2078.845	6794
2080.907	6715
2082.968	6714
2085.028	6705
2087.087	6798
2089.148	6757
2091.207	6782
2093.264	6738
2095.322	6733
2097.379	6565
2099.439	6756
2101.495	6839
2103.55	6769
2105.605	6665
2107.658	6806
2109.713	6679
2111.767	6640
2113.82	6818
2115.872	6743
2117.924	6734
2119.975	6738
2122.028	6638
2124.078	6845
2126.126	6695
2128.176	6828
2130.225	6713
2132.275	6783
2134.321	6769
2136.368	6765
2138.415	6750
2140.461	6706
2142.505	6701
2144.552	6799
2146.597	6679
2148.64	6833
2150.684	6663
2152.725	6650
2154.77	6689
2156.811	6577
2158.852	6774
2160.894	6688
2162.933	6648
2164.973	6606
2167.013	6661
2169.051	6694
2171.089	6681
2173.126	6693
2175.164	6765
2177.201	6639
2179.236	6666
2181.273	6665
2183.307	6545
2185.341	6574
2187.377	6559
2189.41	6698
2191.442	6574
2193.473	6498
2195.506	6641
2197.539	6579
2199.569	6599
2201.598	6584
2203.628	6588
2205.656	6650
2207.686	6502
2209.716	6592
2211.743	6576
2213.769	6570
2215.796	6525
2217.821	6561
2219.848	6379
2221.873	6467
2223.897	6479
2225.921	6429
2227.944	6546
2229.967	6548
2231.991	6485
2234.011	6568
2236.032	6554
2238.053	6391
2240.073	6449
2242.094	6619
2244.114	6565
2246.131	6478
2248.149	6555
2250.167	6635
2252.186	6533
2254.201	6487
2256.218	6450
2258.233	6529
2260.247	6530
2262.262	6445
2264.278	6555
2266.29	6573
2268.303	6472
2270.315	6469
2272.327	6517
2274.341	6477
2276.35	6495
2278.361	6506
2280.37	6621
2282.38	6423
2284.388	6477
2286.397	6543
2288.405	6557
2290.412	6607
2292.419	6614
2294.425	6502
2296.431	6610
2298.437	6469
2300.441	6486
2302.445	6526
2304.449	6486
2306.453	6612
2308.455	6498
2310.457	6391
2312.459	6495
2314.46	6390
2316.46	6577
2318.461	6475
2320.46	6332
2322.458	6297
2324.458	6478
2326.456	6389
2328.455	6343
2330.451	6475
2332.447	6427
2334.443	6361
2336.438	6349
2338.433	6336
2340.429	6421
2342.422	6383
2344.416	6403
2346.408	6442
2348.399	6464
2350.393	6350
2352.384	6424
2354.375	6363
2356.365	6383
2358.355	6407
2360.344	6415
2362.333	6364
2364.322	6199
2366.309	6364
2368.295	6406
2370.282	6316
2372.27	6262
2374.256	6236
2376.24	6357
2378.225	6292
2380.208	6336
2382.194	6317
2384.177	6238
2386.159	6342
2388.142	6367
2390.122	6135
2392.105	6219
2394.085	6269
2396.066	6267
2398.044	6288
2400.024	6329
2402.002	6249
2403.982	6327
2405.959	6297
2407.935	6286
2409.913	6260
2411.888	6223
2413.865	6190
2415.84	6307
2417.814	6064
2419.788	6148
2421.762	6200
2423.735	6178
2425.708	6208
2427.68	6269
2429.651	6395
2431.623	6183
2433.593	6324
2435.564	6300
2437.533	6227
2439.502	6307
2441.47	6232
2443.438	6365
2445.406	6203
2447.373	6175
2449.34	6196
2451.305	6231
2453.271	6243
2455.235	6160
2457.201	6114
2459.165	6193
2461.129	6085
2463.092	6129
2465.054	6280
2467.018	5992
2468.978	6207
2470.939	6226
2472.899	6287
2474.86	6246
2476.819	6124
2478.778	6180
2480.737	6013
2482.695	6145
2484.653	6208
2486.609	6107
2488.567	6116
2490.524	6112
2492.478	6130
2494.433	6182
2496.387	6246
2498.343	6166
2500.297	6070
2502.249	6082
2504.202	6059
2506.153	6130
2508.105	6088
2510.057	6115
2512.008	6088
2513.957	6200
2515.906	6100
2517.855	6139
2519.805	6069
2521.754	6119
2523.7	6111
2525.647	6028
2527.594	6131
2529.54	6012
2531.486	6072
2533.431	6206
2535.376	6086
2537.32	6192
2539.263	6079
2541.207	6052
2543.151	5996
2545.093	6009
2547.034	6115
2548.975	6043
2550.917	6067
2552.856	6042
2554.796	5964
2556.735	6065
2558.673	6196
2560.611	6101
2562.55	6049
2564.487	6055
2566.424	6070
2568.36	5996
2570.296	6033
2572.232	6116
2574.167	6075
2576.101	6002
2578.035	6040
2579.969	6003
2581.902	6062
2583.834	6073
2585.766	6098
2587.698	6107
2589.628	6184
2591.557	6018
2593.489	6102
2595.419	6112
2597.348	6141
2599.275	6005
2601.204	6089
2603.131	6070
2605.059	6144
2606.986	6051
2608.911	6069
2610.837	5985
2612.76	6106
2614.687	6123
2616.61	6055
2618.534	5990
2620.457	6061
2622.38	5986
2624.302	6059
2626.225	6031
2628.145	5989
2630.067	6073
2631.986	6056
2633.906	6054
2635.827	5990
2637.745	6077
2639.662	6077
2641.581	6041
2643.498	6058
2645.415	6096
2647.331	6101
2649.248	6045
2651.163	5964
2653.077	6147
2654.993	5945
2656.906	6006
2658.821	6097
2660.733	6063
2662.646	6050
2664.557	6031
2666.47	6070
2668.381	6010
2670.291	5986
2672.201	6056
2674.11	5941
2676.021	6079
2677.929	6005
2679.837	5946
2681.745	5960
2683.652	6166
2685.56	5959
2687.466	6083
2689.371	5895
2691.276	6058
2693.181	6055
2695.085	5962
2696.991	6024
2698.893	5952
2700.796	5937
2702.698	5958
2704.601	5951
2706.502	5889
2708.404	6023
2710.304	5919
2712.203	5928
2714.103	5872
2716.003	5958
2717.902	5936
2719.8	5809
2721.697	6006
2723.594	5924
2725.49	6025
2727.389	5954
2729.283	5995
2731.179	5867
2733.073	5968
2734.968	5883
2736.863	5931
2738.757	5901
2740.649	5924
2742.541	5868
2744.433	6010
2746.324	5824
2748.216	5894
2750.107	5892
2751.997	5867
2753.886	5925
2755.776	5929
2757.666	5905
2759.553	6032
2761.44	5876
2763.327	5825
2765.215	5953
2767.102	5980
2768.988	5956
2770.873	6016
2772.757	5851
2774.641	5842
2776.525	5830
2778.41	5809
2780.292	5826
2782.175	5776
2784.057	5784
2785.938	5795
2787.821	5891
2789.701	5894
2791.581	5898
2793.461	5936
2795.34	5804
2797.219	5881
2799.099	5869
2800.975	5751
2802.853	5722
2804.73	5751
2806.606	5794
2808.484	5749
2810.358	5822
2812.233	5766
2814.108	5720
2815.981	5726
2817.857	5815
2819.73	5705
2821.602	5820
2823.474	5843
2825.346	5767
2827.217	5805
2829.089	5809
2830.959	5751
2832.829	5772
2834.698	5895
2836.567	5827
2838.436	5788
2840.305	5805
2842.172	5816
2844.04	5832
2845.905	5995
2847.772	5798
2849.639	5832
2851.503	5846
2853.369	5878
2855.232	5885
2857.096	5869
2858.961	5998
2860.824	5955
2862.686	5815
2864.547	5978
2866.41	5959
2868.272	5990
2870.132	6114
2871.992	6133
2873.851	6093
2875.711	6198
2877.57	6150
2879.429	6264
2881.287	6295
2883.144	6324
2885.001	6393
2886.857	6337
2888.714	6451
2890.57	6348
2892.425	6432
2894.279	6357
2896.133	6358
2897.987	6427
2899.842	6309
2901.694	6347
2903.547	6351
2905.397	6416
2907.249	6367
2909.101	6403
2910.952	6298
2912.802	6374
2914.652	6430
2916.5	6548
2918.35	6639
2920.198	6631
2922.045	6610
2923.893	6815
2925.74	6857
2927.585	6844
2929.433	6880
2931.279	6906
2933.123	6926
2934.968	7041
2936.811	7045
2938.656	7077
2940.5	7161
2942.342	7181
2944.185	7257
2946.026	7200
2947.87	7254
2949.71	7311
2951.549	7255
2953.39	7132
2955.229	7055
2957.069	7035
2958.908	6921
2960.746	6886
2962.584	6738
2964.421	6787
2966.257	6882
2968.094	6645
2969.931	6704
2971.766	6600
2973.601	6480
2975.435	6610
2977.27	6469
2979.105	6323
2980.938	6421
2982.77	6396
2984.602	6374
2986.434	6402
2988.267	6351
2990.097	6323
2991.927	6190
2993.757	6204
2995.587	6275
2997.417	6097
2999.246	6084
3001.074	6013
3002.902	6011
3004.729	5853
3006.556	5919
3008.384	5877
3010.21	5817
3012.036	5744
3013.861	5747
3015.684	5738
3017.51	5722
3019.334	5623
3021.157	5632
3022.981	5583
3024.802	5584
3026.624	5521
3028.448	5470
3030.267	5546
3032.088	5479
3033.909	5511
3035.728	5508
3037.549	5489
3039.368	5552
3041.186	5452
3043.004	5551
3044.821	5409
3046.64	5446
3048.455	5457
3050.272	5479
3052.087	5423
3053.903	5401
3055.717	5459
3057.534	5479
3059.347	5421
3061.16	5449
3062.974	5419
3064.785	5434
3066.598	5403
3068.411	5354
3070.222	5376
3072.032	5333
3073.844	5402
3075.653	5421
3077.463	5325
3079.272	5443
3081.08	5366
3082.889	5352
3084.697	5222
3086.505	5355
3088.312	5240
3090.118	5359
3091.924	5272
3093.729	5315
3095.535	5248
3097.34	5219
3099.144	5265
3100.947	5219
3102.75	5219
3104.553	5199
3106.357	5198
3108.159	5125
3109.961	5233
3111.762	5234
3113.562	5272
3115.365	5108
3117.164	5183
3118.964	5164
3120.761	5285
3122.56	5107
3124.36	5193
3126.158	5095
3127.954	5214
3129.75	5110
3131.547	5068
3133.343	5119
3135.139	5165
3136.934	5085
3138.729	5119
3140.522	5111
3142.317	5066
3144.11	5053
3145.904	5143
3147.695	5145
3149.488	5206
3151.28	5192
3153.07	5157
3154.863	5138
3156.652	4996
3158.441	5092
3160.231	5114
3162.019	5049
3163.81	5137
3165.597	5013
3167.384	5097
3169.172	5092
3170.958	5006
3172.745	5137
3174.532	5168
3176.317	5065
3178.101	5119
3179.885	5067
3181.67	5094
3183.455	5070
3185.238	5072
3187.02	4984
3188.802	4942
3190.585	5033
3192.368	5025
3194.149	5058
3195.929	4956
3197.709	5066
3199.489	5036
3201.268	5037
3203.048	5015
3204.826	5005
3206.604	4953
3208.382	5051
3210.159	5034
3211.937	4986
3213.713	5057
3215.489	5084
3217.263	4959
3219.038	5027
3220.815	5063
3222.589	5038
3224.363	5038
3226.136	5021
3227.908	4985
3229.681	4907
3231.454	4869
3233.226	4973
3234.996	5007
3236.767	5053
3238.538	4984
3240.308	4919
3242.078	4971
3243.847	5100
3245.615	5028
3247.384	4974
3249.15	5096
3250.92	5047
3252.686	5027
3254.453	4946
3256.218	4983
3257.984	5031
3259.75	4956
3261.515	4956
3263.279	5105
3265.044	5068
3266.806	4939
3268.57	5012
3270.334	5014
3272.095	4990
3273.856	4975
3275.619	5000
3277.379	4974
3279.14	5066
3280.9	5138
3282.661	5050
3284.419	5037
3286.178	4976
3287.937	4869
3289.695	4983
3291.453	5037
3293.21	5065
3294.967	5076
3296.723	5014
3298.48	4967
3300.235	4972
3301.99	4970
3303.744	4966
3305.498	4885
3307.253	5009
3309.006	4929
3310.759	4936
3312.511	5004
3314.263	4921
3316.017	4994
3317.768	4990
3319.519	5020
3321.268	4986
3323.018	4963
3324.767	4986
3326.518	4904
3328.267	5007
3330.014	5023
3331.762	4962
3333.509	4972
3335.258	4942
3337.003	5070
3338.75	4996
3340.496	5003
3342.24	4936
3343.987	5081
3345.732	4989
3347.475	4860
3349.219	4908
3350.961	4967
3352.705	4872
3354.448	4938
3356.19	4811
3357.931	4869
3359.672	4930
3361.412	4982
3363.155	4795
3364.894	4807
3366.633	4760
3368.372	4917
3370.11	4858
3371.849	4833
3373.588	4949
3375.325	4887
3377.061	4778
3378.799	4839
3380.534	4874
3382.271	4824
3384.006	4830
3385.741	4835
3387.475	4811
3389.209	4833
3390.944	4853
3392.677	4774
3394.409	4688
3396.143	4778
3397.874	4876
3399.606	4733
3401.338	4697
3403.069	4740
3404.799	4838
3406.528	4741
3408.258	4758
3409.988	4719
3411.717	4740
3413.445	4745
3415.173	4757
3416.899	4721
3418.626	4835
3420.354	4734
3422.08	4719
3423.806	4735
3425.531	4653
3427.255	4715
3428.981	4671
3430.705	4675
3432.429	4682
3434.151	4817
3435.875	4712
3437.599	4657
3439.321	4658
3441.042	4682
3442.763	4661
3444.483	4572
3446.204	4643
3447.926	4602
3449.645	4572
3451.364	4618
3453.082	4595
3454.801	4629
3456.52	4565
3458.238	4538
3459.954	4545
3461.671	4608
3463.387	4590
3465.104	4636
3466.82	4445
3468.534	4615
3470.25	4573
3471.963	4468
3473.676	4476
3475.392	4461
3477.104	4490
3478.817	4595
3480.528	4478
3482.241	4485
3483.954	4528
3485.664	4364
3487.374	4429
3489.084	4492
3490.795	4511
3492.504	4467
3494.214	4478
3495.922	4393
3497.63	4462
3499.338	4479
3501.045	4501
3502.753	4413
3504.459	4477
3506.166	4471
3507.871	4416
3509.576	4449
3511.283	4385
3512.987	4393
3514.691	4356
3516.395	4435
3518.098	4456
3519.8	4418
3521.504	4380
3523.206	4344
3524.908	4429
3526.609	4360
3528.309	4238
3530.011	4313
3531.711	4335
3533.411	4404
3535.109	4362
3536.808	4299
3538.507	4309
3540.206	4357
3541.904	4300
3543.601	4393
3545.297	4277
3546.994	4340
3548.69	4258
3550.387	4245
3552.081	4265
3553.776	4259
3555.47	4250
3557.166	4305
3558.859	4242
3560.553	4231
3562.245	4293
3563.938	4205
3565.629	4301
3567.322	4173
3569.014	4266
3570.704	4118
3572.394	4285
3574.084	4162
3575.775	4161
3577.464	4169
3579.152	4299
3580.842	4219
3582.529	4210
3584.216	4160
3585.905	4100
3587.591	4205
3589.279	4149
3590.964	4177
3592.649	4120
3594.336	4106
3596.021	4186
3597.705	4172
3599.388	4100
3601.072	4095
3602.757	4097
3604.439	4075
3606.122	4059
3607.803	4107
3609.485	4191
3611.167	4102
3612.849	4115
3614.529	4076
3616.208	4110
3617.888	4039
3619.567	4009
3621.247	4027
3622.926	4023
3624.603	4003
3626.281	4071
3627.958	4029
3629.635	3998
3631.312	4027
3632.989	3979
3634.665	3929
3636.339	3982
3638.014	3890
3639.691	3960
3641.364	3932
3643.038	3948
3644.71	3917
3646.384	3947
3648.058	3907
3649.729	4008
3651.402	3934
3653.073	3910
3654.744	3914
3656.414	3958
3658.085	3901
3659.755	3915
3661.424	3832
3663.094	3940
3664.762	3855
3666.431	4010
3668.099	3872
3669.766	3898
3671.433	3811
3673.099	3840
3674.768	3934
3676.433	3845
3678.098	3875
3679.763	3893
3681.428	3911
3683.093	3893
3684.757	3871
3686.421	3771
3688.083	3773
3689.746	3871
3691.408	3877
3693.071	3771
3694.733	3822
3696.394	3855
3698.054	3761
3699.715	3712
3701.375	3824
3703.036	3921
3704.695	3774
3706.354	3786
3708.012	3877
3709.67	3832
3711.329	3759
3712.987	3757
3714.644	3777
3716.299	3795
3717.955	3744
3719.613	3800
3721.268	3750
3722.923	3797
3724.577	3805
3726.231	3735
3727.885	3763
3729.539	3777
3731.192	3742
3732.845	3765
3734.497	3744
3736.149	3773
3737.802	3790
3739.453	3744
3741.104	3651
3742.753	3768
3744.404	3782
3746.052	3718
3747.704	3746
3749.352	3842
3751	3656
3752.648	3731
3754.296	3792
3755.944	3754
3757.59	3783
3759.238	3636
3760.883	3801
3762.528	3786
3764.176	3736
3765.82	3718
3767.464	3638
3769.109	3673
3770.753	3737
3772.396	3689
3774.04	3664
3775.683	3595
3777.325	3625
3778.967	3591
3780.608	3609
3782.25	3645
3783.89	3666
3785.531	3697
3787.17	3699
3788.81	3631
3790.45	3730
3792.09	3631
3793.729	3596
3795.366	3617
3797.003	3609
3798.64	3669
3800.278	3587
3801.915	3637
3803.551	3616
3805.187	3511
3806.822	3573
3808.458	3595
3810.093	3561
3811.726	3681
3813.36	3641
3814.994	3581
3816.627	3539
3818.262	3546
3819.893	3565
3821.525	3529
3823.157	3559
3824.787	3586
3826.42	3495
3828.051	3568
3829.68	3546
3831.31	3530
3832.938	3587
3834.569	3566
3836.198	3528
3837.825	3550
3839.454	3530
3841.08	3449
3842.708	3587
3844.335	3530
3845.962	3479
3847.587	3467
3849.212	3529
3850.838	3511
3852.463	3529
3854.089	3475
3855.712	3463
3857.335	3501
3858.959	3482
3860.582	3471
3862.205	3547
3863.827	3476
3865.449	3544
3867.07	3505
3868.691	3515
3870.312	3496
3871.933	3503
3873.553	3438
3875.173	3503
3876.792	3449
3878.411	3436
3880.03	3485
3881.647	3481
3883.265	3422
3884.882	3451
3886.499	3433
3888.116	3424
3889.732	3402
3891.348	3414
3892.964	3424
3894.579	3447
3896.195	3405
3897.809	3400
3899.423	3423
3901.036	3406
3902.648	3407
3904.261	3389
3905.875	3395
3907.487	3391
3909.099	3374
3910.709	3339
3912.321	3352
3913.933	3439
3915.542	3352
3917.152	3385
3918.762	3415
3920.37	3393
3921.98	3318
3923.589	3384
3925.196	3426
3926.804	3300
3928.41	3428
3930.018	3439
3931.626	3412
3933.231	3368
3934.838	3293
3936.442	3302
3938.046	3335
3939.653	3361
3941.257	3307
3942.861	3408
3944.464	3417
3946.068	3354
3947.67	3412
3949.273	3299
3950.876	3349
3952.477	3341
3954.078	3348
3955.678	3298
3957.281	3286
3958.881	3252
3960.48	3323
3962.079	3332
3963.678	3363
3965.279	3358
3966.877	3270
3968.475	3306
3970.072	3336
3971.669	3335
3973.266	3232
3974.864	3301
3976.459	3306
3978.055	3271
3979.65	3225
3981.245	3251
3982.841	3257
3984.436	3262
3986.03	3278
3987.623	3208
3989.216	3254
3990.809	3248
3992.403	3231
3993.995	3278
3995.586	3187
3997.177	3193
3998.768	3258
4000.361	3216
4001.951	3190
4003.54	3220
4005.13	3250
4006.719	3188
4008.31	3199
4009.897	3160
4011.485	3138
4013.073	3181
4014.66	3189
4016.247	3171
4017.834	3149
4019.421	3220
4021.006	3158
4022.592	3068
4024.178	3173
4025.763	3165
4027.348	3168
4028.932	3148
4030.515	3131
4032.099	3150
4033.682	3099
4035.266	3128
4036.847	3132
4038.429	3100
4040.011	3084
4041.592	3187
4043.173	3055
4044.755	3107
4046.334	3073
4047.913	3159
4049.494	3097
4051.074	3055
4052.652	3136
4054.23	3090
4055.807	3061
4057.385	3011
4058.963	3171
4060.541	3083
4062.117	3114
4063.693	3007
4065.269	3048
4066.844	3143
4068.42	3064
4069.995	3039
4071.569	2982
4073.143	3036
4074.716	3080
4076.291	3038
4077.864	3055
4079.436	3010
4081.009	3051
4082.58	3061
4084.152	2919
4085.723	3052
4087.294	2992
4088.865	2970
4090.435	3103
4092.005	3081
4093.574	2955
4095.143	3047
4096.712	3084
4098.279	3032
4099.848	2962
4101.416	3014
4102.984	3046
4104.55	2957
4106.117	2993
4107.682	2946
4109.248	2973
4110.815	2965
4112.379	2980
4113.945	2937
4115.508	3024
4117.073	2882
4118.637	2967
4120.201	2896
4121.763	2998
4123.325	2936
4124.888	3061
4126.449	2985
4128.013	2961
4129.573	3013
4131.133	2950
4132.694	2896
4134.254	2964
4135.814	2951
4137.374	2889
4138.933	2941
4140.491	2937
4142.049	2921
4143.607	2881
4145.167	2972
4146.724	2945
4148.28	2944
4149.836	2923
4151.392	2902
4152.949	2917
4154.504	2852
4156.059	2866
4157.614	2884
4159.168	2861
4160.723	2825
4162.277	2859
4163.83	2911
4165.383	2884
4166.936	2840
4168.488	2909
4170.041	2895
4171.593	2866
4173.144	2839
4174.695	2837
4176.246	2861
4177.796	2878
4179.346	2819
4180.896	2805
4182.445	2821
4183.994	2842
4185.542	2827
4187.091	2787
4188.639	2822
4190.185	2857
4191.732	2841
4193.279	2782
4194.826	2757
4196.373	2788
4197.918	2807
4199.463	2833
4201.008	2734
4202.553	2811
4204.098	2761
4205.641	2794
4207.185	2787
4208.728	2838
4210.271	2726
4211.814	2727
4213.357	2740
4214.898	2762
4216.439	2781
4217.98	2721
4219.522	2728
4221.062	2686
4222.603	2787
4224.142	2760
4225.681	2712
4227.222	2774
4228.76	2764
4230.298	2770
4231.835	2739
4233.373	2820
4234.911	2727
4236.449	2715
4237.985	2691
4239.521	2716
4241.057	2670
4242.592	2732
4244.128	2715
4245.663	2737
4247.197	2742
4248.731	2683
4250.265	2708
4251.798	2717
4253.333	2649
4254.865	2678
4256.397	2677
4257.93	2674
4259.461	2656
4260.994	2682
4262.525	2730
4264.056	2636
4265.586	2696
4267.115	2633
4268.646	2716
4270.176	2648
4271.705	2678
4273.232	2627
4274.761	2688
4276.289	2689
4277.818	2658
4279.345	2647
4280.872	2651
4282.399	2563
4283.924	2622
4285.452	2660
4286.976	2677
4288.502	2611
4290.026	2683
4291.551	2693
4293.074	2640
4294.6	2594
4296.123	2622
4297.646	2608
4299.168	2620
4300.691	2614
4302.214	2633
4303.736	2614
4305.257	2536
4306.778	2573
4308.299	2609
4309.82	2545
4311.34	2611
4312.86	2584
4314.379	2555
