400.0745	4023
402.597	4037
405.1208	4124
407.6419	4113
410.1623	4065
412.6819	4059
415.201	4078
417.7172	4139
420.2369	4112
422.7538	4161
425.2701	4150
427.7856	4294
430.3005	4250
432.8147	4237
435.3282	4249
437.841	4326
440.3511	4248
442.8625	4359
445.3753	4419
447.8854	4374
450.3927	4300
452.9014	4253
455.4073	4317
457.9146	4328
460.4233	4312
462.9272	4330
465.4325	4253
467.935	4401
470.4389	4321
472.9421	4435
475.4446	4352
477.9444	4362
480.4456	4405
482.944	4368
485.4417	4414
487.9429	4378
490.4393	4454
492.935	4488
495.4321	4361
497.9264	4451
500.4221	4525
502.9171	4473
505.4094	4506
507.9011	4461
510.392	4481
512.8864	4493
515.3759	4581
517.8649	4572
520.3531	4545
522.8406	4507
525.3275	4557
527.8178	4525
530.3033	4455
532.7881	4609
535.2723	4539
537.7558	4538
540.2407	4573
542.7228	4510
545.2043	4648
547.6851	4564
550.1652	4572
552.6467	4594
555.1255	4592
557.6016	4550
560.079	4548
562.5557	4603
565.0318	4565
567.5092	4660
569.984	4534
572.456	4707
574.9294	4744
577.4022	4629
579.8762	4663
582.3456	4733
584.8163	4757
587.2863	4722
589.7557	4693
592.2224	4699
594.6924	4636
597.1578	4723
599.6245	4783
602.0905	4731
604.5538	4632
607.0206	4659
609.4825	4717
611.9459	4747
614.4066	4716
616.8686	4737
619.33	4632
621.7906	4707
624.2487	4684
626.708	4710
629.1647	4663
631.6207	4790
634.0801	4700
636.5348	4669
638.9888	4740
641.4442	4809
643.8969	4793
646.3509	4774
648.8022	4852
651.255	4774
653.705	4728
656.1544	4813
658.6031	4861
661.0532	4850
663.5026	4814
665.9493	4865
668.3954	4851
670.8409	4868
673.2877	4856
675.7318	4835
678.1752	4852
680.618	4743
683.0601	4900
685.5035	4913
687.9444	4882
690.3845	4949
692.824	4943
695.2628	4801
697.701	4872
700.1406	4881
702.5774	4858
705.0116	4871
707.4472	4955
709.8821	4936
712.3183	4937
714.7519	4959
717.1829	4824
719.6151	4966
722.0468	5009
724.4777	5014
726.908	5033
729.3377	4979
731.7667	5101
734.1931	5026
736.6208	4985
739.0498	5130
741.4742	5107
743.9	5075
746.3231	5148
748.7476	5199
751.1713	5174
753.5945	5137
756.015	5084
758.4368	5246
760.856	5090
763.2766	5137
765.6965	5225
768.1157	5198
770.5323	5288
772.9483	5237
775.3656	5213
777.7822	5293
780.1963	5317
782.6116	5249
785.0244	5237
787.4365	5307
789.8499	5297
792.2626	5130
794.6728	5258
797.0823	5243
799.4911	5248
801.8994	5307
804.3109	5209
806.7178	5287
809.124	5285
811.5297	5270
813.9347	5361
816.341	5265
818.7447	5313
821.1478	5347
823.5502	5397
825.952	5295
828.3531	5407
830.7556	5225
833.1554	5392
835.5546	5253
837.9532	5384
840.3511	5237
842.7504	5304
845.1451	5285
847.5411	5348
849.9365	5348
852.3312	5489
854.7272	5393
857.1187	5418
859.5115	5356
861.9037	5414
864.2952	5447
866.6842	5427
869.0764	5389
871.4661	5341
873.8531	5444
876.2415	5339
878.6272	5462
881.0162	5381
883.4026	5434
885.7866	5303
888.1717	5376
890.5543	5503
892.9382	5443
895.3215	5446
897.7041	5494
900.0842	5426
902.4655	5384
904.8443	5481
907.2244	5469
909.6039	5396
911.9808	5415
914.357	5483
916.7346	5541
919.1115	5529
921.4859	5546
923.8616	5643
926.2347	5579
928.6071	5707
930.979	5535
933.3541	5611
935.7247	5654
938.0946	5600
940.4639	5664
942.8326	5685
945.2026	5754
947.5701	5713
949.9369	5818
952.305	5856
954.6705	5985
957.0355	6201
959.4017	6362
961.7654	6230
964.1284	6270
966.4908	6292
968.8527	6066
971.2138	5889
973.5743	5876
975.9343	5675
978.2936	5723
980.6522	5617
983.0122	5532
985.3696	5453
987.7245	5525
990.0807	5450
992.4362	5624
994.7911	5615
997.1474	5604
999.4991	5575
1001.852	5637
1004.205	5627
1006.555	5496
1008.908	5674
1011.258	5582
1013.606	5559
1015.956	5594
1018.302	5591
1020.652	5630
1022.998	5560
1025.345	5674
1027.691	5612
1030.035	5651
1032.378	5695
1034.724	5577
1037.066	5676
1039.409	5609
1041.75	5749
1044.092	5707
1046.433	5671
1048.771	5716
1051.112	5687
1053.449	5630
1055.786	5698
1058.124	5722
1060.462	5760
1062.797	5635
1065.131	5835
1067.467	5822
1069.8	5689
1072.135	5738
1074.467	5710
1076.798	5742
1079.129	5743
1081.459	5581
1083.792	5736
1086.121	5666
1088.449	5716
1090.777	5694
1093.104	5782
1095.431	5678
1097.759	5764
1100.084	5795
1102.408	5635
1104.732	5755
1107.056	5710
1109.379	5688
1111.701	5762
1114.022	5674
1116.343	5768
1118.664	5669
1120.983	5739
1123.303	5776
1125.621	5737
1127.939	5802
1130.256	5681
1132.573	5590
1134.889	5809
1137.205	5745
1139.52	5677
1141.832	5721
1144.146	5702
1146.461	5768
1148.771	5739
1151.083	5667
1153.392	5789
1155.703	5687
1158.011	5792
1160.323	5715
1162.629	5748
1164.938	5745
1167.243	5753
1169.55	5759
1171.857	5771
1174.163	5745
1176.466	5680
1178.769	5810
1181.073	5774
1183.374	5839
1185.677	5756
1187.979	5785
1190.279	5691
1192.578	5814
1194.878	5861
1197.178	5772
1199.476	5745
1201.772	5757
1204.068	5711
1206.366	5734
1208.663	5816
1210.957	5842
1213.251	5797
1215.544	5692
1217.836	5718
1220.128	5775
1222.421	5736
1224.712	5820
1227.002	5868
1229.292	5876
1231.581	5762
1233.871	5870
1236.159	5819
1238.446	5857
1240.732	5999
1243.018	5858
1245.304	5866
1247.59	5892
1249.874	5978
1252.156	5968
1254.439	5956
1256.721	5992
1259.005	5978
1261.286	5928
1263.565	5898
1265.845	5975
1268.125	5882
1270.403	5929
1272.682	5896
1274.959	6007
1277.234	5968
1279.511	5997
1281.787	6074
1284.062	5858
1286.337	5931
1288.609	6017
1290.882	5909
1293.153	5923
1295.428	5884
1297.698	5933
1299.969	5849
1302.237	5863
1304.507	5974
1306.777	5888
1309.044	5844
1311.312	5863
1313.578	5829
1315.844	5963
1318.109	5988
1320.375	5905
1322.638	5881
1324.903	5884
1327.165	5894
1329.427	5925
1331.69	5951
1333.952	5923
1336.212	5897
1338.471	5939
1340.73	5875
1342.988	5834
1345.248	5912
1347.505	5889
1349.763	5938
1352.019	5840
1354.274	5898
1356.53	5861
1358.784	5871
1361.038	5833
1363.291	5790
1365.543	5804
1367.797	5881
1370.048	5788
1372.296	5911
1374.546	6034
1376.796	5919
1379.045	5816
1381.295	5976
1383.542	5877
1385.787	5933
1388.034	5848
1390.28	5951
1392.527	5867
1394.772	5921
1397.014	5968
1399.258	5985
1401.501	5945
1403.741	6040
1405.985	5795
1408.226	6045
1410.465	6020
1412.705	6013
1414.943	5921
1417.184	6008
1419.42	6046
1421.658	5991
1423.894	6040
1426.13	6042
1428.366	5940
1430.602	5977
1432.835	6062
1435.069	6041
1437.301	6276
1439.535	6111
1441.767	6134
1443.997	6039
1446.229	6252
1448.458	6069
1450.687	6191
1452.916	6086
1455.146	6141
1457.372	6077
1459.599	6134
1461.824	6102
1464.051	6128
1466.277	6147
1468.501	6051
1470.725	5984
1472.948	6018
1475.17	6085
1477.393	6058
1479.614	6050
1481.837	5933
1484.057	5985
1486.276	5950
1488.497	5894
1490.715	5954
1492.932	5796
1495.148	5840
1497.364	5824
1499.58	5947
1501.798	5988
1504.012	5915
1506.227	5866
1508.44	5970
1510.653	5940
1512.866	5847
1515.078	5830
1517.289	5938
1519.5	5778
1521.711	6004
1523.92	5782
1526.13	5963
1528.338	5838
1530.544	5792
1532.752	5871
1534.959	5882
1537.165	5992
1539.371	5924
1541.574	5864
1543.779	5886
1545.983	5965
1548.187	5913
1550.39	5932
1552.59	5966
1554.792	5926
1556.991	5961
1559.19	5969
1561.392	5872
1563.59	5983
1565.789	5969
1567.986	6105
1570.182	5959
1572.381	6018
1574.576	5956
1576.771	5914
1578.966	6004
1581.16	6033
1583.354	6157
1585.546	5981
1587.74	6033
1589.931	6005
1592.121	6064
1594.311	5995
1596.502	6084
1598.693	6047
1600.881	6051
1603.069	6096
1605.256	6024
1607.445	5954
1609.631	6121
1611.816	6124
1614.001	6175
1616.186	6090
1618.37	6088
1620.555	6085
1622.737	6092
1624.919	6057
1627.101	5985
1629.282	6139
1631.463	6037
1633.643	6098
1635.822	6090
1638.001	5993
1640.179	6099
1642.359	6087
1644.534	6113
1646.711	6017
1648.887	6108
1651.062	6145
1653.235	6112
1655.412	6142
1657.586	6124
1659.757	6249
1661.93	6203
1664.1	6139
1666.274	6193
1668.445	6113
1670.614	6222
1672.784	6250
1674.951	6033
1677.12	6225
1679.289	6173
1681.457	6100
1683.622	6245
1685.789	6139
1687.953	6041
1690.121	6173
1692.284	6098
1694.447	6115
1696.611	6178
1698.772	6198
1700.935	6019
1703.098	6072
1705.258	6148
1707.417	6195
1709.576	6064
1711.736	6060
1713.896	5971
1716.053	6054
1718.21	6097
1720.366	6020
1722.522	5950
1724.68	5919
1726.835	6053
1728.989	6025
1731.142	5947
1733.295	6035
1735.449	5946
1737.601	6071
1739.753	6086
1741.903	5962
1744.054	6060
1746.203	6051
1748.354	5983
1750.503	6115
1752.651	6049
1754.798	6075
1756.944	6175
1759.092	6020
1761.238	5999
1763.383	6048
1765.528	6034
1767.672	6166
1769.814	6005
1771.959	6157
1774.102	5977
1776.242	6213
1778.384	6071
1780.525	6108
1782.665	6094
1784.805	6148
1786.945	6074
1789.082	6074
1791.22	6082
1793.36	6120
1795.495	6178
1797.632	6055
1799.766	6022
1801.902	6074
1804.035	6134
1806.172	6064
1808.304	6127
1810.436	6206
1812.569	6046
1814.699	6130
1816.833	6141
1818.963	6008
1821.092	6075
1823.222	6059
1825.35	6112
1827.478	6052
1829.608	6067
1831.734	6107
1833.86	5978
1835.986	6054
1838.11	6196
1840.238	6018
1842.362	5965
1844.485	5991
1846.608	6109
1848.73	5912
1850.853	6092
1852.974	5945
1855.097	6059
1857.217	6001
1859.336	6109
1861.455	5955
1863.576	6083
1865.693	6006
1867.811	5889
1869.926	6021
1872.042	6058
1874.16	5944
1876.275	6036
1878.39	6073
1880.504	5985
1882.618	6126
1884.731	6047
1886.843	6047
1888.956	5972
1891.067	5956
1893.178	6029
1895.287	6034
1897.399	6053
1899.508	6009
1901.617	6127
1903.724	6073
1905.832	6104
1907.941	6078
1910.046	6089
1912.152	6026
1914.256	6118
1916.361	6234
1918.464	6050
1920.57	6100
1922.672	6093
1924.775	6107
1926.876	6047
1928.978	6094
1931.08	6135
1933.181	6162
1935.28	6121
1937.38	6093
1939.478	6137
1941.577	6113
1943.675	6139
1945.771	6192
1947.867	6078
1949.964	6108
1952.058	6074
1954.154	6109
1956.248	6147
1958.343	5994
1960.435	6143
1962.527	6069
1964.62	5989
1966.711	6023
1968.802	6115
1970.892	6129
1972.983	5961
1975.072	6076
1977.162	6008
1979.25	6069
1981.337	6047
1983.424	6005
1985.51	6017
1987.598	6060
1989.683	6181
1991.768	5991
1993.852	6066
1995.934	5949
1998.019	6075
2000.102	6012
2002.184	6004
2004.266	6124
2006.347	6104
2008.427	5901
2010.508	5986
2012.587	5966
2014.666	5982
2016.745	6039
2018.821	6043
2020.9	5959
2022.977	5954
2025.052	5990
2027.128	5950
2029.204	6003
2031.277	6125
2033.353	6004
2035.425	6042
2037.499	5997
2039.57	6088
2041.642	5962
2043.714	5953
2045.786	6052
2047.855	6064
2049.925	5999
2051.993	5949
2054.064	6149
2056.132	6124
2058.2	6090
2060.266	6079
2062.332	5966
2064.398	6000
2066.465	5968
2068.529	5970
2070.592	6066
2072.657	6123
2074.719	5930
2076.783	6011
2078.845	6023
2080.907	6023
2082.968	6028
2085.028	6136
2087.087	6087
2089.148	6007
2091.207	6071
2093.264	5965
2095.322	6054
2097.379	5953
2099.439	5972
2101.495	6092
2103.55	6107
2105.605	5987
2107.658	6027
2109.713	6050
2111.767	6099
2113.82	5962
2115.872	5930
2117.924	5980
2119.975	5966
2122.028	6037
2124.078	5958
2126.126	6030
2128.176	6039
2130.225	6025
2132.275	5998
2134.321	5951
2136.368	6056
2138.415	5989
2140.461	5924
2142.505	5961
2144.552	5908
2146.597	6009
2148.64	5988
2150.684	6075
2152.725	6023
2154.77	6016
2156.811	5936
2158.852	6009
2160.894	5920
2162.933	5854
2164.973	6018
2167.013	5869
2169.051	5880
2171.089	5848
2173.126	5920
2175.164	5853
2177.201	5900
2179.236	5877
2181.273	5937
2183.307	5921
2185.341	5838
2187.377	5892
2189.41	5875
2191.442	5899
2193.473	5896
2195.506	5897
2197.539	5862
2199.569	5828
2201.598	5979
2203.628	5879
2205.656	5914
2207.686	5854
2209.716	5877
2211.743	5866
2213.769	5856
2215.796	5914
2217.821	5873
2219.848	5827
2221.873	5761
2223.897	5893
2225.921	5794
2227.944	5798
2229.967	5931
2231.991	5827
2234.011	5857
2236.032	5802
2238.053	5963
2240.073	5722
2242.094	5675
2244.114	5762
2246.131	5775
2248.149	5757
2250.167	5779
2252.186	5894
2254.201	5887
2256.218	5899
2258.233	5808
2260.247	5810
2262.262	5908
2264.278	5794
2266.29	5826
2268.303	5880
2270.315	5863
2272.327	5737
2274.341	5834
2276.35	5817
2278.361	5853
2280.37	5810
2282.38	5692
2284.388	5864
2286.397	5831
2288.405	5776
2290.412	5845
2292.419	5796
2294.425	5717
2296.431	5793
2298.437	5823
2300.441	5858
2302.445	5789
2304.449	5871
2306.453	5801
2308.455	5692
2310.457	5746
2312.459	5836
2314.46	5712
2316.46	5770
2318.461	5792
2320.46	5765
2322.458	5738
2324.458	5758
2326.456	5699
2328.455	5706
2330.451	5713
2332.447	5689
2334.443	5713
2336.438	5768
2338.433	5708
2340.429	5801
2342.422	5813
2344.416	5712
2346.408	5823
2348.399	5625
2350.393	5664
2352.384	5722
2354.375	5707
2356.365	5729
2358.355	5622
2360.344	5711
2362.333	5651
2364.322	5767
2366.309	5614
2368.295	5689
2370.282	5665
2372.27	5619
2374.256	5666
2376.24	5800
2378.225	5689
2380.208	5578
2382.194	5709
2384.177	5566
2386.159	5637
2388.142	5628
2390.122	5578
2392.105	5675
2394.085	5523
2396.066	5669
2398.044	5646
2400.024	5567
2402.002	5609
2403.982	5540
2405.959	5535
2407.935	5555
2409.913	5687
2411.888	5593
2413.865	5599
2415.84	5663
2417.814	5576
2419.788	5550
2421.762	5585
2423.735	5557
2425.708	5657
2427.68	5492
2429.651	5691
2431.623	5523
2433.593	5592
2435.564	5539
2437.533	5524
2439.502	5636
2441.47	5441
2443.438	5592
2445.406	5553
2447.373	5546
2449.34	5568
2451.305	5624
2453.271	5572
2455.235	5509
2457.201	5584
2459.165	5602
2461.129	5519
2463.092	5602
2465.054	5571
2467.018	5593
2468.978	5638
2470.939	5496
2472.899	5446
2474.86	5625
2476.819	5547
2478.778	5532
2480.737	5556
2482.695	5546
2484.653	5521
2486.609	5542
2488.567	5510
2490.524	5623
2492.478	5484
2494.433	5455
2496.387	5580
2498.343	5528
2500.297	5460
2502.249	5382
2504.202	5511
2506.153	5511
2508.105	5472
2510.057	5492
2512.008	5566
2513.957	5429
2515.906	5328
2517.855	5418
2519.805	5449
2521.754	5508
2523.7	5389
2525.647	5438
2527.594	5464
2529.54	5557
2531.486	5592
2533.431	5422
2535.376	5391
2537.32	5432
2539.263	5415
2541.207	5345
2543.151	5459
2545.093	5413
2547.034	5403
2548.975	5385
2550.917	5383
2552.856	5567
2554.796	5417
2556.735	5471
2558.673	5546
2560.611	5475
2562.55	5337
2564.487	5454
2566.424	5464
2568.36	5415
2570.296	5435
2572.232	5433
2574.167	5515
2576.101	5290
2578.035	5396
2579.969	5567
2581.902	5480
2583.834	5377
2585.766	5363
2587.698	5352
2589.628	5634
2591.557	5511
2593.489	5428
2595.419	5504
2597.348	5448
2599.275	5467
2601.204	5479
2603.131	5362
2605.059	5386
2606.986	5378
2608.911	5451
2610.837	5405
2612.76	5449
2614.687	5545
2616.61	5513
2618.534	5544
2620.457	5479
2622.38	5387
2624.302	5398
2626.225	5518
2628.145	5439
2630.067	5374
2631.986	5399
2633.906	5483
2635.827	5485
2637.745	5457
2639.662	5546
2641.581	5514
2643.498	5466
2645.415	5437
2647.331	5465
2649.248	5479
2651.163	5465
2653.077	5423
2654.993	5416
2656.906	5400
2658.821	5399
2660.733	5468
2662.646	5441
2664.557	5448
2666.47	5481
2668.381	5353
2670.291	5367
2672.201	5407
2674.11	5433
2676.021	5462
2677.929	5408
2679.837	5482
2681.745	5385
2683.652	5311
2685.56	5414
2687.466	5423
2689.371	5322
2691.276	5416
2693.181	5424
2695.085	5409
2696.991	5315
2698.893	5393
2700.796	5312
2702.698	5313
2704.601	5256
2706.502	5330
2708.404	5281
2710.304	5303
2712.203	5336
2714.103	5338
2716.003	5374
2717.902	5351
2719.8	5227
2721.697	5233
2723.594	5298
2725.49	5252
2727.389	5271
2729.283	5348
2731.179	5227
2733.073	5331
2734.968	5295
2736.863	5303
2738.757	5348
2740.649	5273
2742.541	5260
2744.433	5272
2746.324	5296
2748.216	5247
2750.107	5287
2751.997	5242
2753.886	5296
2755.776	5212
2757.666	5343
2759.553	5201
2761.44	5221
2763.327	5246
2765.215	5180
2767.102	5306
2768.988	5219
2770.873	5203
2772.757	5269
2774.641	5178
2776.525	5298
2778.41	5175
2780.292	5280
2782.175	5206
2784.057	5333
2785.938	5067
2787.821	5246
2789.701	5246
2791.581	5150
2793.461	5151
2795.34	5146
2797.219	5226
2799.099	5191
2800.975	5124
2802.853	5181
2804.73	5206
2806.606	5223
2808.484	5090
2810.358	5215
2812.233	5319
2814.108	5161
2815.981	5282
2817.857	5177
2819.73	5206
2821.602	5190
2823.474	5100
2825.346	5203
2827.217	5238
2829.089	5173
2830.959	5191
2832.829	5284
2834.698	5212
2836.567	5131
2838.436	5175
2840.305	5094
2842.172	5181
2844.04	5185
2845.905	5219
2847.772	5304
2849.639	5225
2851.503	5209
2853.369	5204
2855.232	5237
2857.096	5269
2858.961	5177
2860.824	5147
2862.686	5234
2864.547	5212
2866.41	5291
2868.272	5310
2870.132	5255
2871.992	5398
2873.851	5382
2875.711	5356
2877.57	5438
2879.429	5528
2881.287	5402
2883.144	5396
2885.001	5471
2886.857	5653
2888.714	5483
2890.57	5434
2892.425	5513
2894.279	5390
2896.133	5431
2897.987	5386
2899.842	5508
2901.694	5507
2903.547	5527
2905.397	5510
2907.249	5439
2909.101	5523
2910.952	5490
2912.802	5512
2914.652	5431
2916.5	5520
2918.35	5615
2920.198	5626
2922.045	5500
2923.893	5655
2925.74	5727
2927.585	5745
2929.433	5785
2931.279	5804
2933.123	5717
2934.968	5761
2936.811	5779
2938.656	5785
2940.5	5917
2942.342	5979
2944.185	6007
2946.026	5955
2947.87	5908
2949.71	5938
2951.549	5835
2953.39	5964
2955.229	5858
2957.069	5706
2958.908	5773
2960.746	5775
2962.584	5607
2964.421	5662
2966.257	5648
2968.094	5580
2969.931	5740
2971.766	5661
2973.601	5422
2975.435	5548
2977.27	5624
2979.105	5498
2980.938	5506
2982.77	5444
2984.602	5505
2986.434	5500
2988.267	5433
2990.097	5422
2991.927	5420
2993.757	5351
2995.587	5278
2997.417	5202
2999.246	5324
3001.074	5257
3002.902	5248
3004.729	5166
3006.556	5171
3008.384	5155
3010.21	5137
3012.036	5134
3013.861	5003
3015.684	4985
3017.51	5006
3019.334	4992
3021.157	4953
3022.981	4835
3024.802	4964
3026.624	4918
3028.448	4868
3030.267	4801
3032.088	4880
3033.909	4865
3035.728	4873
3037.549	4931
3039.368	4880
3041.186	4881
3043.004	4837
3044.821	4795
3046.64	4775
3048.455	4874
3050.272	4737
3052.087	4871
3053.903	4831
3055.717	4829
3057.534	4782
3059.347	4795
3061.16	4844
3062.974	4744
3064.785	4834
3066.598	4808
3068.411	4937
3070.222	4852
3072.032	4839
3073.844	4864
3075.653	4805
3077.463	4803
3079.272	4700
3081.08	4697
3082.889	4715
3084.697	4722
3086.505	4708
3088.312	4693
3090.118	4772
3091.924	4683
3093.729	4721
3095.535	4736
3097.34	4705
3099.144	4650
3100.947	4789
3102.75	4595
3104.553	4688
3106.357	4579
3108.159	4618
3109.961	4570
3111.762	4704
3113.562	4690
3115.365	4551
3117.164	4517
3118.964	4588
3120.761	4600
3122.56	4629
3124.36	4543
3126.158	4571
3127.954	4604
3129.75	4657
3131.547	4551
3133.343	4641
3135.139	4642
3136.934	4587
3138.729	4619
3140.522	4524
3142.317	4541
3144.11	4468
3145.904	4619
3147.695	4548
3149.488	4529
3151.28	4459
3153.07	4534
3154.863	4510
3156.652	4541
3158.441	4529
3160.231	4606
3162.019	4518
3163.81	4539
3165.597	4567
3167.384	4514
3169.172	4541
3170.958	4501
3172.745	4443
3174.532	4467
3176.317	4525
3178.101	4509
3179.885	4487
3181.67	4535
3183.455	4473
3185.238	4459
3187.02	4548
3188.802	4453
3190.585	4488
3192.368	4451
3194.149	4439
3195.929	4409
3197.709	4431
3199.489	4434
3201.268	4424
3203.048	4437
3204.826	4502
3206.604	4493
3208.382	4431
3210.159	4391
3211.937	4397
3213.713	4513
3215.489	4371
3217.263	4410
3219.038	4417
3220.815	4475
3222.589	4386
3224.363	4400
3226.136	4487
3227.908	4497
3229.681	4517
3231.454	4452
3233.226	4386
3234.996	4362
3236.767	4413
3238.538	4417
3240.308	4410
3242.078	4310
3243.847	4358
3245.615	4437
3247.384	4408
3249.15	4418
3250.92	4413
3252.686	4421
3254.453	4425
3256.218	4499
3257.984	4388
3259.75	4428
3261.515	4331
3263.279	4428
3265.044	4392
3266.806	4353
3268.57	4424
3270.334	4387
3272.095	4417
3273.856	4481
3275.619	4410
3277.379	4430
3279.14	4369
3280.9	4337
3282.661	4442
3284.419	4461
3286.178	4409
3287.937	4384
3289.695	4368
3291.453	4418
3293.21	4426
3294.967	4365
3296.723	4395
3298.48	4434
3300.235	4372
3301.99	4382
3303.744	4350
3305.498	4385
3307.253	4399
3309.006	4414
3310.759	4309
3312.511	4416
3314.263	4286
3316.017	4280
3317.768	4446
3319.519	4252
3321.268	4399
3323.018	4382
3324.767	4403
3326.518	4371
3328.267	4362
3330.014	4299
3331.762	4443
3333.509	4334
3335.258	4286
3337.003	4241
3338.75	4293
3340.496	4263
3342.24	4424
3343.987	4320
3345.732	4366
3347.475	4330
3349.219	4339
3350.961	4294
3352.705	4290
3354.448	4287
3356.19	4331
3357.931	4308
3359.672	4262
3361.412	4326
3363.155	4261
3364.894	4345
3366.633	4168
3368.372	4171
3370.11	4290
3371.849	4240
3373.588	4237
3375.325	4266
3377.061	4195
3378.799	4238
3380.534	4313
3382.271	4258
3384.006	4294
3385.741	4257
3387.475	4310
3389.209	4310
3390.944	4207
3392.677	4320
3394.409	4217
3396.143	4197
3397.874	4170
3399.606	4262
3401.338	4140
3403.069	4205
3404.799	4162
3406.528	4127
3408.258	4155
3409.988	4194
3411.717	4218
3413.445	4114
3415.173	4145
3416.899	4150
3418.626	4225
3420.354	4067
3422.08	4164
3423.806	4146
3425.531	4191
3427.255	4173
3428.981	4179
3430.705	4110
3432.429	4132
3434.151	4207
3435.875	4147
3437.599	4188
3439.321	4112
3441.042	4114
3442.763	4077
3444.483	4000
3446.204	4101
3447.926	4103
3449.645	4028
3451.364	4163
3453.082	4111
3454.801	4030
3456.52	4019
3458.238	4001
3459.954	3985
3461.671	4073
3463.387	4118
3465.104	4066
3466.82	4044
3468.534	4164
3470.25	3995
3471.963	4052
3473.676	4035
3475.392	3944
3477.104	4033
3478.817	3914
3480.528	3997
3482.241	4011
3483.954	3958
3485.664	3959
3487.374	3938
3489.084	3995
3490.795	3891
3492.504	3938
3494.214	3963
3495.922	3979
3497.63	4020
3499.338	3957
3501.045	3913
3502.753	3981
3504.459	3960
3506.166	3909
3507.871	3934
3509.576	3880
3511.283	3906
3512.987	3886
3514.691	3870
3516.395	3818
3518.098	3824
3519.8	3965
3521.504	3799
3523.206	3944
3524.908	3809
3526.609	3842
3528.309	3834
3530.011	3838
3531.711	3885
3533.411	3862
3535.109	3851
3536.808	3883
3538.507	3890
3540.206	3784
3541.904	3840
3543.601	3831
3545.297	3866
3546.994	3826
3548.69	3843
3550.387	3814
3552.081	3748
3553.776	3850
3555.47	3774
3557.166	3836
3558.859	3807
3560.553	3835
3562.245	3647
3563.938	3808
3565.629	3776
3567.322	3792
3569.014	3744
3570.704	3827
3572.394	3796
3574.084	3812
3575.775	3733
3577.464	3796
3579.152	3744
3580.842	3790
3582.529	3760
3584.216	3824
3585.905	3714
3587.591	3825
3589.279	3697
3590.964	3777
3592.649	3764
3594.336	3717
3596.021	3685
3597.705	3748
3599.388	3707
3601.072	3596
3602.757	3592
3604.439	3704
3606.122	3735
3607.803	3627
3609.485	3646
3611.167	3673
3612.849	3670
3614.529	3615
3616.208	3618
3617.888	3601
3619.567	3617
3621.247	3685
3622.926	3708
3624.603	3580
3626.281	3569
3627.958	3695
3629.635	3625
3631.312	3662
3632.989	3504
3634.665	3572
3636.339	3577
3638.014	3684
3639.691	3624
3641.364	3572
3643.038	3610
3644.71	3658
3646.384	3577
3648.058	3570
3649.729	3545
3651.402	3572
3653.073	3565
3654.744	3594
3656.414	3554
3658.085	3591
3659.755	3553
3661.424	3552
3663.094	3542
3664.762	3485
3666.431	3529
3668.099	3547
3669.766	3567
3671.433	3516
3673.099	3465
3674.768	3521
3676.433	3542
3678.098	3471
3679.763	3608
3681.428	3442
3683.093	3499
3684.757	3495
3686.421	3484
3688.083	3428
3689.746	3437
3691.408	3483
3693.071	3574
3694.733	3546
3696.394	3395
3698.054	3483
3699.715	3465
3701.375	3464
3703.036	3480
3704.695	3394
3706.354	3493
3708.012	3489
3709.67	3425
3711.329	3359
3712.987	3456
3714.644	3500
3716.299	3468
3717.955	3481
3719.613	3408
3721.268	3364
3722.923	3449
3724.577	3458
3726.231	3468
3727.885	3438
3729.539	3457
3731.192	3420
3732.845	3458
3734.497	3414
3736.149	3409
3737.802	3433
3739.453	3432
3741.104	3407
3742.753	3411
3744.404	3364
3746.052	3403
3747.704	3346
3749.352	3419
3751	3412
3752.648	3319
3754.296	3374
3755.944	3425
3757.59	3350
3759.238	3354
3760.883	3387
3762.528	3311
3764.176	3283
3765.82	3432
3767.464	3363
3769.109	3319
3770.753	3381
3772.396	3322
3774.04	3413
3775.683	3289
3777.325	3315
3778.967	3242
3780.608	3281
3782.25	3296
3783.89	3246
3785.531	3366
3787.17	3345
3788.81	3305
3790.45	3306
3792.09	3274
3793.729	3294
3795.366	3324
3797.003	3223
3798.64	3313
3800.278	3270
3801.915	3209
3803.551	3263
3805.187	3201
3806.822	3303
3808.458	3359
3810.093	3260
3811.726	3256
3813.36	3271
3814.994	3254
3816.627	3327
3818.262	3289
3819.893	3192
3821.525	3236
3823.157	3291
3824.787	3201
3826.42	3241
3828.051	3252
3829.68	3284
3831.31	3147
3832.938	3199
3834.569	3166
3836.198	3213
3837.825	3241
3839.454	3239
3841.08	3206
3842.708	3223
3844.335	3173
3845.962	3163
3847.587	3207
3849.212	3189
3850.838	3169
3852.463	3125
3854.089	3236
3855.712	3212
3857.335	3159
3858.959	3131
3860.582	3182
3862.205	3178
3863.827	3161
3865.449	3144
3867.07	3177
3868.691	3251
3870.312	3141
3871.933	3155
3873.553	3119
3875.173	3179
3876.792	3184
3878.411	3121
3880.03	3183
3881.647	3154
3883.265	3116
3884.882	3042
3886.499	3102
3888.116	3041
3889.732	3155
3891.348	3103
3892.964	3104
3894.579	3077
3896.195	3116
3897.809	3181
3899.423	3148
3901.036	3078
3902.648	3134
3904.261	3157
3905.875	3070
3907.487	3041
3909.099	3105
3910.709	3115
3912.321	3097
3913.933	3136
3915.542	3129
3917.152	3068
3918.762	3047
3920.37	3083
3921.98	3071
3923.589	3027
3925.196	3086
3926.804	3095
3928.41	3063
3930.018	3105
3931.626	3033
3933.231	3077
3934.838	3057
3936.442	3060
3938.046	3034
3939.653	3063
3941.257	3000
3942.861	3114
3944.464	3128
3946.068	3099
3947.67	3049
3949.273	3050
3950.876	3071
3952.477	3099
3954.078	3094
3955.678	3012
3957.281	3026
3958.881	3016
3960.48	3058
3962.079	3084
3963.678	2932
3965.279	3004
3966.877	2972
3968.475	3001
3970.072	3044
3971.669	2999
3973.266	2966
3974.864	3032
3976.459	2957
3978.055	2975
3979.65	2927
3981.245	2981
3982.841	3007
3984.436	2998
3986.03	2971
3987.623	2987
3989.216	3005
3990.809	2908
3992.403	2897
3993.995	2934
3995.586	2995
3997.177	2990
3998.768	2976
4000.361	2919
4001.951	2936
4003.54	2941
4005.13	2878
4006.719	2941
4008.31	2889
4009.897	2901
4011.485	2946
4013.073	2886
4014.66	2947
4016.247	2918
4017.834	2931
4019.421	2901
4021.006	2874
4022.592	2874
4024.178	2957
4025.763	2909
4027.348	2804
4028.932	2840
4030.515	2894
4032.099	2885
4033.682	2860
4035.266	2834
4036.847	2810
4038.429	2888
4040.011	2892
4041.592	2810
4043.173	2797
4044.755	2790
4046.334	2813
4047.913	2831
4049.494	2811
4051.074	2845
4052.652	2783
4054.23	2815
4055.807	2839
4057.385	2804
4058.963	2813
4060.541	2824
4062.117	2853
4063.693	2745
4065.269	2853
4066.844	2805
4068.42	2811
4069.995	2750
4071.569	2825
4073.143	2744
4074.716	2764
4076.291	2810
4077.864	2732
4079.436	2791
4081.009	2768
4082.58	2717
4084.152	2734
4085.723	2721
4087.294	2816
4088.865	2745
4090.435	2770
4092.005	2722
4093.574	2754
4095.143	2793
4096.712	2741
4098.279	2704
4099.848	2760
4101.416	2679
4102.984	2672
4104.55	2725
4106.117	2746
4107.682	2726
4109.248	2713
4110.815	2706
4112.379	2683
4113.945	2699
4115.508	2713
4117.073	2687
4118.637	2696
4120.201	2607
4121.763	2678
4123.325	2701
4124.888	2690
4126.449	2711
4128.013	2679
4129.573	2691
4131.133	2705
4132.694	2649
4134.254	2714
4135.814	2635
4137.374	2661
4138.933	2646
4140.491	2609
4142.049	2653
4143.607	2668
4145.167	2641
4146.724	2662
4148.28	2640
4149.836	2663
4151.392	2624
4152.949	2666
4154.504	2616
4156.059	2655
4157.614	2590
4159.168	2619
4160.723	2571
4162.277	2578
4163.83	2599
4165.383	2601
4166.936	2536
4168.488	2617
4170.041	2576
4171.593	2616
4173.144	2629
4174.695	2593
4176.246	2605
4177.796	2636
4179.346	2529
4180.896	2595
4182.445	2537
4183.994	2608
4185.542	2540
4187.091	2587
4188.639	2575
4190.185	2621
4191.732	2543
4193.279	2557
4194.826	2580
4196.373	2624
4197.918	2597
4199.463	2495
4201.008	2548
4202.553	2582
4204.098	2503
4205.641	2547
4207.185	2514
4208.728	2459
4210.271	2547
4211.814	2541
4213.357	2545
4214.898	2533
4216.439	2524
4217.98	2512
4219.522	2496
4221.062	2574
4222.603	2478
4224.142	2512
4225.681	2535
4227.222	2496
4228.76	2489
4230.298	2513
4231.835	2479
4233.373	2541
4234.911	2498
4236.449	2522
4237.985	2501
4239.521	2485
4241.057	2447
4242.592	2494
4244.128	2499
4245.663	2529
4247.197	2478
4248.731	2570
4250.265	2485
4251.798	2508
4253.333	2438
4254.865	2468
4256.397	2402
4257.93	2389
4259.461	2437
4260.994	2409
4262.525	2443
4264.056	2477
4265.586	2408
4267.115	2456
4268.646	2420
4270.176	2459
4271.705	2442
4273.232	2425
4274.761	2433
4276.289	2439
4277.818	2442
4279.345	2423
4280.872	2393
4282.399	2415
4283.924	2430
4285.452	2435
4286.976	2417
4288.502	2400
4290.026	2346
4291.551	2336
4293.074	2415
4294.6	2412
4296.123	2393
4297.646	2389
4299.168	2453
4300.691	2428
4302.214	2384
4303.736	2440
4305.257	2387
4306.778	2386
4308.299	2449
4309.82	2382
4311.34	2382
4312.86	2397
4314.379	2398
