400.0745	4328
402.597	4252
405.1208	4324
407.6419	4261
410.1623	4257
412.6819	4419
415.201	4391
417.7172	4460
420.2369	4534
422.7538	4474
425.2701	4687
427.7856	4595
430.3005	4719
432.8147	4638
435.3282	4575
437.841	4748
440.3511	4633
442.8625	4656
445.3753	4592
447.8854	4597
450.3927	4714
452.9014	4619
455.4073	4663
457.9146	4630
460.4233	4625
462.9272	4593
465.4325	4589
467.935	4564
470.4389	4547
472.9421	4552
475.4446	4571
477.9444	4517
480.4456	4580
482.944	4639
485.4417	4508
487.9429	4572
490.4393	4631
492.935	4627
495.4321	4615
497.9264	4651
500.4221	4654
502.9171	4731
505.4094	4630
507.9011	4802
510.392	4725
512.8864	4638
515.3759	4673
517.8649	4709
520.3531	4666
522.8406	4711
525.3275	4738
527.8178	4731
530.3033	4736
532.7881	4734
535.2723	4772
537.7558	4665
540.2407	4724
542.7228	4754
545.2043	4814
547.6851	4667
550.1652	4774
552.6467	4851
555.1255	4611
557.6016	4778
560.079	4821
562.5557	4848
565.0318	4812
567.5092	4825
569.984	4866
572.456	4933
574.9294	4969
577.4022	4918
579.8762	4906
582.3456	5002
584.8163	4996
587.2863	5026
589.7557	5005
592.2224	5052
594.6924	5022
597.1578	5056
599.6245	4924
602.0905	4982
604.5538	4960
607.0206	4905
609.4825	4824
611.9459	4951
614.4066	4982
616.8686	4997
619.33	4995
621.7906	4986
624.2487	4808
626.708	4842
629.1647	4861
631.6207	4838
634.0801	4876
636.5348	4827
638.9888	4814
641.4442	4856
643.8969	4879
646.3509	4914
648.8022	4924
651.255	4861
653.705	4928
656.1544	4954
658.6031	4928
661.0532	4924
663.5026	4958
665.9493	4959
668.3954	4989
670.8409	4962
673.2877	4980
675.7318	4972
678.1752	4957
680.618	5040
683.0601	5053
685.5035	4948
687.9444	5037
690.3845	5069
692.824	5012
695.2628	5112
697.701	5132
700.1406	5149
702.5774	4956
705.0116	5074
707.4472	5114
709.8821	5130
712.3183	5107
714.7519	5060
717.1829	5089
719.6151	5230
722.0468	5144
724.4777	5193
726.908	5265
729.3377	5258
731.7667	5269
734.1931	5224
736.6208	5217
739.0498	5279
741.4742	5306
743.9	5277
746.3231	5326
748.7476	5366
751.1713	5284
753.5945	5404
756.015	5387
758.4368	5436
760.856	5430
763.2766	5417
765.6965	5376
768.1157	5434
770.5323	5467
772.9483	5456
775.3656	5453
777.7822	5429
780.1963	5465
782.6116	5457
785.0244	5449
787.4365	5426
789.8499	5504
792.2626	5492
794.6728	5380
797.0823	5456
799.4911	5404
801.8994	5431
804.3109	5472
806.7178	5524
809.124	5428
811.5297	5478
813.9347	5511
816.341	5572
818.7447	5601
821.1478	5520
823.5502	5457
825.952	5539
828.3531	5541
830.7556	5537
833.1554	5508
835.5546	5586
837.9532	5607
840.3511	5582
842.7504	5626
845.1451	5631
847.5411	5611
849.9365	5728
852.3312	5646
854.7272	5695
857.1187	5821
859.5115	5618
861.9037	5717
864.2952	5732
866.6842	5640
869.0764	5738
871.4661	5710
873.8531	5766
876.2415	5667
878.6272	5790
881.0162	5764
883.4026	5650
885.7866	5638
888.1717	5748
890.5543	5591
892.9382	5570
895.3215	5625
897.7041	5731
900.0842	5634
902.4655	5667
904.8443	5661
907.2244	5631
909.6039	5810
911.9808	5791
914.357	5801
916.7346	5877
919.1115	5925
921.4859	6000
923.8616	5953
926.2347	6008
928.6071	6053
930.979	5945
933.3541	6024
935.7247	6042
938.0946	6111
940.4639	6351
942.8326	6363
945.2026	6331
947.5701	6503
949.9369	6674
952.305	6941
954.6705	7186
957.0355	7449
959.4017	7814
961.7654	8133
964.1284	8044
966.4908	7884
968.8527	7460
971.2138	7047
973.5743	6629
975.9343	6382
978.2936	6203
980.6522	6072
983.0122	6021
985.3696	5896
987.7245	5862
990.0807	5956
992.4362	5897
994.7911	5919
997.1474	5824
999.4991	5892
1001.852	5882
1004.205	6087
1006.555	5991
1008.908	5917
1011.258	5966
1013.606	5929
1015.956	5871
1018.302	5780
1020.652	5931
1022.998	5932
1025.345	5889
1027.691	5996
1030.035	6006
1032.378	6012
1034.724	6175
1037.066	6070
1039.409	6015
1041.75	6107
1044.092	5930
1046.433	5973
1048.771	6097
1051.112	6083
1053.449	6027
1055.786	5961
1058.124	5999
1060.462	6109
1062.797	6112
1065.131	6039
1067.467	6143
1069.8	6185
1072.135	6194
1074.467	6291
1076.798	6315
1079.129	6132
1081.459	6146
1083.792	6098
1086.121	6161
1088.449	6192
1090.777	6017
1093.104	5927
1095.431	6092
1097.759	6018
1100.084	6010
1102.408	6131
1104.732	5970
1107.056	5906
1109.379	6101
1111.701	6128
1114.022	5973
1116.343	5931
1118.664	6086
1120.983	6107
1123.303	5962
1125.621	5984
1127.939	5942
1130.256	6008
1132.573	5955
1134.889	5910
1137.205	6026
1139.52	5977
1141.832	5942
1144.146	6015
1146.461	6006
1148.771	5929
1151.083	5854
1153.392	5894
1155.703	5973
1158.011	5895
1160.323	5908
1162.629	5943
1164.938	6058
1167.243	5990
1169.55	5945
1171.857	6007
1174.163	6042
1176.466	6027
1178.769	6027
1181.073	5892
1183.374	6054
1185.677	5973
1187.979	5922
1190.279	5837
1192.578	5940
1194.878	6022
1197.178	6044
1199.476	5983
1201.772	5837
1204.068	5983
1206.366	6055
1208.663	5992
1210.957	6066
1213.251	5985
1215.544	6016
1217.836	6015
1220.128	6172
1222.421	5961
1224.712	6028
1227.002	6093
1229.292	6176
1231.581	6122
1233.871	6206
1236.159	6215
1238.446	6331
1240.732	6141
1243.018	6293
1245.304	6398
1247.59	6415
1249.874	6334
1252.156	6304
1254.439	6288
1256.721	6312
1259.005	6338
1261.286	6272
1263.565	6308
1265.845	6353
1268.125	6389
1270.403	6282
1272.682	6286
1274.959	6254
1277.234	6315
1279.511	6242
1281.787	6226
1284.062	6231
1286.337	6081
1288.609	6272
1290.882	6230
1293.153	6117
1295.428	6202
1297.698	6224
1299.969	6081
1302.237	6206
1304.507	6022
1306.777	6134
1309.044	6048
1311.312	6119
1313.578	6058
1315.844	6113
1318.109	6114
1320.375	6075
1322.638	6065
1324.903	6088
1327.165	6121
1329.427	6096
1331.69	6179
1333.952	6211
1336.212	6138
1338.471	6180
1340.73	6120
1342.988	6092
1345.248	6124
1347.505	6226
1349.763	6160
1352.019	6173
1354.274	6000
1356.53	6153
1358.784	6031
1361.038	6059
1363.291	6035
1365.543	6100
1367.797	6107
1370.048	6088
1372.296	5986
1374.546	6062
1376.796	6274
1379.045	6153
1381.295	6255
1383.542	6239
1385.787	6273
1388.034	6087
1390.28	6055
1392.527	6194
1394.772	6263
1397.014	6179
1399.258	6240
1401.501	6243
1403.741	6284
1405.985	6311
1408.226	6281
1410.465	6241
1412.705	6278
1414.943	6383
1417.184	6396
1419.42	6303
1421.658	6358
1423.894	6341
1426.13	6379
1428.366	6365
1430.602	6353
1432.835	6311
1435.069	6310
1437.301	6320
1439.535	6443
1441.767	6422
1443.997	6483
1446.229	6484
1448.458	6427
1450.687	6674
1452.916	6556
1455.146	6606
1457.372	6640
1459.599	6555
1461.824	6488
1464.051	6453
1466.277	6610
1468.501	6389
1470.725	6379
1472.948	6463
1475.17	6475
1477.393	6332
1479.614	6214
1481.837	6280
1484.057	6207
1486.276	6171
1488.497	6180
1490.715	6218
1492.932	6116
1495.148	6100
1497.364	6103
1499.58	6011
1501.798	6171
1504.012	6074
1506.227	6034
1508.44	6084
1510.653	5997
1512.866	6136
1515.078	6127
1517.289	6121
1519.5	6054
1521.711	5980
1523.92	5970
1526.13	5953
1528.338	6004
1530.544	5941
1532.752	6102
1534.959	6107
1537.165	6003
1539.371	6090
1541.574	5950
1543.779	5977
1545.983	6107
1548.187	6071
1550.39	6139
1552.59	6045
1554.792	6073
1556.991	6095
1559.19	6137
1561.392	6281
1563.59	6073
1565.789	6070
1567.986	6155
1570.182	6242
1572.381	6053
1574.576	6231
1576.771	6225
1578.966	6285
1581.16	6183
1583.354	6069
1585.546	6202
1587.74	6199
1589.931	6284
1592.121	6326
1594.311	6255
1596.502	6242
1598.693	6297
1600.881	6283
1603.069	6347
1605.256	6342
1607.445	6246
1609.631	6286
1611.816	6259
1614.001	6311
1616.186	6350
1618.37	6279
1620.555	6326
1622.737	6258
1624.919	6269
1627.101	6307
1629.282	6400
1631.463	6335
1633.643	6458
1635.822	6505
1638.001	6471
1640.179	6502
1642.359	6419
1644.534	6316
1646.711	6306
1648.887	6456
1651.062	6418
1653.235	6354
1655.412	6351
1657.586	6452
1659.757	6494
1661.93	6310
1664.1	6535
1666.274	6568
1668.445	6551
1670.614	6490
1672.784	6477
1674.951	6447
1677.12	6578
1679.289	6593
1681.457	6468
1683.622	6432
1685.789	6522
1687.953	6515
1690.121	6422
1692.284	6527
1694.447	6405
1696.611	6275
1698.772	6374
1700.935	6242
1703.098	6354
1705.258	6252
1707.417	6293
1709.576	6305
1711.736	6189
1713.896	6150
1716.053	6214
1718.21	6168
1720.366	6230
1722.522	6130
1724.68	6225
1726.835	6095
1728.989	6124
1731.142	6188
1733.295	6156
1735.449	6196
1737.601	6217
1739.753	6210
1741.903	6151
1744.054	6098
1746.203	6267
1748.354	6256
1750.503	6193
1752.651	6204
1754.798	6214
1756.944	6163
1759.092	6220
1761.238	6121
1763.383	6097
1765.528	6144
1767.672	6179
1769.814	6276
1771.959	6234
1774.102	6234
1776.242	6251
1778.384	6271
1780.525	6254
1782.665	6297
1784.805	6230
1786.945	6305
1789.082	6139
1791.22	6245
1793.36	6344
1795.495	6243
1797.632	6126
1799.766	6272
1801.902	6285
1804.035	6268
1806.172	6186
1808.304	6136
1810.436	6326
1812.569	6163
1814.699	6215
1816.833	6213
1818.963	6223
1821.092	6221
1823.222	6098
1825.35	6263
1827.478	6155
1829.608	6169
1831.734	6223
1833.86	6222
1835.986	6131
1838.11	6250
1840.238	6156
1842.362	6048
1844.485	6095
1846.608	6201
1848.73	6031
1850.853	6207
1852.974	6171
1855.097	6228
1857.217	6222
1859.336	6176
1861.455	6238
1863.576	6172
1865.693	6175
1867.811	6220
1869.926	6109
1872.042	6169
1874.16	6248
1876.275	6162
1878.39	6143
1880.504	6225
1882.618	6166
1884.731	6192
1886.843	6256
1888.956	6076
1891.067	6119
1893.178	6208
1895.287	6186
1897.399	6168
1899.508	6165
1901.617	6162
1903.724	6197
1905.832	6192
1907.941	6237
1910.046	6178
1912.152	6136
1914.256	6184
1916.361	6284
1918.464	6255
1920.57	6040
1922.672	6148
1924.775	6298
1926.876	6193
1928.978	6284
1931.08	6203
1933.181	6304
1935.28	6184
1937.38	6285
1939.478	6259
1941.577	6304
1943.675	6319
1945.771	6288
1947.867	6187
1949.964	6200
1952.058	6243
1954.154	6160
1956.248	6193
1958.343	6226
1960.435	6174
1962.527	6270
1964.62	6225
1966.711	6251
1968.802	6214
1970.892	6178
1972.983	6174
1975.072	6207
1977.162	6238
1979.25	6094
1981.337	6278
1983.424	6234
1985.51	6217
1987.598	6203
1989.683	6177
1991.768	6210
1993.852	6039
1995.934	6179
1998.019	6261
2000.102	6061
2002.184	6089
2004.266	6167
2006.347	6110
2008.427	6102
2010.508	6130
2012.587	6150
2014.666	6099
2016.745	6162
2018.821	6172
2020.9	6187
2022.977	6138
2025.052	6197
2027.128	6070
2029.204	6163
2031.277	6083
2033.353	6158
2035.425	6022
2037.499	6117
2039.57	6141
2041.642	6211
2043.714	6119
2045.786	6116
2047.855	6112
2049.925	6173
2051.993	6158
2054.064	6229
2056.132	6060
2058.2	6176
2060.266	6262
2062.332	6159
2064.398	6104
2066.465	6182
2068.529	6193
2070.592	6126
2072.657	6122
2074.719	6132
2076.783	6205
2078.845	6194
2080.907	6144
2082.968	6193
2085.028	6278
2087.087	6180
2089.148	6159
2091.207	6178
2093.264	6140
2095.322	6213
2097.379	6181
2099.439	6137
2101.495	6174
2103.55	6081
2105.605	6204
2107.658	6138
2109.713	6222
2111.767	6146
2113.82	6136
2115.872	6252
2117.924	6134
2119.975	6206
2122.028	6128
2124.078	6135
2126.126	6088
2128.176	6110
2130.225	6013
2132.275	6001
2134.321	6177
2136.368	6149
2138.415	6146
2140.461	6103
2142.505	6202
2144.552	6044
2146.597	6092
2148.64	6101
2150.684	6118
2152.725	6083
2154.77	6136
2156.811	6174
2158.852	6133
2160.894	6034
2162.933	6038
2164.973	6072
2167.013	6219
2169.051	6082
2171.089	6053
2173.126	6079
2175.164	6132
2177.201	6041
2179.236	6059
2181.273	6005
2183.307	5944
2185.341	6040
2187.377	5998
2189.41	6077
2191.442	6026
2193.473	5993
2195.506	5946
2197.539	5981
2199.569	5942
2201.598	5985
2203.628	5931
2205.656	5979
2207.686	5933
2209.716	5921
2211.743	5974
2213.769	5879
2215.796	5990
2217.821	5954
2219.848	5965
2221.873	5921
2223.897	5917
2225.921	5928
2227.944	5911
2229.967	5817
2231.991	6015
2234.011	5984
2236.032	5943
2238.053	5850
2240.073	5888
2242.094	5904
2244.114	5866
2246.131	5913
2248.149	5979
2250.167	5894
2252.186	5943
2254.201	5967
2256.218	5887
2258.233	6056
2260.247	5966
2262.262	5998
2264.278	5936
2266.29	5937
2268.303	5836
2270.315	5859
2272.327	5950
2274.341	5945
2276.35	6001
2278.361	5846
2280.37	5942
2282.38	5906
2284.388	5898
2286.397	5941
2288.405	5927
2290.412	5987
2292.419	5931
2294.425	5874
2296.431	6002
2298.437	6003
2300.441	5894
2302.445	5896
2304.449	5967
2306.453	5979
2308.455	5825
2310.457	5719
2312.459	5967
2314.46	5782
2316.46	5857
2318.461	6036
2320.46	5926
2322.458	5824
2324.458	5832
2326.456	5873
2328.455	5819
2330.451	5786
2332.447	5838
2334.443	5824
2336.438	5788
2338.433	5834
2340.429	5803
2342.422	5875
2344.416	5731
2346.408	5817
2348.399	5819
2350.393	5879
2352.384	5837
2354.375	5829
2356.365	5864
2358.355	5856
2360.344	5789
2362.333	5741
2364.322	5742
2366.309	5837
2368.295	5812
2370.282	5797
2372.27	5777
2374.256	5853
2376.24	5693
2378.225	5743
2380.208	5746
2382.194	5827
2384.177	5754
2386.159	5850
2388.142	5728
2390.122	5667
2392.105	5747
2394.085	5835
2396.066	5776
2398.044	5612
2400.024	5769
2402.002	5624
2403.982	5729
2405.959	5689
2407.935	5754
2409.913	5730
2411.888	5648
2413.865	5643
2415.84	5625
2417.814	5756
2419.788	5625
2421.762	5671
2423.735	5633
2425.708	5728
2427.68	5640
2429.651	5769
2431.623	5722
2433.593	5631
2435.564	5676
2437.533	5643
2439.502	5630
2441.47	5741
2443.438	5716
2445.406	5647
2447.373	5567
2449.34	5748
2451.305	5642
2453.271	5609
2455.235	5605
2457.201	5634
2459.165	5567
2461.129	5654
2463.092	5593
2465.054	5616
2467.018	5687
2468.978	5744
2470.939	5651
2472.899	5666
2474.86	5615
2476.819	5744
2478.778	5691
2480.737	5658
2482.695	5489
2484.653	5676
2486.609	5599
2488.567	5577
2490.524	5607
2492.478	5634
2494.433	5600
2496.387	5637
2498.343	5655
2500.297	5688
2502.249	5724
2504.202	5615
2506.153	5550
2508.105	5516
2510.057	5580
2512.008	5644
2513.957	5574
2515.906	5559
2517.855	5636
2519.805	5522
2521.754	5649
2523.7	5563
2525.647	5566
2527.594	5583
2529.54	5510
2531.486	5530
2533.431	5593
2535.376	5564
2537.32	5551
2539.263	5480
2541.207	5601
2543.151	5574
2545.093	5573
2547.034	5656
2548.975	5521
2550.917	5429
2552.856	5614
2554.796	5588
2556.735	5597
2558.673	5546
2560.611	5579
2562.55	5439
2564.487	5665
2566.424	5488
2568.36	5340
2570.296	5438
2572.232	5524
2574.167	5541
2576.101	5537
2578.035	5441
2579.969	5628
2581.902	5535
2583.834	5585
2585.766	5564
2587.698	5590
2589.628	5647
2591.557	5522
2593.489	5595
2595.419	5536
2597.348	5490
2599.275	5624
2601.204	5603
2603.131	5535
2605.059	5421
2606.986	5636
2608.911	5578
2610.837	5551
2612.76	5681
2614.687	5528
2616.61	5587
2618.534	5639
2620.457	5631
2622.38	5643
2624.302	5600
2626.225	5564
2628.145	5662
2630.067	5633
2631.986	5580
2633.906	5518
2635.827	5578
2637.745	5510
2639.662	5568
2641.581	5505
2643.498	5562
2645.415	5691
2647.331	5536
2649.248	5506
2651.163	5602
2653.077	5514
2654.993	5671
2656.906	5593
2658.821	5585
2660.733	5519
2662.646	5542
2664.557	5699
2666.47	5570
2668.381	5583
2670.291	5536
2672.201	5513
2674.11	5574
2676.021	5580
2677.929	5661
2679.837	5455
2681.745	5442
2683.652	5582
2685.56	5512
2687.466	5526
2689.371	5425
2691.276	5454
2693.181	5424
2695.085	5522
2696.991	5479
2698.893	5526
2700.796	5515
2702.698	5466
2704.601	5508
2706.502	5585
2708.404	5429
2710.304	5462
2712.203	5413
2714.103	5481
2716.003	5445
2717.902	5427
2719.8	5494
2721.697	5466
2723.594	5459
2725.49	5451
2727.389	5459
2729.283	5426
2731.179	5541
2733.073	5436
2734.968	5532
2736.863	5631
2738.757	5392
2740.649	5588
2742.541	5388
2744.433	5434
2746.324	5374
2748.216	5384
2750.107	5403
2751.997	5394
2753.886	5440
2755.776	5311
2757.666	5442
2759.553	5453
2761.44	5390
2763.327	5383
2765.215	5368
2767.102	5393
2768.988	5478
2770.873	5394
2772.757	5452
2774.641	5454
2776.525	5342
2778.41	5407
2780.292	5518
2782.175	5387
2784.057	5423
2785.938	5320
2787.821	5304
2789.701	5333
2791.581	5438
2793.461	5346
2795.34	5386
2797.219	5389
2799.099	5388
2800.975	5377
2802.853	5317
2804.73	5435
2806.606	5301
2808.484	5439
2810.358	5304
2812.233	5322
2814.108	5327
2815.981	5274
2817.857	5290
2819.73	5287
2821.602	5368
2823.474	5407
2825.346	5388
2827.217	5237
2829.089	5474
2830.959	5328
2832.829	5317
2834.698	5363
2836.567	5480
2838.436	5454
2840.305	5420
2842.172	5360
2844.04	5454
2845.905	5433
2847.772	5347
2849.639	5392
2851.503	5565
2853.369	5503
2855.232	5628
2857.096	5409
2858.961	5459
2860.824	5583
2862.686	5557
2864.547	5589
2866.41	5736
2868.272	5802
2870.132	5796
2871.992	5836
2873.851	5871
2875.711	5916
2877.57	5949
2879.429	6018
2881.287	6020
2883.144	6054
2885.001	6127
2886.857	6106
2888.714	6154
2890.57	6086
2892.425	6081
2894.279	6118
2896.133	6187
2897.987	6126
2899.842	6058
2901.694	6031
2903.547	6121
2905.397	6080
2907.249	6055
2909.101	6106
2910.952	6137
2912.802	6182
2914.652	6277
2916.5	6196
2918.35	6329
2920.198	6468
2922.045	6294
2923.893	6577
2925.74	6650
2927.585	6776
2929.433	6765
2931.279	6894
2933.123	6988
2934.968	7070
2936.811	7067
2938.656	7179
2940.5	7135
2942.342	7338
2944.185	7229
2946.026	7524
2947.87	7262
2949.71	7272
2951.549	7199
2953.39	7105
2955.229	7019
2957.069	6972
2958.908	6898
2960.746	6880
2962.584	6822
2964.421	6720
2966.257	6643
2968.094	6472
2969.931	6529
2971.766	6474
2973.601	6312
2975.435	6314
2977.27	6293
2979.105	6267
2980.938	6305
2982.77	6245
2984.602	6267
2986.434	6280
2988.267	6212
2990.097	6189
2991.927	6176
2993.757	6085
2995.587	6027
2997.417	5960
2999.246	5988
3001.074	5867
3002.902	5701
3004.729	5667
3006.556	5706
3008.384	5568
3010.21	5490
3012.036	5453
3013.861	5405
3015.684	5410
3017.51	5319
3019.334	5266
3021.157	5311
3022.981	5209
3024.802	5260
3026.624	5311
3028.448	5126
3030.267	5185
3032.088	5168
3033.909	5164
3035.728	5113
3037.549	5039
3039.368	4959
3041.186	5121
3043.004	5084
3044.821	5097
3046.64	4988
3048.455	4983
3050.272	5018
3052.087	5013
3053.903	5035
3055.717	4989
3057.534	5027
3059.347	5017
3061.16	5099
3062.974	5039
3064.785	4970
3066.598	4990
3068.411	5046
3070.222	5076
3072.032	5012
3073.844	5002
3075.653	5020
3077.463	5028
3079.272	4919
3081.08	4996
3082.889	4985
3084.697	4908
3086.505	4900
3088.312	4857
3090.118	4870
3091.924	4819
3093.729	4933
3095.535	4887
3097.34	4846
3099.144	4769
3100.947	4936
3102.75	4935
3104.553	4859
3106.357	4840
3108.159	4780
3109.961	4841
3111.762	4733
3113.562	4867
3115.365	4858
3117.164	4847
3118.964	4758
3120.761	4875
3122.56	4867
3124.36	4753
3126.158	4771
3127.954	4812
3129.75	4790
3131.547	4724
3133.343	4773
3135.139	4740
3136.934	4830
3138.729	4741
3140.522	4766
3142.317	4831
3144.11	4730
3145.904	4841
3147.695	4678
3149.488	4696
3151.28	4806
3153.07	4792
3154.863	4717
3156.652	4707
3158.441	4691
3160.231	4725
3162.019	4701
3163.81	4790
3165.597	4745
3167.384	4739
3169.172	4685
3170.958	4656
3172.745	4771
3174.532	4720
3176.317	4694
3178.101	4694
3179.885	4756
3181.67	4693
3183.455	4750
3185.238	4662
3187.02	4727
3188.802	4738
3190.585	4665
3192.368	4670
3194.149	4769
3195.929	4622
3197.709	4719
3199.489	4626
3201.268	4659
3203.048	4710
3204.826	4628
3206.604	4749
3208.382	4772
3210.159	4784
3211.937	4637
3213.713	4621
3215.489	4614
3217.263	4690
3219.038	4728
3220.815	4706
3222.589	4694
3224.363	4665
3226.136	4688
3227.908	4695
3229.681	4670
3231.454	4715
3233.226	4702
3234.996	4595
3236.767	4690
3238.538	4720
3240.308	4638
3242.078	4692
3243.847	4607
3245.615	4679
3247.384	4736
3249.15	4702
3250.92	4759
3252.686	4679
3254.453	4682
3256.218	4664
3257.984	4674
3259.75	4617
3261.515	4664
3263.279	4677
3265.044	4718
3266.806	4669
3268.57	4681
3270.334	4673
3272.095	4681
3273.856	4681
3275.619	4649
3277.379	4586
3279.14	4752
3280.9	4732
3282.661	4718
3284.419	4775
3286.178	4791
3287.937	4668
3289.695	4710
3291.453	4732
3293.21	4695
3294.967	4699
3296.723	4612
3298.48	4736
3300.235	4688
3301.99	4769
3303.744	4679
3305.498	4756
3307.253	4734
3309.006	4671
3310.759	4682
3312.511	4656
3314.263	4795
3316.017	4665
3317.768	4679
3319.519	4620
3321.268	4632
3323.018	4707
3324.767	4684
3326.518	4700
3328.267	4646
3330.014	4764
3331.762	4717
3333.509	4731
3335.258	4748
3337.003	4658
3338.75	4656
3340.496	4695
3342.24	4625
3343.987	4651
3345.732	4668
3347.475	4717
3349.219	4605
3350.961	4616
3352.705	4631
3354.448	4573
3356.19	4609
3357.931	4674
3359.672	4586
3361.412	4661
3363.155	4491
3364.894	4610
3366.633	4499
3368.372	4566
3370.11	4556
3371.849	4527
3373.588	4604
3375.325	4619
3377.061	4584
3378.799	4685
3380.534	4586
3382.271	4652
3384.006	4575
3385.741	4580
3387.475	4479
3389.209	4512
3390.944	4574
3392.677	4517
3394.409	4532
3396.143	4479
3397.874	4444
3399.606	4561
3401.338	4526
3403.069	4471
3404.799	4552
3406.528	4471
3408.258	4390
3409.988	4515
3411.717	4421
3413.445	4472
3415.173	4501
3416.899	4461
3418.626	4467
3420.354	4499
3422.08	4469
3423.806	4476
3425.531	4468
3427.255	4450
3428.981	4529
3430.705	4335
3432.429	4511
3434.151	4342
3435.875	4459
3437.599	4393
3439.321	4351
3441.042	4519
3442.763	4449
3444.483	4406
3446.204	4290
3447.926	4401
3449.645	4286
3451.364	4295
3453.082	4317
3454.801	4433
3456.52	4443
3458.238	4212
3459.954	4314
3461.671	4292
3463.387	4283
3465.104	4247
3466.82	4207
3468.534	4350
3470.25	4240
3471.963	4240
3473.676	4209
3475.392	4235
3477.104	4275
3478.817	4332
3480.528	4286
3482.241	4219
3483.954	4223
3485.664	4172
3487.374	4204
3489.084	4189
3490.795	4232
3492.504	4276
3494.214	4150
3495.922	4209
3497.63	4174
3499.338	4130
3501.045	4201
3502.753	4175
3504.459	4107
3506.166	4125
3507.871	4082
3509.576	4080
3511.283	4074
3512.987	4047
3514.691	4175
3516.395	4108
3518.098	4065
3519.8	4198
3521.504	4097
3523.206	4116
3524.908	4079
3526.609	4089
3528.309	4164
3530.011	4096
3531.711	3981
3533.411	4007
3535.109	3966
3536.808	3998
3538.507	4016
3540.206	4011
3541.904	4004
3543.601	4031
3545.297	4017
3546.994	3965
3548.69	4047
3550.387	4069
3552.081	3961
3553.776	3960
3555.47	3974
3557.166	3912
3558.859	3982
3560.553	3910
3562.245	4086
3563.938	3848
3565.629	3900
3567.322	3953
3569.014	3947
3570.704	3938
3572.394	4006
3574.084	4000
3575.775	3881
3577.464	3875
3579.152	3931
3580.842	3856
3582.529	3924
3584.216	3842
3585.905	3840
3587.591	3988
3589.279	3840
3590.964	3825
3592.649	3810
3594.336	3901
3596.021	3823
3597.705	3776
3599.388	3867
3601.072	3863
3602.757	3890
3604.439	3759
3606.122	3760
3607.803	3824
3609.485	3711
3611.167	3707
3612.849	3750
3614.529	3726
3616.208	3747
3617.888	3706
3619.567	3709
3621.247	3767
3622.926	3714
3624.603	3668
3626.281	3730
3627.958	3687
3629.635	3684
3631.312	3641
3632.989	3703
3634.665	3685
3636.339	3685
3638.014	3679
3639.691	3618
3641.364	3720
3643.038	3610
3644.71	3604
3646.384	3669
3648.058	3614
3649.729	3674
3651.402	3601
3653.073	3622
3654.744	3590
3656.414	3702
3658.085	3630
3659.755	3590
3661.424	3652
3663.094	3638
3664.762	3481
3666.431	3614
3668.099	3638
3669.766	3515
3671.433	3512
3673.099	3555
3674.768	3557
3676.433	3531
3678.098	3581
3679.763	3554
3681.428	3517
3683.093	3555
3684.757	3537
3686.421	3514
3688.083	3542
3689.746	3547
3691.408	3479
3693.071	3463
3694.733	3538
3696.394	3503
3698.054	3476
3699.715	3504
3701.375	3587
3703.036	3548
3704.695	3540
3706.354	3484
3708.012	3531
3709.67	3434
3711.329	3513
3712.987	3450
3714.644	3536
3716.299	3426
3717.955	3461
3719.613	3444
3721.268	3457
3722.923	3497
3724.577	3491
3726.231	3406
3727.885	3442
3729.539	3441
3731.192	3535
3732.845	3403
3734.497	3481
3736.149	3370
3737.802	3451
3739.453	3473
3741.104	3444
3742.753	3450
3744.404	3381
3746.052	3506
3747.704	3415
3749.352	3472
3751	3428
3752.648	3422
3754.296	3397
3755.944	3444
3757.59	3483
3759.238	3330
3760.883	3415
3762.528	3426
3764.176	3407
3765.82	3354
3767.464	3381
3769.109	3425
3770.753	3376
3772.396	3360
3774.04	3365
3775.683	3294
3777.325	3334
3778.967	3250
3780.608	3346
3782.25	3407
3783.89	3350
3785.531	3339
3787.17	3296
3788.81	3221
3790.45	3286
3792.09	3301
3793.729	3373
3795.366	3314
3797.003	3360
3798.64	3308
3800.278	3323
3801.915	3357
3803.551	3330
3805.187	3226
3806.822	3314
3808.458	3366
3810.093	3253
3811.726	3347
3813.36	3269
3814.994	3356
3816.627	3296
3818.262	3311
3819.893	3253
3821.525	3251
3823.157	3246
3824.787	3241
3826.42	3190
3828.051	3194
3829.68	3263
3831.31	3306
3832.938	3285
3834.569	3255
3836.198	3161
3837.825	3220
3839.454	3240
3841.08	3201
3842.708	3257
3844.335	3113
3845.962	3238
3847.587	3228
3849.212	3184
3850.838	3191
3852.463	3261
3854.089	3195
3855.712	3226
3857.335	3170
3858.959	3181
3860.582	3222
3862.205	3140
3863.827	3179
3865.449	3146
3867.07	3124
3868.691	3160
3870.312	3157
3871.933	3169
3873.553	3189
3875.173	3165
3876.792	3203
3878.411	3221
3880.03	3151
3881.647	3048
3883.265	3172
3884.882	3120
3886.499	3172
3888.116	3195
3889.732	3091
3891.348	3193
3892.964	3151
3894.579	3112
3896.195	3193
3897.809	3100
3899.423	3165
3901.036	3131
3902.648	3134
3904.261	3093
3905.875	3170
3907.487	3141
3909.099	3207
3910.709	3131
3912.321	3086
3913.933	3074
3915.542	3035
3917.152	3165
3918.762	3056
3920.37	3095
3921.98	3080
3923.589	3105
3925.196	3058
3926.804	3114
3928.41	3153
3930.018	3096
3931.626	3119
3933.231	3041
3934.838	3132
3936.442	3139
3938.046	2988
3939.653	3052
3941.257	3184
3942.861	3001
3944.464	3054
3946.068	3076
3947.67	3037
3949.273	3005
3950.876	3025
3952.477	3078
3954.078	3111
3955.678	3029
3957.281	2998
3958.881	3072
3960.48	3143
3962.079	3032
3963.678	3085
3965.279	3044
3966.877	3020
3968.475	2996
3970.072	3025
3971.669	2998
3973.266	3049
3974.864	3047
3976.459	2984
3978.055	3015
3979.65	2967
3981.245	2942
3982.841	2996
3984.436	3039
3986.03	2979
3987.623	2925
3989.216	2994
3990.809	2967
3992.403	3010
3993.995	2939
3995.586	2958
3997.177	2971
3998.768	2931
4000.361	2925
4001.951	2882
4003.54	2900
4005.13	2966
4006.719	2886
4008.31	2990
4009.897	2968
4011.485	2936
4013.073	2939
4014.66	2939
4016.247	2896
4017.834	2957
4019.421	2914
4021.006	2803
4022.592	2927
4024.178	2827
4025.763	2861
4027.348	2927
4028.932	2847
4030.515	2843
4032.099	2847
4033.682	2824
4035.266	2940
4036.847	2880
4038.429	2859
4040.011	2900
4041.592	2827
4043.173	2834
4044.755	2886
4046.334	2862
4047.913	2824
4049.494	2816
4051.074	2742
4052.652	2803
4054.23	2847
4055.807	2830
4057.385	2853
4058.963	2851
4060.541	2902
4062.117	2802
4063.693	2762
4065.269	2785
4066.844	2891
4068.42	2747
4069.995	2821
4071.569	2782
4073.143	2760
4074.716	2764
4076.291	2826
4077.864	2767
4079.436	2826
4081.009	2773
4082.58	2713
4084.152	2773
4085.723	2786
4087.294	2739
4088.865	2783
4090.435	2746
4092.005	2862
4093.574	2709
4095.143	2796
4096.712	2750
4098.279	2765
4099.848	2789
4101.416	2786
4102.984	2703
4104.55	2734
4106.117	2694
4107.682	2778
4109.248	2747
4110.815	2699
4112.379	2798
4113.945	2680
4115.508	2712
4117.073	2664
4118.637	2726
4120.201	2726
4121.763	2706
4123.325	2650
4124.888	2704
4126.449	2687
4128.013	2736
4129.573	2705
4131.133	2683
4132.694	2664
4134.254	2680
4135.814	2653
4137.374	2685
4138.933	2651
4140.491	2731
4142.049	2661
4143.607	2659
4145.167	2663
4146.724	2671
4148.28	2717
4149.836	2584
4151.392	2664
4152.949	2620
4154.504	2627
4156.059	2685
4157.614	2601
4159.168	2641
4160.723	2576
4162.277	2625
4163.83	2603
4165.383	2593
4166.936	2648
4168.488	2617
4170.041	2594
4171.593	2627
4173.144	2596
4174.695	2619
4176.246	2610
4177.796	2594
4179.346	2571
4180.896	2567
4182.445	2627
4183.994	2589
4185.542	2609
4187.091	2522
4188.639	2591
4190.185	2577
4191.732	2551
4193.279	2541
4194.826	2567
4196.373	2562
4197.918	2556
4199.463	2524
4201.008	2580
4202.553	2524
4204.098	2468
4205.641	2624
4207.185	2523
4208.728	2536
4210.271	2522
4211.814	2568
4213.357	2589
4214.898	2548
4216.439	2497
4217.98	2482
4219.522	2498
4221.062	2469
4222.603	2486
4224.142	2606
4225.681	2520
4227.222	2515
4228.76	2510
4230.298	2492
4231.835	2488
4233.373	2502
4234.911	2526
4236.449	2511
4237.985	2527
4239.521	2547
4241.057	2517
4242.592	2424
4244.128	2450
4245.663	2491
4247.197	2480
4248.731	2438
4250.265	2463
4251.798	2482
4253.333	2458
4254.865	2503
4256.397	2445
4257.93	2497
4259.461	2519
4260.994	2438
4262.525	2426
4264.056	2437
4265.586	2454
4267.115	2512
4268.646	2490
4270.176	2418
4271.705	2479
4273.232	2441
4274.761	2463
4276.289	2388
4277.818	2503
4279.345	2442
4280.872	2462
4282.399	2461
4283.924	2430
4285.452	2436
4286.976	2421
4288.502	2421
4290.026	2371
4291.551	2498
4293.074	2433
4294.6	2395
4296.123	2325
4297.646	2456
4299.168	2409
4300.691	2437
4302.214	2419
4303.736	2344
4305.257	2399
4306.778	2366
4308.299	2322
4309.82	2381
4311.34	2328
4312.86	2388
4314.379	2387
