400.0745	4822
402.597	4879
405.1208	4951
407.6419	4724
410.1623	4864
412.6819	4754
415.201	4881
417.7172	4950
420.2369	4999
422.7538	5005
425.2701	5072
427.7856	5090
430.3005	5161
432.8147	5085
435.3282	5165
437.841	5222
440.3511	5220
442.8625	5115
445.3753	5128
447.8854	5125
450.3927	5120
452.9014	5239
455.4073	5190
457.9146	5208
460.4233	5095
462.9272	5204
465.4325	5190
467.935	5180
470.4389	5198
472.9421	5177
475.4446	5192
477.9444	5309
480.4456	5191
482.944	5228
485.4417	5288
487.9429	5200
490.4393	5279
492.935	5312
495.4321	5324
497.9264	5387
500.4221	5379
502.9171	5358
505.4094	5375
507.9011	5361
510.392	5399
512.8864	5433
515.3759	5526
517.8649	5390
520.3531	5438
522.8406	5325
525.3275	5348
527.8178	5309
530.3033	5522
532.7881	5464
535.2723	5431
537.7558	5469
540.2407	5400
542.7228	5486
545.2043	5418
547.6851	5396
550.1652	5441
552.6467	5402
555.1255	5456
557.6016	5583
560.079	5466
562.5557	5450
565.0318	5531
567.5092	5565
569.984	5595
572.456	5557
574.9294	5510
577.4022	5636
579.8762	5589
582.3456	5679
584.8163	5629
587.2863	5617
589.7557	5703
592.2224	5650
594.6924	5633
597.1578	5641
599.6245	5618
602.0905	5718
604.5538	5700
607.0206	5650
609.4825	5696
611.9459	5688
614.4066	5615
616.8686	5683
619.33	5564
621.7906	5550
624.2487	5556
626.708	5605
629.1647	5622
631.6207	5682
634.0801	5553
636.5348	5710
638.9888	5703
641.4442	5688
643.8969	5662
646.3509	5701
648.8022	5741
651.255	5688
653.705	5592
656.1544	5766
658.6031	5807
661.0532	5732
663.5026	5775
665.9493	5725
668.3954	5848
670.8409	5674
673.2877	5797
675.7318	5811
678.1752	5834
680.618	5862
683.0601	5658
685.5035	5755
687.9444	5840
690.3845	5848
692.824	5810
695.2628	5877
697.701	5805
700.1406	5919
702.5774	5849
705.0116	5904
707.4472	5777
709.8821	5872
712.3183	5962
714.7519	5875
717.1829	5957
719.6151	6006
722.0468	6099
724.4777	5829
726.908	5946
729.3377	5933
731.7667	5972
734.1931	5992
736.6208	6062
739.0498	6105
741.4742	6104
743.9	6098
746.3231	6071
748.7476	6045
751.1713	6086
753.5945	6129
756.015	6202
758.4368	6280
760.856	6178
763.2766	6289
765.6965	6293
768.1157	6242
770.5323	6213
772.9483	6352
775.3656	6167
777.7822	6322
780.1963	6346
782.6116	6286
785.0244	6285
787.4365	6335
789.8499	6225
792.2626	6353
794.6728	6149
797.0823	6221
799.4911	6402
801.8994	6334
804.3109	6333
806.7178	6363
809.124	6311
811.5297	6277
813.9347	6364
816.341	6375
818.7447	6297
821.1478	6543
823.5502	6277
825.952	6302
828.3531	6410
830.7556	6439
833.1554	6342
835.5546	6389
837.9532	6457
840.3511	6464
842.7504	6382
845.1451	6392
847.5411	6441
849.9365	6359
852.3312	6473
854.7272	6556
857.1187	6451
859.5115	6435
861.9037	6412
864.2952	6512
866.6842	6496
869.0764	6426
871.4661	6384
873.8531	6552
876.2415	6585
878.6272	6478
881.0162	6438
883.4026	6385
885.7866	6483
888.1717	6440
890.5543	6406
892.9382	6347
895.3215	6463
897.7041	6470
900.0842	6465
902.4655	6454
904.8443	6548
907.2244	6518
909.6039	6588
911.9808	6522
914.357	6481
916.7346	6632
919.1115	6618
921.4859	6607
923.8616	6618
926.2347	6714
928.6071	6725
930.979	6668
933.3541	6716
935.7247	6698
938.0946	6818
940.4639	6834
942.8326	6806
945.2026	6845
947.5701	6895
949.9369	7226
952.305	7171
954.6705	7435
957.0355	7756
959.4017	7902
961.7654	7874
964.1284	8033
966.4908	7753
968.8527	7534
971.2138	7283
973.5743	7032
975.9343	6962
978.2936	6862
980.6522	6820
983.0122	6749
985.3696	6641
987.7245	6697
990.0807	6676
992.4362	6634
994.7911	6665
997.1474	6640
999.4991	6649
1001.852	6691
1004.205	6671
1006.555	6748
1008.908	6735
1011.258	6701
1013.606	6693
1015.956	6737
1018.302	6749
1020.652	6690
1022.998	6731
1025.345	6922
1027.691	6607
1030.035	6775
1032.378	6706
1034.724	6748
1037.066	6725
1039.409	6695
1041.75	6746
1044.092	6838
1046.433	6808
1048.771	6850
1051.112	6828
1053.449	6744
1055.786	6818
1058.124	6932
1060.462	6714
1062.797	6837
1065.131	6894
1067.467	6862
1069.8	6957
1072.135	6879
1074.467	6936
1076.798	7001
1079.129	6880
1081.459	6912
1083.792	6842
1086.121	6832
1088.449	6989
1090.777	6785
1093.104	6834
1095.431	6892
1097.759	6862
1100.084	6972
1102.408	6850
1104.732	6831
1107.056	6859
1109.379	6942
1111.701	6826
1114.022	6874
1116.343	6890
1118.664	6920
1120.983	6756
1123.303	6813
1125.621	6954
1127.939	6893
1130.256	6792
1132.573	6825
1134.889	6851
1137.205	6909
1139.52	6919
1141.832	6832
1144.146	6862
1146.461	6815
1148.771	6951
1151.083	6916
1153.392	6803
1155.703	6956
1158.011	6842
1160.323	6890
1162.629	6931
1164.938	6906
1167.243	7040
1169.55	6768
1171.857	6991
1174.163	6821
1176.466	6935
1178.769	6810
1181.073	6898
1183.374	6862
1185.677	6880
1187.979	6857
1190.279	6905
1192.578	6849
1194.878	6909
1197.178	6779
1199.476	6894
1201.772	6893
1204.068	6895
1206.366	6827
1208.663	6823
1210.957	7048
1213.251	6911
1215.544	6863
1217.836	6880
1220.128	7020
1222.421	6824
1224.712	6853
1227.002	7121
1229.292	6891
1231.581	6971
1233.871	7007
1236.159	7063
1238.446	7035
1240.732	6947
1243.018	7197
1245.304	6997
1247.59	7039
1249.874	7105
1252.156	6990
1254.439	7129
1256.721	7066
1259.005	6921
1261.286	7054
1263.565	7204
1265.845	7168
1268.125	6985
1270.403	7197
1272.682	6960
1274.959	7146
1277.234	7118
1279.511	7156
1281.787	7034
1284.062	7082
1286.337	7189
1288.609	7131
1290.882	7029
1293.153	6979
1295.428	6948
1297.698	7018
1299.969	7042
1302.237	6992
1304.507	7030
1306.777	7017
1309.044	6898
1311.312	6988
1313.578	7086
1315.844	6964
1318.109	7063
1320.375	7031
1322.638	6951
1324.903	6973
1327.165	7057
1329.427	7063
1331.69	7099
1333.952	7063
1336.212	7068
1338.471	7014
1340.73	6943
1342.988	7049
1345.248	6998
1347.505	7021
1349.763	7057
1352.019	6997
1354.274	6964
1356.53	7072
1358.784	7125
1361.038	7105
1363.291	6956
1365.543	6947
1367.797	7014
1370.048	7039
1372.296	7008
1374.546	7034
1376.796	6998
1379.045	7031
1381.295	6987
1383.542	7045
1385.787	7118
1388.034	7155
1390.28	7197
1392.527	7203
1394.772	7144
1397.014	7211
1399.258	7094
1401.501	7160
1403.741	7162
1405.985	7193
1408.226	7186
1410.465	7049
1412.705	7121
1414.943	7192
1417.184	7134
1419.42	7229
1421.658	7235
1423.894	7116
1426.13	7309
1428.366	7129
1430.602	7173
1432.835	7193
1435.069	7052
1437.301	7321
1439.535	7167
1441.767	7246
1443.997	7199
1446.229	7232
1448.458	7386
1450.687	7388
1452.916	7282
1455.146	7276
1457.372	7359
1459.599	7220
1461.824	7279
1464.051	7378
1466.277	7365
1468.501	7283
1470.725	7208
1472.948	7367
1475.17	7152
1477.393	7077
1479.614	7104
1481.837	7065
1484.057	7139
1486.276	7021
1488.497	7145
1490.715	7165
1492.932	7012
1495.148	7096
1497.364	7087
1499.58	7121
1501.798	7139
1504.012	7058
1506.227	6975
1508.44	7097
1510.653	6889
1512.866	6983
1515.078	6985
1517.289	7083
1519.5	6898
1521.711	7007
1523.92	7053
1526.13	7004
1528.338	7014
1530.544	6943
1532.752	7052
1534.959	7033
1537.165	7053
1539.371	7120
1541.574	7035
1543.779	7054
1545.983	7008
1548.187	6995
1550.39	7118
1552.59	7158
1554.792	7105
1556.991	6979
1559.19	7047
1561.392	7094
1563.59	7034
1565.789	7194
1567.986	7186
1570.182	7217
1572.381	7172
1574.576	7222
1576.771	7135
1578.966	7287
1581.16	7149
1583.354	7094
1585.546	7187
1587.74	7223
1589.931	7190
1592.121	7233
1594.311	7268
1596.502	7313
1598.693	7184
1600.881	7283
1603.069	7254
1605.256	7234
1607.445	7329
1609.631	7409
1611.816	7250
1614.001	7217
1616.186	7208
1618.37	7145
1620.555	7196
1622.737	7219
1624.919	7269
1627.101	7214
1629.282	7302
1631.463	7260
1633.643	7310
1635.822	7328
1638.001	7237
1640.179	7212
1642.359	7249
1644.534	7267
1646.711	7253
1648.887	7274
1651.062	7240
1653.235	7370
1655.412	7296
1657.586	7323
1659.757	7384
1661.93	7238
1664.1	7329
1666.274	7379
1668.445	7330
1670.614	7330
1672.784	7410
1674.951	7373
1677.12	7476
1679.289	7351
1681.457	7356
1683.622	7417
1685.789	7465
1687.953	7366
1690.121	7246
1692.284	7320
1694.447	7227
1696.611	7378
1698.772	7222
1700.935	7245
1703.098	7260
1705.258	7215
1707.417	7215
1709.576	7201
1711.736	7126
1713.896	7205
1716.053	7187
1718.21	7163
1720.366	7169
1722.522	7179
1724.68	7265
1726.835	7312
1728.989	7184
1731.142	7178
1733.295	7183
1735.449	7141
1737.601	7056
1739.753	7271
1741.903	7294
1744.054	7278
1746.203	7177
1748.354	7210
1750.503	7304
1752.651	7238
1754.798	7322
1756.944	7263
1759.092	7262
1761.238	7193
1763.383	7280
1765.528	7276
1767.672	7365
1769.814	7206
1771.959	7171
1774.102	7249
1776.242	7179
1778.384	7258
1780.525	7314
1782.665	7424
1784.805	7300
1786.945	7226
1789.082	7280
1791.22	7172
1793.36	7304
1795.495	7394
1797.632	7296
1799.766	7374
1801.902	7253
1804.035	7334
1806.172	7279
1808.304	7428
1810.436	7401
1812.569	7300
1814.699	7419
1816.833	7195
1818.963	7242
1821.092	7320
1823.222	7246
1825.35	7322
1827.478	7313
1829.608	7290
1831.734	7141
1833.86	7349
1835.986	7265
1838.11	7262
1840.238	7310
1842.362	7232
1844.485	7306
1846.608	7217
1848.73	7164
1850.853	7238
1852.974	7156
1855.097	7129
1857.217	7184
1859.336	7211
1861.455	7237
1863.576	7141
1865.693	7282
1867.811	7119
1869.926	7241
1872.042	7198
1874.16	7221
1876.275	7235
1878.39	7190
1880.504	7228
1882.618	7099
1884.731	7200
1886.843	7369
1888.956	7235
1891.067	7176
1893.178	7109
1895.287	7276
1897.399	7177
1899.508	7273
1901.617	7303
1903.724	7075
1905.832	7351
1907.941	7340
1910.046	7343
1912.152	7426
1914.256	7301
1916.361	7267
1918.464	7180
1920.57	7306
1922.672	7307
1924.775	7319
1926.876	7251
1928.978	7368
1931.08	7145
1933.181	7390
1935.28	7285
1937.38	7317
1939.478	7326
1941.577	7404
1943.675	7386
1945.771	7223
1947.867	7342
1949.964	7317
1952.058	7273
1954.154	7212
1956.248	7287
1958.343	7234
1960.435	7355
1962.527	7353
1964.62	7338
1966.711	7304
1968.802	7243
1970.892	7252
1972.983	7304
1975.072	7354
1977.162	7219
1979.25	7270
1981.337	7188
1983.424	7286
1985.51	7334
1987.598	7262
1989.683	7263
1991.768	7230
1993.852	7184
1995.934	7180
1998.019	7176
2000.102	7253
2002.184	7336
2004.266	7355
2006.347	7214
2008.427	7226
2010.508	7216
2012.587	7167
2014.666	7186
2016.745	7209
2018.821	7326
2020.9	7226
2022.977	7227
2025.052	7262
2027.128	7350
2029.204	7214
2031.277	7220
2033.353	7169
2035.425	7195
2037.499	7089
2039.57	7240
2041.642	7166
2043.714	7243
2045.786	7242
2047.855	7248
2049.925	7382
2051.993	7252
2054.064	7151
2056.132	7301
2058.2	7252
2060.266	7240
2062.332	7175
2064.398	7186
2066.465	7157
2068.529	7226
2070.592	7094
2072.657	7324
2074.719	7123
2076.783	7307
2078.845	7308
2080.907	7297
2082.968	7234
2085.028	7226
2087.087	7337
2089.148	7155
2091.207	7257
2093.264	7290
2095.322	7321
2097.379	7237
2099.439	7167
2101.495	7142
2103.55	7284
2105.605	7196
2107.658	7252
2109.713	7291
2111.767	7291
2113.82	7196
2115.872	7162
2117.924	7280
2119.975	7226
2122.028	7212
2124.078	7295
2126.126	7243
2128.176	7194
2130.225	7249
2132.275	7109
2134.321	7324
2136.368	7159
2138.415	7288
2140.461	7320
2142.505	7244
2144.552	7212
2146.597	7208
2148.64	7162
2150.684	7243
2152.725	7092
2154.77	7081
2156.811	7223
2158.852	7334
2160.894	7276
2162.933	7082
2164.973	7153
2167.013	7202
2169.051	7086
2171.089	7190
2173.126	7173
2175.164	7047
2177.201	7118
2179.236	7181
2181.273	7254
2183.307	7138
2185.341	7120
2187.377	7146
2189.41	7043
2191.442	7085
2193.473	7195
2195.506	7114
2197.539	7154
2199.569	7057
2201.598	7098
2203.628	7041
2205.656	7111
2207.686	7110
2209.716	7181
2211.743	7075
2213.769	7089
2215.796	6887
2217.821	6967
2219.848	7023
2221.873	6994
2223.897	6958
2225.921	7056
2227.944	6980
2229.967	7012
2231.991	6902
2234.011	7129
2236.032	6981
2238.053	6894
2240.073	6939
2242.094	7053
2244.114	7063
2246.131	6966
2248.149	6989
2250.167	6977
2252.186	6858
2254.201	6997
2256.218	6884
2258.233	7055
2260.247	7095
2262.262	7002
2264.278	6948
2266.29	6955
2268.303	7029
2270.315	6976
2272.327	6935
2274.341	6948
2276.35	6937
2278.361	7015
2280.37	7063
2282.38	6959
2284.388	6899
2286.397	6930
2288.405	7091
2290.412	7021
2292.419	6978
2294.425	6872
2296.431	6998
2298.437	6996
2300.441	7017
2302.445	6896
2304.449	6914
2306.453	6911
2308.455	6959
2310.457	6831
2312.459	6946
2314.46	6984
2316.46	6908
2318.461	7038
2320.46	6957
2322.458	6757
2324.458	6904
2326.456	6910
2328.455	6878
2330.451	6916
2332.447	6849
2334.443	6920
2336.438	6704
2338.433	6821
2340.429	6942
2342.422	6857
2344.416	6896
2346.408	6826
2348.399	6806
2350.393	6811
2352.384	6796
2354.375	6891
2356.365	6844
2358.355	6731
2360.344	6808
2362.333	6707
2364.322	6738
2366.309	6745
2368.295	6827
2370.282	6673
2372.27	6798
2374.256	6952
2376.24	6833
2378.225	6755
2380.208	6724
2382.194	6792
2384.177	6846
2386.159	6803
2388.142	6732
2390.122	6740
2392.105	6757
2394.085	6535
2396.066	6709
2398.044	6811
2400.024	6676
2402.002	6675
2403.982	6606
2405.959	6755
2407.935	6715
2409.913	6686
2411.888	6617
2413.865	6630
2415.84	6741
2417.814	6666
2419.788	6788
2421.762	6691
2423.735	6702
2425.708	6666
2427.68	6636
2429.651	6719
2431.623	6732
2433.593	6622
2435.564	6639
2437.533	6615
2439.502	6639
2441.47	6560
2443.438	6712
2445.406	6646
2447.373	6544
2449.34	6681
2451.305	6566
2453.271	6728
2455.235	6675
2457.201	6670
2459.165	6689
2461.129	6739
2463.092	6637
2465.054	6660
2467.018	6674
2468.978	6704
2470.939	6574
2472.899	6486
2474.86	6652
2476.819	6675
2478.778	6479
2480.737	6593
2482.695	6604
2484.653	6645
2486.609	6585
2488.567	6604
2490.524	6628
2492.478	6552
2494.433	6655
2496.387	6651
2498.343	6419
2500.297	6562
2502.249	6422
2504.202	6498
2506.153	6580
2508.105	6445
2510.057	6491
2512.008	6504
2513.957	6585
2515.906	6484
2517.855	6606
2519.805	6430
2521.754	6555
2523.7	6488
2525.647	6472
2527.594	6506
2529.54	6521
2531.486	6482
2533.431	6496
2535.376	6437
2537.32	6450
2539.263	6446
2541.207	6563
2543.151	6652
2545.093	6606
2547.034	6501
2548.975	6503
2550.917	6494
2552.856	6579
2554.796	6441
2556.735	6446
2558.673	6418
2560.611	6488
2562.55	6507
2564.487	6519
2566.424	6512
2568.36	6483
2570.296	6449
2572.232	6557
2574.167	6474
2576.101	6539
2578.035	6551
2579.969	6545
2581.902	6509
2583.834	6468
2585.766	6540
2587.698	6519
2589.628	6551
2591.557	6432
2593.489	6631
2595.419	6531
2597.348	6429
2599.275	6446
2601.204	6474
2603.131	6405
2605.059	6601
2606.986	6588
2608.911	6558
2610.837	6578
2612.76	6362
2614.687	6485
2616.61	6505
2618.534	6547
2620.457	6406
2622.38	6392
2624.302	6526
2626.225	6490
2628.145	6488
2630.067	6623
2631.986	6497
2633.906	6594
2635.827	6501
2637.745	6517
2639.662	6389
2641.581	6482
2643.498	6580
2645.415	6558
2647.331	6457
2649.248	6532
2651.163	6459
2653.077	6469
2654.993	6496
2656.906	6538
2658.821	6642
2660.733	6419
2662.646	6350
2664.557	6524
2666.47	6458
2668.381	6475
2670.291	6441
2672.201	6561
2674.11	6417
2676.021	6367
2677.929	6452
2679.837	6434
2681.745	6283
2683.652	6313
2685.56	6340
2687.466	6319
2689.371	6466
2691.276	6411
2693.181	6494
2695.085	6441
2696.991	6335
2698.893	6323
2700.796	6319
2702.698	6377
2704.601	6322
2706.502	6261
2708.404	6366
2710.304	6414
2712.203	6311
2714.103	6199
2716.003	6328
2717.902	6186
2719.8	6282
2721.697	6332
2723.594	6313
2725.49	6336
2727.389	6341
2729.283	6383
2731.179	6330
2733.073	6319
2734.968	6270
2736.863	6275
2738.757	6324
2740.649	6365
2742.541	6311
2744.433	6339
2746.324	6328
2748.216	6301
2750.107	6232
2751.997	6259
2753.886	6231
2755.776	6215
2757.666	6293
2759.553	6173
2761.44	6234
2763.327	6262
2765.215	6267
2767.102	6233
2768.988	6276
2770.873	6372
2772.757	6234
2774.641	6294
2776.525	6223
2778.41	6283
2780.292	6212
2782.175	6211
2784.057	6231
2785.938	6320
2787.821	6200
2789.701	6211
2791.581	6184
2793.461	6139
2795.34	6212
2797.219	6366
2799.099	6297
2800.975	6095
2802.853	5996
2804.73	6128
2806.606	6172
2808.484	6166
2810.358	6129
2812.233	6236
2814.108	6208
2815.981	6200
2817.857	6174
2819.73	6195
2821.602	6110
2823.474	6101
2825.346	6122
2827.217	6090
2829.089	6129
2830.959	6168
2832.829	6125
2834.698	6171
2836.567	6189
2838.436	6209
2840.305	6250
2842.172	6223
2844.04	6289
2845.905	6138
2847.772	6145
2849.639	6187
2851.503	6038
2853.369	6191
2855.232	6196
2857.096	6098
2858.961	6247
2860.824	6147
2862.686	6174
2864.547	6165
2866.41	6131
2868.272	6308
2870.132	6301
2871.992	6266
2873.851	6350
2875.711	6300
2877.57	6342
2879.429	6393
2881.287	6411
2883.144	6288
2885.001	6427
2886.857	6531
2888.714	6444
2890.57	6481
2892.425	6471
2894.279	6417
2896.133	6476
2897.987	6382
2899.842	6415
2901.694	6425
2903.547	6439
2905.397	6452
2907.249	6455
2909.101	6444
2910.952	6473
2912.802	6428
2914.652	6476
2916.5	6482
2918.35	6701
2920.198	6688
2922.045	6674
2923.893	6675
2925.74	6699
2927.585	6700
2929.433	6804
2931.279	6827
2933.123	6918
2934.968	6921
2936.811	7014
2938.656	6995
2940.5	6911
2942.342	7022
2944.185	7040
2946.026	7048
2947.87	7054
2949.71	7060
2951.549	7171
2953.39	7107
2955.229	6841
2957.069	6978
2958.908	6861
2960.746	6881
2962.584	6781
2964.421	6631
2966.257	6697
2968.094	6755
2969.931	6656
2971.766	6586
2973.601	6477
2975.435	6612
2977.27	6512
2979.105	6382
2980.938	6541
2982.77	6453
2984.602	6436
2986.434	6421
2988.267	6352
2990.097	6373
2991.927	6224
2993.757	6279
2995.587	6259
2997.417	6264
2999.246	6289
3001.074	6198
3002.902	6162
3004.729	6182
3006.556	6063
3008.384	6003
3010.21	6037
3012.036	6054
3013.861	6023
3015.684	5996
3017.51	5848
3019.334	5955
3021.157	5968
3022.981	5968
3024.802	5856
3026.624	5795
3028.448	5748
3030.267	5873
3032.088	5701
3033.909	5776
3035.728	5847
3037.549	5895
3039.368	5767
3041.186	5774
3043.004	5736
3044.821	5705
3046.64	5725
3048.455	5698
3050.272	5717
3052.087	5713
3053.903	5754
3055.717	5678
3057.534	5777
3059.347	5717
3061.16	5647
3062.974	5648
3064.785	5717
3066.598	5611
3068.411	5725
3070.222	5740
3072.032	5720
3073.844	5659
3075.653	5636
3077.463	5682
3079.272	5633
3081.08	5668
3082.889	5748
3084.697	5601
3086.505	5585
3088.312	5612
3090.118	5605
3091.924	5536
3093.729	5592
3095.535	5544
3097.34	5655
3099.144	5520
3100.947	5624
3102.75	5570
3104.553	5494
3106.357	5564
3108.159	5443
3109.961	5500
3111.762	5458
3113.562	5504
3115.365	5497
3117.164	5474
3118.964	5495
3120.761	5405
3122.56	5410
3124.36	5450
3126.158	5496
3127.954	5497
3129.75	5415
3131.547	5413
3133.343	5397
3135.139	5425
3136.934	5355
3138.729	5381
3140.522	5462
3142.317	5439
3144.11	5371
3145.904	5363
3147.695	5414
3149.488	5436
3151.28	5340
3153.07	5348
3154.863	5330
3156.652	5299
3158.441	5272
3160.231	5423
3162.019	5228
3163.81	5250
3165.597	5346
3167.384	5389
3169.172	5430
3170.958	5360
3172.745	5341
3174.532	5340
3176.317	5417
3178.101	5330
3179.885	5347
3181.67	5309
3183.455	5408
3185.238	5259
3187.02	5211
3188.802	5231
3190.585	5391
3192.368	5355
3194.149	5325
3195.929	5348
3197.709	5255
3199.489	5271
3201.268	5318
3203.048	5356
3204.826	5254
3206.604	5171
3208.382	5293
3210.159	5259
3211.937	5257
3213.713	5231
3215.489	5373
3217.263	5166
3219.038	5329
3220.815	5333
3222.589	5223
3224.363	5184
3226.136	5219
3227.908	5355
3229.681	5254
3231.454	5261
3233.226	5262
3234.996	5213
3236.767	5318
3238.538	5182
3240.308	5259
3242.078	5237
3243.847	5223
3245.615	5321
3247.384	5257
3249.15	5294
3250.92	5167
3252.686	5231
3254.453	5201
3256.218	5171
3257.984	5258
3259.75	5200
3261.515	5180
3263.279	5268
3265.044	5205
3266.806	5179
3268.57	5221
3270.334	5308
3272.095	5244
3273.856	5200
3275.619	5165
3277.379	5184
3279.14	5184
3280.9	5204
3282.661	5198
3284.419	5299
3286.178	5247
3287.937	5188
3289.695	5192
3291.453	5128
3293.21	5086
3294.967	5100
3296.723	5134
3298.48	5223
3300.235	5124
3301.99	5271
3303.744	5280
3305.498	5149
3307.253	5063
3309.006	5214
3310.759	5285
3312.511	5320
3314.263	5334
3316.017	5180
3317.768	5194
3319.519	5206
3321.268	5149
3323.018	5102
3324.767	5261
3326.518	5087
3328.267	5167
3330.014	5187
3331.762	5007
3333.509	5226
3335.258	5232
3337.003	5230
3338.75	5145
3340.496	5249
3342.24	5078
3343.987	5124
3345.732	5146
3347.475	5053
3349.219	5141
3350.961	5193
3352.705	5143
3354.448	5092
3356.19	5033
3357.931	5065
3359.672	5103
3361.412	5091
3363.155	5105
3364.894	5039
3366.633	4980
3368.372	5044
3370.11	5122
3371.849	5100
3373.588	5090
3375.325	5132
3377.061	5036
3378.799	5060
3380.534	5007
3382.271	4953
3384.006	5108
3385.741	4948
3387.475	4985
3389.209	5039
3390.944	5034
3392.677	4995
3394.409	4944
3396.143	4943
3397.874	4997
3399.606	4996
3401.338	4927
3403.069	4948
3404.799	4967
3406.528	5027
3408.258	5040
3409.988	4957
3411.717	4941
3413.445	4944
3415.173	4982
3416.899	4938
3418.626	4894
3420.354	4951
3422.08	4946
3423.806	4875
3425.531	4998
3427.255	4939
3428.981	5055
3430.705	4949
3432.429	4977
3434.151	4922
3435.875	4821
3437.599	4916
3439.321	4851
3441.042	4822
3442.763	4815
3444.483	4860
3446.204	4791
3447.926	4854
3449.645	4831
3451.364	4876
3453.082	4887
3454.801	4804
3456.52	4830
3458.238	4881
3459.954	4885
3461.671	4777
3463.387	4776
3465.104	4800
3466.82	4796
3468.534	4710
3470.25	4795
3471.963	4776
3473.676	4822
3475.392	4750
3477.104	4834
3478.817	4724
3480.528	4678
3482.241	4674
3483.954	4799
3485.664	4702
3487.374	4618
3489.084	4696
3490.795	4612
3492.504	4645
3494.214	4737
3495.922	4633
3497.63	4696
3499.338	4744
3501.045	4583
3502.753	4631
3504.459	4600
3506.166	4683
3507.871	4733
3509.576	4640
3511.283	4567
3512.987	4550
3514.691	4700
3516.395	4718
3518.098	4697
3519.8	4591
3521.504	4568
3523.206	4651
3524.908	4595
3526.609	4568
3528.309	4648
3530.011	4581
3531.711	4600
3533.411	4532
3535.109	4571
3536.808	4473
3538.507	4566
3540.206	4593
3541.904	4618
3543.601	4523
3545.297	4610
3546.994	4566
3548.69	4575
3550.387	4526
3552.081	4452
3553.776	4481
3555.47	4509
3557.166	4393
3558.859	4469
3560.553	4529
3562.245	4502
3563.938	4484
3565.629	4564
3567.322	4469
3569.014	4455
3570.704	4441
3572.394	4470
3574.084	4493
3575.775	4560
3577.464	4437
3579.152	4453
3580.842	4447
3582.529	4470
3584.216	4398
3585.905	4478
3587.591	4413
3589.279	4405
3590.964	4399
3592.649	4365
3594.336	4437
3596.021	4374
3597.705	4425
3599.388	4433
3601.072	4398
3602.757	4387
3604.439	4294
3606.122	4349
3607.803	4332
3609.485	4332
3611.167	4271
3612.849	4339
3614.529	4278
3616.208	4297
3617.888	4294
3619.567	4225
3621.247	4231
3622.926	4248
3624.603	4339
3626.281	4286
3627.958	4286
3629.635	4245
3631.312	4254
3632.989	4258
3634.665	4330
3636.339	4139
3638.014	4319
3639.691	4181
3641.364	4265
3643.038	4266
3644.71	4133
3646.384	4126
3648.058	4240
3649.729	4200
3651.402	4198
3653.073	4083
3654.744	4157
3656.414	4168
3658.085	4178
3659.755	4192
3661.424	4278
3663.094	4092
3664.762	4128
3666.431	4258
3668.099	4154
3669.766	4097
3671.433	4199
3673.099	4055
3674.768	4058
3676.433	4095
3678.098	4160
3679.763	4133
3681.428	4107
3683.093	4101
3684.757	4082
3686.421	4169
3688.083	4082
3689.746	4043
3691.408	4001
3693.071	4135
3694.733	4158
3696.394	4029
3698.054	4051
3699.715	4053
3701.375	4092
3703.036	4069
3704.695	4094
3706.354	4062
3708.012	4088
3709.67	4028
3711.329	4108
3712.987	4077
3714.644	4035
3716.299	4113
3717.955	4013
3719.613	4033
3721.268	4071
3722.923	3978
3724.577	4092
3726.231	4072
3727.885	4007
3729.539	4086
3731.192	4076
3732.845	4131
3734.497	4019
3736.149	3987
3737.802	4032
3739.453	3987
3741.104	3974
3742.753	3958
3744.404	3949
3746.052	3966
3747.704	3977
3749.352	3954
3751	3963
3752.648	3935
3754.296	3910
3755.944	3899
3757.59	3998
3759.238	4008
3760.883	3903
3762.528	4006
3764.176	3905
3765.82	3892
3767.464	3909
3769.109	3918
3770.753	3933
3772.396	3863
3774.04	3906
3775.683	3842
3777.325	4008
3778.967	3923
3780.608	3985
3782.25	3877
3783.89	3790
3785.531	3815
3787.17	3779
3788.81	3821
3790.45	3810
3792.09	3919
3793.729	3795
3795.366	3806
3797.003	3869
3798.64	3835
3800.278	3819
3801.915	3865
3803.551	3870
3805.187	3877
3806.822	3838
3808.458	3867
3810.093	3805
3811.726	3835
3813.36	3854
3814.994	3843
3816.627	3790
3818.262	3796
3819.893	3816
3821.525	3798
3823.157	3821
3824.787	3765
3826.42	3638
3828.051	3792
3829.68	3781
3831.31	3774
3832.938	3783
3834.569	3711
3836.198	3789
3837.825	3789
3839.454	3691
3841.08	3778
3842.708	3717
3844.335	3703
3845.962	3803
3847.587	3766
3849.212	3742
3850.838	3733
3852.463	3706
3854.089	3694
3855.712	3699
3857.335	3693
3858.959	3767
3860.582	3665
3862.205	3675
3863.827	3634
3865.449	3764
3867.07	3664
3868.691	3654
3870.312	3685
3871.933	3736
3873.553	3646
3875.173	3679
3876.792	3666
3878.411	3698
3880.03	3672
3881.647	3610
3883.265	3701
3884.882	3707
3886.499	3648
3888.116	3637
3889.732	3648
3891.348	3735
3892.964	3677
3894.579	3729
3896.195	3716
3897.809	3615
3899.423	3642
3901.036	3658
3902.648	3639
3904.261	3635
3905.875	3596
3907.487	3609
3909.099	3578
3910.709	3572
3912.321	3622
3913.933	3610
3915.542	3572
3917.152	3604
3918.762	3625
3920.37	3595
3921.98	3591
3923.589	3628
3925.196	3620
3926.804	3597
3928.41	3657
3930.018	3640
3931.626	3610
3933.231	3526
3934.838	3566
3936.442	3536
3938.046	3567
3939.653	3570
3941.257	3564
3942.861	3518
3944.464	3584
3946.068	3600
3947.67	3487
3949.273	3558
3950.876	3600
3952.477	3479
3954.078	3523
3955.678	3608
3957.281	3540
3958.881	3535
3960.48	3499
3962.079	3483
3963.678	3522
3965.279	3556
3966.877	3541
3968.475	3548
3970.072	3457
3971.669	3477
3973.266	3509
3974.864	3524
3976.459	3508
3978.055	3462
3979.65	3495
3981.245	3471
3982.841	3486
3984.436	3430
3986.03	3496
3987.623	3412
3989.216	3393
3990.809	3500
3992.403	3377
3993.995	3419
3995.586	3493
3997.177	3333
3998.768	3424
4000.361	3392
4001.951	3512
4003.54	3367
4005.13	3434
4006.719	3365
4008.31	3421
4009.897	3450
4011.485	3423
4013.073	3418
4014.66	3337
4016.247	3339
4017.834	3353
4019.421	3322
4021.006	3398
4022.592	3335
4024.178	3399
4025.763	3351
4027.348	3331
4028.932	3348
4030.515	3305
4032.099	3388
4033.682	3364
4035.266	3281
4036.847	3254
4038.429	3313
4040.011	3250
4041.592	3337
4043.173	3281
4044.755	3300
4046.334	3289
4047.913	3299
4049.494	3337
4051.074	3263
4052.652	3249
4054.23	3279
4055.807	3209
4057.385	3286
4058.963	3305
4060.541	3281
4062.117	3251
4063.693	3244
4065.269	3253
4066.844	3241
4068.42	3179
4069.995	3275
4071.569	3199
4073.143	3227
4074.716	3176
4076.291	3237
4077.864	3158
4079.436	3212
4081.009	3242
4082.58	3186
4084.152	3201
4085.723	3215
4087.294	3214
4088.865	3212
4090.435	3208
4092.005	3169
4093.574	3156
4095.143	3245
4096.712	3227
4098.279	3281
4099.848	3196
4101.416	3148
4102.984	3164
4104.55	3135
4106.117	3193
4107.682	3204
4109.248	3139
4110.815	3125
4112.379	3131
4113.945	3191
4115.508	3231
4117.073	3161
4118.637	3178
4120.201	3069
4121.763	3103
4123.325	3176
4124.888	3092
4126.449	3087
4128.013	3118
4129.573	3053
4131.133	3168
4132.694	3147
4134.254	3093
4135.814	3105
4137.374	3111
4138.933	3105
4140.491	3140
4142.049	3064
4143.607	3115
4145.167	3054
4146.724	3098
4148.28	3060
4149.836	3072
4151.392	3068
4152.949	3101
4154.504	3149
4156.059	3031
4157.614	3039
4159.168	3053
4160.723	3029
4162.277	2999
4163.83	3060
4165.383	2954
4166.936	2995
4168.488	2946
4170.041	3009
4171.593	3030
4173.144	3056
4174.695	2978
4176.246	2996
4177.796	2997
4179.346	2975
4180.896	3004
4182.445	3020
4183.994	2957
4185.542	2981
4187.091	2989
4188.639	3014
4190.185	2986
4191.732	2916
4193.279	2994
4194.826	2909
4196.373	2973
4197.918	2940
4199.463	2977
4201.008	2943
4202.553	2931
4204.098	2924
4205.641	3011
4207.185	2964
4208.728	2916
4210.271	2916
4211.814	2914
4213.357	2888
4214.898	2948
4216.439	2882
4217.98	2905
4219.522	2996
4221.062	2862
4222.603	2965
4224.142	2919
4225.681	2918
4227.222	2944
4228.76	2888
4230.298	2898
4231.835	2891
4233.373	2859
4234.911	2798
4236.449	2957
4237.985	2917
4239.521	2886
4241.057	2906
4242.592	2898
4244.128	2884
4245.663	2941
4247.197	2869
4248.731	2833
4250.265	2897
4251.798	2853
4253.333	2854
4254.865	2878
4256.397	2748
4257.93	2860
4259.461	2876
4260.994	2870
4262.525	2830
4264.056	2842
4265.586	2891
4267.115	2818
4268.646	2740
4270.176	2830
4271.705	2798
4273.232	2832
4274.761	2792
4276.289	2858
4277.818	2793
4279.345	2790
4280.872	2800
4282.399	2858
4283.924	2821
4285.452	2838
4286.976	2737
4288.502	2709
4290.026	2823
4291.551	2769
4293.074	2853
4294.6	2829
4296.123	2775
4297.646	2753
4299.168	2782
4300.691	2789
4302.214	2812
4303.736	2766
4305.257	2777
4306.778	2764
4308.299	2785
4309.82	2723
4311.34	2728
4312.86	2705
4314.379	2773
