400.0745	5768
402.597	5787
405.1208	5754
407.6419	5811
410.1623	5784
412.6819	5821
415.201	5863
417.7172	5897
420.2369	6038
422.7538	6006
425.2701	6046
427.7856	6170
430.3005	6219
432.8147	6190
435.3282	6238
437.841	6274
440.3511	6101
442.8625	6230
445.3753	6282
447.8854	6129
450.3927	6158
452.9014	6251
455.4073	6128
457.9146	6211
460.4233	6191
462.9272	6195
465.4325	6210
467.935	6152
470.4389	6228
472.9421	6235
475.4446	6195
477.9444	6185
480.4456	6215
482.944	6261
485.4417	6255
487.9429	6362
490.4393	6289
492.935	6291
495.4321	6383
497.9264	6280
500.4221	6356
502.9171	6287
505.4094	6303
507.9011	6267
510.392	6265
512.8864	6310
515.3759	6304
517.8649	6447
520.3531	6484
522.8406	6438
525.3275	6348
527.8178	6353
530.3033	6531
532.7881	6442
535.2723	6463
537.7558	6496
540.2407	6409
542.7228	6450
545.2043	6356
547.6851	6501
550.1652	6447
552.6467	6402
555.1255	6466
557.6016	6515
560.079	6534
562.5557	6562
565.0318	6523
567.5092	6643
569.984	6569
572.456	6579
574.9294	6646
577.4022	6910
579.8762	6757
582.3456	6630
584.8163	6890
587.2863	6687
589.7557	6804
592.2224	6803
594.6924	6794
597.1578	6702
599.6245	6768
602.0905	6695
604.5538	6697
607.0206	6700
609.4825	6748
611.9459	6829
614.4066	6683
616.8686	6596
619.33	6664
621.7906	6679
624.2487	6641
626.708	6649
629.1647	6701
631.6207	6642
634.0801	6723
636.5348	6695
638.9888	6642
641.4442	6642
643.8969	6690
646.3509	6657
648.8022	6691
651.255	6749
653.705	6659
656.1544	6715
658.6031	6815
661.0532	6830
663.5026	6817
665.9493	6829
668.3954	6833
670.8409	6877
673.2877	6906
675.7318	6840
678.1752	6866
680.618	6926
683.0601	6647
685.5035	6806
687.9444	6853
690.3845	6867
692.824	6752
695.2628	6952
697.701	6955
700.1406	6883
702.5774	6938
705.0116	6968
707.4472	6891
709.8821	6998
712.3183	6940
714.7519	7113
717.1829	7035
719.6151	7041
722.0468	7047
724.4777	7102
726.908	7015
729.3377	7012
731.7667	7072
734.1931	7122
736.6208	7234
739.0498	7191
741.4742	7192
743.9	7219
746.3231	7310
748.7476	7262
751.1713	7453
753.5945	7296
756.015	7360
758.4368	7309
760.856	7287
763.2766	7403
765.6965	7344
768.1157	7375
770.5323	7406
772.9483	7414
775.3656	7322
777.7822	7329
780.1963	7497
782.6116	7516
785.0244	7389
787.4365	7454
789.8499	7482
792.2626	7343
794.6728	7437
797.0823	7613
799.4911	7479
801.8994	7388
804.3109	7508
806.7178	7593
809.124	7509
811.5297	7590
813.9347	7455
816.341	7536
818.7447	7446
821.1478	7527
823.5502	7441
825.952	7609
828.3531	7662
830.7556	7567
833.1554	7519
835.5546	7556
837.9532	7509
840.3511	7472
842.7504	7583
845.1451	7542
847.5411	7531
849.9365	7617
852.3312	7722
854.7272	7718
857.1187	7761
859.5115	7659
861.9037	7645
864.2952	7724
866.6842	7601
869.0764	7713
871.4661	7638
873.8531	7648
876.2415	7697
878.6272	7572
881.0162	7639
883.4026	7643
885.7866	7623
888.1717	7801
890.5543	7678
892.9382	7544
895.3215	7604
897.7041	7636
900.0842	7592
902.4655	7614
904.8443	7670
907.2244	7668
909.6039	7705
911.9808	7714
914.357	7854
916.7346	7766
919.1115	7892
921.4859	8022
923.8616	7906
926.2347	8016
928.6071	8055
930.979	7885
933.3541	8056
935.7247	8062
938.0946	8171
940.4639	8076
942.8326	8324
945.2026	8478
947.5701	8513
949.9369	8655
952.305	9094
954.6705	9298
957.0355	9754
959.4017	10277
961.7654	10358
964.1284	10279
966.4908	9932
968.8527	9560
971.2138	9035
973.5743	8765
975.9343	8479
978.2936	8235
980.6522	8145
983.0122	8001
985.3696	8011
987.7245	7938
990.0807	8013
992.4362	7950
994.7911	7997
997.1474	7850
999.4991	7931
1001.852	7919
1004.205	8062
1006.555	7913
1008.908	8006
1011.258	7891
1013.606	8015
1015.956	8089
1018.302	7918
1020.652	7988
1022.998	8041
1025.345	8041
1027.691	8174
1030.035	8083
1032.378	8081
1034.724	7995
1037.066	8100
1039.409	8104
1041.75	8063
1044.092	8095
1046.433	8074
1048.771	8089
1051.112	8264
1053.449	8046
1055.786	8141
1058.124	8257
1060.462	8022
1062.797	8125
1065.131	8176
1067.467	8260
1069.8	8275
1072.135	8345
1074.467	8205
1076.798	8322
1079.129	8286
1081.459	8214
1083.792	8248
1086.121	8204
1088.449	8076
1090.777	8080
1093.104	8137
1095.431	8005
1097.759	8111
1100.084	8079
1102.408	8165
1104.732	8098
1107.056	8055
1109.379	8109
1111.701	8204
1114.022	8015
1116.343	8113
1118.664	8021
1120.983	8011
1123.303	8204
1125.621	8021
1127.939	8115
1130.256	8170
1132.573	8038
1134.889	8106
1137.205	8010
1139.52	8066
1141.832	8155
1144.146	8042
1146.461	8175
1148.771	7998
1151.083	8059
1153.392	8142
1155.703	8121
1158.011	8139
1160.323	8201
1162.629	8065
1164.938	8068
1167.243	8140
1169.55	8148
1171.857	8150
1174.163	8185
1176.466	8033
1178.769	8074
1181.073	8118
1183.374	8097
1185.677	8146
1187.979	8114
1190.279	8027
1192.578	8092
1194.878	8206
1197.178	8174
1199.476	8073
1201.772	8267
1204.068	8120
1206.366	8047
1208.663	8157
1210.957	7960
1213.251	8135
1215.544	8136
1217.836	8108
1220.128	8158
1222.421	8133
1224.712	8092
1227.002	8265
1229.292	8157
1231.581	8348
1233.871	8259
1236.159	8395
1238.446	8320
1240.732	8404
1243.018	8411
1245.304	8409
1247.59	8367
1249.874	8227
1252.156	8387
1254.439	8460
1256.721	8346
1259.005	8303
1261.286	8492
1263.565	8474
1265.845	8568
1268.125	8423
1270.403	8382
1272.682	8308
1274.959	8313
1277.234	8443
1279.511	8427
1281.787	8500
1284.062	8428
1286.337	8268
1288.609	8401
1290.882	8193
1293.153	8300
1295.428	8169
1297.698	8436
1299.969	8237
1302.237	8263
1304.507	8170
1306.777	8249
1309.044	8283
1311.312	8279
1313.578	8327
1315.844	8209
1318.109	8172
1320.375	8245
1322.638	8272
1324.903	8272
1327.165	8320
1329.427	8155
1331.69	8292
1333.952	8222
1336.212	8176
1338.471	8317
1340.73	8304
1342.988	8148
1345.248	8377
1347.505	8291
1349.763	8164
1352.019	8280
1354.274	8261
1356.53	8292
1358.784	8149
1361.038	8231
1363.291	8297
1365.543	8249
1367.797	8114
1370.048	8156
1372.296	8217
1374.546	8188
1376.796	8446
1379.045	8281
1381.295	8374
1383.542	8384
1385.787	8311
1388.034	8297
1390.28	8340
1392.527	8370
1394.772	8276
1397.014	8202
1399.258	8392
1401.501	8381
1403.741	8351
1405.985	8388
1408.226	8269
1410.465	8368
1412.705	8461
1414.943	8331
1417.184	8409
1419.42	8495
1421.658	8499
1423.894	8438
1426.13	8562
1428.366	8602
1430.602	8535
1432.835	8605
1435.069	8424
1437.301	8417
1439.535	8470
1441.767	8689
1443.997	8446
1446.229	8562
1448.458	8593
1450.687	8596
1452.916	8599
1455.146	8692
1457.372	8711
1459.599	8729
1461.824	8641
1464.051	8620
1466.277	8619
1468.501	8457
1470.725	8526
1472.948	8542
1475.17	8380
1477.393	8526
1479.614	8389
1481.837	8344
1484.057	8405
1486.276	8347
1488.497	8280
1490.715	8282
1492.932	8323
1495.148	8233
1497.364	8264
1499.58	8245
1501.798	8308
1504.012	8258
1506.227	8247
1508.44	8158
1510.653	8218
1512.866	8166
1515.078	8107
1517.289	8236
1519.5	8172
1521.711	8126
1523.92	8184
1526.13	8296
1528.338	8029
1530.544	8098
1532.752	8120
1534.959	8244
1537.165	8328
1539.371	8341
1541.574	8319
1543.779	8334
1545.983	8104
1548.187	8148
1550.39	8246
1552.59	8350
1554.792	8348
1556.991	8218
1559.19	8198
1561.392	8392
1563.59	8222
1565.789	8244
1567.986	8383
1570.182	8413
1572.381	8195
1574.576	8483
1576.771	8297
1578.966	8383
1581.16	8377
1583.354	8434
1585.546	8498
1587.74	8484
1589.931	8489
1592.121	8447
1594.311	8485
1596.502	8458
1598.693	8513
1600.881	8396
1603.069	8498
1605.256	8494
1607.445	8474
1609.631	8520
1611.816	8402
1614.001	8526
1616.186	8649
1618.37	8578
1620.555	8484
1622.737	8539
1624.919	8578
1627.101	8376
1629.282	8767
1631.463	8537
1633.643	8651
1635.822	8519
1638.001	8603
1640.179	8546
1642.359	8673
1644.534	8603
1646.711	8626
1648.887	8671
1651.062	8677
1653.235	8534
1655.412	8609
1657.586	8501
1659.757	8750
1661.93	8635
1664.1	8671
1666.274	8662
1668.445	8715
1670.614	8793
1672.784	8692
1674.951	8666
1677.12	8621
1679.289	8645
1681.457	8766
1683.622	8672
1685.789	8685
1687.953	8540
1690.121	8570
1692.284	8470
1694.447	8661
1696.611	8473
1698.772	8550
1700.935	8445
1703.098	8523
1705.258	8381
1707.417	8384
1709.576	8323
1711.736	8382
1713.896	8459
1716.053	8550
1718.21	8542
1720.366	8315
1722.522	8445
1724.68	8492
1726.835	8362
1728.989	8407
1731.142	8414
1733.295	8335
1735.449	8428
1737.601	8314
1739.753	8493
1741.903	8391
1744.054	8383
1746.203	8404
1748.354	8490
1750.503	8470
1752.651	8265
1754.798	8446
1756.944	8453
1759.092	8382
1761.238	8421
1763.383	8377
1765.528	8448
1767.672	8417
1769.814	8376
1771.959	8455
1774.102	8456
1776.242	8556
1778.384	8439
1780.525	8345
1782.665	8514
1784.805	8637
1786.945	8436
1789.082	8358
1791.22	8553
1793.36	8461
1795.495	8452
1797.632	8521
1799.766	8434
1801.902	8488
1804.035	8504
1806.172	8494
1808.304	8481
1810.436	8560
1812.569	8328
1814.699	8589
1816.833	8487
1818.963	8561
1821.092	8421
1823.222	8468
1825.35	8414
1827.478	8347
1829.608	8599
1831.734	8303
1833.86	8510
1835.986	8433
1838.11	8340
1840.238	8417
1842.362	8451
1844.485	8372
1846.608	8453
1848.73	8504
1850.853	8226
1852.974	8258
1855.097	8421
1857.217	8394
1859.336	8382
1861.455	8364
1863.576	8394
1865.693	8339
1867.811	8386
1869.926	8406
1872.042	8316
1874.16	8337
1876.275	8377
1878.39	8275
1880.504	8315
1882.618	8433
1884.731	8345
1886.843	8454
1888.956	8372
1891.067	8358
1893.178	8422
1895.287	8447
1897.399	8451
1899.508	8482
1901.617	8445
1903.724	8426
1905.832	8409
1907.941	8417
1910.046	8508
1912.152	8418
1914.256	8463
1916.361	8382
1918.464	8434
1920.57	8402
1922.672	8486
1924.775	8481
1926.876	8462
1928.978	8512
1931.08	8423
1933.181	8412
1935.28	8401
1937.38	8412
1939.478	8536
1941.577	8594
1943.675	8370
1945.771	8320
1947.867	8387
1949.964	8563
1952.058	8492
1954.154	8414
1956.248	8493
1958.343	8520
1960.435	8533
1962.527	8383
1964.62	8552
1966.711	8462
1968.802	8489
1970.892	8431
1972.983	8468
1975.072	8512
1977.162	8511
1979.25	8457
1981.337	8390
1983.424	8451
1985.51	8425
1987.598	8334
1989.683	8494
1991.768	8344
1993.852	8553
1995.934	8407
1998.019	8446
2000.102	8355
2002.184	8398
2004.266	8379
2006.347	8354
2008.427	8387
2010.508	8247
2012.587	8495
2014.666	8406
2016.745	8242
2018.821	8270
2020.9	8380
2022.977	8317
2025.052	8371
2027.128	8217
2029.204	8373
2031.277	8323
2033.353	8364
2035.425	8238
2037.499	8231
2039.57	8286
2041.642	8373
2043.714	8317
2045.786	8278
2047.855	8307
2049.925	8395
2051.993	8372
2054.064	8410
2056.132	8546
2058.2	8391
2060.266	8371
2062.332	8311
2064.398	8322
2066.465	8267
2068.529	8403
2070.592	8356
2072.657	8438
2074.719	8474
2076.783	8348
2078.845	8486
2080.907	8499
2082.968	8469
2085.028	8420
2087.087	8360
2089.148	8363
2091.207	8376
2093.264	8334
2095.322	8326
2097.379	8314
2099.439	8386
2101.495	8339
2103.55	8278
2105.605	8312
2107.658	8380
2109.713	8375
2111.767	8290
2113.82	8536
2115.872	8410
2117.924	8300
2119.975	8537
2122.028	8310
2124.078	8394
2126.126	8446
2128.176	8384
2130.225	8436
2132.275	8329
2134.321	8312
2136.368	8361
2138.415	8268
2140.461	8427
2142.505	8332
2144.552	8224
2146.597	8238
2148.64	8270
2150.684	8314
2152.725	8198
2154.77	8282
2156.811	8224
2158.852	8250
2160.894	8306
2162.933	8155
2164.973	8261
2167.013	8273
2169.051	8168
2171.089	8138
2173.126	8237
2175.164	8408
2177.201	8181
2179.236	8251
2181.273	8278
2183.307	8196
2185.341	8104
2187.377	8264
2189.41	8197
2191.442	8217
2193.473	8222
2195.506	8109
2197.539	8240
2199.569	8146
2201.598	7987
2203.628	8060
2205.656	8047
2207.686	8095
2209.716	8128
2211.743	8129
2213.769	7987
2215.796	8144
2217.821	8025
2219.848	8052
2221.873	8087
2223.897	8107
2225.921	8143
2227.944	8133
2229.967	8149
2231.991	7979
2234.011	8163
2236.032	8069
2238.053	8007
2240.073	8041
2242.094	8094
2244.114	8114
2246.131	8038
2248.149	8052
2250.167	8077
2252.186	7951
2254.201	8031
2256.218	8116
2258.233	8188
2260.247	8010
2262.262	8066
2264.278	8021
2266.29	8033
2268.303	8095
2270.315	8008
2272.327	7966
2274.341	8167
2276.35	8065
2278.361	7970
2280.37	7980
2282.38	8144
2284.388	8122
2286.397	8056
2288.405	7967
2290.412	8102
2292.419	8114
2294.425	8059
2296.431	8199
2298.437	8026
2300.441	8050
2302.445	8058
2304.449	8007
2306.453	8195
2308.455	8019
2310.457	7924
2312.459	8058
2314.46	8002
2316.46	8097
2318.461	8007
2320.46	7967
2322.458	8021
2324.458	7942
2326.456	7937
2328.455	7997
2330.451	7978
2332.447	8013
2334.443	7878
2336.438	8067
2338.433	8009
2340.429	7945
2342.422	7824
2344.416	7894
2346.408	8074
2348.399	7829
2350.393	7866
2352.384	7964
2354.375	7809
2356.365	7911
2358.355	7904
2360.344	7933
2362.333	7867
2364.322	7877
2366.309	7718
2368.295	7894
2370.282	7954
2372.27	7895
2374.256	7737
2376.24	7897
2378.225	7830
2380.208	7696
2382.194	7833
2384.177	7780
2386.159	7783
2388.142	7776
2390.122	7801
2392.105	7721
2394.085	7778
2396.066	7767
2398.044	7596
2400.024	7740
2402.002	7871
2403.982	7830
2405.959	7673
2407.935	7856
2409.913	7793
2411.888	7735
2413.865	7761
2415.84	7761
2417.814	7833
2419.788	7792
2421.762	7846
2423.735	7765
2425.708	7835
2427.68	7652
2429.651	7791
2431.623	7698
2433.593	7835
2435.564	7640
2437.533	7690
2439.502	7782
2441.47	7665
2443.438	7758
2445.406	7756
2447.373	7739
2449.34	7719
2451.305	7762
2453.271	7685
2455.235	7742
2457.201	7722
2459.165	7707
2461.129	7713
2463.092	7738
2465.054	7659
2467.018	7641
2468.978	7717
2470.939	7629
2472.899	7734
2474.86	7583
2476.819	7591
2478.778	7568
2480.737	7801
2482.695	7522
2484.653	7758
2486.609	7570
2488.567	7633
2490.524	7574
2492.478	7613
2494.433	7707
2496.387	7530
2498.343	7577
2500.297	7606
2502.249	7539
2504.202	7578
2506.153	7522
2508.105	7568
2510.057	7405
2512.008	7512
2513.957	7559
2515.906	7494
2517.855	7553
2519.805	7656
2521.754	7597
2523.7	7451
2525.647	7508
2527.594	7493
2529.54	7507
2531.486	7423
2533.431	7599
2535.376	7501
2537.32	7504
2539.263	7337
2541.207	7473
2543.151	7430
2545.093	7420
2547.034	7594
2548.975	7553
2550.917	7467
2552.856	7347
2554.796	7539
2556.735	7501
2558.673	7479
2560.611	7576
2562.55	7420
2564.487	7587
2566.424	7610
2568.36	7489
2570.296	7581
2572.232	7515
2574.167	7528
2576.101	7557
2578.035	7513
2579.969	7460
2581.902	7566
2583.834	7616
2585.766	7653
2587.698	7437
2589.628	7621
2591.557	7365
2593.489	7423
2595.419	7404
2597.348	7342
2599.275	7590
2601.204	7469
2603.131	7470
2605.059	7494
2606.986	7450
2608.911	7490
2610.837	7473
2612.76	7469
2614.687	7556
2616.61	7480
2618.534	7646
2620.457	7517
2622.38	7619
2624.302	7611
2626.225	7504
2628.145	7525
2630.067	7526
2631.986	7459
2633.906	7607
2635.827	7455
2637.745	7598
2639.662	7626
2641.581	7363
2643.498	7669
2645.415	7547
2647.331	7498
2649.248	7469
2651.163	7502
2653.077	7484
2654.993	7434
2656.906	7467
2658.821	7464
2660.733	7427
2662.646	7503
2664.557	7486
2666.47	7541
2668.381	7482
2670.291	7374
2672.201	7515
2674.11	7365
2676.021	7432
2677.929	7419
2679.837	7418
2681.745	7391
2683.652	7376
2685.56	7383
2687.466	7433
2689.371	7401
2691.276	7429
2693.181	7429
2695.085	7430
2696.991	7282
2698.893	7381
2700.796	7320
2702.698	7474
2704.601	7314
2706.502	7396
2708.404	7256
2710.304	7410
2712.203	7242
2714.103	7290
2716.003	7287
2717.902	7296
2719.8	7391
2721.697	7351
2723.594	7211
2725.49	7396
2727.389	7285
2729.283	7329
2731.179	7365
2733.073	7311
2734.968	7346
2736.863	7203
2738.757	7242
2740.649	7238
2742.541	7226
2744.433	7248
2746.324	7382
2748.216	7351
2750.107	7314
2751.997	7344
2753.886	7160
2755.776	7250
2757.666	7298
2759.553	7197
2761.44	7251
2763.327	7253
2765.215	7154
2767.102	7282
2768.988	7155
2770.873	7299
2772.757	7235
2774.641	7245
2776.525	7202
2778.41	7137
2780.292	7143
2782.175	7108
2784.057	7265
2785.938	7107
2787.821	7253
2789.701	7165
2791.581	7116
2793.461	7150
2795.34	7057
2797.219	7308
2799.099	7242
2800.975	7274
2802.853	7143
2804.73	7035
2806.606	7172
2808.484	7241
2810.358	7131
2812.233	7163
2814.108	7116
2815.981	7159
2817.857	7226
2819.73	7108
2821.602	7221
2823.474	7001
2825.346	7108
2827.217	7226
2829.089	7228
2830.959	7057
2832.829	7128
2834.698	7118
2836.567	7123
2838.436	7192
2840.305	7085
2842.172	7097
2844.04	7102
2845.905	7255
2847.772	7218
2849.639	7147
2851.503	7217
2853.369	7250
2855.232	7291
2857.096	7171
2858.961	7244
2860.824	7210
2862.686	7355
2864.547	7249
2866.41	7348
2868.272	7391
2870.132	7291
2871.992	7483
2873.851	7569
2875.711	7537
2877.57	7585
2879.429	7488
2881.287	7731
2883.144	7755
2885.001	7746
2886.857	7649
2888.714	7782
2890.57	7797
2892.425	7739
2894.279	7725
2896.133	7670
2897.987	7656
2899.842	7678
2901.694	7596
2903.547	7624
2905.397	7649
2907.249	7664
2909.101	7708
2910.952	7762
2912.802	7812
2914.652	7839
2916.5	7784
2918.35	8012
2920.198	7980
2922.045	8133
2923.893	8159
2925.74	8185
2927.585	8276
2929.433	8359
2931.279	8438
2933.123	8489
2934.968	8476
2936.811	8637
2938.656	8811
2940.5	8660
2942.342	8759
2944.185	8842
2946.026	8859
2947.87	8983
2949.71	8761
2951.549	8698
2953.39	8656
2955.229	8610
2957.069	8472
2958.908	8337
2960.746	8446
2962.584	8265
2964.421	8172
2966.257	8134
2968.094	8059
2969.931	8011
2971.766	7958
2973.601	7926
2975.435	7789
2977.27	7807
2979.105	7892
2980.938	7921
2982.77	7851
2984.602	7698
2986.434	7842
2988.267	7868
2990.097	7665
2991.927	7712
2993.757	7785
2995.587	7604
2997.417	7626
2999.246	7470
3001.074	7436
3002.902	7503
3004.729	7256
3006.556	7225
3008.384	7221
3010.21	7197
3012.036	7158
3013.861	7036
3015.684	7010
3017.51	7006
3019.334	6898
3021.157	6958
3022.981	6850
3024.802	6883
3026.624	6852
3028.448	6781
3030.267	6737
3032.088	6806
3033.909	6876
3035.728	6740
3037.549	6776
3039.368	6725
3041.186	6855
3043.004	6668
3044.821	6734
3046.64	6731
3048.455	6732
3050.272	6703
3052.087	6592
3053.903	6610
3055.717	6586
3057.534	6622
3059.347	6761
3061.16	6755
3062.974	6698
3064.785	6624
3066.598	6669
3068.411	6826
3070.222	6738
3072.032	6578
3073.844	6628
3075.653	6591
3077.463	6694
3079.272	6486
3081.08	6561
3082.889	6483
3084.697	6507
3086.505	6537
3088.312	6423
3090.118	6648
3091.924	6545
3093.729	6467
3095.535	6611
3097.34	6482
3099.144	6550
3100.947	6575
3102.75	6464
3104.553	6415
3106.357	6488
3108.159	6445
3109.961	6471
3111.762	6383
3113.562	6377
3115.365	6392
3117.164	6405
3118.964	6422
3120.761	6360
3122.56	6367
3124.36	6320
3126.158	6382
3127.954	6334
3129.75	6304
3131.547	6184
3133.343	6277
3135.139	6386
3136.934	6262
3138.729	6358
3140.522	6263
3142.317	6305
3144.11	6314
3145.904	6315
3147.695	6126
3149.488	6318
3151.28	6223
3153.07	6259
3154.863	6311
3156.652	6200
3158.441	6157
3160.231	6402
3162.019	6195
3163.81	6234
3165.597	6165
3167.384	6254
3169.172	6250
3170.958	6292
3172.745	6225
3174.532	6210
3176.317	6170
3178.101	6086
3179.885	6225
3181.67	6277
3183.455	6171
3185.238	6164
3187.02	6294
3188.802	6257
3190.585	6252
3192.368	6258
3194.149	6131
3195.929	6190
3197.709	6156
3199.489	6271
3201.268	6162
3203.048	6209
3204.826	6133
3206.604	6060
3208.382	6220
3210.159	6201
3211.937	6239
3213.713	6089
3215.489	6152
3217.263	6118
3219.038	6259
3220.815	6187
3222.589	6172
3224.363	6184
3226.136	6125
3227.908	6159
3229.681	6186
3231.454	6104
3233.226	6178
3234.996	6231
3236.767	6140
3238.538	6153
3240.308	6267
3242.078	6211
3243.847	6135
3245.615	6079
3247.384	6138
3249.15	6199
3250.92	6140
3252.686	6131
3254.453	6172
3256.218	6198
3257.984	6033
3259.75	6307
3261.515	6256
3263.279	6186
3265.044	6044
3266.806	6186
3268.57	6108
3270.334	6126
3272.095	6167
3273.856	6173
3275.619	6168
3277.379	6197
3279.14	6158
3280.9	6093
3282.661	6129
3284.419	6148
3286.178	6145
3287.937	6021
3289.695	6177
3291.453	6132
3293.21	6230
3294.967	6197
3296.723	6197
3298.48	6072
3300.235	6066
3301.99	6275
3303.744	6083
3305.498	6104
3307.253	6093
3309.006	6145
3310.759	6178
3312.511	6092
3314.263	6124
3316.017	6136
3317.768	6233
3319.519	6216
3321.268	6157
3323.018	6021
3324.767	6236
3326.518	6173
3328.267	6054
3330.014	6179
3331.762	6182
3333.509	6076
3335.258	6184
3337.003	6027
3338.75	6096
3340.496	6093
3342.24	6038
3343.987	6076
3345.732	6091
3347.475	6026
3349.219	6155
3350.961	6048
3352.705	6057
3354.448	6110
3356.19	5962
3357.931	6123
3359.672	6038
3361.412	6071
3363.155	5977
3364.894	6121
3366.633	6021
3368.372	6018
3370.11	6089
3371.849	6043
3373.588	5966
3375.325	5972
3377.061	5973
3378.799	5916
3380.534	6012
3382.271	5882
3384.006	5959
3385.741	5973
3387.475	5873
3389.209	6029
3390.944	6059
3392.677	5905
3394.409	5885
3396.143	5851
3397.874	5875
3399.606	5827
3401.338	5936
3403.069	5863
3404.799	5957
3406.528	5912
3408.258	5803
3409.988	5806
3411.717	5843
3413.445	5905
3415.173	5774
3416.899	5807
3418.626	5889
3420.354	5852
3422.08	5773
3423.806	5808
3425.531	5860
3427.255	5760
3428.981	5913
3430.705	5763
3432.429	5760
3434.151	5742
3435.875	5809
3437.599	5747
3439.321	5818
3441.042	5758
3442.763	5807
3444.483	5761
3446.204	5710
3447.926	5828
3449.645	5726
3451.364	5705
3453.082	5634
3454.801	5745
3456.52	5633
3458.238	5693
3459.954	5724
3461.671	5803
3463.387	5703
3465.104	5642
3466.82	5641
3468.534	5608
3470.25	5606
3471.963	5584
3473.676	5613
3475.392	5711
3477.104	5675
3478.817	5591
3480.528	5554
3482.241	5503
3483.954	5541
3485.664	5597
3487.374	5522
3489.084	5620
3490.795	5503
3492.504	5705
3494.214	5516
3495.922	5534
3497.63	5509
3499.338	5521
3501.045	5428
3502.753	5427
3504.459	5330
3506.166	5566
3507.871	5532
3509.576	5430
3511.283	5432
3512.987	5332
3514.691	5513
3516.395	5457
3518.098	5319
3519.8	5488
3521.504	5327
3523.206	5356
3524.908	5427
3526.609	5345
3528.309	5349
3530.011	5300
3531.711	5342
3533.411	5393
3535.109	5355
3536.808	5319
3538.507	5347
3540.206	5389
3541.904	5261
3543.601	5279
3545.297	5178
3546.994	5333
3548.69	5294
3550.387	5262
3552.081	5239
3553.776	5313
3555.47	5278
3557.166	5187
3558.859	5215
3560.553	5223
3562.245	5255
3563.938	5253
3565.629	5146
3567.322	5244
3569.014	5147
3570.704	5158
3572.394	5152
3574.084	5196
3575.775	5189
3577.464	5220
3579.152	5154
3580.842	5139
3582.529	5197
3584.216	5095
3585.905	5164
3587.591	5078
3589.279	5059
3590.964	5109
3592.649	5142
3594.336	5084
3596.021	5044
3597.705	5117
3599.388	5090
3601.072	5005
3602.757	5043
3604.439	5106
3606.122	5065
3607.803	5078
3609.485	5017
3611.167	5012
3612.849	5052
3614.529	4969
3616.208	5013
3617.888	4943
3619.567	4930
3621.247	4943
3622.926	4946
3624.603	4878
3626.281	4910
3627.958	4975
3629.635	4884
3631.312	4898
3632.989	4905
3634.665	4947
3636.339	4922
3638.014	4895
3639.691	4896
3641.364	4816
3643.038	4932
3644.71	4825
3646.384	4872
3648.058	4837
3649.729	4880
3651.402	4886
3653.073	4836
3654.744	4792
3656.414	4919
3658.085	4702
3659.755	4857
3661.424	4771
3663.094	4824
3664.762	4714
3666.431	4772
3668.099	4730
3669.766	4818
3671.433	4796
3673.099	4709
3674.768	4826
3676.433	4780
3678.098	4720
3679.763	4756
3681.428	4662
3683.093	4640
3684.757	4730
3686.421	4739
3688.083	4596
3689.746	4767
3691.408	4693
3693.071	4672
3694.733	4696
3696.394	4694
3698.054	4726
3699.715	4695
3701.375	4655
3703.036	4665
3704.695	4642
3706.354	4679
3708.012	4730
3709.67	4665
3711.329	4613
3712.987	4700
3714.644	4592
3716.299	4723
3717.955	4617
3719.613	4683
3721.268	4688
3722.923	4669
3724.577	4666
3726.231	4665
3727.885	4570
3729.539	4508
3731.192	4590
3732.845	4535
3734.497	4627
3736.149	4631
3737.802	4700
3739.453	4575
3741.104	4523
3742.753	4427
3744.404	4629
3746.052	4525
3747.704	4584
3749.352	4578
3751	4573
3752.648	4507
3754.296	4587
3755.944	4446
3757.59	4494
3759.238	4558
3760.883	4637
3762.528	4519
3764.176	4578
3765.82	4539
3767.464	4572
3769.109	4514
3770.753	4521
3772.396	4485
3774.04	4483
3775.683	4446
3777.325	4468
3778.967	4464
3780.608	4418
3782.25	4424
3783.89	4388
3785.531	4452
3787.17	4414
3788.81	4466
3790.45	4420
3792.09	4467
3793.729	4408
3795.366	4464
3797.003	4336
3798.64	4473
3800.278	4394
3801.915	4450
3803.551	4368
3805.187	4286
3806.822	4501
3808.458	4356
3810.093	4314
3811.726	4363
3813.36	4413
3814.994	4333
3816.627	4427
3818.262	4443
3819.893	4389
3821.525	4354
3823.157	4441
3824.787	4345
3826.42	4348
3828.051	4322
3829.68	4357
3831.31	4333
3832.938	4357
3834.569	4232
3836.198	4284
3837.825	4370
3839.454	4255
3841.08	4349
3842.708	4320
3844.335	4325
3845.962	4275
3847.587	4224
3849.212	4230
3850.838	4290
3852.463	4413
3854.089	4231
3855.712	4285
3857.335	4259
3858.959	4238
3860.582	4337
3862.205	4285
3863.827	4309
3865.449	4233
3867.07	4247
3868.691	4267
3870.312	4191
3871.933	4257
3873.553	4172
3875.173	4201
3876.792	4220
3878.411	4192
3880.03	4246
3881.647	4118
3883.265	4275
3884.882	4191
3886.499	4133
3888.116	4144
3889.732	4211
3891.348	4154
3892.964	4091
3894.579	4135
3896.195	4201
3897.809	4210
3899.423	4097
3901.036	4140
3902.648	4173
3904.261	4254
3905.875	4175
3907.487	4121
3909.099	4088
3910.709	4126
3912.321	4166
3913.933	4227
3915.542	4185
3917.152	4170
3918.762	4146
3920.37	4173
3921.98	4247
3923.589	4122
3925.196	4163
3926.804	4164
3928.41	4126
3930.018	4054
3931.626	4152
3933.231	4136
3934.838	4106
3936.442	4041
3938.046	4050
3939.653	4116
3941.257	4069
3942.861	4158
3944.464	4010
3946.068	4076
3947.67	4064
3949.273	4044
3950.876	4127
3952.477	4094
3954.078	4007
3955.678	3987
3957.281	4102
3958.881	4062
3960.48	4034
3962.079	3995
3963.678	3995
3965.279	4101
3966.877	4077
3968.475	3998
3970.072	4106
3971.669	3991
3973.266	3958
3974.864	3981
3976.459	4021
3978.055	3983
3979.65	3965
3981.245	4026
3982.841	3974
3984.436	3910
3986.03	3819
3987.623	4024
3989.216	3976
3990.809	3966
3992.403	3867
3993.995	3929
3995.586	3881
3997.177	3907
3998.768	3938
4000.361	3943
4001.951	3907
4003.54	3913
4005.13	3920
4006.719	3938
4008.31	3867
4009.897	3916
4011.485	3875
4013.073	3817
4014.66	3872
4016.247	3802
4017.834	3822
4019.421	3859
4021.006	3876
4022.592	3853
4024.178	3806
4025.763	3762
4027.348	3779
4028.932	3801
4030.515	3787
4032.099	3788
4033.682	3879
4035.266	3787
4036.847	3802
4038.429	3772
4040.011	3758
4041.592	3727
4043.173	3710
4044.755	3746
4046.334	3826
4047.913	3705
4049.494	3758
4051.074	3728
4052.652	3743
4054.23	3717
4055.807	3845
4057.385	3729
4058.963	3728
4060.541	3689
4062.117	3762
4063.693	3757
4065.269	3731
4066.844	3739
4068.42	3669
4069.995	3773
4071.569	3693
4073.143	3693
4074.716	3723
4076.291	3772
4077.864	3659
4079.436	3714
4081.009	3727
4082.58	3699
4084.152	3634
4085.723	3694
4087.294	3709
4088.865	3677
4090.435	3654
4092.005	3669
4093.574	3650
4095.143	3587
4096.712	3588
4098.279	3605
4099.848	3695
4101.416	3711
4102.984	3575
4104.55	3607
4106.117	3687
4107.682	3580
4109.248	3590
4110.815	3614
4112.379	3667
4113.945	3582
4115.508	3630
4117.073	3588
4118.637	3632
4120.201	3563
4121.763	3601
4123.325	3612
4124.888	3469
4126.449	3536
4128.013	3591
4129.573	3639
4131.133	3550
4132.694	3597
4134.254	3535
4135.814	3556
4137.374	3513
4138.933	3471
4140.491	3613
4142.049	3629
4143.607	3551
4145.167	3526
4146.724	3490
4148.28	3615
4149.836	3508
4151.392	3557
4152.949	3437
4154.504	3575
4156.059	3570
4157.614	3495
4159.168	3567
4160.723	3477
4162.277	3499
4163.83	3422
4165.383	3476
4166.936	3483
4168.488	3425
4170.041	3470
4171.593	3412
4173.144	3409
4174.695	3411
4176.246	3443
4177.796	3455
4179.346	3398
4180.896	3384
4182.445	3416
4183.994	3413
4185.542	3481
4187.091	3360
4188.639	3379
4190.185	3409
4191.732	3411
4193.279	3394
4194.826	3422
4196.373	3439
4197.918	3349
4199.463	3364
4201.008	3365
4202.553	3375
4204.098	3333
4205.641	3358
4207.185	3490
4208.728	3364
4210.271	3372
4211.814	3379
4213.357	3372
4214.898	3336
4216.439	3350
4217.98	3343
4219.522	3379
4221.062	3392
4222.603	3381
4224.142	3311
4225.681	3274
4227.222	3319
4228.76	3299
4230.298	3320
4231.835	3307
4233.373	3371
4234.911	3306
4236.449	3336
4237.985	3339
4239.521	3319
4241.057	3323
4242.592	3269
4244.128	3347
4245.663	3233
4247.197	3267
4248.731	3338
4250.265	3291
4251.798	3225
4253.333	3288
4254.865	3293
4256.397	3288
4257.93	3327
4259.461	3234
4260.994	3277
4262.525	3269
4264.056	3318
4265.586	3185
4267.115	3283
4268.646	3299
4270.176	3287
4271.705	3301
4273.232	3235
4274.761	3277
4276.289	3219
4277.818	3223
4279.345	3262
4280.872	3187
4282.399	3202
4283.924	3210
4285.452	3184
4286.976	3192
4288.502	3125
4290.026	3128
4291.551	3239
4293.074	3210
4294.6	3237
4296.123	3119
4297.646	3218
4299.168	3173
4300.691	3198
4302.214	3209
4303.736	3165
4305.257	3187
4306.778	3201
4308.299	3136
4309.82	3073
4311.34	3183
4312.86	3103
4314.379	3119
