200.151048	21887.333333
201.758777	21759.000000
203.365815	21774.666667
204.972162	21626.666667
206.577820	21681.000000
208.182787	21592.333333
209.787065	21588.666667
211.390653	21562.666667
212.993553	21458.000000
214.595765	21422.666667
216.197289	21363.333333
217.798125	21329.000000
219.398274	21309.000000
220.997737	21282.666667
222.596513	21429.333333
224.194603	21277.666667
225.792008	21260.333333
227.388728	21164.333333
228.984763	21133.333333
230.580114	21218.000000
232.174781	21104.333333
233.768765	21021.000000
235.362065	21072.666667
236.954683	21033.666667
238.546619	20948.333333
240.137872	20955.666667
241.728445	20957.333333
243.318336	20863.333333
244.907546	20884.333333
246.496076	20760.666667
248.083926	20704.666667
249.671097	20574.000000
251.257589	20638.000000
252.843402	20395.666667
254.428536	20481.333333
256.012993	20418.333333
257.596772	20445.000000
259.179874	20505.333333
260.762300	20452.666667
262.344049	20287.000000
263.925122	20235.000000
265.505519	20290.333333
267.085241	20164.000000
268.664289	20228.666667
270.242662	20214.666667
271.820361	20263.000000
273.397387	20122.666667
274.973740	20177.666667
276.549419	20356.666667
278.124426	20110.666667
279.698762	20244.000000
281.272425	20180.666667
282.845417	20296.000000
284.417739	20216.666667
285.989390	20318.333333
287.560371	20179.666667
289.130682	20354.666667
290.700324	20340.333333
292.269297	20232.666667
293.837602	20207.333333
295.405238	20188.333333
296.972207	20137.000000
298.538508	20229.000000
300.104142	20095.333333
301.669110	20064.333333
303.233411	20045.000000
304.797047	20029.666667
306.360017	19781.666667
307.922322	19785.333333
309.483963	19877.000000
311.044939	19716.666667
312.605252	19741.666667
314.164900	19595.666667
315.723886	19499.666667
317.282209	19580.333333
318.839870	19425.000000
320.396868	19389.333333
321.953205	19383.666667
323.508881	19188.333333
325.063896	19293.000000
326.618251	19277.666667
328.171945	19235.333333
329.724980	19211.333333
331.277356	19246.333333
332.829072	19239.666667
334.380131	19240.000000
335.930530	19184.666667
337.480273	19188.000000
339.029357	19164.333333
340.577785	19246.666667
342.125556	19045.666667
343.672671	19266.333333
345.219130	19058.000000
346.764933	19133.333333
348.310081	19044.000000
349.854575	19091.666667
351.398414	19068.666667
352.941599	18895.666667
354.484130	19129.333333
356.026008	19032.333333
357.567234	18887.000000
359.107807	18866.333333
360.647727	18847.333333
362.186996	18752.333333
363.725614	18866.666667
365.263580	18703.666667
366.800896	18719.666667
368.337562	18715.333333
369.873578	18615.000000
371.408944	18708.000000
372.943661	18652.000000
374.477730	18688.333333
376.011150	18770.666667
377.543922	18690.666667
379.076046	18791.333333
380.607523	18670.333333
382.138353	18588.000000
383.668537	18649.666667
385.198075	18742.333333
386.726966	18668.666667
388.255213	18714.000000
389.782814	18752.333333
391.309770	18714.333333
392.836083	18678.000000
394.361751	18662.666667
395.886776	18777.333333
397.411157	18813.333333
398.934896	18823.666667
400.457992	18815.000000
401.980446	18830.000000
403.502258	18828.333333
405.023429	18753.000000
406.543959	18952.333333
408.063849	18741.666667
409.583098	19059.333333
411.101707	19000.000000
412.619677	19066.666667
414.137007	19077.666667
415.653699	19142.000000
417.169752	19312.000000
418.685167	19402.000000
420.199945	19543.666667
421.714085	19600.000000
423.227588	19672.666667
424.740454	19826.333333
426.252684	20053.333333
427.764279	20019.000000
429.275238	19932.000000
430.785561	19822.333333
432.295250	19820.666667
433.804304	19714.666667
435.312725	19588.666667
436.820511	19478.000000
438.327664	19385.666667
439.834185	19295.000000
441.340072	19165.333333
442.845327	19110.000000
444.349951	19046.666667
445.853942	19035.666667
447.357303	19008.333333
448.860033	18895.666667
450.362132	18853.666667
451.863601	18660.333333
453.364440	18619.000000
454.864650	18511.666667
456.364231	18338.000000
457.863183	18299.666667
459.361507	18270.666667
460.859203	18081.000000
462.356271	18000.000000
463.852712	18006.333333
465.348526	17921.666667
466.843714	17879.666667
468.338275	17610.000000
469.832210	17688.333333
471.325520	17683.666667
472.818205	17657.666667
474.310265	17443.333333
475.801700	17537.000000
477.292512	17379.666667
478.782700	17600.333333
480.272264	17508.000000
481.761205	17396.666667
483.249524	17399.333333
484.737221	17376.666667
486.224295	17228.666667
487.710748	17186.333333
489.196579	17211.666667
490.681790	17188.000000
492.166380	17192.333333
493.650350	17186.333333
495.133700	17248.666667
496.616431	17126.333333
498.098542	17118.666667
499.580035	17177.000000
501.060909	17074.666667
502.541165	16999.666667
504.020804	17127.000000
505.499825	16983.333333
506.978228	16979.000000
508.456016	16948.000000
509.933186	16861.333333
511.409741	16756.666667
512.885680	16824.333333
514.361004	16762.666667
515.835713	16837.666667
517.309807	16908.000000
518.783287	16821.000000
520.256153	16872.000000
521.728406	16713.000000
523.200045	16721.333333
524.671071	16847.666667
526.141485	16794.666667
527.611287	16771.333333
529.080476	16834.000000
530.549054	16827.333333
532.017021	16805.333333
533.484378	16840.000000
534.951123	16806.666667
536.417259	16778.000000
537.882785	16739.000000
539.347701	16712.666667
540.812008	16606.333333
542.275707	16614.000000
543.738797	16642.000000
545.201279	16657.333333
546.663153	16624.666667
548.124420	16644.333333
549.585080	16690.333333
551.045133	16726.333333
552.504579	16816.333333
553.963420	16772.000000
555.421655	16832.333333
556.879285	16815.333333
558.336309	16822.000000
559.792729	16935.666667
561.248545	16816.333333
562.703756	16929.333333
564.158364	16953.333333
565.612369	16917.333333
567.065770	16923.666667
568.518569	16923.000000
569.970766	16984.000000
571.422361	17097.666667
572.873354	17171.000000
574.323745	17279.000000
575.773536	17364.666667
577.222726	17375.000000
578.671316	17498.000000
580.119306	17419.333333
581.566696	17364.000000
583.013487	17417.333333
584.459679	17276.000000
585.905273	17215.666667
587.350268	17338.666667
588.794665	17187.000000
590.238465	17295.666667
591.681667	17118.666667
593.124272	17090.333333
594.566281	16952.666667
596.007694	16839.666667
597.448510	16703.666667
598.888731	16654.666667
600.328357	16648.666667
601.767388	16434.333333
603.205824	16460.333333
604.643666	16535.000000
606.080914	16361.666667
607.517568	16432.000000
608.953629	16391.000000
610.389097	16424.000000
611.823972	16328.333333
613.258255	16326.000000
614.691946	16188.333333
616.125046	16137.000000
617.557554	16056.000000
618.989471	15979.000000
620.420798	15993.666667
621.851534	15802.333333
623.281680	15782.333333
624.711237	15723.333333
626.140204	15597.333333
627.568582	15659.000000
628.996372	15572.000000
630.423573	15504.000000
631.850186	15482.666667
633.276211	15426.666667
634.701650	15491.666667
636.126501	15555.000000
637.550765	15446.666667
638.974443	15354.333333
640.397535	15458.000000
641.820041	15352.000000
643.241961	15336.666667
644.663297	15336.333333
646.084048	15293.666667
647.504214	15278.666667
648.923796	15166.000000
650.342795	15255.666667
651.761210	15199.333333
653.179041	15153.333333
654.596290	15070.333333
656.012957	15109.333333
657.429041	15069.333333
658.844543	15164.333333
660.259464	15046.333333
661.673804	15133.333333
663.087563	14988.000000
664.500741	14981.000000
665.913339	15097.333333
667.325357	15091.666667
668.736795	14994.666667
670.147654	15002.333333
671.557934	15032.333333
672.967636	14986.666667
674.376759	14851.000000
675.785304	14959.000000
677.193271	14891.666667
678.600661	14946.000000
680.007474	14832.666667
681.413711	14909.666667
682.819370	14887.000000
684.224454	14801.666667
685.628962	14840.000000
687.032895	14883.666667
688.436252	14859.666667
689.839034	14877.666667
691.241242	14823.000000
692.642876	14809.000000
694.043936	14666.333333
695.444422	14763.333333
696.844336	14743.000000
698.243676	14648.333333
699.642443	14607.000000
701.040639	14656.000000
702.438262	14581.000000
703.835313	14637.000000
705.231794	14710.000000
706.627703	14670.000000
708.023041	14571.000000
709.417810	14492.000000
710.812008	14622.333333
712.205636	14594.666667
713.598694	14612.000000
714.991184	14533.333333
716.383105	14515.666667
717.774457	14430.000000
719.165241	14385.666667
720.555457	14451.666667
721.945105	14551.333333
723.334187	14492.000000
724.722701	14403.666667
726.110648	14401.333333
727.498030	14486.666667
728.884845	14332.333333
730.271094	14444.000000
731.656778	14400.000000
733.041897	14349.000000
734.426451	14319.000000
735.810441	14291.333333
737.193866	14387.000000
738.576728	14361.333333
739.959026	14285.666667
741.340760	14333.000000
742.721932	14358.333333
744.102541	14281.666667
745.482588	14236.333333
746.862073	14236.333333
748.240996	14293.333333
749.619358	14181.333333
750.997158	14227.666667
752.374398	14245.666667
753.751077	14286.666667
755.127197	14223.666667
756.502756	14332.333333
757.877756	14199.666667
759.252196	14249.666667
760.626078	14136.666667
761.999400	14214.000000
763.372165	14183.333333
764.744371	14103.666667
766.116020	14111.000000
767.487111	14093.666667
768.857646	14092.333333
770.227623	14035.333333
771.597044	13995.666667
772.965908	13988.000000
774.334217	13973.333333
775.701970	13909.333333
777.069168	13820.000000
778.435811	13898.333333
779.801899	13824.333333
781.167433	13817.333333
782.532412	13817.666667
783.896838	13790.000000
785.260710	13864.666667
786.624029	13761.333333
787.986796	13714.666667
789.349009	13831.000000
790.710671	13722.000000
792.071780	13733.333333
793.432338	13623.333333
794.792344	13646.666667
796.151799	13617.666667
797.510704	13681.666667
798.869058	13604.000000
800.226862	13487.666667
801.584116	13518.666667
802.940820	13420.000000
804.296975	13583.000000
805.652581	13550.333333
807.007638	13516.333333
808.362147	13630.333333
809.716108	13656.666667
811.069521	13674.666667
812.422387	13636.666667
813.774705	13640.666667
815.126476	13593.333333
816.477701	13630.000000
817.828380	13562.000000
819.178512	13599.000000
820.528099	13512.333333
821.877140	13479.333333
823.225637	13414.333333
824.573588	13446.666667
825.920995	13376.666667
827.267857	13466.666667
828.614176	13413.000000
829.959951	13358.333333
831.305183	13383.333333
832.649871	13407.000000
833.994017	13413.000000
835.337620	13290.333333
836.680681	13349.000000
838.023201	13370.333333
839.365178	13394.333333
840.706614	13391.666667
842.047510	13414.000000
843.387864	13456.333333
844.727678	13408.666667
846.066952	13429.000000
847.405687	13461.666667
848.743881	13403.666667
850.081537	13524.000000
851.418653	13640.000000
852.755231	13521.000000
854.091270	13492.666667
855.426771	13581.000000
856.761735	13550.333333
858.096160	13393.333333
859.430049	13479.000000
860.763401	13433.000000
862.096216	13298.000000
863.428495	13302.000000
864.760237	13321.000000
866.091444	13315.666667
867.422115	13323.333333
868.752252	13185.000000
870.081853	13193.333333
871.410919	13187.666667
872.739452	13213.666667
874.067450	13154.666667
875.394914	13185.666667
876.721845	13134.333333
878.048243	13103.333333
879.374108	12999.666667
880.699440	12991.000000
882.024240	13056.333333
883.348508	12980.000000
884.672244	12949.333333
885.995449	12924.333333
887.318122	12891.333333
888.640265	12917.333333
889.961877	12814.000000
891.282959	12848.000000
892.603510	12838.000000
893.923532	12752.333333
895.243024	12789.666667
896.561987	12754.333333
897.880422	12738.666667
899.198327	12738.000000
900.515705	12609.000000
901.832554	12600.666667
903.148875	12696.666667
904.464669	12633.000000
905.779936	12623.333333
907.094676	12660.333333
908.408889	12668.333333
909.722576	12749.000000
911.035737	12690.333333
912.348371	12704.666667
913.660481	12781.333333
914.972065	12762.333333
916.283124	12836.666667
917.593659	12771.666667
918.903669	12845.666667
920.213155	12877.666667
921.522117	12820.666667
922.830556	12856.666667
924.138471	12789.666667
925.445864	12774.666667
926.752733	12873.666667
928.059081	13015.333333
929.364906	12847.333333
930.670209	12936.666667
931.974991	12973.000000
933.279251	13027.333333
934.582990	13111.000000
935.886209	13249.000000
937.188907	13456.666667
938.491085	13557.000000
939.792743	13595.000000
941.093881	13818.666667
942.394500	14021.666667
943.694600	14270.333333
944.994181	14508.000000
946.293243	14930.666667
947.591787	15265.333333
948.889813	15850.000000
950.187322	16350.333333
951.484313	17030.333333
952.780787	17631.666667
954.076744	18564.666667
955.372184	19242.333333
956.667108	19848.333333
957.961516	20095.666667
959.255409	20185.333333
960.548785	19868.000000
961.841647	19345.000000
963.133993	18468.666667
964.425825	17594.666667
965.717142	16758.333333
967.007946	15786.333333
968.298235	15102.000000
969.588011	14476.666667
970.877273	13887.666667
972.166023	13420.666667
973.454259	13066.666667
974.741984	12808.333333
976.029196	12588.333333
977.315895	12370.333333
978.602084	12291.333333
979.887761	12135.000000
981.172926	12016.333333
982.457581	11995.333333
983.741725	11914.000000
985.025359	11857.666667
986.308483	11809.666667
987.591097	11733.000000
988.873202	11707.333333
990.154797	11766.333333
991.435883	11746.666667
992.716461	11641.000000
993.996530	11754.000000
995.276091	11664.333333
996.555144	11776.333333
997.833690	11699.333333
999.111728	11848.666667
1000.389259	11884.333333
1001.666283	11838.000000
1002.942800	11900.333333
1004.218812	11842.666667
1005.494317	11716.000000
1006.769317	11759.000000
1008.043811	11693.000000
1009.317799	11696.666667
1010.591283	11734.666667
1011.864263	11713.333333
1013.136737	11741.666667
1014.408708	11666.000000
1015.680175	11759.000000
1016.951138	11637.666667
1018.221598	11700.000000
1019.491554	11696.666667
1020.761008	11719.000000
1022.029959	11752.666667
1023.298408	11734.666667
1024.566355	11791.666667
1025.833800	11765.666667
1027.100744	11815.666667
1028.367187	11864.333333
1029.633128	11818.000000
1030.898569	11745.666667
1032.163509	11815.666667
1033.427949	11806.666667
1034.691890	11693.000000
1035.955330	11872.000000
1037.218271	11682.666667
1038.480714	11792.000000
1039.742657	11737.333333
1041.004101	11838.000000
1042.265048	11859.666667
1043.525496	11907.333333
1044.785446	11871.000000
1046.044899	11862.666667
1047.303855	11749.666667
1048.562313	11690.333333
1049.820275	11752.666667
1051.077740	11656.333333
1052.334709	11704.000000
1053.591182	11741.000000
1054.847160	11727.333333
1056.102641	11646.000000
1057.357628	11612.666667
1058.612120	11693.000000
1059.866117	11730.000000
1061.119619	11781.333333
1062.372628	11855.333333
1063.625142	11955.666667
1064.877163	11877.000000
1066.128691	11910.333333
1067.379725	12016.000000
1068.630267	12000.000000
1069.880316	11855.666667
1071.129872	11830.666667
1072.378937	11878.000000
1073.627509	11733.666667
1074.875590	11634.333333
1076.123180	11601.333333
1077.370279	11521.333333
1078.616887	11382.000000
1079.863004	11360.000000
1081.108631	11167.666667
1082.353768	11152.333333
1083.598415	11090.000000
1084.842573	11009.000000
1086.086241	10968.666667
1087.329421	10840.333333
1088.572111	10828.333333
1089.814314	10711.000000
1091.056028	10790.000000
1092.297253	10627.000000
1093.537992	10724.666667
1094.778242	10615.000000
1096.018006	10736.333333
1097.257282	10568.000000
1098.496072	10572.000000
1099.734376	10516.000000
1100.972193	10678.666667
1102.209524	10576.333333
1103.446370	10582.000000
1104.682730	10501.666667
1105.918604	10430.333333
1107.153994	10408.333333
1108.388900	10384.333333
1109.623320	10421.000000
1110.857257	10256.666667
1112.090710	10275.000000
1113.323679	10237.666667
1114.556164	10158.333333
1115.788167	10160.666667
1117.019686	10136.000000
1118.250723	10060.000000
1119.481278	10160.666667
1120.711350	9988.000000
1121.940940	10074.666667
1123.170049	10086.333333
1124.398676	10030.333333
1125.626823	10058.333333
1126.854488	10057.666667
1128.081672	10057.333333
1129.308376	9977.000000
1130.534600	10021.000000
1131.760345	9879.666667
1132.985609	10043.333333
1134.210394	9896.666667
1135.434700	9981.000000
1136.658527	9953.666667
1137.881875	9900.333333
1139.104745	9884.000000
1140.327136	9885.000000
1141.549050	9900.666667
1142.770486	9886.000000
1143.991445	9799.666667
1145.211926	9936.333333
1146.431931	9885.000000
1147.651459	9856.333333
1148.870510	9899.333333
1150.089086	9720.666667
1151.307185	9869.666667
1152.524808	9922.666667
1153.741957	9772.666667
1154.958630	9845.333333
1156.174828	9811.666667
1157.390551	9747.000000
1158.605800	9789.666667
1159.820574	9777.000000
1161.034875	9699.000000
1162.248702	9748.000000
1163.462055	9720.666667
1164.674936	9720.000000
1165.887343	9672.666667
1167.099277	9669.333333
1168.310739	9684.666667
1169.521729	9710.000000
1170.732247	9705.666667
1171.942293	9671.000000
1173.151867	9600.333333
1174.360970	9656.000000
1175.569602	9643.333333
1176.777764	9657.333333
1177.985454	9635.000000
1179.192675	9639.333333
1180.399425	9541.000000
1181.605706	9510.666667
1182.811517	9526.666667
1184.016859	9500.666667
1185.221731	9455.333333
1186.426135	9480.000000
1187.630070	9505.666667
1188.833537	9460.666667
1190.036535	9424.333333
1191.239066	9412.666667
1192.441129	9325.333333
1193.642725	9316.000000
1194.843853	9378.000000
1196.044515	9322.333333
1197.244710	9349.333333
1198.444438	9376.000000
1199.643701	9243.333333
1200.842497	9364.333333
1202.040827	9359.333333
1203.238693	9379.666667
1204.436092	9287.333333
1205.633027	9368.666667
1206.829497	9289.000000
1208.025503	9282.000000
1209.221044	9280.000000
1210.416122	9157.333333
1211.610735	9221.000000
1212.804885	9196.000000
1213.998572	9199.000000
1215.191795	9240.000000
1216.384556	9199.333333
1217.576854	9000.666667
1218.768689	9091.666667
1219.960063	9060.333333
1221.150974	9031.000000
1222.341424	9102.333333
1223.531413	9094.666667
1224.720940	9054.333333
1225.910006	9108.666667
1227.098612	9103.333333
1228.286757	9072.000000
1229.474442	9193.666667
1230.661667	9181.666667
1231.848432	9210.000000
1233.034738	9210.000000
1234.220584	9253.666667
1235.405971	9314.333333
1236.590900	9250.666667
1237.775369	9337.000000
1238.959381	9369.333333
1240.142934	9318.333333
1241.326029	9379.333333
1242.508667	9318.666667
1243.690848	9335.333333
1244.872571	9347.000000
1246.053837	9270.666667
1247.234646	9374.333333
1248.414999	9345.666667
1249.594896	9165.666667
1250.774337	9203.333333
1251.953322	9191.000000
1253.131851	9162.000000
1254.309925	9159.666667
1255.487544	9135.666667
1256.664708	9179.000000
1257.841417	9037.333333
1259.017673	9156.333333
1260.193473	9087.000000
1261.368820	9146.666667
1262.543714	9111.000000
1263.718154	9141.333333
1264.892140	9147.333333
1266.065674	9121.000000
1267.238755	9092.000000
1268.411383	9198.000000
1269.583559	9092.000000
1270.755283	9170.000000
1271.926555	9134.333333
1273.097375	9157.666667
1274.267744	9103.000000
1275.437662	9088.333333
1276.607129	9062.333333
1277.776145	8963.000000
1278.944711	9032.666667
1280.112827	8968.666667
1281.280492	8940.666667
1282.447708	8978.000000
1283.614474	8958.666667
1284.780791	8855.000000
1285.946659	8750.666667
1287.112078	8839.666667
1288.277048	8763.333333
1289.441570	8715.333333
1290.605644	8731.333333
1291.769270	8641.333333
1292.932448	8660.000000
1294.095178	8588.333333
1295.257461	8724.666667
1296.419298	8599.666667
1297.580687	8588.666667
1298.741630	8516.333333
1299.902126	8550.000000
1301.062177	8482.666667
1302.221781	8588.333333
1303.380940	8630.000000
1304.539653	8522.333333
1305.697921	8510.666667
1306.855744	8499.666667
1308.013123	8523.333333
1309.170056	8476.000000
1310.326546	8532.333333
1311.482591	8565.000000
1312.638193	8573.000000
1313.793350	8464.000000
1314.948065	8419.000000
1316.102336	8487.333333
1317.256164	8461.666667
1318.409550	8396.666667
1319.562493	8477.000000
1320.714993	8339.666667
1321.867052	8392.000000
1323.018668	8313.666667
1324.169843	8324.666667
1325.320577	8312.333333
1326.470870	8189.666667
1327.620721	8250.333333
1328.770132	8236.000000
1329.919102	8212.000000
1331.067632	8099.666667
1332.215722	8185.666667
1333.363372	8196.666667
1334.510582	8229.333333
1335.657353	8124.666667
1336.803685	8224.666667
1337.949578	8206.333333
1339.095032	8228.333333
1340.240048	8200.666667
1341.384625	8172.666667
1342.528764	8184.333333
1343.672466	8174.333333
1344.815729	8119.333333
1345.958556	8097.666667
1347.100945	8166.333333
1348.242897	8127.666667
1349.384413	8127.000000
1350.525492	8043.000000
1351.666134	8044.000000
1352.806341	8056.666667
1353.946111	7952.333333
1355.085446	7962.333333
1356.224346	7913.333333
1357.362810	7982.000000
1358.500840	7924.333333
1359.638434	7893.000000
1360.775594	7875.000000
1361.912320	7859.333333
1363.048612	7912.333333
1364.184469	7839.666667
1365.319893	7859.333333
1366.454884	7902.666667
1367.589441	7828.333333
1368.723566	7794.333333
1369.857257	7789.000000
1370.990516	7815.000000
1372.123343	7859.333333
1373.255737	7909.333333
1374.387699	7905.000000
1375.519230	7892.333333
1376.650329	7885.333333
1377.780997	7845.000000
1378.911234	7851.000000
1380.041040	7919.333333
1381.170416	7891.333333
1382.299361	7819.666667
1383.427875	7831.333333
1384.555960	7799.333333
1385.683615	7789.000000
1386.810841	7771.000000
1387.937637	7850.000000
1389.064004	7845.333333
1390.189942	7808.333333
1391.315451	7794.666667
1392.440532	7748.000000
1393.565185	7718.333333
1394.689409	7749.000000
1395.813206	7720.666667
1396.936575	7631.666667
1398.059517	7719.000000
1399.182032	7678.333333
1400.304119	7620.333333
1401.425780	7612.000000
1402.547014	7575.333333
1403.667822	7570.333333
1404.788204	7607.000000
1405.908160	7471.666667
1407.027690	7643.000000
1408.146795	7567.666667
1409.265474	7558.000000
1410.383728	7593.000000
1411.501558	7621.666667
1412.618963	7571.000000
1413.735943	7637.666667
1414.852499	7621.333333
1415.968632	7585.000000
1417.084340	7669.333333
1418.199625	7614.333333
1419.314486	7592.333333
1420.428925	7624.000000
1421.542940	7644.000000
1422.656533	7629.666667
1423.769703	7593.666667
1424.882451	7546.333333
1425.994777	7555.000000
1427.106680	7593.333333
1428.218163	7595.000000
1429.329223	7549.000000
1430.439863	7469.333333
1431.550081	7499.000000
1432.659879	7426.000000
1433.769256	7535.666667
1434.878212	7422.333333
1435.986749	7451.666667
1437.094865	7513.333333
1438.202562	7473.333333
1439.309839	7463.666667
1440.416696	7495.333333
1441.523135	7562.333333
1442.629154	7519.333333
1443.734755	7509.666667
1444.839937	7586.333333
1445.944701	7632.333333
1447.049047	7666.333333
1448.152975	7549.000000
1449.256485	7566.666667
1450.359577	7577.000000
1451.462253	7583.666667
1452.564511	7528.000000
1453.666352	7614.666667
1454.767777	7574.333333
1455.868785	7588.000000
1456.969377	7441.333333
1458.069553	7485.000000
1459.169313	7472.333333
1460.268658	7444.333333
1461.367587	7379.333333
1462.466101	7361.000000
1463.564200	7363.666667
1464.661884	7345.000000
1465.759153	7267.000000
1466.856008	7184.666667
1467.952449	7119.000000
1469.048476	7137.666667
1470.144089	7166.333333
1471.239288	7038.000000
1472.334074	6970.000000
1473.428447	6982.666667
1474.522407	6951.333333
1475.615955	6867.333333
1476.709089	6809.333333
1477.801812	6871.333333
1478.894122	6801.333333
1479.986020	6768.333333
1481.077506	6727.000000
1482.168581	6777.333333
1483.259245	6742.333333
1484.349498	6754.333333
1485.439339	6728.333333
1486.528770	6717.333333
1487.617790	6781.000000
1488.706400	6717.666667
1489.794600	6691.000000
1490.882390	6670.666667
1491.969771	6684.666667
1493.056742	6692.000000
1494.143303	6616.333333
1495.229456	6668.666667
1496.315199	6682.000000
1497.400534	6588.333333
1498.485460	6594.666667
1499.569978	6545.666667
1500.654088	6532.333333
1501.737790	6503.666667
1502.821085	6511.666667
1503.903972	6541.333333
1504.986451	6456.000000
1506.068524	6414.333333
1507.150189	6448.000000
1508.231448	6445.666667
1509.312301	6378.333333
1510.392747	6383.000000
1511.472787	6377.333333
1512.552422	6349.000000
1513.631650	6350.000000
1514.710473	6376.000000
1515.788891	6365.000000
1516.866904	6366.666667
1517.944512	6299.333333
1519.021715	6372.333333
1520.098513	6331.333333
1521.174908	6378.333333
1522.250898	6302.666667
1523.326485	6339.666667
1524.401667	6315.666667
1525.476447	6297.333333
1526.550823	6295.000000
1527.624796	6354.000000
1528.698365	6276.666667
1529.771533	6315.666667
1530.844298	6266.000000
1531.916660	6400.000000
1532.988620	6282.666667
1534.060179	6285.000000
1535.131336	6249.333333
1536.202091	6209.333333
1537.272445	6310.666667
1538.342398	6196.000000
1539.411950	6227.666667
1540.481101	6145.666667
1541.549851	6202.333333
1542.618202	6200.333333
1543.686152	6080.666667
1544.753702	6124.666667
1545.820853	6168.666667
1546.887604	6117.666667
1547.953955	6069.666667
1549.019908	6097.333333
1550.085461	6039.666667
1551.150616	6054.000000
1552.215372	6097.000000
1553.279730	6072.000000
1554.343690	6078.333333
1555.407252	6040.000000
1556.470415	6006.666667
1557.533182	6020.333333
1558.595551	6046.333333
1559.657522	6030.666667
1560.719097	6038.333333
1561.780275	5972.333333
1562.841056	5973.333333
1563.901441	5970.666667
1564.961429	5959.333333
1566.021022	5969.333333
1567.080219	5985.666667
1568.139020	5926.333333
1569.197425	5977.000000
1570.255436	6000.333333
1571.313051	5979.666667
1572.370271	5905.333333
1573.427097	5938.666667
1574.483528	5914.666667
1575.539565	5894.666667
1576.595208	5868.333333
1577.650457	5808.333333
1578.705312	5883.666667
1579.759774	5858.333333
1580.813842	5891.000000
1581.867517	5789.666667
1582.920799	5769.666667
1583.973689	5821.666667
1585.026186	5746.666667
1586.078290	5777.000000
1587.130002	5740.666667
1588.181323	5713.666667
1589.232251	5747.666667
1590.282788	5683.333333
1591.332933	5681.000000
1592.382688	5750.000000
1593.432051	5681.000000
1594.481023	5673.666667
1595.529605	5727.000000
1596.577796	5696.666667
1597.625597	5668.333333
1598.673007	5733.666667
1599.720028	5701.666667
1600.766660	5703.333333
1601.812901	5699.666667
1602.858753	5691.333333
1603.904217	5782.333333
1604.949291	5738.666667
1605.993976	5720.333333
1607.038273	5654.000000
1608.082182	5714.666667
1609.125702	5748.000000
1610.168834	5641.333333
1611.211579	5648.666667
1612.253935	5671.666667
1613.295905	5678.666667
1614.337487	5633.000000
1615.378682	5578.333333
1616.419490	5585.333333
1617.459912	5627.000000
1618.499946	5588.333333
1619.539595	5606.000000
1620.578858	5568.000000
1621.617734	5577.333333
1622.656225	5592.000000
1623.694330	5549.666667
1624.732050	5582.333333
1625.769385	5629.333333
1626.806334	5505.333333
1627.842899	5525.333333
1628.879079	5505.000000
1629.914875	5509.000000
1630.950286	5513.000000
1631.985314	5510.000000
1633.019957	5428.000000
1634.054217	5554.666667
1635.088093	5515.333333
1636.121586	5529.000000
1637.154696	5521.666667
1638.187423	5515.333333
1639.219767	5581.333333
1640.251728	5481.333333
1641.283307	5592.333333
1642.314504	5530.666667
1643.345319	5586.333333
1644.375751	5576.000000
1645.405803	5516.333333
1646.435472	5489.333333
1647.464761	5515.000000
1648.493668	5517.666667
1649.522194	5495.333333
1650.550340	5547.000000
1651.578105	5505.000000
1652.605490	5486.333333
1653.632494	5478.666667
1654.659119	5498.666667
1655.685363	5438.333333
1656.711228	5483.666667
1657.736714	5444.333333
1658.761820	5423.666667
1659.786547	5433.333333
1660.810895	5351.666667
1661.834865	5374.666667
1662.858456	5336.333333
1663.881668	5370.333333
1664.904503	5359.000000
1665.926959	5344.000000
1666.949038	5364.333333
1667.970739	5283.666667
1668.992062	5281.333333
1670.013008	5266.333333
1671.033577	5257.333333
1672.053770	5236.333333
1673.073585	5271.666667
1674.093024	5209.000000
1675.112086	5233.666667
1676.130773	5200.666667
1677.149083	5238.333333
1678.167017	5178.333333
1679.184576	5189.000000
1680.201760	5172.666667
1681.218568	5187.000000
1682.235001	5133.666667
1683.251059	5169.666667
1684.266742	5102.333333
1685.282051	5156.666667
1686.296985	5110.666667
1687.311546	5121.333333
1688.325732	5065.666667
1689.339544	5035.666667
1690.352983	4998.333333
1691.366048	4937.333333
1692.378740	4979.666667
1693.391058	4932.666667
1694.403004	4954.666667
1695.414577	4862.666667
1696.425778	4920.000000
1697.436606	4809.333333
1698.447061	4851.333333
1699.457145	4845.000000
1700.466857	4769.000000
1701.476197	4798.333333
1702.485166	4739.333333
1703.493763	4687.000000
1704.501989	4696.000000
1705.509844	4618.666667
1706.517328	4689.000000
1707.524442	4649.666667
1708.531185	4632.000000
1709.537558	4633.000000
1710.543561	4635.000000
1711.549194	4588.000000
1712.554457	4607.000000
1713.559351	4638.666667
1714.563875	4572.333333
1715.568030	4573.666667
1716.571816	4594.000000
1717.575233	4610.666667
1718.578282	4622.333333
1719.580962	4598.333333
1720.583273	4690.333333
1721.585217	4611.333333
1722.586792	4638.333333
1723.588000	4625.333333
1724.588840	4595.666667
1725.589312	4581.000000
1726.589418	4637.333333
1727.589156	4574.666667
1728.588527	4603.666667
1729.587532	4588.333333
1730.586170	4619.666667
1731.584441	4589.333333
1732.582346	4614.666667
1733.579886	4506.666667
1734.577059	4532.666667
1735.573867	4565.666667
1736.570309	4522.666667
1737.566386	4483.333333
1738.562097	4510.333333
1739.557444	4479.333333
1740.552426	4458.666667
1741.547043	4399.000000
1742.541295	4429.666667
1743.535184	4403.666667
1744.528708	4341.666667
1745.521868	4352.666667
1746.514664	4357.000000
1747.507097	4327.000000
1748.499166	4280.666667
1749.490873	4316.333333
1750.482216	4312.000000
1751.473196	4319.000000
1752.463813	4280.333333
1753.454068	4317.666667
1754.443960	4386.000000
1755.433490	4286.000000
1756.422658	4255.000000
1757.411464	4274.000000
1758.399908	4338.333333
1759.387991	4226.333333
1760.375713	4312.666667
1761.363073	4256.666667
1762.350072	4303.666667
1763.336711	4271.000000
1764.322988	4286.000000
1765.308905	4253.666667
1766.294462	4307.000000
1767.279659	4299.333333
1768.264496	4259.666667
1769.248972	4188.333333
1770.233089	4197.333333
1771.216847	4183.666667
1772.200245	4190.666667
1773.183284	4175.666667
1774.165965	4144.666667
1775.148286	4159.666667
1776.130249	4125.666667
1777.111853	4143.333333
1778.093099	4078.666667
1779.073987	4103.000000
1780.054517	4075.666667
1781.034689	4049.000000
1782.014503	4028.000000
1782.993960	3988.666667
1783.973060	3967.333333
1784.951802	3977.000000
1785.930188	3986.333333
1786.908217	3951.333333
1787.885889	3919.000000
1788.863205	3886.666667
1789.840164	3863.666667
1790.816768	3886.000000
1791.793015	3893.333333
1792.768907	3889.666667
1793.744443	3858.333333
1794.719624	3849.333333
1795.694449	3880.333333
1796.668919	3867.666667
1797.643035	3870.333333
1798.616795	3861.333333
1799.590201	3906.333333
1800.563253	3939.333333
1801.535950	3899.000000
1802.508294	3881.000000
1803.480283	3894.333333
1804.451919	3916.000000
1805.423201	3917.666667
1806.394129	3943.000000
1807.364705	3920.666667
1808.334927	3908.666667
1809.304796	3915.666667
1810.274313	3918.333333
1811.243477	3856.666667
1812.212288	3857.666667
1813.180747	3801.666667
1814.148855	3830.000000
1815.116610	3840.000000
1816.084013	3837.000000
1817.051065	3829.666667
1818.017766	3859.333333
1818.984115	3866.333333
1819.950113	3793.666667
1820.915760	3795.666667
1821.881057	3787.666667
1822.846003	3814.666667
1823.810598	3737.000000
1824.774843	3765.666667
1825.738738	3708.666667
1826.702283	3776.333333
1827.665479	3745.666667
1828.628324	3746.333333
1829.590821	3695.333333
1830.552968	3683.333333
1831.514765	3706.333333
1832.476214	3682.666667
1833.437314	3724.000000
1834.398066	3654.333333
1835.358469	3704.666667
1836.318524	3641.000000
1837.278230	3663.333333
1838.237589	3651.666667
1839.196600	3653.333333
1840.155263	3586.666667
1841.113578	3676.333333
1842.071547	3672.333333
1843.029168	3703.666667
1843.986442	3703.333333
1844.943369	3681.666667
1845.899950	3671.666667
1846.856184	3677.333333
1847.812072	3664.333333
1848.767614	3724.000000
1849.722809	3690.666667
1850.677659	3713.333333
1851.632163	3709.000000
1852.586322	3688.333333
1853.540135	3648.666667
1854.493603	3652.666667
1855.446726	3637.666667
1856.399504	3662.000000
1857.351937	3655.333333
1858.304026	3633.333333
1859.255770	3628.666667
1860.207170	3556.000000
1861.158227	3594.000000
1862.108939	3553.000000
1863.059307	3565.666667
1864.009332	3530.000000
1864.959013	3508.666667
1865.908351	3522.000000
1866.857346	3486.666667
1867.805998	3531.666667
1868.754307	3525.666667
1869.702274	3450.666667
1870.649898	3472.333333
1871.597180	3463.333333
1872.544119	3468.000000
1873.490717	3408.000000
1874.436973	3413.000000
1875.382887	3454.333333
1876.328459	3408.666667
1877.273691	3400.000000
1878.218581	3414.000000
1879.163130	3393.333333
1880.107338	3418.666667
1881.051205	3420.000000
1881.994732	3384.666667
1882.937919	3426.666667
1883.880765	3391.666667
1884.823271	3437.000000
1885.765437	3418.000000
1886.707264	3405.333333
1887.648750	3428.333333
1888.589898	3428.333333
1889.530706	3445.333333
1890.471175	3399.666667
1891.411305	3389.666667
1892.351096	3400.000000
1893.290548	3408.333333
1894.229662	3407.333333
1895.168438	3415.666667
1896.106876	3373.000000
1897.044975	3399.000000
1897.982737	3392.000000
1898.920160	3376.666667
1899.857247	3348.333333
1900.793996	3347.666667
1901.730407	3345.000000
1902.666482	3339.000000
1903.602219	3358.666667
1904.537620	3309.666667
1905.472685	3273.000000
1906.407412	3276.666667
1907.341804	3261.666667
1908.275859	3252.333333
1909.209579	3242.333333
1910.142962	3245.333333
1911.076010	3237.333333
1912.008722	3209.333333
1912.941099	3172.666667
1913.873141	3165.000000
1914.804848	3140.000000
1915.736219	3168.000000
1916.667256	3143.000000
1917.597959	3111.333333
1918.528327	3173.666667
1919.458360	3116.666667
1920.388060	3075.000000
1921.317426	3129.666667
1922.246457	3111.000000
1923.175156	3081.333333
1924.103520	3081.666667
1925.031552	3122.333333
1925.959250	3098.000000
1926.886615	3117.333333
1927.813647	3121.333333
1928.740346	3124.000000
1929.666713	3117.666667
1930.592748	3088.333333
1931.518450	3107.000000
1932.443820	3093.666667
1933.368858	3087.000000
1934.293564	3129.666667
1935.217939	3091.333333
1936.141982	3137.333333
1937.065694	3080.333333
1937.989074	3085.000000
1938.912124	3024.666667
1939.834842	3057.333333
1940.757230	3043.333333
1941.679287	3045.666667
1942.601014	3034.000000
1943.522411	3051.000000
1944.443477	3060.000000
1945.364214	3011.666667
1946.284621	2987.666667
1947.204698	3037.666667
1948.124445	3025.666667
1949.043863	2944.666667
1949.962952	2949.666667
1950.881712	2963.333333
1951.800143	2912.000000
1952.718245	2919.666667
1953.636019	2910.333333
1954.553464	2874.666667
1955.470581	2865.000000
1956.387369	2884.000000
1957.303830	2875.000000
1958.219963	2854.666667
1959.135768	2856.666667
1960.051246	2888.333333
1960.966396	2895.666667
1961.881219	2848.666667
1962.795715	2888.333333
1963.709883	2853.000000
1964.623726	2861.666667
1965.537241	2859.000000
1966.450430	2877.666667
1967.363293	2883.666667
1968.275829	2909.000000
1969.188040	2898.333333
1970.099924	2901.666667
1971.011483	2892.000000
1971.922716	2887.000000
1972.833624	2887.666667
1973.744206	2865.333333
1974.654464	2922.000000
1975.564396	2894.666667
1976.474004	2854.000000
1977.383286	2879.000000
1978.292245	2858.333333
1979.200878	2876.666667
1980.109188	2866.666667
1981.017174	2817.333333
1981.924835	2869.333333
1982.832173	2819.666667
1983.739187	2807.000000
1984.645878	2814.000000
1985.552245	2813.333333
1986.458289	2769.000000
1987.364010	2784.000000
1988.269408	2750.000000
1989.174484	2737.333333
1990.079236	2741.666667
1990.983667	2737.000000
1991.887775	2699.333333
1992.791561	2721.666667
1993.695024	2727.333333
1994.598166	2713.000000
1995.500986	2723.000000
1996.403485	2664.333333
1997.305662	2678.666667
1998.207518	2713.666667
1999.109053	2717.666667
