200.151048	64754.666667
201.758777	64582.333333
203.365815	64486.000000
204.972162	64419.333333
206.577820	64438.666667
208.182787	64388.000000
209.787065	64347.333333
211.390653	64391.000000
212.993553	64320.666667
214.595765	64197.666667
216.197289	64167.666667
217.798125	64144.666667
219.398274	64238.666667
220.997737	64162.000000
222.596513	64163.666667
224.194603	64091.666667
225.792008	64163.666667
227.388728	64181.666667
228.984763	64055.000000
230.580114	63940.000000
232.174781	63991.666667
233.768765	64097.666667
235.362065	63946.666667
236.954683	63769.333333
238.546619	63738.666667
240.137872	63788.666667
241.728445	63837.666667
243.318336	63697.000000
244.907546	63694.333333
246.496076	63590.333333
248.083926	63368.333333
249.671097	63528.000000
251.257589	63170.666667
252.843402	63120.333333
254.428536	62881.333333
256.012993	62907.000000
257.596772	62976.666667
259.179874	62565.000000
260.762300	62451.333333
262.344049	62476.666667
263.925122	62435.666667
265.505519	62582.666667
267.085241	62408.000000
268.664289	62307.666667
270.242662	62519.000000
271.820361	62510.333333
273.397387	62362.333333
274.973740	62378.333333
276.549419	62279.666667
278.124426	62338.000000
279.698762	62323.000000
281.272425	62324.333333
282.845417	62458.000000
284.417739	62551.666667
285.989390	62438.000000
287.560371	62298.333333
289.130682	62284.666667
290.700324	62284.666667
292.269297	62363.333333
293.837602	62283.000000
295.405238	62164.000000
296.972207	62180.000000
298.538508	62043.333333
300.104142	61988.333333
301.669110	62124.000000
303.233411	61690.666667
304.797047	61651.000000
306.360017	61659.333333
307.922322	61417.333333
309.483963	61408.333333
311.044939	61356.666667
312.605252	61322.000000
314.164900	61313.000000
315.723886	61145.000000
317.282209	60963.000000
318.839870	60866.333333
320.396868	60881.333333
321.953205	60702.666667
323.508881	60985.666667
325.063896	60793.000000
326.618251	60791.666667
328.171945	60603.666667
329.724980	60735.666667
331.277356	60721.666667
332.829072	60589.333333
334.380131	60629.333333
335.930530	60533.000000
337.480273	60439.666667
339.029357	60573.333333
340.577785	60515.000000
342.125556	60705.333333
343.672671	60582.000000
345.219130	60617.666667
346.764933	60491.000000
348.310081	60479.666667
349.854575	60468.000000
351.398414	60315.000000
352.941599	60305.333333
354.484130	60291.666667
356.026008	60522.000000
357.567234	60306.666667
359.107807	60172.333333
360.647727	60484.666667
362.186996	60278.333333
363.725614	60073.000000
365.263580	60036.000000
366.800896	59995.666667
368.337562	59771.000000
369.873578	59820.666667
371.408944	59671.000000
372.943661	59713.333333
374.477730	59626.333333
376.011150	59530.000000
377.543922	59536.000000
379.076046	59537.000000
380.607523	59337.333333
382.138353	59368.333333
383.668537	59390.333333
385.198075	59346.333333
386.726966	59378.000000
388.255213	59306.666667
389.782814	59457.666667
391.309770	59191.000000
392.836083	59239.000000
394.361751	59066.666667
395.886776	59332.000000
397.411157	59183.666667
398.934896	59080.666667
400.457992	59047.000000
401.980446	59046.000000
403.502258	59061.000000
405.023429	59058.666667
406.543959	58913.000000
408.063849	58902.333333
409.583098	58981.666667
411.101707	59162.333333
412.619677	59126.333333
414.137007	58973.333333
415.653699	58893.666667
417.169752	59080.000000
418.685167	59191.000000
420.199945	59344.333333
421.714085	59277.333333
423.227588	59328.333333
424.740454	59453.333333
426.252684	59281.000000
427.764279	59362.000000
429.275238	59345.000000
430.785561	59263.333333
432.295250	59241.333333
433.804304	59022.666667
435.312725	58912.666667
436.820511	58820.666667
438.327664	58447.000000
439.834185	58080.333333
441.340072	58123.333333
442.845327	57707.666667
444.349951	57484.000000
445.853942	57573.666667
447.357303	57323.333333
448.860033	57249.666667
450.362132	57161.666667
451.863601	57014.666667
453.364440	56592.666667
454.864650	56580.333333
456.364231	56541.333333
457.863183	56193.666667
459.361507	55868.000000
460.859203	55903.666667
462.356271	55644.333333
463.852712	55331.000000
465.348526	55220.666667
466.843714	55024.000000
468.338275	54895.000000
469.832210	54952.666667
471.325520	54718.666667
472.818205	54851.000000
474.310265	54628.666667
475.801700	54459.333333
477.292512	54421.666667
478.782700	54533.000000
480.272264	54263.666667
481.761205	54425.666667
483.249524	54270.000000
484.737221	53999.333333
486.224295	53816.666667
487.710748	53656.000000
489.196579	53583.666667
490.681790	53562.333333
492.166380	53383.333333
493.650350	53379.000000
495.133700	53485.000000
496.616431	53459.666667
498.098542	53149.000000
499.580035	53333.333333
501.060909	53149.000000
502.541165	53252.333333
504.020804	53255.000000
505.499825	52895.666667
506.978228	52939.666667
508.456016	52652.666667
509.933186	52727.000000
511.409741	52241.666667
512.885680	52172.000000
514.361004	52113.000000
515.835713	51986.333333
517.309807	52211.666667
518.783287	52257.000000
520.256153	52191.333333
521.728406	52000.000000
523.200045	51893.666667
524.671071	51959.666667
526.141485	51720.666667
527.611287	51751.666667
529.080476	51637.333333
530.549054	51605.333333
532.017021	51505.333333
533.484378	51364.333333
534.951123	51392.666667
536.417259	51175.333333
537.882785	51362.666667
539.347701	51065.000000
540.812008	51084.666667
542.275707	50985.666667
543.738797	50906.666667
545.201279	50828.333333
546.663153	50803.000000
548.124420	51150.000000
549.585080	51087.333333
551.045133	51442.333333
552.504579	51143.333333
553.963420	51284.666667
555.421655	51075.333333
556.879285	51061.000000
558.336309	50867.000000
559.792729	50974.000000
561.248545	50970.000000
562.703756	50894.333333
564.158364	50783.666667
565.612369	50837.333333
567.065770	50745.333333
568.518569	50824.666667
569.970766	50820.000000
571.422361	50715.000000
572.873354	50845.666667
574.323745	50812.666667
575.773536	50835.333333
577.222726	50680.000000
578.671316	50827.666667
580.119306	50802.333333
581.566696	50625.000000
583.013487	50318.000000
584.459679	50190.666667
585.905273	49889.000000
587.350268	50095.333333
588.794665	49664.000000
590.238465	49804.000000
591.681667	49689.666667
593.124272	49828.000000
594.566281	49687.333333
596.007694	49473.000000
597.448510	49384.333333
598.888731	49348.000000
600.328357	49105.666667
601.767388	48935.333333
603.205824	49036.000000
604.643666	48884.000000
606.080914	48754.333333
607.517568	48507.666667
608.953629	48630.333333
610.389097	48631.666667
611.823972	48579.666667
613.258255	48638.666667
614.691946	48385.666667
616.125046	48278.000000
617.557554	48095.000000
618.989471	47845.666667
620.420798	47753.000000
621.851534	47523.000000
623.281680	47262.333333
624.711237	47352.666667
626.140204	46968.666667
627.568582	46863.000000
628.996372	46761.333333
630.423573	46615.666667
631.850186	46565.333333
633.276211	46466.000000
634.701650	46538.000000
636.126501	46495.000000
637.550765	46310.666667
638.974443	46371.666667
640.397535	46241.000000
641.820041	46094.000000
643.241961	46361.666667
644.663297	46413.333333
646.084048	46240.666667
647.504214	46124.000000
648.923796	45689.333333
650.342795	45900.333333
651.761210	45574.000000
653.179041	45317.333333
654.596290	45162.000000
656.012957	45283.333333
657.429041	45090.333333
658.844543	45084.666667
660.259464	45045.333333
661.673804	44949.000000
663.087563	44826.000000
664.500741	44949.333333
665.913339	44940.333333
667.325357	44823.333333
668.736795	44963.333333
670.147654	44736.333333
671.557934	44614.333333
672.967636	44388.666667
674.376759	44407.666667
675.785304	44429.333333
677.193271	44253.000000
678.600661	44319.666667
680.007474	44219.666667
681.413711	43970.666667
682.819370	44053.666667
684.224454	43898.333333
685.628962	43844.333333
687.032895	43842.333333
688.436252	43883.333333
689.839034	44022.000000
691.241242	43647.333333
692.642876	43626.666667
694.043936	43530.000000
695.444422	43427.000000
696.844336	43359.333333
698.243676	43267.000000
699.642443	43079.333333
701.040639	43187.333333
702.438262	43098.333333
703.835313	43364.333333
705.231794	43095.333333
706.627703	43068.333333
708.023041	42899.000000
709.417810	42847.000000
710.812008	42677.333333
712.205636	42746.333333
713.598694	42495.666667
714.991184	42687.000000
716.383105	42489.333333
717.774457	42452.333333
719.165241	42356.333333
720.555457	42342.333333
721.945105	42248.666667
723.334187	42102.333333
724.722701	42307.333333
726.110648	42260.000000
727.498030	42312.666667
728.884845	42256.333333
730.271094	42201.666667
731.656778	41856.666667
733.041897	41976.333333
734.426451	41872.000000
735.810441	41671.000000
737.193866	41739.333333
738.576728	41739.666667
739.959026	41668.666667
741.340760	41587.000000
742.721932	41704.666667
744.102541	41443.000000
745.482588	41450.333333
746.862073	41429.666667
748.240996	41431.666667
749.619358	41138.333333
750.997158	41500.666667
752.374398	41314.333333
753.751077	41117.333333
755.127197	41079.666667
756.502756	41256.666667
757.877756	41173.333333
759.252196	41096.666667
760.626078	41064.000000
761.999400	40785.333333
763.372165	40712.666667
764.744371	40778.333333
766.116020	40789.666667
767.487111	40606.000000
768.857646	40449.666667
770.227623	40324.666667
771.597044	40311.000000
772.965908	40219.333333
774.334217	40407.666667
775.701970	40114.333333
777.069168	39995.000000
778.435811	40129.666667
779.801899	39994.333333
781.167433	39956.000000
782.532412	39753.333333
783.896838	39724.000000
785.260710	39722.000000
786.624029	39581.666667
787.986796	39661.000000
789.349009	39757.666667
790.710671	39462.000000
792.071780	39538.666667
793.432338	39279.333333
794.792344	39529.666667
796.151799	39189.333333
797.510704	39143.000000
798.869058	39056.000000
800.226862	39082.000000
801.584116	39047.333333
802.940820	39088.666667
804.296975	38976.666667
805.652581	38999.333333
807.007638	38982.333333
808.362147	38838.333333
809.716108	38837.333333
811.069521	38693.666667
812.422387	38679.000000
813.774705	38740.000000
815.126476	38597.666667
816.477701	38541.666667
817.828380	38507.000000
819.178512	38581.000000
820.528099	38519.333333
821.877140	38607.000000
823.225637	38524.666667
824.573588	38502.000000
825.920995	38340.666667
827.267857	38377.333333
828.614176	38172.666667
829.959951	38068.000000
831.305183	38069.333333
832.649871	38110.000000
833.994017	38002.333333
835.337620	38112.000000
836.680681	38005.000000
838.023201	37946.000000
839.365178	37782.666667
840.706614	37743.333333
842.047510	37710.000000
843.387864	37622.333333
844.727678	37396.666667
846.066952	37630.000000
847.405687	37853.666667
848.743881	37574.000000
850.081537	37684.666667
851.418653	37794.000000
852.755231	37615.333333
854.091270	37761.333333
855.426771	37563.000000
856.761735	37518.666667
858.096160	37306.333333
859.430049	37133.000000
860.763401	37122.666667
862.096216	37107.000000
863.428495	37027.000000
864.760237	37091.000000
866.091444	37012.333333
867.422115	36930.333333
868.752252	36780.333333
870.081853	36835.000000
871.410919	36729.000000
872.739452	36654.000000
874.067450	36714.666667
875.394914	36444.666667
876.721845	36378.333333
878.048243	36422.000000
879.374108	36503.000000
880.699440	36352.000000
882.024240	36227.333333
883.348508	36091.000000
884.672244	36217.000000
885.995449	35986.333333
887.318122	35767.000000
888.640265	35761.666667
889.961877	35753.666667
891.282959	35820.333333
892.603510	35729.333333
893.923532	35561.000000
895.243024	35596.666667
896.561987	35420.666667
897.880422	35290.666667
899.198327	35319.333333
900.515705	35301.666667
901.832554	35351.333333
903.148875	35158.333333
904.464669	35059.000000
905.779936	35213.666667
907.094676	35097.000000
908.408889	35303.333333
909.722576	35242.666667
911.035737	35210.000000
912.348371	35281.666667
913.660481	35162.666667
914.972065	35303.333333
916.283124	35427.000000
917.593659	35284.666667
918.903669	35229.666667
920.213155	35379.333333
921.522117	35106.666667
922.830556	35203.000000
924.138471	35145.333333
925.445864	35111.000000
926.752733	35190.333333
928.059081	35032.000000
929.364906	34941.000000
930.670209	34897.666667
931.974991	34994.666667
933.279251	34770.000000
934.582990	35080.000000
935.886209	34901.666667
937.188907	35182.000000
938.491085	35264.000000
939.792743	35184.333333
941.093881	35379.000000
942.394500	35744.000000
943.694600	35678.666667
944.994181	36017.000000
946.293243	36301.333333
947.591787	36462.000000
948.889813	37241.666667
950.187322	37692.000000
951.484313	38339.666667
952.780787	38864.333333
954.076744	39552.000000
955.372184	40265.666667
956.667108	41033.000000
957.961516	41550.333333
959.255409	41464.000000
960.548785	41166.333333
961.841647	40899.333333
963.133993	40099.000000
964.425825	39101.333333
965.717142	38246.000000
967.007946	37400.000000
968.298235	36395.333333
969.588011	35683.000000
970.877273	34906.333333
972.166023	34335.666667
973.454259	34104.333333
974.741984	33703.666667
976.029196	33550.333333
977.315895	33154.333333
978.602084	33123.000000
979.887761	32756.333333
981.172926	32680.666667
982.457581	32698.000000
983.741725	32472.666667
985.025359	32570.333333
986.308483	32320.666667
987.591097	32341.666667
988.873202	32116.000000
990.154797	32158.666667
991.435883	32116.333333
992.716461	32169.666667
993.996530	32045.333333
995.276091	31855.666667
996.555144	31866.333333
997.833690	31850.333333
999.111728	31895.000000
1000.389259	31911.333333
1001.666283	31848.333333
1002.942800	31893.666667
1004.218812	31970.333333
1005.494317	31746.333333
1006.769317	31777.000000
1008.043811	31712.333333
1009.317799	31776.666667
1010.591283	31678.333333
1011.864263	31618.000000
1013.136737	31526.000000
1014.408708	31525.333333
1015.680175	31599.333333
1016.951138	31444.333333
1018.221598	31494.666667
1019.491554	31402.000000
1020.761008	31418.666667
1022.029959	31381.333333
1023.298408	31286.000000
1024.566355	31206.333333
1025.833800	31225.000000
1027.100744	31314.333333
1028.367187	31215.666667
1029.633128	31167.666667
1030.898569	31198.333333
1032.163509	30991.333333
1033.427949	30993.000000
1034.691890	31013.666667
1035.955330	31080.000000
1037.218271	31226.000000
1038.480714	31149.666667
1039.742657	31278.000000
1041.004101	31447.666667
1042.265048	31238.000000
1043.525496	31269.666667
1044.785446	31157.333333
1046.044899	30986.000000
1047.303855	31199.333333
1048.562313	30997.666667
1049.820275	30898.000000
1051.077740	30744.666667
1052.334709	30749.000000
1053.591182	30849.333333
1054.847160	30655.666667
1056.102641	30724.333333
1057.357628	30599.666667
1058.612120	30535.666667
1059.866117	30664.000000
1061.119619	30663.000000
1062.372628	30540.666667
1063.625142	30728.333333
1064.877163	30609.666667
1066.128691	30717.666667
1067.379725	30678.000000
1068.630267	30892.333333
1069.880316	30671.666667
1071.129872	30471.333333
1072.378937	30708.666667
1073.627509	30337.000000
1074.875590	30327.333333
1076.123180	30117.000000
1077.370279	30085.333333
1078.616887	29896.333333
1079.863004	29721.333333
1081.108631	29745.000000
1082.353768	29609.666667
1083.598415	29370.000000
1084.842573	29319.000000
1086.086241	29167.000000
1087.329421	29053.000000
1088.572111	28933.333333
1089.814314	28843.333333
1091.056028	28858.666667
1092.297253	28782.000000
1093.537992	28721.666667
1094.778242	28712.000000
1096.018006	28674.666667
1097.257282	28577.666667
1098.496072	28495.000000
1099.734376	28497.333333
1100.972193	28504.000000
1102.209524	28522.666667
1103.446370	28505.000000
1104.682730	28239.333333
1105.918604	28300.333333
1107.153994	28431.333333
1108.388900	28184.000000
1109.623320	28291.666667
1110.857257	28080.666667
1112.090710	28138.000000
1113.323679	28073.000000
1114.556164	27845.000000
1115.788167	27881.666667
1117.019686	27794.000000
1118.250723	27694.333333
1119.481278	27797.333333
1120.711350	27692.333333
1121.940940	27888.333333
1123.170049	27712.666667
1124.398676	27714.333333
1125.626823	27715.000000
1126.854488	27759.000000
1128.081672	27608.333333
1129.308376	27563.666667
1130.534600	27579.666667
1131.760345	27455.666667
1132.985609	27438.000000
1134.210394	27504.666667
1135.434700	27291.000000
1136.658527	27356.000000
1137.881875	27326.000000
1139.104745	27286.333333
1140.327136	27268.000000
1141.549050	27195.666667
1142.770486	27184.000000
1143.991445	27157.666667
1145.211926	27213.666667
1146.431931	27229.000000
1147.651459	27012.000000
1148.870510	27072.000000
1150.089086	27063.666667
1151.307185	27018.666667
1152.524808	27002.000000
1153.741957	26910.666667
1154.958630	27063.333333
1156.174828	26934.333333
1157.390551	26858.333333
1158.605800	26823.333333
1159.820574	26824.333333
1161.034875	26739.333333
1162.248702	26733.666667
1163.462055	26646.333333
1164.674936	26799.333333
1165.887343	26656.333333
1167.099277	26759.333333
1168.310739	26831.666667
1169.521729	26728.000000
1170.732247	26497.666667
1171.942293	26709.000000
1173.151867	26553.333333
1174.360970	26526.000000
1175.569602	26489.333333
1176.777764	26355.333333
1177.985454	26297.333333
1179.192675	26310.666667
1180.399425	26264.333333
1181.605706	26248.666667
1182.811517	26005.000000
1184.016859	26123.333333
1185.221731	25817.000000
1186.426135	25939.666667
1187.630070	25919.000000
1188.833537	25888.000000
1190.036535	25801.333333
1191.239066	25683.666667
1192.441129	25583.333333
1193.642725	25556.333333
1194.843853	25456.000000
1196.044515	25404.000000
1197.244710	25505.000000
1198.444438	25577.666667
1199.643701	25565.333333
1200.842497	25406.666667
1202.040827	25730.000000
1203.238693	25359.666667
1204.436092	25440.333333
1205.633027	25410.000000
1206.829497	25496.666667
1208.025503	25244.000000
1209.221044	25355.666667
1210.416122	25177.000000
1211.610735	25196.666667
1212.804885	25174.333333
1213.998572	25022.000000
1215.191795	25082.666667
1216.384556	24902.666667
1217.576854	24756.666667
1218.768689	24893.333333
1219.960063	24901.333333
1221.150974	24768.333333
1222.341424	24871.666667
1223.531413	24994.000000
1224.720940	24734.333333
1225.910006	24766.000000
1227.098612	24764.000000
1228.286757	24684.000000
1229.474442	24867.000000
1230.661667	24812.666667
1231.848432	24732.666667
1233.034738	24827.000000
1234.220584	24913.000000
1235.405971	24944.000000
1236.590900	24841.000000
1237.775369	25002.333333
1238.959381	24941.666667
1240.142934	24821.666667
1241.326029	24988.666667
1242.508667	24872.333333
1243.690848	24847.666667
1244.872571	24746.333333
1246.053837	24805.000000
1247.234646	24778.666667
1248.414999	24740.666667
1249.594896	24573.333333
1250.774337	24614.000000
1251.953322	24482.000000
1253.131851	24529.000000
1254.309925	24548.000000
1255.487544	24452.666667
1256.664708	24349.333333
1257.841417	24437.000000
1259.017673	24377.333333
1260.193473	24404.000000
1261.368820	24422.666667
1262.543714	24365.000000
1263.718154	24309.333333
1264.892140	24392.666667
1266.065674	24360.333333
1267.238755	24350.333333
1268.411383	24532.666667
1269.583559	24487.000000
1270.755283	24215.666667
1271.926555	24459.333333
1273.097375	24358.666667
1274.267744	24318.333333
1275.437662	24220.000000
1276.607129	24260.333333
1277.776145	24178.333333
1278.944711	24192.666667
1280.112827	24081.666667
1281.280492	23990.333333
1282.447708	24007.000000
1283.614474	23904.666667
1284.780791	23747.000000
1285.946659	23833.333333
1287.112078	23756.000000
1288.277048	23582.333333
1289.441570	23635.666667
1290.605644	23547.333333
1291.769270	23393.333333
1292.932448	23307.333333
1294.095178	23352.333333
1295.257461	23386.000000
1296.419298	23480.333333
1297.580687	23292.333333
1298.741630	23298.666667
1299.902126	23298.000000
1301.062177	23254.333333
1302.221781	23153.000000
1303.380940	23216.000000
1304.539653	23229.333333
1305.697921	23186.000000
1306.855744	23249.333333
1308.013123	23228.000000
1309.170056	23241.666667
1310.326546	22989.666667
1311.482591	23183.666667
1312.638193	23061.333333
1313.793350	23043.333333
1314.948065	23012.333333
1316.102336	22921.333333
1317.256164	22906.000000
1318.409550	22916.000000
1319.562493	22668.000000
1320.714993	22699.333333
1321.867052	22710.000000
1323.018668	22755.333333
1324.169843	22596.333333
1325.320577	22481.000000
1326.470870	22534.000000
1327.620721	22556.000000
1328.770132	22407.666667
1329.919102	22445.000000
1331.067632	22419.333333
1332.215722	22268.000000
1333.363372	22232.333333
1334.510582	22387.333333
1335.657353	22349.333333
1336.803685	22363.000000
1337.949578	22319.666667
1339.095032	22462.000000
1340.240048	22244.000000
1341.384625	22373.000000
1342.528764	22299.000000
1343.672466	22321.000000
1344.815729	22329.666667
1345.958556	22358.666667
1347.100945	22058.666667
1348.242897	22081.000000
1349.384413	22126.000000
1350.525492	22116.666667
1351.666134	21953.666667
1352.806341	21848.000000
1353.946111	21849.000000
1355.085446	21764.666667
1356.224346	21793.666667
1357.362810	21635.666667
1358.500840	21547.333333
1359.638434	21539.666667
1360.775594	21520.666667
1361.912320	21521.666667
1363.048612	21537.666667
1364.184469	21552.000000
1365.319893	21442.000000
1366.454884	21469.666667
1367.589441	21488.333333
1368.723566	21476.666667
1369.857257	21463.333333
1370.990516	21548.666667
1372.123343	21512.333333
1373.255737	21576.333333
1374.387699	21465.333333
1375.519230	21521.666667
1376.650329	21424.666667
1377.780997	21466.333333
1378.911234	21474.666667
1380.041040	21358.000000
1381.170416	21389.666667
1382.299361	21353.666667
1383.427875	21334.333333
1384.555960	21321.000000
1385.683615	21213.333333
1386.810841	21235.333333
1387.937637	21270.333333
1389.064004	21077.666667
1390.189942	21163.666667
1391.315451	21152.333333
1392.440532	21006.666667
1393.565185	21103.666667
1394.689409	21094.333333
1395.813206	21134.333333
1396.936575	21212.333333
1398.059517	20996.666667
1399.182032	20921.333333
1400.304119	21047.333333
1401.425780	20867.666667
1402.547014	20984.333333
1403.667822	20784.333333
1404.788204	20819.333333
1405.908160	20936.333333
1407.027690	20902.666667
1408.146795	20811.666667
1409.265474	20792.666667
1410.383728	21014.333333
1411.501558	20836.333333
1412.618963	20734.333333
1413.735943	20687.666667
1414.852499	20802.000000
1415.968632	20757.000000
1417.084340	20784.000000
1418.199625	20704.000000
1419.314486	20588.333333
1420.428925	20709.000000
1421.542940	20451.666667
1422.656533	20542.666667
1423.769703	20436.666667
1424.882451	20532.666667
1425.994777	20459.000000
1427.106680	20375.666667
1428.218163	20292.000000
1429.329223	20240.333333
1430.439863	20185.333333
1431.550081	20122.000000
1432.659879	20179.666667
1433.769256	20068.000000
1434.878212	20147.666667
1435.986749	20073.333333
1437.094865	20045.333333
1438.202562	20096.000000
1439.309839	20090.000000
1440.416696	20134.333333
1441.523135	20147.000000
1442.629154	20160.666667
1443.734755	20224.666667
1444.839937	20011.000000
1445.944701	20094.000000
1447.049047	20128.000000
1448.152975	20119.666667
1449.256485	20140.000000
1450.359577	20187.000000
1451.462253	20257.666667
1452.564511	20095.000000
1453.666352	20198.000000
1454.767777	20191.333333
1455.868785	20147.333333
1456.969377	20005.000000
1458.069553	19900.000000
1459.169313	19794.333333
1460.268658	19849.666667
1461.367587	19653.000000
1462.466101	19648.333333
1463.564200	19625.333333
1464.661884	19463.666667
1465.759153	19504.000000
1466.856008	19470.333333
1467.952449	19242.000000
1469.048476	19183.000000
1470.144089	19166.333333
1471.239288	19075.000000
1472.334074	19053.333333
1473.428447	18929.666667
1474.522407	18894.000000
1475.615955	18942.000000
1476.709089	18731.333333
1477.801812	18809.000000
1478.894122	18826.000000
1479.986020	18666.666667
1481.077506	18729.333333
1482.168581	18769.666667
1483.259245	18694.666667
1484.349498	18755.666667
1485.439339	18843.000000
1486.528770	18645.000000
1487.617790	18676.000000
1488.706400	18770.000000
1489.794600	18536.666667
1490.882390	18541.333333
1491.969771	18541.333333
1493.056742	18509.666667
1494.143303	18547.333333
1495.229456	18584.666667
1496.315199	18513.000000
1497.400534	18467.000000
1498.485460	18222.333333
1499.569978	18235.333333
1500.654088	18118.333333
1501.737790	18072.333333
1502.821085	18105.000000
1503.903972	18029.666667
1504.986451	17935.666667
1506.068524	18066.000000
1507.150189	17912.000000
1508.231448	17773.666667
1509.312301	17806.000000
1510.392747	17779.000000
1511.472787	17758.666667
1512.552422	17647.333333
1513.631650	17604.666667
1514.710473	17634.000000
1515.788891	17760.666667
1516.866904	17714.333333
1517.944512	17669.000000
1519.021715	17757.666667
1520.098513	17745.666667
1521.174908	17710.000000
1522.250898	17679.000000
1523.326485	17649.666667
1524.401667	17594.000000
1525.476447	17580.000000
1526.550823	17662.000000
1527.624796	17605.000000
1528.698365	17545.666667
1529.771533	17483.333333
1530.844298	17627.000000
1531.916660	17460.000000
1532.988620	17407.333333
1534.060179	17507.000000
1535.131336	17358.000000
1536.202091	17205.666667
1537.272445	17242.333333
1538.342398	17164.000000
1539.411950	16923.000000
1540.481101	17082.000000
1541.549851	16995.000000
1542.618202	16948.666667
1543.686152	16783.666667
1544.753702	16859.333333
1545.820853	16862.000000
1546.887604	16812.333333
1547.953955	16840.666667
1549.019908	16821.666667
1550.085461	16760.666667
1551.150616	16818.000000
1552.215372	16688.000000
1553.279730	16803.666667
1554.343690	16717.333333
1555.407252	16677.666667
1556.470415	16657.333333
1557.533182	16665.666667
1558.595551	16627.333333
1559.657522	16645.000000
1560.719097	16583.333333
1561.780275	16669.666667
1562.841056	16573.000000
1563.901441	16588.333333
1564.961429	16520.666667
1566.021022	16542.000000
1567.080219	16511.000000
1568.139020	16561.000000
1569.197425	16427.333333
1570.255436	16370.000000
1571.313051	16364.666667
1572.370271	16396.333333
1573.427097	16311.000000
1574.483528	16257.666667
1575.539565	16196.000000
1576.595208	16146.333333
1577.650457	16000.000000
1578.705312	16056.666667
1579.759774	15904.333333
1580.813842	15844.333333
1581.867517	15882.333333
1582.920799	15777.000000
1583.973689	15621.000000
1585.026186	15689.333333
1586.078290	15703.666667
1587.130002	15700.000000
1588.181323	15849.333333
1589.232251	15766.666667
1590.282788	15721.666667
1591.332933	15485.000000
1592.382688	15655.000000
1593.432051	15666.666667
1594.481023	15590.000000
1595.529605	15478.666667
1596.577796	15692.000000
1597.625597	15694.000000
1598.673007	15705.666667
1599.720028	15794.000000
1600.766660	15638.666667
1601.812901	15624.333333
1602.858753	15826.666667
1603.904217	15627.666667
1604.949291	15671.666667
1605.993976	15685.666667
1607.038273	15686.000000
1608.082182	15544.000000
1609.125702	15470.333333
1610.168834	15449.666667
1611.211579	15306.000000
1612.253935	15181.333333
1613.295905	15141.333333
1614.337487	15055.000000
1615.378682	15083.333333
1616.419490	15037.000000
1617.459912	14979.333333
1618.499946	14962.666667
1619.539595	15009.333333
1620.578858	15073.666667
1621.617734	15044.000000
1622.656225	15005.666667
1623.694330	15014.333333
1624.732050	14942.666667
1625.769385	14920.000000
1626.806334	14835.666667
1627.842899	14822.333333
1628.879079	14764.666667
1629.914875	14610.666667
1630.950286	14747.666667
1631.985314	14771.333333
1633.019957	14756.000000
1634.054217	14778.333333
1635.088093	14753.666667
1636.121586	14756.666667
1637.154696	14758.333333
1638.187423	14787.333333
1639.219767	14784.000000
1640.251728	14813.000000
1641.283307	14733.000000
1642.314504	14802.666667
1643.345319	14789.333333
1644.375751	14677.000000
1645.405803	14714.000000
1646.435472	14689.000000
1647.464761	14574.000000
1648.493668	14569.666667
1649.522194	14492.666667
1650.550340	14568.000000
1651.578105	14579.333333
1652.605490	14542.000000
1653.632494	14524.000000
1654.659119	14369.333333
1655.685363	14267.666667
1656.711228	14123.333333
1657.736714	14200.333333
1658.761820	14192.666667
1659.786547	14152.333333
1660.810895	14106.333333
1661.834865	14035.000000
1662.858456	14098.333333
1663.881668	14057.333333
1664.904503	13994.000000
1665.926959	13941.000000
1666.949038	13873.333333
1667.970739	13804.000000
1668.992062	13888.000000
1670.013008	13987.666667
1671.033577	13948.333333
1672.053770	13897.666667
1673.073585	13901.000000
1674.093024	13852.666667
1675.112086	13959.000000
1676.130773	13845.333333
1677.149083	13866.666667
1678.167017	13720.000000
1679.184576	13815.666667
1680.201760	13743.333333
1681.218568	13819.000000
1682.235001	13770.000000
1683.251059	13893.666667
1684.266742	13806.666667
1685.282051	13671.666667
1686.296985	13746.000000
1687.311546	13641.000000
1688.325732	13640.666667
1689.339544	13552.333333
1690.352983	13424.666667
1691.366048	13398.000000
1692.378740	13309.666667
1693.391058	13251.333333
1694.403004	13280.000000
1695.414577	13221.000000
1696.425778	13091.666667
1697.436606	13081.000000
1698.447061	13069.333333
1699.457145	13047.333333
1700.466857	12852.000000
1701.476197	12859.333333
1702.485166	12749.333333
1703.493763	12635.333333
1704.501989	12691.666667
1705.509844	12733.000000
1706.517328	12698.000000
1707.524442	12655.333333
1708.531185	12697.666667
1709.537558	12743.666667
1710.543561	12735.000000
1711.549194	12582.333333
1712.554457	12583.333333
1713.559351	12575.000000
1714.563875	12572.333333
1715.568030	12545.333333
1716.571816	12532.000000
1717.575233	12597.000000
1718.578282	12719.666667
1719.580962	12654.000000
1720.583273	12714.333333
1721.585217	12851.333333
1722.586792	12720.666667
1723.588000	12620.666667
1724.588840	12613.333333
1725.589312	12518.333333
1726.589418	12488.666667
1727.589156	12603.000000
1728.588527	12529.000000
1729.587532	12639.666667
1730.586170	12450.000000
1731.584441	12496.666667
1732.582346	12418.666667
1733.579886	12381.666667
1734.577059	12307.333333
1735.573867	12287.000000
1736.570309	12281.000000
1737.566386	12206.000000
1738.562097	12252.666667
1739.557444	12138.666667
1740.552426	11991.333333
1741.547043	11989.333333
1742.541295	11929.666667
1743.535184	11902.666667
1744.528708	11963.666667
1745.521868	11964.666667
1746.514664	11895.333333
1747.507097	11876.000000
1748.499166	11732.333333
1749.490873	11776.000000
1750.482216	11687.666667
1751.473196	11848.333333
1752.463813	11836.333333
1753.454068	11794.666667
1754.443960	11835.666667
1755.433490	11821.333333
1756.422658	11728.333333
1757.411464	11718.000000
1758.399908	11632.666667
1759.387991	11662.000000
1760.375713	11734.000000
1761.363073	11697.666667
1762.350072	11769.666667
1763.336711	11677.333333
1764.322988	11630.000000
1765.308905	11640.000000
1766.294462	11694.000000
1767.279659	11553.000000
1768.264496	11578.333333
1769.248972	11383.666667
1770.233089	11423.666667
1771.216847	11331.000000
1772.200245	11256.333333
1773.183284	11336.333333
1774.165965	11315.333333
1775.148286	11238.000000
1776.130249	11235.666667
1777.111853	11144.000000
1778.093099	11114.666667
1779.073987	10919.333333
1780.054517	10997.333333
1781.034689	10956.666667
1782.014503	10878.000000
1782.993960	10724.666667
1783.973060	10694.666667
1784.951802	10533.666667
1785.930188	10622.000000
1786.908217	10572.000000
1787.885889	10538.333333
1788.863205	10663.000000
1789.840164	10549.000000
1790.816768	10490.333333
1791.793015	10439.000000
1792.768907	10506.000000
1793.744443	10437.333333
1794.719624	10509.666667
1795.694449	10553.000000
1796.668919	10571.333333
1797.643035	10631.333333
1798.616795	10593.666667
1799.590201	10588.333333
1800.563253	10626.000000
1801.535950	10569.000000
1802.508294	10602.000000
1803.480283	10573.666667
1804.451919	10570.666667
1805.423201	10595.666667
1806.394129	10605.666667
1807.364705	10668.333333
1808.334927	10638.333333
1809.304796	10640.000000
1810.274313	10627.333333
1811.243477	10427.333333
1812.212288	10362.666667
1813.180747	10340.000000
1814.148855	10329.666667
1815.116610	10258.333333
1816.084013	10222.333333
1817.051065	10315.666667
1818.017766	10237.333333
1818.984115	10290.666667
1819.950113	10183.666667
1820.915760	10218.000000
1821.881057	10145.666667
1822.846003	10045.333333
1823.810598	10098.000000
1824.774843	10090.000000
1825.738738	10048.666667
1826.702283	10035.000000
1827.665479	10057.666667
1828.628324	9973.333333
1829.590821	9949.000000
1830.552968	10022.000000
1831.514765	9891.000000
1832.476214	9946.000000
1833.437314	9961.000000
1834.398066	9881.666667
1835.358469	9884.333333
1836.318524	9951.333333
1837.278230	9820.666667
1838.237589	9903.666667
1839.196600	9888.666667
1840.155263	9893.333333
1841.113578	9932.666667
1842.071547	9917.333333
1843.029168	10041.333333
1843.986442	9994.333333
1844.943369	10004.000000
1845.899950	10014.333333
1846.856184	9955.333333
1847.812072	9956.000000
1848.767614	9888.333333
1849.722809	9945.333333
1850.677659	9817.000000
1851.632163	9879.000000
1852.586322	9813.000000
1853.540135	9882.000000
1854.493603	9853.000000
1855.446726	9864.333333
1856.399504	9784.000000
1857.351937	9799.333333
1858.304026	9738.666667
1859.255770	9688.333333
1860.207170	9612.666667
1861.158227	9546.666667
1862.108939	9482.333333
1863.059307	9435.333333
1864.009332	9364.000000
1864.959013	9315.333333
1865.908351	9398.333333
1866.857346	9341.666667
1867.805998	9251.000000
1868.754307	9187.333333
1869.702274	9259.000000
1870.649898	9360.000000
1871.597180	9229.666667
1872.544119	9226.333333
1873.490717	9233.666667
1874.436973	9121.333333
1875.382887	9138.000000
1876.328459	9171.333333
1877.273691	9072.333333
1878.218581	9147.000000
1879.163130	9184.000000
1880.107338	9135.666667
1881.051205	9159.666667
1881.994732	9181.000000
1882.937919	9141.666667
1883.880765	9184.666667
1884.823271	9146.333333
1885.765437	9195.666667
1886.707264	9163.333333
1887.648750	9246.000000
1888.589898	9134.000000
1889.530706	9238.000000
1890.471175	9157.666667
1891.411305	9134.000000
1892.351096	9182.000000
1893.290548	9222.666667
1894.229662	9122.666667
1895.168438	9126.333333
1896.106876	9173.333333
1897.044975	8987.333333
1897.982737	9066.666667
1898.920160	8935.666667
1899.857247	8986.000000
1900.793996	8951.666667
1901.730407	8968.000000
1902.666482	8862.333333
1903.602219	8828.000000
1904.537620	8790.333333
1905.472685	8743.333333
1906.407412	8675.000000
1907.341804	8554.666667
1908.275859	8552.666667
1909.209579	8479.000000
1910.142962	8539.000000
1911.076010	8442.000000
1912.008722	8436.333333
1912.941099	8365.333333
1913.873141	8311.000000
1914.804848	8309.666667
1915.736219	8286.333333
1916.667256	8276.666667
1917.597959	8378.333333
1918.528327	8374.000000
1919.458360	8292.666667
1920.388060	8345.666667
1921.317426	8287.666667
1922.246457	8217.666667
1923.175156	8317.333333
1924.103520	8296.333333
1925.031552	8277.000000
1925.959250	8368.666667
1926.886615	8307.000000
1927.813647	8229.333333
1928.740346	8276.666667
1929.666713	8243.666667
1930.592748	8245.000000
1931.518450	8284.000000
1932.443820	8241.333333
1933.368858	8170.000000
1934.293564	8248.666667
1935.217939	8162.666667
1936.141982	8194.333333
1937.065694	8197.666667
1937.989074	8121.333333
1938.912124	8028.000000
1939.834842	8069.333333
1940.757230	7956.000000
1941.679287	7991.666667
1942.601014	7945.000000
1943.522411	7935.333333
1944.443477	7941.666667
1945.364214	7897.666667
1946.284621	7815.000000
1947.204698	7825.333333
1948.124445	7728.666667
1949.043863	7653.666667
1949.962952	7626.000000
1950.881712	7591.000000
1951.800143	7622.000000
1952.718245	7569.666667
1953.636019	7520.666667
1954.553464	7587.666667
1955.470581	7490.333333
1956.387369	7541.333333
1957.303830	7536.000000
1958.219963	7448.666667
1959.135768	7545.666667
1960.051246	7450.333333
1960.966396	7564.333333
1961.881219	7572.666667
1962.795715	7526.333333
1963.709883	7557.666667
1964.623726	7594.333333
1965.537241	7587.666667
1966.450430	7668.000000
1967.363293	7556.666667
1968.275829	7551.666667
1969.188040	7531.333333
1970.099924	7547.666667
1971.011483	7573.000000
1971.922716	7539.000000
1972.833624	7540.333333
1973.744206	7569.333333
1974.654464	7639.333333
1975.564396	7535.000000
1976.474004	7548.666667
1977.383286	7513.333333
1978.292245	7400.333333
1979.200878	7427.000000
1980.109188	7385.666667
1981.017174	7331.333333
1981.924835	7281.000000
1982.832173	7268.333333
1983.739187	7208.000000
1984.645878	7188.333333
1985.552245	7153.666667
1986.458289	7185.666667
1987.364010	7131.666667
1988.269408	7065.000000
1989.174484	7088.000000
1990.079236	7014.000000
1990.983667	6932.666667
1991.887775	6940.333333
1992.791561	6986.666667
1993.695024	6951.000000
1994.598166	6865.000000
1995.500986	6962.000000
1996.403485	6908.666667
1997.305662	6964.000000
1998.207518	6929.666667
1999.109053	6875.666667
