200.151048	27506.000000
201.758777	27270.666667
203.365815	27300.000000
204.972162	27262.333333
206.577820	27046.000000
208.182787	27028.666667
209.787065	27010.000000
211.390653	26826.333333
212.993553	26796.000000
214.595765	26783.333333
216.197289	26671.666667
217.798125	26603.333333
219.398274	26561.000000
220.997737	26558.333333
222.596513	26656.333333
224.194603	26567.333333
225.792008	26339.333333
227.388728	26259.666667
228.984763	26345.333333
230.580114	26282.333333
232.174781	26412.666667
233.768765	26281.666667
235.362065	26167.666667
236.954683	26036.333333
238.546619	26036.333333
240.137872	26065.666667
241.728445	25997.666667
243.318336	25884.333333
244.907546	25881.000000
246.496076	25779.666667
248.083926	25717.333333
249.671097	25768.000000
251.257589	25631.666667
252.843402	25459.666667
254.428536	25403.666667
256.012993	25393.000000
257.596772	25327.000000
259.179874	25245.000000
260.762300	25227.666667
262.344049	25218.000000
263.925122	25236.666667
265.505519	25047.666667
267.085241	25156.333333
268.664289	25145.000000
270.242662	25055.666667
271.820361	24969.666667
273.397387	25062.000000
274.973740	24973.666667
276.549419	25046.666667
278.124426	24990.000000
279.698762	24917.666667
281.272425	25005.666667
282.845417	25074.000000
284.417739	24956.666667
285.989390	24981.333333
287.560371	24989.000000
289.130682	25062.333333
290.700324	24960.666667
292.269297	25085.666667
293.837602	24952.666667
295.405238	24981.333333
296.972207	25087.666667
298.538508	24930.333333
300.104142	24784.000000
301.669110	24778.000000
303.233411	24724.000000
304.797047	24601.000000
306.360017	24461.333333
307.922322	24523.000000
309.483963	24360.333333
311.044939	24299.000000
312.605252	24228.333333
314.164900	24307.666667
315.723886	24167.333333
317.282209	24198.000000
318.839870	24039.000000
320.396868	24022.666667
321.953205	23783.333333
323.508881	23839.666667
325.063896	23878.333333
326.618251	23810.666667
328.171945	23761.666667
329.724980	23753.333333
331.277356	23736.333333
332.829072	23771.666667
334.380131	23697.000000
335.930530	23683.666667
337.480273	23846.000000
339.029357	23733.666667
340.577785	23584.000000
342.125556	23731.666667
343.672671	23580.666667
345.219130	23644.666667
346.764933	23566.000000
348.310081	23548.666667
349.854575	23637.333333
351.398414	23425.333333
352.941599	23557.333333
354.484130	23485.000000
356.026008	23486.666667
357.567234	23459.666667
359.107807	23278.333333
360.647727	23390.333333
362.186996	23330.666667
363.725614	23338.666667
365.263580	23401.000000
366.800896	23197.333333
368.337562	23234.000000
369.873578	23245.666667
371.408944	23351.333333
372.943661	23290.333333
374.477730	23095.666667
376.011150	23149.000000
377.543922	23231.666667
379.076046	23208.333333
380.607523	23336.666667
382.138353	23267.333333
383.668537	23285.000000
385.198075	23322.000000
386.726966	23351.333333
388.255213	23372.333333
389.782814	23334.000000
391.309770	23155.666667
392.836083	23364.333333
394.361751	23408.333333
395.886776	23343.333333
397.411157	23385.666667
398.934896	23434.666667
400.457992	23399.333333
401.980446	23556.666667
403.502258	23562.333333
405.023429	23608.666667
406.543959	23579.333333
408.063849	23658.666667
409.583098	23797.333333
411.101707	23891.333333
412.619677	24019.666667
414.137007	23963.000000
415.653699	24320.333333
417.169752	24396.666667
418.685167	24544.000000
420.199945	24651.666667
421.714085	24742.666667
423.227588	25161.000000
424.740454	25196.333333
426.252684	25332.000000
427.764279	25186.666667
429.275238	25202.666667
430.785561	25222.000000
432.295250	25035.666667
433.804304	24913.000000
435.312725	24751.333333
436.820511	24517.000000
438.327664	24412.000000
439.834185	24259.666667
441.340072	24309.666667
442.845327	24072.000000
444.349951	24148.666667
445.853942	24094.000000
447.357303	23894.333333
448.860033	23903.333333
450.362132	23749.333333
451.863601	23687.000000
453.364440	23552.000000
454.864650	23326.666667
456.364231	23220.666667
457.863183	23179.000000
459.361507	22984.333333
460.859203	22885.000000
462.356271	22542.666667
463.852712	22522.333333
465.348526	22476.666667
466.843714	22318.666667
468.338275	22260.333333
469.832210	22329.666667
471.325520	22199.333333
472.818205	22127.000000
474.310265	22109.000000
475.801700	21932.333333
477.292512	21944.666667
478.782700	21918.333333
480.272264	21816.666667
481.761205	21801.000000
483.249524	21747.000000
484.737221	21868.666667
486.224295	21612.333333
487.710748	21537.666667
489.196579	21659.000000
490.681790	21571.333333
492.166380	21593.000000
493.650350	21539.000000
495.133700	21497.666667
496.616431	21516.666667
498.098542	21533.000000
499.580035	21416.666667
501.060909	21387.666667
502.541165	21322.000000
504.020804	21399.000000
505.499825	21296.333333
506.978228	21382.000000
508.456016	21267.333333
509.933186	21260.333333
511.409741	21229.666667
512.885680	21155.333333
514.361004	21144.333333
515.835713	21129.333333
517.309807	21170.333333
518.783287	21085.333333
520.256153	21229.666667
521.728406	21153.666667
523.200045	21393.666667
524.671071	21204.333333
526.141485	21158.333333
527.611287	21188.333333
529.080476	21265.333333
530.549054	21179.333333
532.017021	21204.333333
533.484378	21069.333333
534.951123	21223.333333
536.417259	20945.333333
537.882785	21118.000000
539.347701	21140.000000
540.812008	21127.000000
542.275707	20985.333333
543.738797	20954.000000
545.201279	21024.000000
546.663153	21047.666667
548.124420	21057.666667
549.585080	21032.000000
551.045133	21130.333333
552.504579	21027.000000
553.963420	21135.333333
555.421655	21156.000000
556.879285	21213.333333
558.336309	21257.000000
559.792729	21358.000000
561.248545	21283.333333
562.703756	21256.666667
564.158364	21387.666667
565.612369	21431.000000
567.065770	21504.666667
568.518569	21514.333333
569.970766	21691.000000
571.422361	21810.000000
572.873354	21903.333333
574.323745	21932.000000
575.773536	22151.666667
577.222726	22071.000000
578.671316	22162.000000
580.119306	22215.333333
581.566696	22177.000000
583.013487	22251.666667
584.459679	22171.000000
585.905273	22177.000000
587.350268	22177.666667
588.794665	22047.333333
590.238465	21974.666667
591.681667	21875.333333
593.124272	21785.000000
594.566281	21759.000000
596.007694	21514.666667
597.448510	21318.333333
598.888731	21210.000000
600.328357	21232.333333
601.767388	20944.333333
603.205824	20967.000000
604.643666	20874.000000
606.080914	20862.333333
607.517568	20887.333333
608.953629	20834.333333
610.389097	20824.000000
611.823972	20663.000000
613.258255	20707.666667
614.691946	20520.000000
616.125046	20372.333333
617.557554	20331.000000
618.989471	20278.666667
620.420798	20202.333333
621.851534	20137.333333
623.281680	20041.666667
624.711237	19920.000000
626.140204	19738.666667
627.568582	19719.333333
628.996372	19812.333333
630.423573	19613.000000
631.850186	19632.000000
633.276211	19590.000000
634.701650	19570.333333
636.126501	19501.666667
637.550765	19465.333333
638.974443	19464.000000
640.397535	19372.333333
641.820041	19445.666667
643.241961	19368.666667
644.663297	19350.333333
646.084048	19291.666667
647.504214	19188.000000
648.923796	19251.333333
650.342795	19240.000000
651.761210	19152.000000
653.179041	19321.000000
654.596290	19193.666667
656.012957	19112.000000
657.429041	19058.000000
658.844543	19260.666667
660.259464	19221.000000
661.673804	19107.000000
663.087563	19156.666667
664.500741	19250.333333
665.913339	19157.000000
667.325357	19072.333333
668.736795	19015.333333
670.147654	19038.333333
671.557934	19094.666667
672.967636	19072.333333
674.376759	19007.666667
675.785304	18937.000000
677.193271	18967.000000
678.600661	18963.000000
680.007474	18916.000000
681.413711	18852.333333
682.819370	18912.000000
684.224454	18902.666667
685.628962	18842.333333
687.032895	18826.666667
688.436252	18807.666667
689.839034	18712.333333
691.241242	18765.000000
692.642876	18808.666667
694.043936	18703.333333
695.444422	18731.333333
696.844336	18711.333333
698.243676	18587.666667
699.642443	18697.333333
701.040639	18588.666667
702.438262	18660.666667
703.835313	18560.333333
705.231794	18658.666667
706.627703	18567.000000
708.023041	18564.666667
709.417810	18525.666667
710.812008	18541.666667
712.205636	18511.333333
713.598694	18546.333333
714.991184	18439.666667
716.383105	18523.666667
717.774457	18474.333333
719.165241	18539.333333
720.555457	18516.000000
721.945105	18518.666667
723.334187	18303.666667
724.722701	18432.000000
726.110648	18350.000000
727.498030	18496.666667
728.884845	18446.000000
730.271094	18361.000000
731.656778	18299.333333
733.041897	18344.666667
734.426451	18269.000000
735.810441	18297.666667
737.193866	18224.000000
738.576728	18365.333333
739.959026	18285.000000
741.340760	18287.666667
742.721932	18184.000000
744.102541	18189.666667
745.482588	18082.666667
746.862073	18177.333333
748.240996	18171.000000
749.619358	18174.000000
750.997158	18110.666667
752.374398	18061.666667
753.751077	18191.000000
755.127197	18092.000000
756.502756	18230.000000
757.877756	18156.333333
759.252196	18087.000000
760.626078	17988.333333
761.999400	18145.000000
763.372165	18104.666667
764.744371	18034.333333
766.116020	17961.333333
767.487111	17882.666667
768.857646	17958.000000
770.227623	17926.000000
771.597044	17785.333333
772.965908	17816.666667
774.334217	17811.333333
775.701970	17785.000000
777.069168	17799.666667
778.435811	17705.333333
779.801899	17750.000000
781.167433	17691.000000
782.532412	17744.333333
783.896838	17597.000000
785.260710	17604.000000
786.624029	17574.666667
787.986796	17571.333333
789.349009	17592.333333
790.710671	17600.666667
792.071780	17431.333333
793.432338	17451.333333
794.792344	17490.000000
796.151799	17550.666667
797.510704	17373.000000
798.869058	17319.333333
800.226862	17384.666667
801.584116	17262.333333
802.940820	17324.666667
804.296975	17341.666667
805.652581	17323.666667
807.007638	17402.666667
808.362147	17344.333333
809.716108	17392.333333
811.069521	17372.000000
812.422387	17408.000000
813.774705	17454.000000
815.126476	17392.333333
816.477701	17401.000000
817.828380	17348.666667
819.178512	17365.333333
820.528099	17331.666667
821.877140	17261.666667
823.225637	17219.666667
824.573588	17136.333333
825.920995	17141.666667
827.267857	17216.000000
828.614176	17195.666667
829.959951	17097.666667
831.305183	17123.666667
832.649871	17099.666667
833.994017	17147.000000
835.337620	17183.333333
836.680681	17135.333333
838.023201	17269.666667
839.365178	17194.000000
840.706614	17118.000000
842.047510	17315.333333
843.387864	17302.333333
844.727678	17266.666667
846.066952	17282.000000
847.405687	17399.666667
848.743881	17495.666667
850.081537	17529.333333
851.418653	17566.666667
852.755231	17560.333333
854.091270	17545.333333
855.426771	17582.000000
856.761735	17561.666667
858.096160	17481.000000
859.430049	17378.000000
860.763401	17340.000000
862.096216	17291.000000
863.428495	17224.000000
864.760237	17091.666667
866.091444	17046.000000
867.422115	17175.000000
868.752252	17045.666667
870.081853	17073.666667
871.410919	17056.666667
872.739452	17100.666667
874.067450	17072.666667
875.394914	17035.000000
876.721845	16854.000000
878.048243	16924.333333
879.374108	16999.666667
880.699440	16784.000000
882.024240	16796.666667
883.348508	16752.333333
884.672244	16782.000000
885.995449	16807.000000
887.318122	16584.333333
888.640265	16674.333333
889.961877	16728.666667
891.282959	16579.000000
892.603510	16497.666667
893.923532	16495.000000
895.243024	16494.000000
896.561987	16464.000000
897.880422	16355.333333
899.198327	16375.666667
900.515705	16432.000000
901.832554	16428.000000
903.148875	16308.666667
904.464669	16394.666667
905.779936	16468.000000
907.094676	16438.666667
908.408889	16485.000000
909.722576	16414.666667
911.035737	16383.333333
912.348371	16502.333333
913.660481	16755.333333
914.972065	16828.666667
916.283124	16766.666667
917.593659	16898.333333
918.903669	16976.666667
920.213155	17067.333333
921.522117	16969.333333
922.830556	16991.666667
924.138471	17093.000000
925.445864	16953.666667
926.752733	16892.000000
928.059081	17036.000000
929.364906	16943.000000
930.670209	16993.666667
931.974991	17165.333333
933.279251	17246.000000
934.582990	17342.000000
935.886209	17433.000000
937.188907	17602.666667
938.491085	17690.000000
939.792743	17993.666667
941.093881	18119.333333
942.394500	18426.666667
943.694600	18740.000000
944.994181	19128.666667
946.293243	19554.666667
947.591787	20100.000000
948.889813	20625.333333
950.187322	21485.333333
951.484313	22316.666667
952.780787	23298.000000
954.076744	24111.666667
955.372184	25123.333333
956.667108	25833.333333
957.961516	26363.000000
959.255409	26462.000000
960.548785	26142.333333
961.841647	25433.666667
963.133993	24428.666667
964.425825	23254.333333
965.717142	22079.000000
967.007946	20978.333333
968.298235	19867.000000
969.588011	19025.666667
970.877273	18178.000000
972.166023	17744.666667
973.454259	17217.666667
974.741984	16817.666667
976.029196	16480.000000
977.315895	16174.000000
978.602084	16036.333333
979.887761	15901.000000
981.172926	15799.666667
982.457581	15545.333333
983.741725	15480.333333
985.025359	15470.333333
986.308483	15395.000000
987.591097	15399.333333
988.873202	15324.333333
990.154797	15304.000000
991.435883	15302.333333
992.716461	15313.000000
993.996530	15172.666667
995.276091	15205.666667
996.555144	15159.666667
997.833690	15361.000000
999.111728	15417.666667
1000.389259	15459.333333
1001.666283	15497.666667
1002.942800	15595.666667
1004.218812	15504.333333
1005.494317	15384.000000
1006.769317	15325.000000
1008.043811	15333.333333
1009.317799	15275.666667
1010.591283	15280.666667
1011.864263	15365.666667
1013.136737	15304.000000
1014.408708	15242.666667
1015.680175	15325.333333
1016.951138	15309.000000
1018.221598	15369.333333
1019.491554	15359.666667
1020.761008	15309.000000
1022.029959	15206.666667
1023.298408	15365.000000
1024.566355	15371.333333
1025.833800	15428.333333
1027.100744	15370.333333
1028.367187	15458.333333
1029.633128	15501.000000
1030.898569	15508.333333
1032.163509	15497.666667
1033.427949	15505.333333
1034.691890	15545.000000
1035.955330	15494.000000
1037.218271	15449.333333
1038.480714	15478.666667
1039.742657	15508.333333
1041.004101	15471.666667
1042.265048	15450.666667
1043.525496	15397.000000
1044.785446	15521.333333
1046.044899	15410.000000
1047.303855	15380.333333
1048.562313	15352.000000
1049.820275	15324.666667
1051.077740	15269.000000
1052.334709	15199.333333
1053.591182	15303.666667
1054.847160	15220.000000
1056.102641	15175.000000
1057.357628	15223.333333
1058.612120	15394.333333
1059.866117	15335.333333
1061.119619	15367.000000
1062.372628	15446.000000
1063.625142	15558.333333
1064.877163	15661.000000
1066.128691	15551.666667
1067.379725	15571.666667
1068.630267	15568.000000
1069.880316	15514.333333
1071.129872	15487.000000
1072.378937	15363.666667
1073.627509	15352.333333
1074.875590	15353.000000
1076.123180	15182.000000
1077.370279	14976.666667
1078.616887	14920.666667
1079.863004	14697.666667
1081.108631	14727.000000
1082.353768	14644.333333
1083.598415	14525.666667
1084.842573	14295.000000
1086.086241	14233.666667
1087.329421	14187.333333
1088.572111	14105.000000
1089.814314	14087.666667
1091.056028	14038.333333
1092.297253	14056.333333
1093.537992	13925.000000
1094.778242	13831.000000
1096.018006	13818.333333
1097.257282	13808.000000
1098.496072	13837.333333
1099.734376	13808.666667
1100.972193	13690.333333
1102.209524	13790.666667
1103.446370	13703.000000
1104.682730	13740.333333
1105.918604	13607.333333
1107.153994	13671.333333
1108.388900	13583.666667
1109.623320	13400.000000
1110.857257	13441.000000
1112.090710	13326.666667
1113.323679	13434.666667
1114.556164	13343.000000
1115.788167	13352.000000
1117.019686	13265.333333
1118.250723	13183.666667
1119.481278	13127.666667
1120.711350	13135.000000
1121.940940	13165.000000
1123.170049	13294.000000
1124.398676	13046.000000
1125.626823	13104.000000
1126.854488	13150.333333
1128.081672	13160.666667
1129.308376	13148.333333
1130.534600	13083.000000
1131.760345	13084.666667
1132.985609	12908.000000
1134.210394	13027.333333
1135.434700	12947.333333
1136.658527	12925.000000
1137.881875	12878.333333
1139.104745	12874.000000
1140.327136	12919.333333
1141.549050	12831.000000
1142.770486	12831.333333
1143.991445	12831.666667
1145.211926	12861.333333
1146.431931	12875.333333
1147.651459	12853.333333
1148.870510	12815.000000
1150.089086	12790.666667
1151.307185	12667.000000
1152.524808	12745.333333
1153.741957	12720.666667
1154.958630	12738.333333
1156.174828	12663.333333
1157.390551	12703.666667
1158.605800	12631.000000
1159.820574	12787.000000
1161.034875	12667.333333
1162.248702	12703.666667
1163.462055	12752.333333
1164.674936	12712.666667
1165.887343	12590.000000
1167.099277	12656.333333
1168.310739	12526.333333
1169.521729	12598.000000
1170.732247	12504.333333
1171.942293	12592.666667
1173.151867	12590.666667
1174.360970	12584.333333
1175.569602	12674.666667
1176.777764	12576.333333
1177.985454	12636.666667
1179.192675	12468.000000
1180.399425	12453.000000
1181.605706	12426.666667
1182.811517	12531.666667
1184.016859	12455.333333
1185.221731	12347.666667
1186.426135	12395.666667
1187.630070	12284.333333
1188.833537	12205.000000
1190.036535	12208.666667
1191.239066	12209.666667
1192.441129	12155.333333
1193.642725	12128.666667
1194.843853	12144.666667
1196.044515	12195.000000
1197.244710	12077.333333
1198.444438	12140.000000
1199.643701	12125.666667
1200.842497	12055.000000
1202.040827	12167.333333
1203.238693	12147.000000
1204.436092	12073.666667
1205.633027	12102.000000
1206.829497	12096.000000
1208.025503	12115.333333
1209.221044	12058.666667
1210.416122	12046.666667
1211.610735	11934.333333
1212.804885	11896.333333
1213.998572	11867.333333
1215.191795	12011.000000
1216.384556	11813.333333
1217.576854	11781.333333
1218.768689	11889.000000
1219.960063	11767.666667
1221.150974	11787.666667
1222.341424	11861.333333
1223.531413	11757.000000
1224.720940	11922.000000
1225.910006	11903.333333
1227.098612	11831.333333
1228.286757	11899.000000
1229.474442	11953.333333
1230.661667	12084.666667
1231.848432	11936.666667
1233.034738	11980.666667
1234.220584	12018.000000
1235.405971	12133.000000
1236.590900	12190.333333
1237.775369	12134.333333
1238.959381	12144.333333
1240.142934	12217.666667
1241.326029	12251.666667
1242.508667	12328.666667
1243.690848	12244.000000
1244.872571	12276.000000
1246.053837	12353.000000
1247.234646	12209.000000
1248.414999	12172.333333
1249.594896	12182.000000
1250.774337	12196.000000
1251.953322	12064.333333
1253.131851	12195.000000
1254.309925	12098.333333
1255.487544	12031.333333
1256.664708	12019.000000
1257.841417	12070.333333
1259.017673	11966.000000
1260.193473	11985.666667
1261.368820	11989.000000
1262.543714	12000.666667
1263.718154	12059.000000
1264.892140	11973.000000
1266.065674	11952.333333
1267.238755	11961.666667
1268.411383	12081.333333
1269.583559	12103.333333
1270.755283	11983.000000
1271.926555	11951.000000
1273.097375	11850.666667
1274.267744	11894.000000
1275.437662	11863.666667
1276.607129	11921.000000
1277.776145	11871.000000
1278.944711	11821.666667
1280.112827	11753.000000
1281.280492	11767.666667
1282.447708	11695.000000
1283.614474	11627.333333
1284.780791	11661.333333
1285.946659	11596.333333
1287.112078	11459.333333
1288.277048	11396.666667
1289.441570	11415.333333
1290.605644	11353.666667
1291.769270	11363.333333
1292.932448	11230.333333
1294.095178	11288.000000
1295.257461	11170.000000
1296.419298	11123.666667
1297.580687	11195.000000
1298.741630	11065.000000
1299.902126	11119.666667
1301.062177	11088.333333
1302.221781	11125.333333
1303.380940	11081.333333
1304.539653	11129.333333
1305.697921	11046.666667
1306.855744	11014.333333
1308.013123	11039.666667
1309.170056	11078.000000
1310.326546	11030.000000
1311.482591	11065.333333
1312.638193	10953.666667
1313.793350	11054.666667
1314.948065	11050.666667
1316.102336	10949.666667
1317.256164	11034.666667
1318.409550	10930.333333
1319.562493	10893.666667
1320.714993	10918.666667
1321.867052	10920.000000
1323.018668	10812.000000
1324.169843	10792.666667
1325.320577	10780.333333
1326.470870	10762.666667
1327.620721	10810.000000
1328.770132	10664.000000
1329.919102	10627.000000
1331.067632	10591.666667
1332.215722	10653.000000
1333.363372	10621.333333
1334.510582	10614.333333
1335.657353	10707.666667
1336.803685	10608.000000
1337.949578	10617.333333
1339.095032	10532.666667
1340.240048	10614.666667
1341.384625	10611.333333
1342.528764	10604.333333
1343.672466	10518.000000
1344.815729	10504.000000
1345.958556	10562.333333
1347.100945	10481.666667
1348.242897	10384.333333
1349.384413	10333.666667
1350.525492	10364.000000
1351.666134	10361.000000
1352.806341	10338.333333
1353.946111	10287.000000
1355.085446	10285.333333
1356.224346	10209.000000
1357.362810	10332.000000
1358.500840	10130.000000
1359.638434	10218.666667
1360.775594	10129.000000
1361.912320	10127.000000
1363.048612	10054.333333
1364.184469	10178.666667
1365.319893	10063.000000
1366.454884	10092.666667
1367.589441	10114.000000
1368.723566	10163.333333
1369.857257	9983.666667
1370.990516	10157.000000
1372.123343	10229.666667
1373.255737	10133.333333
1374.387699	10099.333333
1375.519230	10130.333333
1376.650329	10142.000000
1377.780997	10128.000000
1378.911234	10143.333333
1380.041040	10124.333333
1381.170416	10139.000000
1382.299361	10111.666667
1383.427875	10067.000000
1384.555960	10098.666667
1385.683615	10094.666667
1386.810841	10118.666667
1387.937637	10081.333333
1389.064004	10037.666667
1390.189942	10009.666667
1391.315451	10087.666667
1392.440532	10105.333333
1393.565185	9991.000000
1394.689409	10046.000000
1395.813206	9866.666667
1396.936575	9988.666667
1398.059517	9987.333333
1399.182032	9929.000000
1400.304119	10016.333333
1401.425780	9872.333333
1402.547014	9904.000000
1403.667822	9969.666667
1404.788204	9896.000000
1405.908160	9944.000000
1407.027690	10045.666667
1408.146795	9987.333333
1409.265474	9969.333333
1410.383728	9983.666667
1411.501558	9996.666667
1412.618963	9943.666667
1413.735943	9994.000000
1414.852499	10057.333333
1415.968632	10058.666667
1417.084340	10003.666667
1418.199625	10041.000000
1419.314486	10040.333333
1420.428925	10039.666667
1421.542940	10083.666667
1422.656533	10038.000000
1423.769703	10016.000000
1424.882451	9939.333333
1425.994777	9904.000000
1427.106680	9913.000000
1428.218163	9824.666667
1429.329223	9870.666667
1430.439863	9784.000000
1431.550081	9735.333333
1432.659879	9657.000000
1433.769256	9739.666667
1434.878212	9770.000000
1435.986749	9790.000000
1437.094865	9737.333333
1438.202562	9815.000000
1439.309839	9759.333333
1440.416696	9811.000000
1441.523135	9914.000000
1442.629154	9908.666667
1443.734755	9973.666667
1444.839937	9869.000000
1445.944701	9968.000000
1447.049047	10065.333333
1448.152975	9980.666667
1449.256485	10034.666667
1450.359577	10065.666667
1451.462253	9939.333333
1452.564511	9918.000000
1453.666352	9962.000000
1454.767777	9861.666667
1455.868785	9920.333333
1456.969377	9811.000000
1458.069553	9824.000000
1459.169313	9726.000000
1460.268658	9724.666667
1461.367587	9761.000000
1462.466101	9628.666667
1463.564200	9593.666667
1464.661884	9516.333333
1465.759153	9531.333333
1466.856008	9403.000000
1467.952449	9322.000000
1469.048476	9231.000000
1470.144089	9143.333333
1471.239288	9073.000000
1472.334074	9028.000000
1473.428447	8867.333333
1474.522407	8892.666667
1475.615955	8845.666667
1476.709089	8843.666667
1477.801812	8788.666667
1478.894122	8751.666667
1479.986020	8732.666667
1481.077506	8642.333333
1482.168581	8579.333333
1483.259245	8650.000000
1484.349498	8618.666667
1485.439339	8572.333333
1486.528770	8568.666667
1487.617790	8568.333333
1488.706400	8507.000000
1489.794600	8506.000000
1490.882390	8488.000000
1491.969771	8508.666667
1493.056742	8390.333333
1494.143303	8457.666667
1495.229456	8378.333333
1496.315199	8494.666667
1497.400534	8410.000000
1498.485460	8386.000000
1499.569978	8386.000000
1500.654088	8265.000000
1501.737790	8340.000000
1502.821085	8251.666667
1503.903972	8198.333333
1504.986451	8277.666667
1506.068524	8177.666667
1507.150189	8223.000000
1508.231448	8114.666667
1509.312301	8108.333333
1510.392747	8149.333333
1511.472787	8153.666667
1512.552422	8054.000000
1513.631650	8047.000000
1514.710473	8105.666667
1515.788891	8027.333333
1516.866904	8083.333333
1517.944512	7999.333333
1519.021715	8053.000000
1520.098513	7998.666667
1521.174908	8051.666667
1522.250898	8047.000000
1523.326485	8075.333333
1524.401667	7989.666667
1525.476447	8020.000000
1526.550823	7995.666667
1527.624796	7962.333333
1528.698365	7958.000000
1529.771533	7994.333333
1530.844298	7983.666667
1531.916660	7931.666667
1532.988620	7946.333333
1534.060179	7921.000000
1535.131336	7958.333333
1536.202091	7849.000000
1537.272445	7861.333333
1538.342398	7849.666667
1539.411950	7897.333333
1540.481101	7877.333333
1541.549851	7850.000000
1542.618202	7796.666667
1543.686152	7750.333333
1544.753702	7699.000000
1545.820853	7761.000000
1546.887604	7676.000000
1547.953955	7705.333333
1549.019908	7688.000000
1550.085461	7738.333333
1551.150616	7697.666667
1552.215372	7591.666667
1553.279730	7639.333333
1554.343690	7633.000000
1555.407252	7639.000000
1556.470415	7544.333333
1557.533182	7623.000000
1558.595551	7553.666667
1559.657522	7580.333333
1560.719097	7588.000000
1561.780275	7568.000000
1562.841056	7600.000000
1563.901441	7539.000000
1564.961429	7620.666667
1566.021022	7536.000000
1567.080219	7562.000000
1568.139020	7629.333333
1569.197425	7545.333333
1570.255436	7571.666667
1571.313051	7480.333333
1572.370271	7499.666667
1573.427097	7471.000000
1574.483528	7536.666667
1575.539565	7541.000000
1576.595208	7407.333333
1577.650457	7507.333333
1578.705312	7433.666667
1579.759774	7399.666667
1580.813842	7383.333333
1581.867517	7316.333333
1582.920799	7378.666667
1583.973689	7360.000000
1585.026186	7314.333333
1586.078290	7302.333333
1587.130002	7258.666667
1588.181323	7264.000000
1589.232251	7253.333333
1590.282788	7248.000000
1591.332933	7264.333333
1592.382688	7210.333333
1593.432051	7245.666667
1594.481023	7243.000000
1595.529605	7242.666667
1596.577796	7221.666667
1597.625597	7193.000000
1598.673007	7199.666667
1599.720028	7212.333333
1600.766660	7291.333333
1601.812901	7270.666667
1602.858753	7290.000000
1603.904217	7324.666667
1604.949291	7194.333333
1605.993976	7310.666667
1607.038273	7273.666667
1608.082182	7188.000000
1609.125702	7196.000000
1610.168834	7216.000000
1611.211579	7214.000000
1612.253935	7124.333333
1613.295905	7229.666667
1614.337487	7172.000000
1615.378682	7172.000000
1616.419490	7122.666667
1617.459912	7104.333333
1618.499946	7095.333333
1619.539595	7113.000000
1620.578858	7093.666667
1621.617734	7070.333333
1622.656225	7095.666667
1623.694330	7080.333333
1624.732050	7005.666667
1625.769385	6985.333333
1626.806334	7019.666667
1627.842899	7058.333333
1628.879079	7034.333333
1629.914875	7065.333333
1630.950286	7017.666667
1631.985314	7046.666667
1633.019957	7060.666667
1634.054217	7045.000000
1635.088093	7063.666667
1636.121586	7029.000000
1637.154696	7110.000000
1638.187423	6994.000000
1639.219767	7072.000000
1640.251728	7069.000000
1641.283307	7040.000000
1642.314504	7038.000000
1643.345319	7068.666667
1644.375751	7058.000000
1645.405803	7003.000000
1646.435472	7069.666667
1647.464761	7037.333333
1648.493668	7021.000000
1649.522194	7025.000000
1650.550340	6987.000000
1651.578105	7032.333333
1652.605490	7063.333333
1653.632494	7014.000000
1654.659119	6998.666667
1655.685363	6937.333333
1656.711228	7040.000000
1657.736714	6931.666667
1658.761820	6912.666667
1659.786547	6875.333333
1660.810895	6885.000000
1661.834865	6898.000000
1662.858456	6847.000000
1663.881668	6912.000000
1664.904503	6789.666667
1665.926959	6695.000000
1666.949038	6781.333333
1667.970739	6793.000000
1668.992062	6693.000000
1670.013008	6717.666667
1671.033577	6701.000000
1672.053770	6600.666667
1673.073585	6687.000000
1674.093024	6637.666667
1675.112086	6641.000000
1676.130773	6603.666667
1677.149083	6607.666667
1678.167017	6547.000000
1679.184576	6595.333333
1680.201760	6549.000000
1681.218568	6535.000000
1682.235001	6539.333333
1683.251059	6498.333333
1684.266742	6484.666667
1685.282051	6493.333333
1686.296985	6468.000000
1687.311546	6466.333333
1688.325732	6445.666667
1689.339544	6388.000000
1690.352983	6338.333333
1691.366048	6315.666667
1692.378740	6284.666667
1693.391058	6228.333333
1694.403004	6173.333333
1695.414577	6175.333333
1696.425778	6095.000000
1697.436606	6057.666667
1698.447061	5984.000000
1699.457145	6036.000000
1700.466857	5976.333333
1701.476197	5938.333333
1702.485166	5894.666667
1703.493763	5871.666667
1704.501989	5899.666667
1705.509844	5760.666667
1706.517328	5900.000000
1707.524442	5768.000000
1708.531185	5756.000000
1709.537558	5766.666667
1710.543561	5734.666667
1711.549194	5744.000000
1712.554457	5753.666667
1713.559351	5771.333333
1714.563875	5765.000000
1715.568030	5717.333333
1716.571816	5781.333333
1717.575233	5739.000000
1718.578282	5730.333333
1719.580962	5769.333333
1720.583273	5787.000000
1721.585217	5772.666667
1722.586792	5765.666667
1723.588000	5771.000000
1724.588840	5786.666667
1725.589312	5686.000000
1726.589418	5761.666667
1727.589156	5736.666667
1728.588527	5715.666667
1729.587532	5700.000000
1730.586170	5682.000000
1731.584441	5714.000000
1732.582346	5726.666667
1733.579886	5659.666667
1734.577059	5617.333333
1735.573867	5587.000000
1736.570309	5570.000000
1737.566386	5574.000000
1738.562097	5563.333333
1739.557444	5568.666667
1740.552426	5521.000000
1741.547043	5432.333333
1742.541295	5450.666667
1743.535184	5469.000000
1744.528708	5433.666667
1745.521868	5420.333333
1746.514664	5405.666667
1747.507097	5397.000000
1748.499166	5386.666667
1749.490873	5259.666667
1750.482216	5401.666667
1751.473196	5342.333333
1752.463813	5322.333333
1753.454068	5335.333333
1754.443960	5319.000000
1755.433490	5292.666667
1756.422658	5310.333333
1757.411464	5325.666667
1758.399908	5328.333333
1759.387991	5351.333333
1760.375713	5279.666667
1761.363073	5350.000000
1762.350072	5281.666667
1763.336711	5319.000000
1764.322988	5301.333333
1765.308905	5293.000000
1766.294462	5262.666667
1767.279659	5281.666667
1768.264496	5209.000000
1769.248972	5202.666667
1770.233089	5184.666667
1771.216847	5162.333333
1772.200245	5238.333333
1773.183284	5122.333333
1774.165965	5097.333333
1775.148286	5115.666667
1776.130249	5148.000000
1777.111853	5107.000000
1778.093099	5074.333333
1779.073987	5054.666667
1780.054517	4994.333333
1781.034689	4997.666667
1782.014503	4966.333333
1782.993960	4933.333333
1783.973060	4927.000000
1784.951802	4896.333333
1785.930188	4885.666667
1786.908217	4862.000000
1787.885889	4881.000000
1788.863205	4891.000000
1789.840164	4832.666667
1790.816768	4797.000000
1791.793015	4790.000000
1792.768907	4793.333333
1793.744443	4802.000000
1794.719624	4765.666667
1795.694449	4823.666667
1796.668919	4746.333333
1797.643035	4726.333333
1798.616795	4776.000000
1799.590201	4780.333333
1800.563253	4848.000000
1801.535950	4796.666667
1802.508294	4779.333333
1803.480283	4839.000000
1804.451919	4812.333333
1805.423201	4837.000000
1806.394129	4833.333333
1807.364705	4766.666667
1808.334927	4828.000000
1809.304796	4820.666667
1810.274313	4806.000000
1811.243477	4806.000000
1812.212288	4785.666667
1813.180747	4743.666667
1814.148855	4701.000000
1815.116610	4781.666667
1816.084013	4682.000000
1817.051065	4696.666667
1818.017766	4788.333333
1818.984115	4716.333333
1819.950113	4671.333333
1820.915760	4688.333333
1821.881057	4655.000000
1822.846003	4579.333333
1823.810598	4596.333333
1824.774843	4576.333333
1825.738738	4627.000000
1826.702283	4561.666667
1827.665479	4553.333333
1828.628324	4554.333333
1829.590821	4558.000000
1830.552968	4472.666667
1831.514765	4477.000000
1832.476214	4535.000000
1833.437314	4481.666667
1834.398066	4510.666667
1835.358469	4483.000000
1836.318524	4484.666667
1837.278230	4432.333333
1838.237589	4472.000000
1839.196600	4473.333333
1840.155263	4499.666667
1841.113578	4514.333333
1842.071547	4527.333333
1843.029168	4454.666667
1843.986442	4506.666667
1844.943369	4474.000000
1845.899950	4515.333333
1846.856184	4517.333333
1847.812072	4549.000000
1848.767614	4535.666667
1849.722809	4503.000000
1850.677659	4494.000000
1851.632163	4532.333333
1852.586322	4479.333333
1853.540135	4479.333333
1854.493603	4482.000000
1855.446726	4480.000000
1856.399504	4452.666667
1857.351937	4464.000000
1858.304026	4386.666667
1859.255770	4374.000000
1860.207170	4363.333333
1861.158227	4397.333333
1862.108939	4369.666667
1863.059307	4337.666667
1864.009332	4327.666667
1864.959013	4333.000000
1865.908351	4316.333333
1866.857346	4308.333333
1867.805998	4272.000000
1868.754307	4173.000000
1869.702274	4249.333333
1870.649898	4246.333333
1871.597180	4197.666667
1872.544119	4252.666667
1873.490717	4198.000000
1874.436973	4201.000000
1875.382887	4143.333333
1876.328459	4183.333333
1877.273691	4172.666667
1878.218581	4173.666667
1879.163130	4121.000000
1880.107338	4218.000000
1881.051205	4176.333333
1881.994732	4204.333333
1882.937919	4135.000000
1883.880765	4165.333333
1884.823271	4158.000000
1885.765437	4178.000000
1886.707264	4152.333333
1887.648750	4149.666667
1888.589898	4164.000000
1889.530706	4128.333333
1890.471175	4124.666667
1891.411305	4153.666667
1892.351096	4173.666667
1893.290548	4168.000000
1894.229662	4195.333333
1895.168438	4108.000000
1896.106876	4109.333333
1897.044975	4113.666667
1897.982737	4147.000000
1898.920160	4041.000000
1899.857247	4093.666667
1900.793996	4051.666667
1901.730407	4042.000000
1902.666482	4088.000000
1903.602219	4025.333333
1904.537620	4035.333333
1905.472685	3973.666667
1906.407412	3988.000000
1907.341804	4003.666667
1908.275859	3896.666667
1909.209579	3905.666667
1910.142962	3928.333333
1911.076010	3897.000000
1912.008722	3937.000000
1912.941099	3844.666667
1913.873141	3811.000000
1914.804848	3805.666667
1915.736219	3806.333333
1916.667256	3816.333333
1917.597959	3779.333333
1918.528327	3756.000000
1919.458360	3715.333333
1920.388060	3768.000000
1921.317426	3797.333333
1922.246457	3802.000000
1923.175156	3805.000000
1924.103520	3766.000000
1925.031552	3708.000000
1925.959250	3780.000000
1926.886615	3753.666667
1927.813647	3815.000000
1928.740346	3785.666667
1929.666713	3776.000000
1930.592748	3752.666667
1931.518450	3760.000000
1932.443820	3730.666667
1933.368858	3773.000000
1934.293564	3756.333333
1935.217939	3747.333333
1936.141982	3790.000000
1937.065694	3763.666667
1937.989074	3733.333333
1938.912124	3705.333333
1939.834842	3737.333333
1940.757230	3706.000000
1941.679287	3710.000000
1942.601014	3664.000000
1943.522411	3698.000000
1944.443477	3664.000000
1945.364214	3647.000000
1946.284621	3677.333333
1947.204698	3622.666667
1948.124445	3613.666667
1949.043863	3611.333333
1949.962952	3541.666667
1950.881712	3572.333333
1951.800143	3549.333333
1952.718245	3550.666667
1953.636019	3510.333333
1954.553464	3487.000000
1955.470581	3503.000000
1956.387369	3467.666667
1957.303830	3469.333333
1958.219963	3480.333333
1959.135768	3472.666667
1960.051246	3486.000000
1960.966396	3465.333333
1961.881219	3454.000000
1962.795715	3456.666667
1963.709883	3443.666667
1964.623726	3429.333333
1965.537241	3449.333333
1966.450430	3484.666667
1967.363293	3453.000000
1968.275829	3448.333333
1969.188040	3509.000000
1970.099924	3462.666667
1971.011483	3531.666667
1971.922716	3484.000000
1972.833624	3509.666667
1973.744206	3521.333333
1974.654464	3509.000000
1975.564396	3489.333333
1976.474004	3440.333333
1977.383286	3466.000000
1978.292245	3484.666667
1979.200878	3495.333333
1980.109188	3455.000000
1981.017174	3470.333333
1981.924835	3420.666667
1982.832173	3401.000000
1983.739187	3423.333333
1984.645878	3398.666667
1985.552245	3416.666667
1986.458289	3366.666667
1987.364010	3342.333333
1988.269408	3363.333333
1989.174484	3348.333333
1990.079236	3316.000000
1990.983667	3320.000000
1991.887775	3310.000000
1992.791561	3291.666667
1993.695024	3247.666667
1994.598166	3243.000000
1995.500986	3231.333333
1996.403485	3276.666667
1997.305662	3220.333333
1998.207518	3254.000000
1999.109053	3211.333333
