200.151048	26330.333333
201.758777	26411.666667
203.365815	26338.333333
204.972162	26321.666667
206.577820	26299.333333
208.182787	26225.666667
209.787065	26164.666667
211.390653	26292.333333
212.993553	26048.000000
214.595765	25966.333333
216.197289	26045.000000
217.798125	25947.333333
219.398274	25984.666667
220.997737	26122.666667
222.596513	25934.000000
224.194603	25914.000000
225.792008	26009.000000
227.388728	25889.000000
228.984763	25768.000000
230.580114	25828.666667
232.174781	25799.333333
233.768765	25768.333333
235.362065	25654.000000
236.954683	25584.333333
238.546619	25628.666667
240.137872	25598.000000
241.728445	25545.333333
243.318336	25473.000000
244.907546	25275.333333
246.496076	25452.000000
248.083926	25314.333333
249.671097	25152.666667
251.257589	25056.333333
252.843402	25149.666667
254.428536	25011.333333
256.012993	24995.666667
257.596772	24907.666667
259.179874	24751.333333
260.762300	24860.333333
262.344049	24849.000000
263.925122	24770.333333
265.505519	24794.000000
267.085241	24667.333333
268.664289	24710.000000
270.242662	24829.333333
271.820361	24800.333333
273.397387	24698.333333
274.973740	24609.000000
276.549419	24823.000000
278.124426	24674.333333
279.698762	24789.000000
281.272425	24732.000000
282.845417	24701.333333
284.417739	24806.333333
285.989390	24837.666667
287.560371	24692.000000
289.130682	24761.666667
290.700324	24737.333333
292.269297	24813.666667
293.837602	24841.000000
295.405238	24759.333333
296.972207	24639.666667
298.538508	24557.333333
300.104142	24587.666667
301.669110	24528.000000
303.233411	24490.333333
304.797047	24327.000000
306.360017	24271.666667
307.922322	24192.666667
309.483963	24194.000000
311.044939	24133.666667
312.605252	24077.000000
314.164900	24059.000000
315.723886	23781.333333
317.282209	23869.333333
318.839870	23984.333333
320.396868	23842.666667
321.953205	23659.333333
323.508881	23715.000000
325.063896	23588.666667
326.618251	23667.000000
328.171945	23646.666667
329.724980	23575.333333
331.277356	23705.000000
332.829072	23491.333333
334.380131	23616.666667
335.930530	23679.333333
337.480273	23659.666667
339.029357	23683.333333
340.577785	23556.000000
342.125556	23595.666667
343.672671	23617.333333
345.219130	23482.333333
346.764933	23563.666667
348.310081	23555.000000
349.854575	23436.666667
351.398414	23482.666667
352.941599	23438.333333
354.484130	23427.666667
356.026008	23368.666667
357.567234	23357.333333
359.107807	23375.666667
360.647727	23355.666667
362.186996	23260.000000
363.725614	23354.333333
365.263580	23203.333333
366.800896	23273.666667
368.337562	23214.000000
369.873578	23131.333333
371.408944	23168.666667
372.943661	23060.666667
374.477730	23186.666667
376.011150	23184.666667
377.543922	23178.666667
379.076046	23041.333333
380.607523	22964.666667
382.138353	23051.666667
383.668537	23125.000000
385.198075	23037.666667
386.726966	23101.666667
388.255213	23047.666667
389.782814	23149.000000
391.309770	23288.666667
392.836083	23072.666667
394.361751	23152.000000
395.886776	23233.333333
397.411157	23173.666667
398.934896	23169.000000
400.457992	23226.666667
401.980446	23252.333333
403.502258	23363.666667
405.023429	23159.333333
406.543959	23420.333333
408.063849	23404.666667
409.583098	23448.666667
411.101707	23422.000000
412.619677	23503.000000
414.137007	23674.333333
415.653699	24287.666667
417.169752	23871.333333
418.685167	23902.666667
420.199945	24154.666667
421.714085	24280.333333
423.227588	24352.333333
424.740454	24554.666667
426.252684	24601.333333
427.764279	24663.333333
429.275238	24589.000000
430.785561	24624.000000
432.295250	24328.333333
433.804304	24434.666667
435.312725	24310.333333
436.820511	23859.333333
438.327664	23911.000000
439.834185	23847.666667
441.340072	23813.000000
442.845327	23615.666667
444.349951	23595.000000
445.853942	23532.333333
447.357303	23436.333333
448.860033	23232.000000
450.362132	23344.000000
451.863601	23185.666667
453.364440	23090.000000
454.864650	23014.666667
456.364231	22876.666667
457.863183	22762.333333
459.361507	22768.666667
460.859203	22497.666667
462.356271	22459.000000
463.852712	22359.333333
465.348526	22223.666667
466.843714	22223.000000
468.338275	22142.333333
469.832210	21925.000000
471.325520	21928.333333
472.818205	21965.000000
474.310265	21939.333333
475.801700	21864.333333
477.292512	21730.000000
478.782700	21743.000000
480.272264	21697.333333
481.761205	21759.333333
483.249524	21592.666667
484.737221	21609.000000
486.224295	21626.000000
487.710748	21415.000000
489.196579	21541.666667
490.681790	21457.666667
492.166380	21480.000000
493.650350	21357.333333
495.133700	21519.666667
496.616431	21377.666667
498.098542	21326.000000
499.580035	21332.666667
501.060909	21353.333333
502.541165	21281.000000
504.020804	21308.000000
505.499825	21365.000000
506.978228	21207.000000
508.456016	21152.000000
509.933186	21094.333333
511.409741	21148.333333
512.885680	21083.333333
514.361004	21095.666667
515.835713	21010.666667
517.309807	20973.333333
518.783287	20992.000000
520.256153	21068.333333
521.728406	20982.333333
523.200045	21060.000000
524.671071	20977.666667
526.141485	20964.666667
527.611287	20922.666667
529.080476	20822.000000
530.549054	21009.000000
532.017021	20898.333333
533.484378	20895.666667
534.951123	20873.666667
536.417259	20880.666667
537.882785	20752.666667
539.347701	20636.000000
540.812008	20896.000000
542.275707	20855.000000
543.738797	20813.666667
545.201279	20816.333333
546.663153	20768.000000
548.124420	20845.666667
549.585080	20679.000000
551.045133	20857.666667
552.504579	20842.666667
553.963420	20815.666667
555.421655	20897.333333
556.879285	20986.000000
558.336309	20892.666667
559.792729	21126.666667
561.248545	20984.333333
562.703756	20975.333333
564.158364	20975.333333
565.612369	20977.666667
567.065770	21089.000000
568.518569	21212.000000
569.970766	21223.000000
571.422361	21288.333333
572.873354	21267.333333
574.323745	21509.333333
575.773536	21562.333333
577.222726	21491.666667
578.671316	21706.000000
580.119306	21717.000000
581.566696	21645.333333
583.013487	21698.000000
584.459679	21657.666667
585.905273	21499.666667
587.350268	21533.666667
588.794665	21518.666667
590.238465	21465.000000
591.681667	21478.000000
593.124272	21298.666667
594.566281	21114.000000
596.007694	21100.333333
597.448510	20886.666667
598.888731	20859.333333
600.328357	20610.666667
601.767388	20568.000000
603.205824	20541.333333
604.643666	20477.666667
606.080914	20521.666667
607.517568	20466.666667
608.953629	20591.666667
610.389097	20492.666667
611.823972	20451.000000
613.258255	20262.000000
614.691946	20186.333333
616.125046	20273.000000
617.557554	20031.666667
618.989471	20000.000000
620.420798	19912.333333
621.851534	19983.333333
623.281680	19704.333333
624.711237	19576.666667
626.140204	19566.000000
627.568582	19539.000000
628.996372	19479.666667
630.423573	19387.666667
631.850186	19363.000000
633.276211	19360.000000
634.701650	19338.000000
636.126501	19237.000000
637.550765	19378.000000
638.974443	19238.333333
640.397535	19349.333333
641.820041	19350.333333
643.241961	19217.000000
644.663297	19228.000000
646.084048	19262.666667
647.504214	19123.000000
648.923796	19122.333333
650.342795	19031.666667
651.761210	19101.000000
653.179041	18993.333333
654.596290	18931.000000
656.012957	18975.666667
657.429041	18958.666667
658.844543	18895.000000
660.259464	18925.333333
661.673804	18814.666667
663.087563	18952.000000
664.500741	18911.666667
665.913339	18900.000000
667.325357	18849.333333
668.736795	18928.666667
670.147654	18819.000000
671.557934	18827.666667
672.967636	18715.333333
674.376759	18681.333333
675.785304	18747.666667
677.193271	18679.000000
678.600661	18706.000000
680.007474	18639.333333
681.413711	18712.333333
682.819370	18612.666667
684.224454	18721.333333
685.628962	18587.333333
687.032895	18608.333333
688.436252	18478.000000
689.839034	18571.000000
691.241242	18391.000000
692.642876	18518.666667
694.043936	18394.666667
695.444422	18458.333333
696.844336	18500.000000
698.243676	18300.000000
699.642443	18393.666667
701.040639	18373.333333
702.438262	18317.333333
703.835313	18378.000000
705.231794	18292.000000
706.627703	18374.666667
708.023041	18434.666667
709.417810	18259.666667
710.812008	18178.333333
712.205636	18275.666667
713.598694	18218.666667
714.991184	18179.333333
716.383105	18100.000000
717.774457	18165.333333
719.165241	18188.000000
720.555457	18063.333333
721.945105	18113.666667
723.334187	18076.666667
724.722701	18090.666667
726.110648	18005.666667
727.498030	18022.666667
728.884845	18045.333333
730.271094	18196.000000
731.656778	17849.333333
733.041897	18106.333333
734.426451	18054.333333
735.810441	17932.000000
737.193866	17976.333333
738.576728	18023.000000
739.959026	17902.666667
741.340760	17955.666667
742.721932	17929.333333
744.102541	17748.000000
745.482588	17832.000000
746.862073	17907.666667
748.240996	17882.000000
749.619358	17787.333333
750.997158	17782.333333
752.374398	17886.666667
753.751077	17784.333333
755.127197	17826.333333
756.502756	17763.333333
757.877756	17822.666667
759.252196	17710.666667
760.626078	17646.333333
761.999400	17704.333333
763.372165	17646.000000
764.744371	17663.666667
766.116020	17788.000000
767.487111	17610.666667
768.857646	17550.666667
770.227623	17541.333333
771.597044	17488.666667
772.965908	17424.333333
774.334217	17483.333333
775.701970	17505.000000
777.069168	17386.000000
778.435811	17313.000000
779.801899	17349.333333
781.167433	17362.333333
782.532412	17318.333333
783.896838	17263.000000
785.260710	17239.000000
786.624029	17289.000000
787.986796	17082.000000
789.349009	17212.333333
790.710671	17059.666667
792.071780	17270.000000
793.432338	17078.333333
794.792344	17165.000000
796.151799	17206.000000
797.510704	17072.666667
798.869058	17005.333333
800.226862	16956.000000
801.584116	16980.333333
802.940820	16995.000000
804.296975	16975.333333
805.652581	17011.333333
807.007638	16996.666667
808.362147	17054.333333
809.716108	16978.333333
811.069521	16959.000000
812.422387	17018.000000
813.774705	17050.333333
815.126476	16817.000000
816.477701	16951.000000
817.828380	16902.666667
819.178512	16889.666667
820.528099	16902.000000
821.877140	16943.666667
823.225637	16886.666667
824.573588	16749.333333
825.920995	16938.333333
827.267857	16865.000000
828.614176	16768.666667
829.959951	16782.666667
831.305183	16759.666667
832.649871	16755.000000
833.994017	16619.333333
835.337620	16659.333333
836.680681	16706.666667
838.023201	16698.000000
839.365178	16566.333333
840.706614	16734.000000
842.047510	16754.666667
843.387864	16662.000000
844.727678	16653.333333
846.066952	16715.333333
847.405687	16748.333333
848.743881	16754.000000
850.081537	16787.333333
851.418653	16826.666667
852.755231	16817.666667
854.091270	16900.000000
855.426771	16833.333333
856.761735	16806.000000
858.096160	16793.000000
859.430049	16694.333333
860.763401	16612.000000
862.096216	16729.666667
863.428495	16624.666667
864.760237	16625.666667
866.091444	16554.333333
867.422115	16526.333333
868.752252	16555.333333
870.081853	16471.333333
871.410919	16447.333333
872.739452	16522.000000
874.067450	16469.333333
875.394914	16404.000000
876.721845	16329.666667
878.048243	16373.333333
879.374108	16307.333333
880.699440	16213.000000
882.024240	16282.000000
883.348508	16388.666667
884.672244	16196.666667
885.995449	16218.333333
887.318122	16055.000000
888.640265	16214.666667
889.961877	15980.666667
891.282959	15963.000000
892.603510	15977.000000
893.923532	15988.666667
895.243024	16018.000000
896.561987	15936.666667
897.880422	15865.333333
899.198327	15803.000000
900.515705	15898.666667
901.832554	15823.666667
903.148875	15875.000000
904.464669	15831.333333
905.779936	15776.333333
907.094676	15867.666667
908.408889	15807.000000
909.722576	15896.000000
911.035737	15956.333333
912.348371	15880.333333
913.660481	16039.000000
914.972065	15960.666667
916.283124	16141.333333
917.593659	16015.333333
918.903669	16074.333333
920.213155	16131.000000
921.522117	16061.000000
922.830556	16105.333333
924.138471	15992.666667
925.445864	16143.333333
926.752733	16155.000000
928.059081	16042.000000
929.364906	16170.666667
930.670209	16176.000000
931.974991	16174.666667
933.279251	16339.000000
934.582990	16226.000000
935.886209	16385.666667
937.188907	16504.000000
938.491085	16586.666667
939.792743	16816.333333
941.093881	17020.333333
942.394500	17197.666667
943.694600	17410.333333
944.994181	17731.666667
946.293243	18131.666667
947.591787	18773.000000
948.889813	19050.666667
950.187322	19891.000000
951.484313	20472.000000
952.780787	21235.333333
954.076744	22175.333333
955.372184	22731.333333
956.667108	23476.000000
957.961516	23790.666667
959.255409	23968.666667
960.548785	23663.333333
961.841647	23025.333333
963.133993	22273.666667
964.425825	21326.000000
965.717142	20193.333333
967.007946	19548.333333
968.298235	18531.000000
969.588011	17841.666667
970.877273	17106.666667
972.166023	16662.333333
973.454259	16287.666667
974.741984	16014.666667
976.029196	15701.333333
977.315895	15441.000000
978.602084	15205.333333
979.887761	15226.000000
981.172926	15023.666667
982.457581	14997.333333
983.741725	14962.666667
985.025359	14914.666667
986.308483	14812.666667
987.591097	14830.000000
988.873202	14672.666667
990.154797	14793.000000
991.435883	14603.333333
992.716461	14599.000000
993.996530	14604.000000
995.276091	14616.666667
996.555144	14674.333333
997.833690	14731.000000
999.111728	14716.000000
1000.389259	14941.000000
1001.666283	14844.666667
1002.942800	14811.666667
1004.218812	14770.000000
1005.494317	14795.000000
1006.769317	14726.000000
1008.043811	14612.666667
1009.317799	14869.333333
1010.591283	14653.666667
1011.864263	14726.666667
1013.136737	14592.666667
1014.408708	14654.000000
1015.680175	14713.333333
1016.951138	14654.666667
1018.221598	14601.000000
1019.491554	14649.666667
1020.761008	14669.333333
1022.029959	14662.333333
1023.298408	14714.000000
1024.566355	14693.666667
1025.833800	14609.666667
1027.100744	14726.666667
1028.367187	14637.000000
1029.633128	14716.333333
1030.898569	14769.666667
1032.163509	14834.333333
1033.427949	14734.333333
1034.691890	14749.333333
1035.955330	14615.333333
1037.218271	14724.666667
1038.480714	14718.000000
1039.742657	14715.000000
1041.004101	14833.000000
1042.265048	14842.000000
1043.525496	14716.333333
1044.785446	14691.333333
1046.044899	14642.333333
1047.303855	14569.666667
1048.562313	14693.666667
1049.820275	14547.666667
1051.077740	14631.333333
1052.334709	14438.333333
1053.591182	14471.333333
1054.847160	14518.000000
1056.102641	14447.333333
1057.357628	14534.333333
1058.612120	14424.666667
1059.866117	14516.000000
1061.119619	14565.666667
1062.372628	14588.000000
1063.625142	14752.333333
1064.877163	14634.000000
1066.128691	14737.000000
1067.379725	14716.000000
1068.630267	14785.333333
1069.880316	14758.333333
1071.129872	14744.333333
1072.378937	14627.666667
1073.627509	14560.666667
1074.875590	14583.000000
1076.123180	14345.666667
1077.370279	14255.333333
1078.616887	14133.000000
1079.863004	14066.000000
1081.108631	13836.666667
1082.353768	13805.666667
1083.598415	13818.666667
1084.842573	13669.333333
1086.086241	13668.000000
1087.329421	13541.666667
1088.572111	13617.333333
1089.814314	13488.333333
1091.056028	13334.000000
1092.297253	13397.000000
1093.537992	13294.333333
1094.778242	13273.333333
1096.018006	13263.666667
1097.257282	13228.666667
1098.496072	13214.000000
1099.734376	13155.000000
1100.972193	13152.333333
1102.209524	13181.666667
1103.446370	13155.000000
1104.682730	13194.333333
1105.918604	13152.333333
1107.153994	13036.333333
1108.388900	13022.666667
1109.623320	12974.000000
1110.857257	12969.666667
1112.090710	12890.000000
1113.323679	12792.000000
1114.556164	12803.000000
1115.788167	12701.000000
1117.019686	12759.333333
1118.250723	12694.000000
1119.481278	12670.666667
1120.711350	12757.333333
1121.940940	12643.333333
1123.170049	12583.333333
1124.398676	12565.000000
1125.626823	12673.666667
1126.854488	12596.666667
1128.081672	12589.333333
1129.308376	12589.333333
1130.534600	12516.000000
1131.760345	12633.666667
1132.985609	12506.666667
1134.210394	12499.666667
1135.434700	12450.666667
1136.658527	12425.333333
1137.881875	12484.666667
1139.104745	12465.666667
1140.327136	12464.333333
1141.549050	12452.666667
1142.770486	12511.000000
1143.991445	12362.666667
1145.211926	12447.333333
1146.431931	12437.666667
1147.651459	12351.000000
1148.870510	12405.000000
1150.089086	12219.333333
1151.307185	12363.000000
1152.524808	12409.666667
1153.741957	12247.000000
1154.958630	12309.666667
1156.174828	12276.333333
1157.390551	12263.666667
1158.605800	12259.000000
1159.820574	12402.666667
1161.034875	12177.000000
1162.248702	12150.000000
1163.462055	12176.000000
1164.674936	12180.666667
1165.887343	12169.000000
1167.099277	12178.333333
1168.310739	12160.333333
1169.521729	12177.333333
1170.732247	12172.666667
1171.942293	12129.666667
1173.151867	12089.666667
1174.360970	12161.666667
1175.569602	12090.333333
1176.777764	12108.333333
1177.985454	12082.333333
1179.192675	12093.666667
1180.399425	12079.333333
1181.605706	12038.666667
1182.811517	11974.666667
1184.016859	11953.666667
1185.221731	11907.333333
1186.426135	11858.666667
1187.630070	11805.666667
1188.833537	11811.333333
1190.036535	11833.666667
1191.239066	11782.000000
1192.441129	11655.666667
1193.642725	11693.000000
1194.843853	11668.666667
1196.044515	11721.333333
1197.244710	11670.333333
1198.444438	11713.000000
1199.643701	11682.000000
1200.842497	11775.666667
1202.040827	11803.666667
1203.238693	11632.333333
1204.436092	11715.333333
1205.633027	11679.666667
1206.829497	11662.666667
1208.025503	11677.666667
1209.221044	11551.333333
1210.416122	11539.666667
1211.610735	11563.666667
1212.804885	11527.000000
1213.998572	11526.666667
1215.191795	11504.666667
1216.384556	11452.666667
1217.576854	11472.000000
1218.768689	11426.333333
1219.960063	11422.666667
1221.150974	11410.666667
1222.341424	11498.333333
1223.531413	11411.000000
1224.720940	11431.666667
1225.910006	11476.333333
1227.098612	11513.000000
1228.286757	11426.000000
1229.474442	11482.666667
1230.661667	11515.333333
1231.848432	11527.000000
1233.034738	11616.000000
1234.220584	11570.333333
1235.405971	11511.666667
1236.590900	11698.666667
1237.775369	11569.666667
1238.959381	11724.666667
1240.142934	11604.000000
1241.326029	11701.000000
1242.508667	11685.333333
1243.690848	11598.666667
1244.872571	11693.666667
1246.053837	11633.666667
1247.234646	11627.000000
1248.414999	11557.666667
1249.594896	11509.000000
1250.774337	11492.333333
1251.953322	11479.000000
1253.131851	11523.666667
1254.309925	11440.666667
1255.487544	11400.333333
1256.664708	11369.000000
1257.841417	11388.666667
1259.017673	11367.000000
1260.193473	11318.666667
1261.368820	11355.333333
1262.543714	11378.666667
1263.718154	11466.333333
1264.892140	11334.666667
1266.065674	11424.666667
1267.238755	11397.666667
1268.411383	11295.333333
1269.583559	11403.000000
1270.755283	11377.666667
1271.926555	11268.666667
1273.097375	11372.000000
1274.267744	11321.666667
1275.437662	11369.333333
1276.607129	11296.333333
1277.776145	11358.000000
1278.944711	11215.333333
1280.112827	11229.333333
1281.280492	11185.000000
1282.447708	11174.000000
1283.614474	11089.000000
1284.780791	11063.666667
1285.946659	11049.000000
1287.112078	11009.333333
1288.277048	10998.666667
1289.441570	10828.666667
1290.605644	10817.000000
1291.769270	10765.666667
1292.932448	10862.666667
1294.095178	10812.333333
1295.257461	10767.000000
1296.419298	10802.333333
1297.580687	10673.666667
1298.741630	10670.666667
1299.902126	10611.333333
1301.062177	10677.333333
1302.221781	10694.000000
1303.380940	10703.666667
1304.539653	10722.666667
1305.697921	10657.333333
1306.855744	10754.333333
1308.013123	10566.000000
1309.170056	10551.666667
1310.326546	10674.000000
1311.482591	10636.333333
1312.638193	10611.666667
1313.793350	10641.666667
1314.948065	10684.000000
1316.102336	10614.333333
1317.256164	10664.333333
1318.409550	10594.333333
1319.562493	10491.000000
1320.714993	10478.000000
1321.867052	10521.666667
1323.018668	10448.333333
1324.169843	10363.000000
1325.320577	10395.000000
1326.470870	10361.666667
1327.620721	10341.333333
1328.770132	10339.333333
1329.919102	10353.333333
1331.067632	10242.666667
1332.215722	10312.333333
1333.363372	10273.666667
1334.510582	10288.000000
1335.657353	10235.000000
1336.803685	10245.666667
1337.949578	10326.666667
1339.095032	10189.000000
1340.240048	10264.000000
1341.384625	10290.666667
1342.528764	10210.000000
1343.672466	10307.333333
1344.815729	10289.666667
1345.958556	10218.666667
1347.100945	10195.666667
1348.242897	10157.666667
1349.384413	10107.333333
1350.525492	10115.000000
1351.666134	10093.000000
1352.806341	10039.000000
1353.946111	9979.666667
1355.085446	9976.333333
1356.224346	9949.000000
1357.362810	10024.333333
1358.500840	9941.666667
1359.638434	9878.333333
1360.775594	9885.333333
1361.912320	9870.000000
1363.048612	9822.333333
1364.184469	9738.333333
1365.319893	9819.333333
1366.454884	9761.333333
1367.589441	9788.333333
1368.723566	9856.666667
1369.857257	9708.000000
1370.990516	9829.666667
1372.123343	9800.000000
1373.255737	9836.666667
1374.387699	9880.666667
1375.519230	9796.666667
1376.650329	9863.666667
1377.780997	9828.333333
1378.911234	9846.333333
1380.041040	9745.666667
1381.170416	9789.333333
1382.299361	9834.333333
1383.427875	9768.000000
1384.555960	9806.000000
1385.683615	9744.000000
1386.810841	9770.000000
1387.937637	9823.333333
1389.064004	9717.666667
1390.189942	9713.000000
1391.315451	9652.000000
1392.440532	9631.666667
1393.565185	9700.333333
1394.689409	9601.000000
1395.813206	9642.333333
1396.936575	9573.000000
1398.059517	9528.333333
1399.182032	9637.000000
1400.304119	9522.666667
1401.425780	9512.666667
1402.547014	9557.666667
1403.667822	9582.000000
1404.788204	9532.000000
1405.908160	9518.000000
1407.027690	9616.000000
1408.146795	9524.333333
1409.265474	9523.000000
1410.383728	9573.666667
1411.501558	9602.333333
1412.618963	9550.666667
1413.735943	9551.666667
1414.852499	9576.333333
1415.968632	9440.666667
1417.084340	9490.333333
1418.199625	9555.666667
1419.314486	9547.333333
1420.428925	9592.333333
1421.542940	9555.333333
1422.656533	9534.000000
1423.769703	9478.666667
1424.882451	9556.333333
1425.994777	9456.333333
1427.106680	9452.333333
1428.218163	9427.333333
1429.329223	9426.666667
1430.439863	9336.666667
1431.550081	9331.333333
1432.659879	9330.333333
1433.769256	9311.000000
1434.878212	9307.000000
1435.986749	9375.666667
1437.094865	9355.333333
1438.202562	9348.333333
1439.309839	9281.333333
1440.416696	9317.000000
1441.523135	9378.333333
1442.629154	9346.333333
1443.734755	9386.666667
1444.839937	9402.000000
1445.944701	9441.666667
1447.049047	9420.000000
1448.152975	9484.000000
1449.256485	9424.666667
1450.359577	9486.333333
1451.462253	9323.666667
1452.564511	9452.000000
1453.666352	9434.333333
1454.767777	9300.000000
1455.868785	9409.666667
1456.969377	9259.333333
1458.069553	9329.000000
1459.169313	9263.333333
1460.268658	9257.000000
1461.367587	9190.000000
1462.466101	9218.666667
1463.564200	9136.666667
1464.661884	9133.000000
1465.759153	9048.666667
1466.856008	8940.000000
1467.952449	8936.333333
1469.048476	8801.000000
1470.144089	8786.666667
1471.239288	8752.666667
1472.334074	8636.666667
1473.428447	8691.000000
1474.522407	8575.333333
1475.615955	8571.000000
1476.709089	8532.333333
1477.801812	8587.666667
1478.894122	8515.333333
1479.986020	8489.333333
1481.077506	8472.000000
1482.168581	8462.666667
1483.259245	8420.333333
1484.349498	8417.000000
1485.439339	8385.333333
1486.528770	8457.666667
1487.617790	8395.000000
1488.706400	8344.000000
1489.794600	8482.000000
1490.882390	8378.666667
1491.969771	8335.666667
1493.056742	8336.000000
1494.143303	8326.666667
1495.229456	8300.666667
1496.315199	8351.666667
1497.400534	8268.666667
1498.485460	8284.000000
1499.569978	8301.333333
1500.654088	8188.333333
1501.737790	8185.666667
1502.821085	8087.333333
1503.903972	8115.000000
1504.986451	8153.000000
1506.068524	8112.333333
1507.150189	8058.000000
1508.231448	8071.333333
1509.312301	8097.000000
1510.392747	8055.666667
1511.472787	7947.333333
1512.552422	7962.666667
1513.631650	7994.000000
1514.710473	7942.333333
1515.788891	7872.333333
1516.866904	7944.333333
1517.944512	8006.333333
1519.021715	7962.333333
1520.098513	7948.333333
1521.174908	7987.000000
1522.250898	7934.333333
1523.326485	7892.666667
1524.401667	7903.000000
1525.476447	7889.666667
1526.550823	7946.333333
1527.624796	7911.333333
1528.698365	7869.333333
1529.771533	7987.666667
1530.844298	7860.333333
1531.916660	7878.666667
1532.988620	7956.666667
1534.060179	7855.333333
1535.131336	7857.666667
1536.202091	7795.000000
1537.272445	7799.666667
1538.342398	7875.000000
1539.411950	7799.000000
1540.481101	7768.666667
1541.549851	7672.666667
1542.618202	7737.000000
1543.686152	7689.333333
1544.753702	7684.000000
1545.820853	7729.333333
1546.887604	7642.666667
1547.953955	7553.000000
1549.019908	7724.666667
1550.085461	7664.666667
1551.150616	7625.333333
1552.215372	7595.666667
1553.279730	7570.000000
1554.343690	7577.666667
1555.407252	7560.666667
1556.470415	7567.333333
1557.533182	7495.000000
1558.595551	7499.000000
1559.657522	7536.000000
1560.719097	7529.666667
1561.780275	7527.666667
1562.841056	7513.333333
1563.901441	7517.000000
1564.961429	7466.000000
1566.021022	7433.333333
1567.080219	7442.000000
1568.139020	7428.333333
1569.197425	7426.000000
1570.255436	7545.666667
1571.313051	7466.000000
1572.370271	7396.333333
1573.427097	7451.666667
1574.483528	7392.333333
1575.539565	7317.666667
1576.595208	7389.666667
1577.650457	7335.000000
1578.705312	7362.666667
1579.759774	7304.333333
1580.813842	7329.666667
1581.867517	7254.000000
1582.920799	7261.000000
1583.973689	7238.333333
1585.026186	7185.333333
1586.078290	7165.666667
1587.130002	7124.333333
1588.181323	7215.000000
1589.232251	7155.666667
1590.282788	7194.666667
1591.332933	7102.000000
1592.382688	7127.000000
1593.432051	7127.000000
1594.481023	7118.333333
1595.529605	7083.666667
1596.577796	7149.666667
1597.625597	7187.000000
1598.673007	7215.000000
1599.720028	7193.333333
1600.766660	7159.666667
1601.812901	7169.333333
1602.858753	7193.333333
1603.904217	7205.000000
1604.949291	7146.666667
1605.993976	7222.333333
1607.038273	7169.333333
1608.082182	7187.666667
1609.125702	7118.666667
1610.168834	7112.666667
1611.211579	7152.666667
1612.253935	6973.333333
1613.295905	7095.333333
1614.337487	7042.333333
1615.378682	7031.666667
1616.419490	7036.000000
1617.459912	7048.666667
1618.499946	6989.666667
1619.539595	7009.333333
1620.578858	7032.000000
1621.617734	6942.333333
1622.656225	6997.666667
1623.694330	6901.333333
1624.732050	6925.000000
1625.769385	6912.666667
1626.806334	6897.000000
1627.842899	6861.333333
1628.879079	6914.000000
1629.914875	6863.333333
1630.950286	6883.666667
1631.985314	6882.333333
1633.019957	6915.666667
1634.054217	6918.333333
1635.088093	6904.000000
1636.121586	6925.666667
1637.154696	6815.333333
1638.187423	6856.000000
1639.219767	6875.000000
1640.251728	6913.666667
1641.283307	6915.333333
1642.314504	6883.333333
1643.345319	6867.333333
1644.375751	6826.333333
1645.405803	6935.333333
1646.435472	6897.000000
1647.464761	6859.666667
1648.493668	6866.666667
1649.522194	6933.666667
1650.550340	6862.333333
1651.578105	6889.333333
1652.605490	6910.333333
1653.632494	6784.333333
1654.659119	6826.000000
1655.685363	6840.000000
1656.711228	6780.666667
1657.736714	6720.666667
1658.761820	6765.666667
1659.786547	6730.333333
1660.810895	6718.333333
1661.834865	6752.666667
1662.858456	6665.666667
1663.881668	6634.000000
1664.904503	6603.333333
1665.926959	6586.333333
1666.949038	6612.666667
1667.970739	6544.000000
1668.992062	6515.666667
1670.013008	6518.666667
1671.033577	6502.000000
1672.053770	6507.333333
1673.073585	6484.666667
1674.093024	6448.000000
1675.112086	6486.000000
1676.130773	6470.666667
1677.149083	6409.000000
1678.167017	6432.333333
1679.184576	6474.000000
1680.201760	6443.333333
1681.218568	6410.666667
1682.235001	6402.666667
1683.251059	6379.333333
1684.266742	6406.333333
1685.282051	6404.666667
1686.296985	6361.666667
1687.311546	6296.666667
1688.325732	6329.333333
1689.339544	6272.666667
1690.352983	6243.666667
1691.366048	6229.000000
1692.378740	6178.000000
1693.391058	6128.000000
1694.403004	6057.000000
1695.414577	6082.666667
1696.425778	6124.333333
1697.436606	6051.666667
1698.447061	6023.666667
1699.457145	6028.000000
1700.466857	5982.000000
1701.476197	5964.333333
1702.485166	5921.333333
1703.493763	6251.333333
1704.501989	6480.666667
1705.509844	6311.000000
1706.517328	5970.000000
1707.524442	5784.000000
1708.531185	5824.000000
1709.537558	5743.333333
1710.543561	5802.666667
1711.549194	5693.000000
1712.554457	5776.333333
1713.559351	5721.000000
1714.563875	5793.666667
1715.568030	5739.333333
1716.571816	5749.333333
1717.575233	5727.000000
1718.578282	5764.666667
1719.580962	5761.333333
1720.583273	5706.000000
1721.585217	5831.000000
1722.586792	5746.666667
1723.588000	5741.333333
1724.588840	5735.333333
1725.589312	5730.333333
1726.589418	5754.333333
1727.589156	5758.000000
1728.588527	5788.333333
1729.587532	5759.000000
1730.586170	5789.666667
1731.584441	5754.333333
1732.582346	5647.000000
1733.579886	5709.000000
1734.577059	5664.666667
1735.573867	5617.333333
1736.570309	5655.666667
1737.566386	5659.666667
1738.562097	5661.333333
1739.557444	5560.666667
1740.552426	5503.666667
1741.547043	5552.666667
1742.541295	5535.000000
1743.535184	5483.000000
1744.528708	5497.333333
1745.521868	5442.000000
1746.514664	5416.333333
1747.507097	5416.333333
1748.499166	5350.000000
1749.490873	5432.666667
1750.482216	5410.333333
1751.473196	5383.000000
1752.463813	5390.666667
1753.454068	5356.333333
1754.443960	5379.000000
1755.433490	5357.666667
1756.422658	5367.333333
1757.411464	5343.666667
1758.399908	5384.666667
1759.387991	5314.000000
1760.375713	5389.333333
1761.363073	5370.333333
1762.350072	5281.000000
1763.336711	5388.666667
1764.322988	5291.666667
1765.308905	5303.333333
1766.294462	5264.333333
1767.279659	5287.333333
1768.264496	5229.000000
1769.248972	5260.000000
1770.233089	5226.666667
1771.216847	5153.666667
1772.200245	5175.666667
1773.183284	5241.333333
1774.165965	5163.333333
1775.148286	5178.000000
1776.130249	5146.333333
1777.111853	5129.000000
1778.093099	5129.000000
1779.073987	5103.000000
1780.054517	4997.000000
1781.034689	5010.333333
1782.014503	4963.000000
1782.993960	5009.000000
1783.973060	4984.333333
1784.951802	4953.333333
1785.930188	4933.000000
1786.908217	4908.333333
1787.885889	4849.000000
1788.863205	4819.333333
1789.840164	4921.000000
1790.816768	4827.666667
1791.793015	4841.000000
1792.768907	4828.333333
1793.744443	4807.333333
1794.719624	4845.333333
1795.694449	4795.666667
1796.668919	4803.333333
1797.643035	4793.333333
1798.616795	4850.333333
1799.590201	4801.000000
1800.563253	4827.333333
1801.535950	4775.666667
1802.508294	4824.333333
1803.480283	4816.333333
1804.451919	4789.666667
1805.423201	4802.666667
1806.394129	4847.000000
1807.364705	4798.666667
1808.334927	4801.000000
1809.304796	4840.000000
1810.274313	4805.666667
1811.243477	4853.000000
1812.212288	4774.666667
1813.180747	4799.000000
1814.148855	4795.000000
1815.116610	4768.666667
1816.084013	4799.333333
1817.051065	4754.666667
1818.017766	4754.000000
1818.984115	4714.666667
1819.950113	4734.000000
1820.915760	4721.000000
1821.881057	4681.333333
1822.846003	4687.333333
1823.810598	4678.333333
1824.774843	4681.666667
1825.738738	4641.666667
1826.702283	4631.000000
1827.665479	4605.333333
1828.628324	4588.666667
1829.590821	4604.666667
1830.552968	4594.000000
1831.514765	4568.333333
1832.476214	4600.333333
1833.437314	4570.000000
1834.398066	4545.000000
1835.358469	4529.333333
1836.318524	4488.333333
1837.278230	4580.000000
1838.237589	4593.333333
1839.196600	4459.666667
1840.155263	4532.666667
1841.113578	4563.333333
1842.071547	4513.000000
1843.029168	4571.666667
1843.986442	4577.000000
1844.943369	4562.666667
1845.899950	4502.000000
1846.856184	4590.333333
1847.812072	4580.000000
1848.767614	4576.333333
1849.722809	4531.666667
1850.677659	4549.666667
1851.632163	4539.333333
1852.586322	4556.666667
1853.540135	4530.333333
1854.493603	4497.000000
1855.446726	4521.666667
1856.399504	4520.000000
1857.351937	4538.000000
1858.304026	4469.000000
1859.255770	4424.000000
1860.207170	4438.333333
1861.158227	4397.666667
1862.108939	4361.000000
1863.059307	4402.333333
1864.009332	4292.333333
1864.959013	4407.666667
1865.908351	4331.333333
1866.857346	4333.333333
1867.805998	4375.333333
1868.754307	4275.000000
1869.702274	4269.666667
1870.649898	4271.666667
1871.597180	4257.333333
1872.544119	4245.000000
1873.490717	4194.666667
1874.436973	4198.666667
1875.382887	4208.666667
1876.328459	4196.666667
1877.273691	4168.333333
1878.218581	4198.666667
1879.163130	4266.333333
1880.107338	4172.666667
1881.051205	4162.333333
1881.994732	4166.666667
1882.937919	4151.000000
1883.880765	4205.333333
1884.823271	4204.333333
1885.765437	4190.000000
1886.707264	4193.666667
1887.648750	4178.000000
1888.589898	4198.666667
1889.530706	4196.666667
1890.471175	4167.666667
1891.411305	4186.000000
1892.351096	4169.333333
1893.290548	4165.666667
1894.229662	4165.666667
1895.168438	4116.333333
1896.106876	4190.000000
1897.044975	4192.000000
1897.982737	4194.000000
1898.920160	4175.000000
1899.857247	4125.000000
1900.793996	4168.333333
1901.730407	4129.000000
1902.666482	4128.666667
1903.602219	4089.666667
1904.537620	4076.000000
1905.472685	4033.000000
1906.407412	4014.333333
1907.341804	3972.666667
1908.275859	3980.666667
1909.209579	3950.666667
1910.142962	4012.000000
1911.076010	3912.000000
1912.008722	3882.000000
1912.941099	3943.333333
1913.873141	3945.666667
1914.804848	3892.666667
1915.736219	3880.666667
1916.667256	3810.000000
1917.597959	3855.666667
1918.528327	3818.666667
1919.458360	3769.666667
1920.388060	3786.666667
1921.317426	3805.333333
1922.246457	3804.000000
1923.175156	3792.666667
1924.103520	3812.333333
1925.031552	3793.000000
1925.959250	3813.000000
1926.886615	3825.666667
1927.813647	3744.666667
1928.740346	3859.333333
1929.666713	3791.666667
1930.592748	3799.333333
1931.518450	3825.666667
1932.443820	3797.333333
1933.368858	3817.333333
1934.293564	3809.666667
1935.217939	3803.333333
1936.141982	3803.333333
1937.065694	3815.666667
1937.989074	3792.000000
1938.912124	3719.333333
1939.834842	3767.666667
1940.757230	3762.000000
1941.679287	3762.000000
1942.601014	3730.333333
1943.522411	3725.000000
1944.443477	3742.000000
1945.364214	3740.000000
1946.284621	3707.000000
1947.204698	3688.666667
1948.124445	3670.666667
1949.043863	3650.666667
1949.962952	3612.000000
1950.881712	3575.000000
1951.800143	3569.666667
1952.718245	3509.666667
1953.636019	3590.333333
1954.553464	3501.666667
1955.470581	3500.666667
1956.387369	3512.666667
1957.303830	3556.666667
1958.219963	3511.333333
1959.135768	3530.000000
1960.051246	3506.333333
1960.966396	3513.000000
1961.881219	3478.333333
1962.795715	3509.666667
1963.709883	3526.666667
1964.623726	3455.666667
1965.537241	3547.000000
1966.450430	3518.666667
1967.363293	3548.666667
1968.275829	3519.000000
1969.188040	3538.000000
1970.099924	3524.333333
1971.011483	3545.666667
1971.922716	3547.666667
1972.833624	3520.000000
1973.744206	3545.000000
1974.654464	3524.000000
1975.564396	3553.666667
1976.474004	3522.000000
1977.383286	3514.000000
1978.292245	3495.333333
1979.200878	3510.666667
1980.109188	3483.333333
1981.017174	3481.000000
1981.924835	3502.666667
1982.832173	3500.000000
1983.739187	3437.666667
1984.645878	3437.333333
1985.552245	3423.333333
1986.458289	3368.000000
1987.364010	3365.333333
1988.269408	3434.333333
1989.174484	3378.000000
1990.079236	3317.333333
1990.983667	3344.000000
1991.887775	3338.333333
1992.791561	3314.000000
1993.695024	3331.333333
1994.598166	3324.333333
1995.500986	3302.000000
1996.403485	3249.333333
1997.305662	3276.333333
1998.207518	3249.000000
1999.109053	3253.000000
