200.151048	48438.333333
201.758777	48204.666667
203.365815	48345.666667
204.972162	48091.000000
206.577820	47916.000000
208.182787	47632.666667
209.787065	47480.333333
211.390653	47222.000000
212.993553	47122.333333
214.595765	47088.000000
216.197289	46708.000000
217.798125	46698.000000
219.398274	46568.000000
220.997737	46121.666667
222.596513	46019.333333
224.194603	46079.333333
225.792008	45812.333333
227.388728	45749.333333
228.984763	45604.333333
230.580114	45512.666667
232.174781	45306.000000
233.768765	45168.333333
235.362065	45003.333333
236.954683	44824.000000
238.546619	44627.333333
240.137872	44279.000000
241.728445	44264.000000
243.318336	43991.666667
244.907546	44075.333333
246.496076	43766.666667
248.083926	43508.666667
249.671097	43321.000000
251.257589	43156.333333
252.843402	43009.000000
254.428536	42864.333333
256.012993	42792.333333
257.596772	42331.666667
259.179874	42264.333333
260.762300	42016.333333
262.344049	41983.000000
263.925122	41855.333333
265.505519	41692.666667
267.085241	41607.666667
268.664289	41641.666667
270.242662	41393.333333
271.820361	41278.666667
273.397387	41209.333333
274.973740	41313.333333
276.549419	41169.333333
278.124426	41051.666667
279.698762	41118.000000
281.272425	40880.666667
282.845417	40961.666667
284.417739	40776.666667
285.989390	40868.333333
287.560371	40733.000000
289.130682	40724.333333
290.700324	40615.333333
292.269297	40739.666667
293.837602	40437.333333
295.405238	40277.000000
296.972207	40215.666667
298.538508	40295.333333
300.104142	40156.666667
301.669110	40052.666667
303.233411	39761.333333
304.797047	39692.666667
306.360017	39407.000000
307.922322	39374.333333
309.483963	38921.666667
311.044939	39059.000000
312.605252	38916.666667
314.164900	38682.333333
315.723886	38590.333333
317.282209	38398.000000
318.839870	38426.666667
320.396868	38456.333333
321.953205	38195.666667
323.508881	38073.333333
325.063896	37859.333333
326.618251	37889.666667
328.171945	37862.333333
329.724980	38002.000000
331.277356	37674.000000
332.829072	37622.333333
334.380131	37328.333333
335.930530	37456.333333
337.480273	37281.666667
339.029357	37505.666667
340.577785	37373.333333
342.125556	37284.000000
343.672671	37096.000000
345.219130	37108.333333
346.764933	37041.666667
348.310081	37207.333333
349.854575	36960.666667
351.398414	36933.333333
352.941599	37015.666667
354.484130	36932.000000
356.026008	36812.000000
357.567234	36721.666667
359.107807	36558.333333
360.647727	36613.666667
362.186996	36427.666667
363.725614	36303.666667
365.263580	36206.666667
366.800896	36176.666667
368.337562	36102.000000
369.873578	35964.000000
371.408944	35851.666667
372.943661	35818.666667
374.477730	35602.333333
376.011150	35555.333333
377.543922	35608.666667
379.076046	35640.333333
380.607523	35617.333333
382.138353	35576.333333
383.668537	35421.333333
385.198075	35381.000000
386.726966	35523.333333
388.255213	35447.333333
389.782814	35349.666667
391.309770	35366.666667
392.836083	35325.666667
394.361751	35370.000000
395.886776	35303.333333
397.411157	35409.000000
398.934896	35387.000000
400.457992	35322.666667
401.980446	35385.000000
403.502258	35198.666667
405.023429	35283.000000
406.543959	35264.000000
408.063849	35190.000000
409.583098	35299.333333
411.101707	35355.333333
412.619677	35303.000000
414.137007	35574.000000
415.653699	35372.666667
417.169752	35697.333333
418.685167	35648.333333
420.199945	35942.000000
421.714085	35999.000000
423.227588	36162.666667
424.740454	36080.000000
426.252684	36194.000000
427.764279	36111.666667
429.275238	36114.000000
430.785561	36095.666667
432.295250	35980.666667
433.804304	35833.333333
435.312725	35422.333333
436.820511	35263.333333
438.327664	35248.666667
439.834185	34894.000000
441.340072	34616.333333
442.845327	34509.666667
444.349951	34417.333333
445.853942	34261.333333
447.357303	34169.333333
448.860033	34228.000000
450.362132	34088.000000
451.863601	33925.000000
453.364440	33760.666667
454.864650	33758.333333
456.364231	33322.333333
457.863183	33030.000000
459.361507	33013.333333
460.859203	32821.000000
462.356271	32794.000000
463.852712	32538.666667
465.348526	32365.666667
466.843714	32422.333333
468.338275	32179.333333
469.832210	32253.000000
471.325520	31949.000000
472.818205	31962.333333
474.310265	32021.666667
475.801700	31845.000000
477.292512	31672.333333
478.782700	31775.333333
480.272264	31674.333333
481.761205	31628.666667
483.249524	31453.333333
484.737221	31484.000000
486.224295	31321.333333
487.710748	31163.000000
489.196579	31100.333333
490.681790	31040.000000
492.166380	30970.000000
493.650350	31109.333333
495.133700	31053.666667
496.616431	30864.000000
498.098542	30967.333333
499.580035	30893.666667
501.060909	30934.000000
502.541165	30871.666667
504.020804	30929.333333
505.499825	30874.333333
506.978228	30719.000000
508.456016	30484.333333
509.933186	30371.666667
511.409741	30242.000000
512.885680	30298.000000
514.361004	30350.000000
515.835713	30418.333333
517.309807	30295.333333
518.783287	30221.333333
520.256153	30338.666667
521.728406	30273.666667
523.200045	30227.666667
524.671071	30140.333333
526.141485	30398.000000
527.611287	30036.666667
529.080476	30160.666667
530.549054	29957.000000
532.017021	30155.333333
533.484378	30062.000000
534.951123	29913.000000
536.417259	29892.333333
537.882785	29858.000000
539.347701	29776.666667
540.812008	29662.000000
542.275707	29674.666667
543.738797	29636.333333
545.201279	29703.333333
546.663153	29653.000000
548.124420	29773.000000
549.585080	29965.666667
551.045133	30095.666667
552.504579	29905.333333
553.963420	29940.333333
555.421655	29985.333333
556.879285	29946.666667
558.336309	29821.000000
559.792729	29989.666667
561.248545	29860.333333
562.703756	29917.333333
564.158364	29945.666667
565.612369	29957.333333
567.065770	29947.666667
568.518569	29982.666667
569.970766	30199.666667
571.422361	30179.000000
572.873354	30031.000000
574.323745	30072.000000
575.773536	30240.666667
577.222726	30288.333333
578.671316	30277.333333
580.119306	30358.333333
581.566696	30159.000000
583.013487	30067.333333
584.459679	29758.333333
585.905273	29625.000000
587.350268	29587.666667
588.794665	29698.000000
590.238465	29611.000000
591.681667	29638.666667
593.124272	29460.333333
594.566281	29429.666667
596.007694	29243.000000
597.448510	29083.333333
598.888731	29346.333333
600.328357	28860.666667
601.767388	28906.666667
603.205824	28853.333333
604.643666	28694.000000
606.080914	28870.333333
607.517568	28634.333333
608.953629	28602.000000
610.389097	28656.000000
611.823972	28496.666667
613.258255	28506.666667
614.691946	28349.666667
616.125046	28472.000000
617.557554	28192.000000
618.989471	28155.666667
620.420798	27894.333333
621.851534	27793.666667
623.281680	27705.000000
624.711237	27470.666667
626.140204	27396.666667
627.568582	27273.000000
628.996372	27144.666667
630.423573	27040.333333
631.850186	27036.000000
633.276211	26934.000000
634.701650	27054.000000
636.126501	26910.666667
637.550765	27012.333333
638.974443	27019.666667
640.397535	26993.000000
641.820041	26926.333333
643.241961	26906.666667
644.663297	26839.000000
646.084048	26773.000000
647.504214	26674.000000
648.923796	26621.333333
650.342795	26590.666667
651.761210	26231.000000
653.179041	26267.333333
654.596290	26241.666667
656.012957	26097.666667
657.429041	26007.333333
658.844543	26169.000000
660.259464	26111.666667
661.673804	26024.333333
663.087563	25914.333333
664.500741	26241.000000
665.913339	26024.666667
667.325357	26081.666667
668.736795	26145.666667
670.147654	26117.666667
671.557934	25886.000000
672.967636	25823.000000
674.376759	25773.333333
675.785304	25669.666667
677.193271	25727.333333
678.600661	25601.666667
680.007474	25693.333333
681.413711	25608.666667
682.819370	25616.000000
684.224454	25543.333333
685.628962	25406.666667
687.032895	25530.000000
688.436252	25427.333333
689.839034	25470.666667
691.241242	25397.666667
692.642876	25379.666667
694.043936	25295.000000
695.444422	25204.333333
696.844336	25084.666667
698.243676	25083.000000
699.642443	25169.000000
701.040639	24999.666667
702.438262	25083.000000
703.835313	25059.666667
705.231794	25009.666667
706.627703	25070.666667
708.023041	24943.333333
709.417810	24949.000000
710.812008	24921.000000
712.205636	24885.666667
713.598694	24797.333333
714.991184	24691.666667
716.383105	24658.000000
717.774457	24559.666667
719.165241	24595.000000
720.555457	24483.333333
721.945105	24463.666667
723.334187	24361.333333
724.722701	24544.666667
726.110648	24351.000000
727.498030	24539.666667
728.884845	24577.000000
730.271094	24489.333333
731.656778	24194.333333
733.041897	24275.333333
734.426451	24192.666667
735.810441	24156.000000
737.193866	24195.000000
738.576728	24071.666667
739.959026	24057.666667
741.340760	24056.333333
742.721932	23941.000000
744.102541	23993.000000
745.482588	23940.333333
746.862073	23945.333333
748.240996	24014.666667
749.619358	23837.666667
750.997158	23821.000000
752.374398	23836.333333
753.751077	23808.000000
755.127197	23998.333333
756.502756	23944.000000
757.877756	23706.000000
759.252196	23725.333333
760.626078	23680.333333
761.999400	23831.333333
763.372165	23498.000000
764.744371	23657.000000
766.116020	23533.000000
767.487111	23528.666667
768.857646	23404.333333
770.227623	23434.333333
771.597044	23318.333333
772.965908	23394.333333
774.334217	23310.333333
775.701970	23095.666667
777.069168	23259.333333
778.435811	23132.666667
779.801899	23250.333333
781.167433	23141.666667
782.532412	22876.666667
783.896838	23137.000000
785.260710	22975.000000
786.624029	22820.333333
787.986796	22866.333333
789.349009	22912.000000
790.710671	22808.666667
792.071780	22755.666667
793.432338	22633.666667
794.792344	22807.333333
796.151799	22639.333333
797.510704	22462.666667
798.869058	22398.333333
800.226862	22489.000000
801.584116	22586.666667
802.940820	22442.000000
804.296975	22481.333333
805.652581	22364.000000
807.007638	22434.333333
808.362147	22464.666667
809.716108	22507.666667
811.069521	22361.333333
812.422387	22419.000000
813.774705	22431.666667
815.126476	22255.000000
816.477701	22231.666667
817.828380	22274.666667
819.178512	22237.000000
820.528099	22264.333333
821.877140	22111.333333
823.225637	21984.000000
824.573588	22008.000000
825.920995	22128.000000
827.267857	21960.000000
828.614176	21813.666667
829.959951	21926.333333
831.305183	22003.666667
832.649871	21890.333333
833.994017	21796.000000
835.337620	21801.333333
836.680681	21831.333333
838.023201	21818.666667
839.365178	21790.666667
840.706614	21846.333333
842.047510	21706.666667
843.387864	21615.000000
844.727678	21676.333333
846.066952	21664.666667
847.405687	21847.000000
848.743881	21766.333333
850.081537	21920.333333
851.418653	21840.333333
852.755231	21800.333333
854.091270	21836.666667
855.426771	21775.666667
856.761735	21806.333333
858.096160	21681.000000
859.430049	21620.666667
860.763401	21659.333333
862.096216	21437.000000
863.428495	21357.666667
864.760237	21388.000000
866.091444	21303.333333
867.422115	21427.666667
868.752252	21200.333333
870.081853	21245.000000
871.410919	21140.333333
872.739452	21154.666667
874.067450	21115.000000
875.394914	21029.333333
876.721845	21104.000000
878.048243	20901.000000
879.374108	20973.333333
880.699440	20898.000000
882.024240	20871.666667
883.348508	20838.333333
884.672244	20754.000000
885.995449	20509.666667
887.318122	20614.000000
888.640265	20675.333333
889.961877	20596.666667
891.282959	20561.000000
892.603510	20397.333333
893.923532	20396.666667
895.243024	20443.333333
896.561987	20436.666667
897.880422	20266.333333
899.198327	20221.000000
900.515705	20198.000000
901.832554	20192.333333
903.148875	20075.666667
904.464669	20211.000000
905.779936	20177.000000
907.094676	20204.666667
908.408889	20127.333333
909.722576	20092.333333
911.035737	20231.000000
912.348371	20239.333333
913.660481	20251.000000
914.972065	20334.000000
916.283124	20313.666667
917.593659	20278.666667
918.903669	20288.666667
920.213155	20331.000000
921.522117	20307.666667
922.830556	20395.333333
924.138471	20308.000000
925.445864	20274.333333
926.752733	20217.333333
928.059081	20248.000000
929.364906	20206.000000
930.670209	20140.666667
931.974991	20389.000000
933.279251	20479.333333
934.582990	20496.000000
935.886209	20529.333333
937.188907	20609.000000
938.491085	20720.666667
939.792743	20971.666667
941.093881	21134.000000
942.394500	21433.666667
943.694600	21751.000000
944.994181	22089.000000
946.293243	22617.000000
947.591787	23047.333333
948.889813	23625.666667
950.187322	24313.666667
951.484313	25263.333333
952.780787	26031.000000
954.076744	27105.000000
955.372184	27982.333333
956.667108	28681.333333
957.961516	29199.666667
959.255409	29111.000000
960.548785	28865.000000
961.841647	28107.000000
963.133993	27216.333333
964.425825	26051.000000
965.717142	24948.666667
967.007946	23850.666667
968.298235	22717.666667
969.588011	21801.666667
970.877273	20911.333333
972.166023	20475.000000
973.454259	20071.333333
974.741984	19567.333333
976.029196	19400.666667
977.315895	19089.333333
978.602084	18924.000000
979.887761	18774.000000
981.172926	18587.333333
982.457581	18508.666667
983.741725	18553.666667
985.025359	18431.333333
986.308483	18265.666667
987.591097	18259.666667
988.873202	18102.666667
990.154797	18192.000000
991.435883	18021.666667
992.716461	18109.666667
993.996530	18164.000000
995.276091	18092.666667
996.555144	17979.000000
997.833690	18147.333333
999.111728	18000.000000
1000.389259	18166.000000
1001.666283	18258.000000
1002.942800	18179.000000
1004.218812	18240.333333
1005.494317	18126.333333
1006.769317	18092.333333
1008.043811	18000.333333
1009.317799	18025.666667
1010.591283	17970.666667
1011.864263	18005.000000
1013.136737	17988.000000
1014.408708	17943.000000
1015.680175	17932.666667
1016.951138	17953.333333
1018.221598	17973.333333
1019.491554	17992.333333
1020.761008	17996.000000
1022.029959	17874.333333
1023.298408	18010.000000
1024.566355	17942.333333
1025.833800	18019.333333
1027.100744	17830.666667
1028.367187	17896.333333
1029.633128	17690.333333
1030.898569	17758.333333
1032.163509	17623.333333
1033.427949	17711.333333
1034.691890	17694.000000
1035.955330	17775.666667
1037.218271	17837.666667
1038.480714	17907.000000
1039.742657	17789.666667
1041.004101	17822.666667
1042.265048	17852.333333
1043.525496	17932.666667
1044.785446	17917.333333
1046.044899	17817.333333
1047.303855	17853.666667
1048.562313	17725.333333
1049.820275	17748.666667
1051.077740	17802.666667
1052.334709	17648.666667
1053.591182	17652.666667
1054.847160	17524.000000
1056.102641	17562.333333
1057.357628	17614.666667
1058.612120	17593.000000
1059.866117	17660.000000
1061.119619	17676.666667
1062.372628	17670.000000
1063.625142	17741.000000
1064.877163	17797.333333
1066.128691	17904.666667
1067.379725	17930.333333
1068.630267	17768.666667
1069.880316	17815.666667
1071.129872	17828.000000
1072.378937	17642.333333
1073.627509	17688.333333
1074.875590	17542.666667
1076.123180	17392.333333
1077.370279	17252.000000
1078.616887	17192.333333
1079.863004	17077.000000
1081.108631	16897.333333
1082.353768	16689.333333
1083.598415	16591.333333
1084.842573	16565.666667
1086.086241	16442.666667
1087.329421	16303.000000
1088.572111	16179.333333
1089.814314	16331.333333
1091.056028	16276.000000
1092.297253	16114.333333
1093.537992	16177.000000
1094.778242	16003.000000
1096.018006	16069.666667
1097.257282	15945.000000
1098.496072	15946.333333
1099.734376	15925.666667
1100.972193	15906.333333
1102.209524	15877.333333
1103.446370	15841.000000
1104.682730	15702.666667
1105.918604	15705.333333
1107.153994	15595.000000
1108.388900	15515.333333
1109.623320	15514.333333
1110.857257	15540.000000
1112.090710	15438.000000
1113.323679	15415.000000
1114.556164	15413.333333
1115.788167	15344.666667
1117.019686	15210.666667
1118.250723	15269.333333
1119.481278	15302.666667
1120.711350	15551.333333
1121.940940	15495.666667
1123.170049	15174.333333
1124.398676	15192.333333
1125.626823	15049.666667
1126.854488	15043.333333
1128.081672	15121.666667
1129.308376	15042.666667
1130.534600	14988.000000
1131.760345	14862.666667
1132.985609	14930.666667
1134.210394	14915.333333
1135.434700	14851.333333
1136.658527	14904.666667
1137.881875	14773.666667
1139.104745	14856.333333
1140.327136	14872.666667
1141.549050	14800.666667
1142.770486	14830.666667
1143.991445	14888.333333
1145.211926	14848.666667
1146.431931	14769.333333
1147.651459	14708.000000
1148.870510	14717.666667
1150.089086	14777.000000
1151.307185	14755.333333
1152.524808	14710.666667
1153.741957	14627.000000
1154.958630	14712.666667
1156.174828	14655.000000
1157.390551	14722.666667
1158.605800	14563.666667
1159.820574	14693.000000
1161.034875	14592.000000
1162.248702	14596.666667
1163.462055	14498.000000
1164.674936	14641.666667
1165.887343	14581.666667
1167.099277	14501.333333
1168.310739	14584.666667
1169.521729	14440.333333
1170.732247	14465.333333
1171.942293	14481.000000
1173.151867	14507.666667
1174.360970	14361.000000
1175.569602	14379.000000
1176.777764	14305.000000
1177.985454	14266.666667
1179.192675	14236.333333
1180.399425	14263.000000
1181.605706	14199.333333
1182.811517	14144.666667
1184.016859	14102.333333
1185.221731	14107.333333
1186.426135	14013.000000
1187.630070	13929.666667
1188.833537	13982.333333
1190.036535	13773.666667
1191.239066	13788.333333
1192.441129	13780.333333
1193.642725	13714.333333
1194.843853	13686.333333
1196.044515	13643.000000
1197.244710	13681.666667
1198.444438	13690.333333
1199.643701	13843.666667
1200.842497	13674.666667
1202.040827	13824.666667
1203.238693	13748.666667
1204.436092	13860.000000
1205.633027	13831.000000
1206.829497	13700.000000
1208.025503	13735.000000
1209.221044	13707.333333
1210.416122	13628.666667
1211.610735	13600.333333
1212.804885	13458.666667
1213.998572	13447.666667
1215.191795	13425.666667
1216.384556	13409.666667
1217.576854	13381.666667
1218.768689	13336.666667
1219.960063	13329.333333
1221.150974	13316.666667
1222.341424	13330.000000
1223.531413	13397.333333
1224.720940	13327.000000
1225.910006	13408.333333
1227.098612	13432.666667
1228.286757	13375.666667
1229.474442	13478.666667
1230.661667	13444.333333
1231.848432	13526.333333
1233.034738	13580.666667
1234.220584	13669.333333
1235.405971	13556.666667
1236.590900	13620.666667
1237.775369	13657.000000
1238.959381	13655.666667
1240.142934	13667.333333
1241.326029	13713.666667
1242.508667	13693.333333
1243.690848	13663.000000
1244.872571	13659.333333
1246.053837	13595.333333
1247.234646	13516.000000
1248.414999	13561.333333
1249.594896	13546.000000
1250.774337	13456.666667
1251.953322	13395.666667
1253.131851	13355.666667
1254.309925	13370.000000
1255.487544	13414.666667
1256.664708	13304.000000
1257.841417	13308.333333
1259.017673	13350.333333
1260.193473	13416.000000
1261.368820	13277.333333
1262.543714	13265.333333
1263.718154	13359.333333
1264.892140	13297.666667
1266.065674	13260.666667
1267.238755	13344.000000
1268.411383	13303.333333
1269.583559	13379.000000
1270.755283	13267.666667
1271.926555	13257.333333
1273.097375	13183.666667
1274.267744	13248.333333
1275.437662	13152.000000
1276.607129	13144.000000
1277.776145	13057.000000
1278.944711	13098.000000
1280.112827	13110.666667
1281.280492	12999.000000
1282.447708	12939.333333
1283.614474	12906.000000
1284.780791	12848.333333
1285.946659	12867.000000
1287.112078	12756.666667
1288.277048	12791.666667
1289.441570	12644.000000
1290.605644	12574.000000
1291.769270	12568.666667
1292.932448	12542.000000
1294.095178	12486.333333
1295.257461	12575.000000
1296.419298	12338.000000
1297.580687	12463.666667
1298.741630	12389.000000
1299.902126	12385.333333
1301.062177	12336.000000
1302.221781	12255.666667
1303.380940	12259.333333
1304.539653	12319.333333
1305.697921	12253.666667
1306.855744	12296.333333
1308.013123	12259.333333
1309.170056	12302.333333
1310.326546	12235.333333
1311.482591	12267.666667
1312.638193	12346.666667
1313.793350	12284.333333
1314.948065	12268.333333
1316.102336	12274.666667
1317.256164	12242.666667
1318.409550	12221.666667
1319.562493	12121.333333
1320.714993	12181.000000
1321.867052	12079.000000
1323.018668	12164.333333
1324.169843	12162.000000
1325.320577	11989.666667
1326.470870	12016.333333
1327.620721	11918.666667
1328.770132	11910.333333
1329.919102	11857.000000
1331.067632	11826.000000
1332.215722	11773.666667
1333.363372	11781.666667
1334.510582	11817.666667
1335.657353	11744.333333
1336.803685	11793.333333
1337.949578	11722.666667
1339.095032	11757.333333
1340.240048	11746.333333
1341.384625	11760.000000
1342.528764	11800.000000
1343.672466	11799.000000
1344.815729	11758.000000
1345.958556	11731.666667
1347.100945	11683.333333
1348.242897	11659.666667
1349.384413	11671.666667
1350.525492	11730.000000
1351.666134	11582.666667
1352.806341	11519.000000
1353.946111	11521.333333
1355.085446	11563.666667
1356.224346	11529.666667
1357.362810	11401.000000
1358.500840	11458.000000
1359.638434	11391.333333
1360.775594	11278.333333
1361.912320	11311.333333
1363.048612	11298.666667
1364.184469	11299.333333
1365.319893	11198.000000
1366.454884	11121.666667
1367.589441	11308.000000
1368.723566	11240.333333
1369.857257	11225.333333
1370.990516	11222.666667
1372.123343	11216.666667
1373.255737	11282.000000
1374.387699	11268.000000
1375.519230	11218.000000
1376.650329	11182.333333
1377.780997	11167.000000
1378.911234	11261.000000
1380.041040	11298.000000
1381.170416	11214.000000
1382.299361	11232.333333
1383.427875	11149.333333
1384.555960	11109.666667
1385.683615	11166.000000
1386.810841	11112.000000
1387.937637	11115.666667
1389.064004	11089.000000
1390.189942	11185.666667
1391.315451	11075.666667
1392.440532	11064.333333
1393.565185	11073.666667
1394.689409	11039.666667
1395.813206	10995.666667
1396.936575	10913.333333
1398.059517	10994.333333
1399.182032	10907.333333
1400.304119	10931.333333
1401.425780	10939.000000
1402.547014	10903.666667
1403.667822	10989.000000
1404.788204	10916.333333
1405.908160	10839.666667
1407.027690	10930.333333
1408.146795	10893.333333
1409.265474	10860.000000
1410.383728	10839.000000
1411.501558	10762.666667
1412.618963	10893.000000
1413.735943	10765.666667
1414.852499	10791.333333
1415.968632	10941.333333
1417.084340	10812.666667
1418.199625	10915.000000
1419.314486	10904.333333
1420.428925	10843.333333
1421.542940	10902.000000
1422.656533	10901.000000
1423.769703	10825.333333
1424.882451	10725.000000
1425.994777	10816.333333
1427.106680	10768.333333
1428.218163	10708.666667
1429.329223	10747.666667
1430.439863	10732.333333
1431.550081	10634.666667
1432.659879	10520.000000
1433.769256	10589.000000
1434.878212	10612.000000
1435.986749	10688.333333
1437.094865	10693.666667
1438.202562	10564.333333
1439.309839	10635.333333
1440.416696	10647.333333
1441.523135	10708.333333
1442.629154	10597.000000
1443.734755	10734.666667
1444.839937	10732.666667
1445.944701	10691.000000
1447.049047	10845.333333
1448.152975	10770.000000
1449.256485	10729.666667
1450.359577	10734.666667
1451.462253	10741.666667
1452.564511	10734.000000
1453.666352	10704.333333
1454.767777	10676.666667
1455.868785	10711.000000
1456.969377	10633.666667
1458.069553	10603.666667
1459.169313	10571.666667
1460.268658	10582.333333
1461.367587	10455.333333
1462.466101	10427.666667
1463.564200	10437.000000
1464.661884	10399.333333
1465.759153	10378.666667
1466.856008	10189.000000
1467.952449	10216.000000
1469.048476	10179.666667
1470.144089	10010.666667
1471.239288	9986.333333
1472.334074	9954.666667
1473.428447	9848.000000
1474.522407	9876.666667
1475.615955	9802.333333
1476.709089	9699.666667
1477.801812	9742.333333
1478.894122	9621.000000
1479.986020	9671.666667
1481.077506	9616.333333
1482.168581	9558.000000
1483.259245	9520.666667
1484.349498	9518.333333
1485.439339	9470.666667
1486.528770	9519.333333
1487.617790	9524.333333
1488.706400	9359.666667
1489.794600	9398.666667
1490.882390	9501.666667
1491.969771	9351.000000
1493.056742	9440.000000
1494.143303	9379.000000
1495.229456	9278.000000
1496.315199	9291.666667
1497.400534	9337.666667
1498.485460	9285.666667
1499.569978	9259.333333
1500.654088	9232.000000
1501.737790	9219.333333
1502.821085	9147.000000
1503.903972	9172.666667
1504.986451	9150.666667
1506.068524	9092.000000
1507.150189	9123.000000
1508.231448	9061.666667
1509.312301	9060.666667
1510.392747	9130.000000
1511.472787	8947.333333
1512.552422	8987.666667
1513.631650	8998.666667
1514.710473	8935.333333
1515.788891	8956.333333
1516.866904	8978.000000
1517.944512	8961.666667
1519.021715	8946.666667
1520.098513	8939.666667
1521.174908	9005.000000
1522.250898	8970.333333
1523.326485	8951.333333
1524.401667	8995.333333
1525.476447	8931.666667
1526.550823	8921.000000
1527.624796	8979.666667
1528.698365	9004.666667
1529.771533	8949.333333
1530.844298	8979.666667
1531.916660	8954.000000
1532.988620	8922.333333
1534.060179	8951.333333
1535.131336	8989.000000
1536.202091	8921.666667
1537.272445	8847.666667
1538.342398	8830.333333
1539.411950	8837.000000
1540.481101	8765.333333
1541.549851	8781.666667
1542.618202	8687.000000
1543.686152	8740.333333
1544.753702	8632.333333
1545.820853	8735.333333
1546.887604	8684.666667
1547.953955	8658.666667
1549.019908	8655.666667
1550.085461	8569.333333
1551.150616	8552.333333
1552.215372	8506.000000
1553.279730	8428.666667
1554.343690	8433.666667
1555.407252	8503.666667
1556.470415	8471.333333
1557.533182	8465.666667
1558.595551	8387.333333
1559.657522	8375.000000
1560.719097	8350.666667
1561.780275	8377.666667
1562.841056	8338.333333
1563.901441	8300.000000
1564.961429	8339.333333
1566.021022	8311.000000
1567.080219	8321.666667
1568.139020	8299.333333
1569.197425	8250.666667
1570.255436	8273.333333
1571.313051	8275.666667
1572.370271	8243.000000
1573.427097	8215.666667
1574.483528	8226.333333
1575.539565	8232.666667
1576.595208	8188.333333
1577.650457	8162.333333
1578.705312	8177.666667
1579.759774	8076.666667
1580.813842	8039.000000
1581.867517	7942.000000
1582.920799	7921.666667
1583.973689	7912.000000
1585.026186	7923.000000
1586.078290	7909.000000
1587.130002	7960.000000
1588.181323	8015.333333
1589.232251	7965.666667
1590.282788	7886.333333
1591.332933	7850.000000
1592.382688	7827.000000
1593.432051	7845.333333
1594.481023	7887.000000
1595.529605	7863.666667
1596.577796	7859.666667
1597.625597	7904.000000
1598.673007	8012.333333
1599.720028	7904.333333
1600.766660	8030.000000
1601.812901	7973.000000
1602.858753	7956.000000
1603.904217	7930.000000
1604.949291	8014.000000
1605.993976	8097.666667
1607.038273	7964.666667
1608.082182	7952.666667
1609.125702	7955.333333
1610.168834	7983.333333
1611.211579	7732.000000
1612.253935	7714.333333
1613.295905	7743.666667
1614.337487	7724.333333
1615.378682	7640.000000
1616.419490	7668.333333
1617.459912	7708.666667
1618.499946	7705.000000
1619.539595	7784.000000
1620.578858	7720.666667
1621.617734	7789.333333
1622.656225	7837.333333
1623.694330	7892.666667
1624.732050	7834.333333
1625.769385	7779.666667
1626.806334	7730.000000
1627.842899	7690.666667
1628.879079	7605.666667
1629.914875	7627.666667
1630.950286	7654.333333
1631.985314	7671.000000
1633.019957	7725.333333
1634.054217	7612.000000
1635.088093	7698.666667
1636.121586	7782.333333
1637.154696	7698.666667
1638.187423	7781.333333
1639.219767	7761.000000
1640.251728	7750.000000
1641.283307	7764.666667
1642.314504	7695.666667
1643.345319	7764.333333
1644.375751	7734.666667
1645.405803	7717.666667
1646.435472	7712.333333
1647.464761	7638.333333
1648.493668	7724.000000
1649.522194	7749.000000
1650.550340	7743.666667
1651.578105	7647.333333
1652.605490	7681.000000
1653.632494	7717.666667
1654.659119	7616.666667
1655.685363	7606.666667
1656.711228	7617.666667
1657.736714	7574.000000
1658.761820	7558.333333
1659.786547	7475.333333
1660.810895	7540.666667
1661.834865	7505.000000
1662.858456	7547.666667
1663.881668	7569.000000
1664.904503	7468.333333
1665.926959	7374.666667
1666.949038	7391.000000
1667.970739	7391.666667
1668.992062	7333.333333
1670.013008	7382.333333
1671.033577	7368.000000
1672.053770	7362.666667
1673.073585	7285.333333
1674.093024	7347.666667
1675.112086	7263.333333
1676.130773	7255.000000
1677.149083	7228.333333
1678.167017	7158.000000
1679.184576	7146.000000
1680.201760	7225.000000
1681.218568	7173.333333
1682.235001	7243.333333
1683.251059	7198.333333
1684.266742	7125.666667
1685.282051	7148.000000
1686.296985	7147.000000
1687.311546	7079.666667
1688.325732	7002.666667
1689.339544	6952.666667
1690.352983	7002.666667
1691.366048	6932.000000
1692.378740	6836.000000
1693.391058	6869.333333
1694.403004	6832.333333
1695.414577	6781.333333
1696.425778	6739.666667
1697.436606	6708.333333
1698.447061	6671.000000
1699.457145	6684.666667
1700.466857	6582.000000
1701.476197	6552.333333
1702.485166	6500.000000
1703.493763	6456.666667
1704.501989	6510.333333
1705.509844	6522.000000
1706.517328	6438.000000
1707.524442	6478.666667
1708.531185	6410.333333
1709.537558	6394.666667
1710.543561	6343.000000
1711.549194	6332.666667
1712.554457	6338.333333
1713.559351	6290.666667
1714.563875	6320.666667
1715.568030	6308.333333
1716.571816	6299.666667
1717.575233	6350.666667
1718.578282	6419.000000
1719.580962	6466.333333
1720.583273	6463.666667
1721.585217	6485.333333
1722.586792	6402.666667
1723.588000	6402.000000
1724.588840	6419.333333
1725.589312	6355.000000
1726.589418	6395.666667
1727.589156	6401.666667
1728.588527	6408.333333
1729.587532	6443.666667
1730.586170	6507.666667
1731.584441	6388.000000
1732.582346	6424.666667
1733.579886	6368.333333
1734.577059	6285.666667
1735.573867	6312.333333
1736.570309	6324.333333
1737.566386	6317.333333
1738.562097	6294.333333
1739.557444	6260.666667
1740.552426	6198.333333
1741.547043	6207.666667
1742.541295	6252.000000
1743.535184	6236.666667
1744.528708	6192.666667
1745.521868	6186.666667
1746.514664	6081.000000
1747.507097	6099.666667
1748.499166	6039.000000
1749.490873	6054.666667
1750.482216	6002.333333
1751.473196	6093.333333
1752.463813	6127.000000
1753.454068	6038.333333
1754.443960	6015.666667
1755.433490	6056.000000
1756.422658	6032.666667
1757.411464	5940.000000
1758.399908	5922.666667
1759.387991	5961.000000
1760.375713	5965.333333
1761.363073	5970.333333
1762.350072	5942.333333
1763.336711	5948.000000
1764.322988	6013.000000
1765.308905	5911.000000
1766.294462	5944.333333
1767.279659	5912.666667
1768.264496	5905.000000
1769.248972	5884.000000
1770.233089	5813.666667
1771.216847	5738.333333
1772.200245	5752.000000
1773.183284	5726.666667
1774.165965	5700.000000
1775.148286	5703.666667
1776.130249	5749.666667
1777.111853	5779.666667
1778.093099	5713.000000
1779.073987	5624.666667
1780.054517	5650.666667
1781.034689	5612.333333
1782.014503	5530.666667
1782.993960	5471.666667
1783.973060	5456.000000
1784.951802	5374.000000
1785.930188	5352.333333
1786.908217	5373.000000
1787.885889	5340.333333
1788.863205	5308.000000
1789.840164	5368.666667
1790.816768	5281.666667
1791.793015	5241.000000
1792.768907	5205.666667
1793.744443	5244.000000
1794.719624	5241.666667
1795.694449	5329.666667
1796.668919	5351.000000
1797.643035	5337.000000
1798.616795	5324.666667
1799.590201	5355.000000
1800.563253	5334.666667
1801.535950	5356.000000
1802.508294	5343.666667
1803.480283	5352.000000
1804.451919	5367.333333
1805.423201	5395.333333
1806.394129	5431.666667
1807.364705	5357.333333
1808.334927	5381.333333
1809.304796	5332.666667
1810.274313	5336.333333
1811.243477	5286.333333
1812.212288	5288.666667
1813.180747	5247.333333
1814.148855	5284.000000
1815.116610	5285.666667
1816.084013	5233.666667
1817.051065	5367.000000
1818.017766	5309.666667
1818.984115	5331.666667
1819.950113	5315.666667
1820.915760	5255.000000
1821.881057	5310.333333
1822.846003	5338.333333
1823.810598	5246.333333
1824.774843	5255.000000
1825.738738	5226.666667
1826.702283	5274.000000
1827.665479	5279.000000
1828.628324	5283.666667
1829.590821	5200.333333
1830.552968	5206.333333
1831.514765	5242.000000
1832.476214	5159.000000
1833.437314	5176.333333
1834.398066	5140.000000
1835.358469	5149.666667
1836.318524	5097.333333
1837.278230	5095.333333
1838.237589	5114.666667
1839.196600	5157.666667
1840.155263	5105.000000
1841.113578	5064.333333
1842.071547	5193.666667
1843.029168	5133.333333
1843.986442	5190.333333
1844.943369	5165.333333
1845.899950	5144.000000
1846.856184	5123.333333
1847.812072	5102.000000
1848.767614	5103.333333
1849.722809	5064.000000
1850.677659	5051.000000
1851.632163	5042.333333
1852.586322	5004.000000
1853.540135	5040.666667
1854.493603	5101.000000
1855.446726	5173.666667
1856.399504	5030.666667
1857.351937	4976.333333
1858.304026	5014.666667
1859.255770	4898.666667
1860.207170	4913.000000
1861.158227	4893.333333
1862.108939	4834.666667
1863.059307	4871.333333
1864.009332	4845.666667
1864.959013	4846.666667
1865.908351	4853.000000
1866.857346	4798.000000
1867.805998	4764.333333
1868.754307	4808.000000
1869.702274	4764.000000
1870.649898	4719.000000
1871.597180	4785.000000
1872.544119	4659.333333
1873.490717	4676.666667
1874.436973	4665.666667
1875.382887	4661.333333
1876.328459	4653.000000
1877.273691	4609.000000
1878.218581	4608.666667
1879.163130	4658.333333
1880.107338	4686.000000
1881.051205	4612.000000
1881.994732	4629.666667
1882.937919	4673.333333
1883.880765	4587.000000
1884.823271	4667.666667
1885.765437	4640.666667
1886.707264	4655.666667
1887.648750	4618.333333
1888.589898	4683.666667
1889.530706	4664.666667
1890.471175	4667.666667
1891.411305	4744.000000
1892.351096	4734.000000
1893.290548	4770.666667
1894.229662	4736.000000
1895.168438	4765.000000
1896.106876	4719.333333
1897.044975	4674.000000
1897.982737	4722.666667
1898.920160	4680.000000
1899.857247	4703.333333
1900.793996	4685.666667
1901.730407	4668.666667
1902.666482	4605.333333
1903.602219	4659.000000
1904.537620	4646.333333
1905.472685	4634.000000
1906.407412	4630.666667
1907.341804	4623.000000
1908.275859	4570.666667
1909.209579	4536.666667
1910.142962	4558.333333
1911.076010	4472.333333
1912.008722	4415.333333
1912.941099	4392.000000
1913.873141	4419.333333
1914.804848	4396.666667
1915.736219	4362.000000
1916.667256	4317.666667
1917.597959	4342.333333
1918.528327	4372.000000
1919.458360	4297.000000
1920.388060	4279.333333
1921.317426	4302.000000
1922.246457	4285.333333
1923.175156	4236.333333
1924.103520	4250.333333
1925.031552	4250.000000
1925.959250	4259.000000
1926.886615	4299.000000
1927.813647	4255.666667
1928.740346	4238.000000
1929.666713	4323.000000
1930.592748	4236.333333
1931.518450	4224.666667
1932.443820	4291.333333
1933.368858	4258.333333
1934.293564	4245.333333
1935.217939	4268.666667
1936.141982	4210.666667
1937.065694	4218.666667
1937.989074	4185.666667
1938.912124	4144.000000
1939.834842	4188.000000
1940.757230	4165.333333
1941.679287	4142.000000
1942.601014	4095.666667
1943.522411	4153.333333
1944.443477	4137.666667
1945.364214	4170.333333
1946.284621	4114.666667
1947.204698	4066.000000
1948.124445	4050.000000
1949.043863	4034.333333
1949.962952	4042.666667
1950.881712	4004.666667
1951.800143	3990.000000
1952.718245	4013.666667
1953.636019	3955.333333
1954.553464	3989.333333
1955.470581	3927.000000
1956.387369	3924.666667
1957.303830	3938.000000
1958.219963	3885.000000
1959.135768	3942.666667
1960.051246	3924.333333
1960.966396	3900.666667
1961.881219	3901.666667
1962.795715	3887.666667
1963.709883	3871.666667
1964.623726	3968.666667
1965.537241	3932.666667
1966.450430	3933.000000
1967.363293	4003.000000
1968.275829	3938.666667
1969.188040	3943.000000
1970.099924	3937.000000
1971.011483	3983.333333
1971.922716	3953.333333
1972.833624	3995.333333
1973.744206	3986.666667
1974.654464	3991.333333
1975.564396	3942.333333
1976.474004	3952.000000
1977.383286	3949.000000
1978.292245	3930.333333
1979.200878	3926.333333
1980.109188	3826.666667
1981.017174	3872.333333
1981.924835	3832.666667
1982.832173	3843.333333
1983.739187	3803.000000
1984.645878	3844.333333
1985.552245	3825.333333
1986.458289	3777.000000
1987.364010	3821.333333
1988.269408	3720.333333
1989.174484	3718.000000
1990.079236	3671.333333
1990.983667	3697.333333
1991.887775	3676.000000
1992.791561	3633.666667
1993.695024	3636.333333
1994.598166	3600.666667
1995.500986	3574.000000
1996.403485	3591.333333
1997.305662	3559.333333
1998.207518	3603.000000
1999.109053	3524.333333
