200.151048	56138.333333
201.758777	55992.000000
203.365815	55902.666667
204.972162	55594.333333
206.577820	55129.666667
208.182787	55093.666667
209.787065	54942.666667
211.390653	54673.666667
212.993553	54490.333333
214.595765	54181.666667
216.197289	54065.666667
217.798125	53778.333333
219.398274	53632.333333
220.997737	53199.333333
222.596513	53170.333333
224.194603	52763.333333
225.792008	52896.000000
227.388728	52804.000000
228.984763	52592.666667
230.580114	52426.666667
232.174781	52241.000000
233.768765	52140.666667
235.362065	51705.333333
236.954683	51468.333333
238.546619	51449.666667
240.137872	51092.000000
241.728445	50925.333333
243.318336	50845.333333
244.907546	50564.000000
246.496076	50593.333333
248.083926	50093.666667
249.671097	49907.666667
251.257589	49775.666667
252.843402	49348.666667
254.428536	49106.666667
256.012993	48926.000000
257.596772	48795.666667
259.179874	48809.666667
260.762300	48390.000000
262.344049	48165.666667
263.925122	48259.333333
265.505519	48129.000000
267.085241	48051.000000
268.664289	47746.000000
270.242662	47644.000000
271.820361	47543.333333
273.397387	47371.000000
274.973740	47403.000000
276.549419	47444.000000
278.124426	47263.333333
279.698762	47269.333333
281.272425	47029.000000
282.845417	47153.333333
284.417739	46903.000000
285.989390	47066.666667
287.560371	47032.666667
289.130682	46907.000000
290.700324	46666.666667
292.269297	46606.333333
293.837602	46359.000000
295.405238	46412.666667
296.972207	46276.666667
298.538508	46248.333333
300.104142	46116.666667
301.669110	45875.000000
303.233411	45420.000000
304.797047	45466.666667
306.360017	45230.000000
307.922322	45086.333333
309.483963	44855.000000
311.044939	44830.000000
312.605252	44522.000000
314.164900	44427.666667
315.723886	44304.000000
317.282209	44058.333333
318.839870	44045.666667
320.396868	43901.666667
321.953205	43680.666667
323.508881	43758.000000
325.063896	43479.666667
326.618251	43440.333333
328.171945	43452.000000
329.724980	43273.666667
331.277356	43280.666667
332.829072	43152.000000
334.380131	43034.666667
335.930530	42924.666667
337.480273	42884.333333
339.029357	42782.333333
340.577785	42715.000000
342.125556	42630.333333
343.672671	42920.333333
345.219130	42577.666667
346.764933	42635.000000
348.310081	42554.333333
349.854575	42451.666667
351.398414	42207.000000
352.941599	42065.000000
354.484130	42196.333333
356.026008	42119.000000
357.567234	42060.000000
359.107807	41919.333333
360.647727	42017.333333
362.186996	41628.666667
363.725614	41493.000000
365.263580	41351.000000
366.800896	41480.333333
368.337562	41309.666667
369.873578	41311.333333
371.408944	41065.666667
372.943661	41160.666667
374.477730	40927.333333
376.011150	41050.000000
377.543922	40894.333333
379.076046	40845.000000
380.607523	40657.000000
382.138353	40590.666667
383.668537	40533.000000
385.198075	40500.000000
386.726966	40393.666667
388.255213	40531.000000
389.782814	40291.000000
391.309770	40319.333333
392.836083	40488.000000
394.361751	40233.333333
395.886776	40394.666667
397.411157	40315.666667
398.934896	40376.000000
400.457992	40061.000000
401.980446	40273.000000
403.502258	40260.666667
405.023429	40189.666667
406.543959	40220.000000
408.063849	40091.666667
409.583098	40115.666667
411.101707	40236.000000
412.619677	40197.000000
414.137007	40287.333333
415.653699	40155.000000
417.169752	40456.000000
418.685167	40424.333333
420.199945	40624.666667
421.714085	40912.666667
423.227588	40917.333333
424.740454	41132.666667
426.252684	41124.666667
427.764279	41008.000000
429.275238	41175.666667
430.785561	40852.666667
432.295250	40728.000000
433.804304	40769.333333
435.312725	40269.333333
436.820511	40055.000000
438.327664	39899.666667
439.834185	39642.333333
441.340072	39492.333333
442.845327	39337.666667
444.349951	39260.666667
445.853942	39233.666667
447.357303	38912.333333
448.860033	38861.333333
450.362132	38593.333333
451.863601	38414.666667
453.364440	38251.333333
454.864650	38214.000000
456.364231	37963.000000
457.863183	37718.333333
459.361507	37574.000000
460.859203	37329.333333
462.356271	37253.333333
463.852712	37122.000000
465.348526	36994.000000
466.843714	36966.666667
468.338275	36587.333333
469.832210	36790.333333
471.325520	36581.666667
472.818205	36417.666667
474.310265	36399.333333
475.801700	36186.333333
477.292512	36038.333333
478.782700	36253.000000
480.272264	36118.333333
481.761205	36119.666667
483.249524	35885.666667
484.737221	35867.000000
486.224295	35774.000000
487.710748	35622.000000
489.196579	35405.000000
490.681790	35402.000000
492.166380	35275.000000
493.650350	35365.000000
495.133700	35415.000000
496.616431	35344.333333
498.098542	35363.000000
499.580035	35095.333333
501.060909	35141.333333
502.541165	35222.666667
504.020804	35203.333333
505.499825	35212.333333
506.978228	34965.333333
508.456016	34735.333333
509.933186	34676.666667
511.409741	34579.333333
512.885680	34550.000000
514.361004	34328.000000
515.835713	34637.666667
517.309807	34508.000000
518.783287	34522.333333
520.256153	34557.666667
521.728406	34411.666667
523.200045	34462.333333
524.671071	34402.666667
526.141485	34290.000000
527.611287	34136.333333
529.080476	34119.666667
530.549054	34274.666667
532.017021	34067.333333
533.484378	33964.333333
534.951123	34004.666667
536.417259	33918.333333
537.882785	33854.000000
539.347701	33830.333333
540.812008	33746.333333
542.275707	33596.000000
543.738797	33518.333333
545.201279	33749.000000
546.663153	33705.666667
548.124420	33889.000000
549.585080	33815.666667
551.045133	33722.000000
552.504579	34120.000000
553.963420	33961.333333
555.421655	33955.666667
556.879285	33756.000000
558.336309	33880.666667
559.792729	33776.000000
561.248545	33688.666667
562.703756	33820.000000
564.158364	33660.333333
565.612369	33805.666667
567.065770	33745.666667
568.518569	33849.000000
569.970766	33823.666667
571.422361	33870.000000
572.873354	33934.666667
574.323745	34097.000000
575.773536	34167.333333
577.222726	34072.000000
578.671316	34167.333333
580.119306	34210.333333
581.566696	34141.333333
583.013487	33796.666667
584.459679	33785.666667
585.905273	33323.666667
587.350268	33576.666667
588.794665	33532.333333
590.238465	33616.000000
591.681667	33412.666667
593.124272	33281.000000
594.566281	33187.333333
596.007694	33052.666667
597.448510	32920.666667
598.888731	32913.000000
600.328357	32516.666667
601.767388	32583.000000
603.205824	32449.666667
604.643666	32304.333333
606.080914	32402.666667
607.517568	32225.666667
608.953629	32270.333333
610.389097	32184.333333
611.823972	32053.666667
613.258255	32121.000000
614.691946	31948.333333
616.125046	31919.333333
617.557554	31535.000000
618.989471	31560.666667
620.420798	31384.666667
621.851534	31161.333333
623.281680	31227.333333
624.711237	31000.666667
626.140204	30849.333333
627.568582	30764.333333
628.996372	30568.666667
630.423573	30589.333333
631.850186	30439.333333
633.276211	30346.666667
634.701650	30559.333333
636.126501	30266.333333
637.550765	30471.000000
638.974443	30280.333333
640.397535	30350.333333
641.820041	30114.333333
643.241961	30357.666667
644.663297	30322.666667
646.084048	30102.666667
647.504214	30132.000000
648.923796	29733.333333
650.342795	29688.333333
651.761210	29706.000000
653.179041	29513.333333
654.596290	29546.000000
656.012957	29498.666667
657.429041	29498.333333
658.844543	29322.000000
660.259464	29372.333333
661.673804	29419.333333
663.087563	29392.333333
664.500741	29346.000000
665.913339	29484.666667
667.325357	29104.333333
668.736795	29311.333333
670.147654	29232.666667
671.557934	28996.666667
672.967636	29017.666667
674.376759	28915.666667
675.785304	28960.666667
677.193271	28841.333333
678.600661	28762.000000
680.007474	28845.666667
681.413711	28692.666667
682.819370	28729.333333
684.224454	28670.666667
685.628962	28562.333333
687.032895	28604.666667
688.436252	28514.666667
689.839034	28546.666667
691.241242	28416.666667
692.642876	28231.333333
694.043936	28283.333333
695.444422	28320.000000
696.844336	28161.000000
698.243676	27923.333333
699.642443	28028.666667
701.040639	28125.333333
702.438262	27997.666667
703.835313	28030.666667
705.231794	27901.333333
706.627703	27948.666667
708.023041	27769.000000
709.417810	27755.333333
710.812008	27660.666667
712.205636	27848.333333
713.598694	27779.000000
714.991184	27637.333333
716.383105	27548.000000
717.774457	27585.000000
719.165241	27518.000000
720.555457	27454.666667
721.945105	27403.000000
723.334187	27251.666667
724.722701	27384.333333
726.110648	27368.000000
727.498030	27286.000000
728.884845	27348.000000
730.271094	27189.666667
731.656778	27055.333333
733.041897	27028.000000
734.426451	27123.333333
735.810441	27007.666667
737.193866	26985.333333
738.576728	27043.333333
739.959026	26910.666667
741.340760	26881.333333
742.721932	26933.333333
744.102541	26745.666667
745.482588	26734.000000
746.862073	26693.333333
748.240996	26633.000000
749.619358	26717.666667
750.997158	26686.000000
752.374398	26581.666667
753.751077	26729.333333
755.127197	26564.333333
756.502756	26475.000000
757.877756	26556.666667
759.252196	26427.666667
760.626078	26368.333333
761.999400	26409.000000
763.372165	26424.666667
764.744371	26120.000000
766.116020	26151.000000
767.487111	26175.333333
768.857646	26117.666667
770.227623	26056.333333
771.597044	25837.000000
772.965908	25814.333333
774.334217	25868.666667
775.701970	25812.000000
777.069168	25661.000000
778.435811	25613.333333
779.801899	25529.333333
781.167433	25607.666667
782.532412	25493.000000
783.896838	25505.666667
785.260710	25347.000000
786.624029	25459.666667
787.986796	25352.000000
789.349009	25407.333333
790.710671	25329.000000
792.071780	25403.333333
793.432338	25121.666667
794.792344	25184.333333
796.151799	25033.000000
797.510704	25034.000000
798.869058	25023.333333
800.226862	24768.333333
801.584116	24842.666667
802.940820	24804.666667
804.296975	24900.666667
805.652581	24795.000000
807.007638	24787.333333
808.362147	24966.000000
809.716108	24903.333333
811.069521	24813.666667
812.422387	24708.666667
813.774705	24641.000000
815.126476	24650.000000
816.477701	24509.333333
817.828380	24573.666667
819.178512	24534.000000
820.528099	24556.000000
821.877140	24492.000000
823.225637	24400.666667
824.573588	24369.333333
825.920995	24422.000000
827.267857	24265.666667
828.614176	24212.333333
829.959951	24155.333333
831.305183	24011.333333
832.649871	24085.333333
833.994017	23944.333333
835.337620	24178.666667
836.680681	24006.333333
838.023201	24003.333333
839.365178	23927.000000
840.706614	23809.000000
842.047510	23912.333333
843.387864	24052.333333
844.727678	23973.666667
846.066952	23902.333333
847.405687	23890.333333
848.743881	23976.000000
850.081537	23927.666667
851.418653	24112.000000
852.755231	24090.000000
854.091270	23979.333333
855.426771	23932.000000
856.761735	23845.000000
858.096160	23805.333333
859.430049	23757.666667
860.763401	23705.000000
862.096216	23566.000000
863.428495	23663.666667
864.760237	23578.666667
866.091444	23419.333333
867.422115	23479.666667
868.752252	23461.000000
870.081853	23314.000000
871.410919	23308.000000
872.739452	23141.666667
874.067450	23116.333333
875.394914	23183.666667
876.721845	22999.333333
878.048243	23140.333333
879.374108	23023.666667
880.699440	22918.666667
882.024240	22874.333333
883.348508	22863.333333
884.672244	22680.666667
885.995449	22740.000000
887.318122	22558.666667
888.640265	22581.000000
889.961877	22588.333333
891.282959	22510.666667
892.603510	22379.333333
893.923532	22345.666667
895.243024	22290.333333
896.561987	22194.333333
897.880422	22311.333333
899.198327	22008.666667
900.515705	22193.000000
901.832554	22110.333333
903.148875	22079.333333
904.464669	22085.000000
905.779936	22006.666667
907.094676	22012.333333
908.408889	21973.333333
909.722576	21946.666667
911.035737	22030.333333
912.348371	22096.333333
913.660481	21958.666667
914.972065	22148.000000
916.283124	22153.666667
917.593659	22228.000000
918.903669	22203.333333
920.213155	22304.333333
921.522117	22238.000000
922.830556	22283.000000
924.138471	22155.000000
925.445864	22065.000000
926.752733	22205.666667
928.059081	21988.333333
929.364906	22119.333333
930.670209	22046.000000
931.974991	22300.333333
933.279251	22056.000000
934.582990	22218.000000
935.886209	22463.333333
937.188907	22465.000000
938.491085	22688.000000
939.792743	22752.666667
941.093881	22980.666667
942.394500	23297.333333
943.694600	23470.333333
944.994181	23838.333333
946.293243	24302.000000
947.591787	24818.666667
948.889813	25293.000000
950.187322	26145.000000
951.484313	26972.333333
952.780787	27885.000000
954.076744	29015.333333
955.372184	29621.000000
956.667108	30686.666667
957.961516	30954.000000
959.255409	31008.333333
960.548785	30626.333333
961.841647	29887.333333
963.133993	28993.666667
964.425825	27768.333333
965.717142	26605.333333
967.007946	25453.000000
968.298235	24477.000000
969.588011	23519.333333
970.877273	22667.333333
972.166023	22161.000000
973.454259	21688.666667
974.741984	21250.333333
976.029196	21009.666667
977.315895	20764.666667
978.602084	20599.333333
979.887761	20474.666667
981.172926	20289.333333
982.457581	20272.000000
983.741725	20080.666667
985.025359	20010.000000
986.308483	19911.666667
987.591097	19935.000000
988.873202	19763.000000
990.154797	19806.666667
991.435883	19656.666667
992.716461	19744.000000
993.996530	19715.333333
995.276091	19573.666667
996.555144	19631.000000
997.833690	19648.333333
999.111728	19838.333333
1000.389259	19703.666667
1001.666283	19895.666667
1002.942800	19854.000000
1004.218812	19776.666667
1005.494317	19727.000000
1006.769317	19594.666667
1008.043811	19681.666667
1009.317799	19486.666667
1010.591283	19641.000000
1011.864263	19552.666667
1013.136737	19555.000000
1014.408708	19493.333333
1015.680175	19554.666667
1016.951138	19454.333333
1018.221598	19377.000000
1019.491554	19412.000000
1020.761008	19500.666667
1022.029959	19396.333333
1023.298408	19381.000000
1024.566355	19504.666667
1025.833800	19381.666667
1027.100744	19470.666667
1028.367187	19294.333333
1029.633128	19281.333333
1030.898569	19309.666667
1032.163509	19184.333333
1033.427949	19098.000000
1034.691890	19275.666667
1035.955330	19218.333333
1037.218271	19172.333333
1038.480714	19349.666667
1039.742657	19441.666667
1041.004101	19277.000000
1042.265048	19337.000000
1043.525496	19464.333333
1044.785446	19457.333333
1046.044899	19254.666667
1047.303855	19308.000000
1048.562313	19211.666667
1049.820275	19167.333333
1051.077740	19121.333333
1052.334709	19088.333333
1053.591182	19062.666667
1054.847160	19018.666667
1056.102641	18960.666667
1057.357628	19009.000000
1058.612120	19102.333333
1059.866117	19109.666667
1061.119619	19017.333333
1062.372628	19165.666667
1063.625142	19191.666667
1064.877163	19210.333333
1066.128691	19147.000000
1067.379725	19206.000000
1068.630267	19290.000000
1069.880316	19199.666667
1071.129872	19059.000000
1072.378937	19024.333333
1073.627509	18862.333333
1074.875590	18741.666667
1076.123180	18890.000000
1077.370279	18566.666667
1078.616887	18379.000000
1079.863004	18164.333333
1081.108631	18226.000000
1082.353768	18035.333333
1083.598415	17949.333333
1084.842573	17877.333333
1086.086241	17777.000000
1087.329421	17612.666667
1088.572111	17631.666667
1089.814314	17516.000000
1091.056028	17482.666667
1092.297253	17382.333333
1093.537992	17283.333333
1094.778242	17172.000000
1096.018006	17321.000000
1097.257282	17173.333333
1098.496072	17165.333333
1099.734376	17110.333333
1100.972193	17094.666667
1102.209524	17092.000000
1103.446370	17079.666667
1104.682730	17004.000000
1105.918604	16934.000000
1107.153994	16996.000000
1108.388900	16878.333333
1109.623320	16739.333333
1110.857257	16761.000000
1112.090710	16690.666667
1113.323679	16657.666667
1114.556164	16512.333333
1115.788167	16634.333333
1117.019686	16468.333333
1118.250723	16436.333333
1119.481278	16445.333333
1120.711350	16387.000000
1121.940940	16366.333333
1123.170049	16282.333333
1124.398676	16313.333333
1125.626823	16258.000000
1126.854488	16254.666667
1128.081672	16128.000000
1129.308376	16151.666667
1130.534600	16150.666667
1131.760345	16131.000000
1132.985609	16115.000000
1134.210394	16044.666667
1135.434700	16009.000000
1136.658527	16054.000000
1137.881875	15947.666667
1139.104745	15978.333333
1140.327136	16074.000000
1141.549050	15882.000000
1142.770486	16020.666667
1143.991445	15989.333333
1145.211926	15986.000000
1146.431931	15976.666667
1147.651459	15846.000000
1148.870510	16005.333333
1150.089086	15782.666667
1151.307185	15843.666667
1152.524808	15851.333333
1153.741957	15668.333333
1154.958630	15789.333333
1156.174828	15765.000000
1157.390551	15780.333333
1158.605800	15779.333333
1159.820574	15772.333333
1161.034875	15724.666667
1162.248702	15662.000000
1163.462055	15619.333333
1164.674936	15582.000000
1165.887343	15741.666667
1167.099277	15705.000000
1168.310739	15569.000000
1169.521729	15515.666667
1170.732247	15487.666667
1171.942293	15566.333333
1173.151867	15591.000000
1174.360970	15437.000000
1175.569602	15412.000000
1176.777764	15382.666667
1177.985454	15397.000000
1179.192675	15400.000000
1180.399425	15263.000000
1181.605706	15266.666667
1182.811517	15270.000000
1184.016859	15229.000000
1185.221731	15116.333333
1186.426135	15208.666667
1187.630070	15057.666667
1188.833537	14970.000000
1190.036535	14918.000000
1191.239066	14860.333333
1192.441129	14641.333333
1193.642725	14702.333333
1194.843853	14660.333333
1196.044515	14849.000000
1197.244710	14671.666667
1198.444438	14860.333333
1199.643701	14806.000000
1200.842497	14732.666667
1202.040827	14885.000000
1203.238693	14838.333333
1204.436092	14763.000000
1205.633027	14698.333333
1206.829497	14670.333333
1208.025503	14676.000000
1209.221044	14690.666667
1210.416122	14606.333333
1211.610735	14632.333333
1212.804885	14515.666667
1213.998572	14496.000000
1215.191795	14497.666667
1216.384556	14486.666667
1217.576854	14377.333333
1218.768689	14372.000000
1219.960063	14392.000000
1221.150974	14304.000000
1222.341424	14325.666667
1223.531413	14335.666667
1224.720940	14305.333333
1225.910006	14331.000000
1227.098612	14378.333333
1228.286757	14391.666667
1229.474442	14411.000000
1230.661667	14362.000000
1231.848432	14382.000000
1233.034738	14575.666667
1234.220584	14533.000000
1235.405971	14528.666667
1236.590900	14585.000000
1237.775369	14608.666667
1238.959381	14518.000000
1240.142934	14631.333333
1241.326029	14554.333333
1242.508667	14649.333333
1243.690848	14575.666667
1244.872571	14541.000000
1246.053837	14604.333333
1247.234646	14562.666667
1248.414999	14535.000000
1249.594896	14464.666667
1250.774337	14384.666667
1251.953322	14356.666667
1253.131851	14360.666667
1254.309925	14249.666667
1255.487544	14304.666667
1256.664708	14217.333333
1257.841417	14246.666667
1259.017673	14243.333333
1260.193473	14146.666667
1261.368820	14226.333333
1262.543714	14257.000000
1263.718154	14243.000000
1264.892140	14218.333333
1266.065674	14254.000000
1267.238755	14211.000000
1268.411383	14189.333333
1269.583559	14119.333333
1270.755283	14209.666667
1271.926555	14086.333333
1273.097375	14108.000000
1274.267744	14247.000000
1275.437662	14063.000000
1276.607129	14155.666667
1277.776145	13999.666667
1278.944711	14114.333333
1280.112827	14045.666667
1281.280492	13874.666667
1282.447708	13860.666667
1283.614474	13828.333333
1284.780791	13709.000000
1285.946659	13768.666667
1287.112078	13694.333333
1288.277048	13653.000000
1289.441570	13522.000000
1290.605644	13428.000000
1291.769270	13405.666667
1292.932448	13458.666667
1294.095178	13352.333333
1295.257461	13361.000000
1296.419298	13268.666667
1297.580687	13266.333333
1298.741630	13137.333333
1299.902126	13168.333333
1301.062177	13169.000000
1302.221781	13259.333333
1303.380940	13173.666667
1304.539653	13205.333333
1305.697921	13079.333333
1306.855744	13148.666667
1308.013123	13127.333333
1309.170056	13115.000000
1310.326546	13180.666667
1311.482591	13101.000000
1312.638193	13042.000000
1313.793350	13066.666667
1314.948065	13073.000000
1316.102336	13066.000000
1317.256164	13052.333333
1318.409550	13032.000000
1319.562493	13005.666667
1320.714993	12877.666667
1321.867052	12859.666667
1323.018668	12955.666667
1324.169843	12924.333333
1325.320577	12806.333333
1326.470870	12673.000000
1327.620721	12784.333333
1328.770132	12717.000000
1329.919102	12743.333333
1331.067632	12605.666667
1332.215722	12597.000000
1333.363372	12630.333333
1334.510582	12605.333333
1335.657353	12561.333333
1336.803685	12637.666667
1337.949578	12596.666667
1339.095032	12573.000000
1340.240048	12493.000000
1341.384625	12600.333333
1342.528764	12538.000000
1343.672466	12650.666667
1344.815729	12628.333333
1345.958556	12530.000000
1347.100945	12475.333333
1348.242897	12472.666667
1349.384413	12373.333333
1350.525492	12292.666667
1351.666134	12376.333333
1352.806341	12320.333333
1353.946111	12257.000000
1355.085446	12221.333333
1356.224346	12182.000000
1357.362810	12215.333333
1358.500840	12147.333333
1359.638434	12045.333333
1360.775594	12059.000000
1361.912320	12073.666667
1363.048612	11949.333333
1364.184469	11965.333333
1365.319893	12024.666667
1366.454884	11981.666667
1367.589441	11933.333333
1368.723566	12032.000000
1369.857257	12030.000000
1370.990516	11985.000000
1372.123343	11983.666667
1373.255737	11898.666667
1374.387699	11995.333333
1375.519230	12017.000000
1376.650329	11930.666667
1377.780997	11974.000000
1378.911234	12008.000000
1380.041040	11940.333333
1381.170416	11836.333333
1382.299361	11957.333333
1383.427875	11886.666667
1384.555960	11897.333333
1385.683615	11916.666667
1386.810841	11867.333333
1387.937637	11846.000000
1389.064004	11832.333333
1390.189942	11801.333333
1391.315451	11866.000000
1392.440532	11773.000000
1393.565185	11793.000000
1394.689409	11690.666667
1395.813206	11637.666667
1396.936575	11621.666667
1398.059517	11722.000000
1399.182032	11690.666667
1400.304119	11504.666667
1401.425780	11587.000000
1402.547014	11547.666667
1403.667822	11541.666667
1404.788204	11589.666667
1405.908160	11564.666667
1407.027690	11593.333333
1408.146795	11456.666667
1409.265474	11507.666667
1410.383728	11503.000000
1411.501558	11550.333333
1412.618963	11554.666667
1413.735943	11502.000000
1414.852499	11436.333333
1415.968632	11511.666667
1417.084340	11562.333333
1418.199625	11521.666667
1419.314486	11527.666667
1420.428925	11452.666667
1421.542940	11517.666667
1422.656533	11514.333333
1423.769703	11452.000000
1424.882451	11506.000000
1425.994777	11411.333333
1427.106680	11375.666667
1428.218163	11389.000000
1429.329223	11368.666667
1430.439863	11217.333333
1431.550081	11340.000000
1432.659879	11252.000000
1433.769256	11278.000000
1434.878212	11234.666667
1435.986749	11211.000000
1437.094865	11303.333333
1438.202562	11221.000000
1439.309839	11240.666667
1440.416696	11299.333333
1441.523135	11259.666667
1442.629154	11221.666667
1443.734755	11354.666667
1444.839937	11317.666667
1445.944701	11357.666667
1447.049047	11475.666667
1448.152975	11439.333333
1449.256485	11454.666667
1450.359577	11366.333333
1451.462253	11330.000000
1452.564511	11306.666667
1453.666352	11356.666667
1454.767777	11317.000000
1455.868785	11367.000000
1456.969377	11267.333333
1458.069553	11256.666667
1459.169313	11206.000000
1460.268658	11146.666667
1461.367587	11049.333333
1462.466101	11025.000000
1463.564200	11028.666667
1464.661884	10994.000000
1465.759153	10823.000000
1466.856008	10796.000000
1467.952449	10823.666667
1469.048476	10741.000000
1470.144089	10579.000000
1471.239288	10520.666667
1472.334074	10503.666667
1473.428447	10442.000000
1474.522407	10431.666667
1475.615955	10252.333333
1476.709089	10286.000000
1477.801812	10365.333333
1478.894122	10291.000000
1479.986020	10113.000000
1481.077506	10262.666667
1482.168581	10173.666667
1483.259245	10178.333333
1484.349498	9969.666667
1485.439339	10122.000000
1486.528770	10074.333333
1487.617790	10046.666667
1488.706400	10032.000000
1489.794600	9981.333333
1490.882390	10056.000000
1491.969771	9962.000000
1493.056742	9976.333333
1494.143303	9942.666667
1495.229456	9954.333333
1496.315199	9928.666667
1497.400534	9854.666667
1498.485460	9867.333333
1499.569978	9888.000000
1500.654088	9774.000000
1501.737790	9683.333333
1502.821085	9809.333333
1503.903972	9735.000000
1504.986451	9778.333333
1506.068524	9700.666667
1507.150189	9658.333333
1508.231448	9638.000000
1509.312301	9684.666667
1510.392747	9593.666667
1511.472787	9528.333333
1512.552422	9508.333333
1513.631650	9497.000000
1514.710473	9468.000000
1515.788891	9515.666667
1516.866904	9517.000000
1517.944512	9416.666667
1519.021715	9482.666667
1520.098513	9499.333333
1521.174908	9525.666667
1522.250898	9529.333333
1523.326485	9435.666667
1524.401667	9412.666667
1525.476447	9395.333333
1526.550823	9537.666667
1527.624796	9503.666667
1528.698365	9508.000000
1529.771533	9509.000000
1530.844298	9515.333333
1531.916660	9445.000000
1532.988620	9478.000000
1534.060179	9452.333333
1535.131336	9402.333333
1536.202091	9350.666667
1537.272445	9408.000000
1538.342398	9326.333333
1539.411950	9309.000000
1540.481101	9262.000000
1541.549851	9257.333333
1542.618202	9263.333333
1543.686152	9185.666667
1544.753702	9183.666667
1545.820853	9102.000000
1546.887604	9238.333333
1547.953955	9104.333333
1549.019908	9102.666667
1550.085461	9127.666667
1551.150616	9076.666667
1552.215372	8974.666667
1553.279730	8982.000000
1554.343690	8978.666667
1555.407252	8959.333333
1556.470415	8967.000000
1557.533182	8956.666667
1558.595551	8865.666667
1559.657522	8906.333333
1560.719097	8866.000000
1561.780275	8889.000000
1562.841056	8873.000000
1563.901441	8807.000000
1564.961429	8772.333333
1566.021022	8847.666667
1567.080219	8772.333333
1568.139020	8805.666667
1569.197425	8835.666667
1570.255436	8728.666667
1571.313051	8733.666667
1572.370271	8649.333333
1573.427097	8701.666667
1574.483528	8754.666667
1575.539565	8709.000000
1576.595208	8676.000000
1577.650457	8651.333333
1578.705312	8596.333333
1579.759774	8601.666667
1580.813842	8577.666667
1581.867517	8430.000000
1582.920799	8490.666667
1583.973689	8346.333333
1585.026186	8440.333333
1586.078290	8414.666667
1587.130002	8440.333333
1588.181323	8482.000000
1589.232251	8427.666667
1590.282788	8351.666667
1591.332933	8286.000000
1592.382688	8326.333333
1593.432051	8328.333333
1594.481023	8286.333333
1595.529605	8302.000000
1596.577796	8390.333333
1597.625597	8348.000000
1598.673007	8364.333333
1599.720028	8445.666667
1600.766660	8422.333333
1601.812901	8467.000000
1602.858753	8478.000000
1603.904217	8397.666667
1604.949291	8448.000000
1605.993976	8422.666667
1607.038273	8368.333333
1608.082182	8453.000000
1609.125702	8416.000000
1610.168834	8312.333333
1611.211579	8297.000000
1612.253935	8254.333333
1613.295905	8233.666667
1614.337487	8146.000000
1615.378682	8177.666667
1616.419490	8145.333333
1617.459912	8135.666667
1618.499946	8228.333333
1619.539595	8149.000000
1620.578858	8234.333333
1621.617734	8226.333333
1622.656225	8236.333333
1623.694330	8201.666667
1624.732050	8224.000000
1625.769385	8076.666667
1626.806334	8086.000000
1627.842899	8052.666667
1628.879079	8072.333333
1629.914875	8058.000000
1630.950286	7982.666667
1631.985314	8079.000000
1633.019957	8133.333333
1634.054217	8146.333333
1635.088093	8094.333333
1636.121586	8044.333333
1637.154696	8069.666667
1638.187423	8147.666667
1639.219767	8186.000000
1640.251728	8186.666667
1641.283307	8199.666667
1642.314504	8137.000000
1643.345319	8093.666667
1644.375751	8103.000000
1645.405803	8068.666667
1646.435472	8137.333333
1647.464761	8095.666667
1648.493668	8102.666667
1649.522194	8101.333333
1650.550340	8144.000000
1651.578105	8052.000000
1652.605490	8115.333333
1653.632494	8138.666667
1654.659119	8027.333333
1655.685363	7981.333333
1656.711228	7978.000000
1657.736714	7897.666667
1658.761820	7990.666667
1659.786547	7856.333333
1660.810895	7865.333333
1661.834865	7811.333333
1662.858456	7864.000000
1663.881668	7816.000000
1664.904503	7825.000000
1665.926959	7759.333333
1666.949038	7709.333333
1667.970739	7787.666667
1668.992062	7679.666667
1670.013008	7744.666667
1671.033577	7699.333333
1672.053770	7699.666667
1673.073585	7611.000000
1674.093024	7633.000000
1675.112086	7650.333333
1676.130773	7600.666667
1677.149083	7597.000000
1678.167017	7606.666667
1679.184576	7581.666667
1680.201760	7564.000000
1681.218568	7597.666667
1682.235001	7534.333333
1683.251059	7525.000000
1684.266742	7517.666667
1685.282051	7478.666667
1686.296985	7429.666667
1687.311546	7433.000000
1688.325732	7414.666667
1689.339544	7391.666667
1690.352983	7365.000000
1691.366048	7293.000000
1692.378740	7239.000000
1693.391058	7140.000000
1694.403004	7160.000000
1695.414577	7152.000000
1696.425778	7172.000000
1697.436606	7119.333333
1698.447061	7021.000000
1699.457145	7007.000000
1700.466857	6910.000000
1701.476197	6873.333333
1702.485166	6818.333333
1703.493763	6798.666667
1704.501989	6748.000000
1705.509844	6815.000000
1706.517328	6779.333333
1707.524442	6816.000000
1708.531185	6771.000000
1709.537558	6773.333333
1710.543561	6678.666667
1711.549194	6696.666667
1712.554457	6667.666667
1713.559351	6663.333333
1714.563875	6694.000000
1715.568030	6589.666667
1716.571816	6659.000000
1717.575233	6661.666667
1718.578282	6698.333333
1719.580962	6754.000000
1720.583273	6823.333333
1721.585217	6824.333333
1722.586792	6858.000000
1723.588000	6710.000000
1724.588840	6801.333333
1725.589312	6674.333333
1726.589418	6819.000000
1727.589156	6724.333333
1728.588527	6820.333333
1729.587532	6817.333333
1730.586170	6832.666667
1731.584441	6770.000000
1732.582346	6711.000000
1733.579886	6711.000000
1734.577059	6609.000000
1735.573867	6605.000000
1736.570309	6636.666667
1737.566386	6641.666667
1738.562097	6628.333333
1739.557444	6609.333333
1740.552426	6499.000000
1741.547043	6503.333333
1742.541295	6522.000000
1743.535184	6474.000000
1744.528708	6377.333333
1745.521868	6520.666667
1746.514664	6384.000000
1747.507097	6415.333333
1748.499166	6318.333333
1749.490873	6348.666667
1750.482216	6362.666667
1751.473196	6377.333333
1752.463813	6377.333333
1753.454068	6353.000000
1754.443960	6310.333333
1755.433490	6309.666667
1756.422658	6271.333333
1757.411464	6281.666667
1758.399908	6245.666667
1759.387991	6238.333333
1760.375713	6286.000000
1761.363073	6304.333333
1762.350072	6320.666667
1763.336711	6264.666667
1764.322988	6231.333333
1765.308905	6224.333333
1766.294462	6251.000000
1767.279659	6161.666667
1768.264496	6118.000000
1769.248972	6196.000000
1770.233089	6143.666667
1771.216847	6054.666667
1772.200245	6048.666667
1773.183284	6075.333333
1774.165965	6116.666667
1775.148286	6033.333333
1776.130249	6016.666667
1777.111853	5999.000000
1778.093099	6002.666667
1779.073987	5912.000000
1780.054517	5923.333333
1781.034689	5829.000000
1782.014503	5815.666667
1782.993960	5723.333333
1783.973060	5707.333333
1784.951802	5642.333333
1785.930188	5664.666667
1786.908217	5632.333333
1787.885889	5533.000000
1788.863205	5595.333333
1789.840164	5597.000000
1790.816768	5590.333333
1791.793015	5554.000000
1792.768907	5547.333333
1793.744443	5605.333333
1794.719624	5552.666667
1795.694449	5596.666667
1796.668919	5552.000000
1797.643035	5552.333333
1798.616795	5617.333333
1799.590201	5619.666667
1800.563253	5562.000000
1801.535950	5614.333333
1802.508294	5591.333333
1803.480283	5572.000000
1804.451919	5667.666667
1805.423201	5644.333333
1806.394129	5601.333333
1807.364705	5637.333333
1808.334927	5658.333333
1809.304796	5587.000000
1810.274313	5564.333333
1811.243477	5557.666667
1812.212288	5542.000000
1813.180747	5501.666667
1814.148855	5570.333333
1815.116610	5552.666667
1816.084013	5546.333333
1817.051065	5592.666667
1818.017766	5580.333333
1818.984115	5526.333333
1819.950113	5604.333333
1820.915760	5550.000000
1821.881057	5506.666667
1822.846003	5546.000000
1823.810598	5538.333333
1824.774843	5485.666667
1825.738738	5560.333333
1826.702283	5542.000000
1827.665479	5550.000000
1828.628324	5469.000000
1829.590821	5434.000000
1830.552968	5425.000000
1831.514765	5412.666667
1832.476214	5426.333333
1833.437314	5408.666667
1834.398066	5370.000000
1835.358469	5358.000000
1836.318524	5333.000000
1837.278230	5281.000000
1838.237589	5314.000000
1839.196600	5298.000000
1840.155263	5282.666667
1841.113578	5321.000000
1842.071547	5334.000000
1843.029168	5356.333333
1843.986442	5364.333333
1844.943369	5344.666667
1845.899950	5363.333333
1846.856184	5379.666667
1847.812072	5263.000000
1848.767614	5285.000000
1849.722809	5263.000000
1850.677659	5283.000000
1851.632163	5265.333333
1852.586322	5237.666667
1853.540135	5275.000000
1854.493603	5296.666667
1855.446726	5209.000000
1856.399504	5268.666667
1857.351937	5272.333333
1858.304026	5230.666667
1859.255770	5139.000000
1860.207170	5183.000000
1861.158227	5116.333333
1862.108939	5011.333333
1863.059307	5039.666667
1864.009332	5055.000000
1864.959013	5080.000000
1865.908351	4950.333333
1866.857346	5060.666667
1867.805998	4999.333333
1868.754307	4999.333333
1869.702274	4906.000000
1870.649898	4950.666667
1871.597180	4878.000000
1872.544119	4930.333333
1873.490717	4973.333333
1874.436973	4898.666667
1875.382887	4912.000000
1876.328459	4840.333333
1877.273691	4886.000000
1878.218581	4784.000000
1879.163130	4832.000000
1880.107338	4835.333333
1881.051205	4850.666667
1881.994732	4846.000000
1882.937919	4847.333333
1883.880765	4825.333333
1884.823271	4850.000000
1885.765437	4869.666667
1886.707264	4887.666667
1887.648750	4868.333333
1888.589898	4862.666667
1889.530706	4869.333333
1890.471175	4914.666667
1891.411305	4926.333333
1892.351096	4933.000000
1893.290548	4901.666667
1894.229662	4926.666667
1895.168438	4925.000000
1896.106876	4877.333333
1897.044975	4926.000000
1897.982737	4935.666667
1898.920160	4905.666667
1899.857247	4909.666667
1900.793996	4861.333333
1901.730407	4882.666667
1902.666482	4818.666667
1903.602219	4852.333333
1904.537620	4821.666667
1905.472685	4797.000000
1906.407412	4787.666667
1907.341804	4683.666667
1908.275859	4742.333333
1909.209579	4693.000000
1910.142962	4693.666667
1911.076010	4610.666667
1912.008722	4688.000000
1912.941099	4572.000000
1913.873141	4552.000000
1914.804848	4570.333333
1915.736219	4553.000000
1916.667256	4515.000000
1917.597959	4528.333333
1918.528327	4481.000000
1919.458360	4524.000000
1920.388060	4458.666667
1921.317426	4446.000000
1922.246457	4457.000000
1923.175156	4462.666667
1924.103520	4419.000000
1925.031552	4428.000000
1925.959250	4450.666667
1926.886615	4411.666667
1927.813647	4431.000000
1928.740346	4399.333333
1929.666713	4425.333333
1930.592748	4418.000000
1931.518450	4443.666667
1932.443820	4438.000000
1933.368858	4435.666667
1934.293564	4393.000000
1935.217939	4356.333333
1936.141982	4369.333333
1937.065694	4401.666667
1937.989074	4384.333333
1938.912124	4354.666667
1939.834842	4340.666667
1940.757230	4271.333333
1941.679287	4303.000000
1942.601014	4309.333333
1943.522411	4248.333333
1944.443477	4270.000000
1945.364214	4274.000000
1946.284621	4259.333333
1947.204698	4201.666667
1948.124445	4192.666667
1949.043863	4237.666667
1949.962952	4188.333333
1950.881712	4213.333333
1951.800143	4196.666667
1952.718245	4153.333333
1953.636019	4147.666667
1954.553464	4104.000000
1955.470581	4081.666667
1956.387369	4128.333333
1957.303830	4050.666667
1958.219963	4062.333333
1959.135768	4043.000000
1960.051246	4017.666667
1960.966396	4063.666667
1961.881219	4026.333333
1962.795715	4054.333333
1963.709883	4087.666667
1964.623726	4066.666667
1965.537241	4107.666667
1966.450430	4088.666667
1967.363293	4086.000000
1968.275829	4085.666667
1969.188040	4074.333333
1970.099924	4108.000000
1971.011483	4121.666667
1971.922716	4109.000000
1972.833624	4130.666667
1973.744206	4135.666667
1974.654464	4167.000000
1975.564396	4052.000000
1976.474004	4093.000000
1977.383286	4005.333333
1978.292245	4054.000000
1979.200878	4049.333333
1980.109188	4042.666667
1981.017174	3987.666667
1981.924835	4010.000000
1982.832173	3967.000000
1983.739187	3979.666667
1984.645878	3990.333333
1985.552245	3927.000000
1986.458289	3928.666667
1987.364010	3900.666667
1988.269408	3865.333333
1989.174484	3870.333333
1990.079236	3854.000000
1990.983667	3807.333333
1991.887775	3810.666667
1992.791561	3814.666667
1993.695024	3754.000000
1994.598166	3740.000000
1995.500986	3700.666667
1996.403485	3728.333333
1997.305662	3695.666667
1998.207518	3697.333333
1999.109053	3716.666667
