200.151048	20617.666667
201.758777	20443.000000
203.365815	20593.666667
204.972162	20410.000000
206.577820	20463.333333
208.182787	20386.000000
209.787065	20418.666667
211.390653	20115.333333
212.993553	20084.666667
214.595765	20060.333333
216.197289	19985.666667
217.798125	19960.333333
219.398274	19888.666667
220.997737	19814.000000
222.596513	19841.333333
224.194603	19745.666667
225.792008	19672.666667
227.388728	19713.666667
228.984763	19706.000000
230.580114	19506.000000
232.174781	19597.000000
233.768765	19446.333333
235.362065	19432.666667
236.954683	19411.000000
238.546619	19283.666667
240.137872	19229.000000
241.728445	19112.000000
243.318336	19249.000000
244.907546	19061.000000
246.496076	19053.666667
248.083926	18981.666667
249.671097	18899.000000
251.257589	18925.333333
252.843402	18688.000000
254.428536	18654.333333
256.012993	18605.000000
257.596772	18475.000000
259.179874	18420.666667
260.762300	18386.666667
262.344049	18315.000000
263.925122	18403.000000
265.505519	18289.666667
267.085241	18239.000000
268.664289	18220.000000
270.242662	18191.666667
271.820361	18147.333333
273.397387	18147.000000
274.973740	18091.666667
276.549419	18074.666667
278.124426	18044.000000
279.698762	18010.000000
281.272425	18058.666667
282.845417	17973.000000
284.417739	18082.333333
285.989390	18081.333333
287.560371	17960.333333
289.130682	17970.666667
290.700324	18047.000000
292.269297	18053.333333
293.837602	17845.333333
295.405238	17822.333333
296.972207	17842.666667
298.538508	17753.333333
300.104142	17817.666667
301.669110	17796.000000
303.233411	17638.333333
304.797047	17579.333333
306.360017	17513.333333
307.922322	17461.333333
309.483963	17304.333333
311.044939	17214.333333
312.605252	17285.666667
314.164900	17251.666667
315.723886	17103.333333
317.282209	17141.666667
318.839870	17064.666667
320.396868	16940.000000
321.953205	16892.333333
323.508881	16867.666667
325.063896	16882.666667
326.618251	16822.333333
328.171945	16746.000000
329.724980	16688.666667
331.277356	16705.000000
332.829072	16683.333333
334.380131	16745.333333
335.930530	16587.000000
337.480273	16573.666667
339.029357	16481.666667
340.577785	16532.000000
342.125556	16544.333333
343.672671	16477.333333
345.219130	16438.666667
346.764933	16431.000000
348.310081	16445.666667
349.854575	16407.666667
351.398414	16276.000000
352.941599	16341.000000
354.484130	16247.000000
356.026008	16179.333333
357.567234	16158.666667
359.107807	16203.333333
360.647727	16125.666667
362.186996	16045.333333
363.725614	16040.333333
365.263580	16119.000000
366.800896	16041.000000
368.337562	15951.666667
369.873578	15858.000000
371.408944	15942.333333
372.943661	15991.333333
374.477730	15954.000000
376.011150	16076.666667
377.543922	15982.000000
379.076046	15928.333333
380.607523	15952.000000
382.138353	15948.000000
383.668537	15922.000000
385.198075	15797.333333
386.726966	15963.666667
388.255213	15953.666667
389.782814	15776.666667
391.309770	15771.333333
392.836083	15962.000000
394.361751	15698.666667
395.886776	15802.333333
397.411157	15815.333333
398.934896	15775.666667
400.457992	15858.333333
401.980446	15828.000000
403.502258	15773.666667
405.023429	15913.666667
406.543959	15842.000000
408.063849	15824.333333
409.583098	15974.000000
411.101707	15863.666667
412.619677	15980.333333
414.137007	15986.000000
415.653699	16058.333333
417.169752	16258.666667
418.685167	16306.000000
420.199945	16466.333333
421.714085	16421.333333
423.227588	16553.333333
424.740454	16710.333333
426.252684	16739.333333
427.764279	16805.333333
429.275238	16775.333333
430.785561	16772.666667
432.295250	16762.000000
433.804304	16515.333333
435.312725	16585.000000
436.820511	16397.666667
438.327664	16289.000000
439.834185	16216.666667
441.340072	16015.666667
442.845327	16003.666667
444.349951	16068.333333
445.853942	15861.666667
447.357303	15911.666667
448.860033	15746.666667
450.362132	15647.333333
451.863601	15666.333333
453.364440	15628.000000
454.864650	15440.666667
456.364231	15354.000000
457.863183	15328.000000
459.361507	15121.666667
460.859203	15199.666667
462.356271	15023.666667
463.852712	14991.000000
465.348526	14810.333333
466.843714	14792.333333
468.338275	14681.000000
469.832210	14679.666667
471.325520	14645.000000
472.818205	14497.333333
474.310265	14484.000000
475.801700	14413.666667
477.292512	14403.666667
478.782700	14460.666667
480.272264	14376.000000
481.761205	14353.000000
483.249524	14332.666667
484.737221	14127.333333
486.224295	14241.333333
487.710748	14159.333333
489.196579	14286.666667
490.681790	14097.666667
492.166380	14169.666667
493.650350	14123.666667
495.133700	13992.666667
496.616431	14063.666667
498.098542	14043.000000
499.580035	13976.000000
501.060909	13910.666667
502.541165	14079.333333
504.020804	13984.333333
505.499825	14008.333333
506.978228	13842.000000
508.456016	13994.666667
509.933186	13819.333333
511.409741	13800.000000
512.885680	13838.000000
514.361004	13702.666667
515.835713	13782.333333
517.309807	13887.666667
518.783287	13737.333333
520.256153	13679.333333
521.728406	13760.666667
523.200045	13789.000000
524.671071	13741.333333
526.141485	13754.333333
527.611287	13764.333333
529.080476	13690.666667
530.549054	13757.333333
532.017021	13738.000000
533.484378	13566.333333
534.951123	13668.666667
536.417259	13645.000000
537.882785	13632.333333
539.347701	13619.333333
540.812008	13516.666667
542.275707	13632.333333
543.738797	13551.333333
545.201279	13465.000000
546.663153	13621.333333
548.124420	13529.000000
549.585080	13539.333333
551.045133	13533.000000
552.504579	13606.000000
553.963420	13701.000000
555.421655	13552.000000
556.879285	13592.333333
558.336309	13656.333333
559.792729	13634.000000
561.248545	13661.333333
562.703756	13695.333333
564.158364	13674.333333
565.612369	13924.000000
567.065770	13810.000000
568.518569	13861.333333
569.970766	13940.666667
571.422361	13905.000000
572.873354	13954.333333
574.323745	14075.000000
575.773536	14125.000000
577.222726	14087.000000
578.671316	14218.666667
580.119306	14307.000000
581.566696	14243.666667
583.013487	14241.666667
584.459679	14187.666667
585.905273	14184.000000
587.350268	14167.666667
588.794665	14110.333333
590.238465	14110.666667
591.681667	14049.666667
593.124272	13929.000000
594.566281	13882.000000
596.007694	13732.000000
597.448510	13666.666667
598.888731	13592.666667
600.328357	13513.333333
601.767388	13380.000000
603.205824	13373.666667
604.643666	13384.000000
606.080914	13347.666667
607.517568	13310.333333
608.953629	13339.000000
610.389097	13346.666667
611.823972	13192.000000
613.258255	13237.666667
614.691946	13175.000000
616.125046	13120.666667
617.557554	13058.000000
618.989471	12966.333333
620.420798	12896.000000
621.851534	12854.333333
623.281680	12890.333333
624.711237	12713.666667
626.140204	12508.666667
627.568582	12628.000000
628.996372	12615.666667
630.423573	12547.666667
631.850186	12582.333333
633.276211	12488.666667
634.701650	12463.666667
636.126501	12356.333333
637.550765	12378.000000
638.974443	12378.000000
640.397535	12517.666667
641.820041	12356.666667
643.241961	12332.666667
644.663297	12307.333333
646.084048	12412.000000
647.504214	12378.666667
648.923796	12287.333333
650.342795	12252.000000
651.761210	12302.666667
653.179041	12256.333333
654.596290	12247.000000
656.012957	12204.000000
657.429041	12152.000000
658.844543	12336.666667
660.259464	12240.666667
661.673804	12317.666667
663.087563	12205.333333
664.500741	12270.666667
665.913339	12211.000000
667.325357	12187.333333
668.736795	12196.333333
670.147654	12218.666667
671.557934	12257.000000
672.967636	12259.000000
674.376759	12156.000000
675.785304	12170.000000
677.193271	12194.000000
678.600661	12188.333333
680.007474	12179.000000
681.413711	12015.000000
682.819370	12117.000000
684.224454	12076.000000
685.628962	12067.333333
687.032895	12058.666667
688.436252	12156.000000
689.839034	12113.000000
691.241242	12071.333333
692.642876	12092.333333
694.043936	11984.000000
695.444422	12007.000000
696.844336	12027.000000
698.243676	11945.333333
699.642443	11989.000000
701.040639	12004.000000
702.438262	12034.000000
703.835313	12015.666667
705.231794	11904.666667
706.627703	12002.000000
708.023041	11912.666667
709.417810	11996.000000
710.812008	11965.666667
712.205636	11944.333333
713.598694	12033.000000
714.991184	11894.666667
716.383105	11934.000000
717.774457	11977.666667
719.165241	11889.666667
720.555457	11964.333333
721.945105	11969.666667
723.334187	11918.666667
724.722701	11924.666667
726.110648	11908.333333
727.498030	11913.333333
728.884845	11868.000000
730.271094	11940.666667
731.656778	11863.333333
733.041897	11853.333333
734.426451	11834.333333
735.810441	11799.000000
737.193866	11953.333333
738.576728	11877.333333
739.959026	11968.333333
741.340760	11799.000000
742.721932	11844.000000
744.102541	11974.333333
745.482588	11841.000000
746.862073	11850.333333
748.240996	11911.333333
749.619358	11826.666667
750.997158	11857.333333
752.374398	11882.000000
753.751077	11913.333333
755.127197	11838.666667
756.502756	11893.333333
757.877756	11836.000000
759.252196	11926.666667
760.626078	11880.666667
761.999400	11811.333333
763.372165	11838.666667
764.744371	11904.000000
766.116020	11831.333333
767.487111	11833.333333
768.857646	11835.666667
770.227623	11834.666667
771.597044	11811.333333
772.965908	11790.666667
774.334217	11902.333333
775.701970	11751.000000
777.069168	11807.333333
778.435811	11809.666667
779.801899	11792.666667
781.167433	11735.000000
782.532412	11749.666667
783.896838	11782.000000
785.260710	11790.333333
786.624029	11831.666667
787.986796	11667.333333
789.349009	11755.666667
790.710671	11660.666667
792.071780	11689.666667
793.432338	11773.666667
794.792344	11700.666667
796.151799	11786.666667
797.510704	11677.666667
798.869058	11803.666667
800.226862	11781.000000
801.584116	11800.000000
802.940820	11816.000000
804.296975	11758.333333
805.652581	11835.000000
807.007638	11806.000000
808.362147	11790.333333
809.716108	11949.333333
811.069521	12002.000000
812.422387	11863.333333
813.774705	11962.666667
815.126476	11960.666667
816.477701	11912.666667
817.828380	11836.666667
819.178512	11853.333333
820.528099	11822.666667
821.877140	11924.333333
823.225637	11918.666667
824.573588	11908.333333
825.920995	11805.333333
827.267857	11965.333333
828.614176	11884.666667
829.959951	11931.666667
831.305183	11876.333333
832.649871	11979.666667
833.994017	11937.333333
835.337620	11905.333333
836.680681	11945.000000
838.023201	11927.000000
839.365178	12039.666667
840.706614	12057.000000
842.047510	12031.333333
843.387864	12166.333333
844.727678	12148.333333
846.066952	12171.666667
847.405687	12234.333333
848.743881	12303.333333
850.081537	12307.333333
851.418653	12408.666667
852.755231	12439.333333
854.091270	12392.000000
855.426771	12395.333333
856.761735	12443.000000
858.096160	12468.333333
859.430049	12446.666667
860.763401	12404.333333
862.096216	12309.666667
863.428495	12378.333333
864.760237	12306.333333
866.091444	12329.333333
867.422115	12273.666667
868.752252	12325.000000
870.081853	12257.666667
871.410919	12233.666667
872.739452	12330.333333
874.067450	12335.333333
875.394914	12355.666667
876.721845	12388.000000
878.048243	12420.333333
879.374108	12336.000000
880.699440	12351.666667
882.024240	12341.333333
883.348508	12352.000000
884.672244	12316.666667
885.995449	12293.333333
887.318122	12298.666667
888.640265	12448.333333
889.961877	12336.666667
891.282959	12268.333333
892.603510	12342.666667
893.923532	12433.333333
895.243024	12407.666667
896.561987	12373.333333
897.880422	12391.000000
899.198327	12481.333333
900.515705	12346.333333
901.832554	12372.333333
903.148875	12354.666667
904.464669	12442.000000
905.779936	12507.333333
907.094676	12434.333333
908.408889	12572.000000
909.722576	12529.000000
911.035737	12535.333333
912.348371	12561.000000
913.660481	12720.000000
914.972065	12774.000000
916.283124	12830.333333
917.593659	12775.666667
918.903669	12930.333333
920.213155	13026.000000
921.522117	12978.333333
922.830556	12957.333333
924.138471	12946.666667
925.445864	13031.333333
926.752733	12977.333333
928.059081	13066.000000
929.364906	13049.000000
930.670209	13134.000000
931.974991	13302.000000
933.279251	13316.666667
934.582990	13300.333333
935.886209	13452.666667
937.188907	13718.000000
938.491085	13815.000000
939.792743	13974.000000
941.093881	14144.000000
942.394500	14327.333333
943.694600	14548.000000
944.994181	14884.333333
946.293243	15093.000000
947.591787	15549.333333
948.889813	16039.333333
950.187322	16434.333333
951.484313	16985.333333
952.780787	17656.666667
954.076744	18234.000000
955.372184	18885.333333
956.667108	19386.000000
957.961516	19719.666667
959.255409	19886.000000
960.548785	19762.333333
961.841647	19232.333333
963.133993	18738.000000
964.425825	17960.000000
965.717142	17345.000000
967.007946	16648.666667
968.298235	16024.333333
969.588011	15408.333333
970.877273	14847.000000
972.166023	14382.333333
973.454259	14157.000000
974.741984	13839.666667
976.029196	13693.000000
977.315895	13370.333333
978.602084	13430.666667
979.887761	13291.333333
981.172926	13144.000000
982.457581	13204.333333
983.741725	13079.333333
985.025359	13113.666667
986.308483	13099.333333
987.591097	13011.666667
988.873202	13019.000000
990.154797	13012.000000
991.435883	13124.000000
992.716461	13030.666667
993.996530	13183.666667
995.276091	13131.000000
996.555144	13148.000000
997.833690	13162.333333
999.111728	13275.666667
1000.389259	13239.000000
1001.666283	13371.333333
1002.942800	13403.666667
1004.218812	13431.666667
1005.494317	13331.333333
1006.769317	13324.000000
1008.043811	13336.000000
1009.317799	13381.333333
1010.591283	13378.666667
1011.864263	13323.000000
1013.136737	13355.333333
1014.408708	13394.000000
1015.680175	13518.666667
1016.951138	13490.000000
1018.221598	13508.333333
1019.491554	13529.666667
1020.761008	13589.666667
1022.029959	13597.333333
1023.298408	13584.333333
1024.566355	13643.666667
1025.833800	13678.000000
1027.100744	13733.000000
1028.367187	13730.333333
1029.633128	13936.666667
1030.898569	13804.000000
1032.163509	13871.333333
1033.427949	13871.333333
1034.691890	13927.333333
1035.955330	13854.000000
1037.218271	13945.000000
1038.480714	13947.666667
1039.742657	13947.000000
1041.004101	13860.666667
1042.265048	13901.666667
1043.525496	13906.333333
1044.785446	14003.666667
1046.044899	14024.333333
1047.303855	13969.333333
1048.562313	13993.333333
1049.820275	13889.333333
1051.077740	13998.666667
1052.334709	13845.666667
1053.591182	14031.333333
1054.847160	13901.666667
1056.102641	13976.000000
1057.357628	13933.333333
1058.612120	13910.000000
1059.866117	13960.666667
1061.119619	14174.000000
1062.372628	14153.000000
1063.625142	14325.000000
1064.877163	14162.333333
1066.128691	14322.000000
1067.379725	14332.000000
1068.630267	14324.333333
1069.880316	14282.666667
1071.129872	14236.000000
1072.378937	14329.000000
1073.627509	14215.000000
1074.875590	14135.333333
1076.123180	14196.000000
1077.370279	14019.333333
1078.616887	14036.666667
1079.863004	13982.666667
1081.108631	13895.666667
1082.353768	13789.000000
1083.598415	13807.333333
1084.842573	13804.666667
1086.086241	13633.666667
1087.329421	13655.666667
1088.572111	13545.666667
1089.814314	13630.666667
1091.056028	13486.666667
1092.297253	13584.000000
1093.537992	13580.666667
1094.778242	13418.333333
1096.018006	13510.666667
1097.257282	13446.000000
1098.496072	13416.000000
1099.734376	13435.666667
1100.972193	13424.000000
1102.209524	13364.666667
1103.446370	13412.000000
1104.682730	13385.666667
1105.918604	13463.333333
1107.153994	13335.000000
1108.388900	13302.000000
1109.623320	13323.666667
1110.857257	13235.333333
1112.090710	13341.666667
1113.323679	13221.666667
1114.556164	13169.000000
1115.788167	13121.333333
1117.019686	13183.666667
1118.250723	13114.333333
1119.481278	13169.000000
1120.711350	13218.666667
1121.940940	13164.666667
1123.170049	13120.666667
1124.398676	13151.000000
1125.626823	13041.333333
1126.854488	13144.666667
1128.081672	13081.666667
1129.308376	13096.666667
1130.534600	13104.333333
1131.760345	13063.000000
1132.985609	13052.666667
1134.210394	12992.333333
1135.434700	13121.666667
1136.658527	12984.333333
1137.881875	13055.666667
1139.104745	13040.666667
1140.327136	12972.000000
1141.549050	12936.000000
1142.770486	12950.000000
1143.991445	13025.000000
1145.211926	13057.000000
1146.431931	12933.666667
1147.651459	13036.333333
1148.870510	12973.000000
1150.089086	13006.000000
1151.307185	12933.000000
1152.524808	13001.666667
1153.741957	12955.000000
1154.958630	12950.666667
1156.174828	12939.333333
1157.390551	13008.333333
1158.605800	12890.000000
1159.820574	12904.666667
1161.034875	12924.333333
1162.248702	12985.000000
1163.462055	12886.666667
1164.674936	12989.333333
1165.887343	12905.666667
1167.099277	12948.333333
1168.310739	12910.333333
1169.521729	12912.000000
1170.732247	13005.000000
1171.942293	12907.333333
1173.151867	12996.333333
1174.360970	12887.666667
1175.569602	12887.666667
1176.777764	12917.000000
1177.985454	12774.000000
1179.192675	12811.000000
1180.399425	12778.000000
1181.605706	12767.333333
1182.811517	12789.000000
1184.016859	12782.333333
1185.221731	12757.666667
1186.426135	12712.000000
1187.630070	12745.666667
1188.833537	12665.333333
1190.036535	12575.666667
1191.239066	12789.333333
1192.441129	12669.333333
1193.642725	12600.000000
1194.843853	12587.000000
1196.044515	12546.333333
1197.244710	12678.000000
1198.444438	12605.666667
1199.643701	12689.000000
1200.842497	12606.000000
1202.040827	12727.666667
1203.238693	12630.666667
1204.436092	12581.333333
1205.633027	12591.000000
1206.829497	12621.666667
1208.025503	12556.666667
1209.221044	12548.666667
1210.416122	12412.333333
1211.610735	12539.333333
1212.804885	12480.666667
1213.998572	12448.000000
1215.191795	12407.333333
1216.384556	12320.333333
1217.576854	12361.666667
1218.768689	12357.000000
1219.960063	12254.333333
1221.150974	12419.333333
1222.341424	12379.000000
1223.531413	12273.000000
1224.720940	12318.000000
1225.910006	12310.000000
1227.098612	12499.333333
1228.286757	12381.333333
1229.474442	12459.666667
1230.661667	12544.333333
1231.848432	12570.333333
1233.034738	12538.333333
1234.220584	12593.000000
1235.405971	12652.000000
1236.590900	12580.666667
1237.775369	12694.666667
1238.959381	12796.666667
1240.142934	12663.333333
1241.326029	12682.000000
1242.508667	12606.666667
1243.690848	12662.666667
1244.872571	12608.666667
1246.053837	12739.666667
1247.234646	12601.000000
1248.414999	12553.666667
1249.594896	12619.666667
1250.774337	12448.333333
1251.953322	12517.000000
1253.131851	12443.333333
1254.309925	12487.000000
1255.487544	12441.666667
1256.664708	12423.666667
1257.841417	12399.000000
1259.017673	12375.333333
1260.193473	12408.666667
1261.368820	12499.333333
1262.543714	12445.333333
1263.718154	12430.333333
1264.892140	12501.333333
1266.065674	12506.000000
1267.238755	12490.666667
1268.411383	12432.000000
1269.583559	12446.000000
1270.755283	12457.000000
1271.926555	12552.666667
1273.097375	12433.666667
1274.267744	12446.000000
1275.437662	12459.000000
1276.607129	12385.000000
1277.776145	12354.333333
1278.944711	12481.666667
1280.112827	12314.333333
1281.280492	12233.666667
1282.447708	12334.333333
1283.614474	12195.000000
1284.780791	12110.000000
1285.946659	12219.333333
1287.112078	12159.333333
1288.277048	12142.000000
1289.441570	12108.333333
1290.605644	11999.333333
1291.769270	12016.666667
1292.932448	11981.000000
1294.095178	11955.333333
1295.257461	11939.333333
1296.419298	11903.000000
1297.580687	11838.666667
1298.741630	11885.000000
1299.902126	11734.333333
1301.062177	11709.666667
1302.221781	11804.000000
1303.380940	11753.000000
1304.539653	11747.666667
1305.697921	11735.000000
1306.855744	11806.333333
1308.013123	11836.666667
1309.170056	11726.666667
1310.326546	11795.000000
1311.482591	11725.000000
1312.638193	11812.000000
1313.793350	11756.333333
1314.948065	11686.000000
1316.102336	11673.333333
1317.256164	11604.666667
1318.409550	11753.666667
1319.562493	11585.666667
1320.714993	11616.666667
1321.867052	11576.000000
1323.018668	11526.666667
1324.169843	11519.000000
1325.320577	11425.666667
1326.470870	11469.000000
1327.620721	11459.333333
1328.770132	11434.333333
1329.919102	11322.000000
1331.067632	11329.666667
1332.215722	11401.666667
1333.363372	11330.666667
1334.510582	11366.666667
1335.657353	11341.666667
1336.803685	11272.000000
1337.949578	11379.333333
1339.095032	11397.666667
1340.240048	11298.000000
1341.384625	11293.666667
1342.528764	11306.333333
1343.672466	11247.666667
1344.815729	11336.000000
1345.958556	11271.666667
1347.100945	11226.666667
1348.242897	11265.333333
1349.384413	11182.666667
1350.525492	11135.000000
1351.666134	11041.000000
1352.806341	11146.000000
1353.946111	10994.333333
1355.085446	11007.666667
1356.224346	10976.000000
1357.362810	10937.000000
1358.500840	10959.000000
1359.638434	10908.000000
1360.775594	10939.000000
1361.912320	10910.333333
1363.048612	10824.666667
1364.184469	10875.666667
1365.319893	10814.333333
1366.454884	10919.666667
1367.589441	10860.000000
1368.723566	10827.000000
1369.857257	10823.000000
1370.990516	10853.000000
1372.123343	10878.666667
1373.255737	10895.333333
1374.387699	10909.333333
1375.519230	10853.333333
1376.650329	10908.666667
1377.780997	10854.000000
1378.911234	10980.666667
1380.041040	10856.666667
1381.170416	10835.000000
1382.299361	10893.333333
1383.427875	10841.333333
1384.555960	10850.000000
1385.683615	10819.333333
1386.810841	10813.333333
1387.937637	10694.333333
1389.064004	10773.000000
1390.189942	10712.333333
1391.315451	10672.000000
1392.440532	10607.333333
1393.565185	10574.000000
1394.689409	10652.000000
1395.813206	10567.000000
1396.936575	10623.000000
1398.059517	10492.333333
1399.182032	10415.000000
1400.304119	10502.000000
1401.425780	10479.333333
1402.547014	10320.666667
1403.667822	10470.333333
1404.788204	10515.333333
1405.908160	10388.000000
1407.027690	10443.000000
1408.146795	10450.333333
1409.265474	10458.333333
1410.383728	10541.333333
1411.501558	10382.333333
1412.618963	10322.666667
1413.735943	10452.000000
1414.852499	10344.000000
1415.968632	10370.666667
1417.084340	10498.333333
1418.199625	10309.666667
1419.314486	10348.666667
1420.428925	10320.333333
1421.542940	10339.000000
1422.656533	10399.666667
1423.769703	10411.333333
1424.882451	10240.000000
1425.994777	10272.333333
1427.106680	10165.000000
1428.218163	10249.333333
1429.329223	10179.000000
1430.439863	10106.666667
1431.550081	10131.000000
1432.659879	10104.666667
1433.769256	10056.666667
1434.878212	9989.000000
1435.986749	10059.000000
1437.094865	10016.666667
1438.202562	9997.000000
1439.309839	10027.000000
1440.416696	10116.666667
1441.523135	10030.333333
1442.629154	10085.333333
1443.734755	10100.333333
1444.839937	10101.666667
1445.944701	10109.666667
1447.049047	10162.666667
1448.152975	10099.333333
1449.256485	10140.666667
1450.359577	10098.333333
1451.462253	10113.666667
1452.564511	10078.000000
1453.666352	10100.000000
1454.767777	10119.666667
1455.868785	10057.333333
1456.969377	10050.000000
1458.069553	9988.666667
1459.169313	9911.333333
1460.268658	9836.333333
1461.367587	9906.000000
1462.466101	9780.666667
1463.564200	9826.333333
1464.661884	9666.333333
1465.759153	9604.666667
1466.856008	9612.666667
1467.952449	9512.333333
1469.048476	9607.000000
1470.144089	9467.666667
1471.239288	9371.666667
1472.334074	9373.666667
1473.428447	9261.333333
1474.522407	9294.333333
1475.615955	9200.333333
1476.709089	9066.333333
1477.801812	9086.666667
1478.894122	9076.000000
1479.986020	9024.000000
1481.077506	9031.333333
1482.168581	9062.000000
1483.259245	9009.666667
1484.349498	8878.333333
1485.439339	8959.000000
1486.528770	9019.666667
1487.617790	9049.000000
1488.706400	8918.333333
1489.794600	8919.666667
1490.882390	8949.000000
1491.969771	8828.333333
1493.056742	8826.000000
1494.143303	8895.333333
1495.229456	8818.666667
1496.315199	8803.666667
1497.400534	8808.000000
1498.485460	8688.000000
1499.569978	8774.000000
1500.654088	8658.666667
1501.737790	8652.333333
1502.821085	8657.333333
1503.903972	8606.666667
1504.986451	8589.000000
1506.068524	8527.333333
1507.150189	8581.666667
1508.231448	8553.666667
1509.312301	8417.666667
1510.392747	8423.333333
1511.472787	8460.000000
1512.552422	8444.333333
1513.631650	8358.000000
1514.710473	8377.666667
1515.788891	8357.333333
1516.866904	8362.666667
1517.944512	8252.666667
1519.021715	8315.666667
1520.098513	8279.000000
1521.174908	8250.666667
1522.250898	8305.000000
1523.326485	8323.666667
1524.401667	8235.333333
1525.476447	8249.333333
1526.550823	8241.000000
1527.624796	8309.333333
1528.698365	8235.000000
1529.771533	8201.000000
1530.844298	8194.333333
1531.916660	8228.666667
1532.988620	8235.666667
1534.060179	8185.666667
1535.131336	8205.000000
1536.202091	8016.666667
1537.272445	8152.666667
1538.342398	8096.333333
1539.411950	8046.333333
1540.481101	8052.333333
1541.549851	7976.666667
1542.618202	8002.000000
1543.686152	7962.333333
1544.753702	7914.000000
1545.820853	7916.000000
1546.887604	7850.333333
1547.953955	7928.000000
1549.019908	7918.333333
1550.085461	7810.666667
1551.150616	7835.666667
1552.215372	7815.333333
1553.279730	7813.666667
1554.343690	7758.333333
1555.407252	7804.333333
1556.470415	7687.666667
1557.533182	7691.333333
1558.595551	7711.666667
1559.657522	7684.333333
1560.719097	7630.666667
1561.780275	7624.666667
1562.841056	7618.666667
1563.901441	7597.000000
1564.961429	7654.000000
1566.021022	7621.666667
1567.080219	7615.333333
1568.139020	7663.000000
1569.197425	7562.000000
1570.255436	7621.000000
1571.313051	7549.333333
1572.370271	7486.333333
1573.427097	7529.666667
1574.483528	7580.333333
1575.539565	7510.000000
1576.595208	7484.666667
1577.650457	7456.000000
1578.705312	7330.333333
1579.759774	7390.333333
1580.813842	7362.666667
1581.867517	7362.333333
1582.920799	7386.666667
1583.973689	7278.666667
1585.026186	7283.333333
1586.078290	7217.666667
1587.130002	7241.000000
1588.181323	7208.000000
1589.232251	7164.666667
1590.282788	7253.333333
1591.332933	7204.000000
1592.382688	7201.666667
1593.432051	7253.000000
1594.481023	7093.000000
1595.529605	7130.000000
1596.577796	7128.666667
1597.625597	7132.000000
1598.673007	7108.666667
1599.720028	7153.000000
1600.766660	7149.666667
1601.812901	7174.666667
1602.858753	7228.333333
1603.904217	7146.333333
1604.949291	7064.666667
1605.993976	7017.000000
1607.038273	7094.666667
1608.082182	7067.000000
1609.125702	7105.333333
1610.168834	7029.333333
1611.211579	7043.000000
1612.253935	6954.000000
1613.295905	7064.666667
1614.337487	6963.333333
1615.378682	7004.666667
1616.419490	6947.000000
1617.459912	6982.000000
1618.499946	6934.000000
1619.539595	6860.333333
1620.578858	6936.333333
1621.617734	6895.666667
1622.656225	6842.333333
1623.694330	6827.000000
1624.732050	6873.666667
1625.769385	6815.333333
1626.806334	6868.000000
1627.842899	6789.000000
1628.879079	6722.000000
1629.914875	6762.333333
1630.950286	6780.333333
1631.985314	6678.333333
1633.019957	6690.000000
1634.054217	6787.000000
1635.088093	6754.666667
1636.121586	6774.000000
1637.154696	6807.000000
1638.187423	6675.333333
1639.219767	6750.000000
1640.251728	6771.333333
1641.283307	6687.333333
1642.314504	6695.000000
1643.345319	6751.333333
1644.375751	6680.666667
1645.405803	6717.666667
1646.435472	6682.333333
1647.464761	6718.333333
1648.493668	6664.666667
1649.522194	6685.666667
1650.550340	6568.333333
1651.578105	6617.000000
1652.605490	6554.666667
1653.632494	6598.333333
1654.659119	6543.666667
1655.685363	6527.333333
1656.711228	6505.666667
1657.736714	6531.000000
1658.761820	6486.666667
1659.786547	6475.333333
1660.810895	6448.000000
1661.834865	6374.666667
1662.858456	6447.333333
1663.881668	6446.666667
1664.904503	6343.333333
1665.926959	6351.000000
1666.949038	6319.000000
1667.970739	6342.000000
1668.992062	6230.000000
1670.013008	6210.333333
1671.033577	6192.000000
1672.053770	6211.333333
1673.073585	6181.000000
1674.093024	6157.333333
1675.112086	6235.000000
1676.130773	6137.000000
1677.149083	6102.666667
1678.167017	6097.333333
1679.184576	6035.333333
1680.201760	6075.666667
1681.218568	6064.000000
1682.235001	6020.333333
1683.251059	6009.000000
1684.266742	6061.333333
1685.282051	5964.666667
1686.296985	6025.666667
1687.311546	6006.666667
1688.325732	5927.000000
1689.339544	5901.666667
1690.352983	5895.000000
1691.366048	5849.333333
1692.378740	5830.000000
1693.391058	5775.666667
1694.403004	5760.666667
1695.414577	5719.333333
1696.425778	5686.000000
1697.436606	5658.000000
1698.447061	5665.000000
1699.457145	5570.000000
1700.466857	5509.000000
1701.476197	5554.333333
1702.485166	5503.000000
1703.493763	5517.666667
1704.501989	5449.000000
1705.509844	5466.333333
1706.517328	5457.666667
1707.524442	5378.000000
1708.531185	5414.333333
1709.537558	5362.666667
1710.543561	5348.333333
1711.549194	5361.000000
1712.554457	5323.666667
1713.559351	5312.000000
1714.563875	5328.000000
1715.568030	5349.333333
1716.571816	5330.000000
1717.575233	5348.666667
1718.578282	5324.000000
1719.580962	5309.666667
1720.583273	5349.333333
1721.585217	5339.333333
1722.586792	5349.000000
1723.588000	5350.333333
1724.588840	5312.666667
1725.589312	5198.000000
1726.589418	5319.666667
1727.589156	5336.333333
1728.588527	5280.000000
1729.587532	5264.666667
1730.586170	5257.333333
1731.584441	5278.333333
1732.582346	5317.333333
1733.579886	5269.000000
1734.577059	5207.000000
1735.573867	5226.666667
1736.570309	5205.333333
1737.566386	5145.666667
1738.562097	5112.333333
1739.557444	5106.666667
1740.552426	5017.000000
1741.547043	5043.666667
1742.541295	5020.000000
1743.535184	5018.000000
1744.528708	5022.666667
1745.521868	4945.333333
1746.514664	4978.000000
1747.507097	4973.000000
1748.499166	4953.000000
1749.490873	4932.333333
1750.482216	4893.666667
1751.473196	4877.666667
1752.463813	4882.000000
1753.454068	4844.000000
1754.443960	4854.333333
1755.433490	4876.666667
1756.422658	4902.333333
1757.411464	4912.666667
1758.399908	4867.000000
1759.387991	4864.666667
1760.375713	4852.333333
1761.363073	4829.666667
1762.350072	4840.000000
1763.336711	4808.000000
1764.322988	4739.666667
1765.308905	4749.000000
1766.294462	4748.333333
1767.279659	4789.666667
1768.264496	4787.666667
1769.248972	4699.000000
1770.233089	4662.000000
1771.216847	4688.333333
1772.200245	4661.666667
1773.183284	4700.333333
1774.165965	4660.000000
1775.148286	4580.333333
1776.130249	4583.333333
1777.111853	4514.666667
1778.093099	4538.000000
1779.073987	4533.666667
1780.054517	4515.000000
1781.034689	4484.333333
1782.014503	4454.000000
1782.993960	4415.666667
1783.973060	4419.666667
1784.951802	4358.666667
1785.930188	4351.000000
1786.908217	4383.000000
1787.885889	4293.666667
1788.863205	4329.666667
1789.840164	4242.333333
1790.816768	4324.000000
1791.793015	4273.333333
1792.768907	4242.000000
1793.744443	4221.000000
1794.719624	4266.666667
1795.694449	4199.333333
1796.668919	4209.666667
1797.643035	4252.000000
1798.616795	4286.666667
1799.590201	4198.666667
1800.563253	4280.000000
1801.535950	4263.666667
1802.508294	4211.666667
1803.480283	4240.000000
1804.451919	4245.666667
1805.423201	4282.666667
1806.394129	4252.000000
1807.364705	4251.333333
1808.334927	4219.000000
1809.304796	4247.000000
1810.274313	4245.333333
1811.243477	4224.666667
1812.212288	4239.000000
1813.180747	4174.333333
1814.148855	4188.000000
1815.116610	4190.000000
1816.084013	4144.000000
1817.051065	4214.000000
1818.017766	4172.000000
1818.984115	4167.333333
1819.950113	4098.666667
1820.915760	4070.666667
1821.881057	4099.333333
1822.846003	4040.333333
1823.810598	4110.333333
1824.774843	4063.000000
1825.738738	4068.333333
1826.702283	4040.000000
1827.665479	4066.333333
1828.628324	4022.333333
1829.590821	3975.666667
1830.552968	3970.000000
1831.514765	3977.666667
1832.476214	3950.666667
1833.437314	3948.666667
1834.398066	3961.333333
1835.358469	3973.666667
1836.318524	3968.333333
1837.278230	3928.333333
1838.237589	3941.666667
1839.196600	3914.000000
1840.155263	3931.333333
1841.113578	3986.333333
1842.071547	3927.000000
1843.029168	3902.666667
1843.986442	3977.000000
1844.943369	3983.666667
1845.899950	3952.000000
1846.856184	3913.333333
1847.812072	3920.000000
1848.767614	3907.000000
1849.722809	3850.000000
1850.677659	3843.000000
1851.632163	3921.333333
1852.586322	3841.666667
1853.540135	3817.333333
1854.493603	3885.333333
1855.446726	3842.000000
1856.399504	3860.666667
1857.351937	3816.666667
1858.304026	3818.333333
1859.255770	3766.000000
1860.207170	3775.000000
1861.158227	3804.000000
1862.108939	3791.000000
1863.059307	3742.333333
1864.009332	3725.333333
1864.959013	3688.000000
1865.908351	3699.666667
1866.857346	3679.666667
1867.805998	3653.666667
1868.754307	3620.666667
1869.702274	3618.666667
1870.649898	3621.333333
1871.597180	3629.000000
1872.544119	3561.000000
1873.490717	3582.666667
1874.436973	3576.666667
1875.382887	3510.333333
1876.328459	3575.333333
1877.273691	3514.666667
1878.218581	3577.000000
1879.163130	3544.000000
1880.107338	3541.333333
1881.051205	3516.333333
1881.994732	3513.333333
1882.937919	3526.333333
1883.880765	3517.666667
1884.823271	3498.000000
1885.765437	3543.000000
1886.707264	3534.666667
1887.648750	3518.000000
1888.589898	3473.333333
1889.530706	3513.000000
1890.471175	3523.666667
1891.411305	3514.666667
1892.351096	3494.333333
1893.290548	3533.000000
1894.229662	3506.666667
1895.168438	3512.666667
1896.106876	3504.666667
1897.044975	3451.000000
1897.982737	3447.333333
1898.920160	3463.666667
1899.857247	3438.333333
1900.793996	3489.333333
1901.730407	3429.666667
1902.666482	3433.666667
1903.602219	3396.333333
1904.537620	3420.666667
1905.472685	3409.333333
1906.407412	3353.333333
1907.341804	3396.000000
1908.275859	3297.000000
1909.209579	3315.000000
1910.142962	3256.666667
1911.076010	3346.666667
1912.008722	3305.000000
1912.941099	3245.333333
1913.873141	3234.000000
1914.804848	3262.333333
1915.736219	3215.333333
1916.667256	3181.000000
1917.597959	3179.000000
1918.528327	3185.000000
1919.458360	3142.333333
1920.388060	3105.333333
1921.317426	3179.000000
1922.246457	3193.666667
1923.175156	3205.000000
1924.103520	3147.000000
1925.031552	3132.666667
1925.959250	3172.000000
1926.886615	3120.333333
1927.813647	3164.000000
1928.740346	3126.000000
1929.666713	3172.000000
1930.592748	3123.000000
1931.518450	3139.000000
1932.443820	3134.333333
1933.368858	3127.000000
1934.293564	3160.333333
1935.217939	3150.000000
1936.141982	3075.000000
1937.065694	3101.000000
1937.989074	3131.666667
1938.912124	3101.000000
1939.834842	3056.666667
1940.757230	3072.000000
1941.679287	3056.666667
1942.601014	3073.333333
1943.522411	3046.333333
1944.443477	3026.333333
1945.364214	2956.333333
1946.284621	2984.333333
1947.204698	2962.333333
1948.124445	2946.666667
1949.043863	2955.333333
1949.962952	2933.333333
1950.881712	2897.333333
1951.800143	2944.000000
1952.718245	2918.000000
1953.636019	2889.333333
1954.553464	2871.000000
1955.470581	2894.333333
1956.387369	2833.333333
1957.303830	2878.000000
1958.219963	2865.333333
1959.135768	2862.666667
1960.051246	2848.333333
1960.966396	2854.000000
1961.881219	2873.666667
1962.795715	2872.000000
1963.709883	2870.666667
1964.623726	2858.666667
1965.537241	2848.333333
1966.450430	2878.000000
1967.363293	2896.666667
1968.275829	2883.000000
1969.188040	2883.333333
1970.099924	2834.666667
1971.011483	2841.333333
1971.922716	2886.666667
1972.833624	2896.000000
1973.744206	2870.666667
1974.654464	2854.666667
1975.564396	2836.000000
1976.474004	2842.333333
1977.383286	2850.666667
1978.292245	2878.000000
1979.200878	2847.666667
1980.109188	2808.666667
1981.017174	2829.000000
1981.924835	2847.000000
1982.832173	2820.000000
1983.739187	2785.666667
1984.645878	2783.666667
1985.552245	2777.666667
1986.458289	2730.000000
1987.364010	2700.333333
1988.269408	2716.666667
1989.174484	2712.666667
1990.079236	2710.666667
1990.983667	2699.000000
1991.887775	2672.000000
1992.791561	2679.333333
1993.695024	2653.000000
1994.598166	2647.666667
1995.500986	2658.333333
1996.403485	2651.333333
1997.305662	2645.666667
1998.207518	2597.333333
1999.109053	2635.666667
