200.151048	14142.000000
201.758777	14094.666667
203.365815	14038.000000
204.972162	13865.333333
206.577820	13834.333333
208.182787	13843.666667
209.787065	13863.666667
211.390653	13678.333333
212.993553	13644.000000
214.595765	13698.666667
216.197289	13669.333333
217.798125	13603.000000
219.398274	13676.666667
220.997737	13592.000000
222.596513	13586.000000
224.194603	13557.000000
225.792008	13493.333333
227.388728	13489.666667
228.984763	13373.000000
230.580114	13452.333333
232.174781	13408.000000
233.768765	13241.000000
235.362065	13329.000000
236.954683	13306.333333
238.546619	13265.333333
240.137872	13147.333333
241.728445	13196.333333
243.318336	13113.333333
244.907546	13156.333333
246.496076	13105.000000
248.083926	12996.000000
249.671097	12973.333333
251.257589	12890.666667
252.843402	12934.333333
254.428536	12789.666667
256.012993	12727.666667
257.596772	12710.666667
259.179874	12620.333333
260.762300	12600.333333
262.344049	12675.333333
263.925122	12593.333333
265.505519	12515.666667
267.085241	12562.333333
268.664289	12594.333333
270.242662	12581.666667
271.820361	12556.666667
273.397387	12450.000000
274.973740	12457.333333
276.549419	12360.666667
278.124426	12526.666667
279.698762	12467.666667
281.272425	12505.666667
282.845417	12499.666667
284.417739	12473.666667
285.989390	12456.666667
287.560371	12405.000000
289.130682	12430.000000
290.700324	12458.000000
292.269297	12415.000000
293.837602	12329.666667
295.405238	12323.333333
296.972207	12294.666667
298.538508	12402.333333
300.104142	12332.333333
301.669110	12267.000000
303.233411	12266.333333
304.797047	12177.000000
306.360017	12177.000000
307.922322	12044.333333
309.483963	11951.666667
311.044939	11863.000000
312.605252	11905.000000
314.164900	11793.666667
315.723886	11755.333333
317.282209	11745.000000
318.839870	11770.333333
320.396868	11617.000000
321.953205	11627.000000
323.508881	11530.333333
325.063896	11638.333333
326.618251	11558.666667
328.171945	11489.333333
329.724980	11465.333333
331.277356	11478.333333
332.829072	11435.666667
334.380131	11356.333333
335.930530	11285.333333
337.480273	11394.000000
339.029357	11227.333333
340.577785	11294.000000
342.125556	11304.666667
343.672671	11322.666667
345.219130	11225.333333
346.764933	11245.000000
348.310081	11263.333333
349.854575	11205.333333
351.398414	11207.333333
352.941599	11159.666667
354.484130	11187.000000
356.026008	11099.000000
357.567234	11100.666667
359.107807	11153.333333
360.647727	11039.666667
362.186996	10882.333333
363.725614	10934.333333
365.263580	10940.333333
366.800896	10906.333333
368.337562	10963.000000
369.873578	10924.333333
371.408944	10895.333333
372.943661	10831.666667
374.477730	10889.000000
376.011150	10904.333333
377.543922	10905.000000
379.076046	10833.666667
380.607523	10949.666667
382.138353	10956.666667
383.668537	10968.333333
385.198075	10860.000000
386.726966	11004.000000
388.255213	10937.333333
389.782814	11086.666667
391.309770	10978.666667
392.836083	10991.000000
394.361751	11045.666667
395.886776	10986.000000
397.411157	11012.333333
398.934896	11064.000000
400.457992	11060.333333
401.980446	11198.333333
403.502258	11012.666667
405.023429	11059.333333
406.543959	11127.666667
408.063849	11253.666667
409.583098	11223.000000
411.101707	11312.666667
412.619677	11305.000000
414.137007	11414.333333
415.653699	11464.333333
417.169752	11551.333333
418.685167	11720.666667
420.199945	11779.333333
421.714085	11970.333333
423.227588	12081.000000
424.740454	12290.333333
426.252684	12426.000000
427.764279	12328.666667
429.275238	12389.333333
430.785561	12375.333333
432.295250	12289.666667
433.804304	12149.666667
435.312725	12120.666667
436.820511	11955.000000
438.327664	11846.000000
439.834185	11730.666667
441.340072	11718.666667
442.845327	11567.666667
444.349951	11613.000000
445.853942	11612.333333
447.357303	11491.666667
448.860033	11491.000000
450.362132	11432.333333
451.863601	11319.333333
453.364440	11224.666667
454.864650	11117.333333
456.364231	11031.333333
457.863183	10982.000000
459.361507	10863.000000
460.859203	10807.333333
462.356271	10731.666667
463.852712	10640.000000
465.348526	10590.000000
466.843714	10533.666667
468.338275	10549.333333
469.832210	10347.333333
471.325520	10404.333333
472.818205	10275.333333
474.310265	10197.666667
475.801700	10214.666667
477.292512	10174.000000
478.782700	10191.333333
480.272264	10144.000000
481.761205	10178.333333
483.249524	10073.666667
484.737221	10003.333333
486.224295	9922.666667
487.710748	9983.333333
489.196579	9932.000000
490.681790	9908.333333
492.166380	9916.666667
493.650350	9937.666667
495.133700	9868.333333
496.616431	9844.666667
498.098542	9738.333333
499.580035	9840.333333
501.060909	9796.666667
502.541165	9774.666667
504.020804	9859.666667
505.499825	9778.666667
506.978228	9674.666667
508.456016	9751.333333
509.933186	9651.666667
511.409741	9713.666667
512.885680	9680.000000
514.361004	9677.333333
515.835713	9649.333333
517.309807	9727.666667
518.783287	9682.333333
520.256153	9681.666667
521.728406	9680.666667
523.200045	9626.666667
524.671071	9657.000000
526.141485	9621.666667
527.611287	9650.333333
529.080476	9720.000000
530.549054	9669.333333
532.017021	9628.666667
533.484378	9561.000000
534.951123	9646.333333
536.417259	9520.666667
537.882785	9539.666667
539.347701	9611.000000
540.812008	9580.333333
542.275707	9620.333333
543.738797	9616.000000
545.201279	9637.666667
546.663153	9547.000000
548.124420	9619.333333
549.585080	9646.000000
551.045133	9708.333333
552.504579	9676.000000
553.963420	9690.666667
555.421655	9708.333333
556.879285	9807.000000
558.336309	9752.333333
559.792729	9765.000000
561.248545	9826.000000
562.703756	9821.333333
564.158364	9811.000000
565.612369	9949.000000
567.065770	9863.000000
568.518569	9954.333333
569.970766	10138.666667
571.422361	10112.333333
572.873354	10159.666667
574.323745	10320.333333
575.773536	10321.333333
577.222726	10423.666667
578.671316	10544.666667
580.119306	10505.000000
581.566696	10497.000000
583.013487	10553.333333
584.459679	10508.333333
585.905273	10417.666667
587.350268	10471.666667
588.794665	10552.666667
590.238465	10423.666667
591.681667	10325.000000
593.124272	10256.666667
594.566281	10169.333333
596.007694	10039.666667
597.448510	9970.000000
598.888731	9866.000000
600.328357	9794.666667
601.767388	9696.666667
603.205824	9743.000000
604.643666	9676.000000
606.080914	9707.333333
607.517568	9652.000000
608.953629	9643.000000
610.389097	9536.333333
611.823972	9667.333333
613.258255	9451.000000
614.691946	9489.000000
616.125046	9431.666667
617.557554	9307.000000
618.989471	9340.000000
620.420798	9218.000000
621.851534	9087.000000
623.281680	9047.000000
624.711237	9052.666667
626.140204	9074.000000
627.568582	8944.000000
628.996372	8854.666667
630.423573	8946.333333
631.850186	8777.666667
633.276211	8804.333333
634.701650	8804.666667
636.126501	8779.333333
637.550765	8778.333333
638.974443	8776.333333
640.397535	8723.333333
641.820041	8770.333333
643.241961	8708.333333
644.663297	8734.000000
646.084048	8706.666667
647.504214	8730.333333
648.923796	8724.333333
650.342795	8762.000000
651.761210	8652.666667
653.179041	8629.333333
654.596290	8642.666667
656.012957	8597.666667
657.429041	8659.000000
658.844543	8601.333333
660.259464	8657.666667
661.673804	8697.666667
663.087563	8656.000000
664.500741	8682.000000
665.913339	8649.666667
667.325357	8565.000000
668.736795	8598.000000
670.147654	8688.333333
671.557934	8595.666667
672.967636	8584.333333
674.376759	8597.666667
675.785304	8606.666667
677.193271	8648.666667
678.600661	8634.333333
680.007474	8601.666667
681.413711	8585.666667
682.819370	8457.666667
684.224454	8597.666667
685.628962	8578.666667
687.032895	8598.000000
688.436252	8504.333333
689.839034	8553.000000
691.241242	8586.000000
692.642876	8529.333333
694.043936	8486.333333
695.444422	8510.666667
696.844336	8507.666667
698.243676	8464.333333
699.642443	8451.000000
701.040639	8486.333333
702.438262	8401.000000
703.835313	8544.333333
705.231794	8404.666667
706.627703	8490.000000
708.023041	8456.000000
709.417810	8402.666667
710.812008	8440.666667
712.205636	8479.333333
713.598694	8474.666667
714.991184	8431.666667
716.383105	8381.000000
717.774457	8459.666667
719.165241	8394.000000
720.555457	8421.000000
721.945105	8335.333333
723.334187	8452.000000
724.722701	8349.333333
726.110648	8384.000000
727.498030	8463.666667
728.884845	8342.333333
730.271094	8347.333333
731.656778	8427.333333
733.041897	8312.666667
734.426451	8355.333333
735.810441	8320.000000
737.193866	8363.666667
738.576728	8346.333333
739.959026	8273.000000
741.340760	8384.000000
742.721932	8364.666667
744.102541	8411.333333
745.482588	8295.666667
746.862073	8387.666667
748.240996	8320.333333
749.619358	8302.333333
750.997158	8351.000000
752.374398	8344.666667
753.751077	8320.000000
755.127197	8397.666667
756.502756	8313.333333
757.877756	8332.333333
759.252196	8351.333333
760.626078	8307.666667
761.999400	8246.000000
763.372165	8300.000000
764.744371	8339.333333
766.116020	8330.000000
767.487111	8271.000000
768.857646	8326.000000
770.227623	8190.000000
771.597044	8294.333333
772.965908	8235.666667
774.334217	8205.000000
775.701970	8213.666667
777.069168	8172.000000
778.435811	8157.333333
779.801899	8144.333333
781.167433	8212.666667
782.532412	8223.666667
783.896838	8164.666667
785.260710	8186.333333
786.624029	8134.000000
787.986796	8156.000000
789.349009	8122.000000
790.710671	8097.000000
792.071780	8137.000000
793.432338	8114.000000
794.792344	8105.333333
796.151799	8085.666667
797.510704	8079.333333
798.869058	8143.333333
800.226862	8055.333333
801.584116	8106.666667
802.940820	8053.000000
804.296975	8062.333333
805.652581	8066.333333
807.007638	8168.666667
808.362147	8180.333333
809.716108	8171.666667
811.069521	8176.000000
812.422387	8215.000000
813.774705	8153.666667
815.126476	8128.333333
816.477701	8208.666667
817.828380	8173.000000
819.178512	8150.333333
820.528099	8115.333333
821.877140	8140.000000
823.225637	8058.000000
824.573588	8086.000000
825.920995	8070.666667
827.267857	8075.333333
828.614176	8098.000000
829.959951	8139.000000
831.305183	8087.000000
832.649871	8029.333333
833.994017	8106.333333
835.337620	8130.000000
836.680681	8175.000000
838.023201	8123.000000
839.365178	8181.000000
840.706614	8193.333333
842.047510	8218.333333
843.387864	8206.666667
844.727678	8231.333333
846.066952	8284.000000
847.405687	8362.000000
848.743881	8380.000000
850.081537	8439.000000
851.418653	8379.333333
852.755231	8496.666667
854.091270	8467.666667
855.426771	8468.000000
856.761735	8473.333333
858.096160	8411.666667
859.430049	8411.333333
860.763401	8398.333333
862.096216	8356.333333
863.428495	8336.333333
864.760237	8332.333333
866.091444	8281.333333
867.422115	8325.000000
868.752252	8282.333333
870.081853	8323.333333
871.410919	8318.000000
872.739452	8337.000000
874.067450	8371.666667
875.394914	8346.666667
876.721845	8336.333333
878.048243	8295.333333
879.374108	8309.000000
880.699440	8300.333333
882.024240	8296.666667
883.348508	8185.333333
884.672244	8290.666667
885.995449	8257.666667
887.318122	8270.333333
888.640265	8177.666667
889.961877	8199.333333
891.282959	8221.000000
892.603510	8168.666667
893.923532	8145.666667
895.243024	8190.000000
896.561987	8157.333333
897.880422	8178.333333
899.198327	8225.000000
900.515705	8134.333333
901.832554	8074.333333
903.148875	8111.666667
904.464669	8157.333333
905.779936	8181.333333
907.094676	8128.666667
908.408889	8206.000000
909.722576	8260.333333
911.035737	8212.000000
912.348371	8261.666667
913.660481	8270.333333
914.972065	8339.000000
916.283124	8423.000000
917.593659	8434.333333
918.903669	8472.333333
920.213155	8579.666667
921.522117	8460.666667
922.830556	8508.000000
924.138471	8590.666667
925.445864	8479.000000
926.752733	8563.333333
928.059081	8618.000000
929.364906	8643.000000
930.670209	8709.333333
931.974991	8792.333333
933.279251	8807.333333
934.582990	8904.666667
935.886209	9069.666667
937.188907	9083.666667
938.491085	9274.333333
939.792743	9374.000000
941.093881	9655.333333
942.394500	9849.333333
943.694600	10084.000000
944.994181	10320.000000
946.293243	10676.000000
947.591787	11102.666667
948.889813	11537.333333
950.187322	12026.333333
951.484313	12719.000000
952.780787	13432.666667
954.076744	14057.000000
955.372184	14698.666667
956.667108	15329.333333
957.961516	15755.333333
959.255409	15733.000000
960.548785	15568.666667
961.841647	15101.000000
963.133993	14474.000000
964.425825	13586.333333
965.717142	12867.333333
967.007946	12056.666667
968.298235	11308.666667
969.588011	10711.000000
970.877273	10191.666667
972.166023	9734.000000
973.454259	9394.666667
974.741984	9040.000000
976.029196	8869.666667
977.315895	8637.000000
978.602084	8563.000000
979.887761	8462.666667
981.172926	8308.000000
982.457581	8252.666667
983.741725	8274.333333
985.025359	8270.000000
986.308483	8150.333333
987.591097	8179.666667
988.873202	8111.000000
990.154797	8062.666667
991.435883	8200.000000
992.716461	8163.666667
993.996530	8166.000000
995.276091	8137.666667
996.555144	8180.333333
997.833690	8207.333333
999.111728	8307.333333
1000.389259	8347.666667
1001.666283	8437.333333
1002.942800	8406.666667
1004.218812	8425.333333
1005.494317	8336.000000
1006.769317	8331.666667
1008.043811	8327.000000
1009.317799	8266.333333
1010.591283	8319.666667
1011.864263	8326.333333
1013.136737	8375.666667
1014.408708	8393.000000
1015.680175	8401.666667
1016.951138	8406.333333
1018.221598	8408.000000
1019.491554	8365.666667
1020.761008	8413.000000
1022.029959	8442.666667
1023.298408	8545.666667
1024.566355	8587.000000
1025.833800	8502.333333
1027.100744	8607.666667
1028.367187	8565.333333
1029.633128	8628.666667
1030.898569	8590.000000
1032.163509	8653.666667
1033.427949	8644.000000
1034.691890	8622.000000
1035.955330	8677.333333
1037.218271	8709.000000
1038.480714	8744.666667
1039.742657	8710.666667
1041.004101	8729.000000
1042.265048	8704.666667
1043.525496	8756.666667
1044.785446	8765.666667
1046.044899	8690.333333
1047.303855	8668.666667
1048.562313	8664.000000
1049.820275	8618.000000
1051.077740	8663.333333
1052.334709	8631.666667
1053.591182	8567.000000
1054.847160	8601.333333
1056.102641	8675.000000
1057.357628	8684.000000
1058.612120	8657.000000
1059.866117	8731.000000
1061.119619	8750.666667
1062.372628	8900.333333
1063.625142	8877.000000
1064.877163	8988.333333
1066.128691	9004.666667
1067.379725	9018.666667
1068.630267	9125.333333
1069.880316	9042.333333
1071.129872	9068.000000
1072.378937	8986.000000
1073.627509	8862.000000
1074.875590	8833.666667
1076.123180	8789.000000
1077.370279	8790.666667
1078.616887	8607.000000
1079.863004	8561.000000
1081.108631	8497.666667
1082.353768	8343.000000
1083.598415	8322.000000
1084.842573	8323.666667
1086.086241	8203.666667
1087.329421	8110.666667
1088.572111	8102.333333
1089.814314	8119.000000
1091.056028	7972.000000
1092.297253	8034.666667
1093.537992	7939.000000
1094.778242	7992.000000
1096.018006	7975.333333
1097.257282	7998.333333
1098.496072	7935.666667
1099.734376	7972.333333
1100.972193	7907.333333
1102.209524	7826.333333
1103.446370	7920.000000
1104.682730	7895.000000
1105.918604	7842.666667
1107.153994	7834.333333
1108.388900	7731.333333
1109.623320	7779.666667
1110.857257	7747.000000
1112.090710	7746.000000
1113.323679	7657.000000
1114.556164	7727.333333
1115.788167	7667.333333
1117.019686	7591.666667
1118.250723	7587.000000
1119.481278	7641.666667
1120.711350	7606.666667
1121.940940	7546.333333
1123.170049	7538.333333
1124.398676	7564.333333
1125.626823	7587.333333
1126.854488	7560.000000
1128.081672	7557.666667
1129.308376	7589.333333
1130.534600	7541.666667
1131.760345	7478.666667
1132.985609	7497.333333
1134.210394	7583.000000
1135.434700	7511.000000
1136.658527	7537.000000
1137.881875	7521.666667
1139.104745	7521.333333
1140.327136	7525.666667
1141.549050	7509.000000
1142.770486	7477.333333
1143.991445	7405.333333
1145.211926	7480.666667
1146.431931	7499.000000
1147.651459	7408.666667
1148.870510	7450.333333
1150.089086	7494.333333
1151.307185	7416.000000
1152.524808	7486.000000
1153.741957	7410.000000
1154.958630	7445.333333
1156.174828	7428.666667
1157.390551	7484.333333
1158.605800	7465.333333
1159.820574	7514.666667
1161.034875	7468.000000
1162.248702	7455.333333
1163.462055	7446.333333
1164.674936	7460.333333
1165.887343	7444.000000
1167.099277	7432.333333
1168.310739	7456.333333
1169.521729	7429.666667
1170.732247	7437.666667
1171.942293	7421.333333
1173.151867	7442.666667
1174.360970	7465.333333
1175.569602	7413.000000
1176.777764	7485.666667
1177.985454	7436.333333
1179.192675	7430.666667
1180.399425	7441.666667
1181.605706	7422.666667
1182.811517	7383.000000
1184.016859	7407.000000
1185.221731	7273.333333
1186.426135	7261.000000
1187.630070	7273.333333
1188.833537	7243.000000
1190.036535	7304.000000
1191.239066	7328.000000
1192.441129	7321.333333
1193.642725	7273.666667
1194.843853	7282.000000
1196.044515	7275.000000
1197.244710	7280.333333
1198.444438	7259.666667
1199.643701	7314.000000
1200.842497	7278.666667
1202.040827	7303.000000
1203.238693	7307.000000
1204.436092	7285.666667
1205.633027	7250.666667
1206.829497	7217.000000
1208.025503	7231.333333
1209.221044	7195.000000
1210.416122	7183.666667
1211.610735	7188.666667
1212.804885	7127.000000
1213.998572	7124.000000
1215.191795	7125.666667
1216.384556	7106.333333
1217.576854	7178.666667
1218.768689	7089.333333
1219.960063	7161.666667
1221.150974	7088.000000
1222.341424	7149.333333
1223.531413	7147.333333
1224.720940	7151.666667
1225.910006	7182.666667
1227.098612	7161.333333
1228.286757	7220.666667
1229.474442	7265.333333
1230.661667	7321.666667
1231.848432	7360.000000
1233.034738	7252.666667
1234.220584	7354.000000
1235.405971	7315.333333
1236.590900	7389.333333
1237.775369	7426.333333
1238.959381	7351.333333
1240.142934	7460.000000
1241.326029	7429.333333
1242.508667	7473.666667
1243.690848	7433.000000
1244.872571	7359.000000
1246.053837	7391.000000
1247.234646	7388.666667
1248.414999	7386.666667
1249.594896	7396.000000
1250.774337	7288.666667
1251.953322	7331.666667
1253.131851	7303.666667
1254.309925	7269.000000
1255.487544	7351.666667
1256.664708	7279.333333
1257.841417	7336.666667
1259.017673	7251.333333
1260.193473	7250.666667
1261.368820	7330.666667
1262.543714	7317.666667
1263.718154	7248.666667
1264.892140	7257.333333
1266.065674	7341.333333
1267.238755	7314.000000
1268.411383	7327.000000
1269.583559	7298.666667
1270.755283	7342.333333
1271.926555	7349.000000
1273.097375	7315.333333
1274.267744	7243.666667
1275.437662	7253.333333
1276.607129	7258.666667
1277.776145	7252.666667
1278.944711	7254.333333
1280.112827	7168.666667
1281.280492	7194.666667
1282.447708	7141.333333
1283.614474	7090.000000
1284.780791	7054.000000
1285.946659	7097.666667
1287.112078	7086.333333
1288.277048	7037.000000
1289.441570	6923.000000
1290.605644	7019.666667
1291.769270	6987.666667
1292.932448	6939.333333
1294.095178	6902.000000
1295.257461	6870.000000
1296.419298	6855.000000
1297.580687	6828.000000
1298.741630	6853.333333
1299.902126	6862.666667
1301.062177	6851.000000
1302.221781	6929.000000
1303.380940	6849.666667
1304.539653	6839.000000
1305.697921	6793.333333
1306.855744	6822.000000
1308.013123	6816.000000
1309.170056	6819.666667
1310.326546	6772.333333
1311.482591	6819.666667
1312.638193	6892.000000
1313.793350	6851.000000
1314.948065	6816.000000
1316.102336	6807.666667
1317.256164	6752.000000
1318.409550	6733.666667
1319.562493	6787.000000
1320.714993	6725.666667
1321.867052	6741.666667
1323.018668	6713.666667
1324.169843	6666.666667
1325.320577	6661.000000
1326.470870	6661.666667
1327.620721	6612.000000
1328.770132	6623.000000
1329.919102	6580.000000
1331.067632	6602.666667
1332.215722	6527.000000
1333.363372	6580.333333
1334.510582	6546.333333
1335.657353	6557.000000
1336.803685	6572.666667
1337.949578	6561.000000
1339.095032	6594.666667
1340.240048	6528.000000
1341.384625	6582.000000
1342.528764	6529.333333
1343.672466	6569.333333
1344.815729	6622.333333
1345.958556	6546.333333
1347.100945	6582.333333
1348.242897	6542.000000
1349.384413	6483.333333
1350.525492	6555.333333
1351.666134	6447.666667
1352.806341	6451.333333
1353.946111	6387.333333
1355.085446	6418.000000
1356.224346	6364.666667
1357.362810	6354.666667
1358.500840	6424.333333
1359.638434	6379.333333
1360.775594	6316.333333
1361.912320	6333.000000
1363.048612	6335.000000
1364.184469	6299.000000
1365.319893	6272.666667
1366.454884	6296.000000
1367.589441	6254.000000
1368.723566	6336.666667
1369.857257	6329.000000
1370.990516	6334.333333
1372.123343	6306.666667
1373.255737	6308.333333
1374.387699	6298.333333
1375.519230	6382.666667
1376.650329	6380.333333
1377.780997	6351.333333
1378.911234	6349.666667
1380.041040	6333.000000
1381.170416	6331.666667
1382.299361	6309.000000
1383.427875	6269.333333
1384.555960	6362.000000
1385.683615	6272.000000
1386.810841	6351.666667
1387.937637	6211.000000
1389.064004	6275.333333
1390.189942	6264.333333
1391.315451	6218.333333
1392.440532	6260.000000
1393.565185	6235.333333
1394.689409	6178.333333
1395.813206	6158.000000
1396.936575	6159.333333
1398.059517	6150.000000
1399.182032	6204.000000
1400.304119	6189.000000
1401.425780	6157.333333
1402.547014	6173.666667
1403.667822	6201.333333
1404.788204	6160.666667
1405.908160	6118.000000
1407.027690	6102.333333
1408.146795	6144.000000
1409.265474	6105.000000
1410.383728	6090.000000
1411.501558	6104.333333
1412.618963	6046.333333
1413.735943	6144.666667
1414.852499	6156.666667
1415.968632	6154.333333
1417.084340	6122.333333
1418.199625	6133.666667
1419.314486	6174.666667
1420.428925	6184.000000
1421.542940	6163.333333
1422.656533	6159.666667
1423.769703	6109.333333
1424.882451	6134.000000
1425.994777	6065.333333
1427.106680	6022.000000
1428.218163	6089.333333
1429.329223	6049.000000
1430.439863	5962.666667
1431.550081	6032.333333
1432.659879	5962.666667
1433.769256	5954.666667
1434.878212	6053.000000
1435.986749	6015.666667
1437.094865	6012.666667
1438.202562	6106.000000
1439.309839	5988.666667
1440.416696	5993.333333
1441.523135	6075.666667
1442.629154	6066.000000
1443.734755	6112.000000
1444.839937	6142.666667
1445.944701	6108.000000
1447.049047	6165.666667
1448.152975	6159.333333
1449.256485	6144.000000
1450.359577	6051.000000
1451.462253	6187.000000
1452.564511	6134.333333
1453.666352	6166.666667
1454.767777	6080.333333
1455.868785	6020.000000
1456.969377	6043.666667
1458.069553	5977.000000
1459.169313	6009.000000
1460.268658	6029.000000
1461.367587	5945.666667
1462.466101	5961.000000
1463.564200	5936.666667
1464.661884	5805.333333
1465.759153	5837.666667
1466.856008	5846.666667
1467.952449	5770.000000
1469.048476	5712.000000
1470.144089	5698.000000
1471.239288	5667.666667
1472.334074	5622.333333
1473.428447	5547.333333
1474.522407	5525.333333
1475.615955	5436.666667
1476.709089	5413.666667
1477.801812	5395.000000
1478.894122	5363.666667
1479.986020	5398.000000
1481.077506	5394.666667
1482.168581	5398.333333
1483.259245	5368.000000
1484.349498	5347.000000
1485.439339	5346.666667
1486.528770	5279.666667
1487.617790	5338.000000
1488.706400	5294.000000
1489.794600	5311.666667
1490.882390	5267.000000
1491.969771	5299.666667
1493.056742	5227.666667
1494.143303	5297.666667
1495.229456	5301.000000
1496.315199	5229.000000
1497.400534	5232.000000
1498.485460	5175.000000
1499.569978	5222.666667
1500.654088	5141.666667
1501.737790	5109.333333
1502.821085	5148.666667
1503.903972	5151.000000
1504.986451	5124.666667
1506.068524	5106.333333
1507.150189	5096.666667
1508.231448	5060.333333
1509.312301	5053.333333
1510.392747	5118.000000
1511.472787	4985.000000
1512.552422	5072.666667
1513.631650	5007.666667
1514.710473	4962.333333
1515.788891	5016.000000
1516.866904	5010.666667
1517.944512	4962.666667
1519.021715	5009.000000
1520.098513	5003.666667
1521.174908	4989.000000
1522.250898	4937.000000
1523.326485	4966.333333
1524.401667	4951.000000
1525.476447	5031.000000
1526.550823	5021.000000
1527.624796	4941.666667
1528.698365	4965.333333
1529.771533	4950.333333
1530.844298	4962.333333
1531.916660	4995.333333
1532.988620	4921.333333
1534.060179	4937.000000
1535.131336	4946.333333
1536.202091	4940.333333
1537.272445	4911.666667
1538.342398	4885.666667
1539.411950	4868.666667
1540.481101	4894.333333
1541.549851	4821.666667
1542.618202	4835.333333
1543.686152	4834.666667
1544.753702	4771.000000
1545.820853	4768.000000
1546.887604	4837.333333
1547.953955	4741.333333
1549.019908	4771.000000
1550.085461	4735.000000
1551.150616	4787.000000
1552.215372	4719.666667
1553.279730	4767.000000
1554.343690	4761.333333
1555.407252	4701.666667
1556.470415	4707.000000
1557.533182	4743.333333
1558.595551	4665.666667
1559.657522	4639.000000
1560.719097	4692.333333
1561.780275	4673.666667
1562.841056	4682.000000
1563.901441	4702.000000
1564.961429	4696.000000
1566.021022	4646.333333
1567.080219	4662.333333
1568.139020	4649.333333
1569.197425	4694.333333
1570.255436	4630.000000
1571.313051	4621.666667
1572.370271	4608.000000
1573.427097	4572.000000
1574.483528	4616.333333
1575.539565	4613.333333
1576.595208	4581.333333
1577.650457	4536.333333
1578.705312	4570.333333
1579.759774	4572.000000
1580.813842	4558.666667
1581.867517	4513.333333
1582.920799	4461.000000
1583.973689	4480.666667
1585.026186	4491.666667
1586.078290	4475.000000
1587.130002	4416.333333
1588.181323	4453.666667
1589.232251	4489.000000
1590.282788	4426.000000
1591.332933	4408.666667
1592.382688	4442.000000
1593.432051	4413.000000
1594.481023	4400.333333
1595.529605	4432.000000
1596.577796	4387.333333
1597.625597	4421.333333
1598.673007	4473.333333
1599.720028	4486.666667
1600.766660	4437.000000
1601.812901	4484.000000
1602.858753	4467.333333
1603.904217	4456.333333
1604.949291	4421.666667
1605.993976	4453.666667
1607.038273	4426.333333
1608.082182	4456.666667
1609.125702	4447.666667
1610.168834	4427.333333
1611.211579	4383.333333
1612.253935	4371.000000
1613.295905	4439.000000
1614.337487	4348.000000
1615.378682	4357.666667
1616.419490	4393.000000
1617.459912	4304.000000
1618.499946	4386.000000
1619.539595	4327.000000
1620.578858	4314.000000
1621.617734	4340.666667
1622.656225	4347.666667
1623.694330	4322.666667
1624.732050	4315.666667
1625.769385	4307.000000
1626.806334	4325.666667
1627.842899	4383.666667
1628.879079	4303.666667
1629.914875	4341.333333
1630.950286	4289.666667
1631.985314	4299.000000
1633.019957	4316.000000
1634.054217	4337.333333
1635.088093	4245.666667
1636.121586	4370.333333
1637.154696	4317.666667
1638.187423	4293.666667
1639.219767	4314.666667
1640.251728	4288.333333
1641.283307	4318.000000
1642.314504	4309.000000
1643.345319	4301.666667
1644.375751	4334.333333
1645.405803	4261.666667
1646.435472	4330.666667
1647.464761	4245.333333
1648.493668	4263.000000
1649.522194	4322.000000
1650.550340	4227.000000
1651.578105	4271.333333
1652.605490	4309.666667
1653.632494	4290.000000
1654.659119	4286.666667
1655.685363	4266.333333
1656.711228	4238.000000
1657.736714	4253.000000
1658.761820	4227.666667
1659.786547	4187.666667
1660.810895	4199.000000
1661.834865	4182.000000
1662.858456	4147.000000
1663.881668	4157.000000
1664.904503	4164.000000
1665.926959	4129.666667
1666.949038	4086.333333
1667.970739	4091.666667
1668.992062	4060.333333
1670.013008	3997.666667
1671.033577	4031.333333
1672.053770	4027.666667
1673.073585	4067.666667
1674.093024	4013.333333
1675.112086	4008.000000
1676.130773	3993.333333
1677.149083	3996.000000
1678.167017	3966.000000
1679.184576	4003.333333
1680.201760	3950.666667
1681.218568	3989.000000
1682.235001	3946.666667
1683.251059	3916.333333
1684.266742	3950.333333
1685.282051	3950.333333
1686.296985	3930.000000
1687.311546	3839.666667
1688.325732	3859.000000
1689.339544	3833.000000
1690.352983	3835.666667
1691.366048	3791.000000
1692.378740	3757.000000
1693.391058	3786.000000
1694.403004	3737.666667
1695.414577	3716.666667
1696.425778	3722.000000
1697.436606	3710.333333
1698.447061	3675.666667
1699.457145	3663.666667
1700.466857	3633.000000
1701.476197	3597.000000
1702.485166	3614.333333
1703.493763	3534.666667
1704.501989	3592.000000
1705.509844	3562.000000
1706.517328	3559.000000
1707.524442	3510.000000
1708.531185	3500.000000
1709.537558	3500.666667
1710.543561	3554.333333
1711.549194	3471.333333
1712.554457	3474.333333
1713.559351	3444.000000
1714.563875	3495.666667
1715.568030	3485.333333
1716.571816	3446.333333
1717.575233	3498.333333
1718.578282	3503.333333
1719.580962	3473.000000
1720.583273	3461.333333
1721.585217	3485.333333
1722.586792	3489.000000
1723.588000	3543.000000
1724.588840	3532.000000
1725.589312	3469.666667
1726.589418	3473.000000
1727.589156	3483.333333
1728.588527	3464.333333
1729.587532	3462.333333
1730.586170	3478.666667
1731.584441	3486.333333
1732.582346	3473.333333
1733.579886	3431.666667
1734.577059	3411.333333
1735.573867	3405.666667
1736.570309	3440.333333
1737.566386	3428.666667
1738.562097	3387.333333
1739.557444	3414.000000
1740.552426	3379.333333
1741.547043	3371.333333
1742.541295	3302.000000
1743.535184	3346.666667
1744.528708	3348.333333
1745.521868	3316.666667
1746.514664	3308.333333
1747.507097	3326.666667
1748.499166	3274.666667
1749.490873	3261.333333
1750.482216	3290.333333
1751.473196	3274.333333
1752.463813	3233.000000
1753.454068	3258.000000
1754.443960	3269.333333
1755.433490	3246.666667
1756.422658	3263.333333
1757.411464	3264.666667
1758.399908	3234.000000
1759.387991	3254.000000
1760.375713	3247.666667
1761.363073	3217.000000
1762.350072	3238.666667
1763.336711	3265.333333
1764.322988	3198.000000
1765.308905	3165.333333
1766.294462	3197.666667
1767.279659	3169.000000
1768.264496	3158.333333
1769.248972	3179.000000
1770.233089	3185.333333
1771.216847	3167.666667
1772.200245	3143.666667
1773.183284	3142.333333
1774.165965	3110.666667
1775.148286	3066.666667
1776.130249	3090.666667
1777.111853	3087.333333
1778.093099	3028.000000
1779.073987	3080.666667
1780.054517	3005.000000
1781.034689	3041.000000
1782.014503	2999.666667
1782.993960	3014.000000
1783.973060	2992.333333
1784.951802	2968.666667
1785.930188	2949.666667
1786.908217	2963.333333
1787.885889	2976.666667
1788.863205	2891.000000
1789.840164	2907.666667
1790.816768	2909.333333
1791.793015	2904.000000
1792.768907	2915.000000
1793.744443	2918.666667
1794.719624	2920.666667
1795.694449	2885.000000
1796.668919	2887.000000
1797.643035	2861.333333
1798.616795	2884.666667
1799.590201	2906.000000
1800.563253	2882.333333
1801.535950	2925.333333
1802.508294	2858.000000
1803.480283	2922.000000
1804.451919	2906.666667
1805.423201	2889.666667
1806.394129	2913.666667
1807.364705	2928.666667
1808.334927	2906.000000
1809.304796	2872.000000
1810.274313	2909.000000
1811.243477	2926.666667
1812.212288	2903.000000
1813.180747	2859.000000
1814.148855	2861.000000
1815.116610	2882.000000
1816.084013	2856.000000
1817.051065	2869.333333
1818.017766	2833.333333
1818.984115	2850.000000
1819.950113	2841.333333
1820.915760	2826.000000
1821.881057	2845.666667
1822.846003	2832.333333
1823.810598	2838.333333
1824.774843	2846.666667
1825.738738	2821.000000
1826.702283	2821.666667
1827.665479	2805.666667
1828.628324	2806.666667
1829.590821	2834.333333
1830.552968	2770.000000
1831.514765	2815.000000
1832.476214	2787.333333
1833.437314	2767.000000
1834.398066	2741.666667
1835.358469	2773.666667
1836.318524	2735.000000
1837.278230	2747.666667
1838.237589	2741.666667
1839.196600	2717.000000
1840.155263	2730.666667
1841.113578	2735.000000
1842.071547	2737.333333
1843.029168	2741.333333
1843.986442	2746.333333
1844.943369	2755.333333
1845.899950	2778.000000
1846.856184	2725.000000
1847.812072	2700.333333
1848.767614	2719.333333
1849.722809	2725.000000
1850.677659	2701.666667
1851.632163	2682.000000
1852.586322	2735.666667
1853.540135	2690.000000
1854.493603	2710.333333
1855.446726	2699.666667
1856.399504	2666.333333
1857.351937	2690.333333
1858.304026	2652.000000
1859.255770	2694.666667
1860.207170	2624.333333
1861.158227	2650.000000
1862.108939	2635.666667
1863.059307	2622.666667
1864.009332	2586.666667
1864.959013	2587.000000
1865.908351	2569.333333
1866.857346	2575.333333
1867.805998	2567.000000
1868.754307	2540.666667
1869.702274	2547.333333
1870.649898	2537.000000
1871.597180	2536.666667
1872.544119	2513.666667
1873.490717	2476.000000
1874.436973	2497.000000
1875.382887	2512.000000
1876.328459	2499.333333
1877.273691	2468.333333
1878.218581	2485.666667
1879.163130	2465.000000
1880.107338	2487.000000
1881.051205	2497.000000
1881.994732	2518.000000
1882.937919	2513.666667
1883.880765	2484.666667
1884.823271	2496.666667
1885.765437	2490.333333
1886.707264	2509.000000
1887.648750	2544.000000
1888.589898	2476.000000
1889.530706	2451.000000
1890.471175	2524.666667
1891.411305	2504.333333
1892.351096	2507.333333
1893.290548	2483.333333
1894.229662	2482.000000
1895.168438	2486.333333
1896.106876	2458.333333
1897.044975	2480.000000
1897.982737	2463.000000
1898.920160	2423.333333
1899.857247	2469.666667
1900.793996	2466.000000
1901.730407	2480.000000
1902.666482	2447.333333
1903.602219	2425.000000
1904.537620	2398.000000
1905.472685	2469.000000
1906.407412	2371.666667
1907.341804	2419.666667
1908.275859	2415.666667
1909.209579	2374.666667
1910.142962	2410.000000
1911.076010	2378.666667
1912.008722	2352.000000
1912.941099	2295.333333
1913.873141	2318.666667
1914.804848	2308.333333
1915.736219	2271.000000
1916.667256	2339.333333
1917.597959	2332.333333
1918.528327	2295.000000
1919.458360	2297.333333
1920.388060	2274.333333
1921.317426	2270.666667
1922.246457	2285.000000
1923.175156	2279.666667
1924.103520	2254.000000
1925.031552	2270.333333
1925.959250	2298.333333
1926.886615	2261.000000
1927.813647	2290.666667
1928.740346	2282.666667
1929.666713	2234.000000
1930.592748	2249.666667
1931.518450	2228.333333
1932.443820	2282.333333
1933.368858	2274.666667
1934.293564	2260.333333
1935.217939	2256.666667
1936.141982	2214.666667
1937.065694	2259.000000
1937.989074	2249.000000
1938.912124	2258.333333
1939.834842	2176.000000
1940.757230	2203.000000
1941.679287	2213.333333
1942.601014	2201.333333
1943.522411	2221.333333
1944.443477	2208.000000
1945.364214	2189.333333
1946.284621	2175.333333
1947.204698	2196.333333
1948.124445	2162.000000
1949.043863	2129.333333
1949.962952	2136.333333
1950.881712	2141.000000
1951.800143	2134.666667
1952.718245	2121.333333
1953.636019	2108.333333
1954.553464	2142.333333
1955.470581	2161.666667
1956.387369	2059.666667
1957.303830	2094.000000
1958.219963	2059.666667
1959.135768	2088.333333
1960.051246	2083.000000
1960.966396	2121.000000
1961.881219	2069.333333
1962.795715	2079.333333
1963.709883	2096.333333
1964.623726	2084.666667
1965.537241	2127.000000
1966.450430	2052.333333
1967.363293	2117.333333
1968.275829	2084.666667
1969.188040	2089.000000
1970.099924	2116.333333
1971.011483	2123.666667
1971.922716	2082.000000
1972.833624	2136.000000
1973.744206	2097.000000
1974.654464	2096.000000
1975.564396	2075.666667
1976.474004	2116.666667
1977.383286	2092.333333
1978.292245	2082.666667
1979.200878	2111.666667
1980.109188	2060.333333
1981.017174	2094.666667
1981.924835	2091.000000
1982.832173	2069.666667
1983.739187	2100.000000
1984.645878	2046.333333
1985.552245	2048.666667
1986.458289	2066.000000
1987.364010	2064.666667
1988.269408	2009.000000
1989.174484	1991.000000
1990.079236	1990.333333
1990.983667	1975.333333
1991.887775	1951.666667
1992.791561	1958.333333
1993.695024	1988.000000
1994.598166	1962.000000
1995.500986	1963.666667
1996.403485	1970.333333
1997.305662	1949.666667
1998.207518	1953.666667
1999.109053	1928.000000
