400.0961	6068
402.6185	6234
405.1424	6066
407.6635	6187
410.1838	6213
412.7035	6302
415.2225	6334
417.7388	6402
420.2585	6321
422.7754	6333
425.2917	6436
427.8072	6501
430.3221	6580
432.8363	6430
435.3498	6470
437.8626	6510
440.3727	6610
442.8841	6504
445.3969	6617
447.907	6621
450.4142	6586
452.9229	6493
455.4289	6498
457.9362	6533
460.4449	6632
462.9488	6553
465.454	6574
467.9566	6615
470.4604	6662
472.9637	6622
475.4662	6671
477.966	6735
480.4671	6752
482.9656	6766
485.4633	6770
487.9645	6717
490.4608	6684
492.9566	6666
495.4536	6868
497.948	6744
500.4437	6842
502.9387	6764
505.431	6869
507.9226	6841
510.4136	6949
512.9079	6903
515.3975	6875
517.8864	6940
520.3746	6770
522.8622	7033
525.3491	6984
527.8394	6947
530.3249	6877
532.8098	6944
535.2939	6955
537.7774	7014
540.2623	6928
542.7444	6853
545.2259	6972
547.7067	6974
550.1868	6949
552.6683	6989
555.147	6989
557.6231	6990
560.1005	7031
562.5773	7033
565.0534	7068
567.5308	7117
570.0056	7132
572.4776	7152
574.951	7113
577.4237	7219
579.8978	7153
582.3671	7163
584.8378	7200
587.3079	7140
589.7773	7308
592.244	7228
594.714	7233
597.1793	7347
599.6461	7123
602.1121	7240
604.5754	7154
607.0421	7182
609.5042	7222
611.9675	7174
614.4282	7171
616.8902	7276
619.3515	7145
621.8122	7235
624.2702	7169
626.7296	7151
629.1863	7201
631.6423	7089
634.1017	7241
636.5563	7234
639.0104	7235
641.4658	7154
643.9185	7205
646.3725	7193
648.8239	7204
651.2766	7375
653.7266	7309
656.176	7391
658.6247	7434
661.0748	7421
663.5242	7414
665.9709	7284
668.417	7423
670.8624	7431
673.3092	7344
675.7533	7430
678.1968	7352
680.6395	7422
683.0817	7419
685.5251	7309
687.9659	7380
690.4061	7605
692.8456	7518
695.2844	7363
697.7226	7490
700.1621	7472
702.599	7580
705.0332	7529
707.4688	7481
709.9036	7543
712.3399	7594
714.7735	7609
717.2044	7681
719.6367	7734
722.0683	7638
724.4993	7632
726.9296	7772
729.3593	7808
731.7883	7696
734.2147	7757
736.6423	7684
739.0714	7696
741.4958	7890
743.9216	7855
746.3447	7893
748.7691	7925
751.1929	7882
753.616	7968
756.0366	7982
758.4584	7932
760.8776	7962
763.2982	8047
765.718	8055
768.1373	7966
770.5539	8136
772.9698	7982
775.3871	8052
777.8038	8005
780.2178	8175
782.6332	7941
785.0459	8139
787.458	8015
789.8714	8114
792.2842	8106
794.6943	8051
797.1038	7990
799.5127	8030
801.9209	8005
804.3324	8000
806.7393	8231
809.1456	8106
811.5513	8039
813.9562	8087
816.3625	8135
818.7663	8152
821.1693	8184
823.5718	8285
825.9735	8332
828.3746	8139
830.7771	8172
833.177	8133
835.5762	8238
837.9747	8410
840.3727	8207
842.772	8258
845.1666	8225
847.5626	8349
849.958	8270
852.3527	8194
854.7488	8281
857.1403	8304
859.5331	8337
861.9253	8383
864.3168	8183
866.7057	8269
869.098	8402
871.4876	8271
873.8746	8166
876.263	8293
878.6487	8310
881.0378	8313
883.4243	8330
885.8081	8295
888.1933	8333
890.5759	8250
892.9598	8306
895.343	8317
897.7256	8354
900.1057	8189
902.4871	8389
904.8659	8395
907.246	8309
909.6254	8585
912.0023	8399
914.3786	8489
916.7562	8590
919.1331	8605
921.5074	8593
923.8831	8703
926.2562	8566
928.6287	8663
931.0005	8715
933.3757	8596
935.7462	8646
938.1162	8672
940.4855	8708
942.8542	8807
945.2242	8882
947.5916	8885
949.9584	9060
952.3266	9227
954.6921	9502
957.0571	9599
959.4233	9887
961.787	9862
964.15	9930
966.5125	9656
968.8742	9453
971.2354	9165
973.5959	9065
975.9559	8913
978.3151	8766
980.6738	8807
983.0338	8704
985.3912	8642
987.7461	8515
990.1022	8666
992.4578	8587
994.8127	8619
997.1689	8650
999.5207	8767
1001.874	8605
1004.226	8637
1006.576	8600
1008.929	8479
1011.28	8716
1013.628	8528
1015.977	8599
1018.324	8741
1020.674	8703
1023.019	8570
1025.366	8685
1027.713	8541
1030.056	8588
1032.399	8717
1034.746	8834
1037.087	8795
1039.431	8647
1041.771	8729
1044.113	8714
1046.454	8746
1048.793	8658
1051.133	8776
1053.471	8700
1055.807	8800
1058.146	8650
1060.483	8728
1062.818	8873
1065.153	8904
1067.489	8735
1069.822	8861
1072.156	8793
1074.488	8938
1076.82	8804
1079.15	8798
1081.48	8840
1083.814	8801
1086.143	8815
1088.471	8793
1090.799	8698
1093.126	8852
1095.452	8848
1097.78	8773
1100.105	8887
1102.43	8823
1104.754	8639
1107.077	8819
1109.4	8852
1111.722	8844
1114.044	8847
1116.365	8749
1118.685	8760
1121.005	8736
1123.324	8764
1125.643	8989
1127.961	9069
1130.278	8753
1132.595	8854
1134.911	8875
1137.226	8872
1139.541	8803
1141.854	8821
1144.167	8818
1146.482	8899
1148.793	8761
1151.105	9018
1153.414	8951
1155.725	8927
1158.033	8940
1160.344	8879
1162.651	8959
1164.959	8813
1167.265	8889
1169.572	8793
1171.878	9025
1174.184	8852
1176.488	8863
1178.79	8898
1181.094	9103
1183.396	8914
1185.699	9006
1188.001	8859
1190.301	8709
1192.6	8815
1194.9	8673
1197.2	8883
1199.497	8715
1201.794	8954
1204.09	8873
1206.387	8848
1208.684	8858
1210.978	8875
1213.272	8904
1215.565	8921
1217.858	8870
1220.15	8822
1222.443	8807
1224.734	8932
1227.024	8926
1229.313	8965
1231.602	9057
1233.892	9098
1236.18	9199
1238.467	9048
1240.754	9092
1243.04	9039
1245.325	9170
1247.612	9096
1249.896	9229
1252.178	9153
1254.461	9333
1256.743	9160
1259.027	9330
1261.308	9190
1263.587	9142
1265.867	9175
1268.146	9191
1270.425	9138
1272.703	9296
1274.981	9179
1277.256	9207
1279.532	9164
1281.808	9276
1284.083	9103
1286.358	9137
1288.63	9153
1290.904	9008
1293.175	9185
1295.449	9115
1297.719	9156
1299.99	8965
1302.259	8950
1304.529	9178
1306.798	9122
1309.065	9121
1311.333	8972
1313.599	9102
1315.866	8951
1318.131	9073
1320.396	9082
1322.66	9101
1324.925	9219
1327.187	9069
1329.448	9118
1331.711	9146
1333.974	9164
1336.234	9123
1338.493	9192
1340.752	9214
1343.01	9049
1345.269	8972
1347.526	9176
1349.784	9203
1352.04	9145
1354.295	9146
1356.552	9046
1358.806	9078
1361.059	9139
1363.312	9060
1365.564	9043
1367.818	9148
1370.069	9012
1372.318	9052
1374.568	9141
1376.817	9241
1379.066	9164
1381.316	9179
1383.564	9184
1385.809	9205
1388.056	9348
1390.301	9184
1392.549	9402
1394.793	9415
1397.036	9382
1399.279	9289
1401.522	9344
1403.763	9465
1406.007	9345
1408.248	9277
1410.487	9562
1412.727	9599
1414.965	9468
1417.205	9308
1419.442	9375
1421.68	9409
1423.915	9485
1426.152	9464
1428.388	9424
1430.623	9385
1432.857	9451
1435.091	9470
1437.323	9531
1439.556	9470
1441.789	9378
1444.019	9471
1446.25	9486
1448.48	9633
1450.708	9476
1452.938	9647
1455.167	9649
1457.394	9531
1459.62	9458
1461.846	9538
1464.073	9540
1466.299	9491
1468.523	9536
1470.746	9411
1472.969	9474
1475.191	9430
1477.415	9387
1479.636	9359
1481.858	9314
1484.078	9293
1486.298	9211
1488.518	9355
1490.736	9162
1492.954	9213
1495.169	9209
1497.386	9169
1499.602	9313
1501.819	9034
1504.034	8969
1506.248	9156
1508.462	9276
1510.675	9123
1512.888	8999
1515.1	9151
1517.311	9200
1519.522	9070
1521.732	9146
1523.942	9134
1526.151	9041
1528.36	9174
1530.566	9268
1532.773	9115
1534.98	9099
1537.187	9235
1539.392	9335
1541.596	9136
1543.801	9083
1546.005	9132
1548.208	9112
1550.411	9234
1552.612	9265
1554.814	9236
1557.013	9180
1559.212	9294
1561.414	9287
1563.612	9378
1565.811	9182
1568.007	9444
1570.203	9331
1572.403	9376
1574.598	9291
1576.792	9345
1578.988	9384
1581.181	9428
1583.376	9433
1585.568	9425
1587.761	9557
1589.952	9404
1592.143	9431
1594.333	9446
1596.524	9409
1598.715	9352
1600.903	9369
1603.091	9309
1605.278	9564
1607.466	9507
1609.652	9570
1611.838	9358
1614.023	9432
1616.207	9641
1618.391	9557
1620.576	9401
1622.759	9502
1624.941	9457
1627.123	9467
1629.304	9515
1631.484	9423
1633.664	9622
1635.844	9496
1638.022	9426
1640.201	9491
1642.38	9597
1644.556	9496
1646.732	9567
1648.908	9524
1651.084	9375
1653.257	9460
1655.433	9501
1657.607	9496
1659.779	9630
1661.951	9607
1664.122	9704
1666.295	9608
1668.467	9603
1670.635	9594
1672.805	9627
1674.973	9653
1677.142	9586
1679.31	9589
1681.478	9419
1683.644	9495
1685.81	9527
1687.975	9540
1690.142	9527
1692.305	9411
1694.468	9360
1696.632	9418
1698.794	9500
1700.957	9524
1703.119	9477
1705.279	9566
1707.439	9474
1709.598	9368
1711.758	9347
1713.917	9523
1716.075	9475
1718.231	9429
1720.388	9354
1722.543	9386
1724.702	9412
1726.856	9365
1729.01	9406
1731.164	9352
1733.317	9394
1735.471	9412
1737.623	9371
1739.774	9295
1741.925	9460
1744.075	9385
1746.225	9436
1748.376	9463
1750.524	9348
1752.672	9525
1754.82	9442
1756.965	9557
1759.113	9428
1761.259	9366
1763.405	9429
1765.549	9450
1767.694	9384
1769.836	9374
1771.981	9508
1774.123	9473
1776.264	9407
1778.405	9443
1780.546	9654
1782.687	9466
1784.827	9461
1786.966	9523
1789.103	9617
1791.242	9591
1793.381	9498
1795.517	9265
1797.653	9547
1799.788	9434
1801.923	9567
1804.057	9419
1806.193	9517
1808.326	9508
1810.457	9551
1812.59	9511
1814.721	9503
1816.855	9518
1818.984	9582
1821.113	9479
1823.244	9484
1825.372	9543
1827.499	9471
1829.63	9475
1831.756	9368
1833.882	9401
1836.007	9401
1838.132	9399
1840.26	9342
1842.384	9471
1844.507	9317
1846.63	9443
1848.752	9380
1850.875	9330
1852.996	9356
1855.118	9337
1857.238	9436
1859.358	9408
1861.477	9291
1863.597	9382
1865.715	9404
1867.832	9372
1869.948	9463
1872.064	9454
1874.181	9291
1876.297	9350
1878.411	9521
1880.526	9402
1882.639	9341
1884.752	9374
1886.865	9491
1888.977	9417
1891.089	9374
1893.2	9343
1895.308	9405
1897.42	9420
1899.53	9299
1901.639	9367
1903.745	9368
1905.853	9569
1907.962	9533
1910.067	9362
1912.174	9529
1914.278	9484
1916.383	9442
1918.486	9541
1920.592	9526
1922.694	9396
1924.797	9546
1926.898	9534
1929	9492
1931.102	9622
1933.203	9464
1935.301	9471
1937.401	9606
1939.499	9515
1941.598	9594
1943.697	9645
1945.793	9481
1947.888	9561
1949.985	9415
1952.08	9562
1954.176	9468
1956.269	9485
1958.364	9558
1960.457	9560
1962.549	9450
1964.642	9450
1966.733	9551
1968.823	9416
1970.913	9550
1973.005	9463
1975.093	9476
1977.184	9432
1979.271	9427
1981.359	9502
1983.446	9472
1985.532	9370
1987.619	9451
1989.705	9388
1991.789	9280
1993.874	9477
1995.956	9227
1998.041	9345
2000.123	9461
2002.206	9428
2004.287	9375
2006.368	9450
2008.449	9308
2010.529	9304
2012.609	9369
2014.688	9390
2016.766	9359
2018.843	9422
2020.922	9256
2022.999	9423
2025.074	9300
2027.15	9326
2029.225	9327
2031.299	9387
2033.375	9337
2035.447	9428
2037.52	9418
2039.592	9338
2041.664	9341
2043.736	9325
2045.807	9414
2047.876	9391
2049.947	9336
2052.015	9342
2054.086	9480
2056.153	9385
2058.221	9357
2060.288	9245
2062.353	9241
2064.42	9413
2066.486	9315
2068.55	9456
2070.614	9339
2072.678	9351
2074.741	9276
2076.805	9420
2078.866	9478
2080.929	9391
2082.99	9419
2085.049	9457
2087.109	9438
2089.17	9478
2091.228	9228
2093.286	9335
2095.344	9353
2097.4	9344
2099.46	9253
2101.516	9295
2103.572	9350
2105.626	9397
2107.679	9263
2109.735	9248
2111.788	9329
2113.841	9333
2115.894	9331
2117.945	9382
2119.997	9272
2122.049	9377
2124.1	9274
2126.148	9350
2128.197	9364
2130.246	9405
2132.296	9291
2134.342	9285
2136.39	9352
2138.437	9329
2140.483	9350
2142.527	9300
2144.574	9275
2146.619	9315
2148.661	9335
2150.705	9377
2152.747	9228
2154.792	9270
2156.832	9393
2158.874	9264
2160.915	9243
2162.954	9290
2164.995	9405
2167.034	9259
2169.072	9278
2171.111	9242
2173.148	9208
2175.186	9241
2177.223	9099
2179.258	9141
2181.294	9201
2183.328	9230
2185.362	9119
2187.398	9080
2189.431	9109
2191.463	9286
2193.495	9249
2195.528	9096
2197.56	9080
2199.59	9050
2201.62	9101
2203.649	9070
2205.678	9088
2207.708	9154
2209.737	9309
2211.764	9113
2213.791	9057
2215.817	9129
2217.843	9063
2219.87	9059
2221.895	8978
2223.919	9017
2225.942	9132
2227.966	9039
2229.988	9107
2232.012	9126
2234.032	9008
2236.054	9099
2238.074	8966
2240.095	9063
2242.116	9002
2244.135	9193
2246.153	9021
2248.171	8992
2250.188	9154
2252.208	8900
2254.223	8967
2256.239	8988
2258.255	9123
2260.269	9101
2262.283	9046
2264.3	9003
2266.312	9069
2268.325	9015
2270.336	9089
2272.349	9161
2274.362	8973
2276.372	9038
2278.383	9009
2280.392	9096
2282.402	8961
2284.409	8989
2286.418	9025
2288.427	9007
2290.433	9058
2292.441	9025
2294.446	8876
2296.453	9065
2298.459	9042
2300.463	9028
2302.466	8987
2304.471	8922
2306.475	9069
2308.477	8930
2310.478	8895
2312.481	8945
2314.481	8934
2316.481	9092
2318.482	8969
2320.482	8900
2322.48	8923
2324.48	8963
2326.478	8772
2328.476	8933
2330.473	8715
2332.469	8742
2334.465	8874
2336.46	8737
2338.454	8851
2340.45	8866
2342.444	8867
2344.437	8771
2346.43	8883
2348.421	8804
2350.414	8871
2352.405	8843
2354.396	8868
2356.386	8825
2358.376	8689
2360.366	8910
2362.355	8693
2364.343	8694
2366.331	8749
2368.317	8745
2370.304	8728
2372.292	8628
2374.278	8659
2376.262	8760
2378.247	8740
2380.23	8784
2382.216	8814
2384.199	8648
2386.181	8797
2388.163	8632
2390.144	8574
2392.127	8655
2394.107	8614
2396.087	8704
2398.066	8743
2400.046	8735
2402.023	8532
2404.004	8513
2405.981	8606
2407.957	8669
2409.934	8689
2411.91	8627
2413.886	8650
2415.862	8457
2417.836	8552
2419.809	8871
2421.784	8578
2423.756	8739
2425.73	8554
2427.701	8568
2429.672	8516
2431.644	8568
2433.615	8700
2435.586	8501
2437.555	8502
2439.523	8541
2441.491	8607
2443.459	8573
2445.428	8654
2447.395	8550
2449.361	8667
2451.327	8650
2453.292	8515
2455.257	8542
2457.223	8586
2459.187	8379
2461.15	8491
2463.113	8592
2465.076	8506
2467.039	8557
2468.999	8548
2470.96	8534
2472.921	8420
2474.881	8522
2476.841	8461
2478.8	8517
2480.759	8562
2482.717	8486
2484.675	8449
2486.63	8451
2488.589	8430
2490.545	8495
2492.5	8371
2494.455	8436
2496.408	8573
2498.364	8415
2500.318	8502
2502.27	8503
2504.223	8295
2506.174	8351
2508.126	8601
2510.078	8476
2512.03	8468
2513.979	8471
2515.927	8320
2517.877	8363
2519.826	8459
2521.775	8410
2523.722	8257
2525.668	8389
2527.616	8325
2529.561	8345
2531.508	8387
2533.452	8403
2535.398	8461
2537.342	8357
2539.284	8320
2541.229	8412
2543.173	8361
2545.114	8341
2547.055	8279
2548.996	8395
2550.938	8246
2552.878	8314
2554.817	8307
2556.756	8248
2558.695	8455
2560.633	8386
2562.572	8293
2564.509	8347
2566.445	8301
2568.382	8430
2570.317	8320
2572.254	8253
2574.189	8305
2576.123	8274
2578.057	8259
2579.99	8396
2581.923	8334
2583.855	8428
2585.788	8349
2587.719	8283
2589.65	8448
2591.579	8365
2593.511	8350
2595.44	8314
2597.37	8390
2599.297	8279
2601.225	8334
2603.153	8209
2605.08	8273
2607.007	8351
2608.932	8327
2610.858	8303
2612.782	8307
2614.709	8347
2616.632	8240
2618.556	8440
2620.478	8237
2622.401	8320
2624.324	8414
2626.247	8294
2628.167	8422
2630.088	8380
2632.008	8258
2633.928	8173
2635.848	8255
2637.766	8371
2639.684	8306
2641.603	8295
2643.519	8343
2645.437	8273
2647.353	8303
2649.27	8250
2651.184	8215
2653.099	8399
2655.014	8325
2656.928	8311
2658.842	8256
2660.755	8106
2662.667	8208
2664.579	8158
2666.491	8319
2668.402	8282
2670.312	8375
2672.222	8245
2674.132	8247
2676.042	8307
2677.951	8225
2679.859	8155
2681.766	8189
2683.674	8257
2685.582	8195
2687.488	8058
2689.392	8150
2691.298	8210
2693.202	8186
2695.107	8191
2697.012	8113
2698.914	8185
2700.817	8168
2702.72	8153
2704.622	8223
2706.524	8025
2708.425	8160
2710.326	8131
2712.225	8120
2714.125	8103
2716.024	7996
2717.923	8042
2719.822	8103
2721.719	8066
2723.616	8044
2725.512	8137
2727.41	8099
2729.305	8154
2731.201	7937
2733.095	8235
2734.99	8195
2736.884	8019
2738.778	8093
2740.67	8005
2742.562	7988
2744.455	7996
2746.346	8042
2748.238	8023
2750.129	8014
2752.018	8002
2753.907	7997
2755.797	8108
2757.687	7970
2759.575	8078
2761.462	8026
2763.349	7970
2765.237	7969
2767.124	8011
2769.009	7875
2770.894	8008
2772.779	7965
2774.663	7976
2776.547	8068
2778.431	7830
2780.314	8075
2782.197	7933
2784.078	7906
2785.96	7780
2787.842	7897
2789.723	7928
2791.603	7953
2793.483	7865
2795.362	7932
2797.241	7916
2799.121	7833
2800.997	7888
2802.874	7882
2804.751	7839
2806.628	7976
2808.506	7938
2810.38	7904
2812.255	7776
2814.13	7878
2816.003	7805
2817.878	7907
2819.752	7837
2821.623	7848
2823.496	7787
2825.368	7787
2827.238	7826
2829.111	7764
2830.98	7841
2832.851	7880
2834.719	7754
2836.589	7827
2838.458	7899
2840.327	7871
2842.193	7913
2844.061	8012
2845.927	7951
2847.794	7902
2849.66	7925
2851.525	7956
2853.39	7895
2855.254	8013
2857.117	7861
2858.983	7910
2860.845	8024
2862.707	7948
2864.569	7981
2866.431	7981
2868.293	8069
2870.154	8020
2872.013	8056
2873.873	8140
2875.733	8241
2877.592	8208
2879.451	8206
2881.309	8245
2883.166	8402
2885.022	8487
2886.879	8353
2888.736	8353
2890.591	8307
2892.446	8385
2894.301	8420
2896.155	8370
2898.009	8362
2899.863	8463
2901.716	8380
2903.568	8413
2905.419	8271
2907.27	8348
2909.123	8361
2910.973	8142
2912.824	8357
2914.673	8397
2916.521	8564
2918.372	8466
2920.22	8479
2922.067	8431
2923.914	8427
2925.761	8756
2927.607	8446
2929.455	8736
2931.301	8782
2933.144	8657
2934.99	8755
2936.833	8877
2938.678	8858
2940.522	8833
2942.364	9031
2944.207	9046
2946.048	9157
2947.891	9284
2949.731	9009
2951.571	9123
2953.412	9122
2955.25	9056
2957.09	8944
2958.93	8918
2960.767	8797
2962.606	8812
2964.443	8818
2966.279	8840
2968.116	8522
2969.953	8420
2971.788	8476
2973.623	8515
2975.457	8435
2977.292	8324
2979.127	8382
2980.959	8211
2982.792	8166
2984.624	8158
2986.455	8086
2988.288	8214
2990.119	8150
2991.949	8135
2993.779	7865
2995.608	7843
2997.439	7917
2999.268	7987
3001.096	7863
3002.923	7928
3004.751	7761
3006.578	7779
3008.406	7741
3010.232	7750
3012.057	7715
3013.883	7504
3015.706	7745
3017.532	7601
3019.356	7474
3021.179	7532
3023.002	7678
3024.823	7508
3026.646	7541
3028.469	7508
3030.289	7537
3032.11	7390
3033.93	7482
3035.749	7362
3037.57	7395
3039.39	7386
3041.207	7400
3043.026	7163
3044.842	7472
3046.661	7393
3048.477	7446
3050.294	7356
3052.109	7402
3053.925	7278
3055.739	7193
3057.555	7376
3059.368	7334
3061.181	7272
3062.995	7343
3064.807	7383
3066.62	7333
3068.433	7289
3070.243	7253
3072.054	7313
3073.865	7316
3075.675	7220
3077.485	7280
3079.293	7093
3081.102	7323
3082.911	7165
3084.719	7252
3086.527	7178
3088.333	7158
3090.139	7122
3091.945	7085
3093.75	7198
3095.557	7054
3097.361	7108
3099.165	7174
3100.969	7100
3102.772	7049
3104.575	7218
3106.379	7068
3108.181	7079
3109.982	7097
3111.783	7053
3113.584	7023
3115.386	6934
3117.186	7126
3118.985	7122
3120.783	6922
3122.582	7037
3124.381	6978
3126.179	7021
3127.975	7076
3129.772	7087
3131.569	7090
3133.365	6859
3135.161	6883
3136.956	6990
3138.751	6770
3140.544	6937
3142.338	6870
3144.132	7000
3145.925	6983
3147.717	6868
3149.509	6797
3151.301	6863
3153.091	6944
3154.884	6893
3156.673	6893
3158.462	6836
3160.252	6881
3162.041	6868
3163.831	6775
3165.618	6859
3167.405	6757
3169.193	6811
3170.979	6866
3172.767	6718
3174.553	6717
3176.338	6748
3178.123	6783
3179.907	6794
3181.692	6778
3183.477	6729
3185.259	6841
3187.042	6854
3188.824	6694
3190.607	6757
3192.389	6733
3194.17	6650
3195.951	6708
3197.73	6775
3199.51	6740
3201.289	6788
3203.07	6793
3204.848	6728
3206.626	6645
3208.403	6606
3210.18	6669
3211.959	6829
3213.735	6812
3215.511	6630
3217.285	6661
3219.06	6806
3220.836	6762
3222.611	6543
3224.384	6842
3226.158	6705
3227.929	6855
3229.702	6640
3231.476	6671
3233.248	6622
3235.018	6752
3236.789	6634
3238.56	6667
3240.33	6669
3242.1	6707
3243.869	6561
3245.637	6689
3247.405	6731
3249.172	6669
3250.941	6458
3252.707	6540
3254.474	6652
3256.24	6660
3258.006	6648
3259.772	6606
3261.537	6594
3263.301	6700
3265.065	6631
3266.828	6699
3268.592	6750
3270.355	6697
3272.117	6565
3273.878	6638
3275.64	6627
3277.401	6698
3279.162	6550
3280.922	6609
3282.682	6704
3284.441	6757
3286.199	6506
3287.959	6572
3289.716	6513
3291.475	6700
3293.232	6582
3294.988	6507
3296.744	6551
3298.501	6568
3300.256	6519
3302.011	6553
3303.766	6503
3305.52	6593
3307.275	6627
3309.028	6619
3310.781	6491
3312.533	6633
3314.285	6596
3316.038	6550
3317.789	6533
3319.54	6616
3321.289	6503
3323.039	6539
3324.789	6535
3326.539	6536
3328.288	6504
3330.035	6517
3331.783	6415
3333.531	6600
3335.28	6605
3337.025	6527
3338.771	6492
3340.518	6535
3342.262	6392
3344.009	6443
3345.753	6385
3347.497	6479
3349.24	6499
3350.983	6408
3352.726	6508
3354.469	6502
3356.212	6478
3357.952	6443
3359.694	6402
3361.434	6512
3363.176	6397
3364.916	6404
3366.654	6402
3368.394	6297
3370.132	6443
3371.871	6319
3373.61	6474
3375.346	6300
3377.083	6429
3378.82	6266
3380.556	6352
3382.292	6365
3384.027	6296
3385.763	6384
3387.497	6254
3389.231	6266
3390.965	6204
3392.698	6361
3394.431	6223
3396.164	6267
3397.896	6338
3399.627	6348
3401.36	6213
3403.09	6290
3404.82	6359
3406.55	6285
3408.279	6272
3410.01	6323
3411.738	6221
3413.467	6154
3415.194	6244
3416.92	6241
3418.647	6200
3420.375	6195
3422.102	6240
3423.827	6239
3425.553	6140
3427.277	6154
3429.003	6143
3430.727	6231
3432.451	6143
3434.173	5999
3435.896	6216
3437.62	6107
3439.343	6120
3441.063	6213
3442.785	6141
3444.505	5990
3446.226	6170
3447.948	6118
3449.666	6121
3451.386	6012
3453.104	6092
3454.823	6107
3456.541	6082
3458.259	6013
3459.976	6013
3461.693	5994
3463.408	5899
3465.125	6054
3466.841	5955
3468.556	5972
3470.271	6023
3471.985	5903
3473.698	6009
3475.414	5982
3477.126	5930
3478.838	5923
3480.55	5897
3482.263	5911
3483.975	5982
3485.686	5838
3487.396	5847
3489.106	5958
3490.817	5869
3492.526	5892
3494.236	5841
3495.944	5921
3497.652	5800
3499.359	5818
3501.066	5796
3502.775	5810
3504.481	5749
3506.187	5894
3507.893	5683
3509.598	5755
3511.304	5875
3513.009	5706
3514.713	5743
3516.417	5808
3518.12	5695
3519.821	5723
3521.525	5802
3523.228	5772
3524.929	5743
3526.631	5795
3528.33	5622
3530.032	5720
3531.733	5739
3533.433	5670
3535.131	5775
3536.83	5759
3538.529	5709
3540.227	5555
3541.925	5711
3543.623	5690
3545.319	5704
3547.016	5610
3548.712	5638
3550.408	5687
3552.103	5586
3553.798	5647
3555.491	5613
3557.188	5516
3558.88	5630
3560.574	5575
3562.266	5652
3563.959	5601
3565.651	5488
3567.343	5604
3569.035	5476
3570.725	5493
3572.415	5559
3574.106	5528
3575.797	5536
3577.485	5533
3579.174	5484
3580.863	5525
3582.551	5545
3584.238	5522
3585.926	5484
3587.613	5492
3589.3	5444
3590.986	5558
3592.671	5422
3594.357	5444
3596.042	5438
3597.726	5431
3599.41	5542
3601.094	5413
3602.778	5391
3604.461	5316
3606.143	5400
3607.825	5456
3609.507	5314
3611.188	5352
3612.87	5482
3614.551	5305
3616.229	5266
3617.909	5340
3619.589	5269
3621.269	5301
3622.948	5310
3624.625	5333
3626.302	5332
3627.98	5234
3629.657	5309
3631.334	5313
3633.01	5307
3634.686	5345
3636.361	5225
3638.036	5184
3639.712	5334
3641.385	5308
3643.06	5224
3644.732	5254
3646.405	5378
3648.08	5188
3649.751	5255
3651.424	5182
3653.094	5213
3654.766	5182
3656.436	5217
3658.106	5209
3659.777	5294
3661.446	5069
3663.115	5293
3664.783	5207
3666.452	5216
3668.121	5249
3669.788	5101
3671.454	5165
3673.121	5096
3674.789	5201
3676.455	5098
3678.12	5108
3679.784	5075
3681.45	5048
3683.114	5095
3684.779	5048
3686.442	5108
3688.105	5145
3689.768	5011
3691.43	5041
3693.093	5147
3694.754	5079
3696.415	5016
3698.076	5015
3699.736	5065
3701.396	5003
3703.057	5064
3704.716	5087
3706.375	4995
3708.034	5022
3709.692	5103
3711.351	4992
3713.008	5011
3714.665	5088
3716.321	5038
3717.977	4998
3719.634	4913
3721.29	4922
3722.945	4991
3724.598	4894
3726.253	5003
3727.907	4983
3729.561	4941
3731.214	4977
3732.867	5009
3734.518	4794
3736.171	4957
3737.824	4967
3739.474	5030
3741.125	4944
3742.775	4945
3744.425	4881
3746.074	5009
3747.725	4956
3749.373	4933
3751.022	4855
3752.669	4981
3754.318	4903
3755.966	4944
3757.612	4813
3759.259	4860
3760.905	4881
3762.55	4931
3764.197	4897
3765.842	4907
3767.486	4907
3769.131	4825
3770.774	4829
3772.417	4942
3774.061	4871
3775.705	4884
3777.347	4884
3778.988	4773
3780.629	4794
3782.271	4824
3783.912	4746
3785.552	4868
3787.192	4825
3788.831	4829
3790.472	4734
3792.112	4868
3793.75	4856
3795.388	4680
3797.024	4774
3798.661	4776
3800.3	4724
3801.936	4774
3803.572	4764
3805.208	4813
3806.844	4719
3808.48	4771
3810.115	4708
3811.748	4712
3813.382	4698
3815.016	4597
3816.649	4655
3818.283	4647
3819.914	4628
3821.547	4620
3823.178	4677
3824.809	4652
3826.441	4672
3828.072	4654
3829.701	4683
3831.331	4649
3832.96	4685
3834.591	4655
3836.219	4618
3837.847	4768
3839.475	4597
3841.102	4639
3842.729	4694
3844.357	4616
3845.984	4689
3847.609	4642
3849.234	4605
3850.86	4599
3852.485	4681
3854.11	4572
3855.734	4664
3857.357	4627
3858.981	4586
3860.603	4652
3862.227	4601
3863.848	4565
3865.471	4640
3867.092	4674
3868.713	4494
3870.334	4488
3871.954	4513
3873.575	4491
3875.194	4534
3876.813	4468
3878.433	4488
3880.051	4601
3881.669	4524
3883.286	4526
3884.904	4472
3886.52	4591
3888.138	4441
3889.754	4492
3891.37	4502
3892.985	4474
3894.6	4420
3896.216	4523
3897.831	4526
3899.444	4482
3901.058	4479
3902.67	4535
3904.283	4477
3905.897	4487
3907.509	4466
3909.121	4535
3910.731	4427
3912.342	4515
3913.954	4473
3915.563	4421
3917.174	4371
3918.783	4421
3920.391	4505
3922.002	4389
3923.611	4430
3925.218	4403
3926.826	4465
3928.432	4359
3930.039	4368
3931.647	4250
3933.253	4300
3934.859	4327
3936.464	4490
3938.068	4407
3939.675	4366
3941.278	4349
3942.883	4374
3944.486	4374
3946.089	4335
3947.692	4376
3949.295	4327
3950.898	4376
3952.499	4290
3954.1	4382
3955.7	4275
3957.303	4315
3958.903	4305
3960.502	4392
3962.101	4264
3963.7	4295
3965.301	4191
3966.899	4372
3968.497	4387
3970.094	4274
3971.691	4194
3973.288	4293
3974.885	4358
3976.481	4202
3978.077	4191
3979.672	4286
3981.267	4263
3982.863	4260
3984.457	4308
3986.051	4277
3987.645	4227
3989.238	4226
3990.831	4244
3992.425	4253
3994.017	4197
3995.607	4199
3997.199	4183
3998.79	4146
4000.382	4149
4001.973	4236
4003.561	4214
4005.151	4209
4006.741	4141
4008.331	4120
4009.918	4108
4011.507	4187
4013.095	4085
4014.681	4127
4016.269	4079
4017.856	4122
4019.443	4038
4021.028	4090
4022.614	4081
4024.199	4109
4025.785	4128
4027.37	4003
4028.953	4051
4030.536	4077
4032.12	4041
4033.704	4058
4035.287	4093
4036.869	4009
4038.45	4076
4040.032	3994
4041.613	4086
4043.195	4072
4044.776	3960
4046.356	4012
4047.935	4008
4049.515	3999
4051.095	3959
4052.674	3993
4054.251	3988
4055.829	4010
4057.406	3964
4058.985	3973
4060.562	3952
4062.139	4008
4063.715	3949
4065.29	3956
4066.865	3948
4068.442	3927
4070.016	3913
4071.59	3963
4073.164	3931
4074.738	3986
4076.312	3870
4077.885	3917
4079.458	3943
4081.03	3910
4082.602	3974
4084.173	3962
4085.745	3921
4087.315	3953
4088.886	3885
4090.456	3889
4092.026	3916
4093.596	3913
4095.165	3927
4096.734	3980
4098.301	4020
4099.869	3933
4101.437	3896
4103.006	3906
4104.572	3898
4106.139	3867
4107.704	3805
4109.27	3800
4110.837	3820
4112.401	3822
4113.966	3928
4115.53	3780
4117.094	3784
4118.659	3819
4120.223	3880
4121.785	3855
4123.347	3819
4124.909	3796
4126.471	3817
4128.034	3790
4129.595	3865
4131.155	3799
4132.716	3728
4134.275	3747
4135.836	3784
4137.395	3796
4138.955	3779
4140.513	3785
4142.071	3739
4143.628	3733
4145.188	3774
4146.745	3765
4148.302	3709
4149.858	3773
4151.414	3709
4152.971	3778
4154.526	3697
4156.081	3744
4157.635	3699
4159.189	3631
4160.745	3714
4162.298	3608
4163.852	3674
4165.405	3754
4166.957	3628
4168.51	3675
4170.063	3701
4171.614	3685
4173.166	3651
4174.717	3659
4176.267	3682
4177.817	3701
4179.368	3621
4180.917	3607
4182.466	3564
4184.016	3618
4185.564	3707
4187.112	3600
4188.66	3610
4190.207	3607
4191.754	3554
4193.301	3518
4194.848	3537
4196.394	3615
4197.94	3561
4199.484	3641
4201.03	3543
4202.575	3561
4204.12	3624
4205.663	3496
4207.207	3510
4208.75	3514
4210.292	3545
4211.836	3546
4213.378	3551
4214.92	3494
4216.46	3518
4218.002	3460
4219.544	3553
4221.083	3504
4222.625	3541
4224.164	3514
4225.703	3502
4227.244	3559
4228.782	3402
4230.32	3564
4231.857	3523
4233.395	3433
4234.933	3498
4236.471	3469
4238.007	3406
4239.542	3494
4241.078	3430
4242.614	3531
4244.15	3378
4245.685	3524
4247.219	3491
4248.753	3489
4250.287	3438
4251.82	3439
4253.354	3448
4254.887	3333
4256.419	3416
4257.951	3442
4259.483	3473
4261.016	3416
4262.547	3439
4264.078	3451
4265.608	3425
4267.137	3389
4268.668	3480
4270.197	3439
4271.727	3417
4273.254	3384
4274.783	3378
4276.311	3362
4277.84	3356
4279.366	3421
4280.894	3445
4282.42	3414
4283.946	3336
4285.473	3411
4286.998	3392
4288.523	3305
4290.047	3347
4291.572	3365
4293.096	3406
4294.622	3259
4296.144	3339
4297.668	3391
4299.19	3444
4300.713	3337
4302.236	3267
4303.758	3247
4305.279	3310
4306.799	3337
4308.321	3335
4309.842	3266
4311.361	3312
4312.882	3314
4314.401	3283
