400.0961	6491
402.6185	6408
405.1424	6523
407.6635	6474
410.1838	6429
412.7035	6646
415.2225	6452
417.7388	6642
420.2585	6684
422.7754	6648
425.2917	6643
427.8072	6871
430.3221	6874
432.8363	6866
435.3498	6805
437.8626	6893
440.3727	6883
442.8841	6896
445.3969	6931
447.907	6979
450.4142	6832
452.9229	6777
455.4289	6900
457.9362	6901
460.4449	6841
462.9488	6922
465.454	6858
467.9566	6889
470.4604	6835
472.9637	6913
475.4662	6963
477.966	6847
480.4671	7033
482.9656	6991
485.4633	7007
487.9645	6992
490.4608	7059
492.9566	7055
495.4536	7094
497.948	7108
500.4437	7171
502.9387	7087
505.431	7201
507.9226	7125
510.4136	7163
512.9079	7188
515.3975	7260
517.8864	7257
520.3746	7174
522.8622	7059
525.3491	7193
527.8394	7180
530.3249	7193
532.8098	7125
535.2939	7192
537.7774	7442
540.2623	7229
542.7444	7211
545.2259	7274
547.7067	7265
550.1868	7307
552.6683	7168
555.147	7302
557.6231	7236
560.1005	7223
562.5773	7224
565.0534	7263
567.5308	7301
570.0056	7387
572.4776	7464
574.951	7335
577.4237	7304
579.8978	7477
582.3671	7598
584.8378	7589
587.3079	7570
589.7773	7577
592.244	7560
594.714	7540
597.1793	7474
599.6461	7594
602.1121	7522
604.5754	7549
607.0421	7606
609.5042	7471
611.9675	7525
614.4282	7539
616.8902	7560
619.3515	7498
621.8122	7571
624.2702	7380
626.7296	7543
629.1863	7575
631.6423	7519
634.1017	7393
636.5563	7457
639.0104	7497
641.4658	7695
643.9185	7674
646.3725	7560
648.8239	7637
651.2766	7578
653.7266	7501
656.176	7677
658.6247	7605
661.0748	7487
663.5242	7646
665.9709	7653
668.417	7601
670.8624	7671
673.3092	7597
675.7533	7721
678.1968	7680
680.6395	7776
683.0817	7806
685.5251	7781
687.9659	7759
690.4061	7776
692.8456	7822
695.2844	7767
697.7226	7759
700.1621	7895
702.599	7782
705.0332	7944
707.4688	7931
709.9036	7882
712.3399	7947
714.7735	8009
717.2044	7927
719.6367	7847
722.0683	7910
724.4993	8191
726.9296	8035
729.3593	8111
731.7883	8028
734.2147	8294
736.6423	8097
739.0714	8174
741.4958	8106
743.9216	8292
746.3447	8162
748.7691	8172
751.1929	8234
753.616	8225
756.0366	8287
758.4584	8298
760.8776	8349
763.2982	8244
765.718	8319
768.1373	8273
770.5539	8378
772.9698	8249
775.3871	8462
777.8038	8345
780.2178	8542
782.6332	8362
785.0459	8452
787.458	8329
789.8714	8358
792.2842	8344
794.6943	8418
797.1038	8466
799.5127	8444
801.9209	8330
804.3324	8394
806.7393	8349
809.1456	8335
811.5513	8466
813.9562	8297
816.3625	8371
818.7663	8581
821.1693	8639
823.5718	8482
825.9735	8496
828.3746	8532
830.7771	8428
833.177	8523
835.5762	8417
837.9747	8577
840.3727	8621
842.772	8668
845.1666	8627
847.5626	8550
849.958	8772
852.3527	8673
854.7488	8719
857.1403	8781
859.5331	8648
861.9253	8718
864.3168	8641
866.7057	8624
869.098	8549
871.4876	8603
873.8746	8574
876.263	8665
878.6487	8725
881.0378	8555
883.4243	8730
885.8081	8593
888.1933	8729
890.5759	8623
892.9598	8515
895.343	8569
897.7256	8690
900.1057	8636
902.4871	8634
904.8659	8644
907.246	8627
909.6254	8833
912.0023	8870
914.3786	9061
916.7562	8916
919.1331	9184
921.5074	9341
923.8831	9242
926.2562	9125
928.6287	9316
931.0005	9153
933.3757	9096
935.7462	9369
938.1162	9142
940.4855	9261
942.8542	9044
945.2242	9241
947.5916	9339
949.9584	9343
952.3266	9485
954.6921	9713
957.0571	9917
959.4233	10148
961.787	10101
964.15	10116
966.5125	9978
968.8742	9767
971.2354	9547
973.5959	9348
975.9559	9404
978.3151	9236
980.6738	9215
983.0338	9249
985.3912	9102
987.7461	9141
990.1022	9158
992.4578	8882
994.8127	8886
997.1689	8849
999.5207	9068
1001.874	9111
1004.226	8994
1006.576	8821
1008.929	9086
1011.28	9018
1013.628	8846
1015.977	8970
1018.324	9005
1020.674	8801
1023.019	9015
1025.366	8997
1027.713	8962
1030.056	8916
1032.399	8914
1034.746	9070
1037.087	9086
1039.431	9060
1041.771	8926
1044.113	9061
1046.454	9091
1048.793	9038
1051.133	9130
1053.471	9023
1055.807	9127
1058.146	9159
1060.483	9091
1062.818	9149
1065.153	9226
1067.489	9115
1069.822	9075
1072.156	9243
1074.488	9159
1076.82	9437
1079.15	9153
1081.48	9265
1083.814	9133
1086.143	9153
1088.471	9217
1090.799	9097
1093.126	9144
1095.452	9216
1097.78	9113
1100.105	9228
1102.43	9185
1104.754	9114
1107.077	9251
1109.4	9163
1111.722	9120
1114.044	9136
1116.365	9162
1118.685	9319
1121.005	9368
1123.324	9302
1125.643	9240
1127.961	9411
1130.278	9230
1132.595	9368
1134.911	9114
1137.226	9319
1139.541	9166
1141.854	9252
1144.167	9124
1146.482	9203
1148.793	9249
1151.105	9137
1153.414	9345
1155.725	9234
1158.033	9346
1160.344	9211
1162.651	9265
1164.959	9284
1167.265	9307
1169.572	9169
1171.878	9299
1174.184	9354
1176.488	9353
1178.79	9228
1181.094	9462
1183.396	9238
1185.699	9264
1188.001	9442
1190.301	9244
1192.6	9296
1194.9	9236
1197.2	9271
1199.497	9154
1201.794	9185
1204.09	9178
1206.387	9440
1208.684	9277
1210.978	9263
1213.272	9306
1215.565	9332
1217.858	9207
1220.15	9338
1222.443	9336
1224.734	9257
1227.024	9412
1229.313	9311
1231.602	9601
1233.892	9398
1236.18	9519
1238.467	9432
1240.754	9489
1243.04	9490
1245.325	9563
1247.612	9637
1249.896	9608
1252.178	9542
1254.461	9615
1256.743	9626
1259.027	9746
1261.308	9628
1263.587	9742
1265.867	9661
1268.146	9647
1270.425	9807
1272.703	9694
1274.981	9907
1277.256	9741
1279.532	9614
1281.808	9552
1284.083	9562
1286.358	9435
1288.63	9413
1290.904	9388
1293.175	9512
1295.449	9558
1297.719	9626
1299.99	9476
1302.259	9427
1304.529	9473
1306.798	9613
1309.065	9424
1311.333	9540
1313.599	9578
1315.866	9614
1318.131	9525
1320.396	9651
1322.66	9503
1324.925	9528
1327.187	9508
1329.448	9645
1331.711	9613
1333.974	9743
1336.234	9622
1338.493	9625
1340.752	9512
1343.01	9404
1345.269	9592
1347.526	9348
1349.784	9482
1352.04	9497
1354.295	9420
1356.552	9485
1358.806	9566
1361.059	9543
1363.312	9298
1365.564	9660
1367.818	9410
1370.069	9631
1372.318	9486
1374.568	9467
1376.817	9637
1379.066	9690
1381.316	9717
1383.564	9613
1385.809	9715
1388.056	9703
1390.301	9831
1392.549	9806
1394.793	10050
1397.036	10111
1399.279	10081
1401.522	10206
1403.763	10081
1406.007	10148
1408.248	10134
1410.487	10084
1412.727	10110
1414.965	10058
1417.205	10107
1419.442	10005
1421.68	9914
1423.915	9929
1426.152	9900
1428.388	9846
1430.623	9880
1432.857	9927
1435.091	9906
1437.323	10102
1439.556	9951
1441.789	10122
1444.019	10001
1446.25	10030
1448.48	9975
1450.708	9971
1452.938	10080
1455.167	9846
1457.394	10033
1459.62	10018
1461.846	10065
1464.073	10201
1466.299	9967
1468.523	9795
1470.746	9835
1472.969	9766
1475.191	9829
1477.415	9713
1479.636	9865
1481.858	9683
1484.078	9550
1486.298	9712
1488.518	9463
1490.736	9473
1492.954	9581
1495.169	9483
1497.386	9600
1499.602	9653
1501.819	9446
1504.034	9634
1506.248	9476
1508.462	9496
1510.675	9486
1512.888	9508
1515.1	9590
1517.311	9622
1519.522	9521
1521.732	9624
1523.942	9607
1526.151	9547
1528.36	9611
1530.566	9439
1532.773	9550
1534.98	9541
1537.187	9400
1539.392	9398
1541.596	9683
1543.801	9606
1546.005	9438
1548.208	9513
1550.411	9546
1552.612	9625
1554.814	9642
1557.013	9714
1559.212	9670
1561.414	9668
1563.612	9755
1565.811	9729
1568.007	9770
1570.203	9830
1572.403	9634
1574.598	9638
1576.792	9680
1578.988	9859
1581.181	9801
1583.376	9729
1585.568	9769
1587.761	9713
1589.952	9795
1592.143	9876
1594.333	9672
1596.524	9732
1598.715	9883
1600.903	9806
1603.091	9838
1605.278	9938
1607.466	9767
1609.652	9784
1611.838	9805
1614.023	9904
1616.207	9845
1618.391	9914
1620.576	9733
1622.759	10152
1624.941	9919
1627.123	9852
1629.304	9931
1631.484	9837
1633.664	9810
1635.844	9825
1638.022	10016
1640.201	9914
1642.38	9965
1644.556	9781
1646.732	9988
1648.908	9853
1651.084	9977
1653.257	9966
1655.433	10025
1657.607	9944
1659.779	9905
1661.951	9926
1664.122	10116
1666.295	9981
1668.467	9911
1670.635	9999
1672.805	9979
1674.973	9891
1677.142	10066
1679.31	10078
1681.478	9946
1683.644	9952
1685.81	9941
1687.975	10014
1690.142	9906
1692.305	10037
1694.468	9875
1696.632	9958
1698.794	9916
1700.957	9872
1703.119	9848
1705.279	9902
1707.439	9842
1709.598	9862
1711.758	9789
1713.917	9690
1716.075	9840
1718.231	9819
1720.388	9728
1722.543	9786
1724.702	9632
1726.856	9792
1729.01	9911
1731.164	9726
1733.317	9664
1735.471	9928
1737.623	9798
1739.774	9782
1741.925	9817
1744.075	9674
1746.225	9710
1748.376	9685
1750.524	9728
1752.672	9772
1754.82	9878
1756.965	9894
1759.113	9626
1761.259	9730
1763.405	9898
1765.549	9839
1767.694	10016
1769.836	9830
1771.981	10003
1774.123	9942
1776.264	9964
1778.405	9962
1780.546	9785
1782.687	9804
1784.827	9873
1786.966	9971
1789.103	9802
1791.242	9982
1793.381	9974
1795.517	9803
1797.653	9788
1799.788	9803
1801.923	9821
1804.057	9798
1806.193	9958
1808.326	9987
1810.457	9822
1812.59	9917
1814.721	10018
1816.855	9856
1818.984	9923
1821.113	9740
1823.244	9795
1825.372	9944
1827.499	9825
1829.63	9747
1831.756	9795
1833.882	9869
1836.007	9817
1838.132	9860
1840.26	9926
1842.384	9739
1844.507	9830
1846.63	9697
1848.752	9545
1850.875	9707
1852.996	9737
1855.118	9673
1857.238	9834
1859.358	9705
1861.477	9665
1863.597	9835
1865.715	9655
1867.832	9887
1869.948	9766
1872.064	9773
1874.181	9825
1876.297	9702
1878.411	9740
1880.526	9775
1882.639	9849
1884.752	9815
1886.865	9823
1888.977	9796
1891.089	9785
1893.2	9812
1895.308	9714
1897.42	9842
1899.53	9816
1901.639	9759
1903.745	9797
1905.853	9821
1907.962	9851
1910.067	9886
1912.174	9961
1914.278	9927
1916.383	9857
1918.486	9905
1920.592	9917
1922.694	9925
1924.797	9779
1926.898	9883
1929	9738
1931.102	9773
1933.203	9790
1935.301	9765
1937.401	9868
1939.499	9794
1941.598	10073
1943.697	9980
1945.793	9881
1947.888	10013
1949.985	9841
1952.08	9872
1954.176	9933
1956.269	9885
1958.364	9929
1960.457	9845
1962.549	9838
1964.642	9782
1966.733	9815
1968.823	9804
1970.913	9795
1973.005	9808
1975.093	9783
1977.184	9792
1979.271	9869
1981.359	9847
1983.446	9852
1985.532	9810
1987.619	9878
1989.705	9711
1991.789	9733
1993.874	9656
1995.956	9792
1998.041	9804
2000.123	9657
2002.206	9737
2004.287	9763
2006.368	9700
2008.449	9832
2010.529	9697
2012.609	9796
2014.688	9806
2016.766	9820
2018.843	9702
2020.922	9704
2022.999	9765
2025.074	9656
2027.15	9708
2029.225	9689
2031.299	9736
2033.375	9766
2035.447	9783
2037.52	9764
2039.592	9708
2041.664	9777
2043.736	9811
2045.807	9703
2047.876	9828
2049.947	9745
2052.015	9709
2054.086	9787
2056.153	9600
2058.221	9843
2060.288	9699
2062.353	9725
2064.42	9729
2066.486	9700
2068.55	9719
2070.614	9697
2072.678	9711
2074.741	9719
2076.805	9822
2078.866	9739
2080.929	9641
2082.99	9672
2085.049	9604
2087.109	9723
2089.17	9703
2091.228	9684
2093.286	9695
2095.344	9615
2097.4	9843
2099.46	9672
2101.516	9674
2103.572	9686
2105.626	9643
2107.679	9634
2109.735	9589
2111.788	9699
2113.841	9776
2115.894	9643
2117.945	9776
2119.997	9473
2122.049	9698
2124.1	9585
2126.148	9709
2128.197	9757
2130.246	9724
2132.296	9721
2134.342	9754
2136.39	9709
2138.437	9603
2140.483	9704
2142.527	9691
2144.574	9556
2146.619	9576
2148.661	9751
2150.705	9613
2152.747	9640
2154.792	9601
2156.832	9605
2158.874	9639
2160.915	9555
2162.954	9573
2164.995	9666
2167.034	9575
2169.072	9589
2171.111	9569
2173.148	9660
2175.186	9515
2177.223	9626
2179.258	9516
2181.294	9420
2183.328	9528
2185.362	9586
2187.398	9420
2189.431	9535
2191.463	9590
2193.495	9466
2195.528	9495
2197.56	9476
2199.59	9458
2201.62	9458
2203.649	9405
2205.678	9251
2207.708	9407
2209.737	9326
2211.764	9254
2213.791	9344
2215.817	9476
2217.843	9389
2219.87	9433
2221.895	9407
2223.919	9432
2225.942	9411
2227.966	9387
2229.988	9388
2232.012	9387
2234.032	9415
2236.054	9346
2238.074	9304
2240.095	9469
2242.116	9332
2244.135	9362
2246.153	9346
2248.171	9366
2250.188	9386
2252.208	9339
2254.223	9392
2256.239	9389
2258.255	9358
2260.269	9201
2262.283	9421
2264.3	9458
2266.312	9324
2268.325	9353
2270.336	9364
2272.349	9375
2274.362	9277
2276.372	9354
2278.383	9408
2280.392	9365
2282.402	9419
2284.409	9355
2286.418	9331
2288.427	9414
2290.433	9252
2292.441	9367
2294.446	9382
2296.453	9178
2298.459	9396
2300.463	9325
2302.466	9315
2304.471	9324
2306.475	9318
2308.477	9311
2310.478	9270
2312.481	9443
2314.481	9193
2316.481	9255
2318.482	9196
2320.482	9231
2322.48	9095
2324.48	9430
2326.478	9278
2328.476	9388
2330.473	9364
2332.469	9158
2334.465	9225
2336.46	9260
2338.454	9131
2340.45	9120
2342.444	9177
2344.437	9134
2346.43	9152
2348.421	9201
2350.414	9095
2352.405	9169
2354.396	9200
2356.386	9183
2358.376	9121
2360.366	9234
2362.355	9099
2364.343	9130
2366.331	9012
2368.317	9058
2370.304	9024
2372.292	9106
2374.278	9004
2376.262	9057
2378.247	9009
2380.23	9041
2382.216	9115
2384.199	8984
2386.181	9094
2388.163	9051
2390.144	9055
2392.127	9103
2394.107	8996
2396.087	8997
2398.066	9075
2400.046	8976
2402.023	8877
2404.004	8888
2405.981	8826
2407.957	8954
2409.934	8824
2411.91	8907
2413.886	8898
2415.862	8984
2417.836	8989
2419.809	8957
2421.784	8858
2423.756	8994
2425.73	8900
2427.701	8963
2429.672	8910
2431.644	8818
2433.615	8963
2435.586	9006
2437.555	9050
2439.523	8881
2441.491	8938
2443.459	9011
2445.428	8903
2447.395	8969
2449.361	8882
2451.327	8930
2453.292	8798
2455.257	8961
2457.223	8890
2459.187	8872
2461.15	8813
2463.113	8899
2465.076	8904
2467.039	8755
2468.999	8855
2470.96	8764
2472.921	8852
2474.881	8847
2476.841	8846
2478.8	8898
2480.759	8976
2482.717	8843
2484.675	8791
2486.63	8770
2488.589	8847
2490.545	8744
2492.5	8697
2494.455	8789
2496.408	8664
2498.364	8740
2500.318	8756
2502.27	8746
2504.223	8801
2506.174	8779
2508.126	8813
2510.078	8781
2512.03	8508
2513.979	8700
2515.927	8781
2517.877	8793
2519.826	8719
2521.775	8607
2523.722	8646
2525.668	8748
2527.616	8770
2529.561	8698
2531.508	8704
2533.452	8691
2535.398	8758
2537.342	8643
2539.284	8597
2541.229	8759
2543.173	8690
2545.114	8561
2547.055	8724
2548.996	8566
2550.938	8598
2552.878	8665
2554.817	8581
2556.756	8687
2558.695	8633
2560.633	8651
2562.572	8627
2564.509	8730
2566.445	8566
2568.382	8709
2570.317	8501
2572.254	8560
2574.189	8672
2576.123	8600
2578.057	8640
2579.99	8694
2581.923	8664
2583.855	8454
2585.788	8717
2587.719	8541
2589.65	8621
2591.579	8771
2593.511	8594
2595.44	8727
2597.37	8563
2599.297	8636
2601.225	8667
2603.153	8533
2605.08	8476
2607.007	8653
2608.932	8520
2610.858	8623
2612.782	8582
2614.709	8657
2616.632	8599
2618.556	8654
2620.478	8557
2622.401	8753
2624.324	8750
2626.247	8682
2628.167	8605
2630.088	8672
2632.008	8549
2633.928	8656
2635.848	8519
2637.766	8599
2639.684	8715
2641.603	8638
2643.519	8571
2645.437	8561
2647.353	8741
2649.27	8657
2651.184	8609
2653.099	8528
2655.014	8594
2656.928	8467
2658.842	8715
2660.755	8567
2662.667	8668
2664.579	8513
2666.491	8622
2668.402	8567
2670.312	8551
2672.222	8520
2674.132	8467
2676.042	8491
2677.951	8592
2679.859	8502
2681.766	8626
2683.674	8634
2685.582	8502
2687.488	8515
2689.392	8478
2691.298	8365
2693.202	8461
2695.107	8431
2697.012	8465
2698.914	8551
2700.817	8404
2702.72	8460
2704.622	8445
2706.524	8528
2708.425	8474
2710.326	8443
2712.225	8327
2714.125	8322
2716.024	8414
2717.923	8405
2719.822	8353
2721.719	8401
2723.616	8285
2725.512	8513
2727.41	8341
2729.305	8407
2731.201	8444
2733.095	8344
2734.99	8365
2736.884	8355
2738.778	8438
2740.67	8337
2742.562	8372
2744.455	8376
2746.346	8342
2748.238	8426
2750.129	8399
2752.018	8400
2753.907	8308
2755.797	8365
2757.687	8420
2759.575	8260
2761.462	8206
2763.349	8215
2765.237	8324
2767.124	8393
2769.009	8367
2770.894	8302
2772.779	8311
2774.663	8345
2776.547	8210
2778.431	8271
2780.314	8244
2782.197	8231
2784.078	8228
2785.96	8216
2787.842	8255
2789.723	8177
2791.603	8158
2793.483	8298
2795.362	8241
2797.241	8269
2799.121	8174
2800.997	8227
2802.874	8194
2804.751	8328
2806.628	8156
2808.506	8259
2810.38	8156
2812.255	8367
2814.13	8211
2816.003	8215
2817.878	8130
2819.752	8407
2821.623	8328
2823.496	8235
2825.368	8471
2827.238	8230
2829.111	8228
2830.98	8292
2832.851	8276
2834.719	8138
2836.589	8251
2838.458	8327
2840.327	8312
2842.193	8271
2844.061	8182
2845.927	8282
2847.794	8303
2849.66	8340
2851.525	8364
2853.39	8466
2855.254	8244
2857.117	8308
2858.983	8474
2860.845	8470
2862.707	8482
2864.569	8421
2866.431	8327
2868.293	8397
2870.154	8582
2872.013	8589
2873.873	8498
2875.733	8684
2877.592	8665
2879.451	8743
2881.309	8771
2883.166	8820
2885.022	8981
2886.879	8914
2888.736	9098
2890.591	8903
2892.446	9132
2894.301	9153
2896.155	9241
2898.009	9130
2899.863	9097
2901.716	9011
2903.568	8983
2905.419	9011
2907.27	8991
2909.123	9115
2910.973	9120
2912.824	9047
2914.673	9140
2916.521	9075
2918.372	9343
2920.22	9196
2922.067	9237
2923.914	9383
2925.761	9246
2927.607	9160
2929.455	9444
2931.301	9364
2933.144	9436
2934.99	9453
2936.833	9590
2938.678	9487
2940.522	9651
2942.364	9831
2944.207	9984
2946.048	10023
2947.891	10128
2949.731	10283
2951.571	10365
2953.412	10274
2955.25	10061
2957.09	9965
2958.93	10099
2960.767	10099
2962.606	9892
2964.443	9680
2966.279	9807
2968.116	9602
2969.953	9432
2971.788	9252
2973.623	9111
2975.457	9104
2977.292	9085
2979.127	9085
2980.959	8853
2982.792	8789
2984.624	8809
2986.455	8819
2988.288	8774
2990.119	8599
2991.949	8524
2993.779	8428
2995.608	8301
2997.439	8508
2999.268	8436
3001.096	8258
3002.923	8279
3004.751	8321
3006.578	8277
3008.406	8230
3010.232	8205
3012.057	7988
3013.883	7941
3015.706	8056
3017.532	7889
3019.356	8133
3021.179	8031
3023.002	8040
3024.823	7902
3026.646	7707
3028.469	7956
3030.289	7854
3032.11	7824
3033.93	7757
3035.749	7761
3037.57	7720
3039.39	7627
3041.207	7764
3043.026	7727
3044.842	7787
3046.661	7790
3048.477	7732
3050.294	7616
3052.109	7772
3053.925	7706
3055.739	7703
3057.555	7846
3059.368	7750
3061.181	7729
3062.995	7629
3064.807	7697
3066.62	7716
3068.433	7694
3070.243	7732
3072.054	7637
3073.865	7704
3075.675	7515
3077.485	7595
3079.293	7601
3081.102	7487
3082.911	7569
3084.719	7572
3086.527	7662
3088.333	7678
3090.139	7363
3091.945	7462
3093.75	7696
3095.557	7602
3097.361	7549
3099.165	7444
3100.969	7427
3102.772	7387
3104.575	7382
3106.379	7387
3108.181	7456
3109.982	7489
3111.783	7321
3113.584	7446
3115.386	7253
3117.186	7411
3118.985	7444
3120.783	7351
3122.582	7395
3124.381	7237
3126.179	7270
3127.975	7366
3129.772	7430
3131.569	7317
3133.365	7247
3135.161	7211
3136.956	7307
3138.751	7334
3140.544	7256
3142.338	7347
3144.132	7188
3145.925	7200
3147.717	7184
3149.509	7212
3151.301	7220
3153.091	7225
3154.884	7177
3156.673	7257
3158.462	7119
3160.252	7255
3162.041	7164
3163.831	7186
3165.618	7123
3167.405	7126
3169.193	7181
3170.979	7101
3172.767	7135
3174.553	7107
3176.338	7131
3178.123	7095
3179.907	7111
3181.692	7070
3183.477	7092
3185.259	7201
3187.042	7103
3188.824	7175
3190.607	7093
3192.389	6964
3194.17	7088
3195.951	7205
3197.73	7139
3199.51	7116
3201.289	7136
3203.07	7089
3204.848	6981
3206.626	7006
3208.403	7117
3210.18	6940
3211.959	7147
3213.735	7108
3215.511	7043
3217.285	7030
3219.06	7221
3220.836	6932
3222.611	6986
3224.384	7229
3226.158	7060
3227.929	6999
3229.702	7086
3231.476	7031
3233.248	7036
3235.018	6987
3236.789	6989
3238.56	6952
3240.33	6982
3242.1	7047
3243.869	7119
3245.637	6982
3247.405	6979
3249.172	6943
3250.941	6919
3252.707	6925
3254.474	7039
3256.24	6883
3258.006	6925
3259.772	7055
3261.537	6947
3263.301	7050
3265.065	6994
3266.828	6865
3268.592	7023
3270.355	6988
3272.117	7032
3273.878	7001
3275.64	6936
3277.401	6907
3279.162	6997
3280.922	6853
3282.682	6950
3284.441	6937
3286.199	6928
3287.959	7020
3289.716	6776
3291.475	6827
3293.232	6986
3294.988	7015
3296.744	6901
3298.501	7065
3300.256	6896
3302.011	6925
3303.766	6817
3305.52	6930
3307.275	6821
3309.028	6907
3310.781	6902
3312.533	6839
3314.285	6819
3316.038	6875
3317.789	6957
3319.54	6839
3321.289	7004
3323.039	6936
3324.789	6887
3326.539	6826
3328.288	6838
3330.035	6900
3331.783	6868
3333.531	6888
3335.28	6872
3337.025	6846
3338.771	6784
3340.518	6777
3342.262	6770
3344.009	6843
3345.753	6693
3347.497	6799
3349.24	6799
3350.983	6787
3352.726	6734
3354.469	6709
3356.212	6701
3357.952	6646
3359.694	6722
3361.434	6680
3363.176	6594
3364.916	6653
3366.654	6698
3368.394	6702
3370.132	6683
3371.871	6615
3373.61	6743
3375.346	6671
3377.083	6748
3378.82	6626
3380.556	6582
3382.292	6523
3384.027	6607
3385.763	6558
3387.497	6534
3389.231	6572
3390.965	6617
3392.698	6516
3394.431	6539
3396.164	6640
3397.896	6524
3399.627	6526
3401.36	6576
3403.09	6575
3404.82	6569
3406.55	6515
3408.279	6554
3410.01	6553
3411.738	6417
3413.467	6534
3415.194	6472
3416.92	6520
3418.647	6455
3420.375	6423
3422.102	6478
3423.827	6410
3425.553	6423
3427.277	6602
3429.003	6509
3430.727	6469
3432.451	6452
3434.173	6543
3435.896	6503
3437.62	6365
3439.343	6418
3441.063	6463
3442.785	6465
3444.505	6280
3446.226	6355
3447.948	6480
3449.666	6247
3451.386	6353
3453.104	6326
3454.823	6343
3456.541	6305
3458.259	6283
3459.976	6188
3461.693	6138
3463.408	6298
3465.125	6205
3466.841	6239
3468.556	6259
3470.271	6236
3471.985	6223
3473.698	6181
3475.414	6224
3477.126	6176
3478.838	6172
3480.55	6121
3482.263	6280
3483.975	6151
3485.686	6073
3487.396	6146
3489.106	6054
3490.817	6170
3492.526	6019
3494.236	6094
3495.944	6099
3497.652	6061
3499.359	6160
3501.066	5970
3502.775	6159
3504.481	6066
3506.187	6093
3507.893	6059
3509.598	5896
3511.304	5965
3513.009	6064
3514.713	5905
3516.417	5926
3518.12	5998
3519.821	5874
3521.525	6010
3523.228	5949
3524.929	5915
3526.631	5842
3528.33	5920
3530.032	6026
3531.733	5904
3533.433	5913
3535.131	5837
3536.83	5864
3538.529	5948
3540.227	5872
3541.925	5785
3543.623	5881
3545.319	5862
3547.016	5949
3548.712	5862
3550.408	5885
3552.103	5736
3553.798	5862
3555.491	5875
3557.188	5798
3558.88	5835
3560.574	5777
3562.266	5791
3563.959	5821
3565.651	5831
3567.343	5745
3569.035	5749
3570.725	5781
3572.415	5827
3574.106	5751
3575.797	5666
3577.485	5647
3579.174	5838
3580.863	5640
3582.551	5716
3584.238	5622
3585.926	5646
3587.613	5838
3589.3	5617
3590.986	5667
3592.671	5678
3594.357	5632
3596.042	5664
3597.726	5654
3599.41	5580
3601.094	5700
3602.778	5656
3604.461	5681
3606.143	5540
3607.825	5730
3609.507	5591
3611.188	5472
3612.87	5512
3614.551	5539
3616.229	5456
3617.909	5501
3619.589	5437
3621.269	5501
3622.948	5584
3624.625	5479
3626.302	5513
3627.98	5509
3629.657	5493
3631.334	5491
3633.01	5543
3634.686	5368
3636.361	5251
3638.036	5487
3639.712	5450
3641.385	5447
3643.06	5485
3644.732	5323
3646.405	5404
3648.08	5391
3649.751	5444
3651.424	5328
3653.094	5321
3654.766	5345
3656.436	5407
3658.106	5339
3659.777	5236
3661.446	5313
3663.115	5380
3664.783	5226
3666.452	5293
3668.121	5337
3669.788	5352
3671.454	5291
3673.121	5288
3674.789	5273
3676.455	5218
3678.12	5307
3679.784	5250
3681.45	5233
3683.114	5208
3684.779	5274
3686.442	5258
3688.105	5263
3689.768	5168
3691.43	5271
3693.093	5160
3694.754	5131
3696.415	5188
3698.076	5226
3699.736	5204
3701.396	5184
3703.057	5189
3704.716	5104
3706.375	5222
3708.034	5115
3709.692	5135
3711.351	5144
3713.008	5110
3714.665	5171
3716.321	5196
3717.977	5182
3719.634	5045
3721.29	5082
3722.945	5118
3724.598	5329
3726.253	5107
3727.907	5162
3729.561	5124
3731.214	5206
3732.867	5009
3734.518	5101
3736.171	5028
3737.824	5064
3739.474	5138
3741.125	4991
3742.775	5037
3744.425	5042
3746.074	5112
3747.725	5118
3749.373	5079
3751.022	5052
3752.669	5026
3754.318	5085
3755.966	4998
3757.612	4948
3759.259	5128
3760.905	5116
3762.55	4984
3764.197	5045
3765.842	5150
3767.486	5181
3769.131	5048
3770.774	4962
3772.417	4886
3774.061	5041
3775.705	4918
3777.347	5057
3778.988	4925
3780.629	4991
3782.271	5059
3783.912	4905
3785.552	4977
3787.192	5079
3788.831	4893
3790.472	4830
3792.112	4805
3793.75	4964
3795.388	4946
3797.024	4894
3798.661	4756
3800.3	4857
3801.936	4924
3803.572	4942
3805.208	4874
3806.844	4884
3808.48	4831
3810.115	4804
3811.748	4861
3813.382	4752
3815.016	4828
3816.649	4897
3818.283	4937
3819.914	4906
3821.547	4770
3823.178	4858
3824.809	4828
3826.441	4778
3828.072	4854
3829.701	4735
3831.331	4831
3832.96	4841
3834.591	4774
3836.219	4774
3837.847	4668
3839.475	4813
3841.102	4787
3842.729	4659
3844.357	4740
3845.984	4773
3847.609	4720
3849.234	4855
3850.86	4696
3852.485	4733
3854.11	4676
3855.734	4747
3857.357	4656
3858.981	4739
3860.603	4765
3862.227	4713
3863.848	4701
3865.471	4673
3867.092	4713
3868.713	4647
3870.334	4657
3871.954	4673
3873.575	4651
3875.194	4712
3876.813	4569
3878.433	4695
3880.051	4588
3881.669	4557
3883.286	4593
3884.904	4621
3886.52	4580
3888.138	4690
3889.754	4581
3891.37	4602
3892.985	4549
3894.6	4645
3896.216	4631
3897.831	4590
3899.444	4609
3901.058	4582
3902.67	4618
3904.283	4595
3905.897	4540
3907.509	4583
3909.121	4561
3910.731	4509
3912.342	4522
3913.954	4505
3915.563	4579
3917.174	4636
3918.783	4609
3920.391	4529
3922.002	4624
3923.611	4513
3925.218	4444
3926.826	4508
3928.432	4482
3930.039	4521
3931.647	4443
3933.253	4530
3934.859	4453
3936.464	4525
3938.068	4431
3939.675	4389
3941.278	4450
3942.883	4593
3944.486	4459
3946.089	4534
3947.692	4489
3949.295	4458
3950.898	4444
3952.499	4471
3954.1	4483
3955.7	4431
3957.303	4408
3958.903	4362
3960.502	4434
3962.101	4438
3963.7	4515
3965.301	4374
3966.899	4456
3968.497	4368
3970.094	4455
3971.691	4370
3973.288	4376
3974.885	4458
3976.481	4362
3978.077	4422
3979.672	4408
3981.267	4322
3982.863	4378
3984.457	4337
3986.051	4374
3987.645	4289
3989.238	4352
3990.831	4363
3992.425	4333
3994.017	4324
3995.607	4290
3997.199	4293
3998.79	4248
4000.382	4336
4001.973	4157
4003.561	4327
4005.151	4200
4006.741	4226
4008.331	4233
4009.918	4263
4011.507	4233
4013.095	4143
4014.681	4315
4016.269	4214
4017.856	4153
4019.443	4266
4021.028	4298
4022.614	4176
4024.199	4185
4025.785	4097
4027.37	4176
4028.953	4164
4030.536	4213
4032.12	4181
4033.704	4180
4035.287	4146
4036.869	4095
4038.45	4233
4040.032	4086
4041.613	4092
4043.195	4153
4044.776	4109
4046.356	4141
4047.935	4090
4049.515	4065
4051.095	4199
4052.674	4080
4054.251	4045
4055.829	4093
4057.406	4068
4058.985	4074
4060.562	4318
4062.139	3987
4063.715	3980
4065.29	4161
4066.865	4087
4068.442	4117
4070.016	4153
4071.59	4066
4073.164	3984
4074.738	4010
4076.312	4118
4077.885	4001
4079.458	4091
4081.03	4037
4082.602	4111
4084.173	4069
4085.745	4043
4087.315	4020
4088.886	4073
4090.456	3968
4092.026	3970
4093.596	4002
4095.165	3980
4096.734	4029
4098.301	3972
4099.869	4010
4101.437	3980
4103.006	3976
4104.572	3935
4106.139	3964
4107.704	3850
4109.27	3986
4110.837	3907
4112.401	3974
4113.966	3865
4115.53	3944
4117.094	3941
4118.659	4000
4120.223	3964
4121.785	3931
4123.347	3907
4124.909	3857
4126.471	3869
4128.034	3843
4129.595	3821
4131.155	3910
4132.716	3883
4134.275	3893
4135.836	3935
4137.395	3833
4138.955	3901
4140.513	3919
4142.071	3816
4143.628	3800
4145.188	3889
4146.745	3865
4148.302	3851
4149.858	3774
4151.414	3807
4152.971	3875
4154.526	3813
4156.081	3808
4157.635	3756
4159.189	3822
4160.745	3810
4162.298	3737
4163.852	3782
4165.405	3724
4166.957	3741
4168.51	3731
4170.063	3750
4171.614	3725
4173.166	3828
4174.717	3742
4176.267	3825
4177.817	3661
4179.368	3708
4180.917	3743
4182.466	3687
4184.016	3709
4185.564	3715
4187.112	3676
4188.66	3689
4190.207	3764
4191.754	3765
4193.301	3696
4194.848	3660
4196.394	3764
4197.94	3660
4199.484	3635
4201.03	3624
4202.575	3761
4204.12	3580
4205.663	3679
4207.207	3639
4208.75	3562
4210.292	3602
4211.836	3711
4213.378	3672
4214.92	3629
4216.46	3550
4218.002	3556
4219.544	3598
4221.083	3632
4222.625	3553
4224.164	3587
4225.703	3561
4227.244	3607
4228.782	3599
4230.32	3667
4231.857	3458
4233.395	3559
4234.933	3510
4236.471	3560
4238.007	3570
4239.542	3562
4241.078	3587
4242.614	3610
4244.15	3646
4245.685	3569
4247.219	3522
4248.753	3491
4250.287	3589
4251.82	3615
4253.354	3531
4254.887	3507
4256.419	3583
4257.951	3531
4259.483	3522
4261.016	3506
4262.547	3571
4264.078	3491
4265.608	3537
4267.137	3533
4268.668	3439
4270.197	3526
4271.727	3490
4273.254	3507
4274.783	3494
4276.311	3456
4277.84	3481
4279.366	3569
4280.894	3383
4282.42	3431
4283.946	3459
4285.473	3456
4286.998	3466
4288.523	3470
4290.047	3486
4291.572	3424
4293.096	3406
4294.622	3436
4296.144	3406
4297.668	3382
4299.19	3337
4300.713	3462
4302.236	3346
4303.758	3322
4305.279	3417
4306.799	3307
4308.321	3401
4309.842	3382
4311.361	3385
4312.882	3328
4314.401	3442
