400.0961	3944
402.6185	3861
405.1424	3867
407.6635	3907
410.1838	3847
412.7035	3913
415.2225	3916
417.7388	3928
420.2585	3834
422.7754	4039
425.2917	4099
427.8072	4062
430.3221	4154
432.8363	4107
435.3498	4115
437.8626	4064
440.3727	4139
442.8841	4136
445.3969	4163
447.907	4051
450.4142	4114
452.9229	4102
455.4289	4045
457.9362	4079
460.4449	4042
462.9488	4005
465.454	4019
467.9566	3999
470.4604	4010
472.9637	4060
475.4662	4046
477.966	4005
480.4671	4040
482.9656	4034
485.4633	4023
487.9645	4085
490.4608	4045
492.9566	4079
495.4536	4207
497.948	4120
500.4437	4182
502.9387	4214
505.431	4168
507.9226	4080
510.4136	4103
512.9079	4170
515.3975	4204
517.8864	4173
520.3746	4203
522.8622	4084
525.3491	4177
527.8394	4173
530.3249	4141
532.8098	4237
535.2939	4141
537.7774	4231
540.2623	4217
542.7444	4143
545.2259	4332
547.7067	4245
550.1868	4211
552.6683	4195
555.147	4260
557.6231	4176
560.1005	4256
562.5773	4294
565.0534	4320
567.5308	4272
570.0056	4297
572.4776	4317
574.951	4337
577.4237	4301
579.8978	4381
582.3671	4345
584.8378	4431
587.3079	4348
589.7773	4426
592.244	4397
594.714	4347
597.1793	4418
599.6461	4383
602.1121	4384
604.5754	4352
607.0421	4372
609.5042	4426
611.9675	4334
614.4282	4313
616.8902	4481
619.3515	4383
621.8122	4274
624.2702	4359
626.7296	4384
629.1863	4350
631.6423	4327
634.1017	4374
636.5563	4366
639.0104	4293
641.4658	4321
643.9185	4420
646.3725	4350
648.8239	4381
651.2766	4320
653.7266	4395
656.176	4362
658.6247	4416
661.0748	4398
663.5242	4388
665.9709	4407
668.417	4441
670.8624	4440
673.3092	4471
675.7533	4506
678.1968	4466
680.6395	4441
683.0817	4473
685.5251	4514
687.9659	4579
690.4061	4438
692.8456	4516
695.2844	4443
697.7226	4491
700.1621	4539
702.599	4580
705.0332	4578
707.4688	4571
709.9036	4587
712.3399	4591
714.7735	4564
717.2044	4609
719.6367	4666
722.0683	4583
724.4993	4641
726.9296	4704
729.3593	4722
731.7883	4686
734.2147	4667
736.6423	4675
739.0714	4730
741.4958	4765
743.9216	4686
746.3447	4660
748.7691	4588
751.1929	4766
753.616	4787
756.0366	4774
758.4584	4701
760.8776	4768
763.2982	4822
765.718	4849
768.1373	4815
770.5539	4876
772.9698	4823
775.3871	4841
777.8038	4825
780.2178	4794
782.6332	4832
785.0459	4733
787.458	4908
789.8714	4843
792.2842	4735
794.6943	4810
797.1038	4830
799.5127	4793
801.9209	4780
804.3324	4870
806.7393	4840
809.1456	4888
811.5513	4873
813.9562	4945
816.3625	4909
818.7663	4930
821.1693	4881
823.5718	5036
825.9735	4925
828.3746	4873
830.7771	4875
833.177	4864
835.5762	4846
837.9747	4912
840.3727	4947
842.772	4907
845.1666	4995
847.5626	5041
849.958	5060
852.3527	5053
854.7488	5048
857.1403	5091
859.5331	5055
861.9253	5104
864.3168	4991
866.7057	5114
869.098	5074
871.4876	5008
873.8746	5089
876.263	5014
878.6487	5032
881.0378	5018
883.4243	4991
885.8081	5050
888.1933	5074
890.5759	5094
892.9598	4951
895.343	5048
897.7256	4955
900.1057	5042
902.4871	5106
904.8659	5023
907.246	5064
909.6254	5192
912.0023	5221
914.3786	5369
916.7562	5410
919.1331	5452
921.5074	5467
923.8831	5583
926.2562	5530
928.6287	5549
931.0005	5477
933.3757	5471
935.7462	5445
938.1162	5387
940.4855	5400
942.8542	5468
945.2242	5392
947.5916	5588
949.9584	5595
952.3266	5609
954.6921	5924
957.0571	5976
959.4233	6230
961.787	6204
964.15	6275
966.5125	6172
968.8742	5846
971.2354	5711
973.5959	5568
975.9559	5532
978.3151	5511
980.6738	5467
983.0338	5328
985.3912	5348
987.7461	5239
990.1022	5300
992.4578	5185
994.8127	5300
997.1689	5223
999.5207	5296
1001.874	5308
1004.226	5277
1006.576	5279
1008.929	5249
1011.28	5163
1013.628	5172
1015.977	5136
1018.324	5177
1020.674	5307
1023.019	5253
1025.366	5261
1027.713	5265
1030.056	5199
1032.399	5267
1034.746	5356
1037.087	5362
1039.431	5380
1041.771	5331
1044.113	5313
1046.454	5283
1048.793	5339
1051.133	5381
1053.471	5449
1055.807	5248
1058.146	5180
1060.483	5219
1062.818	5243
1065.153	5472
1067.489	5309
1069.822	5381
1072.156	5277
1074.488	5376
1076.82	5419
1079.15	5415
1081.48	5378
1083.814	5385
1086.143	5355
1088.471	5376
1090.799	5354
1093.126	5333
1095.452	5270
1097.78	5400
1100.105	5360
1102.43	5283
1104.754	5386
1107.077	5417
1109.4	5350
1111.722	5310
1114.044	5303
1116.365	5388
1118.685	5470
1121.005	5476
1123.324	5310
1125.643	5514
1127.961	5444
1130.278	5463
1132.595	5418
1134.911	5366
1137.226	5308
1139.541	5276
1141.854	5336
1144.167	5246
1146.482	5321
1148.793	5346
1151.105	5400
1153.414	5416
1155.725	5274
1158.033	5417
1160.344	5275
1162.651	5442
1164.959	5323
1167.265	5286
1169.572	5270
1171.878	5296
1174.184	5444
1176.488	5484
1178.79	5452
1181.094	5435
1183.396	5486
1185.699	5471
1188.001	5503
1190.301	5327
1192.6	5444
1194.9	5424
1197.2	5439
1199.497	5375
1201.794	5412
1204.09	5347
1206.387	5497
1208.684	5416
1210.978	5398
1213.272	5402
1215.565	5436
1217.858	5370
1220.15	5400
1222.443	5475
1224.734	5500
1227.024	5500
1229.313	5423
1231.602	5609
1233.892	5420
1236.18	5494
1238.467	5619
1240.754	5579
1243.04	5619
1245.325	5648
1247.612	5643
1249.896	5714
1252.178	5626
1254.461	5669
1256.743	5781
1259.027	5724
1261.308	5734
1263.587	5668
1265.867	5669
1268.146	5717
1270.425	5825
1272.703	5749
1274.981	5730
1277.256	5777
1279.532	5677
1281.808	5632
1284.083	5571
1286.358	5570
1288.63	5552
1290.904	5490
1293.175	5482
1295.449	5494
1297.719	5579
1299.99	5510
1302.259	5586
1304.529	5625
1306.798	5673
1309.065	5648
1311.333	5629
1313.599	5577
1315.866	5534
1318.131	5560
1320.396	5650
1322.66	5531
1324.925	5734
1327.187	5624
1329.448	5616
1331.711	5744
1333.974	5707
1336.234	5669
1338.493	5550
1340.752	5592
1343.01	5534
1345.269	5506
1347.526	5529
1349.784	5654
1352.04	5480
1354.295	5675
1356.552	5539
1358.806	5579
1361.059	5511
1363.312	5521
1365.564	5505
1367.818	5560
1370.069	5610
1372.318	5616
1374.568	5630
1376.817	5580
1379.066	5791
1381.316	5766
1383.564	5741
1385.809	5715
1388.056	5757
1390.301	5911
1392.549	5839
1394.793	5959
1397.036	6021
1399.279	6030
1401.522	6073
1403.763	6181
1406.007	6035
1408.248	6053
1410.487	6004
1412.727	6001
1414.965	5951
1417.205	6048
1419.442	5952
1421.68	5883
1423.915	5864
1426.152	5850
1428.388	5839
1430.623	5835
1432.857	5989
1435.091	5942
1437.323	5852
1439.556	5950
1441.789	5997
1444.019	5998
1446.25	6021
1448.48	6013
1450.708	6021
1452.938	6068
1455.167	6177
1457.394	6070
1459.62	6078
1461.846	6068
1464.073	5992
1466.299	5956
1468.523	5933
1470.746	5891
1472.969	5812
1475.191	5746
1477.415	5753
1479.636	5683
1481.858	5668
1484.078	5645
1486.298	5672
1488.518	5558
1490.736	5606
1492.954	5537
1495.169	5577
1497.386	5595
1499.602	5594
1501.819	5575
1504.034	5573
1506.248	5550
1508.462	5498
1510.675	5486
1512.888	5518
1515.1	5486
1517.311	5617
1519.522	5499
1521.732	5580
1523.942	5609
1526.151	5470
1528.36	5552
1530.566	5558
1532.773	5563
1534.98	5525
1537.187	5587
1539.392	5647
1541.596	5568
1543.801	5592
1546.005	5516
1548.208	5579
1550.411	5583
1552.612	5637
1554.814	5610
1557.013	5574
1559.212	5702
1561.414	5710
1563.612	5575
1565.811	5734
1568.007	5648
1570.203	5672
1572.403	5747
1574.598	5727
1576.792	5651
1578.988	5791
1581.181	5609
1583.376	5744
1585.568	5664
1587.761	5743
1589.952	5828
1592.143	5788
1594.333	5724
1596.524	5749
1598.715	5817
1600.903	5702
1603.091	5655
1605.278	5731
1607.466	5753
1609.652	5609
1611.838	5732
1614.023	5750
1616.207	5741
1618.391	5679
1620.576	5770
1622.759	5788
1624.941	5770
1627.123	5770
1629.304	5906
1631.484	5923
1633.664	5803
1635.844	5836
1638.022	5851
1640.201	5834
1642.38	5946
1644.556	5976
1646.732	5963
1648.908	5786
1651.084	5963
1653.257	5907
1655.433	5913
1657.607	5926
1659.779	5870
1661.951	5970
1664.122	5962
1666.295	5933
1668.467	5907
1670.635	5961
1672.805	5908
1674.973	5858
1677.142	5953
1679.31	5870
1681.478	5927
1683.644	5794
1685.81	5827
1687.975	5829
1690.142	5887
1692.305	5957
1694.468	5829
1696.632	5787
1698.794	5936
1700.957	5781
1703.119	5745
1705.279	5764
1707.439	5798
1709.598	5736
1711.758	5703
1713.917	5802
1716.075	5678
1718.231	5749
1720.388	5695
1722.543	5802
1724.702	5786
1726.856	5612
1729.01	5737
1731.164	5618
1733.317	5779
1735.471	5615
1737.623	5699
1739.774	5608
1741.925	5800
1744.075	5728
1746.225	5631
1748.376	5598
1750.524	5778
1752.672	5686
1754.82	5719
1756.965	5687
1759.113	5819
1761.259	5746
1763.405	5744
1765.549	5766
1767.694	5697
1769.836	5631
1771.981	5708
1774.123	5715
1776.264	5844
1778.405	5731
1780.546	5646
1782.687	5717
1784.827	5731
1786.966	5737
1789.103	5758
1791.242	5919
1793.381	5770
1795.517	5843
1797.653	5739
1799.788	5712
1801.923	5795
1804.057	5785
1806.193	5779
1808.326	5784
1810.457	5767
1812.59	5801
1814.721	5781
1816.855	5714
1818.984	5809
1821.113	5736
1823.244	5770
1825.372	5791
1827.499	5751
1829.63	5746
1831.756	5836
1833.882	5767
1836.007	5724
1838.132	5695
1840.26	5765
1842.384	5732
1844.507	5767
1846.63	5855
1848.752	5664
1850.875	5646
1852.996	5691
1855.118	5656
1857.238	5682
1859.358	5674
1861.477	5758
1863.597	5666
1865.715	5677
1867.832	5682
1869.948	5674
1872.064	5669
1874.181	5727
1876.297	5619
1878.411	5675
1880.526	5729
1882.639	5744
1884.752	5742
1886.865	5719
1888.977	5728
1891.089	5823
1893.2	5694
1895.308	5696
1897.42	5654
1899.53	5733
1901.639	5682
1903.745	5756
1905.853	5640
1907.962	5777
1910.067	5813
1912.174	5780
1914.278	5703
1916.383	5827
1918.486	5757
1920.592	5827
1922.694	5771
1924.797	5807
1926.898	5780
1929	5784
1931.102	5871
1933.203	5834
1935.301	5805
1937.401	5808
1939.499	5900
1941.598	5809
1943.697	5728
1945.793	5719
1947.888	5822
1949.985	5798
1952.08	5795
1954.176	5820
1956.269	5722
1958.364	5784
1960.457	5852
1962.549	5884
1964.642	5776
1966.733	5840
1968.823	5714
1970.913	5809
1973.005	5734
1975.093	5814
1977.184	5821
1979.271	5731
1981.359	5690
1983.446	5719
1985.532	5787
1987.619	5887
1989.705	5743
1991.789	5649
1993.874	5760
1995.956	5716
1998.041	5748
2000.123	5721
2002.206	5834
2004.287	5793
2006.368	5697
2008.449	5785
2010.529	5631
2012.609	5798
2014.688	5784
2016.766	5690
2018.843	5712
2020.922	5785
2022.999	5719
2025.074	5735
2027.15	5701
2029.225	5708
2031.299	5762
2033.375	5738
2035.447	5740
2037.52	5690
2039.592	5770
2041.664	5740
2043.736	5816
2045.807	5670
2047.876	5733
2049.947	5720
2052.015	5724
2054.086	5746
2056.153	5737
2058.221	5658
2060.288	5745
2062.353	5729
2064.42	5829
2066.486	5767
2068.55	5853
2070.614	5720
2072.678	5771
2074.741	5757
2076.805	5742
2078.866	5828
2080.929	5724
2082.99	5749
2085.049	5693
2087.109	5757
2089.17	5667
2091.228	5695
2093.286	5775
2095.344	5826
2097.4	5785
2099.46	5727
2101.516	5773
2103.572	5821
2105.626	5785
2107.679	5727
2109.735	5726
2111.788	5779
2113.841	5660
2115.894	5784
2117.945	5825
2119.997	5846
2122.049	5616
2124.1	5711
2126.148	5781
2128.197	5677
2130.246	5731
2132.296	5669
2134.342	5764
2136.39	5657
2138.437	5811
2140.483	5680
2142.527	5634
2144.574	5752
2146.619	5656
2148.661	5615
2150.705	5701
2152.747	5704
2154.792	5654
2156.832	5653
2158.874	5835
2160.915	5656
2162.954	5709
2164.995	5688
2167.034	5704
2169.072	5682
2171.111	5588
2173.148	5628
2175.186	5706
2177.223	5710
2179.258	5536
2181.294	5725
2183.328	5681
2185.362	5602
2187.398	5583
2189.431	5688
2191.463	5619
2193.495	5603
2195.528	5601
2197.56	5551
2199.59	5562
2201.62	5658
2203.649	5547
2205.678	5511
2207.708	5671
2209.737	5586
2211.764	5468
2213.791	5595
2215.817	5655
2217.843	5556
2219.87	5610
2221.895	5518
2223.919	5609
2225.942	5598
2227.966	5482
2229.988	5513
2232.012	5565
2234.032	5544
2236.054	5646
2238.074	5537
2240.095	5600
2242.116	5500
2244.135	5559
2246.153	5481
2248.171	5583
2250.188	5609
2252.208	5709
2254.223	5601
2256.239	5499
2258.255	5553
2260.269	5472
2262.283	5667
2264.3	5523
2266.312	5509
2268.325	5644
2270.336	5549
2272.349	5529
2274.362	5661
2276.372	5610
2278.383	5607
2280.392	5688
2282.402	5515
2284.409	5568
2286.418	5472
2288.427	5602
2290.433	5548
2292.441	5578
2294.446	5581
2296.453	5531
2298.459	5515
2300.463	5518
2302.466	5573
2304.471	5567
2306.475	5519
2308.477	5530
2310.478	5500
2312.481	5552
2314.481	5564
2316.481	5526
2318.482	5530
2320.482	5573
2322.48	5618
2324.48	5539
2326.478	5584
2328.476	5466
2330.473	5488
2332.469	5415
2334.465	5523
2336.46	5440
2338.454	5457
2340.45	5611
2342.444	5453
2344.437	5555
2346.43	5525
2348.421	5561
2350.414	5559
2352.405	5563
2354.396	5490
2356.386	5397
2358.376	5464
2360.366	5464
2362.355	5387
2364.343	5469
2366.331	5376
2368.317	5436
2370.304	5492
2372.292	5475
2374.278	5339
2376.262	5580
2378.247	5497
2380.23	5505
2382.216	5465
2384.199	5366
2386.181	5341
2388.163	5443
2390.144	5431
2392.127	5427
2394.107	5373
2396.087	5428
2398.066	5340
2400.046	5465
2402.023	5440
2404.004	5434
2405.981	5427
2407.957	5429
2409.934	5430
2411.91	5377
2413.886	5336
2415.862	5362
2417.836	5366
2419.809	5436
2421.784	5383
2423.756	5338
2425.73	5287
2427.701	5388
2429.672	5359
2431.644	5303
2433.615	5316
2435.586	5378
2437.555	5252
2439.523	5374
2441.491	5248
2443.459	5372
2445.428	5467
2447.395	5270
2449.361	5366
2451.327	5341
2453.292	5350
2455.257	5440
2457.223	5272
2459.187	5344
2461.15	5392
2463.113	5293
2465.076	5332
2467.039	5324
2468.999	5310
2470.96	5318
2472.921	5382
2474.881	5304
2476.841	5242
2478.8	5281
2480.759	5368
2482.717	5340
2484.675	5249
2486.63	5286
2488.589	5208
2490.545	5384
2492.5	5335
2494.455	5288
2496.408	5186
2498.364	5302
2500.318	5307
2502.27	5200
2504.223	5324
2506.174	5205
2508.126	5319
2510.078	5194
2512.03	5243
2513.979	5181
2515.927	5337
2517.877	5230
2519.826	5198
2521.775	5262
2523.722	5176
2525.668	5408
2527.616	5365
2529.561	5194
2531.508	5199
2533.452	5316
2535.398	5123
2537.342	5192
2539.284	5353
2541.229	5377
2543.173	5233
2545.114	5241
2547.055	5330
2548.996	5263
2550.938	5172
2552.878	5119
2554.817	5381
2556.756	5264
2558.695	5247
2560.633	5310
2562.572	5221
2564.509	5240
2566.445	5212
2568.382	5207
2570.317	5262
2572.254	5211
2574.189	5205
2576.123	5217
2578.057	5236
2579.99	5260
2581.923	5216
2583.855	5272
2585.788	5222
2587.719	5264
2589.65	5243
2591.579	5187
2593.511	5267
2595.44	5232
2597.37	5270
2599.297	5242
2601.225	5196
2603.153	5350
2605.08	5234
2607.007	5190
2608.932	5175
2610.858	5305
2612.782	5263
2614.709	5152
2616.632	5244
2618.556	5183
2620.478	5298
2622.401	5227
2624.324	5211
2626.247	5138
2628.167	5349
2630.088	5235
2632.008	5294
2633.928	5206
2635.848	5258
2637.766	5226
2639.684	5200
2641.603	5296
2643.519	5119
2645.437	5285
2647.353	5239
2649.27	5198
2651.184	5336
2653.099	5211
2655.014	5091
2656.928	5247
2658.842	5356
2660.755	5160
2662.667	5302
2664.579	5206
2666.491	5255
2668.402	5275
2670.312	5115
2672.222	5108
2674.132	5273
2676.042	5320
2677.951	5097
2679.859	5153
2681.766	5168
2683.674	5182
2685.582	5124
2687.488	5187
2689.392	5222
2691.298	5233
2693.202	5213
2695.107	5276
2697.012	5133
2698.914	5221
2700.817	5063
2702.72	5145
2704.622	5150
2706.524	5209
2708.425	5119
2710.326	5181
2712.225	5151
2714.125	5206
2716.024	5171
2717.923	5172
2719.822	5132
2721.719	5105
2723.616	5091
2725.512	5203
2727.41	5195
2729.305	5124
2731.201	5184
2733.095	5165
2734.99	5078
2736.884	5082
2738.778	5253
2740.67	5164
2742.562	5109
2744.455	5153
2746.346	5071
2748.238	5067
2750.129	5206
2752.018	5120
2753.907	5132
2755.797	5175
2757.687	5213
2759.575	5092
2761.462	5136
2763.349	5055
2765.237	5123
2767.124	5247
2769.009	5129
2770.894	5113
2772.779	5160
2774.663	5105
2776.547	5179
2778.431	5129
2780.314	5164
2782.197	5147
2784.078	5081
2785.96	5131
2787.842	5170
2789.723	5178
2791.603	5113
2793.483	5099
2795.362	5051
2797.241	5207
2799.121	5026
2800.997	5119
2802.874	5133
2804.751	5076
2806.628	5098
2808.506	5077
2810.38	5064
2812.255	5088
2814.13	5130
2816.003	5023
2817.878	5108
2819.752	5121
2821.623	5158
2823.496	5099
2825.368	5081
2827.238	5070
2829.111	5276
2830.98	5104
2832.851	5197
2834.719	5224
2836.589	5068
2838.458	5116
2840.327	5130
2842.193	5102
2844.061	5120
2845.927	5292
2847.794	5109
2849.66	5188
2851.525	5261
2853.39	5287
2855.254	5237
2857.117	5336
2858.983	5456
2860.845	5390
2862.707	5407
2864.569	5521
2866.431	5378
2868.293	5534
2870.154	5580
2872.013	5577
2873.873	5590
2875.733	5785
2877.592	5753
2879.451	5744
2881.309	5892
2883.166	5856
2885.022	5849
2886.879	6005
2888.736	6026
2890.591	6100
2892.446	6077
2894.301	6172
2896.155	6160
2898.009	6113
2899.863	6164
2901.716	5987
2903.568	6123
2905.419	6120
2907.27	6049
2909.123	6180
2910.973	6011
2912.824	6064
2914.673	6095
2916.521	6121
2918.372	6227
2920.22	6291
2922.067	6436
2923.914	6340
2925.761	6581
2927.607	6446
2929.455	6597
2931.301	6549
2933.144	6595
2934.99	6624
2936.833	6750
2938.678	6704
2940.522	6890
2942.364	7038
2944.207	7048
2946.048	7291
2947.891	7279
2949.731	7320
2951.571	7491
2953.412	7396
2955.25	7209
2957.09	7252
2958.93	7128
2960.767	7162
2962.606	6965
2964.443	7011
2966.279	6794
2968.116	6542
2969.953	6446
2971.788	6390
2973.623	6393
2975.457	6210
2977.292	6193
2979.127	6139
2980.959	6099
2982.792	5942
2984.624	6031
2986.455	5936
2988.288	5844
2990.119	5780
2991.949	5806
2993.779	5738
2995.608	5805
2997.439	5699
2999.268	5630
3001.096	5471
3002.923	5435
3004.751	5484
3006.578	5316
3008.406	5371
3010.232	5278
3012.057	5183
3013.883	5223
3015.706	5113
3017.532	5165
3019.356	5279
3021.179	5040
3023.002	5064
3024.823	5059
3026.646	5146
3028.469	4907
3030.289	5019
3032.11	4981
3033.93	4997
3035.749	5001
3037.57	4961
3039.39	4806
3041.207	4951
3043.026	4902
3044.842	4960
3046.661	5019
3048.477	4855
3050.294	4940
3052.109	4885
3053.925	4880
3055.739	4919
3057.555	4960
3059.368	4881
3061.181	4844
3062.995	4974
3064.807	4935
3066.62	4850
3068.433	4844
3070.243	4936
3072.054	4843
3073.865	4886
3075.675	4749
3077.485	4915
3079.293	4861
3081.102	4839
3082.911	4820
3084.719	4736
3086.527	4746
3088.333	4794
3090.139	4710
3091.945	4732
3093.75	4763
3095.557	4703
3097.361	4685
3099.165	4693
3100.969	4676
3102.772	4643
3104.575	4737
3106.379	4688
3108.181	4733
3109.982	4736
3111.783	4741
3113.584	4762
3115.386	4653
3117.186	4638
3118.985	4649
3120.783	4684
3122.582	4730
3124.381	4601
3126.179	4643
3127.975	4670
3129.772	4654
3131.569	4646
3133.365	4645
3135.161	4608
3136.956	4656
3138.751	4709
3140.544	4521
3142.338	4689
3144.132	4624
3145.925	4523
3147.717	4634
3149.509	4624
3151.301	4684
3153.091	4556
3154.884	4589
3156.673	4520
3158.462	4530
3160.252	4596
3162.041	4631
3163.831	4538
3165.618	4550
3167.405	4600
3169.193	4573
3170.979	4543
3172.767	4533
3174.553	4571
3176.338	4596
3178.123	4562
3179.907	4583
3181.692	4544
3183.477	4593
3185.259	4555
3187.042	4509
3188.824	4495
3190.607	4519
3192.389	4587
3194.17	4612
3195.951	4532
3197.73	4497
3199.51	4597
3201.289	4618
3203.07	4605
3204.848	4581
3206.626	4569
3208.403	4577
3210.18	4515
3211.959	4596
3213.735	4527
3215.511	4516
3217.285	4482
3219.06	4585
3220.836	4565
3222.611	4509
3224.384	4548
3226.158	4643
3227.929	4520
3229.702	4510
3231.476	4541
3233.248	4578
3235.018	4546
3236.789	4455
3238.56	4556
3240.33	4522
3242.1	4561
3243.869	4516
3245.637	4649
3247.405	4472
3249.172	4601
3250.941	4512
3252.707	4555
3254.474	4609
3256.24	4640
3258.006	4514
3259.772	4516
3261.537	4557
3263.301	4495
3265.065	4607
3266.828	4533
3268.592	4565
3270.355	4530
3272.117	4505
3273.878	4630
3275.64	4569
3277.401	4602
3279.162	4575
3280.922	4470
3282.682	4532
3284.441	4507
3286.199	4605
3287.959	4502
3289.716	4493
3291.475	4558
3293.232	4573
3294.988	4439
3296.744	4507
3298.501	4592
3300.256	4602
3302.011	4547
3303.766	4618
3305.52	4532
3307.275	4558
3309.028	4561
3310.781	4586
3312.533	4496
3314.285	4472
3316.038	4615
3317.789	4490
3319.54	4625
3321.289	4614
3323.039	4500
3324.789	4533
3326.539	4581
3328.288	4446
3330.035	4556
3331.783	4413
3333.531	4489
3335.28	4449
3337.025	4442
3338.771	4442
3340.518	4501
3342.262	4452
3344.009	4490
3345.753	4420
3347.497	4460
3349.24	4476
3350.983	4438
3352.726	4380
3354.469	4433
3356.212	4517
3357.952	4459
3359.694	4429
3361.434	4441
3363.176	4437
3364.916	4459
3366.654	4480
3368.394	4415
3370.132	4396
3371.871	4339
3373.61	4470
3375.346	4362
3377.083	4375
3378.82	4376
3380.556	4285
3382.292	4387
3384.027	4319
3385.763	4362
3387.497	4386
3389.231	4304
3390.965	4310
3392.698	4357
3394.431	4342
3396.164	4408
3397.896	4362
3399.627	4350
3401.36	4289
3403.09	4314
3404.82	4254
3406.55	4390
3408.279	4249
3410.01	4315
3411.738	4267
3413.467	4375
3415.194	4312
3416.92	4245
3418.647	4224
3420.375	4259
3422.102	4372
3423.827	4252
3425.553	4268
3427.277	4298
3429.003	4297
3430.727	4231
3432.451	4211
3434.173	4309
3435.896	4293
3437.62	4160
3439.343	4283
3441.063	4236
3442.785	4163
3444.505	4134
3446.226	4216
3447.948	4113
3449.666	4138
3451.386	4213
3453.104	4112
3454.823	4131
3456.541	3999
3458.259	4197
3459.976	4110
3461.693	4199
3463.408	4153
3465.125	4001
3466.841	4070
3468.556	4052
3470.271	4106
3471.985	4095
3473.698	3935
3475.414	4067
3477.126	4070
3478.838	4160
3480.55	3962
3482.263	4060
3483.975	4056
3485.686	3981
3487.396	4006
3489.106	4063
3490.817	4054
3492.526	3998
3494.236	3924
3495.944	3918
3497.652	3999
3499.359	4013
3501.066	3928
3502.775	3893
3504.481	3992
3506.187	3922
3507.893	3867
3509.598	3982
3511.304	3933
3513.009	3950
3514.713	3880
3516.417	3936
3518.12	3840
3519.821	3883
3521.525	3849
3523.228	3924
3524.929	3854
3526.631	3891
3528.33	3873
3530.032	3819
3531.733	3843
3533.433	3809
3535.131	3808
3536.83	3850
3538.529	3860
3540.227	3823
3541.925	3810
3543.623	3735
3545.319	3852
3547.016	3782
3548.712	3806
3550.408	3770
3552.103	3787
3553.798	3781
3555.491	3802
3557.188	3821
3558.88	3739
3560.574	3774
3562.266	3804
3563.959	3804
3565.651	3799
3567.343	3778
3569.035	3756
3570.725	3784
3572.415	3769
3574.106	3768
3575.797	3709
3577.485	3808
3579.174	3706
3580.863	3772
3582.551	3761
3584.238	3696
3585.926	3710
3587.613	3649
3589.3	3732
3590.986	3688
3592.671	3636
3594.357	3644
3596.042	3701
3597.726	3655
3599.41	3639
3601.094	3593
3602.778	3598
3604.461	3650
3606.143	3609
3607.825	3658
3609.507	3586
3611.188	3616
3612.87	3659
3614.551	3626
3616.229	3596
3617.909	3592
3619.589	3569
3621.269	3674
3622.948	3520
3624.625	3586
3626.302	3588
3627.98	3652
3629.657	3507
3631.334	3523
3633.01	3519
3634.686	3599
3636.361	3481
3638.036	3580
3639.712	3531
3641.385	3499
3643.06	3442
3644.732	3536
3646.405	3521
3648.08	3405
3649.751	3468
3651.424	3511
3653.094	3443
3654.766	3464
3656.436	3487
3658.106	3498
3659.777	3487
3661.446	3437
3663.115	3396
3664.783	3412
3666.452	3429
3668.121	3511
3669.788	3454
3671.454	3349
3673.121	3441
3674.789	3377
3676.455	3363
3678.12	3395
3679.784	3372
3681.45	3374
3683.114	3461
3684.779	3351
3686.442	3373
3688.105	3381
3689.768	3353
3691.43	3447
3693.093	3404
3694.754	3424
3696.415	3392
3698.076	3342
3699.736	3406
3701.396	3419
3703.057	3383
3704.716	3327
3706.375	3453
3708.034	3408
3709.692	3300
3711.351	3359
3713.008	3325
3714.665	3328
3716.321	3377
3717.977	3352
3719.634	3345
3721.29	3391
3722.945	3306
3724.598	3282
3726.253	3334
3727.907	3309
3729.561	3343
3731.214	3370
3732.867	3273
3734.518	3304
3736.171	3304
3737.824	3301
3739.474	3303
3741.125	3304
3742.775	3319
3744.425	3357
3746.074	3286
3747.725	3246
3749.373	3355
3751.022	3263
3752.669	3381
3754.318	3210
3755.966	3217
3757.612	3311
3759.259	3234
3760.905	3339
3762.55	3281
3764.197	3229
3765.842	3264
3767.486	3296
3769.131	3271
3770.774	3182
3772.417	3222
3774.061	3227
3775.705	3299
3777.347	3299
3778.988	3233
3780.629	3200
3782.271	3240
3783.912	3195
3785.552	3129
3787.192	3191
3788.831	3217
3790.472	3182
3792.112	3222
3793.75	3211
3795.388	3100
3797.024	3212
3798.661	3189
3800.3	3144
3801.936	3209
3803.572	3155
3805.208	3187
3806.844	3112
3808.48	3148
3810.115	3100
3811.748	3130
3813.382	3178
3815.016	3239
3816.649	3205
3818.283	3161
3819.914	3156
3821.547	3140
3823.178	3093
3824.809	3158
3826.441	3107
3828.072	3068
3829.701	3154
3831.331	3063
3832.96	3089
3834.591	3161
3836.219	3102
3837.847	3076
3839.475	3069
3841.102	3090
3842.729	3093
3844.357	3051
3845.984	3020
3847.609	3116
3849.234	3112
3850.86	3052
3852.485	3057
3854.11	3121
3855.734	3067
3857.357	3018
3858.981	3067
3860.603	2981
3862.227	3075
3863.848	3064
3865.471	3068
3867.092	3043
3868.713	3055
3870.334	3062
3871.954	3044
3873.575	3026
3875.194	3134
3876.813	3048
3878.433	3079
3880.051	3089
3881.669	3058
3883.286	3048
3884.904	2980
3886.52	2979
3888.138	3009
3889.754	3009
3891.37	3015
3892.985	2982
3894.6	2983
3896.216	3053
3897.831	3004
3899.444	3056
3901.058	3015
3902.67	3028
3904.283	3008
3905.897	3071
3907.509	2961
3909.121	2990
3910.731	2943
3912.342	3041
3913.954	2957
3915.563	3043
3917.174	2971
3918.783	2994
3920.391	3008
3922.002	2998
3923.611	2961
3925.218	2963
3926.826	3060
3928.432	2987
3930.039	3012
3931.647	2963
3933.253	3059
3934.859	2931
3936.464	2908
3938.068	3062
3939.675	2977
3941.278	3003
3942.883	2983
3944.486	3009
3946.089	2971
3947.692	2925
3949.295	2960
3950.898	2947
3952.499	2934
3954.1	2940
3955.7	2928
3957.303	2998
3958.903	2936
3960.502	2906
3962.101	2906
3963.7	2906
3965.301	2892
3966.899	2997
3968.497	2937
3970.094	2830
3971.691	2926
3973.288	2874
3974.885	2882
3976.481	2794
3978.077	2865
3979.672	2886
3981.267	2823
3982.863	2914
3984.457	2913
3986.051	2931
3987.645	2916
3989.238	2910
3990.831	2873
3992.425	2774
3994.017	2844
3995.607	2756
3997.199	2847
3998.79	2829
4000.382	2886
4001.973	2815
4003.561	2764
4005.151	2821
4006.741	2812
4008.331	2829
4009.918	2822
4011.507	2749
4013.095	2764
4014.681	2821
4016.269	2812
4017.856	2761
4019.443	2776
4021.028	2753
4022.614	2798
4024.199	2793
4025.785	2803
4027.37	2769
4028.953	2785
4030.536	2794
4032.12	2754
4033.704	2733
4035.287	2668
4036.869	2741
4038.45	2745
4040.032	2760
4041.613	2760
4043.195	2687
4044.776	2770
4046.356	2764
4047.935	2691
4049.515	2698
4051.095	2741
4052.674	2707
4054.251	2740
4055.829	2726
4057.406	2702
4058.985	2708
4060.562	2746
4062.139	2703
4063.715	2733
4065.29	2725
4066.865	2656
4068.442	2741
4070.016	2672
4071.59	2683
4073.164	2664
4074.738	2696
4076.312	2686
4077.885	2693
4079.458	2576
4081.03	2711
4082.602	2685
4084.173	2652
4085.745	2694
4087.315	2676
4088.886	2745
4090.456	2656
4092.026	2664
4093.596	2604
4095.165	2620
4096.734	2622
4098.301	2658
4099.869	2640
4101.437	2660
4103.006	2662
4104.572	2662
4106.139	2688
4107.704	2595
4109.27	2683
4110.837	2563
4112.401	2653
4113.966	2642
4115.53	2657
4117.094	2576
4118.659	2581
4120.223	2674
4121.785	2567
4123.347	2616
4124.909	2586
4126.471	2613
4128.034	2572
4129.595	2606
4131.155	2613
4132.716	2573
4134.275	2566
4135.836	2537
4137.395	2507
4138.955	2576
4140.513	2564
4142.071	2598
4143.628	2495
4145.188	2628
4146.745	2606
4148.302	2579
4149.858	2623
4151.414	2554
4152.971	2531
4154.526	2590
4156.081	2524
4157.635	2537
4159.189	2549
4160.745	2567
4162.298	2561
4163.852	2502
4165.405	2529
4166.957	2516
4168.51	2466
4170.063	2525
4171.614	2560
4173.166	2494
4174.717	2495
4176.267	2553
4177.817	2516
4179.368	2524
4180.917	2475
4182.466	2512
4184.016	2430
4185.564	2481
4187.112	2468
4188.66	2464
4190.207	2524
4191.754	2441
4193.301	2483
4194.848	2447
4196.394	2476
4197.94	2459
4199.484	2442
4201.03	2472
4202.575	2390
4204.12	2454
4205.663	2457
4207.207	2422
4208.75	2469
4210.292	2424
4211.836	2471
4213.378	2395
4214.92	2443
4216.46	2422
4218.002	2477
4219.544	2421
4221.083	2431
4222.625	2410
4224.164	2467
4225.703	2465
4227.244	2410
4228.782	2470
4230.32	2419
4231.857	2438
4233.395	2459
4234.933	2363
4236.471	2360
4238.007	2402
4239.542	2322
4241.078	2361
4242.614	2401
4244.15	2425
4245.685	2321
4247.219	2449
4248.753	2407
4250.287	2387
4251.82	2411
4253.354	2403
4254.887	2385
4256.419	2356
4257.951	2317
4259.483	2383
4261.016	2412
4262.547	2401
4264.078	2393
4265.608	2346
4267.137	2378
4268.668	2359
4270.197	2425
4271.727	2328
4273.254	2403
4274.783	2371
4276.311	2418
4277.84	2379
4279.366	2322
4280.894	2295
4282.42	2399
4283.946	2313
4285.473	2291
4286.998	2296
4288.523	2372
4290.047	2344
4291.572	2303
4293.096	2350
4294.622	2338
4296.144	2326
4297.668	2294
4299.19	2351
4300.713	2313
4302.236	2306
4303.758	2302
4305.279	2319
4306.799	2289
4308.321	2302
4309.842	2337
4311.361	2302
4312.882	2242
4314.401	2268
