400.0961	7688
402.6185	7594
405.1424	7598
407.6635	7554
410.1838	7640
412.7035	7757
415.2225	7645
417.7388	7842
420.2585	7868
422.7754	7945
425.2917	7925
427.8072	8009
430.3221	8122
432.8363	8049
435.3498	8204
437.8626	8185
440.3727	8238
442.8841	8098
445.3969	8064
447.907	8346
450.4142	8139
452.9229	8119
455.4289	8135
457.9362	8256
460.4449	8167
462.9488	8049
465.454	8152
467.9566	8038
470.4604	8232
472.9637	8197
475.4662	8202
477.966	8311
480.4671	8211
482.9656	8174
485.4633	8286
487.9645	8305
490.4608	8485
492.9566	8410
495.4536	8377
497.948	8479
500.4437	8454
502.9387	8481
505.431	8339
507.9226	8412
510.4136	8622
512.9079	8468
515.3975	8573
517.8864	8573
520.3746	8550
522.8622	8530
525.3491	8611
527.8394	8513
530.3249	8652
532.8098	8577
535.2939	8736
537.7774	8733
540.2623	8586
542.7444	8688
545.2259	8612
547.7067	8601
550.1868	8665
552.6683	8583
555.147	8550
557.6231	8704
560.1005	8692
562.5773	8714
565.0534	8701
567.5308	8821
570.0056	8640
572.4776	8763
574.951	8698
577.4237	8784
579.8978	8982
582.3671	8964
584.8378	8945
587.3079	8895
589.7773	8847
592.244	8947
594.714	8949
597.1793	8985
599.6461	9001
602.1121	8958
604.5754	8907
607.0421	9043
609.5042	8753
611.9675	8957
614.4282	8767
616.8902	8962
619.3515	8854
621.8122	8881
624.2702	9096
626.7296	8897
629.1863	8910
631.6423	8970
634.1017	8931
636.5563	9045
639.0104	8901
641.4658	8932
643.9185	9016
646.3725	8913
648.8239	8985
651.2766	8991
653.7266	9061
656.176	9034
658.6247	9094
661.0748	9064
663.5242	9093
665.9709	9109
668.417	8998
670.8624	9216
673.3092	9226
675.7533	9322
678.1968	9428
680.6395	9314
683.0817	9228
685.5251	9181
687.9659	9354
690.4061	9197
692.8456	9264
695.2844	9222
697.7226	9416
700.1621	9420
702.599	9377
705.0332	9354
707.4688	9367
709.9036	9575
712.3399	9490
714.7735	9485
717.2044	9436
719.6367	9577
722.0683	9533
724.4993	9626
726.9296	9526
729.3593	9716
731.7883	9545
734.2147	9652
736.6423	9695
739.0714	9833
741.4958	9577
743.9216	9886
746.3447	9668
748.7691	9770
751.1929	9828
753.616	9733
756.0366	9870
758.4584	9898
760.8776	9992
763.2982	9976
765.718	10025
768.1373	9821
770.5539	9950
772.9698	9996
775.3871	10078
777.8038	9920
780.2178	10024
782.6332	9880
785.0459	10073
787.458	10082
789.8714	9930
792.2842	9985
794.6943	10032
797.1038	10095
799.5127	9908
801.9209	9956
804.3324	10088
806.7393	10143
809.1456	10034
811.5513	10067
813.9562	10172
816.3625	10096
818.7663	10268
821.1693	10247
823.5718	10151
825.9735	10159
828.3746	10141
830.7771	10183
833.177	10215
835.5762	10186
837.9747	10178
840.3727	10261
842.772	10270
845.1666	10232
847.5626	10267
849.958	10393
852.3527	10286
854.7488	10306
857.1403	10418
859.5331	10393
861.9253	10293
864.3168	10211
866.7057	10214
869.098	10314
871.4876	10120
873.8746	10239
876.263	10348
878.6487	10212
881.0378	10404
883.4243	10195
885.8081	10200
888.1933	10259
890.5759	10283
892.9598	10237
895.343	10421
897.7256	10275
900.1057	10198
902.4871	10327
904.8659	10307
907.246	10279
909.6254	10409
912.0023	10412
914.3786	10597
916.7562	10678
919.1331	10663
921.5074	10777
923.8831	10824
926.2562	10691
928.6287	10800
931.0005	10894
933.3757	10942
935.7462	10718
938.1162	10791
940.4855	10890
942.8542	10907
945.2242	11013
947.5916	11126
949.9584	11163
952.3266	11375
954.6921	11732
957.0571	11978
959.4233	12129
961.787	12578
964.15	12311
966.5125	12161
968.8742	11968
971.2354	11575
973.5959	11128
975.9559	10984
978.3151	10789
980.6738	10831
983.0338	10596
985.3912	10761
987.7461	10627
990.1022	10662
992.4578	10556
994.8127	10645
997.1689	10684
999.5207	10540
1001.874	10655
1004.226	10840
1006.576	10681
1008.929	10715
1011.28	10757
1013.628	10681
1015.977	10678
1018.324	10592
1020.674	10785
1023.019	10664
1025.366	10692
1027.713	10778
1030.056	10737
1032.399	10797
1034.746	10814
1037.087	10914
1039.431	10720
1041.771	10811
1044.113	10843
1046.454	10927
1048.793	10840
1051.133	10772
1053.471	10718
1055.807	11087
1058.146	10956
1060.483	10902
1062.818	11077
1065.153	11011
1067.489	11014
1069.822	10996
1072.156	10850
1074.488	11084
1076.82	11062
1079.15	11013
1081.48	11042
1083.814	10933
1086.143	10987
1088.471	10979
1090.799	10832
1093.126	10805
1095.452	10874
1097.78	10730
1100.105	10823
1102.43	10930
1104.754	10833
1107.077	10906
1109.4	10966
1111.722	11020
1114.044	10937
1116.365	10855
1118.685	10918
1121.005	10962
1123.324	10886
1125.643	10881
1127.961	11081
1130.278	11010
1132.595	10940
1134.911	11094
1137.226	10955
1139.541	10896
1141.854	11123
1144.167	10937
1146.482	11059
1148.793	10965
1151.105	11037
1153.414	11057
1155.725	10843
1158.033	10950
1160.344	10973
1162.651	11116
1164.959	10975
1167.265	10973
1169.572	10894
1171.878	11054
1174.184	10999
1176.488	11245
1178.79	11091
1181.094	10962
1183.396	11069
1185.699	10981
1188.001	11024
1190.301	10995
1192.6	11012
1194.9	11071
1197.2	11048
1199.497	10910
1201.794	11121
1204.09	11066
1206.387	11018
1208.684	11122
1210.978	10880
1213.272	11215
1215.565	11012
1217.858	10993
1220.15	11190
1222.443	11065
1224.734	10997
1227.024	11203
1229.313	10989
1231.602	11261
1233.892	11153
1236.18	11308
1238.467	11234
1240.754	11352
1243.04	11218
1245.325	11358
1247.612	11473
1249.896	11429
1252.178	11362
1254.461	11394
1256.743	11415
1259.027	11287
1261.308	11392
1263.587	11427
1265.867	11382
1268.146	11309
1270.425	11488
1272.703	11257
1274.981	11556
1277.256	11393
1279.532	11448
1281.808	11361
1284.083	11388
1286.358	11235
1288.63	11267
1290.904	11307
1293.175	11342
1295.449	11363
1297.719	11262
1299.99	11234
1302.259	11124
1304.529	11215
1306.798	11283
1309.065	11322
1311.333	11183
1313.599	11310
1315.866	11170
1318.131	11132
1320.396	11224
1322.66	11272
1324.925	11175
1327.187	11368
1329.448	11467
1331.711	11337
1333.974	11369
1336.234	11285
1338.493	11404
1340.752	11189
1343.01	11265
1345.269	11206
1347.526	11325
1349.784	11191
1352.04	11110
1354.295	11186
1356.552	11297
1358.806	11224
1361.059	11139
1363.312	11203
1365.564	11245
1367.818	11258
1370.069	11187
1372.318	11283
1374.568	11335
1376.817	11302
1379.066	11412
1381.316	11195
1383.564	11441
1385.809	11401
1388.056	11325
1390.301	11564
1392.549	11498
1394.793	11501
1397.036	11504
1399.279	11511
1401.522	11674
1403.763	11611
1406.007	11791
1408.248	11598
1410.487	11597
1412.727	11487
1414.965	11690
1417.205	11725
1419.442	11615
1421.68	11676
1423.915	11564
1426.152	11600
1428.388	11596
1430.623	11634
1432.857	11633
1435.091	11628
1437.323	11635
1439.556	11648
1441.789	11837
1444.019	11901
1446.25	11793
1448.48	11695
1450.708	11694
1452.938	11842
1455.167	11735
1457.394	11850
1459.62	11865
1461.846	11845
1464.073	11840
1466.299	11697
1468.523	11747
1470.746	11456
1472.969	11501
1475.191	11471
1477.415	11492
1479.636	11558
1481.858	11513
1484.078	11486
1486.298	11566
1488.518	11476
1490.736	11404
1492.954	11179
1495.169	11359
1497.386	11268
1499.602	11257
1501.819	11314
1504.034	11233
1506.248	11370
1508.462	11254
1510.675	11140
1512.888	11293
1515.1	11418
1517.311	11197
1519.522	11165
1521.732	11179
1523.942	11201
1526.151	11057
1528.36	11179
1530.566	11134
1532.773	11342
1534.98	11129
1537.187	11420
1539.392	11347
1541.596	11279
1543.801	11287
1546.005	11290
1548.208	11306
1550.411	11289
1552.612	11411
1554.814	11372
1557.013	11438
1559.212	11572
1561.414	11389
1563.612	11503
1565.811	11535
1568.007	11589
1570.203	11553
1572.403	11529
1574.598	11465
1576.792	11443
1578.988	11546
1581.181	11533
1583.376	11597
1585.568	11591
1587.761	11484
1589.952	11554
1592.143	11535
1594.333	11681
1596.524	11517
1598.715	11732
1600.903	11717
1603.091	11529
1605.278	11781
1607.466	11686
1609.652	11722
1611.838	11757
1614.023	11611
1616.207	11757
1618.391	11694
1620.576	11540
1622.759	11626
1624.941	11724
1627.123	11599
1629.304	11776
1631.484	11602
1633.664	11675
1635.844	11652
1638.022	11754
1640.201	11632
1642.38	11807
1644.556	11662
1646.732	11806
1648.908	11715
1651.084	11740
1653.257	11833
1655.433	11945
1657.607	11790
1659.779	11887
1661.951	11656
1664.122	11849
1666.295	11795
1668.467	11860
1670.635	11975
1672.805	11776
1674.973	11861
1677.142	11853
1679.31	11795
1681.478	11675
1683.644	11798
1685.81	11695
1687.975	11647
1690.142	11909
1692.305	11749
1694.468	11790
1696.632	11505
1698.794	11616
1700.957	11739
1703.119	11716
1705.279	11643
1707.439	11657
1709.598	11511
1711.758	11564
1713.917	11499
1716.075	11476
1718.231	11595
1720.388	11574
1722.543	11588
1724.702	11603
1726.856	11492
1729.01	11629
1731.164	11545
1733.317	11413
1735.471	11412
1737.623	11583
1739.774	11729
1741.925	11691
1744.075	11587
1746.225	11567
1748.376	11631
1750.524	11755
1752.672	11582
1754.82	11594
1756.965	11535
1759.113	11717
1761.259	11649
1763.405	11587
1765.549	11737
1767.694	11606
1769.836	11757
1771.981	11692
1774.123	11690
1776.264	11494
1778.405	11570
1780.546	11658
1782.687	11643
1784.827	11690
1786.966	11767
1789.103	11606
1791.242	11783
1793.381	11707
1795.517	11749
1797.653	11682
1799.788	11754
1801.923	11621
1804.057	11774
1806.193	11623
1808.326	11693
1810.457	11621
1812.59	11682
1814.721	11753
1816.855	11513
1818.984	11715
1821.113	11637
1823.244	11599
1825.372	11625
1827.499	11559
1829.63	11566
1831.756	11667
1833.882	11540
1836.007	11579
1838.132	11437
1840.26	11712
1842.384	11553
1844.507	11485
1846.63	11532
1848.752	11660
1850.875	11570
1852.996	11584
1855.118	11544
1857.238	11589
1859.358	11563
1861.477	11693
1863.597	11610
1865.715	11648
1867.832	11554
1869.948	11663
1872.064	11552
1874.181	11554
1876.297	11441
1878.411	11521
1880.526	11466
1882.639	11618
1884.752	11638
1886.865	11639
1888.977	11471
1891.089	11483
1893.2	11545
1895.308	11562
1897.42	11493
1899.53	11614
1901.639	11678
1903.745	11411
1905.853	11659
1907.962	11512
1910.067	11659
1912.174	11709
1914.278	11807
1916.383	11554
1918.486	11544
1920.592	11641
1922.694	11821
1924.797	11650
1926.898	11686
1929	11799
1931.102	11660
1933.203	11768
1935.301	11786
1937.401	11660
1939.499	11751
1941.598	11743
1943.697	11670
1945.793	11640
1947.888	11814
1949.985	11804
1952.08	11724
1954.176	11553
1956.269	11761
1958.364	11689
1960.457	11769
1962.549	11676
1964.642	11614
1966.733	11747
1968.823	11567
1970.913	11679
1973.005	11445
1975.093	11601
1977.184	11767
1979.271	11757
1981.359	11761
1983.446	11730
1985.532	11696
1987.619	11620
1989.705	11484
1991.789	11345
1993.874	11739
1995.956	11504
1998.041	11531
2000.123	11509
2002.206	11555
2004.287	11472
2006.368	11633
2008.449	11608
2010.529	11545
2012.609	11418
2014.688	11498
2016.766	11489
2018.843	11570
2020.922	11388
2022.999	11625
2025.074	11416
2027.15	11475
2029.225	11559
2031.299	11582
2033.375	11667
2035.447	11437
2037.52	11370
2039.592	11571
2041.664	11389
2043.736	11453
2045.807	11533
2047.876	11427
2049.947	11493
2052.015	11504
2054.086	11653
2056.153	11469
2058.221	11616
2060.288	11328
2062.353	11379
2064.42	11578
2066.486	11424
2068.55	11623
2070.614	11495
2072.678	11431
2074.741	11525
2076.805	11505
2078.866	11450
2080.929	11466
2082.99	11285
2085.049	11508
2087.109	11555
2089.17	11524
2091.228	11328
2093.286	11445
2095.344	11540
2097.4	11482
2099.46	11520
2101.516	11418
2103.572	11533
2105.626	11440
2107.679	11464
2109.735	11308
2111.788	11484
2113.841	11493
2115.894	11435
2117.945	11463
2119.997	11338
2122.049	11568
2124.1	11444
2126.148	11434
2128.197	11438
2130.246	11516
2132.296	11381
2134.342	11338
2136.39	11326
2138.437	11445
2140.483	11437
2142.527	11094
2144.574	11429
2146.619	11452
2148.661	11489
2150.705	11269
2152.747	11472
2154.792	11354
2156.832	11289
2158.874	11358
2160.915	11354
2162.954	11470
2164.995	11318
2167.034	11369
2169.072	11241
2171.111	11373
2173.148	11248
2175.186	11381
2177.223	11133
2179.258	11181
2181.294	11405
2183.328	11106
2185.362	11294
2187.398	11097
2189.431	11062
2191.463	11186
2193.495	11296
2195.528	11244
2197.56	11156
2199.59	11237
2201.62	11013
2203.649	10946
2205.678	11150
2207.708	11226
2209.737	11205
2211.764	11088
2213.791	11033
2215.817	10883
2217.843	11142
2219.87	11068
2221.895	11005
2223.919	11000
2225.942	11180
2227.966	11189
2229.988	11067
2232.012	10923
2234.032	11051
2236.054	10959
2238.074	11021
2240.095	11094
2242.116	11069
2244.135	11054
2246.153	10942
2248.171	11020
2250.188	10908
2252.208	10968
2254.223	11007
2256.239	11163
2258.255	11024
2260.269	11026
2262.283	11212
2264.3	11041
2266.312	11060
2268.325	11088
2270.336	11063
2272.349	11003
2274.362	11061
2276.372	10965
2278.383	10906
2280.392	11044
2282.402	10921
2284.409	11017
2286.418	11079
2288.427	10953
2290.433	10961
2292.441	11007
2294.446	10947
2296.453	10796
2298.459	11028
2300.463	10851
2302.466	10959
2304.471	10897
2306.475	10921
2308.477	10871
2310.478	10942
2312.481	10825
2314.481	10907
2316.481	10903
2318.482	10854
2320.482	10838
2322.48	10862
2324.48	10887
2326.478	10917
2328.476	10845
2330.473	10814
2332.469	10893
2334.465	10975
2336.46	10689
2338.454	10841
2340.45	10909
2342.444	10752
2344.437	10781
2346.43	10740
2348.421	10813
2350.414	10637
2352.405	10763
2354.396	10729
2356.386	10698
2358.376	10711
2360.366	10810
2362.355	10634
2364.343	10651
2366.331	10686
2368.317	10765
2370.304	10760
2372.292	10555
2374.278	10687
2376.262	10740
2378.247	10587
2380.23	10771
2382.216	10691
2384.199	10614
2386.181	10668
2388.163	10735
2390.144	10576
2392.127	10546
2394.107	10663
2396.087	10528
2398.066	10544
2400.046	10551
2402.023	10435
2404.004	10478
2405.981	10540
2407.957	10630
2409.934	10571
2411.91	10417
2413.886	10714
2415.862	10658
2417.836	10447
2419.809	10606
2421.784	10421
2423.756	10527
2425.73	10559
2427.701	10503
2429.672	10523
2431.644	10627
2433.615	10343
2435.586	10597
2437.555	10555
2439.523	10513
2441.491	10323
2443.459	10594
2445.428	10395
2447.395	10397
2449.361	10577
2451.327	10474
2453.292	10406
2455.257	10400
2457.223	10346
2459.187	10319
2461.15	10454
2463.113	10468
2465.076	10321
2467.039	10449
2468.999	10472
2470.96	10287
2472.921	10347
2474.881	10493
2476.841	10244
2478.8	10456
2480.759	10363
2482.717	10282
2484.675	10365
2486.63	10264
2488.589	10290
2490.545	10286
2492.5	10328
2494.455	10259
2496.408	10216
2498.364	10368
2500.318	10149
2502.27	10209
2504.223	10314
2506.174	10218
2508.126	10263
2510.078	10214
2512.03	10458
2513.979	10388
2515.927	10308
2517.877	10201
2519.826	10150
2521.775	10051
2523.722	10123
2525.668	10206
2527.616	10244
2529.561	10382
2531.508	10279
2533.452	10334
2535.398	10275
2537.342	10041
2539.284	10194
2541.229	10225
2543.173	10307
2545.114	10301
2547.055	10133
2548.996	10195
2550.938	10103
2552.878	10139
2554.817	10145
2556.756	10227
2558.695	10113
2560.633	10282
2562.572	10098
2564.509	10071
2566.445	10234
2568.382	10004
2570.317	10147
2572.254	10229
2574.189	10194
2576.123	10215
2578.057	10246
2579.99	10146
2581.923	10272
2583.855	10077
2585.788	10278
2587.719	10193
2589.65	10276
2591.579	10153
2593.511	10229
2595.44	10098
2597.37	10109
2599.297	10165
2601.225	10250
2603.153	9986
2605.08	10034
2607.007	10191
2608.932	10149
2610.858	10342
2612.782	10288
2614.709	10033
2616.632	10101
2618.556	10091
2620.478	10222
2622.401	10189
2624.324	10092
2626.247	10072
2628.167	10162
2630.088	10050
2632.008	10217
2633.928	10366
2635.848	10166
2637.766	10291
2639.684	10148
2641.603	10205
2643.519	10191
2645.437	10156
2647.353	10295
2649.27	10082
2651.184	10143
2653.099	10183
2655.014	10074
2656.928	10219
2658.842	10129
2660.755	10068
2662.667	10085
2664.579	10115
2666.491	10153
2668.402	10109
2670.312	10194
2672.222	9925
2674.132	10139
2676.042	10121
2677.951	10006
2679.859	10154
2681.766	10078
2683.674	9942
2685.582	10060
2687.488	9893
2689.392	10063
2691.298	9990
2693.202	9895
2695.107	9862
2697.012	9915
2698.914	9989
2700.817	9785
2702.72	9853
2704.622	9938
2706.524	9871
2708.425	9910
2710.326	9870
2712.225	9973
2714.125	9908
2716.024	10068
2717.923	9858
2719.822	9919
2721.719	9882
2723.616	9731
2725.512	9862
2727.41	9874
2729.305	9736
2731.201	9881
2733.095	9704
2734.99	9857
2736.884	9672
2738.778	9854
2740.67	9873
2742.562	9709
2744.455	9864
2746.346	9750
2748.238	9720
2750.129	9800
2752.018	9798
2753.907	9697
2755.797	9845
2757.687	9841
2759.575	9702
2761.462	9677
2763.349	9676
2765.237	9786
2767.124	9869
2769.009	9700
2770.894	9737
2772.779	9691
2774.663	9637
2776.547	9647
2778.431	9709
2780.314	9644
2782.197	9764
2784.078	9692
2785.96	9720
2787.842	9572
2789.723	9758
2791.603	9695
2793.483	9680
2795.362	9636
2797.241	9575
2799.121	9707
2800.997	9509
2802.874	9633
2804.751	9569
2806.628	9522
2808.506	9658
2810.38	9554
2812.255	9521
2814.13	9592
2816.003	9602
2817.878	9459
2819.752	9599
2821.623	9697
2823.496	9498
2825.368	9604
2827.238	9606
2829.111	9608
2830.98	9590
2832.851	9562
2834.719	9376
2836.589	9627
2838.458	9636
2840.327	9505
2842.193	9564
2844.061	9662
2845.927	9525
2847.794	9577
2849.66	9699
2851.525	9589
2853.39	9594
2855.254	9665
2857.117	9522
2858.983	9711
2860.845	9618
2862.707	9724
2864.569	9884
2866.431	9767
2868.293	9731
2870.154	9844
2872.013	9971
2873.873	9921
2875.733	9981
2877.592	9908
2879.451	10159
2881.309	10078
2883.166	10082
2885.022	10182
2886.879	10270
2888.736	10182
2890.591	10348
2892.446	10184
2894.301	10233
2896.155	10293
2898.009	10197
2899.863	10143
2901.716	10039
2903.568	10170
2905.419	10097
2907.27	10187
2909.123	10383
2910.973	10348
2912.824	10208
2914.673	10480
2916.521	10336
2918.372	10393
2920.22	10370
2922.067	10447
2923.914	10589
2925.761	10566
2927.607	10664
2929.455	10690
2931.301	10832
2933.144	10728
2934.99	10833
2936.833	10918
2938.678	10851
2940.522	10943
2942.364	11118
2944.207	11076
2946.048	11208
2947.891	11400
2949.731	11361
2951.571	11267
2953.412	11274
2955.25	11031
2957.09	11107
2958.93	10938
2960.767	10836
2962.606	10692
2964.443	10687
2966.279	10750
2968.116	10592
2969.953	10543
2971.788	10485
2973.623	10381
2975.457	10368
2977.292	10277
2979.127	10173
2980.959	10118
2982.792	10138
2984.624	10192
2986.455	10034
2988.288	9994
2990.119	9958
2991.949	9832
2993.779	9932
2995.608	9952
2997.439	9744
2999.268	9737
3001.096	9687
3002.923	9549
3004.751	9503
3006.578	9514
3008.406	9495
3010.232	9382
3012.057	9391
3013.883	9334
3015.706	9178
3017.532	9356
3019.356	9248
3021.179	9097
3023.002	9178
3024.823	8973
3026.646	9039
3028.469	8986
3030.289	9029
3032.11	8957
3033.93	8989
3035.749	9033
3037.57	9008
3039.39	8993
3041.207	8832
3043.026	8883
3044.842	9088
3046.661	8989
3048.477	9013
3050.294	8894
3052.109	8966
3053.925	8923
3055.739	8977
3057.555	8972
3059.368	8921
3061.181	8906
3062.995	8990
3064.807	8910
3066.62	8913
3068.433	8940
3070.243	8767
3072.054	8715
3073.865	8760
3075.675	8805
3077.485	8857
3079.293	8828
3081.102	8871
3082.911	8700
3084.719	8704
3086.527	8720
3088.333	8665
3090.139	8720
3091.945	8611
3093.75	8683
3095.557	8688
3097.361	8657
3099.165	8717
3100.969	8529
3102.772	8648
3104.575	8613
3106.379	8655
3108.181	8547
3109.982	8447
3111.783	8428
3113.584	8583
3115.386	8429
3117.186	8670
3118.985	8563
3120.783	8509
3122.582	8517
3124.381	8465
3126.179	8356
3127.975	8560
3129.772	8495
3131.569	8446
3133.365	8470
3135.161	8587
3136.956	8483
3138.751	8411
3140.544	8415
3142.338	8321
3144.132	8231
3145.925	8318
3147.717	8399
3149.509	8329
3151.301	8291
3153.091	8316
3154.884	8295
3156.673	8451
3158.462	8314
3160.252	8265
3162.041	8287
3163.831	8348
3165.618	8262
3167.405	8321
3169.193	8211
3170.979	8260
3172.767	8175
3174.553	8367
3176.338	8307
3178.123	8373
3179.907	8239
3181.692	8205
3183.477	8264
3185.259	8176
3187.042	8126
3188.824	8100
3190.607	8157
3192.389	8251
3194.17	8156
3195.951	8214
3197.73	8135
3199.51	8056
3201.289	8288
3203.07	8173
3204.848	8179
3206.626	8168
3208.403	8096
3210.18	8147
3211.959	8052
3213.735	8058
3215.511	8113
3217.285	8002
3219.06	8051
3220.836	8100
3222.611	8060
3224.384	8066
3226.158	8235
3227.929	8178
3229.702	7940
3231.476	8094
3233.248	8092
3235.018	8120
3236.789	8074
3238.56	8052
3240.33	8085
3242.1	8100
3243.869	8126
3245.637	8116
3247.405	8176
3249.172	8203
3250.941	8072
3252.707	8037
3254.474	8070
3256.24	8053
3258.006	8140
3259.772	7970
3261.537	7939
3263.301	7948
3265.065	8052
3266.828	8002
3268.592	8038
3270.355	8117
3272.117	8067
3273.878	8108
3275.64	8052
3277.401	8105
3279.162	8231
3280.922	8071
3282.682	8094
3284.441	8027
3286.199	8036
3287.959	8023
3289.716	8014
3291.475	8028
3293.232	7951
3294.988	7957
3296.744	8070
3298.501	8031
3300.256	7967
3302.011	7886
3303.766	8040
3305.52	8110
3307.275	7861
3309.028	7849
3310.781	8045
3312.533	7910
3314.285	7972
3316.038	8045
3317.789	7891
3319.54	8022
3321.289	8014
3323.039	7959
3324.789	8028
3326.539	7949
3328.288	7936
3330.035	8023
3331.783	7840
3333.531	7836
3335.28	7790
3337.025	7873
3338.771	7947
3340.518	7786
3342.262	7737
3344.009	7724
3345.753	7930
3347.497	7833
3349.24	7713
3350.983	7865
3352.726	7733
3354.469	7869
3356.212	7800
3357.952	7769
3359.694	7789
3361.434	7749
3363.176	7687
3364.916	7829
3366.654	7759
3368.394	7702
3370.132	7695
3371.871	7619
3373.61	7698
3375.346	7809
3377.083	7622
3378.82	7606
3380.556	7664
3382.292	7625
3384.027	7710
3385.763	7512
3387.497	7617
3389.231	7719
3390.965	7658
3392.698	7554
3394.431	7702
3396.164	7673
3397.896	7632
3399.627	7660
3401.36	7496
3403.09	7584
3404.82	7498
3406.55	7591
3408.279	7601
3410.01	7423
3411.738	7556
3413.467	7505
3415.194	7546
3416.92	7512
3418.647	7712
3420.375	7526
3422.102	7529
3423.827	7422
3425.553	7581
3427.277	7427
3429.003	7389
3430.727	7415
3432.451	7508
3434.173	7489
3435.896	7517
3437.62	7315
3439.343	7411
3441.063	7450
3442.785	7482
3444.505	7428
3446.226	7345
3447.948	7247
3449.666	7268
3451.386	7299
3453.104	7333
3454.823	7387
3456.541	7303
3458.259	7273
3459.976	7231
3461.693	7331
3463.408	7391
3465.125	7248
3466.841	7195
3468.556	7312
3470.271	7226
3471.985	7200
3473.698	7171
3475.414	7224
3477.126	7209
3478.838	7263
3480.55	7096
3482.263	7145
3483.975	7036
3485.686	7162
3487.396	7138
3489.106	7127
3490.817	7085
3492.526	7093
3494.236	6982
3495.944	7101
3497.652	6981
3499.359	7080
3501.066	6941
3502.775	6994
3504.481	7064
3506.187	7052
3507.893	7025
3509.598	6994
3511.304	6974
3513.009	6920
3514.713	6988
3516.417	6933
3518.12	6991
3519.821	7037
3521.525	6797
3523.228	6938
3524.929	7019
3526.631	6916
3528.33	6955
3530.032	6957
3531.733	6791
3533.433	6994
3535.131	6858
3536.83	6812
3538.529	6792
3540.227	6905
3541.925	6872
3543.623	6835
3545.319	6818
3547.016	6764
3548.712	6911
3550.408	6701
3552.103	6793
3553.798	6827
3555.491	6739
3557.188	6727
3558.88	6885
3560.574	6703
3562.266	6741
3563.959	6856
3565.651	6866
3567.343	6716
3569.035	6717
3570.725	6799
3572.415	6616
3574.106	6712
3575.797	6733
3577.485	6724
3579.174	6636
3580.863	6729
3582.551	6679
3584.238	6688
3585.926	6601
3587.613	6556
3589.3	6592
3590.986	6562
3592.671	6585
3594.357	6671
3596.042	6669
3597.726	6544
3599.41	6389
3601.094	6541
3602.778	6511
3604.461	6544
3606.143	6459
3607.825	6444
3609.507	6533
3611.188	6497
3612.87	6551
3614.551	6373
3616.229	6483
3617.909	6387
3619.589	6462
3621.269	6358
3622.948	6553
3624.625	6343
3626.302	6270
3627.98	6323
3629.657	6356
3631.334	6370
3633.01	6391
3634.686	6366
3636.361	6303
3638.036	6152
3639.712	6373
3641.385	6305
3643.06	6312
3644.732	6386
3646.405	6352
3648.08	6272
3649.751	6355
3651.424	6299
3653.094	6218
3654.766	6234
3656.436	6425
3658.106	6259
3659.777	6200
3661.446	6304
3663.115	6212
3664.783	6232
3666.452	6247
3668.121	6149
3669.788	6169
3671.454	6197
3673.121	6087
3674.789	6152
3676.455	6095
3678.12	6177
3679.784	6243
3681.45	6195
3683.114	6071
3684.779	6107
3686.442	6053
3688.105	6131
3689.768	6134
3691.43	6150
3693.093	6037
3694.754	6069
3696.415	6072
3698.076	6123
3699.736	6138
3701.396	6116
3703.057	6101
3704.716	6006
3706.375	6097
3708.034	6137
3709.692	6077
3711.351	6068
3713.008	6002
3714.665	6142
3716.321	6002
3717.977	5956
3719.634	6049
3721.29	5918
3722.945	5873
3724.598	5939
3726.253	6070
3727.907	5802
3729.561	5990
3731.214	5886
3732.867	5895
3734.518	5980
3736.171	5840
3737.824	5924
3739.474	5990
3741.125	5901
3742.775	5995
3744.425	6021
3746.074	5822
3747.725	5949
3749.373	5959
3751.022	5880
3752.669	5949
3754.318	5853
3755.966	5763
3757.612	5902
3759.259	5918
3760.905	5888
3762.55	5876
3764.197	5783
3765.842	5958
3767.486	5777
3769.131	5871
3770.774	5777
3772.417	5765
3774.061	5895
3775.705	5830
3777.347	5797
3778.988	5645
3780.629	5751
3782.271	5680
3783.912	5743
3785.552	5735
3787.192	5908
3788.831	5755
3790.472	5648
3792.112	5646
3793.75	5681
3795.388	5730
3797.024	5732
3798.661	5789
3800.3	5660
3801.936	5679
3803.572	5704
3805.208	5720
3806.844	5731
3808.48	5690
3810.115	5643
3811.748	5647
3813.382	5637
3815.016	5603
3816.649	5646
3818.283	5681
3819.914	5610
3821.547	5595
3823.178	5711
3824.809	5547
3826.441	5630
3828.072	5659
3829.701	5558
3831.331	5527
3832.96	5534
3834.591	5571
3836.219	5599
3837.847	5438
3839.475	5483
3841.102	5574
3842.729	5521
3844.357	5560
3845.984	5472
3847.609	5527
3849.234	5496
3850.86	5495
3852.485	5440
3854.11	5470
3855.734	5500
3857.357	5411
3858.981	5560
3860.603	5429
3862.227	5539
3863.848	5426
3865.471	5538
3867.092	5422
3868.713	5501
3870.334	5378
3871.954	5554
3873.575	5344
3875.194	5294
3876.813	5437
3878.433	5311
3880.051	5412
3881.669	5332
3883.286	5434
3884.904	5350
3886.52	5459
3888.138	5463
3889.754	5526
3891.37	5473
3892.985	5401
3894.6	5281
3896.216	5403
3897.831	5352
3899.444	5314
3901.058	5368
3902.67	5369
3904.283	5329
3905.897	5365
3907.509	5392
3909.121	5295
3910.731	5321
3912.342	5367
3913.954	5381
3915.563	5367
3917.174	5347
3918.783	5316
3920.391	5279
3922.002	5228
3923.611	5326
3925.218	5297
3926.826	5275
3928.432	5349
3930.039	5238
3931.647	5385
3933.253	5236
3934.859	5293
3936.464	5194
3938.068	5320
3939.675	5439
3941.278	5273
3942.883	5204
3944.486	5307
3946.089	5279
3947.692	5236
3949.295	5217
3950.898	5198
3952.499	5251
3954.1	5183
3955.7	5222
3957.303	5105
3958.903	5127
3960.502	5107
3962.101	5131
3963.7	5181
3965.301	5259
3966.899	5189
3968.497	5131
3970.094	5129
3971.691	5141
3973.288	5078
3974.885	5111
3976.481	5015
3978.077	5131
3979.672	5060
3981.267	5048
3982.863	5108
3984.457	5015
3986.051	5067
3987.645	5091
3989.238	5036
3990.831	5117
3992.425	4940
3994.017	5025
3995.607	5010
3997.199	5008
3998.79	4995
4000.382	5006
4001.973	4974
4003.561	5025
4005.151	4978
4006.741	5020
4008.331	4950
4009.918	4976
4011.507	4957
4013.095	4822
4014.681	4807
4016.269	4875
4017.856	4992
4019.443	4984
4021.028	4859
4022.614	4858
4024.199	4826
4025.785	4803
4027.37	4800
4028.953	4931
4030.536	4848
4032.12	4780
4033.704	4813
4035.287	4904
4036.869	4904
4038.45	4840
4040.032	4867
4041.613	4727
4043.195	4807
4044.776	4810
4046.356	4754
4047.935	4769
4049.515	4724
4051.095	4793
4052.674	4829
4054.251	4909
4055.829	4812
4057.406	4690
4058.985	4801
4060.562	4817
4062.139	4824
4063.715	4815
4065.29	4776
4066.865	4757
4068.442	4866
4070.016	4785
4071.59	4765
4073.164	4732
4074.738	4706
4076.312	4699
4077.885	4732
4079.458	4632
4081.03	4692
4082.602	4744
4084.173	4688
4085.745	4718
4087.315	4679
4088.886	4699
4090.456	4708
4092.026	4658
4093.596	4628
4095.165	4627
4096.734	4713
4098.301	4579
4099.869	4625
4101.437	4629
4103.006	4602
4104.572	4518
4106.139	4546
4107.704	4612
4109.27	4494
4110.837	4552
4112.401	4606
4113.966	4560
4115.53	4559
4117.094	4616
4118.659	4667
4120.223	4532
4121.785	4509
4123.347	4567
4124.909	4611
4126.471	4533
4128.034	4559
4129.595	4468
4131.155	4415
4132.716	4466
4134.275	4392
4135.836	4461
4137.395	4496
4138.955	4576
4140.513	4533
4142.071	4456
4143.628	4508
4145.188	4443
4146.745	4454
4148.302	4385
4149.858	4350
4151.414	4410
4152.971	4439
4154.526	4441
4156.081	4424
4157.635	4311
4159.189	4418
4160.745	4282
4162.298	4388
4163.852	4468
4165.405	4428
4166.957	4470
4168.51	4357
4170.063	4309
4171.614	4390
4173.166	4362
4174.717	4322
4176.267	4439
4177.817	4304
4179.368	4274
4180.917	4210
4182.466	4238
4184.016	4338
4185.564	4388
4187.112	4310
4188.66	4427
4190.207	4265
4191.754	4274
4193.301	4234
4194.848	4362
4196.394	4248
4197.94	4142
4199.484	4321
4201.03	4316
4202.575	4250
4204.12	4186
4205.663	4282
4207.207	4266
4208.75	4217
4210.292	4304
4211.836	4189
4213.378	4170
4214.92	4262
4216.46	4145
4218.002	4251
4219.544	4249
4221.083	4182
4222.625	4163
4224.164	4183
4225.703	4205
4227.244	4172
4228.782	4255
4230.32	4211
4231.857	4191
4233.395	4176
4234.933	4211
4236.471	4105
4238.007	4236
4239.542	4198
4241.078	4218
4242.614	4162
4244.15	4153
4245.685	4162
4247.219	4141
4248.753	4168
4250.287	4160
4251.82	4069
4253.354	4127
4254.887	4165
4256.419	4130
4257.951	4047
4259.483	4209
4261.016	4118
4262.547	4110
4264.078	4175
4265.608	4080
4267.137	4114
4268.668	4109
4270.197	4066
4271.727	4045
4273.254	4002
4274.783	4068
4276.311	4018
4277.84	4014
4279.366	4021
4280.894	4111
4282.42	3994
4283.946	4067
4285.473	4049
4286.998	3931
4288.523	4018
4290.047	4007
4291.572	3977
4293.096	4029
4294.622	4072
4296.144	4010
4297.668	3946
4299.19	3977
4300.713	4097
4302.236	3966
4303.758	3958
4305.279	3977
4306.799	3947
4308.321	3935
4309.842	3871
4311.361	3962
4312.882	3954
4314.401	3911
