400.0961	4287
402.6185	4218
405.1424	4290
407.6635	4279
410.1838	4273
412.7035	4339
415.2225	4385
417.7388	4402
420.2585	4509
422.7754	4590
425.2917	4621
427.8072	4578
430.3221	4601
432.8363	4629
435.3498	4717
437.8626	4616
440.3727	4609
442.8841	4585
445.3969	4566
447.907	4760
450.4142	4647
452.9229	4574
455.4289	4500
457.9362	4588
460.4449	4587
462.9488	4435
465.454	4566
467.9566	4534
470.4604	4476
472.9637	4497
475.4662	4520
477.966	4547
480.4671	4526
482.9656	4524
485.4633	4557
487.9645	4581
490.4608	4657
492.9566	4636
495.4536	4594
497.948	4578
500.4437	4755
502.9387	4640
505.431	4601
507.9226	4624
510.4136	4665
512.9079	4613
515.3975	4710
517.8864	4768
520.3746	4605
522.8622	4664
525.3491	4687
527.8394	4675
530.3249	4723
532.8098	4622
535.2939	4693
537.7774	4759
540.2623	4720
542.7444	4725
545.2259	4593
547.7067	4733
550.1868	4786
552.6683	4720
555.147	4826
557.6231	4780
560.1005	4738
562.5773	4843
565.0534	4806
567.5308	4763
570.0056	4892
572.4776	4835
574.951	4878
577.4237	4944
579.8978	4984
582.3671	4983
584.8378	4997
587.3079	5090
589.7773	5042
592.244	5029
594.714	4923
597.1793	5023
599.6461	5003
602.1121	4921
604.5754	4778
607.0421	4876
609.5042	4858
611.9675	4963
614.4282	4898
616.8902	4937
619.3515	4831
621.8122	4889
624.2702	4895
626.7296	4827
629.1863	4834
631.6423	4817
634.1017	4838
636.5563	4829
639.0104	4819
641.4658	4863
643.9185	4891
646.3725	4888
648.8239	4853
651.2766	4869
653.7266	4909
656.176	4972
658.6247	4883
661.0748	4878
663.5242	4933
665.9709	4930
668.417	4919
670.8624	5035
673.3092	5026
675.7533	4998
678.1968	5062
680.6395	5015
683.0817	5122
685.5251	5125
687.9659	5032
690.4061	5038
692.8456	5159
695.2844	5053
697.7226	5039
700.1621	5074
702.599	4986
705.0332	5042
707.4688	5164
709.9036	5133
712.3399	5173
714.7735	5056
717.2044	5123
719.6367	5121
722.0683	5174
724.4993	5158
726.9296	5162
729.3593	5189
731.7883	5189
734.2147	5183
736.6423	5215
739.0714	5307
741.4958	5204
743.9216	5272
746.3447	5234
748.7691	5393
751.1929	5385
753.616	5275
756.0366	5351
758.4584	5450
760.8776	5368
763.2982	5448
765.718	5372
768.1373	5366
770.5539	5437
772.9698	5448
775.3871	5544
777.8038	5352
780.2178	5329
782.6332	5431
785.0459	5494
787.458	5370
789.8714	5408
792.2842	5362
794.6943	5417
797.1038	5427
799.5127	5547
801.9209	5343
804.3324	5464
806.7393	5502
809.1456	5527
811.5513	5446
813.9562	5494
816.3625	5550
818.7663	5480
821.1693	5599
823.5718	5447
825.9735	5518
828.3746	5510
830.7771	5540
833.177	5659
835.5762	5509
837.9747	5515
840.3727	5541
842.772	5540
845.1666	5645
847.5626	5601
849.958	5640
852.3527	5586
854.7488	5747
857.1403	5648
859.5331	5824
861.9253	5669
864.3168	5705
866.7057	5718
869.098	5636
871.4876	5645
873.8746	5560
876.263	5611
878.6487	5600
881.0378	5699
883.4243	5678
885.8081	5692
888.1933	5569
890.5759	5565
892.9598	5584
895.343	5619
897.7256	5628
900.1057	5629
902.4871	5659
904.8659	5605
907.246	5713
909.6254	5772
912.0023	5655
914.3786	5765
916.7562	5870
919.1331	5865
921.5074	5936
923.8831	5994
926.2562	5869
928.6287	5938
931.0005	5954
933.3757	6060
935.7462	6215
938.1162	6057
940.4855	6175
942.8542	6249
945.2242	6319
947.5916	6557
949.9584	6760
952.3266	7039
954.6921	7234
957.0571	7691
959.4233	8065
961.787	8095
964.15	8022
966.5125	7914
968.8742	7302
971.2354	6931
973.5959	6611
975.9559	6367
978.3151	6304
980.6738	6059
983.0338	6062
985.3912	5935
987.7461	5982
990.1022	5942
992.4578	5964
994.8127	5917
997.1689	5907
999.5207	6019
1001.874	5990
1004.226	5945
1006.576	5921
1008.929	5833
1011.28	6077
1013.628	5857
1015.977	5851
1018.324	5965
1020.674	5911
1023.019	6041
1025.366	6034
1027.713	6031
1030.056	5952
1032.399	6065
1034.746	5926
1037.087	5883
1039.431	6046
1041.771	6011
1044.113	6059
1046.454	6012
1048.793	6128
1051.133	6105
1053.471	5982
1055.807	5991
1058.146	6058
1060.483	6063
1062.818	6105
1065.153	6225
1067.489	6261
1069.822	6174
1072.156	6206
1074.488	6255
1076.82	6139
1079.15	6253
1081.48	6297
1083.814	6185
1086.143	6032
1088.471	6005
1090.799	6002
1093.126	5936
1095.452	6044
1097.78	6101
1100.105	5975
1102.43	6113
1104.754	5996
1107.077	6073
1109.4	6118
1111.722	6009
1114.044	6030
1116.365	5946
1118.685	5991
1121.005	6131
1123.324	6024
1125.643	6027
1127.961	6081
1130.278	5982
1132.595	5988
1134.911	6060
1137.226	6030
1139.541	5979
1141.854	5992
1144.167	5944
1146.482	6060
1148.793	5958
1151.105	5931
1153.414	5952
1155.725	5863
1158.033	6023
1160.344	6073
1162.651	5952
1164.959	6056
1167.265	6131
1169.572	6109
1171.878	5967
1174.184	6005
1176.488	6022
1178.79	6071
1181.094	6083
1183.396	6065
1185.699	6059
1188.001	6011
1190.301	5933
1192.6	6001
1194.9	6021
1197.2	5934
1199.497	5998
1201.794	6016
1204.09	6117
1206.387	6041
1208.684	6112
1210.978	6136
1213.272	6102
1215.565	6057
1217.858	6051
1220.15	6080
1222.443	6028
1224.734	6119
1227.024	6129
1229.313	6123
1231.602	6109
1233.892	6164
1236.18	6330
1238.467	6234
1240.754	6164
1243.04	6272
1245.325	6213
1247.612	6406
1249.896	6263
1252.178	6314
1254.461	6354
1256.743	6368
1259.027	6323
1261.308	6351
1263.587	6270
1265.867	6366
1268.146	6354
1270.425	6306
1272.703	6258
1274.981	6304
1277.256	6328
1279.532	6309
1281.808	6180
1284.083	6297
1286.358	6332
1288.63	6261
1290.904	6225
1293.175	6145
1295.449	6235
1297.719	6267
1299.99	6234
1302.259	6095
1304.529	6166
1306.798	6272
1309.065	6263
1311.333	6177
1313.599	6081
1315.866	6195
1318.131	6183
1320.396	6113
1322.66	6291
1324.925	6200
1327.187	6245
1329.448	6247
1331.711	6184
1333.974	6292
1336.234	6213
1338.493	6297
1340.752	6239
1343.01	6172
1345.269	6164
1347.526	6146
1349.784	6129
1352.04	6223
1354.295	6309
1356.552	6186
1358.806	6323
1361.059	6115
1363.312	6105
1365.564	6195
1367.818	6120
1370.069	6237
1372.318	6322
1374.568	6141
1376.817	6358
1379.066	6254
1381.316	6180
1383.564	6317
1385.809	6331
1388.056	6323
1390.301	6368
1392.549	6288
1394.793	6310
1397.036	6328
1399.279	6401
1401.522	6444
1403.763	6363
1406.007	6398
1408.248	6419
1410.487	6449
1412.727	6524
1414.965	6386
1417.205	6430
1419.442	6412
1421.68	6489
1423.915	6523
1426.152	6424
1428.388	6477
1430.623	6459
1432.857	6391
1435.091	6446
1437.323	6497
1439.556	6500
1441.789	6611
1444.019	6561
1446.25	6555
1448.48	6597
1450.708	6706
1452.938	6541
1455.167	6649
1457.394	6583
1459.62	6681
1461.846	6653
1464.073	6537
1466.299	6602
1468.523	6496
1470.746	6488
1472.969	6545
1475.191	6527
1477.415	6416
1479.636	6284
1481.858	6403
1484.078	6332
1486.298	6359
1488.518	6220
1490.736	6376
1492.954	6189
1495.169	6181
1497.386	6258
1499.602	6327
1501.819	6231
1504.034	6272
1506.248	6203
1508.462	6181
1510.675	6265
1512.888	6277
1515.1	6127
1517.311	6237
1519.522	6237
1521.732	6190
1523.942	6281
1526.151	6170
1528.36	6185
1530.566	6267
1532.773	6189
1534.98	6166
1537.187	6263
1539.392	6223
1541.596	6269
1543.801	6247
1546.005	6248
1548.208	6284
1550.411	6171
1552.612	6318
1554.814	6343
1557.013	6146
1559.212	6377
1561.414	6392
1563.612	6390
1565.811	6439
1568.007	6439
1570.203	6481
1572.403	6458
1574.598	6320
1576.792	6344
1578.988	6341
1581.181	6451
1583.376	6377
1585.568	6467
1587.761	6419
1589.952	6342
1592.143	6463
1594.333	6328
1596.524	6520
1598.715	6554
1600.903	6375
1603.091	6446
1605.278	6419
1607.466	6403
1609.652	6468
1611.838	6422
1614.023	6515
1616.207	6569
1618.391	6466
1620.576	6525
1622.759	6491
1624.941	6308
1627.123	6531
1629.304	6532
1631.484	6569
1633.664	6591
1635.844	6589
1638.022	6638
1640.201	6576
1642.38	6472
1644.556	6545
1646.732	6529
1648.908	6533
1651.084	6705
1653.257	6595
1655.433	6664
1657.607	6567
1659.779	6651
1661.951	6551
1664.122	6765
1666.295	6729
1668.467	6632
1670.635	6729
1672.805	6716
1674.973	6650
1677.142	6621
1679.31	6548
1681.478	6664
1683.644	6634
1685.81	6692
1687.975	6522
1690.142	6576
1692.305	6495
1694.468	6565
1696.632	6490
1698.794	6554
1700.957	6442
1703.119	6384
1705.279	6435
1707.439	6558
1709.598	6574
1711.758	6459
1713.917	6552
1716.075	6458
1718.231	6383
1720.388	6496
1722.543	6309
1724.702	6406
1726.856	6405
1729.01	6472
1731.164	6399
1733.317	6377
1735.471	6469
1737.623	6512
1739.774	6460
1741.925	6422
1744.075	6526
1746.225	6404
1748.376	6468
1750.524	6456
1752.672	6521
1754.82	6525
1756.965	6478
1759.113	6544
1761.259	6584
1763.405	6495
1765.549	6485
1767.694	6341
1769.836	6541
1771.981	6393
1774.123	6519
1776.264	6470
1778.405	6486
1780.546	6374
1782.687	6377
1784.827	6445
1786.966	6474
1789.103	6494
1791.242	6554
1793.381	6604
1795.517	6506
1797.653	6470
1799.788	6505
1801.923	6545
1804.057	6547
1806.193	6406
1808.326	6527
1810.457	6490
1812.59	6506
1814.721	6521
1816.855	6450
1818.984	6480
1821.113	6487
1823.244	6521
1825.372	6468
1827.499	6495
1829.63	6414
1831.756	6571
1833.882	6472
1836.007	6366
1838.132	6529
1840.26	6566
1842.384	6416
1844.507	6359
1846.63	6467
1848.752	6310
1850.875	6488
1852.996	6437
1855.118	6370
1857.238	6425
1859.358	6429
1861.477	6518
1863.597	6531
1865.715	6384
1867.832	6501
1869.948	6450
1872.064	6411
1874.181	6438
1876.297	6487
1878.411	6405
1880.526	6443
1882.639	6436
1884.752	6362
1886.865	6543
1888.977	6524
1891.089	6489
1893.2	6471
1895.308	6508
1897.42	6475
1899.53	6477
1901.639	6615
1903.745	6463
1905.853	6448
1907.962	6551
1910.067	6539
1912.174	6372
1914.278	6598
1916.383	6438
1918.486	6564
1920.592	6601
1922.694	6493
1924.797	6468
1926.898	6552
1929	6536
1931.102	6565
1933.203	6593
1935.301	6558
1937.401	6503
1939.499	6442
1941.598	6661
1943.697	6616
1945.793	6560
1947.888	6553
1949.985	6631
1952.08	6450
1954.176	6576
1956.269	6607
1958.364	6475
1960.457	6585
1962.549	6614
1964.642	6556
1966.733	6481
1968.823	6612
1970.913	6536
1973.005	6516
1975.093	6518
1977.184	6478
1979.271	6514
1981.359	6613
1983.446	6524
1985.532	6531
1987.619	6529
1989.705	6456
1991.789	6552
1993.874	6469
1995.956	6476
1998.041	6595
2000.123	6404
2002.206	6473
2004.287	6480
2006.368	6539
2008.449	6376
2010.529	6452
2012.609	6516
2014.688	6444
2016.766	6390
2018.843	6501
2020.922	6395
2022.999	6393
2025.074	6476
2027.15	6539
2029.225	6379
2031.299	6320
2033.375	6448
2035.447	6423
2037.52	6478
2039.592	6488
2041.664	6478
2043.736	6458
2045.807	6430
2047.876	6442
2049.947	6474
2052.015	6459
2054.086	6535
2056.153	6497
2058.221	6533
2060.288	6455
2062.353	6417
2064.42	6495
2066.486	6383
2068.55	6452
2070.614	6481
2072.678	6352
2074.741	6430
2076.805	6401
2078.866	6485
2080.929	6453
2082.99	6440
2085.049	6482
2087.109	6445
2089.17	6500
2091.228	6513
2093.286	6501
2095.344	6473
2097.4	6531
2099.46	6439
2101.516	6548
2103.572	6529
2105.626	6507
2107.679	6473
2109.735	6526
2111.788	6445
2113.841	6469
2115.894	6522
2117.945	6464
2119.997	6494
2122.049	6427
2124.1	6416
2126.148	6408
2128.197	6507
2130.246	6529
2132.296	6436
2134.342	6476
2136.39	6329
2138.437	6468
2140.483	6436
2142.527	6412
2144.574	6447
2146.619	6404
2148.661	6497
2150.705	6500
2152.747	6504
2154.792	6413
2156.832	6359
2158.874	6376
2160.915	6344
2162.954	6569
2164.995	6409
2167.034	6421
2169.072	6429
2171.111	6368
2173.148	6462
2175.186	6410
2177.223	6249
2179.258	6457
2181.294	6406
2183.328	6366
2185.362	6326
2187.398	6282
2189.431	6416
2191.463	6299
2193.495	6339
2195.528	6324
2197.56	6303
2199.59	6357
2201.62	6383
2203.649	6314
2205.678	6383
2207.708	6320
2209.737	6380
2211.764	6392
2213.791	6264
2215.817	6448
2217.843	6372
2219.87	6298
2221.895	6412
2223.919	6187
2225.942	6375
2227.966	6211
2229.988	6250
2232.012	6251
2234.032	6414
2236.054	6289
2238.074	6286
2240.095	6301
2242.116	6428
2244.135	6273
2246.153	6289
2248.171	6221
2250.188	6220
2252.208	6236
2254.223	6261
2256.239	6408
2258.255	6245
2260.269	6289
2262.283	6212
2264.3	6217
2266.312	6295
2268.325	6357
2270.336	6250
2272.349	6204
2274.362	6327
2276.372	6290
2278.383	6229
2280.392	6203
2282.402	6284
2284.409	6341
2286.418	6320
2288.427	6355
2290.433	6380
2292.441	6228
2294.446	6279
2296.453	6389
2298.459	6352
2300.463	6229
2302.466	6200
2304.471	6297
2306.475	6388
2308.477	6259
2310.478	6254
2312.481	6341
2314.481	6142
2316.481	6269
2318.482	6293
2320.482	6246
2322.48	6221
2324.48	6253
2326.478	6139
2328.476	6189
2330.473	6294
2332.469	6234
2334.465	6238
2336.46	6188
2338.454	6187
2340.45	6224
2342.444	6184
2344.437	6151
2346.43	6205
2348.421	6173
2350.414	6183
2352.405	6153
2354.396	6189
2356.386	6276
2358.376	6195
2360.366	6176
2362.355	6144
2364.343	6091
2366.331	6204
2368.317	6101
2370.304	6075
2372.292	6150
2374.278	6161
2376.262	6150
2378.247	6106
2380.23	6201
2382.216	6180
2384.199	6169
2386.181	6046
2388.163	6117
2390.144	6040
2392.127	6177
2394.107	6145
2396.087	6105
2398.066	6066
2400.046	6109
2402.023	5911
2404.004	5997
2405.981	6106
2407.957	6071
2409.934	6037
2411.91	6053
2413.886	6095
2415.862	5919
2417.836	6078
2419.809	6026
2421.784	6111
2423.756	6096
2425.73	6202
2427.701	6047
2429.672	6013
2431.644	6151
2433.615	6140
2435.586	5994
2437.555	6104
2439.523	6121
2441.491	5969
2443.459	6036
2445.428	6116
2447.395	5965
2449.361	6116
2451.327	6140
2453.292	5939
2455.257	5991
2457.223	6044
2459.187	6063
2461.15	5986
2463.113	6048
2465.076	6002
2467.039	6003
2468.999	6009
2470.96	5929
2472.921	6031
2474.881	6057
2476.841	5959
2478.8	5931
2480.759	5947
2482.717	5950
2484.675	6001
2486.63	5976
2488.589	5929
2490.545	5999
2492.5	5951
2494.455	5932
2496.408	5912
2498.364	5967
2500.318	5923
2502.27	5952
2504.223	5884
2506.174	6028
2508.126	5877
2510.078	5940
2512.03	6010
2513.979	5877
2515.927	5898
2517.877	5925
2519.826	5891
2521.775	5999
2523.722	5920
2525.668	5918
2527.616	5954
2529.561	5880
2531.508	5998
2533.452	5996
2535.398	5879
2537.342	5962
2539.284	5966
2541.229	5927
2543.173	5875
2545.114	5839
2547.055	5824
2548.996	5942
2550.938	5918
2552.878	5897
2554.817	5869
2556.756	5960
2558.695	5901
2560.633	5873
2562.572	5822
2564.509	6033
2566.445	5812
2568.382	5957
2570.317	5860
2572.254	5933
2574.189	6008
2576.123	5944
2578.057	5927
2579.99	5907
2581.923	5855
2583.855	5813
2585.788	6015
2587.719	5871
2589.65	5905
2591.579	5855
2593.511	5887
2595.44	6022
2597.37	5834
2599.297	5906
2601.225	5872
2603.153	5968
2605.08	5902
2607.007	5942
2608.932	5881
2610.858	5910
2612.782	5938
2614.709	5982
2616.632	5924
2618.556	5979
2620.478	5954
2622.401	5994
2624.324	5937
2626.247	5910
2628.167	6048
2630.088	5985
2632.008	5904
2633.928	5969
2635.848	5934
2637.766	5854
2639.684	5952
2641.603	5990
2643.519	5884
2645.437	6056
2647.353	5962
2649.27	5788
2651.184	5851
2653.099	5996
2655.014	5825
2656.928	5871
2658.842	5982
2660.755	5888
2662.667	5952
2664.579	5892
2666.491	5881
2668.402	5997
2670.312	5854
2672.222	5896
2674.132	5802
2676.042	5962
2677.951	5802
2679.859	5842
2681.766	5873
2683.674	5810
2685.582	5842
2687.488	5902
2689.392	5854
2691.298	5840
2693.202	5849
2695.107	5828
2697.012	5790
2698.914	5919
2700.817	5782
2702.72	5876
2704.622	5798
2706.524	5926
2708.425	5788
2710.326	5824
2712.225	5859
2714.125	5833
2716.024	5821
2717.923	5693
2719.822	5754
2721.719	5773
2723.616	5868
2725.512	5777
2727.41	5763
2729.305	5800
2731.201	5815
2733.095	5894
2734.99	5884
2736.884	5764
2738.778	5805
2740.67	5805
2742.562	5718
2744.455	5837
2746.346	5849
2748.238	5734
2750.129	5745
2752.018	5673
2753.907	5714
2755.797	5747
2757.687	5777
2759.575	5688
2761.462	5796
2763.349	5760
2765.237	5735
2767.124	5695
2769.009	5748
2770.894	5749
2772.779	5729
2774.663	5708
2776.547	5816
2778.431	5750
2780.314	5663
2782.197	5714
2784.078	5782
2785.96	5722
2787.842	5689
2789.723	5726
2791.603	5684
2793.483	5676
2795.362	5656
2797.241	5694
2799.121	5560
2800.997	5653
2802.874	5724
2804.751	5699
2806.628	5709
2808.506	5678
2810.38	5551
2812.255	5699
2814.13	5638
2816.003	5706
2817.878	5703
2819.752	5869
2821.623	5650
2823.496	5642
2825.368	5660
2827.238	5691
2829.111	5842
2830.98	5729
2832.851	5736
2834.719	5756
2836.589	5712
2838.458	5664
2840.327	5614
2842.193	5719
2844.061	5766
2845.927	5705
2847.794	5685
2849.66	5594
2851.525	5792
2853.39	5713
2855.254	5765
2857.117	5729
2858.983	5855
2860.845	5863
2862.707	5768
2864.569	5949
2866.431	5838
2868.293	5901
2870.154	5910
2872.013	5968
2873.873	6028
2875.733	6176
2877.592	6158
2879.451	6245
2881.309	6154
2883.166	6258
2885.022	6382
2886.879	6222
2888.736	6310
2890.591	6353
2892.446	6370
2894.301	6228
2896.155	6217
2898.009	6184
2899.863	6264
2901.716	6393
2903.568	6261
2905.419	6303
2907.27	6192
2909.123	6247
2910.973	6205
2912.824	6331
2914.673	6399
2916.521	6355
2918.372	6642
2920.22	6407
2922.067	6560
2923.914	6673
2925.761	6604
2927.607	6808
2929.455	6858
2931.301	6876
2933.144	6935
2934.99	7220
2936.833	7051
2938.678	7102
2940.522	7155
2942.364	7330
2944.207	7395
2946.048	7201
2947.891	7309
2949.731	7298
2951.571	7308
2953.412	7169
2955.25	7155
2957.09	7157
2958.93	6848
2960.767	6926
2962.606	6859
2964.443	6769
2966.279	6777
2968.116	6677
2969.953	6584
2971.788	6636
2973.623	6480
2975.457	6599
2977.292	6456
2979.127	6459
2980.959	6536
2982.792	6381
2984.624	6426
2986.455	6390
2988.288	6375
2990.119	6298
2991.949	6334
2993.779	6296
2995.608	6161
2997.439	6112
2999.268	6117
3001.096	6099
3002.923	6024
3004.751	5998
3006.578	5843
3008.406	5909
3010.232	5815
3012.057	5778
3013.883	5757
3015.706	5653
3017.532	5565
3019.356	5750
3021.179	5582
3023.002	5615
3024.823	5496
3026.646	5626
3028.469	5515
3030.289	5489
3032.11	5402
3033.93	5451
3035.749	5546
3037.57	5386
3039.39	5571
3041.207	5403
3043.026	5437
3044.842	5447
3046.661	5430
3048.477	5401
3050.294	5452
3052.109	5464
3053.925	5366
3055.739	5368
3057.555	5330
3059.368	5388
3061.181	5337
3062.995	5397
3064.807	5455
3066.62	5335
3068.433	5412
3070.243	5413
3072.054	5324
3073.865	5386
3075.675	5410
3077.485	5339
3079.293	5382
3081.102	5312
3082.911	5365
3084.719	5264
3086.527	5228
3088.333	5287
3090.139	5415
3091.945	5293
3093.75	5371
3095.557	5239
3097.361	5367
3099.165	5299
3100.969	5284
3102.772	5192
3104.575	5321
3106.379	5160
3108.181	5311
3109.982	5185
3111.783	5131
3113.584	5212
3115.386	5196
3117.186	5125
3118.985	5248
3120.783	5241
3122.582	5187
3124.381	5159
3126.179	5231
3127.975	5238
3129.772	5101
3131.569	5201
3133.365	5178
3135.161	5040
3136.956	5173
3138.751	5122
3140.544	5113
3142.338	5110
3144.132	5075
3145.925	5140
3147.717	5022
3149.509	5107
3151.301	5115
3153.091	5129
3154.884	5198
3156.673	5109
3158.462	4993
3160.252	5162
3162.041	5227
3163.831	5082
3165.618	5050
3167.405	5083
3169.193	4961
3170.979	5110
3172.767	5102
3174.553	5061
3176.338	5103
3178.123	5036
3179.907	5123
3181.692	5077
3183.477	5103
3185.259	5001
3187.042	4971
3188.824	5024
3190.607	4993
3192.389	5131
3194.17	5055
3195.951	5103
3197.73	5103
3199.51	5038
3201.289	5017
3203.07	4968
3204.848	5051
3206.626	5061
3208.403	5003
3210.18	5071
3211.959	5009
3213.735	5022
3215.511	4980
3217.285	5039
3219.06	5101
3220.836	5038
3222.611	5003
3224.384	5095
3226.158	5031
3227.929	5025
3229.702	5064
3231.476	4996
3233.248	5041
3235.018	5066
3236.789	4945
3238.56	4950
3240.33	4993
3242.1	5039
3243.869	5127
3245.637	5101
3247.405	4957
3249.172	5102
3250.941	5010
3252.707	4931
3254.474	4945
3256.24	5047
3258.006	4966
3259.772	4998
3261.537	5064
3263.301	4970
3265.065	5051
3266.828	5067
3268.592	5133
3270.355	5035
3272.117	4990
3273.878	4965
3275.64	5074
3277.401	5104
3279.162	5001
3280.922	4981
3282.682	4989
3284.441	5041
3286.199	5116
3287.959	5082
3289.716	5046
3291.475	5090
3293.232	5068
3294.988	5059
3296.744	5044
3298.501	4970
3300.256	5006
3302.011	5035
3303.766	5014
3305.52	5123
3307.275	5057
3309.028	5151
3310.781	5001
3312.533	5040
3314.285	5126
3316.038	5040
3317.789	4991
3319.54	4978
3321.289	5085
3323.039	5074
3324.789	5034
3326.539	5040
3328.288	4998
3330.035	5021
3331.783	5033
3333.531	5044
3335.28	4987
3337.025	5003
3338.771	5014
3340.518	4980
3342.262	5052
3344.009	4967
3345.753	4877
3347.497	4896
3349.24	5014
3350.983	5033
3352.726	4963
3354.469	4934
3356.212	4965
3357.952	4977
3359.694	4865
3361.434	4761
3363.176	4872
3364.916	4935
3366.654	4826
3368.394	4883
3370.132	4967
3371.871	4947
3373.61	4904
3375.346	4789
3377.083	4872
3378.82	4867
3380.556	4881
3382.292	4823
3384.027	4839
3385.763	4826
3387.497	4768
3389.231	4862
3390.965	4835
3392.698	4793
3394.431	4752
3396.164	4758
3397.896	4814
3399.627	4840
3401.36	4887
3403.09	4722
3404.82	4772
3406.55	4854
3408.279	4702
3410.01	4720
3411.738	4779
3413.467	4713
3415.194	4762
3416.92	4704
3418.647	4815
3420.375	4761
3422.102	4836
3423.827	4727
3425.553	4728
3427.277	4757
3429.003	4838
3430.727	4745
3432.451	4844
3434.173	4732
3435.896	4818
3437.62	4730
3439.343	4691
3441.063	4659
3442.785	4789
3444.505	4616
3446.226	4705
3447.948	4691
3449.666	4599
3451.386	4623
3453.104	4663
3454.823	4637
3456.541	4621
3458.259	4639
3459.976	4665
3461.693	4622
3463.408	4648
3465.125	4482
3466.841	4640
3468.556	4553
3470.271	4571
3471.985	4514
3473.698	4573
3475.414	4561
3477.126	4600
3478.838	4495
3480.55	4659
3482.263	4529
3483.975	4578
3485.686	4578
3487.396	4497
3489.106	4513
3490.817	4504
3492.526	4443
3494.236	4398
3495.944	4543
3497.652	4495
3499.359	4454
3501.066	4395
3502.775	4417
3504.481	4466
3506.187	4437
3507.893	4458
3509.598	4383
3511.304	4520
3513.009	4423
3514.713	4336
3516.417	4331
3518.12	4275
3519.821	4412
3521.525	4371
3523.228	4364
3524.929	4380
3526.631	4396
3528.33	4319
3530.032	4373
3531.733	4274
3533.433	4244
3535.131	4359
3536.83	4302
3538.529	4358
3540.227	4275
3541.925	4332
3543.623	4306
3545.319	4264
3547.016	4373
3548.712	4279
3550.408	4381
3552.103	4279
3553.798	4318
3555.491	4310
3557.188	4278
3558.88	4292
3560.574	4308
3562.266	4275
3563.959	4253
3565.651	4258
3567.343	4341
3569.035	4283
3570.725	4262
3572.415	4298
3574.106	4214
3575.797	4290
3577.485	4265
3579.174	4287
3580.863	4187
3582.551	4212
3584.238	4160
3585.926	4216
3587.613	4238
3589.3	4200
3590.986	4164
3592.671	4161
3594.357	4182
3596.042	4139
3597.726	4216
3599.41	4155
3601.094	4106
3602.778	4216
3604.461	4040
3606.143	4109
3607.825	4163
3609.507	4067
3611.188	4065
3612.87	4100
3614.551	4132
3616.229	4142
3617.909	4051
3619.589	4149
3621.269	4057
3622.948	4034
3624.625	4057
3626.302	3988
3627.98	3989
3629.657	3968
3631.334	4001
3633.01	3963
3634.686	3940
3636.361	3924
3638.036	3910
3639.712	3965
3641.385	3890
3643.06	4001
3644.732	3973
3646.405	4006
3648.08	3990
3649.751	4015
3651.424	3943
3653.094	3910
3654.766	3902
3656.436	3921
3658.106	3916
3659.777	3919
3661.446	3831
3663.115	3906
3664.783	3852
3666.452	3831
3668.121	3847
3669.788	3931
3671.454	3871
3673.121	3816
3674.789	3832
3676.455	3938
3678.12	3800
3679.784	3801
3681.45	3858
3683.114	3837
3684.779	3932
3686.442	3813
3688.105	3837
3689.768	3788
3691.43	3799
3693.093	3786
3694.754	3865
3696.415	3803
3698.076	3806
3699.736	3871
3701.396	3797
3703.057	3788
3704.716	3717
3706.375	3784
3708.034	3846
3709.692	3734
3711.351	3696
3713.008	3792
3714.665	3817
3716.321	3735
3717.977	3811
3719.634	3740
3721.29	3800
3722.945	3715
3724.598	3766
3726.253	3764
3727.907	3704
3729.561	3735
3731.214	3784
3732.867	3695
3734.518	3794
3736.171	3748
3737.824	3758
3739.474	3677
3741.125	3635
3742.775	3655
3744.425	3590
3746.074	3644
3747.725	3681
3749.373	3695
3751.022	3597
3752.669	3637
3754.318	3616
3755.966	3725
3757.612	3700
3759.259	3658
3760.905	3765
3762.55	3604
3764.197	3581
3765.842	3745
3767.486	3638
3769.131	3657
3770.774	3754
3772.417	3706
3774.061	3657
3775.705	3667
3777.347	3681
3778.988	3568
3780.629	3710
3782.271	3655
3783.912	3564
3785.552	3582
3787.192	3621
3788.831	3551
3790.472	3581
3792.112	3652
3793.75	3555
3795.388	3612
3797.024	3614
3798.661	3561
3800.3	3632
3801.936	3546
3803.572	3634
3805.208	3605
3806.844	3629
3808.48	3560
3810.115	3530
3811.748	3533
3813.382	3549
3815.016	3585
3816.649	3508
3818.283	3495
3819.914	3586
3821.547	3522
3823.178	3484
3824.809	3519
3826.441	3548
3828.072	3522
3829.701	3543
3831.331	3509
3832.96	3563
3834.591	3461
3836.219	3516
3837.847	3532
3839.475	3542
3841.102	3484
3842.729	3477
3844.357	3480
3845.984	3458
3847.609	3486
3849.234	3407
3850.86	3458
3852.485	3475
3854.11	3446
3855.734	3399
3857.357	3453
3858.981	3431
3860.603	3407
3862.227	3450
3863.848	3475
3865.471	3403
3867.092	3397
3868.713	3477
3870.334	3523
3871.954	3414
3873.575	3441
3875.194	3385
3876.813	3380
3878.433	3361
3880.051	3385
3881.669	3485
3883.286	3394
3884.904	3447
3886.52	3351
3888.138	3385
3889.754	3379
3891.37	3457
3892.985	3371
3894.6	3419
3896.216	3420
3897.831	3434
3899.444	3438
3901.058	3367
3902.67	3403
3904.283	3435
3905.897	3364
3907.509	3336
3909.121	3458
3910.731	3333
3912.342	3442
3913.954	3391
3915.563	3357
3917.174	3405
3918.783	3430
3920.391	3408
3922.002	3326
3923.611	3390
3925.218	3391
3926.826	3343
3928.432	3390
3930.039	3310
3931.647	3366
3933.253	3362
3934.859	3396
3936.464	3312
3938.068	3366
3939.675	3424
3941.278	3365
3942.883	3371
3944.486	3258
3946.089	3376
3947.692	3394
3949.295	3298
3950.898	3346
3952.499	3377
3954.1	3230
3955.7	3305
3957.303	3376
3958.903	3258
3960.502	3272
3962.101	3244
3963.7	3286
3965.301	3292
3966.899	3271
3968.497	3264
3970.094	3230
3971.691	3248
3973.288	3260
3974.885	3233
3976.481	3176
3978.077	3190
3979.672	3274
3981.267	3282
3982.863	3242
3984.457	3288
3986.051	3208
3987.645	3257
3989.238	3175
3990.831	3300
3992.425	3192
3994.017	3165
3995.607	3159
3997.199	3190
3998.79	3103
4000.382	3191
4001.973	3198
4003.561	3195
4005.151	3176
4006.741	3217
4008.331	3134
4009.918	3138
4011.507	3130
4013.095	3105
4014.681	3106
4016.269	3136
4017.856	3094
4019.443	3092
4021.028	3156
4022.614	3092
4024.199	3165
4025.785	3101
4027.37	3124
4028.953	3138
4030.536	3111
4032.12	3040
4033.704	3052
4035.287	3185
4036.869	3086
4038.45	3135
4040.032	3074
4041.613	3026
4043.195	3010
4044.776	3070
4046.356	3159
4047.935	3139
4049.515	3116
4051.095	3058
4052.674	3112
4054.251	3060
4055.829	3054
4057.406	3074
4058.985	3005
4060.562	3055
4062.139	2999
4063.715	3142
4065.29	3030
4066.865	3050
4068.442	3005
4070.016	3074
4071.59	3024
4073.164	3096
4074.738	3042
4076.312	3027
4077.885	2990
4079.458	2986
4081.03	3016
4082.602	3094
4084.173	3049
4085.745	3017
4087.315	2995
4088.886	3004
4090.456	3022
4092.026	2983
4093.596	3022
4095.165	2937
4096.734	2985
4098.301	2906
4099.869	3008
4101.437	2928
4103.006	2997
4104.572	2927
4106.139	2940
4107.704	2982
4109.27	2990
4110.837	2946
4112.401	2941
4113.966	2967
4115.53	2944
4117.094	2953
4118.659	2906
4120.223	3004
4121.785	2910
4123.347	2926
4124.909	2978
4126.471	2873
4128.034	2835
4129.595	2866
4131.155	2964
4132.716	2876
4134.275	2863
4135.836	2852
4137.395	2903
4138.955	2869
4140.513	2913
4142.071	2797
4143.628	2893
4145.188	2916
4146.745	2893
4148.302	2827
4149.858	2839
4151.414	2891
4152.971	2835
4154.526	2845
4156.081	2890
4157.635	2864
4159.189	2866
4160.745	2843
4162.298	2851
4163.852	2885
4165.405	2827
4166.957	2867
4168.51	2780
4170.063	2759
4171.614	2770
4173.166	2833
4174.717	2809
4176.267	2768
4177.817	2866
4179.368	2828
4180.917	2813
4182.466	2757
4184.016	2819
4185.564	2848
4187.112	2847
4188.66	2759
4190.207	2800
4191.754	2760
4193.301	2809
4194.848	2764
4196.394	2745
4197.94	2768
4199.484	2810
4201.03	2774
4202.575	2779
4204.12	2775
4205.663	2748
4207.207	2737
4208.75	2716
4210.292	2746
4211.836	2769
4213.378	2695
4214.92	2720
4216.46	2750
4218.002	2687
4219.544	2680
4221.083	2647
4222.625	2745
4224.164	2764
4225.703	2734
4227.244	2682
4228.782	2654
4230.32	2719
4231.857	2678
4233.395	2717
4234.933	2750
4236.471	2715
4238.007	2723
4239.542	2629
4241.078	2740
4242.614	2669
4244.15	2738
4245.685	2658
4247.219	2693
4248.753	2692
4250.287	2617
4251.82	2651
4253.354	2695
4254.887	2663
4256.419	2637
4257.951	2657
4259.483	2732
4261.016	2618
4262.547	2661
4264.078	2660
4265.608	2710
4267.137	2632
4268.668	2646
4270.197	2681
4271.727	2622
4273.254	2676
4274.783	2642
4276.311	2649
4277.84	2621
4279.366	2637
4280.894	2614
4282.42	2655
4283.946	2673
4285.473	2592
4286.998	2656
4288.523	2609
4290.047	2614
4291.572	2573
4293.096	2580
4294.622	2621
4296.144	2643
4297.668	2590
4299.19	2554
4300.713	2572
4302.236	2618
4303.758	2598
4305.279	2590
4306.799	2601
4308.321	2547
4309.842	2553
4311.361	2606
4312.882	2583
4314.401	2544
