400.0961	4115
402.6185	3998
405.1424	4122
407.6635	4024
410.1838	4050
412.7035	4034
415.2225	4071
417.7388	4064
420.2585	4128
422.7754	4189
425.2917	4080
427.8072	4213
430.3221	4213
432.8363	4169
435.3498	4209
437.8626	4248
440.3727	4244
442.8841	4324
445.3969	4334
447.907	4298
450.4142	4238
452.9229	4310
455.4289	4204
457.9362	4200
460.4449	4274
462.9488	4232
465.454	4215
467.9566	4218
470.4604	4278
472.9637	4151
475.4662	4151
477.966	4235
480.4671	4241
482.9656	4243
485.4633	4257
487.9645	4265
490.4608	4230
492.9566	4320
495.4536	4348
497.948	4355
500.4437	4281
502.9387	4332
505.431	4325
507.9226	4346
510.4136	4320
512.9079	4319
515.3975	4350
517.8864	4311
520.3746	4341
522.8622	4301
525.3491	4259
527.8394	4268
530.3249	4384
532.8098	4465
535.2939	4331
537.7774	4357
540.2623	4425
542.7444	4491
545.2259	4385
547.7067	4405
550.1868	4405
552.6683	4309
555.147	4372
557.6231	4311
560.1005	4325
562.5773	4426
565.0534	4318
567.5308	4433
570.0056	4400
572.4776	4488
574.951	4542
577.4237	4573
579.8978	4586
582.3671	4519
584.8378	4562
587.3079	4577
589.7773	4519
592.244	4589
594.714	4524
597.1793	4508
599.6461	4539
602.1121	4560
604.5754	4583
607.0421	4552
609.5042	4484
611.9675	4487
614.4282	4463
616.8902	4555
619.3515	4512
621.8122	4542
624.2702	4493
626.7296	4511
629.1863	4428
631.6423	4563
634.1017	4386
636.5563	4433
639.0104	4466
641.4658	4464
643.9185	4394
646.3725	4622
648.8239	4454
651.2766	4532
653.7266	4536
656.176	4560
658.6247	4558
661.0748	4495
663.5242	4602
665.9709	4539
668.417	4597
670.8624	4553
673.3092	4545
675.7533	4609
678.1968	4657
680.6395	4646
683.0817	4615
685.5251	4624
687.9659	4637
690.4061	4685
692.8456	4579
695.2844	4706
697.7226	4628
700.1621	4645
702.599	4645
705.0332	4638
707.4688	4738
709.9036	4810
712.3399	4759
714.7735	4696
717.2044	4761
719.6367	4932
722.0683	4758
724.4993	4661
726.9296	4768
729.3593	4746
731.7883	4878
734.2147	4756
736.6423	4901
739.0714	4898
741.4958	4757
743.9216	4936
746.3447	4851
748.7691	4912
751.1929	4884
753.616	4837
756.0366	4946
758.4584	4896
760.8776	5004
763.2982	4967
765.718	5007
768.1373	4981
770.5539	4942
772.9698	4989
775.3871	5001
777.8038	5010
780.2178	5052
782.6332	4947
785.0459	4966
787.458	4937
789.8714	5073
792.2842	4947
794.6943	4977
797.1038	4904
799.5127	5056
801.9209	4977
804.3324	4987
806.7393	5004
809.1456	5000
811.5513	5029
813.9562	5008
816.3625	5029
818.7663	5081
821.1693	5043
823.5718	5028
825.9735	5092
828.3746	5076
830.7771	5122
833.177	4980
835.5762	5141
837.9747	5064
840.3727	5070
842.772	5075
845.1666	5160
847.5626	5255
849.958	5177
852.3527	5283
854.7488	5322
857.1403	5291
859.5331	5273
861.9253	5266
864.3168	5172
866.7057	5247
869.098	5311
871.4876	5147
873.8746	5096
876.263	5236
878.6487	5210
881.0378	5166
883.4243	5192
885.8081	5162
888.1933	5098
890.5759	5223
892.9598	5168
895.343	5195
897.7256	5238
900.1057	5098
902.4871	5209
904.8659	5304
907.246	5278
909.6254	5221
912.0023	5377
914.3786	5469
916.7562	5599
919.1331	5744
921.5074	5821
923.8831	5768
926.2562	5795
928.6287	5794
931.0005	5745
933.3757	5642
935.7462	5688
938.1162	5612
940.4855	5708
942.8542	5723
945.2242	5646
947.5916	5617
949.9584	5752
952.3266	5918
954.6921	6119
957.0571	6134
959.4233	6427
961.787	6488
964.15	6396
966.5125	6302
968.8742	6078
971.2354	5965
973.5959	5829
975.9559	5752
978.3151	5624
980.6738	5565
983.0338	5647
985.3912	5616
987.7461	5485
990.1022	5466
992.4578	5397
994.8127	5367
997.1689	5326
999.5207	5395
1001.874	5588
1004.226	5487
1006.576	5434
1008.929	5460
1011.28	5376
1013.628	5351
1015.977	5219
1018.324	5380
1020.674	5411
1023.019	5403
1025.366	5395
1027.713	5408
1030.056	5507
1032.399	5395
1034.746	5381
1037.087	5464
1039.431	5388
1041.771	5482
1044.113	5449
1046.454	5555
1048.793	5471
1051.133	5478
1053.471	5434
1055.807	5461
1058.146	5462
1060.483	5529
1062.818	5475
1065.153	5530
1067.489	5585
1069.822	5509
1072.156	5607
1074.488	5596
1076.82	5498
1079.15	5562
1081.48	5508
1083.814	5533
1086.143	5479
1088.471	5424
1090.799	5544
1093.126	5566
1095.452	5539
1097.78	5424
1100.105	5620
1102.43	5557
1104.754	5541
1107.077	5601
1109.4	5623
1111.722	5527
1114.044	5549
1116.365	5564
1118.685	5515
1121.005	5534
1123.324	5617
1125.643	5655
1127.961	5601
1130.278	5554
1132.595	5507
1134.911	5593
1137.226	5520
1139.541	5441
1141.854	5538
1144.167	5472
1146.482	5474
1148.793	5519
1151.105	5481
1153.414	5481
1155.725	5470
1158.033	5500
1160.344	5446
1162.651	5610
1164.959	5515
1167.265	5485
1169.572	5410
1171.878	5587
1174.184	5556
1176.488	5561
1178.79	5704
1181.094	5677
1183.396	5601
1185.699	5618
1188.001	5647
1190.301	5488
1192.6	5572
1194.9	5471
1197.2	5558
1199.497	5530
1201.794	5663
1204.09	5586
1206.387	5569
1208.684	5626
1210.978	5586
1213.272	5631
1215.565	5534
1217.858	5497
1220.15	5570
1222.443	5574
1224.734	5695
1227.024	5729
1229.313	5575
1231.602	5762
1233.892	5729
1236.18	5780
1238.467	5813
1240.754	5840
1243.04	5977
1245.325	5879
1247.612	5815
1249.896	5870
1252.178	5872
1254.461	5829
1256.743	5987
1259.027	5885
1261.308	5935
1263.587	5895
1265.867	5913
1268.146	5987
1270.425	5998
1272.703	5908
1274.981	6022
1277.256	5918
1279.532	5946
1281.808	5835
1284.083	5858
1286.358	5946
1288.63	5855
1290.904	5709
1293.175	5836
1295.449	5811
1297.719	5800
1299.99	5704
1302.259	5763
1304.529	5808
1306.798	5840
1309.065	5766
1311.333	5853
1313.599	5817
1315.866	5892
1318.131	5845
1320.396	5852
1322.66	5685
1324.925	5906
1327.187	5832
1329.448	5875
1331.711	5977
1333.974	5899
1336.234	5883
1338.493	5891
1340.752	5858
1343.01	5868
1345.269	5804
1347.526	5824
1349.784	5761
1352.04	5722
1354.295	5785
1356.552	5815
1358.806	5800
1361.059	5685
1363.312	5711
1365.564	5779
1367.818	5802
1370.069	5821
1372.318	5785
1374.568	5823
1376.817	5946
1379.066	5862
1381.316	5852
1383.564	5834
1385.809	5913
1388.056	5886
1390.301	6117
1392.549	6014
1394.793	6260
1397.036	6402
1399.279	6385
1401.522	6366
1403.763	6312
1406.007	6358
1408.248	6336
1410.487	6216
1412.727	6318
1414.965	6164
1417.205	6283
1419.442	6245
1421.68	6041
1423.915	6221
1426.152	6157
1428.388	6150
1430.623	6200
1432.857	6101
1435.091	6216
1437.323	6230
1439.556	6184
1441.789	6277
1444.019	6134
1446.25	6157
1448.48	6169
1450.708	6321
1452.938	6421
1455.167	6341
1457.394	6386
1459.62	6462
1461.846	6275
1464.073	6342
1466.299	6314
1468.523	6125
1470.746	6065
1472.969	6142
1475.191	6063
1477.415	5865
1479.636	5836
1481.858	5864
1484.078	5871
1486.298	5911
1488.518	5824
1490.736	5787
1492.954	5789
1495.169	5761
1497.386	5824
1499.602	5676
1501.819	5728
1504.034	5689
1506.248	5689
1508.462	5782
1510.675	5645
1512.888	5665
1515.1	5711
1517.311	5757
1519.522	5724
1521.732	5724
1523.942	5680
1526.151	5773
1528.36	5712
1530.566	5684
1532.773	5714
1534.98	5725
1537.187	5769
1539.392	5754
1541.596	5847
1543.801	5704
1546.005	5719
1548.208	5783
1550.411	5849
1552.612	5820
1554.814	5758
1557.013	5750
1559.212	5811
1561.414	5876
1563.612	5755
1565.811	5920
1568.007	5810
1570.203	5980
1572.403	6004
1574.598	5836
1576.792	5916
1578.988	5868
1581.181	5793
1583.376	5945
1585.568	5874
1587.761	5964
1589.952	5914
1592.143	5967
1594.333	5979
1596.524	5841
1598.715	6066
1600.903	5838
1603.091	5918
1605.278	5892
1607.466	5881
1609.652	5917
1611.838	5966
1614.023	5989
1616.207	5950
1618.391	5903
1620.576	5976
1622.759	5916
1624.941	5945
1627.123	5874
1629.304	6019
1631.484	6000
1633.664	6043
1635.844	6070
1638.022	6085
1640.201	6113
1642.38	6160
1644.556	6052
1646.732	5997
1648.908	6054
1651.084	6147
1653.257	6157
1655.433	6123
1657.607	6105
1659.779	6227
1661.951	6203
1664.122	6144
1666.295	6201
1668.467	6181
1670.635	6234
1672.805	6196
1674.973	6160
1677.142	6278
1679.31	6142
1681.478	6103
1683.644	6089
1685.81	6194
1687.975	6142
1690.142	6021
1692.305	6026
1694.468	6139
1696.632	6063
1698.794	6011
1700.957	5888
1703.119	6025
1705.279	5986
1707.439	5961
1709.598	5933
1711.758	5911
1713.917	5919
1716.075	5852
1718.231	5972
1720.388	5858
1722.543	5883
1724.702	5807
1726.856	5911
1729.01	5823
1731.164	5856
1733.317	5863
1735.471	5823
1737.623	5871
1739.774	5921
1741.925	5875
1744.075	5902
1746.225	5841
1748.376	5864
1750.524	5850
1752.672	5866
1754.82	5819
1756.965	5899
1759.113	5883
1761.259	5804
1763.405	5797
1765.549	5887
1767.694	5981
1769.836	5935
1771.981	5938
1774.123	5892
1776.264	5859
1778.405	5930
1780.546	5884
1782.687	5916
1784.827	6000
1786.966	5851
1789.103	5945
1791.242	6017
1793.381	6021
1795.517	5835
1797.653	5934
1799.788	5909
1801.923	5980
1804.057	5904
1806.193	5936
1808.326	5997
1810.457	5972
1812.59	5934
1814.721	5973
1816.855	5914
1818.984	5976
1821.113	5952
1823.244	5965
1825.372	5940
1827.499	5905
1829.63	5880
1831.756	6003
1833.882	5912
1836.007	5886
1838.132	5835
1840.26	5835
1842.384	5743
1844.507	5861
1846.63	5927
1848.752	5856
1850.875	5917
1852.996	5856
1855.118	5880
1857.238	5863
1859.358	5938
1861.477	5833
1863.597	5910
1865.715	5872
1867.832	5826
1869.948	5815
1872.064	5892
1874.181	5758
1876.297	5829
1878.411	5806
1880.526	5875
1882.639	5764
1884.752	5885
1886.865	5917
1888.977	5902
1891.089	5929
1893.2	5894
1895.308	5895
1897.42	5941
1899.53	5920
1901.639	5971
1903.745	5844
1905.853	6013
1907.962	5915
1910.067	6038
1912.174	5866
1914.278	5935
1916.383	5948
1918.486	6071
1920.592	6024
1922.694	6019
1924.797	6012
1926.898	5962
1929	5999
1931.102	6032
1933.203	6021
1935.301	5893
1937.401	5880
1939.499	5952
1941.598	6037
1943.697	5903
1945.793	5995
1947.888	5929
1949.985	6051
1952.08	5955
1954.176	5939
1956.269	6006
1958.364	6022
1960.457	5894
1962.549	5897
1964.642	5955
1966.733	5949
1968.823	5940
1970.913	5966
1973.005	5921
1975.093	5957
1977.184	6035
1979.271	5943
1981.359	5905
1983.446	5800
1985.532	5872
1987.619	5972
1989.705	5854
1991.789	5810
1993.874	5841
1995.956	5871
1998.041	5861
2000.123	5986
2002.206	5914
2004.287	5933
2006.368	5853
2008.449	5875
2010.529	5966
2012.609	5946
2014.688	6056
2016.766	5873
2018.843	5961
2020.922	5936
2022.999	5920
2025.074	5902
2027.15	5957
2029.225	5816
2031.299	5955
2033.375	5840
2035.447	5971
2037.52	5915
2039.592	5827
2041.664	5842
2043.736	5893
2045.807	5871
2047.876	5852
2049.947	5937
2052.015	5904
2054.086	5889
2056.153	6030
2058.221	5916
2060.288	5876
2062.353	5923
2064.42	5965
2066.486	5916
2068.55	6001
2070.614	5937
2072.678	5913
2074.741	5866
2076.805	6012
2078.866	5905
2080.929	5910
2082.99	5791
2085.049	5971
2087.109	5966
2089.17	5880
2091.228	5932
2093.286	5924
2095.344	5982
2097.4	5961
2099.46	5942
2101.516	5865
2103.572	5883
2105.626	5918
2107.679	5798
2109.735	5961
2111.788	5797
2113.841	5949
2115.894	5901
2117.945	5901
2119.997	5858
2122.049	5890
2124.1	5860
2126.148	5939
2128.197	5860
2130.246	5963
2132.296	5864
2134.342	5897
2136.39	5879
2138.437	5895
2140.483	5832
2142.527	5881
2144.574	5776
2146.619	5786
2148.661	5744
2150.705	5833
2152.747	5789
2154.792	5913
2156.832	5818
2158.874	5882
2160.915	5877
2162.954	5829
2164.995	5800
2167.034	5892
2169.072	5846
2171.111	5858
2173.148	5920
2175.186	5757
2177.223	5827
2179.258	5745
2181.294	5806
2183.328	5813
2185.362	5856
2187.398	5807
2189.431	5865
2191.463	5832
2193.495	5821
2195.528	5769
2197.56	5828
2199.59	5736
2201.62	5789
2203.649	5775
2205.678	5701
2207.708	5658
2209.737	5792
2211.764	5725
2213.791	5639
2215.817	5739
2217.843	5743
2219.87	5773
2221.895	5752
2223.919	5802
2225.942	5655
2227.966	5752
2229.988	5728
2232.012	5681
2234.032	5793
2236.054	5672
2238.074	5643
2240.095	5783
2242.116	5717
2244.135	5772
2246.153	5633
2248.171	5721
2250.188	5764
2252.208	5730
2254.223	5647
2256.239	5700
2258.255	5679
2260.269	5781
2262.283	5712
2264.3	5783
2266.312	5720
2268.325	5759
2270.336	5811
2272.349	5614
2274.362	5736
2276.372	5671
2278.383	5751
2280.392	5663
2282.402	5775
2284.409	5707
2286.418	5675
2288.427	5753
2290.433	5670
2292.441	5693
2294.446	5686
2296.453	5712
2298.459	5695
2300.463	5722
2302.466	5764
2304.471	5621
2306.475	5616
2308.477	5735
2310.478	5688
2312.481	5695
2314.481	5683
2316.481	5644
2318.482	5645
2320.482	5723
2322.48	5649
2324.48	5591
2326.478	5651
2328.476	5821
2330.473	5730
2332.469	5560
2334.465	5582
2336.46	5644
2338.454	5597
2340.45	5600
2342.444	5595
2344.437	5677
2346.43	5626
2348.421	5610
2350.414	5626
2352.405	5619
2354.396	5653
2356.386	5533
2358.376	5651
2360.366	5665
2362.355	5467
2364.343	5621
2366.331	5624
2368.317	5546
2370.304	5609
2372.292	5589
2374.278	5538
2376.262	5677
2378.247	5570
2380.23	5581
2382.216	5573
2384.199	5582
2386.181	5545
2388.163	5544
2390.144	5425
2392.127	5567
2394.107	5533
2396.087	5521
2398.066	5615
2400.046	5583
2402.023	5419
2404.004	5477
2405.981	5512
2407.957	5611
2409.934	5484
2411.91	5462
2413.886	5548
2415.862	5476
2417.836	5403
2419.809	5579
2421.784	5427
2423.756	5537
2425.73	5535
2427.701	5481
2429.672	5551
2431.644	5483
2433.615	5457
2435.586	5487
2437.555	5532
2439.523	5428
2441.491	5503
2443.459	5599
2445.428	5519
2447.395	5465
2449.361	5485
2451.327	5516
2453.292	5483
2455.257	5479
2457.223	5498
2459.187	5521
2461.15	5606
2463.113	5529
2465.076	5472
2467.039	5462
2468.999	5418
2470.96	5421
2472.921	5418
2474.881	5441
2476.841	5425
2478.8	5408
2480.759	5427
2482.717	5534
2484.675	5488
2486.63	5359
2488.589	5448
2490.545	5483
2492.5	5408
2494.455	5387
2496.408	5427
2498.364	5347
2500.318	5458
2502.27	5409
2504.223	5507
2506.174	5374
2508.126	5452
2510.078	5319
2512.03	5447
2513.979	5345
2515.927	5388
2517.877	5384
2519.826	5387
2521.775	5338
2523.722	5470
2525.668	5420
2527.616	5413
2529.561	5415
2531.508	5415
2533.452	5397
2535.398	5335
2537.342	5513
2539.284	5405
2541.229	5436
2543.173	5334
2545.114	5448
2547.055	5434
2548.996	5407
2550.938	5385
2552.878	5397
2554.817	5464
2556.756	5421
2558.695	5406
2560.633	5484
2562.572	5271
2564.509	5405
2566.445	5281
2568.382	5378
2570.317	5460
2572.254	5437
2574.189	5358
2576.123	5339
2578.057	5401
2579.99	5445
2581.923	5430
2583.855	5365
2585.788	5370
2587.719	5408
2589.65	5470
2591.579	5500
2593.511	5449
2595.44	5398
2597.37	5325
2599.297	5513
2601.225	5359
2603.153	5479
2605.08	5403
2607.007	5386
2608.932	5313
2610.858	5348
2612.782	5402
2614.709	5457
2616.632	5417
2618.556	5362
2620.478	5357
2622.401	5425
2624.324	5332
2626.247	5286
2628.167	5430
2630.088	5373
2632.008	5450
2633.928	5352
2635.848	5471
2637.766	5355
2639.684	5374
2641.603	5392
2643.519	5367
2645.437	5422
2647.353	5426
2649.27	5321
2651.184	5390
2653.099	5500
2655.014	5441
2656.928	5304
2658.842	5464
2660.755	5335
2662.667	5342
2664.579	5408
2666.491	5391
2668.402	5336
2670.312	5437
2672.222	5384
2674.132	5317
2676.042	5372
2677.951	5258
2679.859	5497
2681.766	5395
2683.674	5352
2685.582	5345
2687.488	5342
2689.392	5379
2691.298	5296
2693.202	5358
2695.107	5346
2697.012	5307
2698.914	5254
2700.817	5283
2702.72	5340
2704.622	5311
2706.524	5329
2708.425	5293
2710.326	5337
2712.225	5246
2714.125	5300
2716.024	5348
2717.923	5369
2719.822	5224
2721.719	5358
2723.616	5243
2725.512	5336
2727.41	5294
2729.305	5335
2731.201	5349
2733.095	5353
2734.99	5375
2736.884	5293
2738.778	5236
2740.67	5312
2742.562	5271
2744.455	5276
2746.346	5317
2748.238	5334
2750.129	5266
2752.018	5216
2753.907	5244
2755.797	5359
2757.687	5259
2759.575	5250
2761.462	5321
2763.349	5229
2765.237	5259
2767.124	5279
2769.009	5258
2770.894	5287
2772.779	5315
2774.663	5288
2776.547	5282
2778.431	5235
2780.314	5340
2782.197	5322
2784.078	5312
2785.96	5183
2787.842	5285
2789.723	5328
2791.603	5300
2793.483	5264
2795.362	5299
2797.241	5191
2799.121	5330
2800.997	5188
2802.874	5253
2804.751	5173
2806.628	5255
2808.506	5198
2810.38	5221
2812.255	5241
2814.13	5272
2816.003	5218
2817.878	5281
2819.752	5310
2821.623	5307
2823.496	5280
2825.368	5331
2827.238	5208
2829.111	5376
2830.98	5259
2832.851	5245
2834.719	5257
2836.589	5296
2838.458	5310
2840.327	5319
2842.193	5220
2844.061	5393
2845.927	5398
2847.794	5372
2849.66	5378
2851.525	5452
2853.39	5483
2855.254	5577
2857.117	5551
2858.983	5550
2860.845	5602
2862.707	5662
2864.569	5740
2866.431	5675
2868.293	5754
2870.154	5895
2872.013	5971
2873.873	5904
2875.733	5891
2877.592	6038
2879.451	6113
2881.309	6086
2883.166	6168
2885.022	6356
2886.879	6376
2888.736	6368
2890.591	6405
2892.446	6372
2894.301	6468
2896.155	6451
2898.009	6489
2899.863	6432
2901.716	6382
2903.568	6529
2905.419	6394
2907.27	6306
2909.123	6359
2910.973	6353
2912.824	6499
2914.673	6509
2916.521	6451
2918.372	6712
2920.22	6665
2922.067	6688
2923.914	6771
2925.761	6928
2927.607	6839
2929.455	6999
2931.301	7033
2933.144	6988
2934.99	7088
2936.833	7189
2938.678	7249
2940.522	7250
2942.364	7571
2944.207	7553
2946.048	7737
2947.891	7885
2949.731	7912
2951.571	7890
2953.412	7968
2955.25	7826
2957.09	7628
2958.93	7686
2960.767	7697
2962.606	7363
2964.443	7512
2966.279	7241
2968.116	7194
2969.953	7092
2971.788	6971
2973.623	6811
2975.457	6638
2977.292	6508
2979.127	6553
2980.959	6438
2982.792	6506
2984.624	6359
2986.455	6324
2988.288	6183
2990.119	6176
2991.949	6047
2993.779	6042
2995.608	6033
2997.439	6017
2999.268	5975
3001.096	5852
3002.923	5772
3004.751	5659
3006.578	5685
3008.406	5618
3010.232	5500
3012.057	5518
3013.883	5520
3015.706	5389
3017.532	5367
3019.356	5285
3021.179	5341
3023.002	5216
3024.823	5252
3026.646	5222
3028.469	5119
3030.289	5199
3032.11	5115
3033.93	5153
3035.749	5172
3037.57	5152
3039.39	5164
3041.207	5139
3043.026	5074
3044.842	5172
3046.661	5223
3048.477	5119
3050.294	5091
3052.109	5130
3053.925	5104
3055.739	5062
3057.555	5128
3059.368	5056
3061.181	5109
3062.995	5063
3064.807	5157
3066.62	5038
3068.433	5164
3070.243	5160
3072.054	5143
3073.865	5034
3075.675	5095
3077.485	4967
3079.293	4991
3081.102	4960
3082.911	5042
3084.719	4881
3086.527	5029
3088.333	4939
3090.139	4993
3091.945	4982
3093.75	4925
3095.557	4837
3097.361	4859
3099.165	4977
3100.969	4927
3102.772	4932
3104.575	4916
3106.379	4915
3108.181	4870
3109.982	4869
3111.783	4906
3113.584	4803
3115.386	4857
3117.186	4910
3118.985	4814
3120.783	4713
3122.582	4899
3124.381	4874
3126.179	4869
3127.975	4846
3129.772	4683
3131.569	4841
3133.365	4833
3135.161	4833
3136.956	4836
3138.751	4782
3140.544	4777
3142.338	4750
3144.132	4732
3145.925	4764
3147.717	4655
3149.509	4801
3151.301	4822
3153.091	4762
3154.884	4852
3156.673	4699
3158.462	4726
3160.252	4712
3162.041	4705
3163.831	4797
3165.618	4700
3167.405	4704
3169.193	4685
3170.979	4748
3172.767	4693
3174.553	4671
3176.338	4704
3178.123	4666
3179.907	4697
3181.692	4738
3183.477	4660
3185.259	4772
3187.042	4710
3188.824	4747
3190.607	4703
3192.389	4674
3194.17	4661
3195.951	4707
3197.73	4703
3199.51	4698
3201.289	4626
3203.07	4758
3204.848	4716
3206.626	4694
3208.403	4721
3210.18	4756
3211.959	4762
3213.735	4644
3215.511	4733
3217.285	4681
3219.06	4688
3220.836	4810
3222.611	4699
3224.384	4760
3226.158	4724
3227.929	4685
3229.702	4690
3231.476	4738
3233.248	4637
3235.018	4666
3236.789	4764
3238.56	4740
3240.33	4728
3242.1	4668
3243.869	4679
3245.637	4722
3247.405	4654
3249.172	4741
3250.941	4713
3252.707	4763
3254.474	4706
3256.24	4690
3258.006	4655
3259.772	4828
3261.537	4667
3263.301	4738
3265.065	4691
3266.828	4784
3268.592	4665
3270.355	4853
3272.117	4766
3273.878	4780
3275.64	4659
3277.401	4602
3279.162	4734
3280.922	4768
3282.682	4798
3284.441	4699
3286.199	4808
3287.959	4716
3289.716	4735
3291.475	4704
3293.232	4757
3294.988	4737
3296.744	4717
3298.501	4746
3300.256	4720
3302.011	4741
3303.766	4725
3305.52	4750
3307.275	4670
3309.028	4706
3310.781	4735
3312.533	4733
3314.285	4748
3316.038	4750
3317.789	4777
3319.54	4725
3321.289	4635
3323.039	4653
3324.789	4697
3326.539	4665
3328.288	4706
3330.035	4725
3331.783	4704
3333.531	4648
3335.28	4693
3337.025	4684
3338.771	4640
3340.518	4719
3342.262	4675
3344.009	4689
3345.753	4574
3347.497	4584
3349.24	4641
3350.983	4552
3352.726	4702
3354.469	4572
3356.212	4623
3357.952	4581
3359.694	4620
3361.434	4721
3363.176	4548
3364.916	4603
3366.654	4608
3368.394	4564
3370.132	4584
3371.871	4596
3373.61	4493
3375.346	4564
3377.083	4476
3378.82	4506
3380.556	4580
3382.292	4476
3384.027	4525
3385.763	4530
3387.497	4453
3389.231	4558
3390.965	4521
3392.698	4490
3394.431	4462
3396.164	4504
3397.896	4534
3399.627	4439
3401.36	4474
3403.09	4509
3404.82	4463
3406.55	4465
3408.279	4398
3410.01	4458
3411.738	4432
3413.467	4499
3415.194	4429
3416.92	4405
3418.647	4442
3420.375	4405
3422.102	4360
3423.827	4337
3425.553	4452
3427.277	4404
3429.003	4414
3430.727	4380
3432.451	4502
3434.173	4254
3435.896	4375
3437.62	4349
3439.343	4358
3441.063	4372
3442.785	4360
3444.505	4384
3446.226	4396
3447.948	4350
3449.666	4341
3451.386	4258
3453.104	4303
3454.823	4289
3456.541	4351
3458.259	4284
3459.976	4214
3461.693	4259
3463.408	4209
3465.125	4250
3466.841	4164
3468.556	4170
3470.271	4179
3471.985	4270
3473.698	4198
3475.414	4156
3477.126	4201
3478.838	4148
3480.55	4155
3482.263	4162
3483.975	4197
3485.686	4179
3487.396	4189
3489.106	4216
3490.817	4188
3492.526	4076
3494.236	4100
3495.944	4179
3497.652	4147
3499.359	4150
3501.066	4131
3502.775	4132
3504.481	4069
3506.187	4066
3507.893	4050
3509.598	3982
3511.304	4123
3513.009	4032
3514.713	4102
3516.417	4051
3518.12	4100
3519.821	4112
3521.525	4087
3523.228	4094
3524.929	4022
3526.631	3981
3528.33	4010
3530.032	3959
3531.733	3937
3533.433	3977
3535.131	3971
3536.83	4041
3538.529	3987
3540.227	3928
3541.925	4030
3543.623	3844
3545.319	4033
3547.016	3909
3548.712	3959
3550.408	3928
3552.103	3929
3553.798	3911
3555.491	3895
3557.188	3867
3558.88	3870
3560.574	3911
3562.266	3905
3563.959	3913
3565.651	3863
3567.343	3847
3569.035	3943
3570.725	3968
3572.415	3923
3574.106	3943
3575.797	3827
3577.485	3848
3579.174	3844
3580.863	3854
3582.551	3812
3584.238	3892
3585.926	3846
3587.613	3796
3589.3	3764
3590.986	3838
3592.671	3783
3594.357	3781
3596.042	3820
3597.726	3855
3599.41	3842
3601.094	3840
3602.778	3738
3604.461	3770
3606.143	3739
3607.825	3762
3609.507	3758
3611.188	3745
3612.87	3694
3614.551	3766
3616.229	3643
3617.909	3678
3619.589	3635
3621.269	3705
3622.948	3660
3624.625	3619
3626.302	3699
3627.98	3572
3629.657	3680
3631.334	3674
3633.01	3620
3634.686	3677
3636.361	3631
3638.036	3592
3639.712	3675
3641.385	3639
3643.06	3625
3644.732	3569
3646.405	3599
3648.08	3626
3649.751	3562
3651.424	3506
3653.094	3574
3654.766	3545
3656.436	3578
3658.106	3528
3659.777	3571
3661.446	3617
3663.115	3512
3664.783	3647
3666.452	3531
3668.121	3461
3669.788	3553
3671.454	3539
3673.121	3526
3674.789	3541
3676.455	3579
3678.12	3481
3679.784	3484
3681.45	3534
3683.114	3593
3684.779	3543
3686.442	3487
3688.105	3515
3689.768	3449
3691.43	3532
3693.093	3382
3694.754	3475
3696.415	3457
3698.076	3482
3699.736	3498
3701.396	3546
3703.057	3468
3704.716	3471
3706.375	3436
3708.034	3500
3709.692	3399
3711.351	3417
3713.008	3517
3714.665	3462
3716.321	3449
3717.977	3440
3719.634	3466
3721.29	3443
3722.945	3442
3724.598	3404
3726.253	3388
3727.907	3414
3729.561	3377
3731.214	3456
3732.867	3439
3734.518	3388
3736.171	3427
3737.824	3421
3739.474	3310
3741.125	3390
3742.775	3344
3744.425	3364
3746.074	3362
3747.725	3370
3749.373	3426
3751.022	3354
3752.669	3369
3754.318	3383
3755.966	3388
3757.612	3292
3759.259	3311
3760.905	3362
3762.55	3426
3764.197	3372
3765.842	3313
3767.486	3382
3769.131	3452
3770.774	3414
3772.417	3370
3774.061	3335
3775.705	3342
3777.347	3342
3778.988	3281
3780.629	3341
3782.271	3363
3783.912	3325
3785.552	3383
3787.192	3233
3788.831	3347
3790.472	3308
3792.112	3307
3793.75	3235
3795.388	3216
3797.024	3249
3798.661	3276
3800.3	3279
3801.936	3281
3803.572	3255
3805.208	3211
3806.844	3243
3808.48	3307
3810.115	3267
3811.748	3217
3813.382	3272
3815.016	3266
3816.649	3260
3818.283	3241
3819.914	3245
3821.547	3203
3823.178	3261
3824.809	3202
3826.441	3239
3828.072	3176
3829.701	3233
3831.331	3210
3832.96	3249
3834.591	3214
3836.219	3228
3837.847	3169
3839.475	3192
3841.102	3175
3842.729	3165
3844.357	3119
3845.984	3175
3847.609	3191
3849.234	3203
3850.86	3244
3852.485	3105
3854.11	3232
3855.734	3182
3857.357	3193
3858.981	3051
3860.603	3203
3862.227	3189
3863.848	3124
3865.471	3092
3867.092	3142
3868.713	3150
3870.334	3102
3871.954	3157
3873.575	3218
3875.194	3119
3876.813	3033
3878.433	3158
3880.051	3111
3881.669	3140
3883.286	3198
3884.904	3214
3886.52	3136
3888.138	3080
3889.754	3055
3891.37	3019
3892.985	3132
3894.6	3120
3896.216	3133
3897.831	3141
3899.444	3131
3901.058	3174
3902.67	3151
3904.283	3123
3905.897	3001
3907.509	3031
3909.121	3123
3910.731	3100
3912.342	3061
3913.954	3099
3915.563	3112
3917.174	3088
3918.783	3027
3920.391	3092
3922.002	3169
3923.611	3106
3925.218	3079
3926.826	3019
3928.432	3067
3930.039	2947
3931.647	3121
3933.253	3182
3934.859	3094
3936.464	3016
3938.068	3026
3939.675	3106
3941.278	3046
3942.883	3004
3944.486	2986
3946.089	3021
3947.692	3071
3949.295	3018
3950.898	3037
3952.499	3034
3954.1	2978
3955.7	3044
3957.303	3045
3958.903	2958
3960.502	3040
3962.101	3033
3963.7	2967
3965.301	2930
3966.899	3075
3968.497	3101
3970.094	3003
3971.691	2949
3973.288	3006
3974.885	3000
3976.481	2909
3978.077	2961
3979.672	2967
3981.267	2921
3982.863	2874
3984.457	2972
3986.051	2873
3987.645	2935
3989.238	2877
3990.831	2939
3992.425	2905
3994.017	2947
3995.607	2914
3997.199	2896
3998.79	2948
4000.382	2912
4001.973	2851
4003.561	2866
4005.151	2929
4006.741	2981
4008.331	2968
4009.918	2887
4011.507	2902
4013.095	2921
4014.681	2886
4016.269	2881
4017.856	2854
4019.443	2912
4021.028	2861
4022.614	2859
4024.199	2852
4025.785	2864
4027.37	2758
4028.953	2888
4030.536	2866
4032.12	2855
4033.704	2836
4035.287	2803
4036.869	2815
4038.45	2867
4040.032	2783
4041.613	2750
4043.195	2749
4044.776	2827
4046.356	2877
4047.935	2829
4049.515	2854
4051.095	2803
4052.674	2828
4054.251	2786
4055.829	2813
4057.406	2791
4058.985	2788
4060.562	2797
4062.139	2764
4063.715	2775
4065.29	2815
4066.865	2754
4068.442	2796
4070.016	2829
4071.59	2720
4073.164	2836
4074.738	2713
4076.312	2838
4077.885	2707
4079.458	2823
4081.03	2778
4082.602	2730
4084.173	2718
4085.745	2782
4087.315	2755
4088.886	2758
4090.456	2776
4092.026	2760
4093.596	2676
4095.165	2725
4096.734	2718
4098.301	2701
4099.869	2716
4101.437	2752
4103.006	2762
4104.572	2670
4106.139	2768
4107.704	2757
4109.27	2705
4110.837	2715
4112.401	2752
4113.966	2712
4115.53	2753
4117.094	2719
4118.659	2672
4120.223	2715
4121.785	2736
4123.347	2748
4124.909	2689
4126.471	2636
4128.034	2665
4129.595	2720
4131.155	2671
4132.716	2690
4134.275	2675
4135.836	2634
4137.395	2628
4138.955	2648
4140.513	2656
4142.071	2675
4143.628	2683
4145.188	2624
4146.745	2609
4148.302	2626
4149.858	2626
4151.414	2588
4152.971	2635
4154.526	2644
4156.081	2643
4157.635	2604
4159.189	2608
4160.745	2678
4162.298	2539
4163.852	2610
4165.405	2602
4166.957	2602
4168.51	2576
4170.063	2564
4171.614	2618
4173.166	2555
4174.717	2587
4176.267	2599
4177.817	2555
4179.368	2586
4180.917	2563
4182.466	2540
4184.016	2568
4185.564	2566
4187.112	2537
4188.66	2529
4190.207	2528
4191.754	2526
4193.301	2542
4194.848	2593
4196.394	2656
4197.94	2573
4199.484	2489
4201.03	2542
4202.575	2598
4204.12	2488
4205.663	2532
4207.207	2553
4208.75	2525
4210.292	2570
4211.836	2498
4213.378	2493
4214.92	2502
4216.46	2528
4218.002	2548
4219.544	2536
4221.083	2518
4222.625	2457
4224.164	2458
4225.703	2524
4227.244	2451
4228.782	2488
4230.32	2502
4231.857	2520
4233.395	2533
4234.933	2517
4236.471	2450
4238.007	2546
4239.542	2494
4241.078	2501
4242.614	2446
4244.15	2473
4245.685	2466
4247.219	2494
4248.753	2489
4250.287	2521
4251.82	2501
4253.354	2448
4254.887	2462
4256.419	2529
4257.951	2502
4259.483	2504
4261.016	2385
4262.547	2465
4264.078	2457
4265.608	2403
4267.137	2437
4268.668	2481
4270.197	2506
4271.727	2503
4273.254	2404
4274.783	2376
4276.311	2424
4277.84	2421
4279.366	2436
4280.894	2335
4282.42	2464
4283.946	2389
4285.473	2411
4286.998	2409
4288.523	2409
4290.047	2423
4291.572	2366
4293.096	2363
4294.622	2395
4296.144	2389
4297.668	2416
4299.19	2398
4300.713	2351
4302.236	2366
4303.758	2389
4305.279	2405
4306.799	2450
4308.321	2400
4309.842	2370
4311.361	2333
4312.882	2343
4314.401	2323
