400.0961	4365
402.6185	4467
405.1424	4402
407.6635	4442
410.1838	4512
412.7035	4479
415.2225	4519
417.7388	4550
420.2585	4527
422.7754	4579
425.2917	4523
427.8072	4628
430.3221	4652
432.8363	4651
435.3498	4707
437.8626	4745
440.3727	4727
442.8841	4801
445.3969	4766
447.907	4798
450.4142	4733
452.9229	4687
455.4289	4737
457.9362	4678
460.4449	4664
462.9488	4735
465.454	4763
467.9566	4736
470.4604	4766
472.9637	4830
475.4662	4744
477.966	4746
480.4671	4702
482.9656	4781
485.4633	4745
487.9645	4763
490.4608	4817
492.9566	4823
495.4536	4739
497.948	4755
500.4437	4840
502.9387	4728
505.431	4896
507.9226	4859
510.4136	4838
512.9079	4736
515.3975	4920
517.8864	4819
520.3746	4823
522.8622	4850
525.3491	4946
527.8394	4859
530.3249	4878
532.8098	4955
535.2939	4930
537.7774	4860
540.2623	4862
542.7444	4882
545.2259	4924
547.7067	4939
550.1868	5031
552.6683	5006
555.147	4916
557.6231	4888
560.1005	4990
562.5773	4944
565.0534	4991
567.5308	5042
570.0056	5098
572.4776	5109
574.951	5044
577.4237	5097
579.8978	5193
582.3671	5164
584.8378	5084
587.3079	5136
589.7773	5146
592.244	5066
594.714	5122
597.1793	5190
599.6461	5145
602.1121	5173
604.5754	5058
607.0421	5117
609.5042	5087
611.9675	5140
614.4282	5138
616.8902	5118
619.3515	5064
621.8122	4993
624.2702	5036
626.7296	5109
629.1863	5005
631.6423	5116
634.1017	5114
636.5563	5163
639.0104	5087
641.4658	5113
643.9185	5133
646.3725	5042
648.8239	5125
651.2766	5142
653.7266	5081
656.176	5234
658.6247	5125
661.0748	5279
663.5242	5114
665.9709	5193
668.417	5091
670.8624	5201
673.3092	5293
675.7533	5249
678.1968	5134
680.6395	5235
683.0817	5207
685.5251	5316
687.9659	5385
690.4061	5287
692.8456	5280
695.2844	5337
697.7226	5242
700.1621	5355
702.599	5241
705.0332	5345
707.4688	5278
709.9036	5341
712.3399	5420
714.7735	5338
717.2044	5298
719.6367	5483
722.0683	5414
724.4993	5411
726.9296	5390
729.3593	5460
731.7883	5511
734.2147	5512
736.6423	5520
739.0714	5454
741.4958	5491
743.9216	5545
746.3447	5674
748.7691	5553
751.1929	5546
753.616	5561
756.0366	5628
758.4584	5661
760.8776	5607
763.2982	5662
765.718	5720
768.1373	5627
770.5539	5662
772.9698	5637
775.3871	5556
777.8038	5793
780.2178	5703
782.6332	5665
785.0459	5767
787.458	5681
789.8714	5649
792.2842	5620
794.6943	5767
797.1038	5716
799.5127	5622
801.9209	5705
804.3324	5722
806.7393	5650
809.1456	5753
811.5513	5615
813.9562	5694
816.3625	5718
818.7663	5763
821.1693	5766
823.5718	5793
825.9735	5801
828.3746	5729
830.7771	5755
833.177	5783
835.5762	5780
837.9747	5825
840.3727	5737
842.772	5716
845.1666	5769
847.5626	5883
849.958	5881
852.3527	5878
854.7488	5883
857.1403	5922
859.5331	5980
861.9253	5947
864.3168	5849
866.7057	5967
869.098	5846
871.4876	5795
873.8746	5824
876.263	5887
878.6487	5942
881.0378	5890
883.4243	6032
885.8081	5982
888.1933	5701
890.5759	5824
892.9598	5850
895.343	5850
897.7256	5874
900.1057	5810
902.4871	5869
904.8659	5887
907.246	5833
909.6254	5983
912.0023	5999
914.3786	6068
916.7562	6154
919.1331	6051
921.5074	6041
923.8831	6178
926.2562	6132
928.6287	6163
931.0005	6154
933.3757	6202
935.7462	6227
938.1162	6171
940.4855	6269
942.8542	6475
945.2242	6333
947.5916	6418
949.9584	6552
952.3266	6668
954.6921	7056
957.0571	7111
959.4233	7391
961.787	7409
964.15	7351
966.5125	7241
968.8742	7108
971.2354	6821
973.5959	6665
975.9559	6426
978.3151	6370
980.6738	6356
983.0338	6306
985.3912	6234
987.7461	6114
990.1022	6147
992.4578	6022
994.8127	6064
997.1689	6146
999.5207	6086
1001.874	6112
1004.226	6278
1006.576	6126
1008.929	6199
1011.28	6143
1013.628	6190
1015.977	6082
1018.324	6014
1020.674	5949
1023.019	6153
1025.366	6147
1027.713	6248
1030.056	6121
1032.399	6210
1034.746	6111
1037.087	6264
1039.431	6282
1041.771	6178
1044.113	6181
1046.454	6206
1048.793	6340
1051.133	6216
1053.471	6218
1055.807	6313
1058.146	6297
1060.483	6319
1062.818	6269
1065.153	6301
1067.489	6330
1069.822	6289
1072.156	6336
1074.488	6369
1076.82	6393
1079.15	6344
1081.48	6317
1083.814	6372
1086.143	6251
1088.471	6212
1090.799	6330
1093.126	6235
1095.452	6224
1097.78	6325
1100.105	6291
1102.43	6184
1104.754	6233
1107.077	6184
1109.4	6297
1111.722	6205
1114.044	6292
1116.365	6280
1118.685	6290
1121.005	6287
1123.324	6206
1125.643	6249
1127.961	6335
1130.278	6306
1132.595	6373
1134.911	6262
1137.226	6362
1139.541	6338
1141.854	6224
1144.167	6273
1146.482	6310
1148.793	6345
1151.105	6190
1153.414	6237
1155.725	6287
1158.033	6223
1160.344	6339
1162.651	6344
1164.959	6300
1167.265	6387
1169.572	6384
1171.878	6361
1174.184	6230
1176.488	6254
1178.79	6282
1181.094	6360
1183.396	6378
1185.699	6400
1188.001	6263
1190.301	6271
1192.6	6208
1194.9	6311
1197.2	6288
1199.497	6345
1201.794	6300
1204.09	6371
1206.387	6395
1208.684	6387
1210.978	6345
1213.272	6379
1215.565	6306
1217.858	6337
1220.15	6401
1222.443	6262
1224.734	6305
1227.024	6378
1229.313	6469
1231.602	6473
1233.892	6430
1236.18	6617
1238.467	6457
1240.754	6520
1243.04	6609
1245.325	6565
1247.612	6495
1249.896	6603
1252.178	6510
1254.461	6568
1256.743	6589
1259.027	6586
1261.308	6541
1263.587	6493
1265.867	6701
1268.146	6655
1270.425	6603
1272.703	6655
1274.981	6593
1277.256	6492
1279.532	6455
1281.808	6647
1284.083	6450
1286.358	6474
1288.63	6478
1290.904	6424
1293.175	6543
1295.449	6526
1297.719	6435
1299.99	6551
1302.259	6524
1304.529	6572
1306.798	6477
1309.065	6554
1311.333	6455
1313.599	6525
1315.866	6416
1318.131	6508
1320.396	6468
1322.66	6328
1324.925	6510
1327.187	6495
1329.448	6520
1331.711	6590
1333.974	6502
1336.234	6606
1338.493	6514
1340.752	6592
1343.01	6489
1345.269	6546
1347.526	6462
1349.784	6539
1352.04	6533
1354.295	6493
1356.552	6575
1358.806	6548
1361.059	6545
1363.312	6469
1365.564	6462
1367.818	6479
1370.069	6510
1372.318	6530
1374.568	6532
1376.817	6558
1379.066	6521
1381.316	6589
1383.564	6560
1385.809	6462
1388.056	6599
1390.301	6545
1392.549	6668
1394.793	6688
1397.036	6632
1399.279	6644
1401.522	6805
1403.763	6850
1406.007	6762
1408.248	6728
1410.487	6792
1412.727	6789
1414.965	6708
1417.205	6729
1419.442	6751
1421.68	6820
1423.915	6817
1426.152	6812
1428.388	6728
1430.623	6793
1432.857	6709
1435.091	6826
1437.323	6786
1439.556	6858
1441.789	6764
1444.019	6760
1446.25	6764
1448.48	6766
1450.708	6884
1452.938	6880
1455.167	6849
1457.394	6891
1459.62	6815
1461.846	6856
1464.073	6899
1466.299	6786
1468.523	6729
1470.746	6622
1472.969	6855
1475.191	6766
1477.415	6752
1479.636	6579
1481.858	6683
1484.078	6633
1486.298	6487
1488.518	6476
1490.736	6541
1492.954	6561
1495.169	6525
1497.386	6560
1499.602	6528
1501.819	6526
1504.034	6478
1506.248	6532
1508.462	6477
1510.675	6458
1512.888	6587
1515.1	6498
1517.311	6478
1519.522	6409
1521.732	6577
1523.942	6484
1526.151	6400
1528.36	6515
1530.566	6432
1532.773	6456
1534.98	6543
1537.187	6443
1539.392	6485
1541.596	6545
1543.801	6500
1546.005	6713
1548.208	6584
1550.411	6603
1552.612	6575
1554.814	6610
1557.013	6673
1559.212	6649
1561.414	6724
1563.612	6670
1565.811	6500
1568.007	6616
1570.203	6653
1572.403	6724
1574.598	6730
1576.792	6567
1578.988	6624
1581.181	6653
1583.376	6763
1585.568	6595
1587.761	6715
1589.952	6683
1592.143	6771
1594.333	6680
1596.524	6758
1598.715	6709
1600.903	6786
1603.091	6806
1605.278	6702
1607.466	6694
1609.652	6675
1611.838	6699
1614.023	6750
1616.207	6728
1618.391	6809
1620.576	6688
1622.759	6829
1624.941	6817
1627.123	6833
1629.304	6739
1631.484	6873
1633.664	6733
1635.844	6924
1638.022	6863
1640.201	6848
1642.38	6752
1644.556	6819
1646.732	6777
1648.908	6713
1651.084	6888
1653.257	6850
1655.433	6891
1657.607	6909
1659.779	6935
1661.951	6749
1664.122	6977
1666.295	6944
1668.467	6834
1670.635	6975
1672.805	6928
1674.973	6837
1677.142	6669
1679.31	6887
1681.478	6858
1683.644	6924
1685.81	6835
1687.975	6878
1690.142	6910
1692.305	6759
1694.468	6800
1696.632	6709
1698.794	6766
1700.957	6722
1703.119	6687
1705.279	6746
1707.439	6736
1709.598	6754
1711.758	6797
1713.917	6659
1716.075	6799
1718.231	6706
1720.388	6712
1722.543	6661
1724.702	6775
1726.856	6721
1729.01	6719
1731.164	6705
1733.317	6900
1735.471	6856
1737.623	6607
1739.774	6786
1741.925	6807
1744.075	6681
1746.225	6689
1748.376	6723
1750.524	6646
1752.672	6661
1754.82	6698
1756.965	6837
1759.113	6795
1761.259	6751
1763.405	6733
1765.549	6714
1767.694	6828
1769.836	6768
1771.981	6718
1774.123	6734
1776.264	6680
1778.405	6705
1780.546	6727
1782.687	6726
1784.827	6700
1786.966	6883
1789.103	6686
1791.242	6754
1793.381	6802
1795.517	6651
1797.653	6759
1799.788	6857
1801.923	6741
1804.057	6834
1806.193	6818
1808.326	6782
1810.457	6794
1812.59	6748
1814.721	6867
1816.855	6660
1818.984	6786
1821.113	6757
1823.244	6736
1825.372	6803
1827.499	6769
1829.63	6897
1831.756	6843
1833.882	6869
1836.007	6719
1838.132	6776
1840.26	6723
1842.384	6659
1844.507	6750
1846.63	6785
1848.752	6688
1850.875	6652
1852.996	6822
1855.118	6712
1857.238	6744
1859.358	6624
1861.477	6704
1863.597	6811
1865.715	6681
1867.832	6740
1869.948	6677
1872.064	6695
1874.181	6765
1876.297	6698
1878.411	6610
1880.526	6695
1882.639	6766
1884.752	6636
1886.865	6824
1888.977	6651
1891.089	6652
1893.2	6649
1895.308	6650
1897.42	6836
1899.53	6652
1901.639	6832
1903.745	6807
1905.853	6741
1907.962	6813
1910.067	6844
1912.174	6792
1914.278	6843
1916.383	6916
1918.486	6734
1920.592	6788
1922.694	6838
1924.797	6745
1926.898	6834
1929	6835
1931.102	6790
1933.203	6908
1935.301	6835
1937.401	6971
1939.499	6704
1941.598	6884
1943.697	6772
1945.793	6780
1947.888	6721
1949.985	6791
1952.08	6668
1954.176	6725
1956.269	6672
1958.364	6845
1960.457	6897
1962.549	6896
1964.642	6787
1966.733	6848
1968.823	6827
1970.913	6805
1973.005	6868
1975.093	6734
1977.184	6700
1979.271	6778
1981.359	6941
1983.446	6796
1985.532	6758
1987.619	6831
1989.705	6785
1991.789	6643
1993.874	6773
1995.956	6770
1998.041	6771
2000.123	6728
2002.206	6668
2004.287	6879
2006.368	6746
2008.449	6611
2010.529	6736
2012.609	6735
2014.688	6775
2016.766	6721
2018.843	6654
2020.922	6728
2022.999	6720
2025.074	6772
2027.15	6725
2029.225	6726
2031.299	6659
2033.375	6731
2035.447	6681
2037.52	6830
2039.592	6723
2041.664	6805
2043.736	6684
2045.807	6682
2047.876	6717
2049.947	6776
2052.015	6696
2054.086	6842
2056.153	6827
2058.221	6676
2060.288	6735
2062.353	6835
2064.42	6742
2066.486	6693
2068.55	6804
2070.614	6730
2072.678	6798
2074.741	6776
2076.805	6705
2078.866	6731
2080.929	6721
2082.99	6788
2085.049	6726
2087.109	6719
2089.17	6799
2091.228	6742
2093.286	6735
2095.344	6899
2097.4	6715
2099.46	6742
2101.516	6722
2103.572	6734
2105.626	6717
2107.679	6703
2109.735	6808
2111.788	6722
2113.841	6692
2115.894	6925
2117.945	6776
2119.997	6691
2122.049	6723
2124.1	6774
2126.148	6688
2128.197	6650
2130.246	6667
2132.296	6768
2134.342	6723
2136.39	6700
2138.437	6640
2140.483	6802
2142.527	6568
2144.574	6757
2146.619	6650
2148.661	6720
2150.705	6617
2152.747	6716
2154.792	6714
2156.832	6703
2158.874	6703
2160.915	6729
2162.954	6667
2164.995	6705
2167.034	6680
2169.072	6659
2171.111	6673
2173.148	6633
2175.186	6570
2177.223	6643
2179.258	6677
2181.294	6690
2183.328	6707
2185.362	6704
2187.398	6492
2189.431	6716
2191.463	6551
2193.495	6547
2195.528	6585
2197.56	6602
2199.59	6506
2201.62	6594
2203.649	6648
2205.678	6608
2207.708	6555
2209.737	6566
2211.764	6577
2213.791	6486
2215.817	6636
2217.843	6504
2219.87	6638
2221.895	6412
2223.919	6465
2225.942	6527
2227.966	6597
2229.988	6441
2232.012	6588
2234.032	6541
2236.054	6489
2238.074	6380
2240.095	6523
2242.116	6496
2244.135	6419
2246.153	6561
2248.171	6367
2250.188	6502
2252.208	6512
2254.223	6531
2256.239	6524
2258.255	6430
2260.269	6510
2262.283	6433
2264.3	6568
2266.312	6570
2268.325	6483
2270.336	6521
2272.349	6561
2274.362	6554
2276.372	6513
2278.383	6454
2280.392	6581
2282.402	6541
2284.409	6577
2286.418	6492
2288.427	6578
2290.433	6542
2292.441	6522
2294.446	6516
2296.453	6437
2298.459	6422
2300.463	6395
2302.466	6433
2304.471	6501
2306.475	6455
2308.477	6404
2310.478	6404
2312.481	6418
2314.481	6495
2316.481	6434
2318.482	6476
2320.482	6467
2322.48	6440
2324.48	6453
2326.478	6590
2328.476	6491
2330.473	6487
2332.469	6410
2334.465	6515
2336.46	6341
2338.454	6435
2340.45	6403
2342.444	6453
2344.437	6241
2346.43	6329
2348.421	6370
2350.414	6315
2352.405	6324
2354.396	6399
2356.386	6444
2358.376	6399
2360.366	6343
2362.355	6493
2364.343	6262
2366.331	6443
2368.317	6430
2370.304	6338
2372.292	6307
2374.278	6394
2376.262	6379
2378.247	6362
2380.23	6339
2382.216	6231
2384.199	6264
2386.181	6338
2388.163	6344
2390.144	6343
2392.127	6333
2394.107	6328
2396.087	6284
2398.066	6384
2400.046	6283
2402.023	6163
2404.004	6356
2405.981	6234
2407.957	6162
2409.934	6257
2411.91	6208
2413.886	6349
2415.862	6278
2417.836	6337
2419.809	6344
2421.784	6318
2423.756	6162
2425.73	6172
2427.701	6306
2429.672	6339
2431.644	6237
2433.615	6254
2435.586	6307
2437.555	6283
2439.523	6333
2441.491	6250
2443.459	6241
2445.428	6214
2447.395	6130
2449.361	6327
2451.327	6330
2453.292	6244
2455.257	6188
2457.223	6161
2459.187	6182
2461.15	6240
2463.113	6257
2465.076	6113
2467.039	6183
2468.999	6230
2470.96	6214
2472.921	6229
2474.881	6176
2476.841	6160
2478.8	6259
2480.759	6146
2482.717	6111
2484.675	6214
2486.63	6160
2488.589	6139
2490.545	6029
2492.5	6142
2494.455	6132
2496.408	6040
2498.364	6039
2500.318	6160
2502.27	6143
2504.223	6129
2506.174	6112
2508.126	6126
2510.078	6194
2512.03	6011
2513.979	6089
2515.927	6146
2517.877	6092
2519.826	6123
2521.775	6097
2523.722	6224
2525.668	6188
2527.616	6076
2529.561	6137
2531.508	6095
2533.452	6001
2535.398	5997
2537.342	6223
2539.284	5976
2541.229	6150
2543.173	6039
2545.114	6033
2547.055	6100
2548.996	6088
2550.938	6050
2552.878	6040
2554.817	5981
2556.756	6005
2558.695	6079
2560.633	5993
2562.572	6067
2564.509	6191
2566.445	6030
2568.382	6049
2570.317	6043
2572.254	6148
2574.189	6039
2576.123	6031
2578.057	6103
2579.99	6100
2581.923	6074
2583.855	6077
2585.788	6121
2587.719	6034
2589.65	6256
2591.579	6185
2593.511	6180
2595.44	6185
2597.37	6029
2599.297	6085
2601.225	6039
2603.153	6011
2605.08	6063
2607.007	6046
2608.932	6084
2610.858	6065
2612.782	6032
2614.709	6142
2616.632	6020
2618.556	6155
2620.478	6081
2622.401	5947
2624.324	6033
2626.247	6035
2628.167	6071
2630.088	6007
2632.008	6080
2633.928	6083
2635.848	6143
2637.766	6048
2639.684	6062
2641.603	6026
2643.519	6071
2645.437	5956
2647.353	6138
2649.27	6139
2651.184	6061
2653.099	6095
2655.014	5942
2656.928	5909
2658.842	6183
2660.755	6060
2662.667	6019
2664.579	6019
2666.491	6065
2668.402	5988
2670.312	6047
2672.222	6055
2674.132	6057
2676.042	6007
2677.951	6128
2679.859	5944
2681.766	5984
2683.674	6064
2685.582	6014
2687.488	6062
2689.392	6044
2691.298	5926
2693.202	5956
2695.107	5926
2697.012	6061
2698.914	5952
2700.817	6012
2702.72	6032
2704.622	6008
2706.524	5979
2708.425	5905
2710.326	6001
2712.225	5952
2714.125	5909
2716.024	5960
2717.923	5865
2719.822	5916
2721.719	5862
2723.616	5870
2725.512	6006
2727.41	5891
2729.305	5989
2731.201	5951
2733.095	5940
2734.99	5956
2736.884	5964
2738.778	5894
2740.67	5926
2742.562	5872
2744.455	5752
2746.346	5914
2748.238	5950
2750.129	5893
2752.018	5906
2753.907	5944
2755.797	5827
2757.687	5803
2759.575	5918
2761.462	5844
2763.349	5906
2765.237	5902
2767.124	5816
2769.009	5911
2770.894	5875
2772.779	5888
2774.663	5894
2776.547	5998
2778.431	5834
2780.314	5918
2782.197	5830
2784.078	5820
2785.96	5856
2787.842	5775
2789.723	5846
2791.603	5901
2793.483	5819
2795.362	5697
2797.241	5818
2799.121	5782
2800.997	5755
2802.874	5900
2804.751	5872
2806.628	5799
2808.506	5862
2810.38	5815
2812.255	5823
2814.13	5721
2816.003	5867
2817.878	5841
2819.752	5864
2821.623	5831
2823.496	5782
2825.368	5777
2827.238	5793
2829.111	5829
2830.98	5821
2832.851	5845
2834.719	5880
2836.589	5933
2838.458	5751
2840.327	5776
2842.193	5880
2844.061	5853
2845.927	5919
2847.794	5968
2849.66	5843
2851.525	5848
2853.39	5822
2855.254	5935
2857.117	5890
2858.983	5891
2860.845	5899
2862.707	5926
2864.569	6023
2866.431	6026
2868.293	5947
2870.154	6000
2872.013	6062
2873.873	6144
2875.733	6183
2877.592	6234
2879.451	6159
2881.309	6331
2883.166	6234
2885.022	6446
2886.879	6366
2888.736	6342
2890.591	6282
2892.446	6450
2894.301	6457
2896.155	6494
2898.009	6352
2899.863	6305
2901.716	6337
2903.568	6335
2905.419	6346
2907.27	6191
2909.123	6288
2910.973	6343
2912.824	6382
2914.673	6364
2916.521	6533
2918.372	6573
2920.22	6523
2922.067	6445
2923.914	6568
2925.761	6683
2927.607	6760
2929.455	6806
2931.301	6707
2933.144	6936
2934.99	6747
2936.833	6881
2938.678	6995
2940.522	6940
2942.364	7055
2944.207	7038
2946.048	7214
2947.891	7161
2949.731	7240
2951.571	7257
2953.412	7182
2955.25	7092
2957.09	7030
2958.93	6948
2960.767	6871
2962.606	6953
2964.443	6848
2966.279	6859
2968.116	6678
2969.953	6694
2971.788	6593
2973.623	6580
2975.457	6574
2977.292	6522
2979.127	6411
2980.959	6378
2982.792	6419
2984.624	6291
2986.455	6266
2988.288	6263
2990.119	6205
2991.949	6228
2993.779	6224
2995.608	6061
2997.439	6079
2999.268	6134
3001.096	5968
3002.923	6039
3004.751	5955
3006.578	5943
3008.406	5936
3010.232	5825
3012.057	5769
3013.883	5803
3015.706	5833
3017.532	5691
3019.356	5695
3021.179	5621
3023.002	5659
3024.823	5533
3026.646	5599
3028.469	5517
3030.289	5589
3032.11	5524
3033.93	5509
3035.749	5421
3037.57	5548
3039.39	5503
3041.207	5552
3043.026	5508
3044.842	5440
3046.661	5563
3048.477	5457
3050.294	5432
3052.109	5462
3053.925	5446
3055.739	5326
3057.555	5420
3059.368	5469
3061.181	5502
3062.995	5460
3064.807	5452
3066.62	5406
3068.433	5505
3070.243	5417
3072.054	5411
3073.865	5453
3075.675	5463
3077.485	5447
3079.293	5406
3081.102	5380
3082.911	5376
3084.719	5264
3086.527	5324
3088.333	5327
3090.139	5331
3091.945	5255
3093.75	5329
3095.557	5268
3097.361	5355
3099.165	5296
3100.969	5325
3102.772	5247
3104.575	5242
3106.379	5193
3108.181	5244
3109.982	5182
3111.783	5209
3113.584	5277
3115.386	5301
3117.186	5329
3118.985	5322
3120.783	5217
3122.582	5227
3124.381	5185
3126.179	5206
3127.975	5162
3129.772	5160
3131.569	5212
3133.365	5092
3135.161	5153
3136.956	5166
3138.751	5149
3140.544	5245
3142.338	5221
3144.132	5181
3145.925	5218
3147.717	5184
3149.509	5138
3151.301	5094
3153.091	5158
3154.884	5101
3156.673	5128
3158.462	5191
3160.252	5091
3162.041	5085
3163.831	4991
3165.618	5087
3167.405	5102
3169.193	5149
3170.979	5076
3172.767	4992
3174.553	5159
3176.338	4982
3178.123	4975
3179.907	4989
3181.692	5173
3183.477	5171
3185.259	5144
3187.042	4997
3188.824	5090
3190.607	5021
3192.389	5086
3194.17	5061
3195.951	5034
3197.73	5053
3199.51	5092
3201.289	5086
3203.07	5202
3204.848	5048
3206.626	4969
3208.403	5118
3210.18	5072
3211.959	5070
3213.735	5032
3215.511	5081
3217.285	4977
3219.06	5056
3220.836	5109
3222.611	5092
3224.384	5040
3226.158	5120
3227.929	5086
3229.702	5054
3231.476	5015
3233.248	4993
3235.018	5094
3236.789	5012
3238.56	5029
3240.33	4956
3242.1	5126
3243.869	5103
3245.637	5012
3247.405	4991
3249.172	4996
3250.941	5017
3252.707	4978
3254.474	5030
3256.24	5080
3258.006	4950
3259.772	5086
3261.537	5036
3263.301	5148
3265.065	5024
3266.828	5052
3268.592	5016
3270.355	5100
3272.117	4986
3273.878	5014
3275.64	5005
3277.401	4957
3279.162	5007
3280.922	5002
3282.682	4973
3284.441	5048
3286.199	5052
3287.959	4993
3289.716	4986
3291.475	4975
3293.232	5100
3294.988	5016
3296.744	4982
3298.501	5079
3300.256	4916
3302.011	4983
3303.766	5003
3305.52	4924
3307.275	4985
3309.028	4916
3310.781	4911
3312.533	5008
3314.285	5001
3316.038	4969
3317.789	4917
3319.54	4907
3321.289	4933
3323.039	5107
3324.789	5004
3326.539	4956
3328.288	4939
3330.035	4996
3331.783	4890
3333.531	4973
3335.28	4923
3337.025	4886
3338.771	5014
3340.518	4879
3342.262	4790
3344.009	4895
3345.753	4876
3347.497	4970
3349.24	4927
3350.983	4855
3352.726	4902
3354.469	4933
3356.212	4843
3357.952	4774
3359.694	4924
3361.434	4832
3363.176	4854
3364.916	4897
3366.654	4897
3368.394	4928
3370.132	4934
3371.871	4792
3373.61	4906
3375.346	4865
3377.083	4788
3378.82	4884
3380.556	4780
3382.292	4827
3384.027	4615
3385.763	4845
3387.497	4801
3389.231	4797
3390.965	4789
3392.698	4841
3394.431	4746
3396.164	4806
3397.896	4774
3399.627	4706
3401.36	4785
3403.09	4753
3404.82	4796
3406.55	4751
3408.279	4726
3410.01	4730
3411.738	4632
3413.467	4717
3415.194	4776
3416.92	4755
3418.647	4760
3420.375	4667
3422.102	4753
3423.827	4742
3425.553	4683
3427.277	4756
3429.003	4719
3430.727	4666
3432.451	4801
3434.173	4692
3435.896	4645
3437.62	4586
3439.343	4648
3441.063	4662
3442.785	4673
3444.505	4693
3446.226	4597
3447.948	4652
3449.666	4681
3451.386	4541
3453.104	4551
3454.823	4765
3456.541	4557
3458.259	4646
3459.976	4612
3461.693	4600
3463.408	4617
3465.125	4563
3466.841	4578
3468.556	4550
3470.271	4486
3471.985	4492
3473.698	4539
3475.414	4595
3477.126	4573
3478.838	4524
3480.55	4526
3482.263	4535
3483.975	4499
3485.686	4462
3487.396	4501
3489.106	4517
3490.817	4408
3492.526	4480
3494.236	4454
3495.944	4494
3497.652	4443
3499.359	4405
3501.066	4372
3502.775	4449
3504.481	4471
3506.187	4471
3507.893	4428
3509.598	4410
3511.304	4446
3513.009	4334
3514.713	4361
3516.417	4346
3518.12	4303
3519.821	4292
3521.525	4329
3523.228	4332
3524.929	4329
3526.631	4284
3528.33	4338
3530.032	4358
3531.733	4395
3533.433	4313
3535.131	4289
3536.83	4356
3538.529	4319
3540.227	4275
3541.925	4204
3543.623	4324
3545.319	4208
3547.016	4328
3548.712	4306
3550.408	4277
3552.103	4260
3553.798	4264
3555.491	4295
3557.188	4236
3558.88	4263
3560.574	4292
3562.266	4203
3563.959	4248
3565.651	4309
3567.343	4220
3569.035	4249
3570.725	4284
3572.415	4217
3574.106	4246
3575.797	4149
3577.485	4220
3579.174	4173
3580.863	4149
3582.551	4189
3584.238	4169
3585.926	4172
3587.613	4195
3589.3	4159
3590.986	4165
3592.671	4114
3594.357	4164
3596.042	4093
3597.726	4132
3599.41	4093
3601.094	4069
3602.778	4130
3604.461	4022
3606.143	4083
3607.825	4208
3609.507	4072
3611.188	4072
3612.87	4065
3614.551	4005
3616.229	4095
3617.909	4055
3619.589	4046
3621.269	4094
3622.948	4042
3624.625	3950
3626.302	3967
3627.98	4039
3629.657	3991
3631.334	4004
3633.01	4023
3634.686	3913
3636.361	4017
3638.036	4012
3639.712	3945
3641.385	4016
3643.06	3933
3644.732	3864
3646.405	3898
3648.08	3922
3649.751	4007
3651.424	3840
3653.094	3916
3654.766	3880
3656.436	3890
3658.106	3882
3659.777	3856
3661.446	3943
3663.115	3932
3664.783	3895
3666.452	3857
3668.121	3932
3669.788	3945
3671.454	3899
3673.121	3824
3674.789	3831
3676.455	3903
3678.12	3906
3679.784	3904
3681.45	3845
3683.114	3880
3684.779	3933
3686.442	3831
3688.105	3908
3689.768	3818
3691.43	3830
3693.093	3788
3694.754	3795
3696.415	3770
3698.076	3842
3699.736	3850
3701.396	3888
3703.057	3762
3704.716	3826
3706.375	3821
3708.034	3880
3709.692	3724
3711.351	3775
3713.008	3846
3714.665	3839
3716.321	3842
3717.977	3831
3719.634	3779
3721.29	3812
3722.945	3762
3724.598	3773
3726.253	3889
3727.907	3692
3729.561	3782
3731.214	3711
3732.867	3752
3734.518	3685
3736.171	3784
3737.824	3794
3739.474	3775
3741.125	3737
3742.775	3772
3744.425	3710
3746.074	3719
3747.725	3693
3749.373	3759
3751.022	3703
3752.669	3777
3754.318	3709
3755.966	3639
3757.612	3763
3759.259	3726
3760.905	3709
3762.55	3755
3764.197	3687
3765.842	3697
3767.486	3641
3769.131	3776
3770.774	3649
3772.417	3655
3774.061	3678
3775.705	3670
3777.347	3660
3778.988	3684
3780.629	3628
3782.271	3609
3783.912	3547
3785.552	3648
3787.192	3697
3788.831	3562
3790.472	3565
3792.112	3628
3793.75	3592
3795.388	3579
3797.024	3645
3798.661	3531
3800.3	3583
3801.936	3621
3803.572	3595
3805.208	3586
3806.844	3610
3808.48	3585
3810.115	3617
3811.748	3549
3813.382	3592
3815.016	3594
3816.649	3530
3818.283	3583
3819.914	3550
3821.547	3490
3823.178	3537
3824.809	3546
3826.441	3567
3828.072	3572
3829.701	3615
3831.331	3509
3832.96	3521
3834.591	3491
3836.219	3566
3837.847	3487
3839.475	3550
3841.102	3530
3842.729	3529
3844.357	3468
3845.984	3521
3847.609	3545
3849.234	3568
3850.86	3483
3852.485	3469
3854.11	3436
3855.734	3476
3857.357	3437
3858.981	3482
3860.603	3504
3862.227	3501
3863.848	3465
3865.471	3461
3867.092	3501
3868.713	3448
3870.334	3485
3871.954	3453
3873.575	3546
3875.194	3438
3876.813	3466
3878.433	3446
3880.051	3408
3881.669	3438
3883.286	3440
3884.904	3418
3886.52	3439
3888.138	3414
3889.754	3415
3891.37	3475
3892.985	3378
3894.6	3480
3896.216	3393
3897.831	3361
3899.444	3372
3901.058	3463
3902.67	3327
3904.283	3438
3905.897	3375
3907.509	3330
3909.121	3415
3910.731	3412
3912.342	3346
3913.954	3455
3915.563	3433
3917.174	3387
3918.783	3329
3920.391	3433
3922.002	3443
3923.611	3409
3925.218	3355
3926.826	3364
3928.432	3331
3930.039	3354
3931.647	3362
3933.253	3274
3934.859	3318
3936.464	3393
3938.068	3392
3939.675	3332
3941.278	3306
3942.883	3381
3944.486	3279
3946.089	3379
3947.692	3312
3949.295	3299
3950.898	3306
3952.499	3271
3954.1	3321
3955.7	3375
3957.303	3310
3958.903	3295
3960.502	3290
3962.101	3250
3963.7	3359
3965.301	3264
3966.899	3258
3968.497	3225
3970.094	3212
3971.691	3263
3973.288	3284
3974.885	3279
3976.481	3252
3978.077	3249
3979.672	3180
3981.267	3254
3982.863	3252
3984.457	3266
3986.051	3251
3987.645	3257
3989.238	3229
3990.831	3132
3992.425	3243
3994.017	3177
3995.607	3245
3997.199	3130
3998.79	3198
4000.382	3245
4001.973	3169
4003.561	3152
4005.151	3179
4006.741	3200
4008.331	3124
4009.918	3145
4011.507	3217
4013.095	3156
4014.681	3124
4016.269	3126
4017.856	3164
4019.443	3136
4021.028	3146
4022.614	3134
4024.199	3113
4025.785	3104
4027.37	3132
4028.953	3101
4030.536	3077
4032.12	3127
4033.704	3043
4035.287	3089
4036.869	3146
4038.45	3078
4040.032	3109
4041.613	3079
4043.195	3165
4044.776	3092
4046.356	3031
4047.935	2988
4049.515	3166
4051.095	3102
4052.674	3044
4054.251	3051
4055.829	3031
4057.406	3065
4058.985	3042
4060.562	3080
4062.139	3025
4063.715	3050
4065.29	3066
4066.865	3082
4068.442	3001
4070.016	3070
4071.59	3002
4073.164	3037
4074.738	2967
4076.312	3039
4077.885	2993
4079.458	3075
4081.03	2993
4082.602	2988
4084.173	2973
4085.745	3004
4087.315	3045
4088.886	2969
4090.456	3001
4092.026	3001
4093.596	2998
4095.165	3006
4096.734	2956
4098.301	3020
4099.869	2964
4101.437	2958
4103.006	2969
4104.572	2920
4106.139	2966
4107.704	2967
4109.27	2953
4110.837	2955
4112.401	2884
4113.966	2993
4115.53	2937
4117.094	2943
4118.659	2980
4120.223	3011
4121.785	2974
4123.347	2914
4124.909	2943
4126.471	2948
4128.034	2897
4129.595	2929
4131.155	2930
4132.716	2918
4134.275	2911
4135.836	2931
4137.395	2966
4138.955	2910
4140.513	2796
4142.071	2855
4143.628	2882
4145.188	2835
4146.745	2925
4148.302	2769
4149.858	2882
4151.414	2899
4152.971	2832
4154.526	2869
4156.081	2867
4157.635	2825
4159.189	2894
4160.745	2871
4162.298	2813
4163.852	2828
4165.405	2791
4166.957	2878
4168.51	2886
4170.063	2878
4171.614	2867
4173.166	2835
4174.717	2843
4176.267	2767
4177.817	2819
4179.368	2816
4180.917	2803
4182.466	2746
4184.016	2806
4185.564	2743
4187.112	2753
4188.66	2780
4190.207	2749
4191.754	2754
4193.301	2739
4194.848	2735
4196.394	2711
4197.94	2746
4199.484	2792
4201.03	2785
4202.575	2770
4204.12	2735
4205.663	2821
4207.207	2796
4208.75	2713
4210.292	2705
4211.836	2779
4213.378	2694
4214.92	2733
4216.46	2667
4218.002	2727
4219.544	2727
4221.083	2741
4222.625	2677
4224.164	2752
4225.703	2714
4227.244	2749
4228.782	2637
4230.32	2740
4231.857	2662
4233.395	2748
4234.933	2750
4236.471	2674
4238.007	2701
4239.542	2744
4241.078	2694
4242.614	2700
4244.15	2682
4245.685	2720
4247.219	2672
4248.753	2693
4250.287	2715
4251.82	2626
4253.354	2631
4254.887	2662
4256.419	2644
4257.951	2613
4259.483	2664
4261.016	2617
4262.547	2644
4264.078	2683
4265.608	2638
4267.137	2661
4268.668	2669
4270.197	2694
4271.727	2628
4273.254	2694
4274.783	2614
4276.311	2624
4277.84	2660
4279.366	2611
4280.894	2661
4282.42	2623
4283.946	2574
4285.473	2600
4286.998	2606
4288.523	2592
4290.047	2589
4291.572	2606
4293.096	2645
4294.622	2575
4296.144	2604
4297.668	2549
4299.19	2701
4300.713	2596
4302.236	2544
4303.758	2577
4305.279	2585
4306.799	2553
4308.321	2587
4309.842	2593
4311.361	2618
4312.882	2572
4314.401	2558
