400.0961	5019
402.6185	5040
405.1424	5041
407.6635	5129
410.1838	5068
412.7035	5109
415.2225	5182
417.7388	5119
420.2585	5287
422.7754	5208
425.2917	5292
427.8072	5362
430.3221	5355
432.8363	5329
435.3498	5417
437.8626	5485
440.3727	5431
442.8841	5476
445.3969	5401
447.907	5437
450.4142	5397
452.9229	5425
455.4289	5394
457.9362	5350
460.4449	5430
462.9488	5277
465.454	5329
467.9566	5359
470.4604	5408
472.9637	5384
475.4662	5326
477.966	5442
480.4671	5441
482.9656	5367
485.4633	5570
487.9645	5498
490.4608	5520
492.9566	5430
495.4536	5510
497.948	5536
500.4437	5570
502.9387	5583
505.431	5569
507.9226	5618
510.4136	5608
512.9079	5590
515.3975	5592
517.8864	5547
520.3746	5625
522.8622	5737
525.3491	5564
527.8394	5494
530.3249	5576
532.8098	5716
535.2939	5599
537.7774	5565
540.2623	5725
542.7444	5650
545.2259	5679
547.7067	5531
550.1868	5696
552.6683	5747
555.147	5637
557.6231	5653
560.1005	5670
562.5773	5676
565.0534	5650
567.5308	5799
570.0056	5805
572.4776	5740
574.951	5808
577.4237	5841
579.8978	5819
582.3671	5925
584.8378	5757
587.3079	5963
589.7773	5917
592.244	5879
594.714	5842
597.1793	5957
599.6461	5859
602.1121	5849
604.5754	5898
607.0421	5883
609.5042	5790
611.9675	5888
614.4282	5964
616.8902	5885
619.3515	5818
621.8122	5919
624.2702	5892
626.7296	5798
629.1863	5840
631.6423	5815
634.1017	5832
636.5563	5908
639.0104	5880
641.4658	5875
643.9185	5719
646.3725	5834
648.8239	5813
651.2766	5934
653.7266	5883
656.176	5925
658.6247	5949
661.0748	5878
663.5242	5994
665.9709	5859
668.417	6104
670.8624	5966
673.3092	6056
675.7533	6038
678.1968	5886
680.6395	6069
683.0817	6029
685.5251	6102
687.9659	6007
690.4061	6034
692.8456	6079
695.2844	6007
697.7226	6135
700.1621	6123
702.599	6100
705.0332	6189
707.4688	6065
709.9036	6118
712.3399	6236
714.7735	6161
717.2044	6171
719.6367	6184
722.0683	6121
724.4993	6150
726.9296	6300
729.3593	6284
731.7883	6283
734.2147	6236
736.6423	6248
739.0714	6335
741.4958	6301
743.9216	6275
746.3447	6353
748.7691	6302
751.1929	6323
753.616	6344
756.0366	6466
758.4584	6489
760.8776	6473
763.2982	6457
765.718	6517
768.1373	6416
770.5539	6551
772.9698	6537
775.3871	6481
777.8038	6539
780.2178	6544
782.6332	6565
785.0459	6600
787.458	6539
789.8714	6571
792.2842	6421
794.6943	6558
797.1038	6529
799.5127	6456
801.9209	6603
804.3324	6530
806.7393	6617
809.1456	6408
811.5513	6414
813.9562	6528
816.3625	6535
818.7663	6594
821.1693	6642
823.5718	6587
825.9735	6572
828.3746	6605
830.7771	6590
833.177	6691
835.5762	6650
837.9747	6635
840.3727	6615
842.772	6671
845.1666	6611
847.5626	6760
849.958	6712
852.3527	6679
854.7488	6779
857.1403	6730
859.5331	6731
861.9253	6726
864.3168	6687
866.7057	6750
869.098	6683
871.4876	6667
873.8746	6746
876.263	6698
878.6487	6661
881.0378	6659
883.4243	6610
885.8081	6747
888.1933	6674
890.5759	6678
892.9598	6683
895.343	6744
897.7256	6653
900.1057	6786
902.4871	6746
904.8659	6720
907.246	6820
909.6254	6839
912.0023	6888
914.3786	6993
916.7562	7012
919.1331	7091
921.5074	7133
923.8831	7263
926.2562	7266
928.6287	7171
931.0005	7151
933.3757	7137
935.7462	7228
938.1162	7167
940.4855	7244
942.8542	7147
945.2242	7244
947.5916	7326
949.9584	7390
952.3266	7612
954.6921	7907
957.0571	8023
959.4233	8340
961.787	8338
964.15	8300
966.5125	8166
968.8742	7955
971.2354	7736
973.5959	7592
975.9559	7334
978.3151	7322
980.6738	7167
983.0338	7095
985.3912	7170
987.7461	7118
990.1022	6898
992.4578	6964
994.8127	6988
997.1689	6934
999.5207	6880
1001.874	6932
1004.226	7079
1006.576	7044
1008.929	7012
1011.28	6877
1013.628	6988
1015.977	7042
1018.324	6939
1020.674	6918
1023.019	7049
1025.366	7009
1027.713	7143
1030.056	7042
1032.399	7100
1034.746	7086
1037.087	7127
1039.431	7073
1041.771	7126
1044.113	7095
1046.454	7147
1048.793	7105
1051.133	7046
1053.471	7106
1055.807	7268
1058.146	7165
1060.483	7176
1062.818	7175
1065.153	7243
1067.489	7172
1069.822	7240
1072.156	7279
1074.488	7273
1076.82	7334
1079.15	7317
1081.48	7129
1083.814	7159
1086.143	7155
1088.471	7195
1090.799	7112
1093.126	7131
1095.452	7087
1097.78	7070
1100.105	7162
1102.43	7220
1104.754	7171
1107.077	7039
1109.4	7304
1111.722	7202
1114.044	7266
1116.365	7350
1118.685	7107
1121.005	7244
1123.324	7326
1125.643	7178
1127.961	7259
1130.278	7309
1132.595	7189
1134.911	7149
1137.226	7292
1139.541	7198
1141.854	7307
1144.167	7162
1146.482	7193
1148.793	7162
1151.105	7042
1153.414	7240
1155.725	7239
1158.033	7201
1160.344	7145
1162.651	7262
1164.959	7247
1167.265	7212
1169.572	7269
1171.878	7287
1174.184	7158
1176.488	7225
1178.79	7191
1181.094	7288
1183.396	7277
1185.699	7248
1188.001	7273
1190.301	7236
1192.6	7209
1194.9	7138
1197.2	7206
1199.497	7150
1201.794	7269
1204.09	7273
1206.387	7135
1208.684	7189
1210.978	7259
1213.272	7364
1215.565	7293
1217.858	7175
1220.15	7298
1222.443	7207
1224.734	7346
1227.024	7276
1229.313	7276
1231.602	7385
1233.892	7568
1236.18	7416
1238.467	7536
1240.754	7422
1243.04	7415
1245.325	7369
1247.612	7497
1249.896	7562
1252.178	7642
1254.461	7571
1256.743	7565
1259.027	7455
1261.308	7528
1263.587	7592
1265.867	7598
1268.146	7695
1270.425	7529
1272.703	7501
1274.981	7558
1277.256	7409
1279.532	7658
1281.808	7534
1284.083	7393
1286.358	7354
1288.63	7439
1290.904	7390
1293.175	7408
1295.449	7421
1297.719	7438
1299.99	7375
1302.259	7345
1304.529	7487
1306.798	7359
1309.065	7455
1311.333	7405
1313.599	7477
1315.866	7376
1318.131	7475
1320.396	7555
1322.66	7521
1324.925	7434
1327.187	7490
1329.448	7512
1331.711	7539
1333.974	7622
1336.234	7515
1338.493	7467
1340.752	7382
1343.01	7394
1345.269	7425
1347.526	7361
1349.784	7419
1352.04	7449
1354.295	7453
1356.552	7382
1358.806	7474
1361.059	7401
1363.312	7400
1365.564	7320
1367.818	7456
1370.069	7396
1372.318	7463
1374.568	7362
1376.817	7497
1379.066	7443
1381.316	7496
1383.564	7535
1385.809	7555
1388.056	7521
1390.301	7582
1392.549	7679
1394.793	7650
1397.036	7633
1399.279	7749
1401.522	7783
1403.763	7705
1406.007	7737
1408.248	7678
1410.487	7775
1412.727	7612
1414.965	7824
1417.205	7826
1419.442	7800
1421.68	7603
1423.915	7630
1426.152	7772
1428.388	7661
1430.623	7578
1432.857	7684
1435.091	7838
1437.323	7739
1439.556	7855
1441.789	7753
1444.019	7823
1446.25	7925
1448.48	7785
1450.708	7830
1452.938	7873
1455.167	7739
1457.394	7877
1459.62	7743
1461.846	7841
1464.073	7800
1466.299	7849
1468.523	7616
1470.746	7814
1472.969	7691
1475.191	7708
1477.415	7586
1479.636	7656
1481.858	7486
1484.078	7608
1486.298	7573
1488.518	7551
1490.736	7498
1492.954	7436
1495.169	7460
1497.386	7426
1499.602	7424
1501.819	7500
1504.034	7369
1506.248	7272
1508.462	7362
1510.675	7431
1512.888	7539
1515.1	7512
1517.311	7424
1519.522	7500
1521.732	7532
1523.942	7432
1526.151	7418
1528.36	7274
1530.566	7413
1532.773	7534
1534.98	7507
1537.187	7516
1539.392	7535
1541.596	7539
1543.801	7369
1546.005	7529
1548.208	7448
1550.411	7499
1552.612	7527
1554.814	7587
1557.013	7427
1559.212	7478
1561.414	7600
1563.612	7537
1565.811	7681
1568.007	7628
1570.203	7542
1572.403	7649
1574.598	7542
1576.792	7625
1578.988	7558
1581.181	7593
1583.376	7786
1585.568	7642
1587.761	7718
1589.952	7690
1592.143	7646
1594.333	7748
1596.524	7714
1598.715	7700
1600.903	7727
1603.091	7777
1605.278	7733
1607.466	7769
1609.652	7670
1611.838	7756
1614.023	7766
1616.207	7628
1618.391	7682
1620.576	7745
1622.759	7664
1624.941	7629
1627.123	7738
1629.304	7834
1631.484	7779
1633.664	7780
1635.844	7844
1638.022	7755
1640.201	7699
1642.38	7732
1644.556	7807
1646.732	7742
1648.908	7700
1651.084	7732
1653.257	7851
1655.433	7772
1657.607	7852
1659.779	7877
1661.951	7657
1664.122	7767
1666.295	7837
1668.467	7880
1670.635	7926
1672.805	7872
1674.973	7815
1677.142	8020
1679.31	7747
1681.478	7838
1683.644	7910
1685.81	7813
1687.975	7886
1690.142	7794
1692.305	7768
1694.468	7848
1696.632	7697
1698.794	7724
1700.957	7744
1703.119	7735
1705.279	7666
1707.439	7615
1709.598	7717
1711.758	7654
1713.917	7639
1716.075	7700
1718.231	7775
1720.388	7721
1722.543	7681
1724.702	7662
1726.856	7732
1729.01	7599
1731.164	7555
1733.317	7651
1735.471	7724
1737.623	7663
1739.774	7675
1741.925	7693
1744.075	7615
1746.225	7738
1748.376	7599
1750.524	7579
1752.672	7727
1754.82	7777
1756.965	7667
1759.113	7554
1761.259	7676
1763.405	7682
1765.549	7618
1767.694	7596
1769.836	7797
1771.981	7730
1774.123	7700
1776.264	7775
1778.405	7802
1780.546	7620
1782.687	7704
1784.827	7682
1786.966	7739
1789.103	7779
1791.242	7746
1793.381	7724
1795.517	7763
1797.653	7794
1799.788	7716
1801.923	7733
1804.057	7715
1806.193	7674
1808.326	7679
1810.457	7631
1812.59	7730
1814.721	7652
1816.855	7696
1818.984	7747
1821.113	7643
1823.244	7778
1825.372	7835
1827.499	7703
1829.63	7714
1831.756	7664
1833.882	7708
1836.007	7679
1838.132	7627
1840.26	7668
1842.384	7714
1844.507	7795
1846.63	7701
1848.752	7726
1850.875	7519
1852.996	7577
1855.118	7684
1857.238	7614
1859.358	7657
1861.477	7734
1863.597	7616
1865.715	7691
1867.832	7606
1869.948	7632
1872.064	7579
1874.181	7671
1876.297	7645
1878.411	7641
1880.526	7614
1882.639	7808
1884.752	7666
1886.865	7597
1888.977	7705
1891.089	7701
1893.2	7716
1895.308	7686
1897.42	7620
1899.53	7738
1901.639	7760
1903.745	7686
1905.853	7806
1907.962	7736
1910.067	7773
1912.174	7695
1914.278	7708
1916.383	7761
1918.486	7810
1920.592	7606
1922.694	7673
1924.797	7764
1926.898	7899
1929	7791
1931.102	7885
1933.203	7726
1935.301	7707
1937.401	7853
1939.499	7796
1941.598	7710
1943.697	7756
1945.793	7772
1947.888	7806
1949.985	7766
1952.08	7787
1954.176	7832
1956.269	7754
1958.364	7652
1960.457	7744
1962.549	7762
1964.642	7834
1966.733	7626
1968.823	7718
1970.913	7714
1973.005	7730
1975.093	7748
1977.184	7816
1979.271	7704
1981.359	7851
1983.446	7695
1985.532	7758
1987.619	7709
1989.705	7675
1991.789	7678
1993.874	7681
1995.956	7635
1998.041	7743
2000.123	7681
2002.206	7630
2004.287	7661
2006.368	7594
2008.449	7666
2010.529	7831
2012.609	7704
2014.688	7600
2016.766	7701
2018.843	7615
2020.922	7629
2022.999	7706
2025.074	7650
2027.15	7752
2029.225	7660
2031.299	7556
2033.375	7652
2035.447	7790
2037.52	7557
2039.592	7654
2041.664	7613
2043.736	7637
2045.807	7515
2047.876	7712
2049.947	7670
2052.015	7618
2054.086	7687
2056.153	7664
2058.221	7768
2060.288	7612
2062.353	7563
2064.42	7699
2066.486	7645
2068.55	7675
2070.614	7608
2072.678	7664
2074.741	7667
2076.805	7702
2078.866	7760
2080.929	7645
2082.99	7594
2085.049	7712
2087.109	7817
2089.17	7676
2091.228	7629
2093.286	7552
2095.344	7687
2097.4	7743
2099.46	7604
2101.516	7734
2103.572	7674
2105.626	7671
2107.679	7653
2109.735	7605
2111.788	7689
2113.841	7683
2115.894	7723
2117.945	7771
2119.997	7624
2122.049	7589
2124.1	7624
2126.148	7671
2128.197	7633
2130.246	7571
2132.296	7755
2134.342	7712
2136.39	7570
2138.437	7596
2140.483	7586
2142.527	7569
2144.574	7655
2146.619	7589
2148.661	7632
2150.705	7569
2152.747	7616
2154.792	7623
2156.832	7517
2158.874	7633
2160.915	7667
2162.954	7557
2164.995	7624
2167.034	7670
2169.072	7585
2171.111	7648
2173.148	7556
2175.186	7555
2177.223	7660
2179.258	7571
2181.294	7607
2183.328	7583
2185.362	7503
2187.398	7390
2189.431	7467
2191.463	7502
2193.495	7611
2195.528	7571
2197.56	7555
2199.59	7448
2201.62	7496
2203.649	7362
2205.678	7500
2207.708	7315
2209.737	7465
2211.764	7415
2213.791	7361
2215.817	7490
2217.843	7411
2219.87	7475
2221.895	7500
2223.919	7350
2225.942	7416
2227.966	7437
2229.988	7459
2232.012	7377
2234.032	7401
2236.054	7452
2238.074	7361
2240.095	7403
2242.116	7510
2244.135	7491
2246.153	7397
2248.171	7404
2250.188	7328
2252.208	7410
2254.223	7506
2256.239	7418
2258.255	7483
2260.269	7402
2262.283	7332
2264.3	7368
2266.312	7487
2268.325	7470
2270.336	7561
2272.349	7468
2274.362	7499
2276.372	7466
2278.383	7408
2280.392	7408
2282.402	7285
2284.409	7398
2286.418	7443
2288.427	7438
2290.433	7440
2292.441	7475
2294.446	7387
2296.453	7512
2298.459	7472
2300.463	7417
2302.466	7321
2304.471	7357
2306.475	7369
2308.477	7392
2310.478	7391
2312.481	7304
2314.481	7345
2316.481	7304
2318.482	7173
2320.482	7362
2322.48	7270
2324.48	7400
2326.478	7315
2328.476	7332
2330.473	7255
2332.469	7245
2334.465	7315
2336.46	7308
2338.454	7250
2340.45	7298
2342.444	7224
2344.437	7344
2346.43	7310
2348.421	7163
2350.414	7168
2352.405	7253
2354.396	7253
2356.386	7188
2358.376	7231
2360.366	7305
2362.355	7135
2364.343	7155
2366.331	7218
2368.317	7300
2370.304	7239
2372.292	7255
2374.278	7153
2376.262	7209
2378.247	7204
2380.23	7170
2382.216	7131
2384.199	7089
2386.181	7113
2388.163	7165
2390.144	7120
2392.127	7191
2394.107	7024
2396.087	7134
2398.066	7103
2400.046	7154
2402.023	7102
2404.004	7184
2405.981	7119
2407.957	7048
2409.934	7147
2411.91	7131
2413.886	7045
2415.862	7144
2417.836	7057
2419.809	7087
2421.784	7054
2423.756	7001
2425.73	7098
2427.701	7164
2429.672	7107
2431.644	7184
2433.615	7051
2435.586	7049
2437.555	7202
2439.523	7087
2441.491	7055
2443.459	7140
2445.428	7028
2447.395	6984
2449.361	7080
2451.327	7102
2453.292	6963
2455.257	7148
2457.223	7053
2459.187	7091
2461.15	7079
2463.113	6971
2465.076	7045
2467.039	6979
2468.999	7163
2470.96	7102
2472.921	7136
2474.881	7010
2476.841	6970
2478.8	7063
2480.759	7026
2482.717	6961
2484.675	7094
2486.63	6861
2488.589	7015
2490.545	7014
2492.5	6930
2494.455	7026
2496.408	6947
2498.364	7008
2500.318	7008
2502.27	6896
2504.223	6867
2506.174	7035
2508.126	6971
2510.078	7098
2512.03	6970
2513.979	6991
2515.927	6857
2517.877	7033
2519.826	6907
2521.775	6891
2523.722	6949
2525.668	6982
2527.616	6793
2529.561	6883
2531.508	6907
2533.452	6898
2535.398	6970
2537.342	6852
2539.284	6870
2541.229	6941
2543.173	6921
2545.114	7003
2547.055	6870
2548.996	6857
2550.938	6858
2552.878	6987
2554.817	6855
2556.756	6989
2558.695	6818
2560.633	6933
2562.572	6931
2564.509	7050
2566.445	6808
2568.382	6850
2570.317	6784
2572.254	6917
2574.189	6926
2576.123	6887
2578.057	6943
2579.99	6813
2581.923	7013
2583.855	6847
2585.788	6862
2587.719	6944
2589.65	6972
2591.579	6932
2593.511	6918
2595.44	6837
2597.37	6913
2599.297	6883
2601.225	7011
2603.153	6900
2605.08	6950
2607.007	6913
2608.932	6868
2610.858	6971
2612.782	6942
2614.709	6914
2616.632	6834
2618.556	6868
2620.478	6890
2622.401	6905
2624.324	7033
2626.247	6863
2628.167	6900
2630.088	6830
2632.008	6857
2633.928	6980
2635.848	6839
2637.766	6908
2639.684	6888
2641.603	6845
2643.519	7009
2645.437	6933
2647.353	6858
2649.27	6910
2651.184	6866
2653.099	6866
2655.014	6910
2656.928	6924
2658.842	6903
2660.755	6922
2662.667	6840
2664.579	6880
2666.491	6772
2668.402	6754
2670.312	6697
2672.222	6885
2674.132	6877
2676.042	6829
2677.951	6814
2679.859	6883
2681.766	6861
2683.674	6731
2685.582	6842
2687.488	6839
2689.392	6948
2691.298	6735
2693.202	6867
2695.107	6751
2697.012	6746
2698.914	6747
2700.817	6733
2702.72	6856
2704.622	6718
2706.524	6672
2708.425	6711
2710.326	6818
2712.225	6835
2714.125	6738
2716.024	6773
2717.923	6791
2719.822	6731
2721.719	6639
2723.616	6756
2725.512	6769
2727.41	6726
2729.305	6713
2731.201	6768
2733.095	6680
2734.99	6737
2736.884	6619
2738.778	6793
2740.67	6604
2742.562	6672
2744.455	6730
2746.346	6593
2748.238	6774
2750.129	6719
2752.018	6642
2753.907	6753
2755.797	6654
2757.687	6665
2759.575	6770
2761.462	6682
2763.349	6748
2765.237	6643
2767.124	6643
2769.009	6767
2770.894	6778
2772.779	6616
2774.663	6698
2776.547	6566
2778.431	6620
2780.314	6649
2782.197	6696
2784.078	6703
2785.96	6747
2787.842	6652
2789.723	6689
2791.603	6713
2793.483	6624
2795.362	6640
2797.241	6642
2799.121	6777
2800.997	6618
2802.874	6529
2804.751	6637
2806.628	6632
2808.506	6597
2810.38	6644
2812.255	6717
2814.13	6584
2816.003	6650
2817.878	6643
2819.752	6563
2821.623	6711
2823.496	6548
2825.368	6592
2827.238	6539
2829.111	6611
2830.98	6680
2832.851	6526
2834.719	6646
2836.589	6559
2838.458	6652
2840.327	6593
2842.193	6606
2844.061	6559
2845.927	6710
2847.794	6641
2849.66	6614
2851.525	6733
2853.39	6624
2855.254	6738
2857.117	6747
2858.983	6744
2860.845	6821
2862.707	6850
2864.569	6847
2866.431	6837
2868.293	6943
2870.154	6891
2872.013	6906
2873.873	7064
2875.733	7007
2877.592	7011
2879.451	7065
2881.309	7146
2883.166	7160
2885.022	7281
2886.879	7202
2888.736	7322
2890.591	7406
2892.446	7299
2894.301	7376
2896.155	7416
2898.009	7260
2899.863	7343
2901.716	7289
2903.568	7190
2905.419	7178
2907.27	7192
2909.123	7330
2910.973	7293
2912.824	7337
2914.673	7184
2916.521	7362
2918.372	7471
2920.22	7416
2922.067	7553
2923.914	7517
2925.761	7563
2927.607	7684
2929.455	7664
2931.301	7805
2933.144	7724
2934.99	7923
2936.833	7836
2938.678	7925
2940.522	7924
2942.364	8124
2944.207	8182
2946.048	8267
2947.891	8379
2949.731	8378
2951.571	8321
2953.412	8414
2955.25	8148
2957.09	8178
2958.93	8141
2960.767	8065
2962.606	7990
2964.443	7969
2966.279	7838
2968.116	7741
2969.953	7617
2971.788	7587
2973.623	7557
2975.457	7325
2977.292	7388
2979.127	7285
2980.959	7310
2982.792	7185
2984.624	7110
2986.455	7179
2988.288	7159
2990.119	7009
2991.949	6997
2993.779	7093
2995.608	6896
2997.439	6846
2999.268	6983
3001.096	6755
3002.923	6804
3004.751	6818
3006.578	6656
3008.406	6721
3010.232	6612
3012.057	6538
3013.883	6584
3015.706	6560
3017.532	6515
3019.356	6466
3021.179	6381
3023.002	6425
3024.823	6344
3026.646	6443
3028.469	6342
3030.289	6284
3032.11	6322
3033.93	6452
3035.749	6300
3037.57	6314
3039.39	6200
3041.207	6184
3043.026	6237
3044.842	6277
3046.661	6220
3048.477	6203
3050.294	6247
3052.109	6277
3053.925	6151
3055.739	6244
3057.555	6357
3059.368	6250
3061.181	6162
3062.995	6183
3064.807	6191
3066.62	6151
3068.433	6238
3070.243	6198
3072.054	6261
3073.865	6181
3075.675	6179
3077.485	6205
3079.293	6199
3081.102	6151
3082.911	6097
3084.719	6124
3086.527	6049
3088.333	6123
3090.139	6098
3091.945	6073
3093.75	6082
3095.557	6087
3097.361	6071
3099.165	5979
3100.969	5998
3102.772	5974
3104.575	5905
3106.379	5954
3108.181	5969
3109.982	6001
3111.783	5911
3113.584	6010
3115.386	6042
3117.186	5939
3118.985	5877
3120.783	5916
3122.582	5862
3124.381	5885
3126.179	5935
3127.975	5946
3129.772	5984
3131.569	5901
3133.365	5840
3135.161	5834
3136.956	5964
3138.751	5892
3140.544	5823
3142.338	6024
3144.132	5903
3145.925	5767
3147.717	5821
3149.509	5730
3151.301	5901
3153.091	5713
3154.884	5785
3156.673	5901
3158.462	5886
3160.252	5852
3162.041	5906
3163.831	5854
3165.618	5704
3167.405	5816
3169.193	5780
3170.979	5706
3172.767	5780
3174.553	5799
3176.338	5850
3178.123	5722
3179.907	5607
3181.692	5842
3183.477	5850
3185.259	5784
3187.042	5820
3188.824	5745
3190.607	5703
3192.389	5820
3194.17	5863
3195.951	5778
3197.73	5712
3199.51	5870
3201.289	5742
3203.07	5757
3204.848	5684
3206.626	5811
3208.403	5720
3210.18	5732
3211.959	5774
3213.735	5633
3215.511	5628
3217.285	5706
3219.06	5657
3220.836	5750
3222.611	5737
3224.384	5744
3226.158	5661
3227.929	5639
3229.702	5766
3231.476	5666
3233.248	5717
3235.018	5621
3236.789	5739
3238.56	5707
3240.33	5716
3242.1	5591
3243.869	5643
3245.637	5610
3247.405	5629
3249.172	5704
3250.941	5653
3252.707	5724
3254.474	5663
3256.24	5781
3258.006	5601
3259.772	5724
3261.537	5710
3263.301	5776
3265.065	5749
3266.828	5571
3268.592	5680
3270.355	5708
3272.117	5615
3273.878	5689
3275.64	5694
3277.401	5665
3279.162	5701
3280.922	5687
3282.682	5647
3284.441	5738
3286.199	5572
3287.959	5764
3289.716	5601
3291.475	5735
3293.232	5594
3294.988	5683
3296.744	5666
3298.501	5613
3300.256	5673
3302.011	5560
3303.766	5661
3305.52	5668
3307.275	5613
3309.028	5756
3310.781	5543
3312.533	5692
3314.285	5689
3316.038	5622
3317.789	5670
3319.54	5616
3321.289	5672
3323.039	5663
3324.789	5646
3326.539	5624
3328.288	5602
3330.035	5560
3331.783	5622
3333.531	5564
3335.28	5468
3337.025	5613
3338.771	5618
3340.518	5577
3342.262	5597
3344.009	5628
3345.753	5626
3347.497	5629
3349.24	5427
3350.983	5538
3352.726	5508
3354.469	5538
3356.212	5462
3357.952	5470
3359.694	5503
3361.434	5417
3363.176	5578
3364.916	5556
3366.654	5393
3368.394	5486
3370.132	5497
3371.871	5539
3373.61	5442
3375.346	5566
3377.083	5453
3378.82	5497
3380.556	5400
3382.292	5511
3384.027	5480
3385.763	5507
3387.497	5410
3389.231	5416
3390.965	5359
3392.698	5391
3394.431	5425
3396.164	5431
3397.896	5474
3399.627	5342
3401.36	5415
3403.09	5413
3404.82	5422
3406.55	5380
3408.279	5376
3410.01	5362
3411.738	5339
3413.467	5356
3415.194	5543
3416.92	5397
3418.647	5378
3420.375	5426
3422.102	5395
3423.827	5439
3425.553	5418
3427.277	5329
3429.003	5294
3430.727	5315
3432.451	5299
3434.173	5272
3435.896	5266
3437.62	5208
3439.343	5343
3441.063	5370
3442.785	5238
3444.505	5240
3446.226	5303
3447.948	5275
3449.666	5166
3451.386	5230
3453.104	5231
3454.823	5229
3456.541	5243
3458.259	5160
3459.976	5221
3461.693	5225
3463.408	5182
3465.125	5152
3466.841	5104
3468.556	5157
3470.271	5128
3471.985	5133
3473.698	5162
3475.414	5084
3477.126	5094
3478.838	5174
3480.55	5024
3482.263	5113
3483.975	5111
3485.686	5075
3487.396	5080
3489.106	5057
3490.817	5130
3492.526	5078
3494.236	5021
3495.944	4989
3497.652	5091
3499.359	5003
3501.066	4986
3502.775	5012
3504.481	4990
3506.187	4927
3507.893	5030
3509.598	5020
3511.304	5013
3513.009	5012
3514.713	4985
3516.417	4877
3518.12	4927
3519.821	4886
3521.525	5012
3523.228	4873
3524.929	4877
3526.631	5031
3528.33	4787
3530.032	4920
3531.733	4933
3533.433	4870
3535.131	4873
3536.83	4923
3538.529	4825
3540.227	4920
3541.925	4882
3543.623	4873
3545.319	4919
3547.016	4803
3548.712	4778
3550.408	4807
3552.103	4918
3553.798	4885
3555.491	4885
3557.188	4848
3558.88	4810
3560.574	4909
3562.266	4765
3563.959	4844
3565.651	4736
3567.343	4730
3569.035	4844
3570.725	4685
3572.415	4764
3574.106	4793
3575.797	4786
3577.485	4801
3579.174	4803
3580.863	4678
3582.551	4725
3584.238	4687
3585.926	4770
3587.613	4652
3589.3	4658
3590.986	4716
3592.671	4610
3594.357	4723
3596.042	4683
3597.726	4697
3599.41	4669
3601.094	4688
3602.778	4581
3604.461	4532
3606.143	4605
3607.825	4558
3609.507	4553
3611.188	4583
3612.87	4657
3614.551	4609
3616.229	4558
3617.909	4513
3619.589	4494
3621.269	4446
3622.948	4572
3624.625	4476
3626.302	4556
3627.98	4535
3629.657	4554
3631.334	4525
3633.01	4500
3634.686	4510
3636.361	4536
3638.036	4508
3639.712	4444
3641.385	4457
3643.06	4473
3644.732	4364
3646.405	4360
3648.08	4421
3649.751	4383
3651.424	4424
3653.094	4509
3654.766	4460
3656.436	4452
3658.106	4404
3659.777	4350
3661.446	4364
3663.115	4467
3664.783	4341
3666.452	4426
3668.121	4373
3669.788	4390
3671.454	4312
3673.121	4345
3674.789	4326
3676.455	4375
3678.12	4371
3679.784	4414
3681.45	4273
3683.114	4374
3684.779	4277
3686.442	4319
3688.105	4301
3689.768	4419
3691.43	4264
3693.093	4412
3694.754	4375
3696.415	4304
3698.076	4323
3699.736	4264
3701.396	4345
3703.057	4268
3704.716	4250
3706.375	4337
3708.034	4303
3709.692	4280
3711.351	4193
3713.008	4236
3714.665	4264
3716.321	4357
3717.977	4244
3719.634	4239
3721.29	4316
3722.945	4258
3724.598	4257
3726.253	4267
3727.907	4235
3729.561	4232
3731.214	4202
3732.867	4206
3734.518	4188
3736.171	4258
3737.824	4251
3739.474	4177
3741.125	4193
3742.775	4188
3744.425	4231
3746.074	4237
3747.725	4194
3749.373	4193
3751.022	4133
3752.669	4212
3754.318	4239
3755.966	4215
3757.612	4155
3759.259	4120
3760.905	4160
3762.55	4120
3764.197	4157
3765.842	4176
3767.486	4160
3769.131	4097
3770.774	4135
3772.417	4134
3774.061	4074
3775.705	4080
3777.347	4116
3778.988	4088
3780.629	4202
3782.271	4211
3783.912	4067
3785.552	4174
3787.192	4123
3788.831	4052
3790.472	4059
3792.112	4012
3793.75	4058
3795.388	4047
3797.024	4126
3798.661	4011
3800.3	4067
3801.936	4077
3803.572	4019
3805.208	4025
3806.844	3977
3808.48	4059
3810.115	4032
3811.748	3980
3813.382	4077
3815.016	3996
3816.649	3998
3818.283	4033
3819.914	3977
3821.547	3983
3823.178	3951
3824.809	3915
3826.441	3983
3828.072	3960
3829.701	3962
3831.331	4000
3832.96	3977
3834.591	3967
3836.219	3937
3837.847	3931
3839.475	3918
3841.102	3893
3842.729	3969
3844.357	3926
3845.984	3897
3847.609	4056
3849.234	3947
3850.86	3961
3852.485	3960
3854.11	3903
3855.734	3862
3857.357	3971
3858.981	3948
3860.603	3924
3862.227	3868
3863.848	3930
3865.471	3840
3867.092	3898
3868.713	3829
3870.334	3868
3871.954	3897
3873.575	3812
3875.194	3969
3876.813	3818
3878.433	3915
3880.051	3916
3881.669	3888
3883.286	3873
3884.904	3831
3886.52	3811
3888.138	3763
3889.754	3779
3891.37	3834
3892.985	3874
3894.6	3748
3896.216	3947
3897.831	3821
3899.444	3879
3901.058	3812
3902.67	3843
3904.283	3839
3905.897	3870
3907.509	3777
3909.121	3862
3910.731	3748
3912.342	3829
3913.954	3786
3915.563	3900
3917.174	3826
3918.783	3776
3920.391	3757
3922.002	3689
3923.611	3845
3925.218	3751
3926.826	3828
3928.432	3794
3930.039	3821
3931.647	3769
3933.253	3796
3934.859	3771
3936.464	3826
3938.068	3766
3939.675	3757
3941.278	3683
3942.883	3771
3944.486	3718
3946.089	3745
3947.692	3690
3949.295	3774
3950.898	3780
3952.499	3826
3954.1	3707
3955.7	3767
3957.303	3732
3958.903	3617
3960.502	3637
3962.101	3713
3963.7	3682
3965.301	3746
3966.899	3565
3968.497	3706
3970.094	3624
3971.691	3664
3973.288	3677
3974.885	3683
3976.481	3617
3978.077	3639
3979.672	3685
3981.267	3681
3982.863	3617
3984.457	3620
3986.051	3676
3987.645	3625
3989.238	3680
3990.831	3582
3992.425	3578
3994.017	3663
3995.607	3573
3997.199	3550
3998.79	3575
4000.382	3564
4001.973	3553
4003.561	3593
4005.151	3513
4006.741	3526
4008.331	3534
4009.918	3587
4011.507	3485
4013.095	3554
4014.681	3520
4016.269	3534
4017.856	3468
4019.443	3577
4021.028	3559
4022.614	3476
4024.199	3489
4025.785	3544
4027.37	3567
4028.953	3543
4030.536	3435
4032.12	3512
4033.704	3517
4035.287	3473
4036.869	3493
4038.45	3519
4040.032	3508
4041.613	3491
4043.195	3481
4044.776	3474
4046.356	3400
4047.935	3542
4049.515	3432
4051.095	3505
4052.674	3457
4054.251	3411
4055.829	3451
4057.406	3445
4058.985	3388
4060.562	3501
4062.139	3417
4063.715	3401
4065.29	3443
4066.865	3431
4068.442	3435
4070.016	3469
4071.59	3448
4073.164	3400
4074.738	3426
4076.312	3356
4077.885	3369
4079.458	3345
4081.03	3367
4082.602	3332
4084.173	3352
4085.745	3381
4087.315	3299
4088.886	3397
4090.456	3399
4092.026	3353
4093.596	3404
4095.165	3362
4096.734	3421
4098.301	3321
4099.869	3380
4101.437	3388
4103.006	3348
4104.572	3287
4106.139	3284
4107.704	3352
4109.27	3395
4110.837	3266
4112.401	3277
4113.966	3331
4115.53	3275
4117.094	3325
4118.659	3280
4120.223	3324
4121.785	3267
4123.347	3291
4124.909	3321
4126.471	3229
4128.034	3269
4129.595	3238
4131.155	3284
4132.716	3251
4134.275	3294
4135.836	3298
4137.395	3131
4138.955	3244
4140.513	3166
4142.071	3303
4143.628	3217
4145.188	3291
4146.745	3275
4148.302	3192
4149.858	3179
4151.414	3219
4152.971	3209
4154.526	3302
4156.081	3150
4157.635	3216
4159.189	3164
4160.745	3224
4162.298	3238
4163.852	3148
4165.405	3141
4166.957	3165
4168.51	3154
4170.063	3288
4171.614	3147
4173.166	3163
4174.717	3199
4176.267	3095
4177.817	3098
4179.368	3094
4180.917	3164
4182.466	3120
4184.016	3146
4185.564	3146
4187.112	3131
4188.66	3117
4190.207	3111
4191.754	3014
4193.301	3153
4194.848	3183
4196.394	3077
4197.94	3050
4199.484	3041
4201.03	3138
4202.575	3014
4204.12	3122
4205.663	3066
4207.207	3064
4208.75	3106
4210.292	3075
4211.836	3118
4213.378	3126
4214.92	3063
4216.46	2992
4218.002	3011
4219.544	3021
4221.083	3060
4222.625	3049
4224.164	2969
4225.703	3018
4227.244	3048
4228.782	3043
4230.32	3120
4231.857	2991
4233.395	2976
4234.933	3079
4236.471	3042
4238.007	2951
4239.542	3082
4241.078	3016
4242.614	3008
4244.15	3075
4245.685	3040
4247.219	3006
4248.753	3007
4250.287	3032
4251.82	3032
4253.354	2972
4254.887	3007
4256.419	3040
4257.951	2998
4259.483	3029
4261.016	2909
4262.547	2973
4264.078	2959
4265.608	3018
4267.137	3013
4268.668	2896
4270.197	2948
4271.727	2928
4273.254	2945
4274.783	3003
4276.311	2955
4277.84	2899
4279.366	2945
4280.894	2957
4282.42	2914
4283.946	2894
4285.473	2955
4286.998	2947
4288.523	2898
4290.047	2951
4291.572	2896
4293.096	2896
4294.622	2918
4296.144	2914
4297.668	2971
4299.19	2887
4300.713	2961
4302.236	2875
4303.758	2953
4305.279	2933
4306.799	2806
4308.321	2872
4309.842	2880
4311.361	2810
4312.882	2876
4314.401	2851
