400.0961	4094
402.6185	4103
405.1424	4022
407.6635	4079
410.1838	4056
412.7035	4062
415.2225	4155
417.7388	4121
420.2585	4120
422.7754	4170
425.2917	4165
427.8072	4155
430.3221	4208
432.8363	4266
435.3498	4278
437.8626	4282
440.3727	4317
442.8841	4307
445.3969	4341
447.907	4327
450.4142	4247
452.9229	4244
455.4289	4233
457.9362	4206
460.4449	4258
462.9488	4292
465.454	4265
467.9566	4309
470.4604	4352
472.9637	4313
475.4662	4242
477.966	4290
480.4671	4300
482.9656	4359
485.4633	4378
487.9645	4416
490.4608	4386
492.9566	4372
495.4536	4435
497.948	4406
500.4437	4454
502.9387	4399
505.431	4428
507.9226	4492
510.4136	4448
512.9079	4401
515.3975	4442
517.8864	4520
520.3746	4429
522.8622	4454
525.3491	4469
527.8394	4475
530.3249	4467
532.8098	4429
535.2939	4593
537.7774	4454
540.2623	4666
542.7444	4501
545.2259	4541
547.7067	4512
550.1868	4468
552.6683	4496
555.147	4437
557.6231	4453
560.1005	4508
562.5773	4523
565.0534	4535
567.5308	4467
570.0056	4507
572.4776	4524
574.951	4542
577.4237	4555
579.8978	4630
582.3671	4614
584.8378	4632
587.3079	4681
589.7773	4691
592.244	4672
594.714	4647
597.1793	4715
599.6461	4648
602.1121	4552
604.5754	4579
607.0421	4571
609.5042	4634
611.9675	4669
614.4282	4525
616.8902	4616
619.3515	4611
621.8122	4669
624.2702	4659
626.7296	4605
629.1863	4574
631.6423	4625
634.1017	4589
636.5563	4659
639.0104	4553
641.4658	4617
643.9185	4655
646.3725	4594
648.8239	4655
651.2766	4803
653.7266	4677
656.176	4648
658.6247	4666
661.0748	4637
663.5242	4684
665.9709	4712
668.417	4769
670.8624	4675
673.3092	4712
675.7533	4722
678.1968	4737
680.6395	4725
683.0817	4778
685.5251	4751
687.9659	4820
690.4061	4767
692.8456	4796
695.2844	4846
697.7226	4852
700.1621	4858
702.599	4853
705.0332	4877
707.4688	4797
709.9036	4899
712.3399	4895
714.7735	4889
717.2044	4926
719.6367	4875
722.0683	4862
724.4993	4909
726.9296	4940
729.3593	4975
731.7883	4898
734.2147	4926
736.6423	5017
739.0714	4981
741.4958	4973
743.9216	5112
746.3447	5014
748.7691	5049
751.1929	4990
753.616	5042
756.0366	5008
758.4584	5026
760.8776	5104
763.2982	4988
765.718	5055
768.1373	5132
770.5539	5115
772.9698	5126
775.3871	5099
777.8038	5142
780.2178	5033
782.6332	5104
785.0459	5110
787.458	5144
789.8714	5229
792.2842	5074
794.6943	5017
797.1038	5166
799.5127	5060
801.9209	5075
804.3324	5229
806.7393	5123
809.1456	5106
811.5513	5178
813.9562	5248
816.3625	5234
818.7663	5264
821.1693	5252
823.5718	5202
825.9735	5213
828.3746	5203
830.7771	5235
833.177	5170
835.5762	5230
837.9747	5226
840.3727	5279
842.772	5190
845.1666	5427
847.5626	5329
849.958	5357
852.3527	5344
854.7488	5458
857.1403	5431
859.5331	5351
861.9253	5379
864.3168	5258
866.7057	5416
869.098	5351
871.4876	5397
873.8746	5344
876.263	5358
878.6487	5262
881.0378	5328
883.4243	5274
885.8081	5364
888.1933	5328
890.5759	5288
892.9598	5372
895.343	5327
897.7256	5366
900.1057	5304
902.4871	5325
904.8659	5382
907.246	5315
909.6254	5441
912.0023	5443
914.3786	5492
916.7562	5725
919.1331	5799
921.5074	5868
923.8831	5908
926.2562	6059
928.6287	5811
931.0005	5850
933.3757	5836
935.7462	5751
938.1162	5663
940.4855	5642
942.8542	5642
945.2242	5671
947.5916	5753
949.9584	5673
952.3266	5704
954.6921	5765
957.0571	5896
959.4233	5954
961.787	5885
964.15	5967
966.5125	5895
968.8742	5758
971.2354	5806
973.5959	5742
975.9559	5652
978.3151	5657
980.6738	5709
983.0338	5678
985.3912	5556
987.7461	5615
990.1022	5525
992.4578	5549
994.8127	5501
997.1689	5444
999.5207	5590
1001.874	5621
1004.226	5545
1006.576	5505
1008.929	5537
1011.28	5549
1013.628	5420
1015.977	5399
1018.324	5535
1020.674	5530
1023.019	5484
1025.366	5471
1027.713	5648
1030.056	5567
1032.399	5571
1034.746	5579
1037.087	5591
1039.431	5596
1041.771	5637
1044.113	5547
1046.454	5554
1048.793	5545
1051.133	5587
1053.471	5548
1055.807	5490
1058.146	5554
1060.483	5509
1062.818	5607
1065.153	5541
1067.489	5601
1069.822	5568
1072.156	5627
1074.488	5717
1076.82	5588
1079.15	5622
1081.48	5514
1083.814	5591
1086.143	5647
1088.471	5606
1090.799	5601
1093.126	5587
1095.452	5678
1097.78	5690
1100.105	5716
1102.43	5662
1104.754	5562
1107.077	5688
1109.4	5708
1111.722	5599
1114.044	5806
1116.365	5772
1118.685	5732
1121.005	5681
1123.324	5783
1125.643	5721
1127.961	5965
1130.278	5735
1132.595	5735
1134.911	5750
1137.226	5730
1139.541	5629
1141.854	5616
1144.167	5585
1146.482	5576
1148.793	5678
1151.105	5567
1153.414	5596
1155.725	5655
1158.033	5707
1160.344	5700
1162.651	5726
1164.959	5662
1167.265	5716
1169.572	5786
1171.878	5774
1174.184	5725
1176.488	5732
1178.79	5764
1181.094	5905
1183.396	5654
1185.699	5695
1188.001	5687
1190.301	5691
1192.6	5747
1194.9	5632
1197.2	5667
1199.497	5755
1201.794	5721
1204.09	5711
1206.387	5686
1208.684	5759
1210.978	5668
1213.272	5735
1215.565	5700
1217.858	5690
1220.15	5691
1222.443	5714
1224.734	5620
1227.024	5823
1229.313	5828
1231.602	5949
1233.892	5877
1236.18	5973
1238.467	5798
1240.754	5982
1243.04	5953
1245.325	6127
1247.612	5928
1249.896	6071
1252.178	6012
1254.461	6143
1256.743	6013
1259.027	6027
1261.308	6077
1263.587	6064
1265.867	6045
1268.146	6086
1270.425	6198
1272.703	6226
1274.981	6181
1277.256	6140
1279.532	6043
1281.808	5916
1284.083	5972
1286.358	6035
1288.63	6009
1290.904	5948
1293.175	5897
1295.449	5869
1297.719	5991
1299.99	5874
1302.259	5868
1304.529	5909
1306.798	6007
1309.065	6009
1311.333	5925
1313.599	5942
1315.866	6005
1318.131	6018
1320.396	5955
1322.66	6054
1324.925	5989
1327.187	6045
1329.448	6085
1331.711	5954
1333.974	6145
1336.234	5918
1338.493	5953
1340.752	5969
1343.01	5967
1345.269	5882
1347.526	5877
1349.784	5897
1352.04	5948
1354.295	5905
1356.552	5895
1358.806	5958
1361.059	5863
1363.312	5864
1365.564	5850
1367.818	5893
1370.069	6044
1372.318	6080
1374.568	5942
1376.817	5984
1379.066	6070
1381.316	6052
1383.564	6080
1385.809	6048
1388.056	6009
1390.301	6183
1392.549	6319
1394.793	6365
1397.036	6479
1399.279	6593
1401.522	6634
1403.763	6582
1406.007	6335
1408.248	6471
1410.487	6465
1412.727	6393
1414.965	6495
1417.205	6399
1419.442	6507
1421.68	6354
1423.915	6315
1426.152	6233
1428.388	6270
1430.623	6330
1432.857	6371
1435.091	6420
1437.323	6419
1439.556	6359
1441.789	6408
1444.019	6435
1446.25	6530
1448.48	6287
1450.708	6405
1452.938	6341
1455.167	6420
1457.394	6628
1459.62	6502
1461.846	6545
1464.073	6542
1466.299	6351
1468.523	6401
1470.746	6289
1472.969	6221
1475.191	6039
1477.415	6159
1479.636	6090
1481.858	6136
1484.078	5995
1486.298	6045
1488.518	5934
1490.736	6080
1492.954	5937
1495.169	5713
1497.386	5865
1499.602	5964
1501.819	5859
1504.034	5917
1506.248	5811
1508.462	5916
1510.675	5995
1512.888	5810
1515.1	5786
1517.311	5976
1519.522	5898
1521.732	5971
1523.942	5859
1526.151	5854
1528.36	5763
1530.566	5874
1532.773	5898
1534.98	5850
1537.187	5855
1539.392	5853
1541.596	5932
1543.801	5926
1546.005	5908
1548.208	5872
1550.411	5925
1552.612	5989
1554.814	6015
1557.013	5990
1559.212	5995
1561.414	6062
1563.612	5978
1565.811	6071
1568.007	6048
1570.203	6061
1572.403	6049
1574.598	5918
1576.792	6050
1578.988	5953
1581.181	6026
1583.376	6089
1585.568	6003
1587.761	6197
1589.952	6155
1592.143	6149
1594.333	6065
1596.524	5976
1598.715	6113
1600.903	6197
1603.091	6012
1605.278	6182
1607.466	6047
1609.652	6141
1611.838	6119
1614.023	6150
1616.207	6079
1618.391	6183
1620.576	6140
1622.759	6087
1624.941	6149
1627.123	6153
1629.304	6133
1631.484	6148
1633.664	6193
1635.844	6188
1638.022	6135
1640.201	6205
1642.38	6220
1644.556	6208
1646.732	6135
1648.908	6211
1651.084	6306
1653.257	6219
1655.433	6252
1657.607	6293
1659.779	6346
1661.951	6154
1664.122	6321
1666.295	6390
1668.467	6304
1670.635	6328
1672.805	6306
1674.973	6213
1677.142	6393
1679.31	6242
1681.478	6238
1683.644	6207
1685.81	6302
1687.975	6191
1690.142	6204
1692.305	6225
1694.468	6151
1696.632	6226
1698.794	6132
1700.957	6274
1703.119	6145
1705.279	6230
1707.439	6122
1709.598	6107
1711.758	6070
1713.917	6195
1716.075	5996
1718.231	6041
1720.388	6046
1722.543	6090
1724.702	6004
1726.856	5979
1729.01	6114
1731.164	6039
1733.317	6102
1735.471	6050
1737.623	5969
1739.774	6110
1741.925	6075
1744.075	6118
1746.225	6098
1748.376	6060
1750.524	6058
1752.672	6084
1754.82	6023
1756.965	6101
1759.113	6006
1761.259	6133
1763.405	6161
1765.549	6199
1767.694	6105
1769.836	6015
1771.981	6145
1774.123	6215
1776.264	6097
1778.405	6069
1780.546	6008
1782.687	6050
1784.827	6081
1786.966	6230
1789.103	6113
1791.242	6110
1793.381	6104
1795.517	6131
1797.653	6092
1799.788	6157
1801.923	6213
1804.057	6086
1806.193	6033
1808.326	6071
1810.457	6116
1812.59	6072
1814.721	6101
1816.855	6147
1818.984	6045
1821.113	6041
1823.244	6154
1825.372	6123
1827.499	6190
1829.63	6013
1831.756	6006
1833.882	6105
1836.007	5946
1838.132	5984
1840.26	6210
1842.384	6104
1844.507	6084
1846.63	5975
1848.752	6085
1850.875	6152
1852.996	6100
1855.118	6076
1857.238	6022
1859.358	6057
1861.477	6100
1863.597	6039
1865.715	5989
1867.832	6147
1869.948	6007
1872.064	6047
1874.181	6036
1876.297	6119
1878.411	6080
1880.526	6059
1882.639	6146
1884.752	5979
1886.865	6092
1888.977	6115
1891.089	6032
1893.2	6050
1895.308	5978
1897.42	6001
1899.53	6005
1901.639	6036
1903.745	6063
1905.853	6084
1907.962	6086
1910.067	6144
1912.174	6134
1914.278	6094
1916.383	6117
1918.486	6125
1920.592	6131
1922.694	6018
1924.797	6023
1926.898	6199
1929	6137
1931.102	6196
1933.203	6228
1935.301	6135
1937.401	6146
1939.499	6154
1941.598	6229
1943.697	6218
1945.793	6084
1947.888	6130
1949.985	6297
1952.08	6164
1954.176	6145
1956.269	6099
1958.364	6126
1960.457	6148
1962.549	6226
1964.642	6217
1966.733	6048
1968.823	6072
1970.913	6238
1973.005	6082
1975.093	6211
1977.184	6090
1979.271	6062
1981.359	6160
1983.446	6121
1985.532	6154
1987.619	6030
1989.705	6036
1991.789	6094
1993.874	6064
1995.956	6133
1998.041	5995
2000.123	6110
2002.206	6085
2004.287	6209
2006.368	6020
2008.449	6000
2010.529	6051
2012.609	6113
2014.688	6049
2016.766	6070
2018.843	6020
2020.922	6109
2022.999	6108
2025.074	6086
2027.15	6111
2029.225	6086
2031.299	6054
2033.375	6042
2035.447	6205
2037.52	6012
2039.592	6074
2041.664	5993
2043.736	6006
2045.807	6042
2047.876	5991
2049.947	6021
2052.015	6002
2054.086	6055
2056.153	6045
2058.221	6097
2060.288	6021
2062.353	6123
2064.42	6036
2066.486	6107
2068.55	5972
2070.614	6043
2072.678	6123
2074.741	6038
2076.805	6066
2078.866	6156
2080.929	6039
2082.99	6115
2085.049	6023
2087.109	6035
2089.17	6047
2091.228	6100
2093.286	5980
2095.344	6134
2097.4	6025
2099.46	6124
2101.516	6045
2103.572	5943
2105.626	6127
2107.679	6012
2109.735	6055
2111.788	6179
2113.841	5952
2115.894	6032
2117.945	6042
2119.997	6134
2122.049	6119
2124.1	6129
2126.148	6040
2128.197	6055
2130.246	6024
2132.296	6015
2134.342	5969
2136.39	5989
2138.437	6104
2140.483	6075
2142.527	6182
2144.574	6067
2146.619	6070
2148.661	6073
2150.705	6105
2152.747	6104
2154.792	6103
2156.832	6021
2158.874	5917
2160.915	5979
2162.954	5990
2164.995	6083
2167.034	6061
2169.072	6089
2171.111	6081
2173.148	6010
2175.186	6042
2177.223	6004
2179.258	6042
2181.294	5993
2183.328	5965
2185.362	6005
2187.398	6042
2189.431	5884
2191.463	5908
2193.495	5941
2195.528	5972
2197.56	5934
2199.59	6014
2201.62	6005
2203.649	5802
2205.678	5982
2207.708	5897
2209.737	5865
2211.764	5989
2213.791	5925
2215.817	6050
2217.843	5903
2219.87	5928
2221.895	5884
2223.919	5903
2225.942	5896
2227.966	5904
2229.988	5999
2232.012	5871
2234.032	5927
2236.054	5898
2238.074	5824
2240.095	5866
2242.116	5860
2244.135	5815
2246.153	5912
2248.171	5729
2250.188	5937
2252.208	5851
2254.223	5964
2256.239	5918
2258.255	5828
2260.269	5900
2262.283	5841
2264.3	6004
2266.312	5920
2268.325	5867
2270.336	5828
2272.349	5807
2274.362	5974
2276.372	5842
2278.383	5843
2280.392	5905
2282.402	5965
2284.409	5876
2286.418	5832
2288.427	5819
2290.433	5836
2292.441	5834
2294.446	5776
2296.453	5898
2298.459	5855
2300.463	5992
2302.466	5849
2304.471	5828
2306.475	5942
2308.477	5934
2310.478	5947
2312.481	5927
2314.481	5793
2316.481	5776
2318.482	5812
2320.482	5838
2322.48	5743
2324.48	5733
2326.478	5743
2328.476	5892
2330.473	5835
2332.469	5857
2334.465	5919
2336.46	5683
2338.454	5798
2340.45	5787
2342.444	5826
2344.437	5786
2346.43	5836
2348.421	5724
2350.414	5761
2352.405	5798
2354.396	5709
2356.386	5814
2358.376	5752
2360.366	5656
2362.355	5846
2364.343	5629
2366.331	5791
2368.317	5788
2370.304	5595
2372.292	5799
2374.278	5734
2376.262	5721
2378.247	5745
2380.23	5832
2382.216	5719
2384.199	5659
2386.181	5714
2388.163	5747
2390.144	5767
2392.127	5761
2394.107	5714
2396.087	5604
2398.066	5649
2400.046	5619
2402.023	5688
2404.004	5683
2405.981	5615
2407.957	5679
2409.934	5622
2411.91	5608
2413.886	5642
2415.862	5609
2417.836	5565
2419.809	5606
2421.784	5658
2423.756	5711
2425.73	5752
2427.701	5640
2429.672	5681
2431.644	5596
2433.615	5747
2435.586	5632
2437.555	5801
2439.523	5545
2441.491	5679
2443.459	5658
2445.428	5594
2447.395	5696
2449.361	5690
2451.327	5540
2453.292	5730
2455.257	5539
2457.223	5692
2459.187	5558
2461.15	5697
2463.113	5573
2465.076	5542
2467.039	5706
2468.999	5699
2470.96	5593
2472.921	5612
2474.881	5620
2476.841	5568
2478.8	5628
2480.759	5626
2482.717	5588
2484.675	5571
2486.63	5601
2488.589	5699
2490.545	5596
2492.5	5576
2494.455	5503
2496.408	5595
2498.364	5601
2500.318	5596
2502.27	5631
2504.223	5507
2506.174	5522
2508.126	5616
2510.078	5512
2512.03	5617
2513.979	5505
2515.927	5547
2517.877	5517
2519.826	5440
2521.775	5551
2523.722	5590
2525.668	5657
2527.616	5474
2529.561	5458
2531.508	5570
2533.452	5485
2535.398	5584
2537.342	5529
2539.284	5538
2541.229	5590
2543.173	5592
2545.114	5553
2547.055	5573
2548.996	5542
2550.938	5520
2552.878	5504
2554.817	5581
2556.756	5587
2558.695	5510
2560.633	5536
2562.572	5543
2564.509	5552
2566.445	5548
2568.382	5585
2570.317	5505
2572.254	5606
2574.189	5461
2576.123	5579
2578.057	5468
2579.99	5440
2581.923	5575
2583.855	5455
2585.788	5615
2587.719	5471
2589.65	5578
2591.579	5445
2593.511	5579
2595.44	5573
2597.37	5503
2599.297	5471
2601.225	5533
2603.153	5542
2605.08	5527
2607.007	5531
2608.932	5502
2610.858	5517
2612.782	5484
2614.709	5654
2616.632	5413
2618.556	5521
2620.478	5485
2622.401	5520
2624.324	5554
2626.247	5439
2628.167	5497
2630.088	5515
2632.008	5577
2633.928	5502
2635.848	5594
2637.766	5499
2639.684	5681
2641.603	5521
2643.519	5463
2645.437	5558
2647.353	5466
2649.27	5541
2651.184	5535
2653.099	5622
2655.014	5487
2656.928	5592
2658.842	5516
2660.755	5574
2662.667	5538
2664.579	5470
2666.491	5503
2668.402	5500
2670.312	5481
2672.222	5469
2674.132	5424
2676.042	5520
2677.951	5534
2679.859	5432
2681.766	5515
2683.674	5557
2685.582	5530
2687.488	5471
2689.392	5488
2691.298	5386
2693.202	5373
2695.107	5465
2697.012	5377
2698.914	5489
2700.817	5472
2702.72	5451
2704.622	5401
2706.524	5469
2708.425	5325
2710.326	5364
2712.225	5490
2714.125	5356
2716.024	5494
2717.923	5351
2719.822	5451
2721.719	5400
2723.616	5471
2725.512	5392
2727.41	5511
2729.305	5415
2731.201	5462
2733.095	5513
2734.99	5484
2736.884	5465
2738.778	5405
2740.67	5463
2742.562	5466
2744.455	5447
2746.346	5343
2748.238	5327
2750.129	5328
2752.018	5486
2753.907	5353
2755.797	5360
2757.687	5464
2759.575	5387
2761.462	5383
2763.349	5360
2765.237	5296
2767.124	5346
2769.009	5350
2770.894	5390
2772.779	5362
2774.663	5464
2776.547	5404
2778.431	5365
2780.314	5322
2782.197	5366
2784.078	5378
2785.96	5298
2787.842	5328
2789.723	5333
2791.603	5338
2793.483	5323
2795.362	5410
2797.241	5333
2799.121	5367
2800.997	5333
2802.874	5416
2804.751	5348
2806.628	5400
2808.506	5331
2810.38	5374
2812.255	5291
2814.13	5293
2816.003	5357
2817.878	5383
2819.752	5372
2821.623	5400
2823.496	5296
2825.368	5544
2827.238	5365
2829.111	5327
2830.98	5435
2832.851	5318
2834.719	5381
2836.589	5373
2838.458	5351
2840.327	5395
2842.193	5427
2844.061	5487
2845.927	5465
2847.794	5471
2849.66	5497
2851.525	5568
2853.39	5581
2855.254	5625
2857.117	5600
2858.983	5557
2860.845	5606
2862.707	5716
2864.569	5859
2866.431	5698
2868.293	5729
2870.154	5741
2872.013	5789
2873.873	5861
2875.733	5978
2877.592	6003
2879.451	6068
2881.309	6118
2883.166	6054
2885.022	6184
2886.879	6195
2888.736	6213
2890.591	6362
2892.446	6515
2894.301	6320
2896.155	6509
2898.009	6428
2899.863	6489
2901.716	6258
2903.568	6369
2905.419	6244
2907.27	6368
2909.123	6332
2910.973	6235
2912.824	6427
2914.673	6421
2916.521	6442
2918.372	6586
2920.22	6513
2922.067	6538
2923.914	6538
2925.761	6701
2927.607	6685
2929.455	6651
2931.301	6745
2933.144	6695
2934.99	6721
2936.833	6791
2938.678	6884
2940.522	7036
2942.364	7116
2944.207	7326
2946.048	7321
2947.891	7625
2949.731	7652
2951.571	7642
2953.412	7845
2955.25	7603
2957.09	7472
2958.93	7464
2960.767	7476
2962.606	7460
2964.443	7364
2966.279	7414
2968.116	7045
2969.953	6921
2971.788	6812
2973.623	6648
2975.457	6526
2977.292	6522
2979.127	6340
2980.959	6392
2982.792	6234
2984.624	6266
2986.455	6177
2988.288	6160
2990.119	6005
2991.949	5879
2993.779	5863
2995.608	5859
2997.439	5930
2999.268	5749
3001.096	5733
3002.923	5674
3004.751	5556
3006.578	5558
3008.406	5575
3010.232	5411
3012.057	5517
3013.883	5522
3015.706	5402
3017.532	5403
3019.356	5258
3021.179	5290
3023.002	5245
3024.823	5274
3026.646	5283
3028.469	5245
3030.289	5243
3032.11	5223
3033.93	5124
3035.749	5162
3037.57	5063
3039.39	5200
3041.207	5151
3043.026	5197
3044.842	5170
3046.661	5085
3048.477	5190
3050.294	5120
3052.109	5155
3053.925	5083
3055.739	5130
3057.555	5103
3059.368	5106
3061.181	5120
3062.995	5050
3064.807	5173
3066.62	5135
3068.433	5116
3070.243	5091
3072.054	5174
3073.865	5066
3075.675	5041
3077.485	5177
3079.293	5097
3081.102	5033
3082.911	5099
3084.719	5088
3086.527	5067
3088.333	5073
3090.139	5082
3091.945	4952
3093.75	5020
3095.557	4861
3097.361	5019
3099.165	5088
3100.969	4991
3102.772	4949
3104.575	4982
3106.379	5008
3108.181	4822
3109.982	4909
3111.783	4930
3113.584	4881
3115.386	4855
3117.186	4926
3118.985	4847
3120.783	4865
3122.582	4879
3124.381	4896
3126.179	4862
3127.975	4777
3129.772	4909
3131.569	4913
3133.365	4854
3135.161	4750
3136.956	4885
3138.751	4862
3140.544	4861
3142.338	4871
3144.132	4827
3145.925	4691
3147.717	4743
3149.509	4850
3151.301	4874
3153.091	4831
3154.884	4807
3156.673	4748
3158.462	4807
3160.252	4822
3162.041	4822
3163.831	4758
3165.618	4868
3167.405	4780
3169.193	4785
3170.979	4822
3172.767	4813
3174.553	4744
3176.338	4759
3178.123	4710
3179.907	4664
3181.692	4647
3183.477	4775
3185.259	4712
3187.042	4716
3188.824	4799
3190.607	4768
3192.389	4665
3194.17	4690
3195.951	4714
3197.73	4777
3199.51	4744
3201.289	4732
3203.07	4768
3204.848	4836
3206.626	4841
3208.403	4694
3210.18	4796
3211.959	4780
3213.735	4778
3215.511	4808
3217.285	4658
3219.06	4722
3220.836	4772
3222.611	4701
3224.384	4768
3226.158	4831
3227.929	4786
3229.702	4696
3231.476	4725
3233.248	4724
3235.018	4682
3236.789	4697
3238.56	4720
3240.33	4622
3242.1	4741
3243.869	4662
3245.637	4779
3247.405	4688
3249.172	4782
3250.941	4745
3252.707	4703
3254.474	4784
3256.24	4794
3258.006	4711
3259.772	4664
3261.537	4613
3263.301	4652
3265.065	4799
3266.828	4760
3268.592	4692
3270.355	4690
3272.117	4706
3273.878	4723
3275.64	4676
3277.401	4671
3279.162	4742
3280.922	4716
3282.682	4663
3284.441	4715
3286.199	4712
3287.959	4704
3289.716	4655
3291.475	4755
3293.232	4740
3294.988	4723
3296.744	4710
3298.501	4684
3300.256	4625
3302.011	4739
3303.766	4701
3305.52	4688
3307.275	4670
3309.028	4704
3310.781	4686
3312.533	4701
3314.285	4604
3316.038	4705
3317.789	4765
3319.54	4671
3321.289	4694
3323.039	4652
3324.789	4696
3326.539	4607
3328.288	4604
3330.035	4699
3331.783	4649
3333.531	4698
3335.28	4594
3337.025	4577
3338.771	4677
3340.518	4660
3342.262	4518
3344.009	4645
3345.753	4641
3347.497	4640
3349.24	4663
3350.983	4565
3352.726	4598
3354.469	4571
3356.212	4622
3357.952	4676
3359.694	4568
3361.434	4728
3363.176	4454
3364.916	4579
3366.654	4480
3368.394	4479
3370.132	4623
3371.871	4567
3373.61	4486
3375.346	4493
3377.083	4474
3378.82	4544
3380.556	4545
3382.292	4457
3384.027	4516
3385.763	4439
3387.497	4490
3389.231	4511
3390.965	4514
3392.698	4449
3394.431	4477
3396.164	4510
3397.896	4403
3399.627	4501
3401.36	4462
3403.09	4518
3404.82	4485
3406.55	4480
3408.279	4421
3410.01	4416
3411.738	4499
3413.467	4467
3415.194	4443
3416.92	4482
3418.647	4460
3420.375	4425
3422.102	4338
3423.827	4340
3425.553	4450
3427.277	4360
3429.003	4405
3430.727	4343
3432.451	4314
3434.173	4402
3435.896	4398
3437.62	4330
3439.343	4376
3441.063	4364
3442.785	4395
3444.505	4341
3446.226	4327
3447.948	4329
3449.666	4272
3451.386	4343
3453.104	4334
3454.823	4283
3456.541	4282
3458.259	4229
3459.976	4252
3461.693	4254
3463.408	4283
3465.125	4281
3466.841	4196
3468.556	4240
3470.271	4218
3471.985	4281
3473.698	4191
3475.414	4289
3477.126	4192
3478.838	4209
3480.55	4174
3482.263	4215
3483.975	4204
3485.686	4274
3487.396	4199
3489.106	4204
3490.817	4236
3492.526	4125
3494.236	4109
3495.944	4087
3497.652	4142
3499.359	4162
3501.066	4037
3502.775	4146
3504.481	4041
3506.187	4020
3507.893	4141
3509.598	4055
3511.304	4030
3513.009	4042
3514.713	4114
3516.417	4068
3518.12	4091
3519.821	4092
3521.525	3979
3523.228	3996
3524.929	4091
3526.631	4122
3528.33	3980
3530.032	4018
3531.733	3989
3533.433	4042
3535.131	4063
3536.83	3940
3538.529	3946
3540.227	4086
3541.925	4058
3543.623	4010
3545.319	3990
3547.016	3946
3548.712	4012
3550.408	3970
3552.103	3978
3553.798	4027
3555.491	3950
3557.188	3921
3558.88	4005
3560.574	3968
3562.266	3948
3563.959	3956
3565.651	3964
3567.343	3963
3569.035	3938
3570.725	3927
3572.415	3901
3574.106	3854
3575.797	3924
3577.485	3945
3579.174	3961
3580.863	3871
3582.551	3910
3584.238	3903
3585.926	3879
3587.613	3874
3589.3	3818
3590.986	3825
3592.671	3822
3594.357	3877
3596.042	3888
3597.726	3823
3599.41	3812
3601.094	3830
3602.778	3769
3604.461	3815
3606.143	3765
3607.825	3819
3609.507	3755
3611.188	3778
3612.87	3771
3614.551	3806
3616.229	3744
3617.909	3693
3619.589	3705
3621.269	3784
3622.948	3756
3624.625	3743
3626.302	3754
3627.98	3749
3629.657	3697
3631.334	3718
3633.01	3750
3634.686	3714
3636.361	3731
3638.036	3687
3639.712	3652
3641.385	3704
3643.06	3726
3644.732	3711
3646.405	3679
3648.08	3637
3649.751	3631
3651.424	3592
3653.094	3724
3654.766	3559
3656.436	3673
3658.106	3629
3659.777	3597
3661.446	3619
3663.115	3670
3664.783	3642
3666.452	3703
3668.121	3617
3669.788	3501
3671.454	3572
3673.121	3577
3674.789	3536
3676.455	3606
3678.12	3528
3679.784	3594
3681.45	3584
3683.114	3607
3684.779	3488
3686.442	3602
3688.105	3560
3689.768	3606
3691.43	3614
3693.093	3511
3694.754	3589
3696.415	3534
3698.076	3530
3699.736	3587
3701.396	3584
3703.057	3584
3704.716	3554
3706.375	3521
3708.034	3597
3709.692	3520
3711.351	3518
3713.008	3566
3714.665	3505
3716.321	3554
3717.977	3518
3719.634	3557
3721.29	3524
3722.945	3545
3724.598	3549
3726.253	3456
3727.907	3484
3729.561	3473
3731.214	3447
3732.867	3471
3734.518	3584
3736.171	3413
3737.824	3524
3739.474	3446
3741.125	3440
3742.775	3526
3744.425	3508
3746.074	3482
3747.725	3401
3749.373	3466
3751.022	3439
3752.669	3467
3754.318	3459
3755.966	3471
3757.612	3402
3759.259	3450
3760.905	3418
3762.55	3458
3764.197	3446
3765.842	3334
3767.486	3356
3769.131	3449
3770.774	3422
3772.417	3434
3774.061	3417
3775.705	3442
3777.347	3420
3778.988	3384
3780.629	3392
3782.271	3426
3783.912	3363
3785.552	3343
3787.192	3306
3788.831	3374
3790.472	3406
3792.112	3399
3793.75	3375
3795.388	3278
3797.024	3411
3798.661	3338
3800.3	3377
3801.936	3382
3803.572	3352
3805.208	3326
3806.844	3316
3808.48	3308
3810.115	3357
3811.748	3295
3813.382	3359
3815.016	3298
3816.649	3317
3818.283	3294
3819.914	3343
3821.547	3428
3823.178	3322
3824.809	3371
3826.441	3283
3828.072	3331
3829.701	3345
3831.331	3353
3832.96	3343
3834.591	3283
3836.219	3358
3837.847	3312
3839.475	3234
3841.102	3366
3842.729	3253
3844.357	3293
3845.984	3300
3847.609	3184
3849.234	3313
3850.86	3310
3852.485	3314
3854.11	3204
3855.734	3200
3857.357	3211
3858.981	3240
3860.603	3218
3862.227	3310
3863.848	3222
3865.471	3194
3867.092	3274
3868.713	3308
3870.334	3190
3871.954	3168
3873.575	3205
3875.194	3247
3876.813	3233
3878.433	3183
3880.051	3189
3881.669	3259
3883.286	3176
3884.904	3192
3886.52	3192
3888.138	3218
3889.754	3203
3891.37	3162
3892.985	3170
3894.6	3209
3896.216	3176
3897.831	3191
3899.444	3164
3901.058	3167
3902.67	3243
3904.283	3217
3905.897	3177
3907.509	3197
3909.121	3228
3910.731	3242
3912.342	3199
3913.954	3173
3915.563	3160
3917.174	3163
3918.783	3244
3920.391	3182
3922.002	3230
3923.611	3127
3925.218	3136
3926.826	3098
3928.432	3146
3930.039	3181
3931.647	3132
3933.253	3062
3934.859	3167
3936.464	3089
3938.068	3174
3939.675	3161
3941.278	3124
3942.883	3134
3944.486	3155
3946.089	3062
3947.692	3195
3949.295	3126
3950.898	3084
3952.499	3155
3954.1	3126
3955.7	3113
3957.303	3092
3958.903	3158
3960.502	3067
3962.101	3101
3963.7	3052
3965.301	3117
3966.899	3076
3968.497	3072
3970.094	3034
3971.691	3175
3973.288	3119
3974.885	3086
3976.481	3035
3978.077	3061
3979.672	3071
3981.267	3014
3982.863	3067
3984.457	2990
3986.051	2995
3987.645	3049
3989.238	3033
3990.831	3072
3992.425	3050
3994.017	3067
3995.607	3002
3997.199	3081
3998.79	3028
4000.382	3033
4001.973	3008
4003.561	3022
4005.151	2948
4006.741	2977
4008.331	2966
4009.918	3046
4011.507	2908
4013.095	2999
4014.681	2956
4016.269	2930
4017.856	3035
4019.443	3040
4021.028	2976
4022.614	2968
4024.199	3024
4025.785	2939
4027.37	2946
4028.953	2889
4030.536	2910
4032.12	2884
4033.704	2868
4035.287	2930
4036.869	2977
4038.45	2927
4040.032	2908
4041.613	2895
4043.195	2843
4044.776	2946
4046.356	2824
4047.935	2938
4049.515	2888
4051.095	2919
4052.674	2814
4054.251	2876
4055.829	2883
4057.406	2853
4058.985	2848
4060.562	2910
4062.139	2832
4063.715	2958
4065.29	2888
4066.865	2816
4068.442	2915
4070.016	2919
4071.59	2833
4073.164	2879
4074.738	2832
4076.312	2905
4077.885	2843
4079.458	2819
4081.03	2909
4082.602	2838
4084.173	2909
4085.745	2884
4087.315	2841
4088.886	2840
4090.456	2854
4092.026	2858
4093.596	2840
4095.165	2860
4096.734	2815
4098.301	2836
4099.869	2857
4101.437	2831
4103.006	2925
4104.572	2775
4106.139	2826
4107.704	2805
4109.27	2808
4110.837	2768
4112.401	2853
4113.966	2811
4115.53	2803
4117.094	2779
4118.659	2814
4120.223	2781
4121.785	2821
4123.347	2789
4124.909	2840
4126.471	2755
4128.034	2740
4129.595	2744
4131.155	2788
4132.716	2740
4134.275	2730
4135.836	2717
4137.395	2752
4138.955	2744
4140.513	2709
4142.071	2782
4143.628	2734
4145.188	2747
4146.745	2775
4148.302	2677
4149.858	2674
4151.414	2718
4152.971	2720
4154.526	2652
4156.081	2703
4157.635	2665
4159.189	2684
4160.745	2736
4162.298	2655
4163.852	2722
4165.405	2722
4166.957	2697
4168.51	2621
4170.063	2688
4171.614	2727
4173.166	2688
4174.717	2664
4176.267	2680
4177.817	2697
4179.368	2689
4180.917	2602
4182.466	2684
4184.016	2700
4185.564	2682
4187.112	2628
4188.66	2691
4190.207	2675
4191.754	2662
4193.301	2640
4194.848	2587
4196.394	2653
4197.94	2632
4199.484	2669
4201.03	2683
4202.575	2656
4204.12	2708
4205.663	2635
4207.207	2623
4208.75	2586
4210.292	2569
4211.836	2562
4213.378	2590
4214.92	2553
4216.46	2560
4218.002	2619
4219.544	2581
4221.083	2576
4222.625	2545
4224.164	2639
4225.703	2608
4227.244	2607
4228.782	2540
4230.32	2556
4231.857	2579
4233.395	2525
4234.933	2606
4236.471	2608
4238.007	2602
4239.542	2579
4241.078	2550
4242.614	2540
4244.15	2562
4245.685	2613
4247.219	2548
4248.753	2568
4250.287	2604
4251.82	2553
4253.354	2542
4254.887	2551
4256.419	2600
4257.951	2567
4259.483	2527
4261.016	2570
4262.547	2504
4264.078	2487
4265.608	2535
4267.137	2598
4268.668	2486
4270.197	2566
4271.727	2536
4273.254	2552
4274.783	2531
4276.311	2524
4277.84	2562
4279.366	2503
4280.894	2555
4282.42	2560
4283.946	2425
4285.473	2553
4286.998	2535
4288.523	2562
4290.047	2525
4291.572	2484
4293.096	2535
4294.622	2511
4296.144	2460
4297.668	2490
4299.19	2506
4300.713	2525
4302.236	2532
4303.758	2466
4305.279	2491
4306.799	2517
4308.321	2501
4309.842	2453
4311.361	2457
4312.882	2506
4314.401	2448
