400.0961	4595
402.6185	4674
405.1424	4683
407.6635	4611
410.1838	4739
412.7035	4734
415.2225	4827
417.7388	4785
420.2585	4887
422.7754	4869
425.2917	4944
427.8072	4940
430.3221	5030
432.8363	5081
435.3498	5049
437.8626	5023
440.3727	4958
442.8841	4999
445.3969	5007
447.907	4991
450.4142	5046
452.9229	4990
455.4289	4948
457.9362	4900
460.4449	5039
462.9488	4967
465.454	5040
467.9566	4999
470.4604	4879
472.9637	5041
475.4662	5039
477.966	5010
480.4671	4870
482.9656	4969
485.4633	4951
487.9645	4950
490.4608	5011
492.9566	4998
495.4536	5017
497.948	5045
500.4437	5069
502.9387	5114
505.431	5013
507.9226	5075
510.4136	5048
512.9079	5060
515.3975	5143
517.8864	5135
520.3746	5086
522.8622	5130
525.3491	5184
527.8394	5145
530.3249	5056
532.8098	5244
535.2939	5150
537.7774	5231
540.2623	5204
542.7444	5241
545.2259	5167
547.7067	5113
550.1868	5134
552.6683	5207
555.147	5198
557.6231	5257
560.1005	5060
562.5773	5185
565.0534	5130
567.5308	5263
570.0056	5377
572.4776	5243
574.951	5374
577.4237	5381
579.8978	5456
582.3671	5507
584.8378	5381
587.3079	5362
589.7773	5425
592.244	5533
594.714	5418
597.1793	5420
599.6461	5370
602.1121	5417
604.5754	5393
607.0421	5415
609.5042	5289
611.9675	5418
614.4282	5397
616.8902	5367
619.3515	5315
621.8122	5372
624.2702	5333
626.7296	5336
629.1863	5290
631.6423	5305
634.1017	5345
636.5563	5328
639.0104	5284
641.4658	5227
643.9185	5312
646.3725	5202
648.8239	5323
651.2766	5274
653.7266	5385
656.176	5354
658.6247	5442
661.0748	5483
663.5242	5469
665.9709	5527
668.417	5428
670.8624	5443
673.3092	5604
675.7533	5435
678.1968	5464
680.6395	5470
683.0817	5473
685.5251	5493
687.9659	5538
690.4061	5539
692.8456	5550
695.2844	5448
697.7226	5588
700.1621	5516
702.599	5565
705.0332	5567
707.4688	5549
709.9036	5543
712.3399	5589
714.7735	5634
717.2044	5686
719.6367	5716
722.0683	5598
724.4993	5700
726.9296	5660
729.3593	5731
731.7883	5680
734.2147	5789
736.6423	5694
739.0714	5692
741.4958	5795
743.9216	5798
746.3447	5743
748.7691	5948
751.1929	5780
753.616	5943
756.0366	5855
758.4584	5906
760.8776	5920
763.2982	5944
765.718	5930
768.1373	5828
770.5539	5905
772.9698	5820
775.3871	6034
777.8038	5866
780.2178	5915
782.6332	5898
785.0459	5934
787.458	5930
789.8714	5916
792.2842	5920
794.6943	5943
797.1038	5937
799.5127	5900
801.9209	5871
804.3324	5926
806.7393	6082
809.1456	5920
811.5513	5979
813.9562	6171
816.3625	6125
818.7663	6025
821.1693	6050
823.5718	5967
825.9735	6015
828.3746	6042
830.7771	5986
833.177	6081
835.5762	6127
837.9747	6066
840.3727	6028
842.772	6120
845.1666	6107
847.5626	6110
849.958	6128
852.3527	6237
854.7488	6169
857.1403	6231
859.5331	6235
861.9253	6289
864.3168	6008
866.7057	6218
869.098	6221
871.4876	6239
873.8746	6109
876.263	6160
878.6487	6175
881.0378	6174
883.4243	6185
885.8081	6160
888.1933	6155
890.5759	6187
892.9598	6094
895.343	6125
897.7256	6091
900.1057	6183
902.4871	6233
904.8659	6187
907.246	6174
909.6254	6266
912.0023	6272
914.3786	6328
916.7562	6385
919.1331	6541
921.5074	6513
923.8831	6624
926.2562	6569
928.6287	6532
931.0005	6569
933.3757	6686
935.7462	6649
938.1162	6674
940.4855	6784
942.8542	6834
945.2242	6872
947.5916	7052
949.9584	7150
952.3266	7315
954.6921	7765
957.0571	8087
959.4233	8273
961.787	8447
964.15	8461
966.5125	8256
968.8742	7777
971.2354	7506
973.5959	7100
975.9559	6893
978.3151	6767
980.6738	6593
983.0338	6537
985.3912	6410
987.7461	6552
990.1022	6466
992.4578	6404
994.8127	6285
997.1689	6447
999.5207	6423
1001.874	6603
1004.226	6543
1006.576	6464
1008.929	6557
1011.28	6454
1013.628	6416
1015.977	6416
1018.324	6461
1020.674	6389
1023.019	6472
1025.366	6465
1027.713	6417
1030.056	6453
1032.399	6618
1034.746	6605
1037.087	6559
1039.431	6628
1041.771	6424
1044.113	6631
1046.454	6473
1048.793	6726
1051.133	6589
1053.471	6575
1055.807	6514
1058.146	6572
1060.483	6655
1062.818	6660
1065.153	6808
1067.489	6684
1069.822	6751
1072.156	6704
1074.488	6776
1076.82	6774
1079.15	6675
1081.48	6674
1083.814	6598
1086.143	6714
1088.471	6563
1090.799	6560
1093.126	6623
1095.452	6569
1097.78	6573
1100.105	6660
1102.43	6473
1104.754	6486
1107.077	6533
1109.4	6581
1111.722	6663
1114.044	6544
1116.365	6492
1118.685	6435
1121.005	6565
1123.324	6593
1125.643	6612
1127.961	6600
1130.278	6497
1132.595	6617
1134.911	6541
1137.226	6568
1139.541	6615
1141.854	6551
1144.167	6499
1146.482	6586
1148.793	6540
1151.105	6558
1153.414	6558
1155.725	6610
1158.033	6556
1160.344	6610
1162.651	6705
1164.959	6511
1167.265	6690
1169.572	6677
1171.878	6599
1174.184	6741
1176.488	6599
1178.79	6561
1181.094	6613
1183.396	6590
1185.699	6705
1188.001	6610
1190.301	6642
1192.6	6618
1194.9	6637
1197.2	6517
1199.497	6584
1201.794	6551
1204.09	6738
1206.387	6615
1208.684	6603
1210.978	6665
1213.272	6580
1215.565	6510
1217.858	6658
1220.15	6590
1222.443	6708
1224.734	6602
1227.024	6682
1229.313	6625
1231.602	6681
1233.892	6636
1236.18	6816
1238.467	6960
1240.754	6894
1243.04	6858
1245.325	6915
1247.612	6945
1249.896	7006
1252.178	6919
1254.461	6984
1256.743	6934
1259.027	7001
1261.308	6998
1263.587	6972
1265.867	7008
1268.146	6829
1270.425	6966
1272.703	6915
1274.981	6951
1277.256	6927
1279.532	6873
1281.808	6822
1284.083	6862
1286.358	6808
1288.63	6804
1290.904	6826
1293.175	6826
1295.449	6812
1297.719	6834
1299.99	6844
1302.259	6720
1304.529	6728
1306.798	6787
1309.065	6759
1311.333	6756
1313.599	6579
1315.866	6748
1318.131	6699
1320.396	6821
1322.66	6809
1324.925	6789
1327.187	6950
1329.448	6851
1331.711	6792
1333.974	6877
1336.234	6788
1338.493	6863
1340.752	6781
1343.01	6841
1345.269	6795
1347.526	6777
1349.784	6728
1352.04	6701
1354.295	6794
1356.552	6763
1358.806	6732
1361.059	6807
1363.312	6713
1365.564	6807
1367.818	6766
1370.069	6792
1372.318	6771
1374.568	6827
1376.817	6870
1379.066	6855
1381.316	6853
1383.564	6846
1385.809	6881
1388.056	6862
1390.301	6934
1392.549	6919
1394.793	6924
1397.036	6969
1399.279	7164
1401.522	7152
1403.763	7077
1406.007	7152
1408.248	7137
1410.487	7169
1412.727	7148
1414.965	7034
1417.205	7080
1419.442	7079
1421.68	7085
1423.915	6962
1426.152	6976
1428.388	7147
1430.623	7159
1432.857	7062
1435.091	7153
1437.323	7035
1439.556	7117
1441.789	7087
1444.019	7034
1446.25	7156
1448.48	7138
1450.708	7260
1452.938	7197
1455.167	7375
1457.394	7163
1459.62	7358
1461.846	7264
1464.073	7114
1466.299	7212
1468.523	7116
1470.746	7119
1472.969	7005
1475.191	6987
1477.415	6896
1479.636	7012
1481.858	6943
1484.078	6818
1486.298	6929
1488.518	6758
1490.736	6808
1492.954	6712
1495.169	6871
1497.386	6889
1499.602	6789
1501.819	6858
1504.034	6787
1506.248	6829
1508.462	6805
1510.675	6760
1512.888	6769
1515.1	6680
1517.311	6779
1519.522	6779
1521.732	6770
1523.942	6739
1526.151	6725
1528.36	6772
1530.566	6754
1532.773	6904
1534.98	6912
1537.187	6768
1539.392	6799
1541.596	6837
1543.801	6792
1546.005	6727
1548.208	6834
1550.411	6931
1552.612	6767
1554.814	6871
1557.013	6880
1559.212	6855
1561.414	6903
1563.612	6842
1565.811	6874
1568.007	6894
1570.203	6958
1572.403	6892
1574.598	6851
1576.792	6971
1578.988	6883
1581.181	7077
1583.376	7113
1585.568	7099
1587.761	7022
1589.952	7052
1592.143	6973
1594.333	7103
1596.524	6901
1598.715	7042
1600.903	6994
1603.091	6988
1605.278	7182
1607.466	7098
1609.652	7098
1611.838	7037
1614.023	7057
1616.207	6943
1618.391	7016
1620.576	7052
1622.759	7155
1624.941	7144
1627.123	7103
1629.304	7192
1631.484	7071
1633.664	7143
1635.844	7174
1638.022	7245
1640.201	7145
1642.38	7214
1644.556	7237
1646.732	7060
1648.908	7187
1651.084	7151
1653.257	7078
1655.433	7234
1657.607	7212
1659.779	7300
1661.951	7105
1664.122	7300
1666.295	7177
1668.467	7305
1670.635	7196
1672.805	7254
1674.973	7212
1677.142	7259
1679.31	7217
1681.478	7194
1683.644	7224
1685.81	7221
1687.975	7263
1690.142	7175
1692.305	7182
1694.468	7080
1696.632	7134
1698.794	6981
1700.957	7060
1703.119	7050
1705.279	6927
1707.439	7093
1709.598	6978
1711.758	7017
1713.917	6975
1716.075	7061
1718.231	7044
1720.388	6930
1722.543	6988
1724.702	6978
1726.856	6954
1729.01	7023
1731.164	7068
1733.317	6989
1735.471	7080
1737.623	6969
1739.774	7009
1741.925	7064
1744.075	7055
1746.225	7040
1748.376	6977
1750.524	6994
1752.672	6936
1754.82	7088
1756.965	6962
1759.113	6990
1761.259	6992
1763.405	7029
1765.549	7038
1767.694	7093
1769.836	7063
1771.981	7141
1774.123	6943
1776.264	7041
1778.405	7033
1780.546	6983
1782.687	7070
1784.827	7068
1786.966	7044
1789.103	7167
1791.242	7204
1793.381	7124
1795.517	7167
1797.653	7052
1799.788	6977
1801.923	7127
1804.057	7192
1806.193	7006
1808.326	7069
1810.457	7009
1812.59	6983
1814.721	7043
1816.855	7008
1818.984	7128
1821.113	7080
1823.244	7217
1825.372	7029
1827.499	6954
1829.63	6973
1831.756	7047
1833.882	6972
1836.007	7122
1838.132	6884
1840.26	7041
1842.384	7035
1844.507	6993
1846.63	7080
1848.752	6944
1850.875	6971
1852.996	7125
1855.118	6971
1857.238	6858
1859.358	6880
1861.477	6857
1863.597	6871
1865.715	7013
1867.832	7078
1869.948	6945
1872.064	6941
1874.181	6963
1876.297	6968
1878.411	6983
1880.526	6969
1882.639	7064
1884.752	7066
1886.865	7012
1888.977	6998
1891.089	7026
1893.2	6991
1895.308	7020
1897.42	7019
1899.53	7028
1901.639	7064
1903.745	7125
1905.853	7128
1907.962	6984
1910.067	7120
1912.174	7045
1914.278	7042
1916.383	7100
1918.486	7103
1920.592	7089
1922.694	7142
1924.797	7063
1926.898	7176
1929	7083
1931.102	7042
1933.203	7084
1935.301	7117
1937.401	7192
1939.499	7150
1941.598	7052
1943.697	7108
1945.793	7182
1947.888	7073
1949.985	7089
1952.08	7186
1954.176	7050
1956.269	6986
1958.364	7100
1960.457	7215
1962.549	7080
1964.642	7105
1966.733	7166
1968.823	7101
1970.913	7105
1973.005	7009
1975.093	7096
1977.184	7022
1979.271	7153
1981.359	7121
1983.446	7040
1985.532	7001
1987.619	7118
1989.705	7105
1991.789	6967
1993.874	7011
1995.956	7040
1998.041	7099
2000.123	6945
2002.206	7057
2004.287	6975
2006.368	7026
2008.449	6950
2010.529	7027
2012.609	7051
2014.688	6914
2016.766	6984
2018.843	6921
2020.922	6885
2022.999	6979
2025.074	6919
2027.15	7089
2029.225	7027
2031.299	7048
2033.375	7030
2035.447	7028
2037.52	7135
2039.592	6955
2041.664	7001
2043.736	6959
2045.807	6998
2047.876	7042
2049.947	7035
2052.015	7059
2054.086	7022
2056.153	7073
2058.221	7011
2060.288	6904
2062.353	7019
2064.42	7064
2066.486	7018
2068.55	7112
2070.614	6982
2072.678	7220
2074.741	6997
2076.805	7015
2078.866	7025
2080.929	7054
2082.99	7089
2085.049	7001
2087.109	7078
2089.17	7058
2091.228	6896
2093.286	6916
2095.344	7110
2097.4	7070
2099.46	7054
2101.516	7063
2103.572	7079
2105.626	7133
2107.679	6937
2109.735	6964
2111.788	6982
2113.841	7028
2115.894	7010
2117.945	7032
2119.997	7001
2122.049	7000
2124.1	6909
2126.148	7168
2128.197	6999
2130.246	7248
2132.296	7042
2134.342	6977
2136.39	6991
2138.437	6994
2140.483	7067
2142.527	6988
2144.574	6989
2146.619	6968
2148.661	6895
2150.705	6941
2152.747	7023
2154.792	7008
2156.832	6994
2158.874	7111
2160.915	6908
2162.954	6930
2164.995	6962
2167.034	7020
2169.072	6895
2171.111	6916
2173.148	6876
2175.186	6936
2177.223	6906
2179.258	6945
2181.294	6796
2183.328	6918
2185.362	6955
2187.398	6987
2189.431	6932
2191.463	6954
2193.495	7006
2195.528	6862
2197.56	6864
2199.59	6890
2201.62	6853
2203.649	6879
2205.678	6896
2207.708	6864
2209.737	6854
2211.764	6825
2213.791	6727
2215.817	6802
2217.843	6757
2219.87	6927
2221.895	6840
2223.919	6883
2225.942	6787
2227.966	6771
2229.988	6829
2232.012	6801
2234.032	6928
2236.054	6870
2238.074	6716
2240.095	6784
2242.116	6778
2244.135	6844
2246.153	6816
2248.171	6692
2250.188	6830
2252.208	6858
2254.223	6852
2256.239	6808
2258.255	6738
2260.269	6909
2262.283	6945
2264.3	6848
2266.312	6772
2268.325	6818
2270.336	6903
2272.349	6814
2274.362	6899
2276.372	6817
2278.383	6764
2280.392	6810
2282.402	6802
2284.409	6780
2286.418	6786
2288.427	6786
2290.433	6730
2292.441	6793
2294.446	6784
2296.453	6816
2298.459	6748
2300.463	6833
2302.466	6764
2304.471	6732
2306.475	6812
2308.477	6799
2310.478	6777
2312.481	6692
2314.481	6728
2316.481	6821
2318.482	6747
2320.482	6617
2322.48	6684
2324.48	6748
2326.478	6742
2328.476	6751
2330.473	6708
2332.469	6852
2334.465	6751
2336.46	6676
2338.454	6635
2340.45	6719
2342.444	6727
2344.437	6672
2346.43	6630
2348.421	6678
2350.414	6641
2352.405	6780
2354.396	6768
2356.386	6741
2358.376	6543
2360.366	6664
2362.355	6687
2364.343	6710
2366.331	6644
2368.317	6614
2370.304	6635
2372.292	6657
2374.278	6539
2376.262	6660
2378.247	6579
2380.23	6650
2382.216	6686
2384.199	6471
2386.181	6641
2388.163	6546
2390.144	6535
2392.127	6582
2394.107	6564
2396.087	6633
2398.066	6533
2400.046	6585
2402.023	6583
2404.004	6541
2405.981	6572
2407.957	6607
2409.934	6632
2411.91	6526
2413.886	6525
2415.862	6519
2417.836	6640
2419.809	6525
2421.784	6496
2423.756	6593
2425.73	6494
2427.701	6571
2429.672	6600
2431.644	6581
2433.615	6686
2435.586	6427
2437.555	6593
2439.523	6547
2441.491	6566
2443.459	6678
2445.428	6542
2447.395	6443
2449.361	6617
2451.327	6509
2453.292	6531
2455.257	6457
2457.223	6459
2459.187	6480
2461.15	6573
2463.113	6440
2465.076	6528
2467.039	6584
2468.999	6493
2470.96	6408
2472.921	6594
2474.881	6500
2476.841	6419
2478.8	6472
2480.759	6512
2482.717	6478
2484.675	6547
2486.63	6459
2488.589	6331
2490.545	6370
2492.5	6412
2494.455	6483
2496.408	6392
2498.364	6437
2500.318	6352
2502.27	6428
2504.223	6421
2506.174	6459
2508.126	6413
2510.078	6442
2512.03	6350
2513.979	6433
2515.927	6410
2517.877	6282
2519.826	6376
2521.775	6405
2523.722	6347
2525.668	6427
2527.616	6422
2529.561	6382
2531.508	6405
2533.452	6431
2535.398	6354
2537.342	6310
2539.284	6403
2541.229	6436
2543.173	6312
2545.114	6458
2547.055	6383
2548.996	6306
2550.938	6323
2552.878	6280
2554.817	6457
2556.756	6480
2558.695	6287
2560.633	6401
2562.572	6324
2564.509	6476
2566.445	6436
2568.382	6411
2570.317	6280
2572.254	6296
2574.189	6428
2576.123	6318
2578.057	6319
2579.99	6289
2581.923	6333
2583.855	6437
2585.788	6476
2587.719	6327
2589.65	6458
2591.579	6384
2593.511	6386
2595.44	6322
2597.37	6461
2599.297	6404
2601.225	6385
2603.153	6416
2605.08	6469
2607.007	6465
2608.932	6373
2610.858	6426
2612.782	6442
2614.709	6423
2616.632	6413
2618.556	6356
2620.478	6419
2622.401	6415
2624.324	6312
2626.247	6254
2628.167	6350
2630.088	6320
2632.008	6271
2633.928	6367
2635.848	6281
2637.766	6393
2639.684	6496
2641.603	6508
2643.519	6423
2645.437	6370
2647.353	6351
2649.27	6358
2651.184	6281
2653.099	6375
2655.014	6380
2656.928	6361
2658.842	6435
2660.755	6297
2662.667	6369
2664.579	6408
2666.491	6547
2668.402	6445
2670.312	6339
2672.222	6256
2674.132	6413
2676.042	6309
2677.951	6377
2679.859	6249
2681.766	6420
2683.674	6350
2685.582	6371
2687.488	6270
2689.392	6271
2691.298	6164
2693.202	6266
2695.107	6242
2697.012	6221
2698.914	6351
2700.817	6300
2702.72	6106
2704.622	6345
2706.524	6435
2708.425	6188
2710.326	6152
2712.225	6371
2714.125	6306
2716.024	6237
2717.923	6337
2719.822	6280
2721.719	6365
2723.616	6132
2725.512	6372
2727.41	6233
2729.305	6273
2731.201	6204
2733.095	6281
2734.99	6309
2736.884	6174
2738.778	6183
2740.67	6313
2742.562	6166
2744.455	6276
2746.346	6324
2748.238	6220
2750.129	6247
2752.018	6235
2753.907	6317
2755.797	6262
2757.687	6218
2759.575	6215
2761.462	6250
2763.349	6121
2765.237	6215
2767.124	6239
2769.009	6144
2770.894	6211
2772.779	6215
2774.663	6169
2776.547	6136
2778.431	6138
2780.314	6224
2782.197	6243
2784.078	6259
2785.96	6225
2787.842	6184
2789.723	6165
2791.603	6180
2793.483	6171
2795.362	6201
2797.241	6252
2799.121	6160
2800.997	6134
2802.874	6218
2804.751	6129
2806.628	6084
2808.506	6141
2810.38	6089
2812.255	6110
2814.13	6161
2816.003	6108
2817.878	6109
2819.752	6179
2821.623	6120
2823.496	6146
2825.368	6081
2827.238	6217
2829.111	6212
2830.98	6120
2832.851	6175
2834.719	6145
2836.589	6181
2838.458	6130
2840.327	6052
2842.193	6153
2844.061	6156
2845.927	6184
2847.794	6244
2849.66	6276
2851.525	6295
2853.39	6223
2855.254	6242
2857.117	6171
2858.983	6290
2860.845	6284
2862.707	6297
2864.569	6342
2866.431	6331
2868.293	6330
2870.154	6414
2872.013	6515
2873.873	6557
2875.733	6636
2877.592	6679
2879.451	6677
2881.309	6717
2883.166	6746
2885.022	6813
2886.879	6846
2888.736	6838
2890.591	6868
2892.446	6845
2894.301	6804
2896.155	6807
2898.009	6686
2899.863	6872
2901.716	6877
2903.568	6735
2905.419	6765
2907.27	6798
2909.123	6843
2910.973	6836
2912.824	6912
2914.673	6910
2916.521	6959
2918.372	7152
2920.22	7102
2922.067	7237
2923.914	7241
2925.761	7235
2927.607	7323
2929.455	7307
2931.301	7416
2933.144	7414
2934.99	7590
2936.833	7570
2938.678	7765
2940.522	7685
2942.364	7896
2944.207	7941
2946.048	7815
2947.891	7986
2949.731	7908
2951.571	7867
2953.412	7940
2955.25	7693
2957.09	7662
2958.93	7618
2960.767	7589
2962.606	7604
2964.443	7417
2966.279	7469
2968.116	7352
2969.953	7139
2971.788	7171
2973.623	7038
2975.457	6926
2977.292	7259
2979.127	6946
2980.959	6912
2982.792	6899
2984.624	6874
2986.455	6954
2988.288	6808
2990.119	6759
2991.949	6792
2993.779	6669
2995.608	6569
2997.439	6618
2999.268	6627
3001.096	6513
3002.923	6525
3004.751	6436
3006.578	6252
3008.406	6401
3010.232	6236
3012.057	6127
3013.883	6133
3015.706	6161
3017.532	6059
3019.356	6064
3021.179	6010
3023.002	6110
3024.823	6086
3026.646	5965
3028.469	5958
3030.289	6013
3032.11	5862
3033.93	6000
3035.749	5934
3037.57	5909
3039.39	5912
3041.207	5837
3043.026	5761
3044.842	5911
3046.661	5905
3048.477	5831
3050.294	5848
3052.109	5828
3053.925	5821
3055.739	5814
3057.555	5878
3059.368	5787
3061.181	5948
3062.995	5606
3064.807	5881
3066.62	5868
3068.433	5841
3070.243	5936
3072.054	5886
3073.865	5812
3075.675	5809
3077.485	5766
3079.293	5693
3081.102	5777
3082.911	5670
3084.719	5730
3086.527	5759
3088.333	5740
3090.139	5929
3091.945	5693
3093.75	5706
3095.557	5662
3097.361	5623
3099.165	5766
3100.969	5730
3102.772	5687
3104.575	5706
3106.379	5621
3108.181	5532
3109.982	5631
3111.783	5635
3113.584	5686
3115.386	5578
3117.186	5600
3118.985	5594
3120.783	5668
3122.582	5539
3124.381	5520
3126.179	5534
3127.975	5512
3129.772	5573
3131.569	5581
3133.365	5490
3135.161	5578
3136.956	5560
3138.751	5542
3140.544	5456
3142.338	5500
3144.132	5525
3145.925	5607
3147.717	5511
3149.509	5361
3151.301	5499
3153.091	5409
3154.884	5429
3156.673	5447
3158.462	5524
3160.252	5480
3162.041	5530
3163.831	5492
3165.618	5461
3167.405	5480
3169.193	5531
3170.979	5360
3172.767	5533
3174.553	5433
3176.338	5504
3178.123	5433
3179.907	5462
3181.692	5509
3183.477	5484
3185.259	5615
3187.042	5442
3188.824	5419
3190.607	5548
3192.389	5419
3194.17	5498
3195.951	5496
3197.73	5492
3199.51	5393
3201.289	5399
3203.07	5370
3204.848	5466
3206.626	5402
3208.403	5470
3210.18	5317
3211.959	5346
3213.735	5377
3215.511	5446
3217.285	5445
3219.06	5563
3220.836	5383
3222.611	5272
3224.384	5399
3226.158	5475
3227.929	5416
3229.702	5434
3231.476	5440
3233.248	5454
3235.018	5423
3236.789	5461
3238.56	5377
3240.33	5387
3242.1	5466
3243.869	5393
3245.637	5386
3247.405	5326
3249.172	5386
3250.941	5406
3252.707	5387
3254.474	5411
3256.24	5397
3258.006	5326
3259.772	5436
3261.537	5416
3263.301	5413
3265.065	5480
3266.828	5363
3268.592	5431
3270.355	5438
3272.117	5362
3273.878	5394
3275.64	5434
3277.401	5454
3279.162	5462
3280.922	5477
3282.682	5356
3284.441	5435
3286.199	5522
3287.959	5445
3289.716	5301
3291.475	5442
3293.232	5416
3294.988	5520
3296.744	5422
3298.501	5439
3300.256	5483
3302.011	5436
3303.766	5416
3305.52	5439
3307.275	5387
3309.028	5517
3310.781	5415
3312.533	5336
3314.285	5434
3316.038	5428
3317.789	5395
3319.54	5380
3321.289	5469
3323.039	5513
3324.789	5330
3326.539	5358
3328.288	5361
3330.035	5370
3331.783	5308
3333.531	5381
3335.28	5385
3337.025	5328
3338.771	5348
3340.518	5391
3342.262	5319
3344.009	5325
3345.753	5287
3347.497	5321
3349.24	5279
3350.983	5361
3352.726	5251
3354.469	5234
3356.212	5269
3357.952	5284
3359.694	5196
3361.434	5237
3363.176	5262
3364.916	5352
3366.654	5282
3368.394	5229
3370.132	5332
3371.871	5175
3373.61	5280
3375.346	5132
3377.083	5283
3378.82	5143
3380.556	5246
3382.292	5188
3384.027	5142
3385.763	5177
3387.497	5229
3389.231	5303
3390.965	5201
3392.698	5169
3394.431	5228
3396.164	5073
3397.896	5197
3399.627	5112
3401.36	5175
3403.09	5236
3404.82	5148
3406.55	5184
3408.279	5026
3410.01	5094
3411.738	5085
3413.467	5091
3415.194	5079
3416.92	5060
3418.647	5113
3420.375	5086
3422.102	5155
3423.827	5121
3425.553	5032
3427.277	5071
3429.003	5125
3430.727	5015
3432.451	5031
3434.173	4933
3435.896	5073
3437.62	5021
3439.343	5090
3441.063	5075
3442.785	5078
3444.505	5027
3446.226	4999
3447.948	5053
3449.666	4967
3451.386	5119
3453.104	4987
3454.823	5013
3456.541	4942
3458.259	4997
3459.976	4856
3461.693	4995
3463.408	4856
3465.125	4950
3466.841	5062
3468.556	4880
3470.271	4884
3471.985	4996
3473.698	4819
3475.414	4851
3477.126	4877
3478.838	4899
3480.55	4906
3482.263	4901
3483.975	4777
3485.686	4897
3487.396	4858
3489.106	4788
3490.817	4856
3492.526	4777
3494.236	4860
3495.944	4870
3497.652	4800
3499.359	4813
3501.066	4670
3502.775	4772
3504.481	4668
3506.187	4760
3507.893	4870
3509.598	4769
3511.304	4755
3513.009	4737
3514.713	4700
3516.417	4677
3518.12	4759
3519.821	4668
3521.525	4651
3523.228	4760
3524.929	4667
3526.631	4687
3528.33	4615
3530.032	4616
3531.733	4755
3533.433	4638
3535.131	4699
3536.83	4599
3538.529	4592
3540.227	4653
3541.925	4592
3543.623	4662
3545.319	4626
3547.016	4651
3548.712	4598
3550.408	4660
3552.103	4660
3553.798	4610
3555.491	4562
3557.188	4595
3558.88	4637
3560.574	4494
3562.266	4668
3563.959	4598
3565.651	4510
3567.343	4543
3569.035	4591
3570.725	4517
3572.415	4524
3574.106	4507
3575.797	4539
3577.485	4453
3579.174	4472
3580.863	4518
3582.551	4452
3584.238	4501
3585.926	4471
3587.613	4486
3589.3	4519
3590.986	4502
3592.671	4461
3594.357	4415
3596.042	4405
3597.726	4468
3599.41	4425
3601.094	4466
3602.778	4393
3604.461	4330
3606.143	4379
3607.825	4385
3609.507	4290
3611.188	4404
3612.87	4299
3614.551	4294
3616.229	4403
3617.909	4337
3619.589	4371
3621.269	4363
3622.948	4321
3624.625	4362
3626.302	4309
3627.98	4358
3629.657	4319
3631.334	4240
3633.01	4251
3634.686	4304
3636.361	4228
3638.036	4347
3639.712	4323
3641.385	4247
3643.06	4157
3644.732	4202
3646.405	4274
3648.08	4210
3649.751	4263
3651.424	4226
3653.094	4187
3654.766	4276
3656.436	4145
3658.106	4116
3659.777	4226
3661.446	4142
3663.115	4138
3664.783	4185
3666.452	4193
3668.121	4252
3669.788	4107
3671.454	4121
3673.121	4153
3674.789	4119
3676.455	4157
3678.12	4189
3679.784	4103
3681.45	4167
3683.114	4047
3684.779	4158
3686.442	4178
3688.105	4127
3689.768	4034
3691.43	4161
3693.093	4080
3694.754	4158
3696.415	4052
3698.076	4034
3699.736	4078
3701.396	4073
3703.057	4101
3704.716	4110
3706.375	4059
3708.034	4062
3709.692	4140
3711.351	4033
3713.008	4115
3714.665	4108
3716.321	4039
3717.977	4053
3719.634	4011
3721.29	4041
3722.945	3967
3724.598	3973
3726.253	4008
3727.907	4065
3729.561	4053
3731.214	3972
3732.867	4038
3734.518	4071
3736.171	4004
3737.824	4045
3739.474	3954
3741.125	3977
3742.775	4013
3744.425	4046
3746.074	4043
3747.725	3991
3749.373	3951
3751.022	4010
3752.669	3916
3754.318	3956
3755.966	3963
3757.612	3943
3759.259	3990
3760.905	3975
3762.55	3948
3764.197	3951
3765.842	3977
3767.486	4000
3769.131	3908
3770.774	3883
3772.417	3858
3774.061	3948
3775.705	3926
3777.347	3962
3778.988	3865
3780.629	3904
3782.271	3935
3783.912	3898
3785.552	3913
3787.192	3863
3788.831	3882
3790.472	3750
3792.112	3933
3793.75	3861
3795.388	3808
3797.024	3861
3798.661	3801
3800.3	3792
3801.936	3823
3803.572	3857
3805.208	3806
3806.844	3845
3808.48	3767
3810.115	3817
3811.748	3733
3813.382	3815
3815.016	3790
3816.649	3755
3818.283	3837
3819.914	3818
3821.547	3727
3823.178	3785
3824.809	3730
3826.441	3831
3828.072	3790
3829.701	3812
3831.331	3815
3832.96	3723
3834.591	3782
3836.219	3763
3837.847	3797
3839.475	3705
3841.102	3688
3842.729	3798
3844.357	3682
3845.984	3675
3847.609	3781
3849.234	3745
3850.86	3730
3852.485	3711
3854.11	3685
3855.734	3726
3857.357	3680
3858.981	3772
3860.603	3633
3862.227	3649
3863.848	3694
3865.471	3707
3867.092	3730
3868.713	3701
3870.334	3628
3871.954	3665
3873.575	3675
3875.194	3746
3876.813	3655
3878.433	3630
3880.051	3651
3881.669	3661
3883.286	3696
3884.904	3658
3886.52	3575
3888.138	3720
3889.754	3611
3891.37	3670
3892.985	3697
3894.6	3661
3896.216	3577
3897.831	3656
3899.444	3595
3901.058	3603
3902.67	3711
3904.283	3652
3905.897	3605
3907.509	3592
3909.121	3597
3910.731	3631
3912.342	3564
3913.954	3627
3915.563	3641
3917.174	3612
3918.783	3570
3920.391	3592
3922.002	3669
3923.611	3608
3925.218	3554
3926.826	3511
3928.432	3618
3930.039	3527
3931.647	3536
3933.253	3634
3934.859	3592
3936.464	3605
3938.068	3570
3939.675	3616
3941.278	3574
3942.883	3535
3944.486	3543
3946.089	3592
3947.692	3525
3949.295	3533
3950.898	3577
3952.499	3556
3954.1	3485
3955.7	3542
3957.303	3518
3958.903	3522
3960.502	3496
3962.101	3598
3963.7	3463
3965.301	3523
3966.899	3426
3968.497	3557
3970.094	3482
3971.691	3485
3973.288	3489
3974.885	3516
3976.481	3537
3978.077	3465
3979.672	3462
3981.267	3418
3982.863	3448
3984.457	3484
3986.051	3481
3987.645	3409
3989.238	3521
3990.831	3441
3992.425	3436
3994.017	3393
3995.607	3536
3997.199	3421
3998.79	3420
4000.382	3465
4001.973	3374
4003.561	3478
4005.151	3414
4006.741	3429
4008.331	3372
4009.918	3401
4011.507	3406
4013.095	3359
4014.681	3349
4016.269	3342
4017.856	3316
4019.443	3340
4021.028	3395
4022.614	3312
4024.199	3343
4025.785	3320
4027.37	3260
4028.953	3351
4030.536	3346
4032.12	3260
4033.704	3317
4035.287	3237
4036.869	3306
4038.45	3348
4040.032	3383
4041.613	3254
4043.195	3269
4044.776	3338
4046.356	3340
4047.935	3228
4049.515	3303
4051.095	3267
4052.674	3248
4054.251	3234
4055.829	3296
4057.406	3231
4058.985	3307
4060.562	3274
4062.139	3235
4063.715	3274
4065.29	3224
4066.865	3227
4068.442	3255
4070.016	3282
4071.59	3213
4073.164	3280
4074.738	3226
4076.312	3268
4077.885	3226
4079.458	3183
4081.03	3294
4082.602	3306
4084.173	3309
4085.745	3239
4087.315	3234
4088.886	3210
4090.456	3208
4092.026	3138
4093.596	3153
4095.165	3240
4096.734	3256
4098.301	3195
4099.869	3158
4101.437	3154
4103.006	3101
4104.572	3167
4106.139	3208
4107.704	3177
4109.27	3157
4110.837	3160
4112.401	3148
4113.966	3145
4115.53	3150
4117.094	3063
4118.659	3230
4120.223	3189
4121.785	3086
4123.347	3124
4124.909	3258
4126.471	3132
4128.034	3084
4129.595	3150
4131.155	3095
4132.716	3092
4134.275	3136
4135.836	3125
4137.395	3126
4138.955	3132
4140.513	3150
4142.071	3000
4143.628	3077
4145.188	3065
4146.745	3078
4148.302	3056
4149.858	3088
4151.414	3028
4152.971	3041
4154.526	3102
4156.081	2998
4157.635	2993
4159.189	3098
4160.745	3038
4162.298	3056
4163.852	3031
4165.405	3033
4166.957	3000
4168.51	2971
4170.063	3056
4171.614	2993
4173.166	2988
4174.717	2985
4176.267	3018
4177.817	2995
4179.368	2956
4180.917	3019
4182.466	2975
4184.016	3032
4185.564	3014
4187.112	3011
4188.66	2987
4190.207	2939
4191.754	2954
4193.301	2907
4194.848	2961
4196.394	2889
4197.94	2950
4199.484	2932
4201.03	2965
4202.575	2924
4204.12	2973
4205.663	2948
4207.207	2941
4208.75	2924
4210.292	2842
4211.836	2874
4213.378	2960
4214.92	2912
4216.46	2902
4218.002	2876
4219.544	2971
4221.083	2959
4222.625	2923
4224.164	2919
4225.703	2970
4227.244	2843
4228.782	2926
4230.32	2899
4231.857	2910
4233.395	2921
4234.933	2942
4236.471	2922
4238.007	2858
4239.542	2885
4241.078	2896
4242.614	2896
4244.15	2851
4245.685	2863
4247.219	2839
4248.753	2887
4250.287	2865
4251.82	2843
4253.354	2831
4254.887	2851
4256.419	2906
4257.951	2857
4259.483	2896
4261.016	2798
4262.547	2799
4264.078	2829
4265.608	2864
4267.137	2803
4268.668	2781
4270.197	2823
4271.727	2797
4273.254	2780
4274.783	2830
4276.311	2855
4277.84	2853
4279.366	2884
4280.894	2765
4282.42	2798
4283.946	2846
4285.473	2870
4286.998	2835
4288.523	2828
4290.047	2750
4291.572	2814
4293.096	2802
4294.622	2746
4296.144	2766
4297.668	2816
4299.19	2818
4300.713	2834
4302.236	2737
4303.758	2757
4305.279	2797
4306.799	2753
4308.321	2780
4309.842	2757
4311.361	2749
4312.882	2734
4314.401	2768
