400.0961	4385
402.6185	4393
405.1424	4422
407.6635	4454
410.1838	4454
412.7035	4403
415.2225	4416
417.7388	4459
420.2585	4574
422.7754	4588
425.2917	4554
427.8072	4556
430.3221	4593
432.8363	4700
435.3498	4660
437.8626	4617
440.3727	4572
442.8841	4647
445.3969	4719
447.907	4608
450.4142	4620
452.9229	4697
455.4289	4767
457.9362	4718
460.4449	4679
462.9488	4778
465.454	4633
467.9566	4629
470.4604	4756
472.9637	4760
475.4662	4771
477.966	4698
480.4671	4784
482.9656	4808
485.4633	4789
487.9645	4772
490.4608	4776
492.9566	4905
495.4536	4859
497.948	4921
500.4437	4796
502.9387	4931
505.431	4956
507.9226	4901
510.4136	4999
512.9079	4971
515.3975	4918
517.8864	4967
520.3746	4965
522.8622	4922
525.3491	4961
527.8394	5032
530.3249	4939
532.8098	4949
535.2939	5073
537.7774	4944
540.2623	4975
542.7444	4973
545.2259	5001
547.7067	4985
550.1868	5016
552.6683	4897
555.147	4976
557.6231	4942
560.1005	4961
562.5773	4965
565.0534	4999
567.5308	5079
570.0056	5014
572.4776	5046
574.951	5103
577.4237	4972
579.8978	5056
582.3671	5208
584.8378	5060
587.3079	5120
589.7773	5179
592.244	5193
594.714	5186
597.1793	5101
599.6461	5159
602.1121	5130
604.5754	5116
607.0421	5140
609.5042	5133
611.9675	5159
614.4282	5023
616.8902	5164
619.3515	5151
621.8122	5095
624.2702	5184
626.7296	5219
629.1863	5104
631.6423	5189
634.1017	5151
636.5563	5211
639.0104	5089
641.4658	5182
643.9185	5116
646.3725	5188
648.8239	5221
651.2766	5168
653.7266	5202
656.176	5187
658.6247	5262
661.0748	5230
663.5242	5251
665.9709	5117
668.417	5230
670.8624	5254
673.3092	5265
675.7533	5412
678.1968	5378
680.6395	5250
683.0817	5250
685.5251	5333
687.9659	5374
690.4061	5454
692.8456	5347
695.2844	5385
697.7226	5387
700.1621	5330
702.599	5428
705.0332	5455
707.4688	5415
709.9036	5437
712.3399	5313
714.7735	5331
717.2044	5378
719.6367	5429
722.0683	5400
724.4993	5473
726.9296	5513
729.3593	5535
731.7883	5395
734.2147	5594
736.6423	5610
739.0714	5483
741.4958	5658
743.9216	5605
746.3447	5602
748.7691	5714
751.1929	5573
753.616	5568
756.0366	5743
758.4584	5659
760.8776	5663
763.2982	5698
765.718	5689
768.1373	5735
770.5539	5659
772.9698	5736
775.3871	5685
777.8038	5668
780.2178	5700
782.6332	5708
785.0459	5710
787.458	5793
789.8714	5816
792.2842	5783
794.6943	5787
797.1038	5843
799.5127	5625
801.9209	5706
804.3324	5762
806.7393	5728
809.1456	5750
811.5513	5795
813.9562	5751
816.3625	5862
818.7663	5796
821.1693	5879
823.5718	5864
825.9735	5851
828.3746	5775
830.7771	5788
833.177	5820
835.5762	5831
837.9747	5913
840.3727	5832
842.772	5925
845.1666	5915
847.5626	6000
849.958	5862
852.3527	5856
854.7488	5932
857.1403	5878
859.5331	5912
861.9253	5896
864.3168	5886
866.7057	5895
869.098	5991
871.4876	5943
873.8746	5895
876.263	5881
878.6487	5966
881.0378	5932
883.4243	5808
885.8081	5917
888.1933	5975
890.5759	5840
892.9598	5975
895.343	6005
897.7256	5890
900.1057	5842
902.4871	5898
904.8659	6007
907.246	6002
909.6254	5907
912.0023	6000
914.3786	5970
916.7562	6075
919.1331	6010
921.5074	6040
923.8831	6105
926.2562	6079
928.6287	6117
931.0005	6144
933.3757	6142
935.7462	6099
938.1162	6111
940.4855	6265
942.8542	6199
945.2242	6274
947.5916	6208
949.9584	6188
952.3266	6405
954.6921	6554
957.0571	6582
959.4233	6643
961.787	6796
964.15	6747
966.5125	6753
968.8742	6516
971.2354	6456
973.5959	6357
975.9559	6312
978.3151	6201
980.6738	6118
983.0338	6224
985.3912	6193
987.7461	6106
990.1022	6104
992.4578	6063
994.8127	6103
997.1689	6090
999.5207	6142
1001.874	6077
1004.226	6147
1006.576	6131
1008.929	6108
1011.28	6055
1013.628	6144
1015.977	6249
1018.324	6177
1020.674	6135
1023.019	6125
1025.366	6126
1027.713	6208
1030.056	6183
1032.399	6209
1034.746	6241
1037.087	6251
1039.431	6255
1041.771	6177
1044.113	6218
1046.454	6204
1048.793	6230
1051.133	6206
1053.471	6231
1055.807	6242
1058.146	6272
1060.483	6124
1062.818	6201
1065.153	6338
1067.489	6191
1069.822	6178
1072.156	6326
1074.488	6339
1076.82	6276
1079.15	6222
1081.48	6298
1083.814	6300
1086.143	6282
1088.471	6255
1090.799	6284
1093.126	6268
1095.452	6272
1097.78	6239
1100.105	6341
1102.43	6330
1104.754	6311
1107.077	6342
1109.4	6323
1111.722	6386
1114.044	6302
1116.365	6304
1118.685	6329
1121.005	6335
1123.324	6310
1125.643	6235
1127.961	6353
1130.278	6386
1132.595	6265
1134.911	6339
1137.226	6348
1139.541	6400
1141.854	6440
1144.167	6255
1146.482	6349
1148.793	6532
1151.105	6264
1153.414	6321
1155.725	6296
1158.033	6325
1160.344	6297
1162.651	6408
1164.959	6271
1167.265	6463
1169.572	6202
1171.878	6287
1174.184	6330
1176.488	6393
1178.79	6350
1181.094	6287
1183.396	6253
1185.699	6255
1188.001	6307
1190.301	6317
1192.6	6321
1194.9	6260
1197.2	6396
1199.497	6330
1201.794	6357
1204.09	6382
1206.387	6418
1208.684	6420
1210.978	6409
1213.272	6490
1215.565	6353
1217.858	6458
1220.15	6480
1222.443	6386
1224.734	6444
1227.024	6536
1229.313	6441
1231.602	6423
1233.892	6564
1236.18	6483
1238.467	6646
1240.754	6575
1243.04	6551
1245.325	6558
1247.612	6694
1249.896	6516
1252.178	6541
1254.461	6632
1256.743	6621
1259.027	6641
1261.308	6480
1263.587	6596
1265.867	6586
1268.146	6621
1270.425	6585
1272.703	6610
1274.981	6515
1277.256	6669
1279.532	6546
1281.808	6654
1284.083	6532
1286.358	6570
1288.63	6514
1290.904	6500
1293.175	6469
1295.449	6499
1297.719	6590
1299.99	6556
1302.259	6508
1304.529	6467
1306.798	6569
1309.065	6507
1311.333	6593
1313.599	6543
1315.866	6574
1318.131	6433
1320.396	6572
1322.66	6488
1324.925	6569
1327.187	6521
1329.448	6535
1331.711	6566
1333.974	6585
1336.234	6545
1338.493	6636
1340.752	6590
1343.01	6413
1345.269	6651
1347.526	6554
1349.784	6599
1352.04	6578
1354.295	6616
1356.552	6645
1358.806	6589
1361.059	6548
1363.312	6600
1365.564	6601
1367.818	6618
1370.069	6590
1372.318	6477
1374.568	6622
1376.817	6693
1379.066	6714
1381.316	6675
1383.564	6715
1385.809	6568
1388.056	6702
1390.301	6695
1392.549	6699
1394.793	6740
1397.036	6771
1399.279	6912
1401.522	6807
1403.763	6811
1406.007	6684
1408.248	6747
1410.487	6732
1412.727	6639
1414.965	6932
1417.205	6624
1419.442	6672
1421.68	6661
1423.915	6862
1426.152	6754
1428.388	6769
1430.623	6649
1432.857	6746
1435.091	6705
1437.323	6896
1439.556	6796
1441.789	6875
1444.019	6628
1446.25	6874
1448.48	6800
1450.708	6840
1452.938	6833
1455.167	6810
1457.394	6790
1459.62	6853
1461.846	6735
1464.073	6813
1466.299	6803
1468.523	6689
1470.746	6764
1472.969	6720
1475.191	6687
1477.415	6720
1479.636	6747
1481.858	6612
1484.078	6732
1486.298	6587
1488.518	6657
1490.736	6676
1492.954	6621
1495.169	6588
1497.386	6704
1499.602	6515
1501.819	6597
1504.034	6551
1506.248	6711
1508.462	6661
1510.675	6550
1512.888	6640
1515.1	6563
1517.311	6722
1519.522	6588
1521.732	6658
1523.942	6563
1526.151	6628
1528.36	6662
1530.566	6564
1532.773	6560
1534.98	6684
1537.187	6644
1539.392	6664
1541.596	6678
1543.801	6687
1546.005	6690
1548.208	6658
1550.411	6655
1552.612	6704
1554.814	6634
1557.013	6703
1559.212	6694
1561.414	6657
1563.612	6888
1565.811	6725
1568.007	6836
1570.203	6724
1572.403	6680
1574.598	6812
1576.792	6881
1578.988	6803
1581.181	6772
1583.376	6778
1585.568	6726
1587.761	6861
1589.952	6894
1592.143	6778
1594.333	6916
1596.524	6777
1598.715	6905
1600.903	6718
1603.091	6833
1605.278	6874
1607.466	6845
1609.652	6856
1611.838	6877
1614.023	6850
1616.207	6818
1618.391	6905
1620.576	6823
1622.759	6836
1624.941	6945
1627.123	6730
1629.304	6861
1631.484	6829
1633.664	6899
1635.844	6885
1638.022	6879
1640.201	6927
1642.38	6839
1644.556	6753
1646.732	6853
1648.908	6826
1651.084	6991
1653.257	6891
1655.433	6847
1657.607	6895
1659.779	6864
1661.951	6795
1664.122	6932
1666.295	6787
1668.467	6953
1670.635	6898
1672.805	6888
1674.973	6865
1677.142	6880
1679.31	6878
1681.478	6898
1683.644	6833
1685.81	6847
1687.975	6811
1690.142	6884
1692.305	6871
1694.468	6908
1696.632	6811
1698.794	6989
1700.957	6816
1703.119	6806
1705.279	6801
1707.439	6726
1709.598	6839
1711.758	6947
1713.917	6794
1716.075	6987
1718.231	6814
1720.388	6828
1722.543	6893
1724.702	6753
1726.856	6810
1729.01	6922
1731.164	6848
1733.317	6895
1735.471	6914
1737.623	6821
1739.774	6910
1741.925	6684
1744.075	6806
1746.225	6887
1748.376	6846
1750.524	6837
1752.672	6794
1754.82	6875
1756.965	6913
1759.113	6856
1761.259	6856
1763.405	6885
1765.549	6822
1767.694	6873
1769.836	6796
1771.981	6901
1774.123	6881
1776.264	6835
1778.405	6851
1780.546	6830
1782.687	6954
1784.827	6845
1786.966	6835
1789.103	6767
1791.242	6875
1793.381	6945
1795.517	6847
1797.653	6981
1799.788	6858
1801.923	6898
1804.057	6954
1806.193	6746
1808.326	6984
1810.457	6948
1812.59	6845
1814.721	7050
1816.855	6767
1818.984	7001
1821.113	6801
1823.244	6900
1825.372	6958
1827.499	6826
1829.63	6931
1831.756	6920
1833.882	6858
1836.007	6780
1838.132	7040
1840.26	6927
1842.384	6878
1844.507	6859
1846.63	6803
1848.752	6832
1850.875	6900
1852.996	6917
1855.118	6875
1857.238	6787
1859.358	6860
1861.477	6830
1863.597	6731
1865.715	6846
1867.832	6782
1869.948	6840
1872.064	6742
1874.181	6874
1876.297	6925
1878.411	6822
1880.526	6859
1882.639	6811
1884.752	6795
1886.865	6848
1888.977	6916
1891.089	6856
1893.2	6817
1895.308	6847
1897.42	6785
1899.53	6934
1901.639	6843
1903.745	6950
1905.853	6898
1907.962	6973
1910.067	6889
1912.174	6937
1914.278	6900
1916.383	6951
1918.486	6943
1920.592	6839
1922.694	7036
1924.797	6994
1926.898	6858
1929	7021
1931.102	6952
1933.203	6824
1935.301	6876
1937.401	7100
1939.499	6959
1941.598	6953
1943.697	6914
1945.793	6806
1947.888	6925
1949.985	7045
1952.08	6832
1954.176	7052
1956.269	6844
1958.364	6803
1960.457	6858
1962.549	6842
1964.642	6982
1966.733	6939
1968.823	6975
1970.913	6906
1973.005	6740
1975.093	6843
1977.184	6847
1979.271	6967
1981.359	6863
1983.446	6984
1985.532	6860
1987.619	6921
1989.705	6876
1991.789	6880
1993.874	6912
1995.956	6917
1998.041	6816
2000.123	6773
2002.206	6833
2004.287	6737
2006.368	6783
2008.449	6854
2010.529	6818
2012.609	6875
2014.688	6771
2016.766	6791
2018.843	6851
2020.922	6789
2022.999	6848
2025.074	6899
2027.15	6903
2029.225	6956
2031.299	6918
2033.375	6845
2035.447	6969
2037.52	6813
2039.592	6852
2041.664	6804
2043.736	6799
2045.807	6806
2047.876	6834
2049.947	6805
2052.015	6856
2054.086	6875
2056.153	6930
2058.221	6847
2060.288	6835
2062.353	6857
2064.42	6795
2066.486	6768
2068.55	6895
2070.614	6726
2072.678	6829
2074.741	6873
2076.805	6857
2078.866	6890
2080.929	6809
2082.99	6864
2085.049	6810
2087.109	6747
2089.17	6922
2091.228	6819
2093.286	6778
2095.344	6757
2097.4	6743
2099.46	6768
2101.516	6779
2103.572	6873
2105.626	6772
2107.679	6911
2109.735	6814
2111.788	6676
2113.841	6786
2115.894	6768
2117.945	6793
2119.997	6732
2122.049	6827
2124.1	6945
2126.148	6693
2128.197	6695
2130.246	6850
2132.296	6780
2134.342	6815
2136.39	6832
2138.437	6805
2140.483	6753
2142.527	6819
2144.574	6846
2146.619	6714
2148.661	6707
2150.705	6638
2152.747	6805
2154.792	6713
2156.832	6779
2158.874	6743
2160.915	6754
2162.954	6698
2164.995	6773
2167.034	6721
2169.072	6790
2171.111	6694
2173.148	6735
2175.186	6697
2177.223	6697
2179.258	6724
2181.294	6702
2183.328	6661
2185.362	6778
2187.398	6678
2189.431	6608
2191.463	6763
2193.495	6630
2195.528	6651
2197.56	6675
2199.59	6730
2201.62	6714
2203.649	6579
2205.678	6617
2207.708	6711
2209.737	6635
2211.764	6667
2213.791	6587
2215.817	6582
2217.843	6702
2219.87	6516
2221.895	6525
2223.919	6527
2225.942	6624
2227.966	6581
2229.988	6704
2232.012	6564
2234.032	6612
2236.054	6652
2238.074	6537
2240.095	6634
2242.116	6594
2244.135	6552
2246.153	6537
2248.171	6531
2250.188	6595
2252.208	6610
2254.223	6606
2256.239	6592
2258.255	6594
2260.269	6559
2262.283	6669
2264.3	6588
2266.312	6558
2268.325	6608
2270.336	6568
2272.349	6675
2274.362	6581
2276.372	6597
2278.383	6549
2280.392	6636
2282.402	6566
2284.409	6621
2286.418	6544
2288.427	6633
2290.433	6593
2292.441	6565
2294.446	6607
2296.453	6510
2298.459	6602
2300.463	6575
2302.466	6573
2304.471	6406
2306.475	6685
2308.477	6644
2310.478	6581
2312.481	6583
2314.481	6572
2316.481	6526
2318.482	6483
2320.482	6620
2322.48	6491
2324.48	6549
2326.478	6517
2328.476	6579
2330.473	6547
2332.469	6498
2334.465	6481
2336.46	6353
2338.454	6555
2340.45	6576
2342.444	6589
2344.437	6354
2346.43	6498
2348.421	6475
2350.414	6514
2352.405	6491
2354.396	6383
2356.386	6399
2358.376	6496
2360.366	6271
2362.355	6492
2364.343	6321
2366.331	6423
2368.317	6404
2370.304	6469
2372.292	6518
2374.278	6356
2376.262	6377
2378.247	6414
2380.23	6390
2382.216	6299
2384.199	6360
2386.181	6406
2388.163	6397
2390.144	6347
2392.127	6412
2394.107	6298
2396.087	6403
2398.066	6427
2400.046	6356
2402.023	6247
2404.004	6355
2405.981	6297
2407.957	6369
2409.934	6306
2411.91	6292
2413.886	6391
2415.862	6333
2417.836	6261
2419.809	6320
2421.784	6322
2423.756	6344
2425.73	6285
2427.701	6372
2429.672	6336
2431.644	6306
2433.615	6257
2435.586	6376
2437.555	6342
2439.523	6337
2441.491	6352
2443.459	6275
2445.428	6401
2447.395	6242
2449.361	6320
2451.327	6287
2453.292	6378
2455.257	6257
2457.223	6273
2459.187	6209
2461.15	6193
2463.113	6313
2465.076	6234
2467.039	6276
2468.999	6319
2470.96	6165
2472.921	6231
2474.881	6345
2476.841	6168
2478.8	6184
2480.759	6140
2482.717	6257
2484.675	6269
2486.63	6164
2488.589	6229
2490.545	6212
2492.5	6281
2494.455	6249
2496.408	6190
2498.364	6226
2500.318	6215
2502.27	6129
2504.223	6152
2506.174	6252
2508.126	6135
2510.078	6193
2512.03	6158
2513.979	6187
2515.927	6116
2517.877	6128
2519.826	6135
2521.775	6200
2523.722	6133
2525.668	6214
2527.616	6058
2529.561	6156
2531.508	6174
2533.452	6177
2535.398	6106
2537.342	6057
2539.284	6210
2541.229	6227
2543.173	6125
2545.114	6261
2547.055	6033
2548.996	6212
2550.938	6126
2552.878	6116
2554.817	6136
2556.756	6275
2558.695	6054
2560.633	6212
2562.572	6087
2564.509	6145
2566.445	6198
2568.382	6126
2570.317	6132
2572.254	6086
2574.189	6069
2576.123	6057
2578.057	6107
2579.99	6083
2581.923	6171
2583.855	6136
2585.788	6249
2587.719	6040
2589.65	6130
2591.579	6120
2593.511	6160
2595.44	6199
2597.37	6128
2599.297	6184
2601.225	6143
2603.153	6054
2605.08	6127
2607.007	6115
2608.932	5967
2610.858	6084
2612.782	6103
2614.709	6200
2616.632	6179
2618.556	6039
2620.478	6080
2622.401	6100
2624.324	6038
2626.247	6221
2628.167	6097
2630.088	6073
2632.008	6121
2633.928	6121
2635.848	6038
2637.766	6024
2639.684	6085
2641.603	6178
2643.519	6080
2645.437	6121
2647.353	6047
2649.27	6129
2651.184	6091
2653.099	6110
2655.014	6188
2656.928	6121
2658.842	6052
2660.755	6135
2662.667	6062
2664.579	6078
2666.491	6132
2668.402	6053
2670.312	6136
2672.222	6054
2674.132	6095
2676.042	6061
2677.951	5970
2679.859	5977
2681.766	5991
2683.674	6138
2685.582	6054
2687.488	6055
2689.392	6020
2691.298	6077
2693.202	5999
2695.107	6052
2697.012	6076
2698.914	5979
2700.817	6097
2702.72	5901
2704.622	6002
2706.524	6095
2708.425	5844
2710.326	5972
2712.225	5877
2714.125	5894
2716.024	5939
2717.923	5885
2719.822	6033
2721.719	5943
2723.616	5781
2725.512	6009
2727.41	6036
2729.305	5884
2731.201	5962
2733.095	5965
2734.99	5946
2736.884	5955
2738.778	5973
2740.67	5988
2742.562	5910
2744.455	5982
2746.346	5953
2748.238	5896
2750.129	5939
2752.018	6040
2753.907	5900
2755.797	5867
2757.687	5893
2759.575	5919
2761.462	5830
2763.349	5907
2765.237	5837
2767.124	5974
2769.009	5915
2770.894	5890
2772.779	5857
2774.663	5860
2776.547	5922
2778.431	5768
2780.314	5804
2782.197	5837
2784.078	5975
2785.96	5848
2787.842	5807
2789.723	5915
2791.603	5845
2793.483	5853
2795.362	5776
2797.241	5886
2799.121	5808
2800.997	5836
2802.874	5918
2804.751	5916
2806.628	5811
2808.506	5929
2810.38	5877
2812.255	5849
2814.13	5840
2816.003	5778
2817.878	5814
2819.752	5817
2821.623	5850
2823.496	5825
2825.368	5935
2827.238	5839
2829.111	5784
2830.98	5783
2832.851	5665
2834.719	5823
2836.589	5743
2838.458	5883
2840.327	5723
2842.193	5731
2844.061	5899
2845.927	5749
2847.794	5843
2849.66	5864
2851.525	5824
2853.39	5821
2855.254	5768
2857.117	5809
2858.983	5832
2860.845	5783
2862.707	5792
2864.569	5874
2866.431	5838
2868.293	5831
2870.154	5828
2872.013	5763
2873.873	5859
2875.733	5864
2877.592	5908
2879.451	6009
2881.309	5912
2883.166	6017
2885.022	5993
2886.879	5866
2888.736	6015
2890.591	6075
2892.446	6010
2894.301	5948
2896.155	6027
2898.009	5922
2899.863	6012
2901.716	6040
2903.568	6002
2905.419	5949
2907.27	6039
2909.123	6115
2910.973	5985
2912.824	6057
2914.673	5996
2916.521	6164
2918.372	6096
2920.22	6116
2922.067	6001
2923.914	6105
2925.761	6060
2927.607	6126
2929.455	6130
2931.301	6112
2933.144	6213
2934.99	6171
2936.833	6218
2938.678	6237
2940.522	6376
2942.364	6400
2944.207	6192
2946.048	6232
2947.891	6516
2949.731	6428
2951.571	6329
2953.412	6317
2955.25	6303
2957.09	6207
2958.93	6314
2960.767	6202
2962.606	6299
2964.443	6294
2966.279	6125
2968.116	6133
2969.953	6022
2971.788	6158
2973.623	6099
2975.457	6013
2977.292	6012
2979.127	5897
2980.959	5876
2982.792	5824
2984.624	5910
2986.455	5870
2988.288	5933
2990.119	5819
2991.949	5796
2993.779	5802
2995.608	5809
2997.439	5804
2999.268	5784
3001.096	5714
3002.923	5683
3004.751	5687
3006.578	5671
3008.406	5617
3010.232	5606
3012.057	5533
3013.883	5499
3015.706	5685
3017.532	5559
3019.356	5512
3021.179	5532
3023.002	5438
3024.823	5519
3026.646	5512
3028.469	5484
3030.289	5379
3032.11	5391
3033.93	5532
3035.749	5434
3037.57	5436
3039.39	5421
3041.207	5492
3043.026	5413
3044.842	5560
3046.661	5412
3048.477	5487
3050.294	5454
3052.109	5498
3053.925	5423
3055.739	5292
3057.555	5421
3059.368	5369
3061.181	5428
3062.995	5366
3064.807	5390
3066.62	5373
3068.433	5449
3070.243	5304
3072.054	5319
3073.865	5293
3075.675	5240
3077.485	5371
3079.293	5329
3081.102	5398
3082.911	5316
3084.719	5296
3086.527	5323
3088.333	5290
3090.139	5299
3091.945	5190
3093.75	5214
3095.557	5264
3097.361	5304
3099.165	5213
3100.969	5164
3102.772	5259
3104.575	5209
3106.379	5268
3108.181	5296
3109.982	5208
3111.783	5249
3113.584	5292
3115.386	5112
3117.186	5220
3118.985	5341
3120.783	5208
3122.582	5100
3124.381	5132
3126.179	5128
3127.975	5104
3129.772	5108
3131.569	5190
3133.365	4992
3135.161	5109
3136.956	5099
3138.751	5117
3140.544	5062
3142.338	5123
3144.132	5123
3145.925	5160
3147.717	5187
3149.509	4992
3151.301	5121
3153.091	5058
3154.884	5043
3156.673	5125
3158.462	5029
3160.252	5161
3162.041	4940
3163.831	5033
3165.618	4984
3167.405	5081
3169.193	5111
3170.979	5035
3172.767	4955
3174.553	5036
3176.338	4984
3178.123	5015
3179.907	4934
3181.692	5053
3183.477	5028
3185.259	5026
3187.042	4927
3188.824	5031
3190.607	4941
3192.389	4920
3194.17	5044
3195.951	4961
3197.73	5043
3199.51	4980
3201.289	4888
3203.07	5017
3204.848	4872
3206.626	4915
3208.403	4969
3210.18	4941
3211.959	4943
3213.735	4850
3215.511	4935
3217.285	4914
3219.06	4973
3220.836	4907
3222.611	4869
3224.384	4932
3226.158	4847
3227.929	5007
3229.702	4814
3231.476	4904
3233.248	4848
3235.018	4942
3236.789	4885
3238.56	4972
3240.33	4870
3242.1	4874
3243.869	4866
3245.637	5012
3247.405	4865
3249.172	4878
3250.941	4897
3252.707	4872
3254.474	4964
3256.24	4894
3258.006	4930
3259.772	4875
3261.537	4828
3263.301	4882
3265.065	4835
3266.828	4923
3268.592	4838
3270.355	4948
3272.117	4957
3273.878	4765
3275.64	4932
3277.401	4833
3279.162	4904
3280.922	4853
3282.682	4871
3284.441	4913
3286.199	4797
3287.959	4795
3289.716	4849
3291.475	4898
3293.232	4850
3294.988	4870
3296.744	4818
3298.501	4833
3300.256	4791
3302.011	4802
3303.766	4787
3305.52	4814
3307.275	4820
3309.028	4922
3310.781	4816
3312.533	4798
3314.285	4824
3316.038	4869
3317.789	4849
3319.54	4823
3321.289	4784
3323.039	4828
3324.789	4770
3326.539	4786
3328.288	4885
3330.035	4841
3331.783	4820
3333.531	4765
3335.28	4789
3337.025	4764
3338.771	4746
3340.518	4710
3342.262	4812
3344.009	4773
3345.753	4725
3347.497	4773
3349.24	4750
3350.983	4737
3352.726	4670
3354.469	4823
3356.212	4740
3357.952	4735
3359.694	4795
3361.434	4698
3363.176	4707
3364.916	4743
3366.654	4661
3368.394	4704
3370.132	4686
3371.871	4563
3373.61	4641
3375.346	4750
3377.083	4738
3378.82	4593
3380.556	4718
3382.292	4700
3384.027	4732
3385.763	4601
3387.497	4695
3389.231	4636
3390.965	4689
3392.698	4768
3394.431	4639
3396.164	4689
3397.896	4644
3399.627	4614
3401.36	4612
3403.09	4609
3404.82	4686
3406.55	4631
3408.279	4643
3410.01	4669
3411.738	4553
3413.467	4652
3415.194	4683
3416.92	4581
3418.647	4587
3420.375	4474
3422.102	4562
3423.827	4500
3425.553	4634
3427.277	4527
3429.003	4615
3430.727	4661
3432.451	4530
3434.173	4516
3435.896	4552
3437.62	4556
3439.343	4550
3441.063	4568
3442.785	4415
3444.505	4375
3446.226	4477
3447.948	4551
3449.666	4424
3451.386	4514
3453.104	4521
3454.823	4538
3456.541	4451
3458.259	4452
3459.976	4419
3461.693	4464
3463.408	4404
3465.125	4411
3466.841	4488
3468.556	4320
3470.271	4451
3471.985	4415
3473.698	4416
3475.414	4398
3477.126	4336
3478.838	4400
3480.55	4397
3482.263	4302
3483.975	4346
3485.686	4298
3487.396	4407
3489.106	4340
3490.817	4385
3492.526	4329
3494.236	4336
3495.944	4374
3497.652	4253
3499.359	4351
3501.066	4354
3502.775	4352
3504.481	4336
3506.187	4318
3507.893	4312
3509.598	4250
3511.304	4311
3513.009	4195
3514.713	4339
3516.417	4358
3518.12	4302
3519.821	4331
3521.525	4313
3523.228	4292
3524.929	4275
3526.631	4227
3528.33	4213
3530.032	4190
3531.733	4257
3533.433	4306
3535.131	4198
3536.83	4246
3538.529	4363
3540.227	4276
3541.925	4151
3543.623	4239
3545.319	4294
3547.016	4283
3548.712	4265
3550.408	4111
3552.103	4247
3553.798	4142
3555.491	4204
3557.188	4207
3558.88	4235
3560.574	4226
3562.266	4121
3563.959	4170
3565.651	4203
3567.343	4136
3569.035	4213
3570.725	4190
3572.415	4141
3574.106	4103
3575.797	4057
3577.485	4213
3579.174	4127
3580.863	4149
3582.551	4171
3584.238	4099
3585.926	4165
3587.613	4186
3589.3	4070
3590.986	4141
3592.671	4099
3594.357	4122
3596.042	3974
3597.726	4052
3599.41	4109
3601.094	4056
3602.778	4042
3604.461	4131
3606.143	4046
3607.825	4075
3609.507	4060
3611.188	3994
3612.87	4011
3614.551	4027
3616.229	4064
3617.909	4047
3619.589	4041
3621.269	3960
3622.948	4040
3624.625	4030
3626.302	4090
3627.98	4031
3629.657	4030
3631.334	3986
3633.01	4033
3634.686	4006
3636.361	3968
3638.036	3894
3639.712	4000
3641.385	3972
3643.06	3926
3644.732	3926
3646.405	3879
3648.08	3964
3649.751	3973
3651.424	3853
3653.094	3953
3654.766	3896
3656.436	3899
3658.106	3779
3659.777	3886
3661.446	3882
3663.115	3923
3664.783	3943
3666.452	3963
3668.121	3990
3669.788	3910
3671.454	3877
3673.121	3875
3674.789	3944
3676.455	3823
3678.12	3940
3679.784	3921
3681.45	3831
3683.114	3863
3684.779	3818
3686.442	3927
3688.105	3874
3689.768	3832
3691.43	3892
3693.093	3785
3694.754	3902
3696.415	3803
3698.076	3837
3699.736	3799
3701.396	3887
3703.057	3793
3704.716	3809
3706.375	3887
3708.034	3810
3709.692	3755
3711.351	3825
3713.008	3767
3714.665	3853
3716.321	3851
3717.977	3762
3719.634	3816
3721.29	3753
3722.945	3755
3724.598	3831
3726.253	3855
3727.907	3875
3729.561	3773
3731.214	3769
3732.867	3741
3734.518	3783
3736.171	3762
3737.824	3796
3739.474	3819
3741.125	3775
3742.775	3709
3744.425	3768
3746.074	3733
3747.725	3746
3749.373	3790
3751.022	3729
3752.669	3662
3754.318	3700
3755.966	3722
3757.612	3737
3759.259	3716
3760.905	3708
3762.55	3676
3764.197	3658
3765.842	3746
3767.486	3730
3769.131	3693
3770.774	3689
3772.417	3693
3774.061	3730
3775.705	3603
3777.347	3646
3778.988	3670
3780.629	3640
3782.271	3663
3783.912	3698
3785.552	3719
3787.192	3641
3788.831	3613
3790.472	3640
3792.112	3677
3793.75	3562
3795.388	3622
3797.024	3700
3798.661	3647
3800.3	3603
3801.936	3618
3803.572	3548
3805.208	3499
3806.844	3714
3808.48	3624
3810.115	3648
3811.748	3571
3813.382	3609
3815.016	3534
3816.649	3589
3818.283	3604
3819.914	3585
3821.547	3541
3823.178	3533
3824.809	3478
3826.441	3530
3828.072	3530
3829.701	3539
3831.331	3514
3832.96	3537
3834.591	3620
3836.219	3491
3837.847	3550
3839.475	3531
3841.102	3502
3842.729	3525
3844.357	3534
3845.984	3595
3847.609	3520
3849.234	3434
3850.86	3603
3852.485	3486
3854.11	3498
3855.734	3569
3857.357	3461
3858.981	3444
3860.603	3510
3862.227	3507
3863.848	3480
3865.471	3490
3867.092	3414
3868.713	3435
3870.334	3545
3871.954	3463
3873.575	3505
3875.194	3442
3876.813	3546
3878.433	3443
3880.051	3407
3881.669	3466
3883.286	3426
3884.904	3426
3886.52	3409
3888.138	3466
3889.754	3460
3891.37	3410
3892.985	3476
3894.6	3411
3896.216	3472
3897.831	3323
3899.444	3395
3901.058	3337
3902.67	3422
3904.283	3365
3905.897	3335
3907.509	3378
3909.121	3344
3910.731	3429
3912.342	3354
3913.954	3431
3915.563	3419
3917.174	3376
3918.783	3392
3920.391	3399
3922.002	3448
3923.611	3370
3925.218	3353
3926.826	3424
3928.432	3330
3930.039	3327
3931.647	3305
3933.253	3377
3934.859	3314
3936.464	3321
3938.068	3410
3939.675	3379
3941.278	3317
3942.883	3405
3944.486	3344
3946.089	3313
3947.692	3372
3949.295	3369
3950.898	3255
3952.499	3346
3954.1	3390
3955.7	3351
3957.303	3285
3958.903	3225
3960.502	3286
3962.101	3281
3963.7	3309
3965.301	3267
3966.899	3281
3968.497	3242
3970.094	3334
3971.691	3240
3973.288	3358
3974.885	3287
3976.481	3156
3978.077	3241
3979.672	3344
3981.267	3201
3982.863	3298
3984.457	3245
3986.051	3205
3987.645	3252
3989.238	3214
3990.831	3275
3992.425	3280
3994.017	3211
3995.607	3212
3997.199	3227
3998.79	3221
4000.382	3183
4001.973	3179
4003.561	3141
4005.151	3179
4006.741	3204
4008.331	3112
4009.918	3164
4011.507	3136
4013.095	3161
4014.681	3104
4016.269	3135
4017.856	3154
4019.443	3179
4021.028	3161
4022.614	3123
4024.199	3140
4025.785	3069
4027.37	3171
4028.953	3144
4030.536	3170
4032.12	3067
4033.704	3084
4035.287	3154
4036.869	3136
4038.45	3136
4040.032	2989
4041.613	3111
4043.195	3103
4044.776	3125
4046.356	3050
4047.935	3097
4049.515	3063
4051.095	3059
4052.674	3030
4054.251	3071
4055.829	3078
4057.406	3117
4058.985	3064
4060.562	3083
4062.139	3158
4063.715	3045
4065.29	3086
4066.865	3031
4068.442	3108
4070.016	3056
4071.59	2998
4073.164	3015
4074.738	3070
4076.312	3085
4077.885	2985
4079.458	3090
4081.03	3001
4082.602	3025
4084.173	3049
4085.745	3003
4087.315	3047
4088.886	2965
4090.456	3037
4092.026	3010
4093.596	2963
4095.165	2980
4096.734	2978
4098.301	2974
4099.869	2944
4101.437	3009
4103.006	2976
4104.572	2951
4106.139	2964
4107.704	2999
4109.27	2990
4110.837	2938
4112.401	2937
4113.966	2993
4115.53	2999
4117.094	3019
4118.659	2954
4120.223	2946
4121.785	2934
4123.347	2956
4124.909	2965
4126.471	2946
4128.034	3012
4129.595	2978
4131.155	2927
4132.716	2915
4134.275	2877
4135.836	2919
4137.395	2927
4138.955	2880
4140.513	2868
4142.071	2859
4143.628	2900
4145.188	2894
4146.745	2881
4148.302	2916
4149.858	2869
4151.414	2909
4152.971	2913
4154.526	2839
4156.081	2797
4157.635	2919
4159.189	2811
4160.745	2915
4162.298	2817
4163.852	2895
4165.405	2852
4166.957	2774
4168.51	2805
4170.063	2847
4171.614	2832
4173.166	2770
4174.717	2815
4176.267	2910
4177.817	2765
4179.368	2785
4180.917	2806
4182.466	2820
4184.016	2811
4185.564	2825
4187.112	2806
4188.66	2761
4190.207	2823
4191.754	2706
4193.301	2772
4194.848	2798
4196.394	2786
4197.94	2735
4199.484	2806
4201.03	2749
4202.575	2765
4204.12	2770
4205.663	2784
4207.207	2672
4208.75	2827
4210.292	2722
4211.836	2757
4213.378	2703
4214.92	2708
4216.46	2775
4218.002	2757
4219.544	2684
4221.083	2753
4222.625	2730
4224.164	2732
4225.703	2776
4227.244	2665
4228.782	2758
4230.32	2802
4231.857	2722
4233.395	2742
4234.933	2701
4236.471	2666
4238.007	2727
4239.542	2704
4241.078	2693
4242.614	2709
4244.15	2640
4245.685	2674
4247.219	2724
4248.753	2679
4250.287	2614
4251.82	2736
4253.354	2705
4254.887	2678
4256.419	2692
4257.951	2674
4259.483	2732
4261.016	2650
4262.547	2685
4264.078	2700
4265.608	2682
4267.137	2675
4268.668	2739
4270.197	2648
4271.727	2622
4273.254	2640
4274.783	2686
4276.311	2650
4277.84	2654
4279.366	2618
4280.894	2671
4282.42	2598
4283.946	2629
4285.473	2637
4286.998	2597
4288.523	2603
4290.047	2608
4291.572	2614
4293.096	2636
4294.622	2656
4296.144	2590
4297.668	2588
4299.19	2609
4300.713	2653
4302.236	2591
4303.758	2591
4305.279	2612
4306.799	2627
4308.321	2597
4309.842	2579
4311.361	2636
4312.882	2504
4314.401	2610
