400.0961	3941
402.6185	3961
405.1424	3956
407.6635	4030
410.1838	3964
412.7035	3957
415.2225	3989
417.7388	3946
420.2585	3960
422.7754	4024
425.2917	4127
427.8072	4036
430.3221	4126
432.8363	4106
435.3498	4113
437.8626	4157
440.3727	4150
442.8841	4222
445.3969	4213
447.907	4154
450.4142	4155
452.9229	4142
455.4289	4093
457.9362	4115
460.4449	4096
462.9488	4101
465.454	4170
467.9566	4132
470.4604	4161
472.9637	4134
475.4662	4240
477.966	4126
480.4671	4114
482.9656	4192
485.4633	4258
487.9645	4230
490.4608	4289
492.9566	4237
495.4536	4284
497.948	4203
500.4437	4219
502.9387	4172
505.431	4294
507.9226	4161
510.4136	4303
512.9079	4202
515.3975	4268
517.8864	4325
520.3746	4256
522.8622	4183
525.3491	4348
527.8394	4289
530.3249	4263
532.8098	4319
535.2939	4280
537.7774	4351
540.2623	4350
542.7444	4347
545.2259	4345
547.7067	4309
550.1868	4334
552.6683	4368
555.147	4251
557.6231	4262
560.1005	4326
562.5773	4408
565.0534	4278
567.5308	4456
570.0056	4402
572.4776	4363
574.951	4478
577.4237	4452
579.8978	4449
582.3671	4481
584.8378	4418
587.3079	4516
589.7773	4454
592.244	4420
594.714	4493
597.1793	4498
599.6461	4415
602.1121	4385
604.5754	4561
607.0421	4482
609.5042	4473
611.9675	4438
614.4282	4495
616.8902	4507
619.3515	4534
621.8122	4454
624.2702	4549
626.7296	4492
629.1863	4340
631.6423	4392
634.1017	4452
636.5563	4361
639.0104	4368
641.4658	4494
643.9185	4478
646.3725	4369
648.8239	4562
651.2766	4595
653.7266	4456
656.176	4493
658.6247	4585
661.0748	4491
663.5242	4560
665.9709	4510
668.417	4561
670.8624	4601
673.3092	4578
675.7533	4602
678.1968	4570
680.6395	4553
683.0817	4621
685.5251	4497
687.9659	4691
690.4061	4641
692.8456	4655
695.2844	4643
697.7226	4730
700.1621	4609
702.599	4615
705.0332	4719
707.4688	4663
709.9036	4713
712.3399	4769
714.7735	4784
717.2044	4681
719.6367	4770
722.0683	4759
724.4993	4714
726.9296	4766
729.3593	4732
731.7883	4681
734.2147	4796
736.6423	4830
739.0714	4793
741.4958	4809
743.9216	4868
746.3447	4862
748.7691	4830
751.1929	4905
753.616	4919
756.0366	4887
758.4584	4902
760.8776	4971
763.2982	4999
765.718	4880
768.1373	4995
770.5539	4999
772.9698	4993
775.3871	4898
777.8038	4962
780.2178	4935
782.6332	4949
785.0459	4972
787.458	5044
789.8714	5004
792.2842	4984
794.6943	5038
797.1038	4995
799.5127	5008
801.9209	4963
804.3324	4919
806.7393	5061
809.1456	4997
811.5513	4956
813.9562	5190
816.3625	5095
818.7663	5005
821.1693	5091
823.5718	5010
825.9735	4999
828.3746	4979
830.7771	5079
833.177	5093
835.5762	4998
837.9747	5008
840.3727	5043
842.772	5008
845.1666	5070
847.5626	5178
849.958	5166
852.3527	5308
854.7488	5212
857.1403	5170
859.5331	5264
861.9253	5162
864.3168	5129
866.7057	5152
869.098	5222
871.4876	5200
873.8746	5038
876.263	5118
878.6487	5214
881.0378	5077
883.4243	5065
885.8081	5018
888.1933	5151
890.5759	5063
892.9598	5189
895.343	4953
897.7256	5138
900.1057	5134
902.4871	5203
904.8659	5208
907.246	5196
909.6254	5252
912.0023	5201
914.3786	5436
916.7562	5467
919.1331	5585
921.5074	5597
923.8831	5796
926.2562	5644
928.6287	5620
931.0005	5513
933.3757	5503
935.7462	5530
938.1162	5418
940.4855	5505
942.8542	5456
945.2242	5496
947.5916	5460
949.9584	5584
952.3266	5610
954.6921	5593
957.0571	5698
959.4233	5801
961.787	5903
964.15	5873
966.5125	5705
968.8742	5650
971.2354	5586
973.5959	5442
975.9559	5425
978.3151	5470
980.6738	5367
983.0338	5429
985.3912	5380
987.7461	5394
990.1022	5324
992.4578	5348
994.8127	5355
997.1689	5414
999.5207	5320
1001.874	5336
1004.226	5308
1006.576	5306
1008.929	5370
1011.28	5312
1013.628	5287
1015.977	5329
1018.324	5317
1020.674	5297
1023.019	5280
1025.366	5332
1027.713	5317
1030.056	5356
1032.399	5349
1034.746	5340
1037.087	5330
1039.431	5479
1041.771	5423
1044.113	5429
1046.454	5411
1048.793	5403
1051.133	5509
1053.471	5359
1055.807	5423
1058.146	5389
1060.483	5429
1062.818	5491
1065.153	5469
1067.489	5515
1069.822	5395
1072.156	5492
1074.488	5399
1076.82	5421
1079.15	5408
1081.48	5508
1083.814	5459
1086.143	5438
1088.471	5388
1090.799	5454
1093.126	5440
1095.452	5513
1097.78	5399
1100.105	5457
1102.43	5412
1104.754	5402
1107.077	5526
1109.4	5447
1111.722	5478
1114.044	5427
1116.365	5516
1118.685	5511
1121.005	5510
1123.324	5672
1125.643	5524
1127.961	5605
1130.278	5544
1132.595	5516
1134.911	5468
1137.226	5510
1139.541	5450
1141.854	5541
1144.167	5354
1146.482	5443
1148.793	5481
1151.105	5422
1153.414	5427
1155.725	5567
1158.033	5490
1160.344	5486
1162.651	5497
1164.959	5484
1167.265	5515
1169.572	5503
1171.878	5587
1174.184	5514
1176.488	5520
1178.79	5585
1181.094	5641
1183.396	5542
1185.699	5459
1188.001	5554
1190.301	5504
1192.6	5542
1194.9	5471
1197.2	5530
1199.497	5549
1201.794	5493
1204.09	5439
1206.387	5559
1208.684	5626
1210.978	5601
1213.272	5590
1215.565	5560
1217.858	5463
1220.15	5530
1222.443	5536
1224.734	5534
1227.024	5661
1229.313	5654
1231.602	5613
1233.892	5682
1236.18	5650
1238.467	5597
1240.754	5765
1243.04	5657
1245.325	5737
1247.612	5863
1249.896	5822
1252.178	5876
1254.461	5894
1256.743	5828
1259.027	5788
1261.308	5735
1263.587	5879
1265.867	5757
1268.146	5913
1270.425	5953
1272.703	5915
1274.981	5842
1277.256	5928
1279.532	5808
1281.808	5826
1284.083	5830
1286.358	5728
1288.63	5723
1290.904	5740
1293.175	5772
1295.449	5733
1297.719	5801
1299.99	5711
1302.259	5745
1304.529	5620
1306.798	5747
1309.065	5700
1311.333	5667
1313.599	5819
1315.866	5744
1318.131	5813
1320.396	5685
1322.66	5735
1324.925	5724
1327.187	5754
1329.448	5880
1331.711	5826
1333.974	5785
1336.234	5700
1338.493	5800
1340.752	5882
1343.01	5749
1345.269	5701
1347.526	5668
1349.784	5757
1352.04	5623
1354.295	5665
1356.552	5634
1358.806	5652
1361.059	5646
1363.312	5664
1365.564	5808
1367.818	5670
1370.069	5761
1372.318	5818
1374.568	5774
1376.817	5827
1379.066	5730
1381.316	5838
1383.564	5827
1385.809	5866
1388.056	5811
1390.301	5974
1392.549	5976
1394.793	6168
1397.036	5980
1399.279	6190
1401.522	6128
1403.763	6305
1406.007	6182
1408.248	6170
1410.487	6147
1412.727	6237
1414.965	6176
1417.205	6044
1419.442	6107
1421.68	5965
1423.915	6141
1426.152	6105
1428.388	6031
1430.623	5959
1432.857	6072
1435.091	6074
1437.323	6066
1439.556	6201
1441.789	6130
1444.019	6050
1446.25	6057
1448.48	6058
1450.708	6210
1452.938	6193
1455.167	6223
1457.394	6246
1459.62	6218
1461.846	6147
1464.073	6108
1466.299	6195
1468.523	6056
1470.746	5956
1472.969	6004
1475.191	5937
1477.415	5852
1479.636	5753
1481.858	5755
1484.078	5714
1486.298	5762
1488.518	5819
1490.736	5624
1492.954	5688
1495.169	5651
1497.386	5739
1499.602	5829
1501.819	5637
1504.034	5747
1506.248	5667
1508.462	5644
1510.675	5661
1512.888	5619
1515.1	5716
1517.311	5758
1519.522	5737
1521.732	5689
1523.942	5635
1526.151	5709
1528.36	5686
1530.566	5618
1532.773	5702
1534.98	5758
1537.187	5707
1539.392	5690
1541.596	5693
1543.801	5670
1546.005	5681
1548.208	5734
1550.411	5775
1552.612	5882
1554.814	5783
1557.013	5754
1559.212	5799
1561.414	5874
1563.612	5862
1565.811	5748
1568.007	5880
1570.203	5782
1572.403	5739
1574.598	5932
1576.792	5880
1578.988	5884
1581.181	5826
1583.376	6023
1585.568	5921
1587.761	5918
1589.952	5900
1592.143	5959
1594.333	5947
1596.524	5827
1598.715	5862
1600.903	5715
1603.091	5991
1605.278	5924
1607.466	5972
1609.652	5987
1611.838	5925
1614.023	5850
1616.207	5868
1618.391	5936
1620.576	5936
1622.759	5948
1624.941	5868
1627.123	6006
1629.304	5889
1631.484	5977
1633.664	5968
1635.844	5939
1638.022	5989
1640.201	5969
1642.38	5965
1644.556	5992
1646.732	6011
1648.908	5942
1651.084	5935
1653.257	6040
1655.433	6149
1657.607	5990
1659.779	6069
1661.951	6024
1664.122	6014
1666.295	6113
1668.467	6086
1670.635	6067
1672.805	6046
1674.973	6041
1677.142	6133
1679.31	6082
1681.478	6094
1683.644	6040
1685.81	6009
1687.975	6003
1690.142	5909
1692.305	6031
1694.468	5958
1696.632	5952
1698.794	6031
1700.957	5892
1703.119	5981
1705.279	6035
1707.439	6023
1709.598	5949
1711.758	5976
1713.917	6046
1716.075	5862
1718.231	5909
1720.388	5936
1722.543	5911
1724.702	5933
1726.856	5857
1729.01	5904
1731.164	5850
1733.317	5851
1735.471	5928
1737.623	5900
1739.774	5852
1741.925	5823
1744.075	5939
1746.225	5950
1748.376	5818
1750.524	5907
1752.672	5912
1754.82	5862
1756.965	5951
1759.113	5855
1761.259	5886
1763.405	5985
1765.549	5952
1767.694	5848
1769.836	5972
1771.981	5837
1774.123	5875
1776.264	5894
1778.405	5982
1780.546	5949
1782.687	5895
1784.827	6034
1786.966	6005
1789.103	5888
1791.242	5970
1793.381	5866
1795.517	6017
1797.653	5873
1799.788	5875
1801.923	5876
1804.057	6084
1806.193	5838
1808.326	5880
1810.457	5847
1812.59	5965
1814.721	5956
1816.855	5956
1818.984	5891
1821.113	5896
1823.244	5817
1825.372	5900
1827.499	5939
1829.63	5899
1831.756	5907
1833.882	5899
1836.007	6022
1838.132	5844
1840.26	5916
1842.384	5851
1844.507	5776
1846.63	5868
1848.752	5960
1850.875	5829
1852.996	5881
1855.118	5810
1857.238	5875
1859.358	5922
1861.477	5862
1863.597	5983
1865.715	5869
1867.832	5928
1869.948	5837
1872.064	5880
1874.181	5961
1876.297	5838
1878.411	5899
1880.526	5846
1882.639	5854
1884.752	5778
1886.865	5987
1888.977	5951
1891.089	5926
1893.2	5949
1895.308	5963
1897.42	5991
1899.53	5945
1901.639	5951
1903.745	5887
1905.853	5919
1907.962	6017
1910.067	5962
1912.174	5988
1914.278	5983
1916.383	5976
1918.486	6026
1920.592	5983
1922.694	5998
1924.797	6051
1926.898	5992
1929	6088
1931.102	5990
1933.203	6011
1935.301	5922
1937.401	6013
1939.499	6012
1941.598	6051
1943.697	6055
1945.793	5994
1947.888	5966
1949.985	6068
1952.08	5987
1954.176	6005
1956.269	6049
1958.364	5951
1960.457	5945
1962.549	5975
1964.642	5910
1966.733	5897
1968.823	5974
1970.913	5945
1973.005	5987
1975.093	5974
1977.184	5922
1979.271	5990
1981.359	5952
1983.446	5956
1985.532	5816
1987.619	6015
1989.705	5877
1991.789	5805
1993.874	5883
1995.956	6016
1998.041	5902
2000.123	5868
2002.206	5961
2004.287	5931
2006.368	5916
2008.449	5859
2010.529	5864
2012.609	5918
2014.688	5948
2016.766	5923
2018.843	5920
2020.922	5829
2022.999	5911
2025.074	5818
2027.15	5913
2029.225	5918
2031.299	5829
2033.375	5844
2035.447	5871
2037.52	5846
2039.592	5853
2041.664	5857
2043.736	5884
2045.807	5835
2047.876	5888
2049.947	6049
2052.015	5959
2054.086	5983
2056.153	6004
2058.221	5916
2060.288	5976
2062.353	5759
2064.42	5905
2066.486	5886
2068.55	5912
2070.614	5886
2072.678	5967
2074.741	5957
2076.805	5882
2078.866	5981
2080.929	5997
2082.99	5877
2085.049	5977
2087.109	5935
2089.17	5877
2091.228	5891
2093.286	5910
2095.344	5980
2097.4	5867
2099.46	5876
2101.516	5865
2103.572	5841
2105.626	5924
2107.679	5937
2109.735	5900
2111.788	5984
2113.841	5871
2115.894	5981
2117.945	5903
2119.997	5925
2122.049	5903
2124.1	5811
2126.148	5911
2128.197	5801
2130.246	5827
2132.296	5805
2134.342	5874
2136.39	5939
2138.437	5928
2140.483	5890
2142.527	5908
2144.574	5910
2146.619	5878
2148.661	5990
2150.705	5856
2152.747	5895
2154.792	5893
2156.832	5882
2158.874	5861
2160.915	5879
2162.954	5802
2164.995	5806
2167.034	5886
2169.072	5902
2171.111	5927
2173.148	5891
2175.186	5832
2177.223	5744
2179.258	5853
2181.294	5810
2183.328	5735
2185.362	5779
2187.398	5802
2189.431	5857
2191.463	5848
2193.495	5737
2195.528	5818
2197.56	5723
2199.59	5799
2201.62	5683
2203.649	5734
2205.678	5732
2207.708	5812
2209.737	5664
2211.764	5866
2213.791	5702
2215.817	5739
2217.843	5679
2219.87	5750
2221.895	5799
2223.919	5743
2225.942	5778
2227.966	5737
2229.988	5758
2232.012	5664
2234.032	5832
2236.054	5692
2238.074	5708
2240.095	5793
2242.116	5742
2244.135	5749
2246.153	5842
2248.171	5734
2250.188	5722
2252.208	5704
2254.223	5695
2256.239	5763
2258.255	5699
2260.269	5673
2262.283	5696
2264.3	5565
2266.312	5796
2268.325	5664
2270.336	5669
2272.349	5729
2274.362	5759
2276.372	5781
2278.383	5839
2280.392	5699
2282.402	5749
2284.409	5687
2286.418	5781
2288.427	5875
2290.433	5706
2292.441	5730
2294.446	5662
2296.453	5808
2298.459	5699
2300.463	5700
2302.466	5696
2304.471	5735
2306.475	5759
2308.477	5653
2310.478	5703
2312.481	5627
2314.481	5734
2316.481	5681
2318.482	5736
2320.482	5736
2322.48	5638
2324.48	5669
2326.478	5683
2328.476	5643
2330.473	5670
2332.469	5650
2334.465	5684
2336.46	5703
2338.454	5684
2340.45	5663
2342.444	5615
2344.437	5724
2346.43	5568
2348.421	5692
2350.414	5722
2352.405	5647
2354.396	5650
2356.386	5631
2358.376	5666
2360.366	5527
2362.355	5554
2364.343	5660
2366.331	5593
2368.317	5697
2370.304	5551
2372.292	5649
2374.278	5582
2376.262	5586
2378.247	5570
2380.23	5560
2382.216	5652
2384.199	5498
2386.181	5580
2388.163	5575
2390.144	5508
2392.127	5544
2394.107	5517
2396.087	5627
2398.066	5578
2400.046	5565
2402.023	5565
2404.004	5621
2405.981	5579
2407.957	5594
2409.934	5592
2411.91	5417
2413.886	5516
2415.862	5434
2417.836	5442
2419.809	5439
2421.784	5615
2423.756	5477
2425.73	5500
2427.701	5522
2429.672	5636
2431.644	5541
2433.615	5476
2435.586	5524
2437.555	5444
2439.523	5612
2441.491	5456
2443.459	5513
2445.428	5598
2447.395	5605
2449.361	5487
2451.327	5511
2453.292	5533
2455.257	5541
2457.223	5603
2459.187	5492
2461.15	5491
2463.113	5432
2465.076	5392
2467.039	5475
2468.999	5505
2470.96	5480
2472.921	5555
2474.881	5509
2476.841	5423
2478.8	5422
2480.759	5597
2482.717	5436
2484.675	5434
2486.63	5471
2488.589	5458
2490.545	5541
2492.5	5385
2494.455	5363
2496.408	5481
2498.364	5488
2500.318	5436
2502.27	5368
2504.223	5451
2506.174	5440
2508.126	5375
2510.078	5443
2512.03	5494
2513.979	5484
2515.927	5412
2517.877	5503
2519.826	5410
2521.775	5410
2523.722	5363
2525.668	5463
2527.616	5376
2529.561	5417
2531.508	5432
2533.452	5352
2535.398	5329
2537.342	5307
2539.284	5344
2541.229	5452
2543.173	5406
2545.114	5398
2547.055	5343
2548.996	5384
2550.938	5373
2552.878	5396
2554.817	5437
2556.756	5332
2558.695	5340
2560.633	5453
2562.572	5324
2564.509	5330
2566.445	5394
2568.382	5375
2570.317	5367
2572.254	5359
2574.189	5409
2576.123	5379
2578.057	5369
2579.99	5350
2581.923	5415
2583.855	5421
2585.788	5466
2587.719	5313
2589.65	5376
2591.579	5337
2593.511	5395
2595.44	5359
2597.37	5398
2599.297	5473
2601.225	5329
2603.153	5342
2605.08	5347
2607.007	5450
2608.932	5459
2610.858	5474
2612.782	5438
2614.709	5296
2616.632	5408
2618.556	5418
2620.478	5381
2622.401	5498
2624.324	5336
2626.247	5385
2628.167	5487
2630.088	5385
2632.008	5438
2633.928	5435
2635.848	5503
2637.766	5314
2639.684	5357
2641.603	5379
2643.519	5327
2645.437	5462
2647.353	5398
2649.27	5400
2651.184	5411
2653.099	5383
2655.014	5444
2656.928	5389
2658.842	5361
2660.755	5395
2662.667	5515
2664.579	5402
2666.491	5300
2668.402	5378
2670.312	5365
2672.222	5447
2674.132	5492
2676.042	5461
2677.951	5391
2679.859	5377
2681.766	5406
2683.674	5358
2685.582	5364
2687.488	5277
2689.392	5331
2691.298	5311
2693.202	5319
2695.107	5420
2697.012	5309
2698.914	5326
2700.817	5352
2702.72	5349
2704.622	5259
2706.524	5300
2708.425	5237
2710.326	5348
2712.225	5318
2714.125	5301
2716.024	5280
2717.923	5290
2719.822	5216
2721.719	5308
2723.616	5296
2725.512	5339
2727.41	5303
2729.305	5262
2731.201	5221
2733.095	5240
2734.99	5301
2736.884	5211
2738.778	5395
2740.67	5272
2742.562	5324
2744.455	5305
2746.346	5302
2748.238	5319
2750.129	5246
2752.018	5254
2753.907	5308
2755.797	5269
2757.687	5246
2759.575	5241
2761.462	5306
2763.349	5249
2765.237	5284
2767.124	5232
2769.009	5312
2770.894	5216
2772.779	5230
2774.663	5214
2776.547	5279
2778.431	5155
2780.314	5298
2782.197	5176
2784.078	5256
2785.96	5220
2787.842	5198
2789.723	5342
2791.603	5263
2793.483	5209
2795.362	5138
2797.241	5220
2799.121	5172
2800.997	5270
2802.874	5178
2804.751	5203
2806.628	5201
2808.506	5320
2810.38	5290
2812.255	5227
2814.13	5211
2816.003	5306
2817.878	5209
2819.752	5232
2821.623	5165
2823.496	5279
2825.368	5260
2827.238	5250
2829.111	5276
2830.98	5290
2832.851	5229
2834.719	5301
2836.589	5268
2838.458	5301
2840.327	5201
2842.193	5145
2844.061	5336
2845.927	5378
2847.794	5349
2849.66	5331
2851.525	5330
2853.39	5346
2855.254	5426
2857.117	5377
2858.983	5379
2860.845	5555
2862.707	5452
2864.569	5487
2866.431	5571
2868.293	5590
2870.154	5750
2872.013	5700
2873.873	5647
2875.733	5759
2877.592	5702
2879.451	5794
2881.309	5810
2883.166	5855
2885.022	5941
2886.879	5972
2888.736	5998
2890.591	5985
2892.446	6028
2894.301	6012
2896.155	6079
2898.009	6136
2899.863	6128
2901.716	6115
2903.568	6071
2905.419	6013
2907.27	5989
2909.123	5948
2910.973	5956
2912.824	6027
2914.673	6131
2916.521	6124
2918.372	6193
2920.22	6319
2922.067	6380
2923.914	6264
2925.761	6410
2927.607	6507
2929.455	6419
2931.301	6450
2933.144	6403
2934.99	6528
2936.833	6593
2938.678	6582
2940.522	6654
2942.364	6861
2944.207	6989
2946.048	6937
2947.891	7139
2949.731	7115
2951.571	7159
2953.412	7160
2955.25	7191
2957.09	7129
2958.93	6981
2960.767	7004
2962.606	6911
2964.443	6888
2966.279	6747
2968.116	6586
2969.953	6469
2971.788	6459
2973.623	6384
2975.457	6123
2977.292	6249
2979.127	6099
2980.959	6132
2982.792	5954
2984.624	5815
2986.455	6009
2988.288	5753
2990.119	5768
2991.949	5829
2993.779	5696
2995.608	5594
2997.439	5545
2999.268	5590
3001.096	5623
3002.923	5425
3004.751	5469
3006.578	5433
3008.406	5360
3010.232	5487
3012.057	5274
3013.883	5297
3015.706	5260
3017.532	5260
3019.356	5165
3021.179	5246
3023.002	5141
3024.823	5217
3026.646	5146
3028.469	5070
3030.289	5001
3032.11	5073
3033.93	5163
3035.749	5060
3037.57	5071
3039.39	5033
3041.207	4969
3043.026	4915
3044.842	5035
3046.661	5009
3048.477	5013
3050.294	5051
3052.109	4922
3053.925	5018
3055.739	4929
3057.555	4967
3059.368	4953
3061.181	5056
3062.995	4925
3064.807	5042
3066.62	4924
3068.433	5015
3070.243	5024
3072.054	4940
3073.865	4932
3075.675	4912
3077.485	4886
3079.293	4865
3081.102	4903
3082.911	4911
3084.719	4855
3086.527	4904
3088.333	4943
3090.139	4998
3091.945	4886
3093.75	4934
3095.557	4761
3097.361	4875
3099.165	4753
3100.969	4774
3102.772	4748
3104.575	4769
3106.379	4788
3108.181	4722
3109.982	4750
3111.783	4760
3113.584	4767
3115.386	4798
3117.186	4766
3118.985	4841
3120.783	4784
3122.582	4715
3124.381	4637
3126.179	4782
3127.975	4688
3129.772	4721
3131.569	4762
3133.365	4686
3135.161	4804
3136.956	4720
3138.751	4736
3140.544	4694
3142.338	4703
3144.132	4780
3145.925	4675
3147.717	4691
3149.509	4619
3151.301	4622
3153.091	4575
3154.884	4707
3156.673	4572
3158.462	4649
3160.252	4843
3162.041	4772
3163.831	4652
3165.618	4663
3167.405	4656
3169.193	4647
3170.979	4651
3172.767	4617
3174.553	4618
3176.338	4693
3178.123	4682
3179.907	4613
3181.692	4611
3183.477	4609
3185.259	4552
3187.042	4746
3188.824	4610
3190.607	4606
3192.389	4610
3194.17	4603
3195.951	4687
3197.73	4698
3199.51	4684
3201.289	4644
3203.07	4695
3204.848	4561
3206.626	4654
3208.403	4602
3210.18	4592
3211.959	4572
3213.735	4618
3215.511	4636
3217.285	4643
3219.06	4668
3220.836	4570
3222.611	4498
3224.384	4581
3226.158	4631
3227.929	4658
3229.702	4594
3231.476	4669
3233.248	4577
3235.018	4674
3236.789	4650
3238.56	4671
3240.33	4688
3242.1	4629
3243.869	4554
3245.637	4647
3247.405	4450
3249.172	4604
3250.941	4603
3252.707	4604
3254.474	4643
3256.24	4682
3258.006	4562
3259.772	4596
3261.537	4602
3263.301	4635
3265.065	4642
3266.828	4684
3268.592	4616
3270.355	4663
3272.117	4574
3273.878	4641
3275.64	4638
3277.401	4616
3279.162	4635
3280.922	4676
3282.682	4510
3284.441	4609
3286.199	4636
3287.959	4507
3289.716	4558
3291.475	4555
3293.232	4501
3294.988	4559
3296.744	4503
3298.501	4618
3300.256	4610
3302.011	4498
3303.766	4656
3305.52	4584
3307.275	4544
3309.028	4570
3310.781	4603
3312.533	4643
3314.285	4642
3316.038	4564
3317.789	4540
3319.54	4574
3321.289	4523
3323.039	4573
3324.789	4538
3326.539	4539
3328.288	4506
3330.035	4555
3331.783	4544
3333.531	4581
3335.28	4541
3337.025	4459
3338.771	4516
3340.518	4564
3342.262	4549
3344.009	4547
3345.753	4534
3347.497	4520
3349.24	4550
3350.983	4569
3352.726	4438
3354.469	4504
3356.212	4421
3357.952	4492
3359.694	4457
3361.434	4461
3363.176	4484
3364.916	4510
3366.654	4435
3368.394	4392
3370.132	4440
3371.871	4395
3373.61	4465
3375.346	4492
3377.083	4411
3378.82	4484
3380.556	4455
3382.292	4434
3384.027	4391
3385.763	4369
3387.497	4404
3389.231	4376
3390.965	4396
3392.698	4389
3394.431	4381
3396.164	4372
3397.896	4357
3399.627	4437
3401.36	4452
3403.09	4376
3404.82	4410
3406.55	4375
3408.279	4343
3410.01	4380
3411.738	4350
3413.467	4365
3415.194	4405
3416.92	4314
3418.647	4330
3420.375	4370
3422.102	4277
3423.827	4339
3425.553	4270
3427.277	4316
3429.003	4197
3430.727	4237
3432.451	4365
3434.173	4284
3435.896	4299
3437.62	4200
3439.343	4325
3441.063	4198
3442.785	4254
3444.505	4234
3446.226	4282
3447.948	4223
3449.666	4189
3451.386	4303
3453.104	4118
3454.823	4239
3456.541	4204
3458.259	4158
3459.976	4169
3461.693	4117
3463.408	4211
3465.125	4114
3466.841	4053
3468.556	4233
3470.271	4180
3471.985	4162
3473.698	4143
3475.414	4157
3477.126	4122
3478.838	4165
3480.55	4085
3482.263	4025
3483.975	4092
3485.686	4154
3487.396	4097
3489.106	3990
3490.817	3995
3492.526	3984
3494.236	4027
3495.944	3943
3497.652	3929
3499.359	3996
3501.066	3990
3502.775	3986
3504.481	4124
3506.187	3975
3507.893	3991
3509.598	4046
3511.304	3971
3513.009	4016
3514.713	4030
3516.417	4031
3518.12	3972
3519.821	4045
3521.525	3936
3523.228	3892
3524.929	3940
3526.631	3973
3528.33	3941
3530.032	3971
3531.733	3999
3533.433	3938
3535.131	3927
3536.83	3917
3538.529	3926
3540.227	3992
3541.925	3918
3543.623	3960
3545.319	3971
3547.016	3864
3548.712	3878
3550.408	3878
3552.103	3920
3553.798	3898
3555.491	3833
3557.188	3854
3558.88	3914
3560.574	3856
3562.266	3865
3563.959	3863
3565.651	3804
3567.343	3873
3569.035	3875
3570.725	3853
3572.415	3857
3574.106	3823
3575.797	3785
3577.485	3881
3579.174	3776
3580.863	3809
3582.551	3815
3584.238	3722
3585.926	3832
3587.613	3821
3589.3	3721
3590.986	3809
3592.671	3691
3594.357	3787
3596.042	3736
3597.726	3844
3599.41	3707
3601.094	3689
3602.778	3727
3604.461	3674
3606.143	3713
3607.825	3743
3609.507	3686
3611.188	3709
3612.87	3624
3614.551	3701
3616.229	3688
3617.909	3674
3619.589	3750
3621.269	3647
3622.948	3570
3624.625	3593
3626.302	3563
3627.98	3641
3629.657	3724
3631.334	3708
3633.01	3596
3634.686	3585
3636.361	3615
3638.036	3602
3639.712	3587
3641.385	3620
3643.06	3593
3644.732	3604
3646.405	3673
3648.08	3596
3649.751	3525
3651.424	3603
3653.094	3472
3654.766	3537
3656.436	3535
3658.106	3578
3659.777	3549
3661.446	3521
3663.115	3587
3664.783	3507
3666.452	3465
3668.121	3523
3669.788	3514
3671.454	3597
3673.121	3579
3674.789	3607
3676.455	3524
3678.12	3453
3679.784	3488
3681.45	3561
3683.114	3542
3684.779	3525
3686.442	3567
3688.105	3578
3689.768	3404
3691.43	3464
3693.093	3524
3694.754	3470
3696.415	3494
3698.076	3477
3699.736	3482
3701.396	3417
3703.057	3496
3704.716	3515
3706.375	3426
3708.034	3519
3709.692	3439
3711.351	3489
3713.008	3460
3714.665	3462
3716.321	3489
3717.977	3430
3719.634	3400
3721.29	3418
3722.945	3462
3724.598	3444
3726.253	3494
3727.907	3395
3729.561	3461
3731.214	3500
3732.867	3402
3734.518	3469
3736.171	3463
3737.824	3450
3739.474	3391
3741.125	3437
3742.775	3367
3744.425	3425
3746.074	3392
3747.725	3377
3749.373	3369
3751.022	3407
3752.669	3340
3754.318	3385
3755.966	3377
3757.612	3353
3759.259	3352
3760.905	3353
3762.55	3359
3764.197	3389
3765.842	3379
3767.486	3421
3769.131	3338
3770.774	3328
3772.417	3347
3774.061	3400
3775.705	3354
3777.347	3363
3778.988	3334
3780.629	3352
3782.271	3298
3783.912	3234
3785.552	3295
3787.192	3258
3788.831	3320
3790.472	3311
3792.112	3343
3793.75	3314
3795.388	3277
3797.024	3317
3798.661	3292
3800.3	3266
3801.936	3340
3803.572	3314
3805.208	3200
3806.844	3293
3808.48	3290
3810.115	3200
3811.748	3306
3813.382	3306
3815.016	3215
3816.649	3197
3818.283	3279
3819.914	3270
3821.547	3301
3823.178	3218
3824.809	3292
3826.441	3310
3828.072	3287
3829.701	3300
3831.331	3226
3832.96	3242
3834.591	3162
3836.219	3231
3837.847	3254
3839.475	3210
3841.102	3256
3842.729	3152
3844.357	3199
3845.984	3144
3847.609	3135
3849.234	3159
3850.86	3141
3852.485	3155
3854.11	3159
3855.734	3180
3857.357	3142
3858.981	3199
3860.603	3163
3862.227	3170
3863.848	3149
3865.471	3134
3867.092	3196
3868.713	3112
3870.334	3191
3871.954	3147
3873.575	3206
3875.194	3171
3876.813	3140
3878.433	3081
3880.051	3143
3881.669	3104
3883.286	3248
3884.904	3117
3886.52	3168
3888.138	3180
3889.754	3124
3891.37	3171
3892.985	3107
3894.6	3138
3896.216	3115
3897.831	3133
3899.444	3127
3901.058	3178
3902.67	3151
3904.283	3100
3905.897	3086
3907.509	3171
3909.121	3126
3910.731	3058
3912.342	3219
3913.954	3091
3915.563	3109
3917.174	3087
3918.783	3134
3920.391	3082
3922.002	3141
3923.611	3007
3925.218	3091
3926.826	3097
3928.432	3034
3930.039	3050
3931.647	3026
3933.253	3052
3934.859	3071
3936.464	3062
3938.068	3096
3939.675	3075
3941.278	2976
3942.883	3025
3944.486	3054
3946.089	3105
3947.692	3043
3949.295	2966
3950.898	3060
3952.499	2984
3954.1	3078
3955.7	3076
3957.303	3066
3958.903	3033
3960.502	3080
3962.101	2987
3963.7	2988
3965.301	3041
3966.899	2942
3968.497	3006
3970.094	3009
3971.691	3038
3973.288	2949
3974.885	2962
3976.481	2949
3978.077	2973
3979.672	2998
3981.267	2975
3982.863	3068
3984.457	2946
3986.051	2949
3987.645	2988
3989.238	3000
3990.831	2968
3992.425	2910
3994.017	2913
3995.607	2944
3997.199	2948
3998.79	2937
4000.382	2911
4001.973	3024
4003.561	2961
4005.151	2962
4006.741	2897
4008.331	2931
4009.918	2841
4011.507	2984
4013.095	2926
4014.681	2860
4016.269	2907
4017.856	2891
4019.443	2848
4021.028	2925
4022.614	2817
4024.199	2880
4025.785	2872
4027.37	2865
4028.953	2866
4030.536	2836
4032.12	2909
4033.704	2919
4035.287	2833
4036.869	2849
4038.45	2896
4040.032	2845
4041.613	2923
4043.195	2827
4044.776	2770
4046.356	2877
4047.935	2857
4049.515	2821
4051.095	2802
4052.674	2833
4054.251	2819
4055.829	2831
4057.406	2797
4058.985	2828
4060.562	2835
4062.139	2794
4063.715	2759
4065.29	2719
4066.865	2759
4068.442	2848
4070.016	2797
4071.59	2734
4073.164	2816
4074.738	2811
4076.312	2811
4077.885	2772
4079.458	2771
4081.03	2652
4082.602	2772
4084.173	2767
4085.745	2823
4087.315	2800
4088.886	2783
4090.456	2795
4092.026	2744
4093.596	2719
4095.165	2758
4096.734	2784
4098.301	2786
4099.869	2782
4101.437	2730
4103.006	2633
4104.572	2776
4106.139	2786
4107.704	2764
4109.27	2698
4110.837	2688
4112.401	2771
4113.966	2723
4115.53	2763
4117.094	2721
4118.659	2775
4120.223	2694
4121.785	2661
4123.347	2650
4124.909	2720
4126.471	2634
4128.034	2678
4129.595	2738
4131.155	2598
4132.716	2710
4134.275	2732
4135.836	2696
4137.395	2679
4138.955	2674
4140.513	2666
4142.071	2678
4143.628	2575
4145.188	2657
4146.745	2644
4148.302	2608
4149.858	2673
4151.414	2686
4152.971	2616
4154.526	2621
4156.081	2615
4157.635	2672
4159.189	2598
4160.745	2578
4162.298	2681
4163.852	2611
4165.405	2612
4166.957	2585
4168.51	2588
4170.063	2633
4171.614	2614
4173.166	2600
4174.717	2579
4176.267	2603
4177.817	2677
4179.368	2562
4180.917	2535
4182.466	2633
4184.016	2573
4185.564	2567
4187.112	2587
4188.66	2556
4190.207	2530
4191.754	2553
4193.301	2504
4194.848	2558
4196.394	2599
4197.94	2529
4199.484	2537
4201.03	2549
4202.575	2518
4204.12	2602
4205.663	2540
4207.207	2558
4208.75	2574
4210.292	2533
4211.836	2573
4213.378	2493
4214.92	2527
4216.46	2578
4218.002	2546
4219.544	2499
4221.083	2504
4222.625	2481
4224.164	2545
4225.703	2505
4227.244	2561
4228.782	2499
4230.32	2439
4231.857	2512
4233.395	2489
4234.933	2493
4236.471	2475
4238.007	2485
4239.542	2508
4241.078	2489
4242.614	2559
4244.15	2502
4245.685	2431
4247.219	2509
4248.753	2499
4250.287	2490
4251.82	2438
4253.354	2481
4254.887	2451
4256.419	2505
4257.951	2457
4259.483	2447
4261.016	2474
4262.547	2437
4264.078	2442
4265.608	2480
4267.137	2421
4268.668	2412
4270.197	2434
4271.727	2489
4273.254	2389
4274.783	2455
4276.311	2471
4277.84	2405
4279.366	2447
4280.894	2486
4282.42	2462
4283.946	2375
4285.473	2465
4286.998	2377
4288.523	2380
4290.047	2408
4291.572	2380
4293.096	2396
4294.622	2400
4296.144	2367
4297.668	2395
4299.19	2383
4300.713	2410
4302.236	2379
4303.758	2344
4305.279	2391
4306.799	2424
4308.321	2432
4309.842	2352
4311.361	2367
4312.882	2364
4314.401	2351
