400.0961	4180
402.6185	4331
405.1424	4218
407.6635	4203
410.1838	4223
412.7035	4270
415.2225	4325
417.7388	4261
420.2585	4346
422.7754	4413
425.2917	4402
427.8072	4419
430.3221	4510
432.8363	4600
435.3498	4571
437.8626	4577
440.3727	4562
442.8841	4505
445.3969	4414
447.907	4504
450.4142	4568
452.9229	4504
455.4289	4531
457.9362	4514
460.4449	4518
462.9488	4568
465.454	4504
467.9566	4505
470.4604	4453
472.9637	4535
475.4662	4567
477.966	4370
480.4671	4467
482.9656	4547
485.4633	4531
487.9645	4598
490.4608	4583
492.9566	4522
495.4536	4552
497.948	4592
500.4437	4612
502.9387	4599
505.431	4626
507.9226	4722
510.4136	4677
512.9079	4671
515.3975	4560
517.8864	4676
520.3746	4605
522.8622	4535
525.3491	4676
527.8394	4661
530.3249	4592
532.8098	4692
535.2939	4723
537.7774	4715
540.2623	4707
542.7444	4709
545.2259	4674
547.7067	4707
550.1868	4652
552.6683	4640
555.147	4663
557.6231	4717
560.1005	4786
562.5773	4662
565.0534	4789
567.5308	4731
570.0056	4761
572.4776	4790
574.951	4780
577.4237	4891
579.8978	4881
582.3671	4923
584.8378	4810
587.3079	4938
589.7773	5031
592.244	4989
594.714	4895
597.1793	4918
599.6461	4870
602.1121	4836
604.5754	4795
607.0421	4932
609.5042	4878
611.9675	4954
614.4282	4889
616.8902	4903
619.3515	4840
621.8122	4882
624.2702	4835
626.7296	4727
629.1863	4866
631.6423	4763
634.1017	4891
636.5563	4836
639.0104	4794
641.4658	4902
643.9185	4781
646.3725	4888
648.8239	4909
651.2766	4805
653.7266	4871
656.176	4921
658.6247	4931
661.0748	4954
663.5242	4931
665.9709	4925
668.417	5031
670.8624	4987
673.3092	4797
675.7533	4961
678.1968	4903
680.6395	5012
683.0817	5006
685.5251	4942
687.9659	4989
690.4061	5028
692.8456	4925
695.2844	4986
697.7226	5046
700.1621	5003
702.599	5074
705.0332	5062
707.4688	5144
709.9036	5040
712.3399	5100
714.7735	5037
717.2044	5023
719.6367	5178
722.0683	5077
724.4993	5108
726.9296	5212
729.3593	5212
731.7883	5174
734.2147	5203
736.6423	5211
739.0714	5269
741.4958	5281
743.9216	5318
746.3447	5273
748.7691	5337
751.1929	5275
753.616	5148
756.0366	5367
758.4584	5453
760.8776	5353
763.2982	5425
765.718	5249
768.1373	5345
770.5539	5294
772.9698	5412
775.3871	5244
777.8038	5243
780.2178	5321
782.6332	5341
785.0459	5397
787.458	5367
789.8714	5323
792.2842	5415
794.6943	5335
797.1038	5354
799.5127	5370
801.9209	5351
804.3324	5424
806.7393	5542
809.1456	5373
811.5513	5426
813.9562	5462
816.3625	5489
818.7663	5409
821.1693	5511
823.5718	5485
825.9735	5521
828.3746	5513
830.7771	5467
833.177	5566
835.5762	5421
837.9747	5529
840.3727	5520
842.772	5440
845.1666	5572
847.5626	5588
849.958	5672
852.3527	5508
854.7488	5647
857.1403	5605
859.5331	5634
861.9253	5636
864.3168	5666
866.7057	5563
869.098	5579
871.4876	5690
873.8746	5665
876.263	5628
878.6487	5589
881.0378	5521
883.4243	5586
885.8081	5588
888.1933	5580
890.5759	5542
892.9598	5571
895.343	5617
897.7256	5441
900.1057	5600
902.4871	5503
904.8659	5687
907.246	5553
909.6254	5609
912.0023	5650
914.3786	5758
916.7562	5880
919.1331	5979
921.5074	5950
923.8831	6006
926.2562	6139
928.6287	5988
931.0005	5995
933.3757	5906
935.7462	5981
938.1162	5833
940.4855	5981
942.8542	5940
945.2242	6059
947.5916	6115
949.9584	6234
952.3266	6482
954.6921	6549
957.0571	6870
959.4233	7038
961.787	7317
964.15	7108
966.5125	7031
968.8742	6797
971.2354	6471
973.5959	6442
975.9559	6061
978.3151	5964
980.6738	5955
983.0338	5862
985.3912	5869
987.7461	5854
990.1022	5753
992.4578	5784
994.8127	5851
997.1689	5889
999.5207	5818
1001.874	5941
1004.226	5750
1006.576	5852
1008.929	5771
1011.28	5898
1013.628	5852
1015.977	5844
1018.324	5744
1020.674	5744
1023.019	5798
1025.366	5840
1027.713	5828
1030.056	5940
1032.399	5923
1034.746	5865
1037.087	5914
1039.431	6047
1041.771	5978
1044.113	5942
1046.454	5913
1048.793	5994
1051.133	5909
1053.471	5961
1055.807	5956
1058.146	5972
1060.483	5867
1062.818	6000
1065.153	6024
1067.489	6029
1069.822	6019
1072.156	6049
1074.488	6070
1076.82	5992
1079.15	5970
1081.48	5926
1083.814	6058
1086.143	5936
1088.471	5978
1090.799	5957
1093.126	5848
1095.452	5949
1097.78	5905
1100.105	5863
1102.43	6036
1104.754	5960
1107.077	6001
1109.4	5989
1111.722	5932
1114.044	5951
1116.365	6041
1118.685	5932
1121.005	6049
1123.324	5957
1125.643	6135
1127.961	5934
1130.278	5892
1132.595	5996
1134.911	6030
1137.226	5986
1139.541	6071
1141.854	5887
1144.167	5922
1146.482	5887
1148.793	5897
1151.105	5957
1153.414	6007
1155.725	5920
1158.033	5958
1160.344	6082
1162.651	5987
1164.959	5883
1167.265	5981
1169.572	6021
1171.878	6001
1174.184	6023
1176.488	5959
1178.79	6091
1181.094	6032
1183.396	5975
1185.699	6035
1188.001	5982
1190.301	5933
1192.6	5999
1194.9	6101
1197.2	6019
1199.497	6090
1201.794	5990
1204.09	5950
1206.387	6011
1208.684	5986
1210.978	6115
1213.272	5937
1215.565	6009
1217.858	5980
1220.15	6065
1222.443	5963
1224.734	6069
1227.024	6041
1229.313	6065
1231.602	6193
1233.892	6124
1236.18	6206
1238.467	6266
1240.754	6279
1243.04	6383
1245.325	6372
1247.612	6280
1249.896	6305
1252.178	6135
1254.461	6393
1256.743	6327
1259.027	6284
1261.308	6277
1263.587	6361
1265.867	6300
1268.146	6323
1270.425	6392
1272.703	6289
1274.981	6279
1277.256	6373
1279.532	6278
1281.808	6156
1284.083	6296
1286.358	6223
1288.63	6309
1290.904	6150
1293.175	6241
1295.449	6196
1297.719	6226
1299.99	6177
1302.259	6135
1304.529	6199
1306.798	6252
1309.065	6104
1311.333	6269
1313.599	6131
1315.866	6149
1318.131	6192
1320.396	6192
1322.66	6186
1324.925	6283
1327.187	6309
1329.448	6291
1331.711	6321
1333.974	6362
1336.234	6229
1338.493	6206
1340.752	6197
1343.01	6291
1345.269	6135
1347.526	6260
1349.784	6159
1352.04	6167
1354.295	6135
1356.552	6154
1358.806	6115
1361.059	6022
1363.312	6184
1365.564	6277
1367.818	6141
1370.069	6138
1372.318	6170
1374.568	6254
1376.817	6271
1379.066	6306
1381.316	6424
1383.564	6265
1385.809	6255
1388.056	6373
1390.301	6297
1392.549	6404
1394.793	6489
1397.036	6554
1399.279	6573
1401.522	6604
1403.763	6466
1406.007	6538
1408.248	6463
1410.487	6601
1412.727	6441
1414.965	6486
1417.205	6490
1419.442	6649
1421.68	6436
1423.915	6515
1426.152	6514
1428.388	6392
1430.623	6511
1432.857	6587
1435.091	6427
1437.323	6481
1439.556	6464
1441.789	6527
1444.019	6439
1446.25	6661
1448.48	6549
1450.708	6543
1452.938	6510
1455.167	6633
1457.394	6582
1459.62	6653
1461.846	6619
1464.073	6620
1466.299	6650
1468.523	6516
1470.746	6400
1472.969	6319
1475.191	6353
1477.415	6448
1479.636	6235
1481.858	6330
1484.078	6230
1486.298	6265
1488.518	6323
1490.736	6110
1492.954	6321
1495.169	6284
1497.386	6262
1499.602	6253
1501.819	6193
1504.034	6162
1506.248	6297
1508.462	6120
1510.675	6196
1512.888	6148
1515.1	6150
1517.311	6239
1519.522	6108
1521.732	6166
1523.942	6270
1526.151	6183
1528.36	6074
1530.566	6168
1532.773	6175
1534.98	6063
1537.187	6219
1539.392	6180
1541.596	6168
1543.801	6154
1546.005	6250
1548.208	6242
1550.411	6240
1552.612	6257
1554.814	6312
1557.013	6235
1559.212	6374
1561.414	6355
1563.612	6289
1565.811	6305
1568.007	6345
1570.203	6379
1572.403	6345
1574.598	6410
1576.792	6355
1578.988	6404
1581.181	6436
1583.376	6477
1585.568	6415
1587.761	6289
1589.952	6416
1592.143	6464
1594.333	6419
1596.524	6395
1598.715	6445
1600.903	6358
1603.091	6484
1605.278	6431
1607.466	6489
1609.652	6351
1611.838	6468
1614.023	6495
1616.207	6398
1618.391	6358
1620.576	6456
1622.759	6424
1624.941	6431
1627.123	6492
1629.304	7454
1631.484	7909
1633.664	6432
1635.844	6545
1638.022	6534
1640.201	6433
1642.38	6554
1644.556	6570
1646.732	6563
1648.908	6469
1651.084	6519
1653.257	6621
1655.433	6464
1657.607	6554
1659.779	6558
1661.951	6694
1664.122	6674
1666.295	6528
1668.467	6569
1670.635	6670
1672.805	6574
1674.973	6577
1677.142	6523
1679.31	6587
1681.478	6395
1683.644	6555
1685.81	6498
1687.975	6549
1690.142	6538
1692.305	6423
1694.468	6550
1696.632	6472
1698.794	6558
1700.957	6532
1703.119	6549
1705.279	6396
1707.439	6488
1709.598	6350
1711.758	6453
1713.917	6347
1716.075	6451
1718.231	6416
1720.388	6290
1722.543	6492
1724.702	6558
1726.856	6399
1729.01	6430
1731.164	6470
1733.317	6438
1735.471	6403
1737.623	6350
1739.774	6372
1741.925	6440
1744.075	6333
1746.225	6450
1748.376	6354
1750.524	6448
1752.672	6407
1754.82	6453
1756.965	6450
1759.113	6475
1761.259	6289
1763.405	6439
1765.549	6481
1767.694	6454
1769.836	6514
1771.981	6311
1774.123	6415
1776.264	6519
1778.405	6458
1780.546	6515
1782.687	6330
1784.827	6512
1786.966	6477
1789.103	6501
1791.242	6383
1793.381	6404
1795.517	6420
1797.653	6395
1799.788	6333
1801.923	6516
1804.057	6479
1806.193	6455
1808.326	6511
1810.457	6481
1812.59	6438
1814.721	6475
1816.855	6385
1818.984	6491
1821.113	6438
1823.244	6425
1825.372	6545
1827.499	6493
1829.63	6444
1831.756	6498
1833.882	6402
1836.007	6348
1838.132	6356
1840.26	6308
1842.384	6429
1844.507	6401
1846.63	6400
1848.752	6429
1850.875	6358
1852.996	6373
1855.118	6381
1857.238	6454
1859.358	6352
1861.477	6333
1863.597	6432
1865.715	6343
1867.832	6372
1869.948	6417
1872.064	6355
1874.181	6390
1876.297	6473
1878.411	6357
1880.526	6356
1882.639	6345
1884.752	6395
1886.865	6327
1888.977	6427
1891.089	6301
1893.2	6462
1895.308	6416
1897.42	6348
1899.53	6443
1901.639	6463
1903.745	6442
1905.853	6410
1907.962	6494
1910.067	6514
1912.174	6524
1914.278	6525
1916.383	6444
1918.486	6497
1920.592	6436
1922.694	6428
1924.797	6441
1926.898	6560
1929	6592
1931.102	6512
1933.203	6507
1935.301	6425
1937.401	6368
1939.499	6436
1941.598	6598
1943.697	6525
1945.793	6452
1947.888	6466
1949.985	6486
1952.08	6527
1954.176	6535
1956.269	6409
1958.364	6408
1960.457	6468
1962.549	6468
1964.642	6531
1966.733	6572
1968.823	6476
1970.913	6398
1973.005	6494
1975.093	6514
1977.184	6498
1979.271	6421
1981.359	6576
1983.446	6424
1985.532	6404
1987.619	6411
1989.705	6532
1991.789	6445
1993.874	6516
1995.956	6427
1998.041	6375
2000.123	6361
2002.206	6377
2004.287	6465
2006.368	6389
2008.449	6316
2010.529	6461
2012.609	6356
2014.688	6343
2016.766	6328
2018.843	6426
2020.922	6449
2022.999	6455
2025.074	6419
2027.15	6394
2029.225	6403
2031.299	6426
2033.375	6310
2035.447	6481
2037.52	6397
2039.592	6340
2041.664	6296
2043.736	6385
2045.807	6442
2047.876	6440
2049.947	6381
2052.015	6472
2054.086	6341
2056.153	6372
2058.221	6361
2060.288	6367
2062.353	6330
2064.42	6435
2066.486	6358
2068.55	6372
2070.614	6438
2072.678	6491
2074.741	6473
2076.805	6463
2078.866	6390
2080.929	6362
2082.99	6450
2085.049	6467
2087.109	6466
2089.17	6406
2091.228	6468
2093.286	6443
2095.344	6375
2097.4	6347
2099.46	6343
2101.516	6329
2103.572	6534
2105.626	6463
2107.679	6387
2109.735	6441
2111.788	6389
2113.841	6434
2115.894	6526
2117.945	6425
2119.997	6349
2122.049	6487
2124.1	6463
2126.148	6349
2128.197	6357
2130.246	6425
2132.296	6433
2134.342	6509
2136.39	6259
2138.437	6379
2140.483	6364
2142.527	6377
2144.574	6328
2146.619	6339
2148.661	6369
2150.705	6297
2152.747	6344
2154.792	6304
2156.832	6406
2158.874	6356
2160.915	6200
2162.954	6277
2164.995	6229
2167.034	6353
2169.072	6333
2171.111	6579
2173.148	6274
2175.186	6366
2177.223	6310
2179.258	6321
2181.294	6345
2183.328	6246
2185.362	6252
2187.398	6254
2189.431	6283
2191.463	6331
2193.495	6297
2195.528	6395
2197.56	6329
2199.59	6194
2201.62	6394
2203.649	6277
2205.678	6214
2207.708	6156
2209.737	6274
2211.764	6415
2213.791	6221
2215.817	6257
2217.843	6218
2219.87	6230
2221.895	6106
2223.919	6298
2225.942	6181
2227.966	6180
2229.988	6164
2232.012	6194
2234.032	6221
2236.054	6221
2238.074	6208
2240.095	6294
2242.116	6133
2244.135	6199
2246.153	6139
2248.171	6240
2250.188	6260
2252.208	6192
2254.223	6218
2256.239	6242
2258.255	6256
2260.269	6236
2262.283	6187
2264.3	6156
2266.312	6144
2268.325	6181
2270.336	6281
2272.349	6282
2274.362	6104
2276.372	6235
2278.383	6276
2280.392	6207
2282.402	6243
2284.409	6173
2286.418	6201
2288.427	6196
2290.433	6148
2292.441	6131
2294.446	6191
2296.453	6150
2298.459	6203
2300.463	6171
2302.466	6236
2304.471	6276
2306.475	6181
2308.477	6162
2310.478	6198
2312.481	6120
2314.481	6127
2316.481	6179
2318.482	6172
2320.482	6074
2322.48	6026
2324.48	6132
2326.478	6152
2328.476	6227
2330.473	6123
2332.469	6104
2334.465	6095
2336.46	6174
2338.454	6001
2340.45	6117
2342.444	6049
2344.437	6040
2346.43	6105
2348.421	6205
2350.414	6048
2352.405	6056
2354.396	6038
2356.386	6104
2358.376	6043
2360.366	5983
2362.355	6038
2364.343	6144
2366.331	6022
2368.317	6058
2370.304	5938
2372.292	6073
2374.278	5970
2376.262	6007
2378.247	6127
2380.23	6001
2382.216	6061
2384.199	5999
2386.181	6010
2388.163	5971
2390.144	5963
2392.127	5950
2394.107	6010
2396.087	6031
2398.066	5982
2400.046	5994
2402.023	5937
2404.004	5967
2405.981	6050
2407.957	5940
2409.934	6018
2411.91	6016
2413.886	5936
2415.862	5977
2417.836	5979
2419.809	5927
2421.784	5854
2423.756	6020
2425.73	5973
2427.701	5967
2429.672	5934
2431.644	5937
2433.615	6145
2435.586	5997
2437.555	6031
2439.523	5856
2441.491	6000
2443.459	5946
2445.428	5969
2447.395	5958
2449.361	6004
2451.327	5891
2453.292	5895
2455.257	5957
2457.223	5994
2459.187	5931
2461.15	5834
2463.113	5929
2465.076	5856
2467.039	5955
2468.999	5924
2470.96	5967
2472.921	5911
2474.881	5934
2476.841	5837
2478.8	5883
2480.759	5838
2482.717	5889
2484.675	5936
2486.63	5979
2488.589	5936
2490.545	5789
2492.5	5742
2494.455	5855
2496.408	5827
2498.364	5894
2500.318	5851
2502.27	5784
2504.223	5922
2506.174	5901
2508.126	5923
2510.078	5873
2512.03	5871
2513.979	5914
2515.927	5855
2517.877	5918
2519.826	5769
2521.775	5817
2523.722	5865
2525.668	5867
2527.616	5853
2529.561	5842
2531.508	5847
2533.452	5868
2535.398	5821
2537.342	5745
2539.284	5859
2541.229	5788
2543.173	5870
2545.114	5817
2547.055	5832
2548.996	5850
2550.938	5792
2552.878	5725
2554.817	5932
2556.756	5821
2558.695	5827
2560.633	5802
2562.572	5710
2564.509	5879
2566.445	5828
2568.382	5866
2570.317	5797
2572.254	5771
2574.189	5852
2576.123	5884
2578.057	5846
2579.99	5774
2581.923	5708
2583.855	5688
2585.788	5881
2587.719	5789
2589.65	5805
2591.579	5792
2593.511	5823
2595.44	5788
2597.37	5877
2599.297	5948
2601.225	5783
2603.153	5771
2605.08	5804
2607.007	5812
2608.932	5784
2610.858	5797
2612.782	5826
2614.709	5932
2616.632	5768
2618.556	5865
2620.478	5820
2622.401	5766
2624.324	5839
2626.247	5880
2628.167	5886
2630.088	5860
2632.008	5818
2633.928	5758
2635.848	5715
2637.766	5776
2639.684	5894
2641.603	5932
2643.519	5799
2645.437	5834
2647.353	5825
2649.27	5793
2651.184	5768
2653.099	5855
2655.014	5763
2656.928	5815
2658.842	5752
2660.755	5796
2662.667	5784
2664.579	5738
2666.491	5902
2668.402	5727
2670.312	5783
2672.222	5795
2674.132	5671
2676.042	5829
2677.951	5768
2679.859	5787
2681.766	5771
2683.674	5870
2685.582	5727
2687.488	5841
2689.392	5662
2691.298	5730
2693.202	5707
2695.107	5719
2697.012	5762
2698.914	5747
2700.817	5787
2702.72	5713
2704.622	5674
2706.524	5732
2708.425	5756
2710.326	5690
2712.225	5621
2714.125	5735
2716.024	5605
2717.923	5758
2719.822	5697
2721.719	5644
2723.616	5712
2725.512	5677
2727.41	5771
2729.305	5626
2731.201	5583
2733.095	5736
2734.99	5720
2736.884	5732
2738.778	5741
2740.67	5693
2742.562	5685
2744.455	5650
2746.346	5684
2748.238	5641
2750.129	5643
2752.018	5597
2753.907	5613
2755.797	5633
2757.687	5657
2759.575	5671
2761.462	5657
2763.349	5636
2765.237	5598
2767.124	5587
2769.009	5562
2770.894	5571
2772.779	5493
2774.663	5664
2776.547	5589
2778.431	5674
2780.314	5626
2782.197	5683
2784.078	5676
2785.96	5588
2787.842	5651
2789.723	5636
2791.603	5666
2793.483	5541
2795.362	5647
2797.241	5550
2799.121	5573
2800.997	5552
2802.874	5708
2804.751	5528
2806.628	5592
2808.506	5618
2810.38	5533
2812.255	5653
2814.13	5667
2816.003	5644
2817.878	5605
2819.752	5630
2821.623	5607
2823.496	5633
2825.368	5665
2827.238	5534
2829.111	5584
2830.98	5540
2832.851	5573
2834.719	5593
2836.589	5572
2838.458	5562
2840.327	5569
2842.193	5601
2844.061	5604
2845.927	5486
2847.794	5633
2849.66	5587
2851.525	5732
2853.39	5603
2855.254	5763
2857.117	5634
2858.983	5756
2860.845	5719
2862.707	5767
2864.569	5798
2866.431	5818
2868.293	5834
2870.154	5906
2872.013	5907
2873.873	5935
2875.733	5982
2877.592	6044
2879.451	6034
2881.309	6189
2883.166	6085
2885.022	6234
2886.879	6258
2888.736	6332
2890.591	6335
2892.446	6302
2894.301	6359
2896.155	6272
2898.009	6318
2899.863	6169
2901.716	6281
2903.568	6284
2905.419	6271
2907.27	6400
2909.123	6381
2910.973	6208
2912.824	6390
2914.673	6515
2916.521	6568
2918.372	6533
2920.22	6503
2922.067	6649
2923.914	6629
2925.761	6722
2927.607	6728
2929.455	6819
2931.301	6803
2933.144	6831
2934.99	6928
2936.833	6904
2938.678	6981
2940.522	6960
2942.364	7069
2944.207	7221
2946.048	7234
2947.891	7288
2949.731	7374
2951.571	7177
2953.412	7309
2955.25	7267
2957.09	7162
2958.93	7123
2960.767	7067
2962.606	6988
2964.443	7077
2966.279	6874
2968.116	6677
2969.953	6703
2971.788	6670
2973.623	6465
2975.457	6475
2977.292	6480
2979.127	6461
2980.959	6358
2982.792	6364
2984.624	6228
2986.455	6266
2988.288	6263
2990.119	6093
2991.949	6096
2993.779	6067
2995.608	6056
2997.439	5895
2999.268	5935
3001.096	5849
3002.923	5787
3004.751	5843
3006.578	5812
3008.406	5845
3010.232	5750
3012.057	5610
3013.883	5616
3015.706	5687
3017.532	5596
3019.356	5510
3021.179	5521
3023.002	5435
3024.823	5401
3026.646	5430
3028.469	5352
3030.289	5347
3032.11	5415
3033.93	5383
3035.749	5365
3037.57	5308
3039.39	5317
3041.207	5272
3043.026	5316
3044.842	5339
3046.661	5265
3048.477	5370
3050.294	5319
3052.109	5385
3053.925	5360
3055.739	5197
3057.555	5256
3059.368	5277
3061.181	5313
3062.995	5216
3064.807	5263
3066.62	5314
3068.433	5328
3070.243	5251
3072.054	5310
3073.865	5265
3075.675	5194
3077.485	5287
3079.293	5265
3081.102	5332
3082.911	5210
3084.719	5172
3086.527	5245
3088.333	5080
3090.139	5210
3091.945	5137
3093.75	5215
3095.557	5174
3097.361	5215
3099.165	5117
3100.969	5132
3102.772	5111
3104.575	5089
3106.379	5088
3108.181	5076
3109.982	5101
3111.783	5132
3113.584	5069
3115.386	5134
3117.186	5134
3118.985	5166
3120.783	5051
3122.582	5051
3124.381	5016
3126.179	5058
3127.975	5055
3129.772	5012
3131.569	5126
3133.365	5014
3135.161	5090
3136.956	4995
3138.751	5041
3140.544	5085
3142.338	5163
3144.132	4953
3145.925	4985
3147.717	5052
3149.509	5040
3151.301	5025
3153.091	4896
3154.884	5025
3156.673	5004
3158.462	4976
3160.252	5060
3162.041	4950
3163.831	4999
3165.618	4990
3167.405	4975
3169.193	4947
3170.979	5031
3172.767	4993
3174.553	4912
3176.338	5049
3178.123	4936
3179.907	4949
3181.692	4919
3183.477	4958
3185.259	4959
3187.042	5001
3188.824	4943
3190.607	4937
3192.389	4956
3194.17	4893
3195.951	4833
3197.73	4944
3199.51	4980
3201.289	4829
3203.07	4944
3204.848	4841
3206.626	5044
3208.403	5044
3210.18	4934
3211.959	4950
3213.735	4883
3215.511	4902
3217.285	4884
3219.06	4934
3220.836	5019
3222.611	4891
3224.384	4901
3226.158	4907
3227.929	4913
3229.702	4966
3231.476	4852
3233.248	4908
3235.018	4913
3236.789	4898
3238.56	4958
3240.33	4887
3242.1	4839
3243.869	4887
3245.637	4868
3247.405	4900
3249.172	4897
3250.941	4881
3252.707	4921
3254.474	4848
3256.24	4881
3258.006	4861
3259.772	4892
3261.537	4871
3263.301	4946
3265.065	4983
3266.828	4911
3268.592	4869
3270.355	4909
3272.117	4974
3273.878	4944
3275.64	4907
3277.401	4924
3279.162	4908
3280.922	4869
3282.682	4938
3284.441	4886
3286.199	4854
3287.959	4933
3289.716	4856
3291.475	4847
3293.232	4985
3294.988	4865
3296.744	4897
3298.501	4959
3300.256	4975
3302.011	4883
3303.766	4917
3305.52	4896
3307.275	4853
3309.028	4903
3310.781	4829
3312.533	4858
3314.285	4865
3316.038	4879
3317.789	4837
3319.54	4808
3321.289	4882
3323.039	4858
3324.789	4890
3326.539	4894
3328.288	4819
3330.035	4925
3331.783	4806
3333.531	4850
3335.28	4853
3337.025	4850
3338.771	4926
3340.518	4906
3342.262	4868
3344.009	4835
3345.753	4807
3347.497	4759
3349.24	4832
3350.983	4789
3352.726	4782
3354.469	4879
3356.212	4729
3357.952	4889
3359.694	4728
3361.434	4759
3363.176	4814
3364.916	4824
3366.654	4802
3368.394	4737
3370.132	4761
3371.871	4726
3373.61	4681
3375.346	4689
3377.083	4651
3378.82	4703
3380.556	4724
3382.292	4729
3384.027	4752
3385.763	4771
3387.497	4625
3389.231	4753
3390.965	4609
3392.698	4787
3394.431	4610
3396.164	4681
3397.896	4680
3399.627	4675
3401.36	4721
3403.09	4737
3404.82	4635
3406.55	4666
3408.279	4666
3410.01	4623
3411.738	4665
3413.467	4609
3415.194	4635
3416.92	4677
3418.647	4690
3420.375	4596
3422.102	4562
3423.827	4499
3425.553	4656
3427.277	4501
3429.003	4625
3430.727	4629
3432.451	4600
3434.173	4709
3435.896	4605
3437.62	4635
3439.343	4578
3441.063	4522
3442.785	4569
3444.505	4487
3446.226	4503
3447.948	4526
3449.666	4491
3451.386	4576
3453.104	4496
3454.823	4551
3456.541	4474
3458.259	4529
3459.976	4480
3461.693	4539
3463.408	4463
3465.125	4431
3466.841	4471
3468.556	4387
3470.271	4397
3471.985	4569
3473.698	4419
3475.414	4458
3477.126	4509
3478.838	4424
3480.55	4393
3482.263	4394
3483.975	4437
3485.686	4445
3487.396	4451
3489.106	4341
3490.817	4319
3492.526	4306
3494.236	4276
3495.944	4388
3497.652	4331
3499.359	4343
3501.066	4384
3502.775	4265
3504.481	4277
3506.187	4318
3507.893	4347
3509.598	4244
3511.304	4316
3513.009	4327
3514.713	4304
3516.417	4288
3518.12	4302
3519.821	4289
3521.525	4219
3523.228	4198
3524.929	4220
3526.631	4209
3528.33	4372
3530.032	4262
3531.733	4335
3533.433	4249
3535.131	4219
3536.83	4203
3538.529	4282
3540.227	4159
3541.925	4120
3543.623	4203
3545.319	4131
3547.016	4172
3548.712	4300
3550.408	4119
3552.103	4131
3553.798	4223
3555.491	4129
3557.188	4131
3558.88	4202
3560.574	4074
3562.266	4143
3563.959	4057
3565.651	4181
3567.343	4069
3569.035	4189
3570.725	4111
3572.415	4094
3574.106	4082
3575.797	4162
3577.485	4110
3579.174	4126
3580.863	4076
3582.551	4095
3584.238	4027
3585.926	4049
3587.613	4076
3589.3	3967
3590.986	3979
3592.671	4048
3594.357	3975
3596.042	3997
3597.726	3995
3599.41	4088
3601.094	3991
3602.778	4120
3604.461	3957
3606.143	4005
3607.825	4046
3609.507	4003
3611.188	3933
3612.87	3963
3614.551	3964
3616.229	3953
3617.909	3860
3619.589	3989
3621.269	3890
3622.948	3955
3624.625	3909
3626.302	3927
3627.98	3900
3629.657	3928
3631.334	3990
3633.01	3896
3634.686	3896
3636.361	3856
3638.036	3860
3639.712	3855
3641.385	3894
3643.06	3786
3644.732	3882
3646.405	3834
3648.08	3836
3649.751	3823
3651.424	3865
3653.094	3766
3654.766	3799
3656.436	3799
3658.106	3879
3659.777	3874
3661.446	3784
3663.115	3727
3664.783	3757
3666.452	3827
3668.121	3750
3669.788	3788
3671.454	3735
3673.121	3777
3674.789	3757
3676.455	3730
3678.12	3768
3679.784	3713
3681.45	3681
3683.114	3692
3684.779	3755
3686.442	3759
3688.105	3726
3689.768	3753
3691.43	3699
3693.093	3706
3694.754	3705
3696.415	3816
3698.076	3670
3699.736	3674
3701.396	3739
3703.057	3668
3704.716	3759
3706.375	3743
3708.034	3705
3709.692	3623
3711.351	3609
3713.008	3710
3714.665	3729
3716.321	3695
3717.977	3641
3719.634	3748
3721.29	3677
3722.945	3678
3724.598	3693
3726.253	3682
3727.907	3655
3729.561	3733
3731.214	3616
3732.867	3688
3734.518	3578
3736.171	3671
3737.824	3692
3739.474	3661
3741.125	3622
3742.775	3585
3744.425	3527
3746.074	3531
3747.725	3701
3749.373	3634
3751.022	3638
3752.669	3601
3754.318	3636
3755.966	3675
3757.612	3512
3759.259	3590
3760.905	3638
3762.55	3556
3764.197	3680
3765.842	3662
3767.486	3582
3769.131	3560
3770.774	3648
3772.417	3556
3774.061	3544
3775.705	3543
3777.347	3533
3778.988	3558
3780.629	3578
3782.271	3511
3783.912	3455
3785.552	3475
3787.192	3557
3788.831	3563
3790.472	3523
3792.112	3495
3793.75	3548
3795.388	3482
3797.024	3494
3798.661	3520
3800.3	3545
3801.936	3453
3803.572	3465
3805.208	3462
3806.844	3499
3808.48	3518
3810.115	3518
3811.748	3550
3813.382	3492
3815.016	3369
3816.649	3482
3818.283	3472
3819.914	3410
3821.547	3344
3823.178	3375
3824.809	3408
3826.441	3394
3828.072	3415
3829.701	3383
3831.331	3359
3832.96	3365
3834.591	3425
3836.219	3381
3837.847	3409
3839.475	3409
3841.102	3440
3842.729	3380
3844.357	3329
3845.984	3403
3847.609	3373
3849.234	3388
3850.86	3372
3852.485	3379
3854.11	3329
3855.734	3359
3857.357	3348
3858.981	3417
3860.603	3297
3862.227	3372
3863.848	3369
3865.471	3356
3867.092	3300
3868.713	3389
3870.334	3314
3871.954	3357
3873.575	3332
3875.194	3323
3876.813	3320
3878.433	3379
3880.051	3318
3881.669	3275
3883.286	3347
3884.904	3378
3886.52	3290
3888.138	3323
3889.754	3341
3891.37	3326
3892.985	3356
3894.6	3286
3896.216	3274
3897.831	3209
3899.444	3282
3901.058	3354
3902.67	3294
3904.283	3240
3905.897	3330
3907.509	3248
3909.121	3205
3910.731	3283
3912.342	3328
3913.954	3301
3915.563	3285
3917.174	3227
3918.783	3282
3920.391	3214
3922.002	3210
3923.611	3349
3925.218	3293
3926.826	3349
3928.432	3237
3930.039	3233
3931.647	3139
3933.253	3300
3934.859	3209
3936.464	3219
3938.068	3231
3939.675	3334
3941.278	3225
3942.883	3234
3944.486	3248
3946.089	3260
3947.692	3204
3949.295	3188
3950.898	3186
3952.499	3251
3954.1	3224
3955.7	3238
3957.303	3241
3958.903	3183
3960.502	3265
3962.101	3189
3963.7	3198
3965.301	3208
3966.899	3235
3968.497	3103
3970.094	3181
3971.691	3180
3973.288	3144
3974.885	3140
3976.481	3186
3978.077	3141
3979.672	3094
3981.267	3185
3982.863	3114
3984.457	3191
3986.051	3153
3987.645	3112
3989.238	3210
3990.831	3114
3992.425	3067
3994.017	3112
3995.607	3129
3997.199	3099
3998.79	3111
4000.382	3099
4001.973	3160
4003.561	3091
4005.151	3126
4006.741	3036
4008.331	3177
4009.918	3113
4011.507	3111
4013.095	3133
4014.681	3066
4016.269	3138
4017.856	3054
4019.443	3025
4021.028	3058
4022.614	2916
4024.199	3068
4025.785	2946
4027.37	2985
4028.953	3051
4030.536	3023
4032.12	3013
4033.704	3006
4035.287	3063
4036.869	2986
4038.45	3026
4040.032	2923
4041.613	2978
4043.195	2990
4044.776	3031
4046.356	3074
4047.935	2982
4049.515	2923
4051.095	2981
4052.674	2997
4054.251	3055
4055.829	3015
4057.406	2936
4058.985	2940
4060.562	3009
4062.139	2894
4063.715	2994
4065.29	2962
4066.865	2923
4068.442	2932
4070.016	2996
4071.59	2930
4073.164	2983
4074.738	2908
4076.312	3005
4077.885	2861
4079.458	2946
4081.03	2881
4082.602	2935
4084.173	2932
4085.745	2979
4087.315	2903
4088.886	2941
4090.456	2896
4092.026	2892
4093.596	2909
4095.165	2806
4096.734	2983
4098.301	2936
4099.869	2973
4101.437	2933
4103.006	2890
4104.572	2949
4106.139	2986
4107.704	2879
4109.27	2814
4110.837	2836
4112.401	2874
4113.966	2882
4115.53	2873
4117.094	2858
4118.659	2873
4120.223	2833
4121.785	2884
4123.347	2826
4124.909	2794
4126.471	2861
4128.034	2807
4129.595	2874
4131.155	2898
4132.716	2762
4134.275	2893
4135.836	2906
4137.395	2842
4138.955	2847
4140.513	2792
4142.071	2833
4143.628	2861
4145.188	2802
4146.745	2845
4148.302	2796
4149.858	2803
4151.414	2794
4152.971	2790
4154.526	2857
4156.081	2770
4157.635	2787
4159.189	2721
4160.745	2811
4162.298	2751
4163.852	2709
4165.405	2749
4166.957	2822
4168.51	2740
4170.063	2758
4171.614	2762
4173.166	2825
4174.717	2738
4176.267	2748
4177.817	2787
4179.368	2709
4180.917	2722
4182.466	2725
4184.016	2705
4185.564	2785
4187.112	2752
4188.66	2704
4190.207	2659
4191.754	2689
4193.301	2671
4194.848	2689
4196.394	2723
4197.94	2651
4199.484	2791
4201.03	2707
4202.575	2698
4204.12	2715
4205.663	2665
4207.207	2652
4208.75	2654
4210.292	2658
4211.836	2676
4213.378	2683
4214.92	2647
4216.46	2642
4218.002	2684
4219.544	2687
4221.083	2691
4222.625	2636
4224.164	2660
4225.703	2670
4227.244	2633
4228.782	2607
4230.32	2668
4231.857	2554
4233.395	2633
4234.933	2690
4236.471	2572
4238.007	2655
4239.542	2600
4241.078	2633
4242.614	2638
4244.15	2659
4245.685	2683
4247.219	2626
4248.753	2620
4250.287	2645
4251.82	2618
4253.354	2624
4254.887	2603
4256.419	2583
4257.951	2549
4259.483	2647
4261.016	2625
4262.547	2617
4264.078	2636
4265.608	2613
4267.137	2584
4268.668	2588
4270.197	2582
4271.727	2568
4273.254	2566
4274.783	2579
4276.311	2568
4277.84	2650
4279.366	2626
4280.894	2575
4282.42	2531
4283.946	2577
4285.473	2543
4286.998	2614
4288.523	2493
4290.047	2609
4291.572	2516
4293.096	2504
4294.622	2587
4296.144	2585
4297.668	2511
4299.19	2549
4300.713	2594
4302.236	2548
4303.758	2492
4305.279	2553
4306.799	2577
4308.321	2530
4309.842	2547
4311.361	2522
4312.882	2488
4314.401	2553
