400.0961	6098
402.6185	6107
405.1424	6128
407.6635	6127
410.1838	6162
412.7035	6167
415.2225	6116
417.7388	6175
420.2585	6233
422.7754	6340
425.2917	6451
427.8072	6287
430.3221	6319
432.8363	6467
435.3498	6461
437.8626	6493
440.3727	6469
442.8841	6621
445.3969	6503
447.907	6460
450.4142	6468
452.9229	6418
455.4289	6544
457.9362	6374
460.4449	6490
462.9488	6450
465.454	6488
467.9566	6537
470.4604	6575
472.9637	6396
475.4662	6616
477.966	6591
480.4671	6553
482.9656	6658
485.4633	6649
487.9645	6671
490.4608	6646
492.9566	6578
495.4536	6683
497.948	6696
500.4437	6669
502.9387	6770
505.431	6764
507.9226	6790
510.4136	6760
512.9079	6742
515.3975	6751
517.8864	6809
520.3746	6804
522.8622	6801
525.3491	6749
527.8394	6844
530.3249	6869
532.8098	6928
535.2939	6778
537.7774	6838
540.2623	6895
542.7444	6893
545.2259	6833
547.7067	6951
550.1868	6789
552.6683	6880
555.147	6884
557.6231	6878
560.1005	6933
562.5773	6898
565.0534	7010
567.5308	6910
570.0056	6946
572.4776	6936
574.951	6938
577.4237	7017
579.8978	7031
582.3671	7024
584.8378	7002
587.3079	7044
589.7773	7205
592.244	7135
594.714	7058
597.1793	7147
599.6461	7111
602.1121	7130
604.5754	7041
607.0421	6971
609.5042	7078
611.9675	7129
614.4282	7106
616.8902	7089
619.3515	7199
621.8122	7092
624.2702	7079
626.7296	7182
629.1863	7064
631.6423	7218
634.1017	7143
636.5563	7124
639.0104	7084
641.4658	7100
643.9185	7243
646.3725	7145
648.8239	7252
651.2766	7131
653.7266	7140
656.176	7213
658.6247	7262
661.0748	7293
663.5242	7335
665.9709	7213
668.417	7272
670.8624	7331
673.3092	7361
675.7533	7273
678.1968	7316
680.6395	7346
683.0817	7420
685.5251	7318
687.9659	7438
690.4061	7485
692.8456	7397
695.2844	7331
697.7226	7488
700.1621	7532
702.599	7489
705.0332	7540
707.4688	7563
709.9036	7418
712.3399	7519
714.7735	7503
717.2044	7589
719.6367	7630
722.0683	7622
724.4993	7662
726.9296	7529
729.3593	7572
731.7883	7588
734.2147	7667
736.6423	7716
739.0714	7625
741.4958	7715
743.9216	7802
746.3447	7770
748.7691	7760
751.1929	7807
753.616	7843
756.0366	7845
758.4584	7943
760.8776	7913
763.2982	7978
765.718	8065
768.1373	7970
770.5539	7906
772.9698	7838
775.3871	7881
777.8038	7936
780.2178	7954
782.6332	8035
785.0459	7929
787.458	8051
789.8714	7930
792.2842	7990
794.6943	7953
797.1038	7888
799.5127	7915
801.9209	7886
804.3324	7925
806.7393	8070
809.1456	7920
811.5513	8023
813.9562	7985
816.3625	7959
818.7663	8013
821.1693	8144
823.5718	8111
825.9735	8130
828.3746	7940
830.7771	8177
833.177	8080
835.5762	7990
837.9747	8138
840.3727	8126
842.772	8124
845.1666	8165
847.5626	8263
849.958	8138
852.3527	8179
854.7488	8239
857.1403	8226
859.5331	8335
861.9253	8225
864.3168	8204
866.7057	8240
869.098	8097
871.4876	8146
873.8746	8085
876.263	8166
878.6487	8006
881.0378	8158
883.4243	8082
885.8081	8193
888.1933	8147
890.5759	8080
892.9598	8214
895.343	8186
897.7256	8267
900.1057	8131
902.4871	8257
904.8659	8268
907.246	8267
909.6254	8323
912.0023	8298
914.3786	8372
916.7562	8551
919.1331	8446
921.5074	8664
923.8831	8689
926.2562	8729
928.6287	8721
931.0005	8518
933.3757	8450
935.7462	8519
938.1162	8499
940.4855	8695
942.8542	8673
945.2242	8660
947.5916	8506
949.9584	8631
952.3266	8729
954.6921	8789
957.0571	8966
959.4233	9084
961.787	9048
964.15	8931
966.5125	8999
968.8742	8936
971.2354	8808
973.5959	8908
975.9559	8718
978.3151	8589
980.6738	8641
983.0338	8517
985.3912	8413
987.7461	8490
990.1022	8410
992.4578	8433
994.8127	8464
997.1689	8518
999.5207	8413
1001.874	8480
1004.226	8455
1006.576	8433
1008.929	8438
1011.28	8461
1013.628	8495
1015.977	8422
1018.324	8449
1020.674	8556
1023.019	8579
1025.366	8471
1027.713	8535
1030.056	8540
1032.399	8417
1034.746	8457
1037.087	8673
1039.431	8523
1041.771	8584
1044.113	8663
1046.454	8553
1048.793	8458
1051.133	8582
1053.471	8635
1055.807	8733
1058.146	8536
1060.483	8677
1062.818	8623
1065.153	8838
1067.489	8618
1069.822	8654
1072.156	8717
1074.488	8663
1076.82	8755
1079.15	8661
1081.48	8679
1083.814	8786
1086.143	8606
1088.471	8660
1090.799	8666
1093.126	8586
1095.452	8617
1097.78	8570
1100.105	8606
1102.43	8692
1104.754	8481
1107.077	8736
1109.4	8746
1111.722	8766
1114.044	8742
1116.365	8742
1118.685	8765
1121.005	8848
1123.324	8836
1125.643	8898
1127.961	8936
1130.278	8832
1132.595	8772
1134.911	8711
1137.226	8716
1139.541	8650
1141.854	8712
1144.167	8659
1146.482	8762
1148.793	8752
1151.105	8848
1153.414	8760
1155.725	8771
1158.033	8921
1160.344	8682
1162.651	8779
1164.959	8764
1167.265	8875
1169.572	8775
1171.878	8867
1174.184	8836
1176.488	8831
1178.79	8821
1181.094	9059
1183.396	8767
1185.699	8860
1188.001	8935
1190.301	8855
1192.6	8776
1194.9	8838
1197.2	8848
1199.497	8785
1201.794	8837
1204.09	8848
1206.387	8890
1208.684	8825
1210.978	8726
1213.272	8835
1215.565	8823
1217.858	8846
1220.15	8864
1222.443	8951
1224.734	8895
1227.024	9009
1229.313	8882
1231.602	9036
1233.892	8995
1236.18	8974
1238.467	9150
1240.754	8975
1243.04	9086
1245.325	9066
1247.612	9274
1249.896	9278
1252.178	9105
1254.461	9238
1256.743	9189
1259.027	9159
1261.308	9131
1263.587	9224
1265.867	9114
1268.146	9191
1270.425	9192
1272.703	9133
1274.981	9405
1277.256	9139
1279.532	9120
1281.808	9101
1284.083	9134
1286.358	9171
1288.63	9175
1290.904	8978
1293.175	9139
1295.449	9011
1297.719	9106
1299.99	9034
1302.259	9186
1304.529	9108
1306.798	9210
1309.065	8950
1311.333	9184
1313.599	9147
1315.866	9100
1318.131	9083
1320.396	9196
1322.66	9007
1324.925	9118
1327.187	9189
1329.448	9161
1331.711	9156
1333.974	9139
1336.234	9014
1338.493	9178
1340.752	9009
1343.01	8974
1345.269	9132
1347.526	9165
1349.784	9074
1352.04	9234
1354.295	9011
1356.552	9078
1358.806	9027
1361.059	9134
1363.312	8996
1365.564	9120
1367.818	9147
1370.069	9182
1372.318	9021
1374.568	9108
1376.817	9203
1379.066	9313
1381.316	9237
1383.564	9325
1385.809	9116
1388.056	9160
1390.301	9346
1392.549	9457
1394.793	9424
1397.036	9607
1399.279	9460
1401.522	9478
1403.763	9610
1406.007	9617
1408.248	9572
1410.487	9494
1412.727	9504
1414.965	9423
1417.205	9481
1419.442	9474
1421.68	9461
1423.915	9442
1426.152	9523
1428.388	9429
1430.623	9462
1432.857	9505
1435.091	9521
1437.323	9576
1439.556	9477
1441.789	9597
1444.019	9343
1446.25	9564
1448.48	9466
1450.708	9647
1452.938	9551
1455.167	9559
1457.394	9595
1459.62	9522
1461.846	9506
1464.073	9608
1466.299	9502
1468.523	9551
1470.746	9364
1472.969	9394
1475.191	9339
1477.415	9446
1479.636	9210
1481.858	9364
1484.078	9202
1486.298	9233
1488.518	9292
1490.736	9280
1492.954	9221
1495.169	9180
1497.386	8955
1499.602	9269
1501.819	9135
1504.034	9119
1506.248	9038
1508.462	9125
1510.675	9153
1512.888	8988
1515.1	9178
1517.311	9174
1519.522	9044
1521.732	9178
1523.942	9062
1526.151	9131
1528.36	9104
1530.566	9110
1532.773	9129
1534.98	9124
1537.187	9197
1539.392	9128
1541.596	9345
1543.801	9178
1546.005	9352
1548.208	9205
1550.411	9263
1552.612	9391
1554.814	9179
1557.013	9306
1559.212	9267
1561.414	9266
1563.612	9243
1565.811	9433
1568.007	9407
1570.203	9358
1572.403	9259
1574.598	9346
1576.792	9380
1578.988	9371
1581.181	9280
1583.376	9464
1585.568	9535
1587.761	9312
1589.952	9388
1592.143	9570
1594.333	9515
1596.524	9335
1598.715	9491
1600.903	9445
1603.091	9424
1605.278	9310
1607.466	9372
1609.652	9441
1611.838	9378
1614.023	9517
1616.207	9417
1618.391	9461
1620.576	9468
1622.759	9421
1624.941	9409
1627.123	9499
1629.304	9455
1631.484	9752
1633.664	9461
1635.844	9484
1638.022	9594
1640.201	9520
1642.38	9519
1644.556	9505
1646.732	9470
1648.908	9376
1651.084	9382
1653.257	9436
1655.433	9530
1657.607	9481
1659.779	9643
1661.951	9554
1664.122	9487
1666.295	9483
1668.467	9484
1670.635	9600
1672.805	9677
1674.973	9459
1677.142	9552
1679.31	9580
1681.478	9464
1683.644	9553
1685.81	9559
1687.975	9457
1690.142	9551
1692.305	9416
1694.468	9420
1696.632	9415
1698.794	9579
1700.957	9432
1703.119	9414
1705.279	9354
1707.439	9352
1709.598	9439
1711.758	9377
1713.917	9467
1716.075	9407
1718.231	9405
1720.388	9416
1722.543	9303
1724.702	9227
1726.856	9439
1729.01	9326
1731.164	9387
1733.317	9498
1735.471	9480
1737.623	9235
1739.774	9306
1741.925	9319
1744.075	9373
1746.225	9430
1748.376	9312
1750.524	9387
1752.672	9329
1754.82	9385
1756.965	9466
1759.113	9421
1761.259	9405
1763.405	9441
1765.549	9450
1767.694	9269
1769.836	9439
1771.981	9298
1774.123	9491
1776.264	9507
1778.405	9440
1780.546	9517
1782.687	9408
1784.827	9485
1786.966	9427
1789.103	9527
1791.242	9645
1793.381	9615
1795.517	9490
1797.653	9468
1799.788	9484
1801.923	9541
1804.057	9444
1806.193	9385
1808.326	9467
1810.457	9389
1812.59	9408
1814.721	9522
1816.855	9389
1818.984	9424
1821.113	9243
1823.244	9381
1825.372	9466
1827.499	9366
1829.63	9438
1831.756	9311
1833.882	9313
1836.007	9371
1838.132	9360
1840.26	9349
1842.384	9271
1844.507	9357
1846.63	9340
1848.752	9201
1850.875	9361
1852.996	9335
1855.118	9332
1857.238	9404
1859.358	9225
1861.477	9350
1863.597	9319
1865.715	9343
1867.832	9392
1869.948	9295
1872.064	9316
1874.181	9314
1876.297	9330
1878.411	9335
1880.526	9378
1882.639	9397
1884.752	9213
1886.865	9363
1888.977	9349
1891.089	9375
1893.2	9306
1895.308	9305
1897.42	9263
1899.53	9352
1901.639	9390
1903.745	9408
1905.853	9488
1907.962	9282
1910.067	9418
1912.174	9444
1914.278	9475
1916.383	9536
1918.486	9420
1920.592	9352
1922.694	9474
1924.797	9667
1926.898	9316
1929	9397
1931.102	9488
1933.203	9437
1935.301	9485
1937.401	9282
1939.499	9502
1941.598	9484
1943.697	9504
1945.793	9449
1947.888	9574
1949.985	9529
1952.08	9609
1954.176	9430
1956.269	9616
1958.364	9397
1960.457	9416
1962.549	9531
1964.642	9421
1966.733	9495
1968.823	9527
1970.913	9476
1973.005	9404
1975.093	9426
1977.184	9612
1979.271	9354
1981.359	9401
1983.446	9389
1985.532	9404
1987.619	9520
1989.705	9404
1991.789	9450
1993.874	9471
1995.956	9272
1998.041	9337
2000.123	9370
2002.206	9332
2004.287	9308
2006.368	9409
2008.449	9273
2010.529	9321
2012.609	9332
2014.688	9389
2016.766	9254
2018.843	9216
2020.922	9267
2022.999	9400
2025.074	9306
2027.15	9397
2029.225	9252
2031.299	9278
2033.375	9220
2035.447	9387
2037.52	9448
2039.592	9339
2041.664	9281
2043.736	9308
2045.807	9371
2047.876	9311
2049.947	9335
2052.015	9283
2054.086	9323
2056.153	9268
2058.221	9293
2060.288	9462
2062.353	9324
2064.42	9446
2066.486	9241
2068.55	9356
2070.614	9364
2072.678	9387
2074.741	9399
2076.805	9270
2078.866	9446
2080.929	9453
2082.99	9190
2085.049	9336
2087.109	9358
2089.17	9299
2091.228	9497
2093.286	9261
2095.344	9376
2097.4	9250
2099.46	9390
2101.516	9205
2103.572	9323
2105.626	9310
2107.679	9212
2109.735	9367
2111.788	9391
2113.841	9370
2115.894	9301
2117.945	9380
2119.997	9252
2122.049	9156
2124.1	9281
2126.148	9325
2128.197	9222
2130.246	9397
2132.296	9144
2134.342	9302
2136.39	9206
2138.437	9290
2140.483	9274
2142.527	9296
2144.574	9086
2146.619	9181
2148.661	9251
2150.705	9418
2152.747	9172
2154.792	9211
2156.832	9238
2158.874	9078
2160.915	9186
2162.954	9254
2164.995	9269
2167.034	9254
2169.072	9169
2171.111	9201
2173.148	9052
2175.186	9279
2177.223	9125
2179.258	9145
2181.294	9261
2183.328	9190
2185.362	9255
2187.398	9200
2189.431	9120
2191.463	9141
2193.495	9164
2195.528	9093
2197.56	9133
2199.59	9000
2201.62	9070
2203.649	9081
2205.678	9168
2207.708	9115
2209.737	9125
2211.764	9233
2213.791	8989
2215.817	9023
2217.843	9122
2219.87	9053
2221.895	9000
2223.919	9076
2225.942	8961
2227.966	9055
2229.988	9028
2232.012	8989
2234.032	8909
2236.054	8944
2238.074	8954
2240.095	8983
2242.116	8965
2244.135	9006
2246.153	8923
2248.171	9034
2250.188	8991
2252.208	8962
2254.223	8937
2256.239	9088
2258.255	8940
2260.269	8951
2262.283	9054
2264.3	9043
2266.312	8933
2268.325	8878
2270.336	9046
2272.349	8951
2274.362	9203
2276.372	9090
2278.383	8880
2280.392	9010
2282.402	9078
2284.409	8882
2286.418	9008
2288.427	9016
2290.433	8919
2292.441	9044
2294.446	9107
2296.453	8950
2298.459	8948
2300.463	8896
2302.466	9061
2304.471	8897
2306.475	8930
2308.477	8864
2310.478	8822
2312.481	8941
2314.481	8855
2316.481	9008
2318.482	8931
2320.482	8805
2322.48	8925
2324.48	8982
2326.478	8906
2328.476	8886
2330.473	8921
2332.469	8809
2334.465	8914
2336.46	8757
2338.454	8727
2340.45	8952
2342.444	8869
2344.437	8822
2346.43	8761
2348.421	8677
2350.414	8868
2352.405	8721
2354.396	8697
2356.386	8722
2358.376	8748
2360.366	8765
2362.355	8765
2364.343	8713
2366.331	8757
2368.317	8704
2370.304	8580
2372.292	8747
2374.278	8629
2376.262	8857
2378.247	8765
2380.23	8738
2382.216	8737
2384.199	8768
2386.181	8764
2388.163	8623
2390.144	8739
2392.127	8794
2394.107	8610
2396.087	8700
2398.066	8616
2400.046	8794
2402.023	8590
2404.004	8525
2405.981	8592
2407.957	8638
2409.934	8644
2411.91	8745
2413.886	8544
2415.862	8575
2417.836	8591
2419.809	8693
2421.784	8521
2423.756	8574
2425.73	8748
2427.701	8592
2429.672	8664
2431.644	8692
2433.615	8570
2435.586	8531
2437.555	8677
2439.523	8560
2441.491	8658
2443.459	8693
2445.428	8524
2447.395	8646
2449.361	8620
2451.327	8552
2453.292	8666
2455.257	8621
2457.223	8570
2459.187	8550
2461.15	8504
2463.113	8335
2465.076	8474
2467.039	8539
2468.999	8541
2470.96	8455
2472.921	8504
2474.881	8542
2476.841	8541
2478.8	8573
2480.759	8514
2482.717	8474
2484.675	8505
2486.63	8496
2488.589	8548
2490.545	8444
2492.5	8520
2494.455	8403
2496.408	8475
2498.364	8445
2500.318	8484
2502.27	8517
2504.223	8334
2506.174	8420
2508.126	8383
2510.078	8499
2512.03	8291
2513.979	8383
2515.927	8394
2517.877	8613
2519.826	8379
2521.775	8363
2523.722	8338
2525.668	8380
2527.616	8402
2529.561	8311
2531.508	8506
2533.452	8384
2535.398	8260
2537.342	8382
2539.284	8365
2541.229	8384
2543.173	8355
2545.114	8403
2547.055	8473
2548.996	8308
2550.938	8282
2552.878	8412
2554.817	8501
2556.756	8451
2558.695	8281
2560.633	8302
2562.572	8457
2564.509	8361
2566.445	8403
2568.382	8340
2570.317	8236
2572.254	8337
2574.189	8438
2576.123	8311
2578.057	8402
2579.99	8317
2581.923	8510
2583.855	8214
2585.788	8569
2587.719	8330
2589.65	8394
2591.579	8262
2593.511	8368
2595.44	8378
2597.37	8363
2599.297	8471
2601.225	8300
2603.153	8347
2605.08	8381
2607.007	8505
2608.932	8259
2610.858	8433
2612.782	8373
2614.709	8444
2616.632	8415
2618.556	8356
2620.478	8291
2622.401	8433
2624.324	8461
2626.247	8402
2628.167	8271
2630.088	8356
2632.008	8343
2633.928	8425
2635.848	8429
2637.766	8431
2639.684	8404
2641.603	8461
2643.519	8287
2645.437	8441
2647.353	8302
2649.27	8497
2651.184	8254
2653.099	8224
2655.014	8344
2656.928	8307
2658.842	8384
2660.755	8300
2662.667	8338
2664.579	8336
2666.491	8421
2668.402	8237
2670.312	8428
2672.222	8441
2674.132	8218
2676.042	8283
2677.951	8289
2679.859	8240
2681.766	8320
2683.674	8177
2685.582	8225
2687.488	8309
2689.392	8294
2691.298	8207
2693.202	8162
2695.107	8211
2697.012	8174
2698.914	8283
2700.817	8169
2702.72	8110
2704.622	8190
2706.524	8339
2708.425	8064
2710.326	8141
2712.225	8166
2714.125	8053
2716.024	8155
2717.923	8019
2719.822	8094
2721.719	8193
2723.616	8202
2725.512	8243
2727.41	8135
2729.305	8079
2731.201	8222
2733.095	8004
2734.99	8144
2736.884	8072
2738.778	8036
2740.67	8201
2742.562	8195
2744.455	8171
2746.346	8190
2748.238	8101
2750.129	8120
2752.018	8113
2753.907	8084
2755.797	8168
2757.687	8169
2759.575	8020
2761.462	8074
2763.349	8019
2765.237	8066
2767.124	8062
2769.009	8148
2770.894	8032
2772.779	7918
2774.663	8085
2776.547	8103
2778.431	8115
2780.314	7968
2782.197	8135
2784.078	8194
2785.96	7912
2787.842	7961
2789.723	8043
2791.603	7996
2793.483	7982
2795.362	7991
2797.241	8045
2799.121	8179
2800.997	8024
2802.874	8002
2804.751	7964
2806.628	8059
2808.506	7948
2810.38	8033
2812.255	7923
2814.13	8123
2816.003	8165
2817.878	8003
2819.752	7992
2821.623	7920
2823.496	7940
2825.368	8015
2827.238	7852
2829.111	8003
2830.98	7985
2832.851	7939
2834.719	7900
2836.589	7911
2838.458	8032
2840.327	7943
2842.193	7967
2844.061	8198
2845.927	7990
2847.794	8049
2849.66	7948
2851.525	8094
2853.39	7999
2855.254	8082
2857.117	8121
2858.983	8096
2860.845	8147
2862.707	8178
2864.569	8278
2866.431	8190
2868.293	8172
2870.154	8237
2872.013	8380
2873.873	8167
2875.733	8337
2877.592	8394
2879.451	8439
2881.309	8484
2883.166	8690
2885.022	8544
2886.879	8619
2888.736	8543
2890.591	8601
2892.446	8594
2894.301	8597
2896.155	8774
2898.009	8695
2899.863	8622
2901.716	8466
2903.568	8463
2905.419	8495
2907.27	8615
2909.123	8645
2910.973	8568
2912.824	8700
2914.673	8621
2916.521	8521
2918.372	8763
2920.22	8886
2922.067	8724
2923.914	8763
2925.761	8746
2927.607	8793
2929.455	8834
2931.301	8803
2933.144	8967
2934.99	8915
2936.833	8909
2938.678	8976
2940.522	9018
2942.364	9161
2944.207	9096
2946.048	9351
2947.891	9367
2949.731	9300
2951.571	9489
2953.412	9517
2955.25	9398
2957.09	9350
2958.93	9202
2960.767	9226
2962.606	9354
2964.443	9143
2966.279	9126
2968.116	8977
2969.953	8914
2971.788	8762
2973.623	8670
2975.457	8692
2977.292	8601
2979.127	8535
2980.959	8431
2982.792	8360
2984.624	8509
2986.455	8316
2988.288	8301
2990.119	8209
2991.949	8216
2993.779	8188
2995.608	8057
2997.439	7970
2999.268	8108
3001.096	8063
3002.923	8026
3004.751	7757
3006.578	7872
3008.406	7826
3010.232	7621
3012.057	7654
3013.883	7775
3015.706	7780
3017.532	7787
3019.356	7606
3021.179	7673
3023.002	7740
3024.823	7588
3026.646	7506
3028.469	7560
3030.289	7505
3032.11	7518
3033.93	7431
3035.749	7599
3037.57	7554
3039.39	7525
3041.207	7520
3043.026	7420
3044.842	7599
3046.661	7500
3048.477	7528
3050.294	7389
3052.109	7464
3053.925	7468
3055.739	7406
3057.555	7435
3059.368	7532
3061.181	7596
3062.995	7313
3064.807	7578
3066.62	7423
3068.433	7380
3070.243	7499
3072.054	7272
3073.865	7351
3075.675	7470
3077.485	7321
3079.293	7350
3081.102	7300
3082.911	7328
3084.719	7256
3086.527	7211
3088.333	7277
3090.139	7373
3091.945	7192
3093.75	7255
3095.557	7167
3097.361	7209
3099.165	7309
3100.969	7180
3102.772	7170
3104.575	7255
3106.379	7234
3108.181	7187
3109.982	7282
3111.783	7200
3113.584	7096
3115.386	7085
3117.186	7095
3118.985	7161
3120.783	7003
3122.582	7224
3124.381	7146
3126.179	7062
3127.975	7119
3129.772	7053
3131.569	7151
3133.365	6962
3135.161	7122
3136.956	7097
3138.751	7000
3140.544	6944
3142.338	7004
3144.132	6982
3145.925	6990
3147.717	7105
3149.509	6903
3151.301	6896
3153.091	6987
3154.884	7109
3156.673	6911
3158.462	6979
3160.252	6972
3162.041	6989
3163.831	6928
3165.618	6941
3167.405	7023
3169.193	6856
3170.979	6879
3172.767	6925
3174.553	7014
3176.338	6906
3178.123	6891
3179.907	6959
3181.692	6947
3183.477	6923
3185.259	6898
3187.042	6852
3188.824	6843
3190.607	6909
3192.389	6766
3194.17	6934
3195.951	6822
3197.73	6850
3199.51	6885
3201.289	6734
3203.07	6712
3204.848	6854
3206.626	6698
3208.403	6836
3210.18	6844
3211.959	6843
3213.735	6867
3215.511	6744
3217.285	6675
3219.06	6917
3220.836	6818
3222.611	6773
3224.384	6711
3226.158	6714
3227.929	6790
3229.702	6761
3231.476	6780
3233.248	6872
3235.018	6732
3236.789	6789
3238.56	6770
3240.33	6751
3242.1	6814
3243.869	6810
3245.637	6707
3247.405	6819
3249.172	6702
3250.941	6692
3252.707	6689
3254.474	6827
3256.24	6782
3258.006	6757
3259.772	6760
3261.537	6709
3263.301	6775
3265.065	6646
3266.828	6664
3268.592	6767
3270.355	6799
3272.117	6643
3273.878	6750
3275.64	6649
3277.401	6733
3279.162	6768
3280.922	6902
3282.682	6697
3284.441	6778
3286.199	6681
3287.959	6790
3289.716	6629
3291.475	6688
3293.232	6547
3294.988	6792
3296.744	6700
3298.501	6758
3300.256	6766
3302.011	6720
3303.766	6678
3305.52	6626
3307.275	6640
3309.028	6674
3310.781	6667
3312.533	6595
3314.285	6725
3316.038	6614
3317.789	6652
3319.54	6716
3321.289	6597
3323.039	6701
3324.789	6744
3326.539	6601
3328.288	6679
3330.035	6582
3331.783	6537
3333.531	6645
3335.28	6542
3337.025	6626
3338.771	6635
3340.518	6549
3342.262	6542
3344.009	6580
3345.753	6458
3347.497	6392
3349.24	6460
3350.983	6633
3352.726	6545
3354.469	6549
3356.212	6547
3357.952	6408
3359.694	6536
3361.434	6462
3363.176	6534
3364.916	6522
3366.654	6493
3368.394	6475
3370.132	6538
3371.871	6392
3373.61	6490
3375.346	6530
3377.083	6444
3378.82	6534
3380.556	6487
3382.292	6380
3384.027	6381
3385.763	6444
3387.497	6362
3389.231	6409
3390.965	6348
3392.698	6460
3394.431	6425
3396.164	6342
3397.896	6355
3399.627	6373
3401.36	6420
3403.09	6322
3404.82	6393
3406.55	6333
3408.279	6347
3410.01	6396
3411.738	6352
3413.467	6334
3415.194	6382
3416.92	6227
3418.647	6423
3420.375	6256
3422.102	6304
3423.827	6237
3425.553	6326
3427.277	6214
3429.003	6281
3430.727	6258
3432.451	6221
3434.173	6163
3435.896	6151
3437.62	6255
3439.343	6175
3441.063	6212
3442.785	6074
3444.505	6146
3446.226	6228
3447.948	6119
3449.666	6183
3451.386	6176
3453.104	6224
3454.823	6225
3456.541	6215
3458.259	6052
3459.976	6105
3461.693	6204
3463.408	6107
3465.125	6031
3466.841	6053
3468.556	6081
3470.271	6088
3471.985	6038
3473.698	5965
3475.414	6050
3477.126	6109
3478.838	6024
3480.55	6063
3482.263	6068
3483.975	6006
3485.686	6065
3487.396	5939
3489.106	6055
3490.817	6081
3492.526	5997
3494.236	5888
3495.944	5842
3497.652	5889
3499.359	5948
3501.066	5949
3502.775	5981
3504.481	5905
3506.187	5839
3507.893	5894
3509.598	5896
3511.304	5965
3513.009	5855
3514.713	5869
3516.417	5936
3518.12	5806
3519.821	5904
3521.525	5871
3523.228	5898
3524.929	5817
3526.631	5793
3528.33	5735
3530.032	5880
3531.733	5917
3533.433	5793
3535.131	5805
3536.83	5799
3538.529	5939
3540.227	5696
3541.925	5647
3543.623	5738
3545.319	5823
3547.016	5786
3548.712	5684
3550.408	5712
3552.103	5735
3553.798	5716
3555.491	5756
3557.188	5680
3558.88	5716
3560.574	5692
3562.266	5737
3563.959	5675
3565.651	5702
3567.343	5685
3569.035	5716
3570.725	5677
3572.415	5635
3574.106	5642
3575.797	5669
3577.485	5644
3579.174	5723
3580.863	5709
3582.551	5629
3584.238	5694
3585.926	5667
3587.613	5620
3589.3	5554
3590.986	5562
3592.671	5569
3594.357	5548
3596.042	5573
3597.726	5417
3599.41	5505
3601.094	5518
3602.778	5531
3604.461	5578
3606.143	5526
3607.825	5557
3609.507	5562
3611.188	5537
3612.87	5432
3614.551	5395
3616.229	5489
3617.909	5465
3619.589	5466
3621.269	5535
3622.948	5497
3624.625	5457
3626.302	5400
3627.98	5425
3629.657	5453
3631.334	5346
3633.01	5383
3634.686	5357
3636.361	5361
3638.036	5434
3639.712	5404
3641.385	5462
3643.06	5411
3644.732	5377
3646.405	5430
3648.08	5338
3649.751	5309
3651.424	5348
3653.094	5246
3654.766	5303
3656.436	5335
3658.106	5300
3659.777	5336
3661.446	5298
3663.115	5208
3664.783	5283
3666.452	5365
3668.121	5366
3669.788	5231
3671.454	5335
3673.121	5333
3674.789	5228
3676.455	5221
3678.12	5245
3679.784	5281
3681.45	5379
3683.114	5239
3684.779	5350
3686.442	5237
3688.105	5163
3689.768	5315
3691.43	5301
3693.093	5258
3694.754	5180
3696.415	5249
3698.076	5132
3699.736	5307
3701.396	5111
3703.057	5348
3704.716	5104
3706.375	5198
3708.034	5215
3709.692	5236
3711.351	5135
3713.008	5156
3714.665	5219
3716.321	5156
3717.977	5109
3719.634	5197
3721.29	5162
3722.945	5136
3724.598	5227
3726.253	5113
3727.907	5179
3729.561	5127
3731.214	5182
3732.867	4963
3734.518	5179
3736.171	5086
3737.824	5147
3739.474	5035
3741.125	5031
3742.775	5003
3744.425	5150
3746.074	5056
3747.725	5056
3749.373	5028
3751.022	5043
3752.669	4963
3754.318	5107
3755.966	5095
3757.612	5012
3759.259	5054
3760.905	4994
3762.55	5013
3764.197	4973
3765.842	5041
3767.486	5030
3769.131	4996
3770.774	4968
3772.417	4992
3774.061	4885
3775.705	4954
3777.347	4992
3778.988	4937
3780.629	4912
3782.271	4902
3783.912	4963
3785.552	4986
3787.192	4949
3788.831	5000
3790.472	4887
3792.112	4925
3793.75	5053
3795.388	4917
3797.024	4892
3798.661	4948
3800.3	4922
3801.936	4882
3803.572	4917
3805.208	4909
3806.844	4845
3808.48	4988
3810.115	4861
3811.748	4873
3813.382	4771
3815.016	4944
3816.649	4940
3818.283	4939
3819.914	4836
3821.547	4875
3823.178	4781
3824.809	4773
3826.441	4837
3828.072	4870
3829.701	4861
3831.331	4791
3832.96	4707
3834.591	4766
3836.219	4772
3837.847	4729
3839.475	4858
3841.102	4810
3842.729	4729
3844.357	4745
3845.984	4766
3847.609	4791
3849.234	4853
3850.86	4729
3852.485	4767
3854.11	4725
3855.734	4776
3857.357	4777
3858.981	4750
3860.603	4847
3862.227	4748
3863.848	4682
3865.471	4739
3867.092	4811
3868.713	4618
3870.334	4774
3871.954	4701
3873.575	4804
3875.194	4636
3876.813	4621
3878.433	4642
3880.051	4703
3881.669	4634
3883.286	4692
3884.904	4703
3886.52	4671
3888.138	4752
3889.754	4655
3891.37	4682
3892.985	4693
3894.6	4615
3896.216	4684
3897.831	4583
3899.444	4614
3901.058	4637
3902.67	4642
3904.283	4594
3905.897	4588
3907.509	4543
3909.121	4592
3910.731	4615
3912.342	4609
3913.954	4609
3915.563	4542
3917.174	4524
3918.783	4535
3920.391	4564
3922.002	4604
3923.611	4676
3925.218	4574
3926.826	4594
3928.432	4533
3930.039	4647
3931.647	4578
3933.253	4593
3934.859	4579
3936.464	4599
3938.068	4482
3939.675	4617
3941.278	4509
3942.883	4484
3944.486	4534
3946.089	4650
3947.692	4506
3949.295	4456
3950.898	4610
3952.499	4518
3954.1	4482
3955.7	4392
3957.303	4598
3958.903	4523
3960.502	4503
3962.101	4465
3963.7	4429
3965.301	4516
3966.899	4507
3968.497	4529
3970.094	4428
3971.691	4516
3973.288	4332
3974.885	4547
3976.481	4472
3978.077	4433
3979.672	4404
3981.267	4407
3982.863	4394
3984.457	4477
3986.051	4477
3987.645	4440
3989.238	4368
3990.831	4397
3992.425	4303
3994.017	4431
3995.607	4411
3997.199	4403
3998.79	4288
4000.382	4334
4001.973	4408
4003.561	4287
4005.151	4285
4006.741	4299
4008.331	4321
4009.918	4327
4011.507	4381
4013.095	4303
4014.681	4187
4016.269	4341
4017.856	4289
4019.443	4254
4021.028	4322
4022.614	4250
4024.199	4371
4025.785	4353
4027.37	4346
4028.953	4247
4030.536	4200
4032.12	4306
4033.704	4290
4035.287	4187
4036.869	4194
4038.45	4215
4040.032	4140
4041.613	4274
4043.195	4281
4044.776	4217
4046.356	4175
4047.935	4247
4049.515	4160
4051.095	4150
4052.674	4156
4054.251	4164
4055.829	4158
4057.406	4148
4058.985	4162
4060.562	4211
4062.139	4129
4063.715	4109
4065.29	4242
4066.865	4108
4068.442	4119
4070.016	4212
4071.59	4013
4073.164	4158
4074.738	4176
4076.312	4077
4077.885	4166
4079.458	4179
4081.03	4105
4082.602	4169
4084.173	4173
4085.745	4139
4087.315	4050
4088.886	4069
4090.456	4077
4092.026	4124
4093.596	4091
4095.165	4025
4096.734	4073
4098.301	4053
4099.869	4140
4101.437	4129
4103.006	4078
4104.572	4028
4106.139	4031
4107.704	4034
4109.27	4041
4110.837	4047
4112.401	4069
4113.966	4004
4115.53	4033
4117.094	4102
4118.659	4028
4120.223	3950
4121.785	4000
4123.347	3976
4124.909	4077
4126.471	4006
4128.034	3944
4129.595	4009
4131.155	3933
4132.716	3987
4134.275	3892
4135.836	3975
4137.395	3950
4138.955	3948
4140.513	3970
4142.071	3905
4143.628	3917
4145.188	3933
4146.745	3972
4148.302	3998
4149.858	3835
4151.414	3891
4152.971	4021
4154.526	3932
4156.081	3928
4157.635	3917
4159.189	3867
4160.745	3883
4162.298	3778
4163.852	3897
4165.405	3933
4166.957	3930
4168.51	3864
4170.063	3839
4171.614	3835
4173.166	3854
4174.717	3832
4176.267	3768
4177.817	3821
4179.368	3881
4180.917	3885
4182.466	3857
4184.016	3845
4185.564	3814
4187.112	3783
4188.66	3807
4190.207	3736
4191.754	3717
4193.301	3792
4194.848	3831
4196.394	3841
4197.94	3769
4199.484	3763
4201.03	3748
4202.575	3664
4204.12	3812
4205.663	3725
4207.207	3724
4208.75	3820
4210.292	3716
4211.836	3721
4213.378	3774
4214.92	3729
4216.46	3755
4218.002	3755
4219.544	3712
4221.083	3650
4222.625	3803
4224.164	3741
4225.703	3685
4227.244	3652
4228.782	3724
4230.32	3646
4231.857	3715
4233.395	3795
4234.933	3669
4236.471	3664
4238.007	3616
4239.542	3681
4241.078	3648
4242.614	3600
4244.15	3649
4245.685	3624
4247.219	3601
4248.753	3612
4250.287	3583
4251.82	3684
4253.354	3665
4254.887	3699
4256.419	3636
4257.951	3655
4259.483	3687
4261.016	3563
4262.547	3633
4264.078	3743
4265.608	3598
4267.137	3564
4268.668	3613
4270.197	3604
4271.727	3619
4273.254	3630
4274.783	3667
4276.311	3602
4277.84	3560
4279.366	3541
4280.894	3595
4282.42	3560
4283.946	3550
4285.473	3698
4286.998	3523
4288.523	3526
4290.047	3603
4291.572	3532
4293.096	3552
4294.622	3562
4296.144	3543
4297.668	3530
4299.19	3501
4300.713	3603
4302.236	3515
4303.758	3575
4305.279	3595
4306.799	3581
4308.321	3602
4309.842	3508
4311.361	3475
4312.882	3464
4314.401	3547
