400.0961	4802
402.6185	4785
405.1424	4844
407.6635	4860
410.1838	4789
412.7035	4925
415.2225	4876
417.7388	4964
420.2585	4911
422.7754	5065
425.2917	5075
427.8072	5029
430.3221	5172
432.8363	5161
435.3498	5141
437.8626	5217
440.3727	5205
442.8841	5132
445.3969	5223
447.907	5179
450.4142	5209
452.9229	5151
455.4289	5140
457.9362	5183
460.4449	5125
462.9488	5115
465.454	5156
467.9566	5244
470.4604	5152
472.9637	5213
475.4662	5173
477.966	5141
480.4671	5186
482.9656	5231
485.4633	5344
487.9645	5265
490.4608	5141
492.9566	5305
495.4536	5380
497.948	5234
500.4437	5333
502.9387	5220
505.431	5379
507.9226	5223
510.4136	5337
512.9079	5338
515.3975	5369
517.8864	5337
520.3746	5471
522.8622	5389
525.3491	5346
527.8394	5317
530.3249	5397
532.8098	5367
535.2939	5436
537.7774	5431
540.2623	5365
542.7444	5337
545.2259	5402
547.7067	5449
550.1868	5453
552.6683	5485
555.147	5537
557.6231	5518
560.1005	5457
562.5773	5388
565.0534	5498
567.5308	5465
570.0056	5568
572.4776	5532
574.951	5526
577.4237	5592
579.8978	5610
582.3671	5627
584.8378	5575
587.3079	5631
589.7773	5577
592.244	5653
594.714	5647
597.1793	5623
599.6461	5726
602.1121	5700
604.5754	5612
607.0421	5625
609.5042	5610
611.9675	5619
614.4282	5606
616.8902	5664
619.3515	5615
621.8122	5621
624.2702	5545
626.7296	5612
629.1863	5583
631.6423	5540
634.1017	5566
636.5563	5553
639.0104	5652
641.4658	5535
643.9185	5553
646.3725	5587
648.8239	5603
651.2766	5639
653.7266	5619
656.176	5693
658.6247	5681
661.0748	5711
663.5242	5746
665.9709	5725
668.417	5765
670.8624	5690
673.3092	5815
675.7533	5773
678.1968	5785
680.6395	5723
683.0817	5809
685.5251	5836
687.9659	5736
690.4061	5760
692.8456	5849
695.2844	5724
697.7226	5803
700.1621	5759
702.599	5835
705.0332	5899
707.4688	5911
709.9036	5842
712.3399	5867
714.7735	5890
717.2044	5989
719.6367	5927
722.0683	5911
724.4993	6021
726.9296	6050
729.3593	5993
731.7883	5981
734.2147	6072
736.6423	6081
739.0714	6109
741.4958	6145
743.9216	5973
746.3447	6101
748.7691	6121
751.1929	6203
753.616	6137
756.0366	6148
758.4584	6211
760.8776	6183
763.2982	6236
765.718	6183
768.1373	6244
770.5539	6145
772.9698	6180
775.3871	6325
777.8038	6107
780.2178	6386
782.6332	6322
785.0459	6347
787.458	6139
789.8714	6231
792.2842	6188
794.6943	6277
797.1038	6253
799.5127	6188
801.9209	6239
804.3324	6304
806.7393	6302
809.1456	6241
811.5513	6356
813.9562	6382
816.3625	6446
818.7663	6365
821.1693	6350
823.5718	6330
825.9735	6350
828.3746	6246
830.7771	6381
833.177	6429
835.5762	6247
837.9747	6310
840.3727	6320
842.772	6413
845.1666	6430
847.5626	6505
849.958	6423
852.3527	6311
854.7488	6442
857.1403	6531
859.5331	6512
861.9253	6535
864.3168	6459
866.7057	6461
869.098	6424
871.4876	6378
873.8746	6613
876.263	6735
878.6487	6467
881.0378	6499
883.4243	6485
885.8081	6357
888.1933	6435
890.5759	6440
892.9598	6505
895.343	6453
897.7256	6520
900.1057	6520
902.4871	6443
904.8659	6415
907.246	6654
909.6254	6479
912.0023	6627
914.3786	6623
916.7562	6706
919.1331	6649
921.5074	6685
923.8831	6758
926.2562	6875
928.6287	6920
931.0005	6880
933.3757	6762
935.7462	6939
938.1162	6870
940.4855	6961
942.8542	6923
945.2242	6942
947.5916	7114
949.9584	7294
952.3266	7427
954.6921	7622
957.0571	7749
959.4233	8010
961.787	8107
964.15	8161
966.5125	7897
968.8742	7770
971.2354	7413
973.5959	7176
975.9559	7073
978.3151	6844
980.6738	6844
983.0338	6884
985.3912	6781
987.7461	6716
990.1022	6705
992.4578	6629
994.8127	6762
997.1689	6608
999.5207	6644
1001.874	6672
1004.226	6754
1006.576	6829
1008.929	6764
1011.28	6758
1013.628	6716
1015.977	6742
1018.324	6722
1020.674	6838
1023.019	6761
1025.366	6839
1027.713	6720
1030.056	6823
1032.399	6793
1034.746	6777
1037.087	6909
1039.431	6848
1041.771	6877
1044.113	6835
1046.454	6785
1048.793	6832
1051.133	6816
1053.471	6742
1055.807	6840
1058.146	7020
1060.483	6891
1062.818	6968
1065.153	6957
1067.489	6968
1069.822	6986
1072.156	6946
1074.488	6919
1076.82	6979
1079.15	6891
1081.48	6834
1083.814	6951
1086.143	6813
1088.471	6904
1090.799	6864
1093.126	6865
1095.452	6943
1097.78	7010
1100.105	6865
1102.43	6830
1104.754	6826
1107.077	6886
1109.4	6944
1111.722	6959
1114.044	6839
1116.365	6841
1118.685	6850
1121.005	6951
1123.324	6874
1125.643	6937
1127.961	6887
1130.278	6946
1132.595	6822
1134.911	6968
1137.226	6998
1139.541	6869
1141.854	6930
1144.167	6859
1146.482	6938
1148.793	6877
1151.105	6904
1153.414	6997
1155.725	6861
1158.033	6998
1160.344	6892
1162.651	6953
1164.959	6801
1167.265	6890
1169.572	6909
1171.878	7005
1174.184	6980
1176.488	6942
1178.79	6945
1181.094	7023
1183.396	6995
1185.699	6995
1188.001	6931
1190.301	6894
1192.6	6975
1194.9	6884
1197.2	6873
1199.497	6846
1201.794	7040
1204.09	6979
1206.387	6989
1208.684	6926
1210.978	7034
1213.272	6916
1215.565	6911
1217.858	6991
1220.15	6902
1222.443	7057
1224.734	7022
1227.024	7124
1229.313	7030
1231.602	7102
1233.892	7106
1236.18	7049
1238.467	7068
1240.754	7188
1243.04	7140
1245.325	7206
1247.612	7193
1249.896	7308
1252.178	7079
1254.461	7185
1256.743	7136
1259.027	7213
1261.308	7293
1263.587	7192
1265.867	7225
1268.146	7231
1270.425	7232
1272.703	7222
1274.981	7175
1277.256	7279
1279.532	7075
1281.808	7174
1284.083	7070
1286.358	7267
1288.63	7229
1290.904	7181
1293.175	7183
1295.449	7106
1297.719	7270
1299.99	7197
1302.259	7100
1304.529	7015
1306.798	7132
1309.065	7202
1311.333	7119
1313.599	7055
1315.866	7075
1318.131	7044
1320.396	7126
1322.66	7122
1324.925	7109
1327.187	7157
1329.448	7291
1331.711	7057
1333.974	7248
1336.234	7132
1338.493	7110
1340.752	7098
1343.01	7065
1345.269	7209
1347.526	7182
1349.784	7068
1352.04	7174
1354.295	7145
1356.552	7081
1358.806	7016
1361.059	7118
1363.312	7095
1365.564	7086
1367.818	7040
1370.069	7015
1372.318	7185
1374.568	7182
1376.817	7217
1379.066	7204
1381.316	7138
1383.564	7118
1385.809	7199
1388.056	7259
1390.301	7315
1392.549	7321
1394.793	7455
1397.036	7376
1399.279	7349
1401.522	7366
1403.763	7384
1406.007	7359
1408.248	7404
1410.487	7388
1412.727	7343
1414.965	7369
1417.205	7324
1419.442	7451
1421.68	7302
1423.915	7324
1426.152	7546
1428.388	7358
1430.623	7466
1432.857	7507
1435.091	7326
1437.323	7448
1439.556	7401
1441.789	7385
1444.019	7576
1446.25	7419
1448.48	7459
1450.708	7482
1452.938	7606
1455.167	7592
1457.394	7658
1459.62	7531
1461.846	7557
1464.073	7463
1466.299	7467
1468.523	7479
1470.746	7422
1472.969	7302
1475.191	7325
1477.415	7439
1479.636	7342
1481.858	7380
1484.078	7349
1486.298	7323
1488.518	7256
1490.736	7178
1492.954	7136
1495.169	7202
1497.386	7233
1499.602	7139
1501.819	7118
1504.034	7138
1506.248	7123
1508.462	7187
1510.675	7225
1512.888	7194
1515.1	7141
1517.311	7174
1519.522	7187
1521.732	7161
1523.942	7097
1526.151	7177
1528.36	7138
1530.566	7034
1532.773	7112
1534.98	7200
1537.187	7027
1539.392	7206
1541.596	7220
1543.801	7238
1546.005	7202
1548.208	7161
1550.411	7186
1552.612	7276
1554.814	7244
1557.013	7205
1559.212	7220
1561.414	7293
1563.612	7275
1565.811	7229
1568.007	7368
1570.203	7509
1572.403	7304
1574.598	7267
1576.792	7249
1578.988	7401
1581.181	7405
1583.376	7378
1585.568	7513
1587.761	7398
1589.952	7519
1592.143	7306
1594.333	7394
1596.524	7275
1598.715	7392
1600.903	7432
1603.091	7389
1605.278	7465
1607.466	7262
1609.652	7510
1611.838	7457
1614.023	7499
1616.207	7430
1618.391	7433
1620.576	7389
1622.759	7413
1624.941	7379
1627.123	7393
1629.304	7552
1631.484	7472
1633.664	7433
1635.844	7480
1638.022	7557
1640.201	7486
1642.38	7537
1644.556	7417
1646.732	7560
1648.908	7290
1651.084	7495
1653.257	7554
1655.433	7434
1657.607	7591
1659.779	7612
1661.951	7619
1664.122	7543
1666.295	7626
1668.467	7534
1670.635	7632
1672.805	7652
1674.973	7696
1677.142	7657
1679.31	7581
1681.478	7531
1683.644	7523
1685.81	7421
1687.975	7625
1690.142	7612
1692.305	7528
1694.468	7539
1696.632	7402
1698.794	7359
1700.957	7340
1703.119	7590
1705.279	7413
1707.439	7354
1709.598	7370
1711.758	7434
1713.917	7411
1716.075	7359
1718.231	7446
1720.388	7374
1722.543	7386
1724.702	7399
1726.856	7427
1729.01	7449
1731.164	7343
1733.317	7270
1735.471	7422
1737.623	7424
1739.774	7338
1741.925	7264
1744.075	7478
1746.225	7554
1748.376	7389
1750.524	7395
1752.672	7433
1754.82	7474
1756.965	7485
1759.113	7391
1761.259	7446
1763.405	7409
1765.549	7435
1767.694	7333
1769.836	7435
1771.981	7416
1774.123	7505
1776.264	7466
1778.405	7420
1780.546	7500
1782.687	7358
1784.827	7505
1786.966	7402
1789.103	7436
1791.242	7541
1793.381	7557
1795.517	7493
1797.653	7354
1799.788	7617
1801.923	7563
1804.057	7519
1806.193	7456
1808.326	7489
1810.457	7506
1812.59	7375
1814.721	7476
1816.855	7394
1818.984	7400
1821.113	7408
1823.244	7394
1825.372	7521
1827.499	7414
1829.63	7413
1831.756	7446
1833.882	7610
1836.007	7420
1838.132	7378
1840.26	7320
1842.384	7419
1844.507	7384
1846.63	7436
1848.752	7482
1850.875	7443
1852.996	7382
1855.118	7424
1857.238	7455
1859.358	7447
1861.477	7393
1863.597	7457
1865.715	7358
1867.832	7281
1869.948	7444
1872.064	7374
1874.181	7508
1876.297	7338
1878.411	7400
1880.526	7384
1882.639	7432
1884.752	7323
1886.865	7448
1888.977	7379
1891.089	7330
1893.2	7441
1895.308	7390
1897.42	7380
1899.53	7412
1901.639	7448
1903.745	7407
1905.853	7533
1907.962	7505
1910.067	7407
1912.174	7561
1914.278	7537
1916.383	7429
1918.486	7643
1920.592	7509
1922.694	7471
1924.797	7417
1926.898	7589
1929	7515
1931.102	7448
1933.203	7376
1935.301	7474
1937.401	7497
1939.499	7466
1941.598	7616
1943.697	7512
1945.793	7446
1947.888	7421
1949.985	7447
1952.08	7526
1954.176	7601
1956.269	7417
1958.364	7521
1960.457	7472
1962.549	7561
1964.642	7345
1966.733	7487
1968.823	7572
1970.913	7436
1973.005	7428
1975.093	7441
1977.184	7455
1979.271	7497
1981.359	7492
1983.446	7476
1985.532	7334
1987.619	7436
1989.705	7436
1991.789	7497
1993.874	7509
1995.956	7333
1998.041	7429
2000.123	7407
2002.206	7347
2004.287	7457
2006.368	7499
2008.449	7333
2010.529	7384
2012.609	7372
2014.688	7539
2016.766	7462
2018.843	7573
2020.922	7416
2022.999	7483
2025.074	7283
2027.15	7426
2029.225	7400
2031.299	7349
2033.375	7392
2035.447	7411
2037.52	7514
2039.592	7436
2041.664	7404
2043.736	7372
2045.807	7487
2047.876	7320
2049.947	7431
2052.015	7445
2054.086	7516
2056.153	7374
2058.221	7496
2060.288	7508
2062.353	7449
2064.42	7306
2066.486	7370
2068.55	7524
2070.614	7429
2072.678	7338
2074.741	7430
2076.805	7387
2078.866	7427
2080.929	7422
2082.99	7517
2085.049	7461
2087.109	7368
2089.17	7458
2091.228	7521
2093.286	7401
2095.344	7368
2097.4	7471
2099.46	7465
2101.516	7455
2103.572	7414
2105.626	7474
2107.679	7419
2109.735	7455
2111.788	7425
2113.841	7272
2115.894	7347
2117.945	7322
2119.997	7382
2122.049	7243
2124.1	7361
2126.148	7378
2128.197	7417
2130.246	7339
2132.296	7338
2134.342	7410
2136.39	7253
2138.437	7320
2140.483	7439
2142.527	7439
2144.574	7301
2146.619	7328
2148.661	7387
2150.705	7245
2152.747	7353
2154.792	7293
2156.832	7362
2158.874	7394
2160.915	7453
2162.954	7417
2164.995	7295
2167.034	7438
2169.072	7334
2171.111	7315
2173.148	7319
2175.186	7295
2177.223	7272
2179.258	7322
2181.294	7423
2183.328	7205
2185.362	7239
2187.398	7274
2189.431	7303
2191.463	7193
2193.495	7200
2195.528	7212
2197.56	7211
2199.59	7091
2201.62	7152
2203.649	7215
2205.678	7279
2207.708	7138
2209.737	7281
2211.764	7175
2213.791	7286
2215.817	7237
2217.843	7110
2219.87	7177
2221.895	7184
2223.919	7261
2225.942	7116
2227.966	7175
2229.988	7088
2232.012	7117
2234.032	7230
2236.054	7187
2238.074	7130
2240.095	7168
2242.116	7116
2244.135	7190
2246.153	7164
2248.171	7100
2250.188	7261
2252.208	7123
2254.223	7239
2256.239	7090
2258.255	7144
2260.269	7113
2262.283	7288
2264.3	7246
2266.312	7157
2268.325	7171
2270.336	7184
2272.349	7281
2274.362	7100
2276.372	7194
2278.383	7114
2280.392	7078
2282.402	7167
2284.409	7123
2286.418	7250
2288.427	7164
2290.433	7046
2292.441	7103
2294.446	7096
2296.453	7125
2298.459	7163
2300.463	7110
2302.466	7256
2304.471	7102
2306.475	7067
2308.477	7207
2310.478	7049
2312.481	7203
2314.481	7146
2316.481	7124
2318.482	7131
2320.482	7082
2322.48	7196
2324.48	7112
2326.478	7154
2328.476	7060
2330.473	7032
2332.469	7090
2334.465	7012
2336.46	7041
2338.454	7012
2340.45	6903
2342.444	7050
2344.437	7021
2346.43	7173
2348.421	7020
2350.414	6976
2352.405	7064
2354.396	7034
2356.386	6956
2358.376	6883
2360.366	6950
2362.355	7018
2364.343	6884
2366.331	6977
2368.317	7037
2370.304	6853
2372.292	6954
2374.278	6998
2376.262	6951
2378.247	6857
2380.23	7001
2382.216	6989
2384.199	6908
2386.181	6921
2388.163	6842
2390.144	6985
2392.127	6921
2394.107	6918
2396.087	6900
2398.066	6866
2400.046	7004
2402.023	6893
2404.004	6934
2405.981	6844
2407.957	6851
2409.934	6905
2411.91	6820
2413.886	6872
2415.862	6959
2417.836	6749
2419.809	6906
2421.784	6946
2423.756	6995
2425.73	6877
2427.701	6908
2429.672	6942
2431.644	6920
2433.615	6862
2435.586	6808
2437.555	6882
2439.523	6866
2441.491	6886
2443.459	6943
2445.428	6895
2447.395	6764
2449.361	6977
2451.327	6882
2453.292	6777
2455.257	6661
2457.223	6890
2459.187	6937
2461.15	6832
2463.113	6736
2465.076	6910
2467.039	6891
2468.999	6825
2470.96	6710
2472.921	6980
2474.881	6871
2476.841	6853
2478.8	6760
2480.759	6691
2482.717	6857
2484.675	6859
2486.63	6703
2488.589	6809
2490.545	6754
2492.5	6682
2494.455	6761
2496.408	6787
2498.364	6811
2500.318	6762
2502.27	6777
2504.223	6810
2506.174	6777
2508.126	6770
2510.078	6773
2512.03	6746
2513.979	6817
2515.927	6669
2517.877	6724
2519.826	6649
2521.775	6727
2523.722	6638
2525.668	6768
2527.616	6655
2529.561	6682
2531.508	6742
2533.452	6771
2535.398	6770
2537.342	6639
2539.284	6691
2541.229	6716
2543.173	6631
2545.114	6640
2547.055	6652
2548.996	6743
2550.938	6629
2552.878	6580
2554.817	6738
2556.756	6771
2558.695	6653
2560.633	6640
2562.572	6676
2564.509	6786
2566.445	6712
2568.382	6668
2570.317	6677
2572.254	6658
2574.189	6720
2576.123	6654
2578.057	6751
2579.99	6605
2581.923	6748
2583.855	6724
2585.788	6729
2587.719	6784
2589.65	6691
2591.579	6876
2593.511	6749
2595.44	6712
2597.37	6609
2599.297	6600
2601.225	6748
2603.153	6575
2605.08	6646
2607.007	6599
2608.932	6634
2610.858	6649
2612.782	6681
2614.709	6754
2616.632	6685
2618.556	6639
2620.478	6688
2622.401	6732
2624.324	6703
2626.247	6592
2628.167	6665
2630.088	6738
2632.008	6798
2633.928	6724
2635.848	6717
2637.766	6816
2639.684	6637
2641.603	6650
2643.519	6655
2645.437	6708
2647.353	6663
2649.27	6690
2651.184	6695
2653.099	6622
2655.014	6690
2656.928	6603
2658.842	6721
2660.755	6577
2662.667	6658
2664.579	6620
2666.491	6685
2668.402	6583
2670.312	6654
2672.222	6539
2674.132	6578
2676.042	6748
2677.951	6566
2679.859	6645
2681.766	6558
2683.674	6627
2685.582	6555
2687.488	6740
2689.392	6561
2691.298	6548
2693.202	6629
2695.107	6600
2697.012	6521
2698.914	6607
2700.817	6450
2702.72	6745
2704.622	6517
2706.524	6675
2708.425	6597
2710.326	6476
2712.225	6495
2714.125	6548
2716.024	6427
2717.923	6506
2719.822	6564
2721.719	6472
2723.616	6379
2725.512	6627
2727.41	6393
2729.305	6391
2731.201	6502
2733.095	6348
2734.99	6633
2736.884	6480
2738.778	6467
2740.67	6523
2742.562	6396
2744.455	6416
2746.346	6482
2748.238	6491
2750.129	6494
2752.018	6587
2753.907	6556
2755.797	6486
2757.687	6436
2759.575	6417
2761.462	6450
2763.349	6432
2765.237	6406
2767.124	6482
2769.009	6422
2770.894	6329
2772.779	6432
2774.663	6442
2776.547	6473
2778.431	6369
2780.314	6322
2782.197	6473
2784.078	6425
2785.96	6358
2787.842	6408
2789.723	6372
2791.603	6498
2793.483	6496
2795.362	6387
2797.241	6337
2799.121	6372
2800.997	6341
2802.874	6314
2804.751	6377
2806.628	6361
2808.506	6366
2810.38	6393
2812.255	6399
2814.13	6373
2816.003	6434
2817.878	6316
2819.752	6349
2821.623	6350
2823.496	6383
2825.368	6316
2827.238	6392
2829.111	6424
2830.98	6403
2832.851	6360
2834.719	6493
2836.589	6464
2838.458	6346
2840.327	6419
2842.193	6484
2844.061	6265
2845.927	6321
2847.794	6291
2849.66	6443
2851.525	6435
2853.39	6424
2855.254	6461
2857.117	6332
2858.983	6460
2860.845	6442
2862.707	6456
2864.569	6579
2866.431	6537
2868.293	6519
2870.154	6564
2872.013	6600
2873.873	6547
2875.733	6675
2877.592	6705
2879.451	6824
2881.309	6853
2883.166	6844
2885.022	6832
2886.879	6806
2888.736	6766
2890.591	6901
2892.446	6946
2894.301	6997
2896.155	6926
2898.009	6892
2899.863	6887
2901.716	6880
2903.568	6929
2905.419	6780
2907.27	6804
2909.123	6946
2910.973	6946
2912.824	6906
2914.673	6918
2916.521	7074
2918.372	7089
2920.22	7160
2922.067	7171
2923.914	7191
2925.761	7137
2927.607	7210
2929.455	7263
2931.301	7287
2933.144	7418
2934.99	7333
2936.833	7386
2938.678	7596
2940.522	7572
2942.364	7654
2944.207	7674
2946.048	7631
2947.891	7827
2949.731	7686
2951.571	7912
2953.412	7759
2955.25	7701
2957.09	7472
2958.93	7457
2960.767	7511
2962.606	7318
2964.443	7423
2966.279	7244
2968.116	7175
2969.953	7155
2971.788	7042
2973.623	7051
2975.457	7030
2977.292	6947
2979.127	7050
2980.959	6896
2982.792	6848
2984.624	6962
2986.455	6790
2988.288	6936
2990.119	6761
2991.949	6792
2993.779	6736
2995.608	6716
2997.439	6719
2999.268	6603
3001.096	6643
3002.923	6447
3004.751	6520
3006.578	6502
3008.406	6410
3010.232	6350
3012.057	6252
3013.883	6280
3015.706	6273
3017.532	6224
3019.356	6179
3021.179	6273
3023.002	6180
3024.823	6182
3026.646	6106
3028.469	6098
3030.289	6112
3032.11	6173
3033.93	6135
3035.749	6039
3037.57	5985
3039.39	5906
3041.207	6063
3043.026	6041
3044.842	6064
3046.661	6038
3048.477	6077
3050.294	5974
3052.109	6007
3053.925	6030
3055.739	6009
3057.555	6050
3059.368	6081
3061.181	5928
3062.995	5886
3064.807	6002
3066.62	6015
3068.433	5965
3070.243	5969
3072.054	6048
3073.865	5937
3075.675	5948
3077.485	5999
3079.293	5930
3081.102	5920
3082.911	5919
3084.719	5953
3086.527	5907
3088.333	5853
3090.139	5851
3091.945	5689
3093.75	5835
3095.557	5943
3097.361	5823
3099.165	5895
3100.969	5797
3102.772	5856
3104.575	5839
3106.379	5749
3108.181	5794
3109.982	5812
3111.783	5794
3113.584	5726
3115.386	5670
3117.186	5828
3118.985	5769
3120.783	5715
3122.582	5655
3124.381	5881
3126.179	5681
3127.975	5792
3129.772	5645
3131.569	5764
3133.365	5732
3135.161	5615
3136.956	5646
3138.751	5729
3140.544	5602
3142.338	5678
3144.132	5697
3145.925	5635
3147.717	5611
3149.509	5694
3151.301	5703
3153.091	5612
3154.884	5585
3156.673	5625
3158.462	5702
3160.252	5694
3162.041	5609
3163.831	5649
3165.618	5662
3167.405	5661
3169.193	5587
3170.979	5612
3172.767	5617
3174.553	5637
3176.338	5553
3178.123	5642
3179.907	5644
3181.692	5610
3183.477	5620
3185.259	5480
3187.042	5574
3188.824	5525
3190.607	5514
3192.389	5572
3194.17	5459
3195.951	5551
3197.73	5602
3199.51	5548
3201.289	5525
3203.07	5505
3204.848	5499
3206.626	5536
3208.403	5583
3210.18	5564
3211.959	5579
3213.735	5604
3215.511	5488
3217.285	5503
3219.06	5529
3220.836	5552
3222.611	5518
3224.384	5619
3226.158	5457
3227.929	5421
3229.702	5515
3231.476	5484
3233.248	5588
3235.018	5453
3236.789	5523
3238.56	5505
3240.33	5479
3242.1	5509
3243.869	5519
3245.637	5451
3247.405	5511
3249.172	5582
3250.941	5423
3252.707	5558
3254.474	5534
3256.24	5427
3258.006	5490
3259.772	5588
3261.537	5534
3263.301	5537
3265.065	5476
3266.828	5428
3268.592	5510
3270.355	5549
3272.117	5528
3273.878	5484
3275.64	5613
3277.401	5504
3279.162	5508
3280.922	5457
3282.682	5539
3284.441	5510
3286.199	5501
3287.959	5449
3289.716	5409
3291.475	5548
3293.232	5479
3294.988	5511
3296.744	5440
3298.501	5387
3300.256	5438
3302.011	5534
3303.766	5451
3305.52	5432
3307.275	5417
3309.028	5435
3310.781	5494
3312.533	5536
3314.285	5551
3316.038	5517
3317.789	5509
3319.54	5433
3321.289	5423
3323.039	5524
3324.789	5489
3326.539	5355
3328.288	5382
3330.035	5433
3331.783	5413
3333.531	5443
3335.28	5478
3337.025	5421
3338.771	5351
3340.518	5470
3342.262	5432
3344.009	5456
3345.753	5344
3347.497	5414
3349.24	5366
3350.983	5504
3352.726	5388
3354.469	5392
3356.212	5402
3357.952	5392
3359.694	5409
3361.434	5298
3363.176	5399
3364.916	5305
3366.654	5285
3368.394	5174
3370.132	5338
3371.871	5215
3373.61	5318
3375.346	5384
3377.083	5352
3378.82	5305
3380.556	5255
3382.292	5301
3384.027	5194
3385.763	5184
3387.497	5300
3389.231	5319
3390.965	5252
3392.698	5207
3394.431	5208
3396.164	5156
3397.896	5400
3399.627	5212
3401.36	5046
3403.09	5217
3404.82	5320
3406.55	5264
3408.279	5188
3410.01	5104
3411.738	5220
3413.467	5185
3415.194	5179
3416.92	5109
3418.647	5239
3420.375	5222
3422.102	5159
3423.827	5099
3425.553	5148
3427.277	5194
3429.003	5156
3430.727	5127
3432.451	5054
3434.173	5145
3435.896	5130
3437.62	5170
3439.343	5157
3441.063	5201
3442.785	5068
3444.505	4993
3446.226	5190
3447.948	5144
3449.666	5015
3451.386	5121
3453.104	5082
3454.823	4962
3456.541	4976
3458.259	4951
3459.976	5027
3461.693	5051
3463.408	4957
3465.125	4998
3466.841	5020
3468.556	5068
3470.271	4989
3471.985	5019
3473.698	5035
3475.414	4969
3477.126	4902
3478.838	4961
3480.55	4954
3482.263	4966
3483.975	4863
3485.686	4913
3487.396	4965
3489.106	4836
3490.817	4901
3492.526	4886
3494.236	4904
3495.944	4946
3497.652	4839
3499.359	4911
3501.066	4917
3502.775	4845
3504.481	4843
3506.187	4934
3507.893	4855
3509.598	4707
3511.304	4865
3513.009	4790
3514.713	4841
3516.417	4748
3518.12	4856
3519.821	4829
3521.525	4789
3523.228	4864
3524.929	4820
3526.631	4776
3528.33	4794
3530.032	4870
3531.733	4777
3533.433	4763
3535.131	4687
3536.83	4745
3538.529	4750
3540.227	4740
3541.925	4790
3543.623	4702
3545.319	4697
3547.016	4683
3548.712	4695
3550.408	4697
3552.103	4735
3553.798	4692
3555.491	4656
3557.188	4669
3558.88	4632
3560.574	4666
3562.266	4752
3563.959	4699
3565.651	4551
3567.343	4697
3569.035	4621
3570.725	4676
3572.415	4695
3574.106	4602
3575.797	4557
3577.485	4643
3579.174	4618
3580.863	4639
3582.551	4590
3584.238	4527
3585.926	4534
3587.613	4519
3589.3	4559
3590.986	4571
3592.671	4591
3594.357	4424
3596.042	4576
3597.726	4533
3599.41	4498
3601.094	4519
3602.778	4499
3604.461	4428
3606.143	4454
3607.825	4490
3609.507	4435
3611.188	4484
3612.87	4543
3614.551	4476
3616.229	4503
3617.909	4402
3619.589	4478
3621.269	4427
3622.948	4371
3624.625	4393
3626.302	4418
3627.98	4457
3629.657	4357
3631.334	4340
3633.01	4374
3634.686	4420
3636.361	4287
3638.036	4379
3639.712	4271
3641.385	4300
3643.06	4338
3644.732	4350
3646.405	4349
3648.08	4399
3649.751	4316
3651.424	4217
3653.094	4272
3654.766	4307
3656.436	4353
3658.106	4342
3659.777	4341
3661.446	4362
3663.115	4360
3664.783	4251
3666.452	4232
3668.121	4259
3669.788	4300
3671.454	4276
3673.121	4310
3674.789	4230
3676.455	4265
3678.12	4266
3679.784	4233
3681.45	4241
3683.114	4225
3684.779	4241
3686.442	4231
3688.105	4137
3689.768	4215
3691.43	4170
3693.093	4176
3694.754	4233
3696.415	4141
3698.076	4299
3699.736	4209
3701.396	4190
3703.057	4239
3704.716	4089
3706.375	4163
3708.034	4298
3709.692	4081
3711.351	4102
3713.008	4324
3714.665	4221
3716.321	4167
3717.977	4148
3719.634	4096
3721.29	4095
3722.945	4108
3724.598	4148
3726.253	4129
3727.907	4112
3729.561	4051
3731.214	4113
3732.867	4119
3734.518	4128
3736.171	4084
3737.824	4065
3739.474	4077
3741.125	4138
3742.775	4131
3744.425	4075
3746.074	4021
3747.725	4092
3749.373	4076
3751.022	4137
3752.669	4056
3754.318	4009
3755.966	4091
3757.612	4083
3759.259	4053
3760.905	4063
3762.55	3988
3764.197	4063
3765.842	3997
3767.486	4004
3769.131	4026
3770.774	3926
3772.417	3952
3774.061	4036
3775.705	4041
3777.347	3982
3778.988	4048
3780.629	4088
3782.271	4053
3783.912	3895
3785.552	4007
3787.192	3949
3788.831	3995
3790.472	3895
3792.112	3947
3793.75	4039
3795.388	3939
3797.024	3909
3798.661	4009
3800.3	3888
3801.936	3873
3803.572	3967
3805.208	3991
3806.844	3942
3808.48	3937
3810.115	3967
3811.748	3956
3813.382	3923
3815.016	3841
3816.649	3880
3818.283	3881
3819.914	3853
3821.547	3901
3823.178	3942
3824.809	3835
3826.441	3890
3828.072	3791
3829.701	3869
3831.331	3918
3832.96	3848
3834.591	3843
3836.219	3810
3837.847	3844
3839.475	3901
3841.102	3759
3842.729	3821
3844.357	3805
3845.984	3853
3847.609	3773
3849.234	3825
3850.86	3864
3852.485	3825
3854.11	3789
3855.734	3875
3857.357	3718
3858.981	3804
3860.603	3824
3862.227	3786
3863.848	3721
3865.471	3779
3867.092	3713
3868.713	3835
3870.334	3703
3871.954	3755
3873.575	3818
3875.194	3761
3876.813	3749
3878.433	3751
3880.051	3757
3881.669	3788
3883.286	3757
3884.904	3751
3886.52	3727
3888.138	3741
3889.754	3679
3891.37	3800
3892.985	3739
3894.6	3738
3896.216	3698
3897.831	3759
3899.444	3749
3901.058	3709
3902.67	3748
3904.283	3712
3905.897	3651
3907.509	3663
3909.121	3745
3910.731	3701
3912.342	3726
3913.954	3725
3915.563	3709
3917.174	3675
3918.783	3733
3920.391	3648
3922.002	3679
3923.611	3677
3925.218	3677
3926.826	3682
3928.432	3656
3930.039	3738
3931.647	3657
3933.253	3655
3934.859	3666
3936.464	3634
3938.068	3653
3939.675	3679
3941.278	3612
3942.883	3708
3944.486	3610
3946.089	3667
3947.692	3555
3949.295	3608
3950.898	3620
3952.499	3655
3954.1	3631
3955.7	3589
3957.303	3647
3958.903	3556
3960.502	3612
3962.101	3622
3963.7	3654
3965.301	3610
3966.899	3657
3968.497	3561
3970.094	3627
3971.691	3583
3973.288	3591
3974.885	3576
3976.481	3617
3978.077	3546
3979.672	3557
3981.267	3575
3982.863	3602
3984.457	3508
3986.051	3552
3987.645	3546
3989.238	3577
3990.831	3530
3992.425	3541
3994.017	3554
3995.607	3425
3997.199	3521
3998.79	3478
4000.382	3477
4001.973	3493
4003.561	3469
4005.151	3432
4006.741	3506
4008.331	3497
4009.918	3397
4011.507	3433
4013.095	3516
4014.681	3370
4016.269	3480
4017.856	3471
4019.443	3356
4021.028	3447
4022.614	3415
4024.199	3419
4025.785	3429
4027.37	3355
4028.953	3434
4030.536	3369
4032.12	3400
4033.704	3385
4035.287	3361
4036.869	3424
4038.45	3326
4040.032	3414
4041.613	3310
4043.195	3393
4044.776	3406
4046.356	3394
4047.935	3386
4049.515	3305
4051.095	3337
4052.674	3319
4054.251	3333
4055.829	3266
4057.406	3323
4058.985	3218
4060.562	3297
4062.139	3310
4063.715	3287
4065.29	3333
4066.865	3358
4068.442	3213
4070.016	3340
4071.59	3288
4073.164	3307
4074.738	3258
4076.312	3265
4077.885	3337
4079.458	3301
4081.03	3264
4082.602	3300
4084.173	3260
4085.745	3256
4087.315	3219
4088.886	3335
4090.456	3248
4092.026	3269
4093.596	3259
4095.165	3311
4096.734	3296
4098.301	3334
4099.869	3312
4101.437	3250
4103.006	3276
4104.572	3213
4106.139	3211
4107.704	3228
4109.27	3245
4110.837	3266
4112.401	3255
4113.966	3215
4115.53	3178
4117.094	3247
4118.659	3207
4120.223	3232
4121.785	3161
4123.347	3255
4124.909	3184
4126.471	3197
4128.034	3187
4129.595	3183
4131.155	3222
4132.716	3068
4134.275	3159
4135.836	3226
4137.395	3134
4138.955	3199
4140.513	3204
4142.071	3124
4143.628	3127
4145.188	3108
4146.745	3178
4148.302	3117
4149.858	3047
4151.414	3106
4152.971	3117
4154.526	3093
4156.081	3088
4157.635	3124
4159.189	3107
4160.745	3211
4162.298	3104
4163.852	3114
4165.405	3026
4166.957	3013
4168.51	3067
4170.063	3136
4171.614	3076
4173.166	3087
4174.717	3065
4176.267	3103
4177.817	3063
4179.368	3015
4180.917	3080
4182.466	3130
4184.016	3063
4185.564	3039
4187.112	3046
4188.66	3006
4190.207	3084
4191.754	2963
4193.301	2900
4194.848	2970
4196.394	3014
4197.94	3007
4199.484	2979
4201.03	2982
4202.575	3022
4204.12	2931
4205.663	2963
4207.207	2949
4208.75	2913
4210.292	2943
4211.836	2997
4213.378	2987
4214.92	2956
4216.46	2963
4218.002	2947
4219.544	3016
4221.083	2924
4222.625	3023
4224.164	3012
4225.703	2968
4227.244	2902
4228.782	2850
4230.32	3006
4231.857	2959
4233.395	2938
4234.933	2988
4236.471	2926
4238.007	2926
4239.542	2867
4241.078	2962
4242.614	2917
4244.15	2931
4245.685	2901
4247.219	2823
4248.753	2919
4250.287	2894
4251.82	2909
4253.354	2855
4254.887	2933
4256.419	2890
4257.951	2872
4259.483	2941
4261.016	2881
4262.547	2877
4264.078	2959
4265.608	2902
4267.137	2902
4268.668	2837
4270.197	2875
4271.727	2845
4273.254	2876
4274.783	2978
4276.311	2836
4277.84	2875
4279.366	2932
4280.894	2891
4282.42	2875
4283.946	2870
4285.473	2886
4286.998	2858
4288.523	2833
4290.047	2831
4291.572	2840
4293.096	2808
4294.622	2802
4296.144	2836
4297.668	2743
4299.19	2811
4300.713	2821
4302.236	2819
4303.758	2817
4305.279	2754
4306.799	2774
4308.321	2825
4309.842	2853
4311.361	2818
4312.882	2843
4314.401	2757
