400.0961	7528
402.6185	7524
405.1424	7621
407.6635	7771
410.1838	7819
412.7035	7854
415.2225	7711
417.7388	7925
420.2585	8059
422.7754	8013
425.2917	7927
427.8072	8009
430.3221	8102
432.8363	8101
435.3498	8040
437.8626	8232
440.3727	8286
442.8841	8083
445.3969	8175
447.907	8254
450.4142	8018
452.9229	8156
455.4289	8089
457.9362	8283
460.4449	8197
462.9488	8381
465.454	8273
467.9566	8295
470.4604	8152
472.9637	8266
475.4662	8400
477.966	8325
480.4671	8308
482.9656	8302
485.4633	8328
487.9645	8533
490.4608	8307
492.9566	8562
495.4536	8508
497.948	8367
500.4437	8476
502.9387	8516
505.431	8570
507.9226	8698
510.4136	8536
512.9079	8626
515.3975	8690
517.8864	8661
520.3746	8679
522.8622	8597
525.3491	8676
527.8394	8666
530.3249	8637
532.8098	8646
535.2939	8648
537.7774	8683
540.2623	8587
542.7444	8689
545.2259	8650
547.7067	8610
550.1868	8777
552.6683	8590
555.147	8805
557.6231	8666
560.1005	8711
562.5773	8748
565.0534	8755
567.5308	8786
570.0056	8801
572.4776	8743
574.951	8844
577.4237	8886
579.8978	8913
582.3671	8833
584.8378	8878
587.3079	8878
589.7773	9021
592.244	9065
594.714	8945
597.1793	8994
599.6461	9060
602.1121	8909
604.5754	9161
607.0421	8956
609.5042	9108
611.9675	9069
614.4282	9031
616.8902	9075
619.3515	9004
621.8122	9065
624.2702	8938
626.7296	8949
629.1863	8970
631.6423	8965
634.1017	8982
636.5563	8957
639.0104	8889
641.4658	9057
643.9185	9070
646.3725	9097
648.8239	9182
651.2766	9088
653.7266	9062
656.176	9170
658.6247	9284
661.0748	9144
663.5242	9260
665.9709	9393
668.417	9175
670.8624	9384
673.3092	9262
675.7533	9270
678.1968	9326
680.6395	9427
683.0817	9261
685.5251	9344
687.9659	9174
690.4061	9400
692.8456	9411
695.2844	9401
697.7226	9403
700.1621	9469
702.599	9280
705.0332	9478
707.4688	9548
709.9036	9495
712.3399	9636
714.7735	9455
717.2044	9374
719.6367	9695
722.0683	9534
724.4993	9512
726.9296	9622
729.3593	9690
731.7883	9718
734.2147	9641
736.6423	9836
739.0714	9763
741.4958	9852
743.9216	9847
746.3447	9851
748.7691	9894
751.1929	9862
753.616	9949
756.0366	9930
758.4584	9933
760.8776	9978
763.2982	9969
765.718	9989
768.1373	9980
770.5539	10130
772.9698	10061
775.3871	10053
777.8038	10097
780.2178	9993
782.6332	9885
785.0459	9923
787.458	10177
789.8714	10131
792.2842	10251
794.6943	10169
797.1038	10052
799.5127	10120
801.9209	10269
804.3324	10159
806.7393	10193
809.1456	10061
811.5513	10282
813.9562	10268
816.3625	10291
818.7663	10127
821.1693	10313
823.5718	10256
825.9735	10217
828.3746	10174
830.7771	10109
833.177	10208
835.5762	10175
837.9747	10221
840.3727	10144
842.772	10380
845.1666	10350
847.5626	10324
849.958	10535
852.3527	10388
854.7488	10345
857.1403	10324
859.5331	10513
861.9253	10386
864.3168	10242
866.7057	10220
869.098	10253
871.4876	10283
873.8746	10323
876.263	10340
878.6487	10105
881.0378	10282
883.4243	10360
885.8081	10219
888.1933	10420
890.5759	10223
892.9598	10246
895.343	10300
897.7256	10374
900.1057	10317
902.4871	10445
904.8659	10373
907.246	10477
909.6254	10380
912.0023	10482
914.3786	10549
916.7562	10557
919.1331	10661
921.5074	10564
923.8831	10801
926.2562	10734
928.6287	10785
931.0005	10825
933.3757	10866
935.7462	10752
938.1162	10735
940.4855	10915
942.8542	10882
945.2242	11084
947.5916	11067
949.9584	11179
952.3266	11355
954.6921	11657
957.0571	11895
959.4233	11968
961.787	12073
964.15	12089
966.5125	11811
968.8742	11462
971.2354	11447
973.5959	11368
975.9559	10905
978.3151	10983
980.6738	10913
983.0338	10859
985.3912	10785
987.7461	10704
990.1022	10685
992.4578	10613
994.8127	10842
997.1689	10716
999.5207	10761
1001.874	10815
1004.226	10666
1006.576	10791
1008.929	10754
1011.28	10774
1013.628	10734
1015.977	10705
1018.324	10708
1020.674	10869
1023.019	10854
1025.366	10833
1027.713	10800
1030.056	10954
1032.399	10760
1034.746	10874
1037.087	10800
1039.431	10760
1041.771	10858
1044.113	10888
1046.454	10991
1048.793	10945
1051.133	10810
1053.471	10762
1055.807	10940
1058.146	10860
1060.483	10999
1062.818	10965
1065.153	11107
1067.489	10966
1069.822	11152
1072.156	11074
1074.488	11140
1076.82	11133
1079.15	10989
1081.48	11001
1083.814	11104
1086.143	11051
1088.471	11054
1090.799	10821
1093.126	10968
1095.452	11059
1097.78	10979
1100.105	11009
1102.43	11007
1104.754	11105
1107.077	11058
1109.4	10907
1111.722	11030
1114.044	11021
1116.365	11067
1118.685	11164
1121.005	11061
1123.324	11081
1125.643	11023
1127.961	11107
1130.278	11046
1132.595	11077
1134.911	11055
1137.226	11138
1139.541	11194
1141.854	11060
1144.167	11196
1146.482	11049
1148.793	11051
1151.105	11048
1153.414	11128
1155.725	11056
1158.033	11078
1160.344	11091
1162.651	11142
1164.959	11042
1167.265	11082
1169.572	11167
1171.878	11190
1174.184	11187
1176.488	11224
1178.79	11081
1181.094	11005
1183.396	11186
1185.699	11100
1188.001	11058
1190.301	11094
1192.6	11108
1194.9	11135
1197.2	11085
1199.497	11042
1201.794	11133
1204.09	11195
1206.387	11219
1208.684	11166
1210.978	10997
1213.272	11171
1215.565	11154
1217.858	11118
1220.15	11262
1222.443	11134
1224.734	11223
1227.024	11249
1229.313	11372
1231.602	11352
1233.892	11162
1236.18	11363
1238.467	11364
1240.754	11507
1243.04	11573
1245.325	11461
1247.612	11575
1249.896	11480
1252.178	11497
1254.461	11468
1256.743	11460
1259.027	11658
1261.308	11473
1263.587	11612
1265.867	11482
1268.146	11351
1270.425	11434
1272.703	11647
1274.981	11519
1277.256	11449
1279.532	11393
1281.808	11476
1284.083	11442
1286.358	11336
1288.63	11517
1290.904	11320
1293.175	11395
1295.449	11380
1297.719	11309
1299.99	11477
1302.259	11400
1304.529	11313
1306.798	11510
1309.065	11353
1311.333	11335
1313.599	11347
1315.866	11437
1318.131	11403
1320.396	11422
1322.66	11362
1324.925	11569
1327.187	11396
1329.448	11403
1331.711	11415
1333.974	11508
1336.234	11422
1338.493	11454
1340.752	11349
1343.01	11426
1345.269	11373
1347.526	11365
1349.784	11235
1352.04	11402
1354.295	11207
1356.552	11339
1358.806	11356
1361.059	11559
1363.312	11368
1365.564	11249
1367.818	11500
1370.069	11328
1372.318	11428
1374.568	11360
1376.817	11509
1379.066	11427
1381.316	11426
1383.564	11572
1385.809	11482
1388.056	11510
1390.301	11560
1392.549	11540
1394.793	11569
1397.036	11633
1399.279	11713
1401.522	11681
1403.763	11774
1406.007	11873
1408.248	11694
1410.487	11636
1412.727	11617
1414.965	11713
1417.205	11589
1419.442	11510
1421.68	11563
1423.915	11663
1426.152	11666
1428.388	11724
1430.623	11648
1432.857	11769
1435.091	11779
1437.323	11741
1439.556	11856
1441.789	11920
1444.019	11758
1446.25	11850
1448.48	11856
1450.708	11954
1452.938	12004
1455.167	11892
1457.394	12010
1459.62	11891
1461.846	11912
1464.073	11877
1466.299	11586
1468.523	11685
1470.746	11725
1472.969	11768
1475.191	11634
1477.415	11817
1479.636	11535
1481.858	11630
1484.078	11631
1486.298	11451
1488.518	11564
1490.736	11592
1492.954	11567
1495.169	11460
1497.386	11591
1499.602	11574
1501.819	11495
1504.034	11529
1506.248	11438
1508.462	11446
1510.675	11423
1512.888	11529
1515.1	11390
1517.311	11547
1519.522	11450
1521.732	11428
1523.942	11433
1526.151	11282
1528.36	11382
1530.566	11453
1532.773	11402
1534.98	11501
1537.187	11566
1539.392	11527
1541.596	11415
1543.801	11515
1546.005	11501
1548.208	11474
1550.411	11682
1552.612	11477
1554.814	11672
1557.013	11703
1559.212	11650
1561.414	11767
1563.612	11646
1565.811	11751
1568.007	11660
1570.203	11826
1572.403	11635
1574.598	11588
1576.792	11598
1578.988	11738
1581.181	11695
1583.376	11764
1585.568	12019
1587.761	11756
1589.952	11817
1592.143	11722
1594.333	11752
1596.524	11920
1598.715	11799
1600.903	11874
1603.091	11842
1605.278	12042
1607.466	11994
1609.652	11801
1611.838	11866
1614.023	11828
1616.207	11943
1618.391	11797
1620.576	11703
1622.759	11974
1624.941	11791
1627.123	11897
1629.304	11858
1631.484	11889
1633.664	11907
1635.844	11791
1638.022	11960
1640.201	11827
1642.38	11874
1644.556	11915
1646.732	11811
1648.908	11913
1651.084	11914
1653.257	11948
1655.433	11933
1657.607	12106
1659.779	12055
1661.951	11923
1664.122	12056
1666.295	12042
1668.467	11930
1670.635	12087
1672.805	11991
1674.973	11982
1677.142	11946
1679.31	11925
1681.478	12030
1683.644	12066
1685.81	11919
1687.975	11918
1690.142	11762
1692.305	11865
1694.468	11799
1696.632	11897
1698.794	11927
1700.957	11854
1703.119	11937
1705.279	11826
1707.439	11901
1709.598	11907
1711.758	11794
1713.917	11992
1716.075	11766
1718.231	11822
1720.388	11716
1722.543	11921
1724.702	11778
1726.856	11884
1729.01	11809
1731.164	11780
1733.317	11958
1735.471	11760
1737.623	11726
1739.774	11752
1741.925	11976
1744.075	11794
1746.225	11833
1748.376	11708
1750.524	11728
1752.672	11931
1754.82	11915
1756.965	11908
1759.113	11849
1761.259	12017
1763.405	11719
1765.549	11878
1767.694	11840
1769.836	12039
1771.981	11756
1774.123	12021
1776.264	11821
1778.405	12062
1780.546	11955
1782.687	11902
1784.827	11811
1786.966	11953
1789.103	11886
1791.242	12029
1793.381	11906
1795.517	11832
1797.653	11951
1799.788	11880
1801.923	11979
1804.057	12047
1806.193	12143
1808.326	11909
1810.457	11979
1812.59	11966
1814.721	11997
1816.855	11938
1818.984	11914
1821.113	11871
1823.244	11931
1825.372	12047
1827.499	11978
1829.63	11896
1831.756	11845
1833.882	11871
1836.007	11807
1838.132	11819
1840.26	11993
1842.384	11994
1844.507	11847
1846.63	12011
1848.752	11898
1850.875	11752
1852.996	11802
1855.118	11903
1857.238	11791
1859.358	11697
1861.477	11603
1863.597	11747
1865.715	11775
1867.832	11637
1869.948	11761
1872.064	11740
1874.181	11706
1876.297	11751
1878.411	11725
1880.526	11744
1882.639	11863
1884.752	11785
1886.865	12051
1888.977	11743
1891.089	11820
1893.2	11946
1895.308	11820
1897.42	11895
1899.53	11840
1901.639	12095
1903.745	11836
1905.853	11977
1907.962	11969
1910.067	11847
1912.174	11980
1914.278	12050
1916.383	11857
1918.486	11991
1920.592	12089
1922.694	11942
1924.797	12124
1926.898	12018
1929	12007
1931.102	12006
1933.203	12113
1935.301	11938
1937.401	12027
1939.499	12056
1941.598	12056
1943.697	11892
1945.793	11897
1947.888	12088
1949.985	12100
1952.08	11984
1954.176	11909
1956.269	11935
1958.364	11861
1960.457	11973
1962.549	11963
1964.642	11803
1966.733	11975
1968.823	12091
1970.913	12044
1973.005	11920
1975.093	12071
1977.184	12047
1979.271	12017
1981.359	11905
1983.446	11913
1985.532	11826
1987.619	11818
1989.705	11974
1991.789	11756
1993.874	11931
1995.956	11762
1998.041	11763
2000.123	11910
2002.206	11840
2004.287	11902
2006.368	11887
2008.449	11903
2010.529	11722
2012.609	11792
2014.688	11765
2016.766	11716
2018.843	11929
2020.922	11770
2022.999	11665
2025.074	11839
2027.15	11885
2029.225	11630
2031.299	11606
2033.375	11745
2035.447	11773
2037.52	11816
2039.592	11825
2041.664	11834
2043.736	11809
2045.807	11802
2047.876	11841
2049.947	11795
2052.015	11846
2054.086	11781
2056.153	11917
2058.221	11823
2060.288	11786
2062.353	11822
2064.42	11817
2066.486	11749
2068.55	11738
2070.614	11785
2072.678	11830
2074.741	11822
2076.805	11948
2078.866	11860
2080.929	11703
2082.99	11764
2085.049	11781
2087.109	11862
2089.17	11829
2091.228	11736
2093.286	11858
2095.344	11862
2097.4	11824
2099.46	11931
2101.516	11750
2103.572	11916
2105.626	11757
2107.679	11851
2109.735	11767
2111.788	11691
2113.841	11721
2115.894	11884
2117.945	11758
2119.997	11937
2122.049	11944
2124.1	11802
2126.148	11748
2128.197	11712
2130.246	11691
2132.296	11681
2134.342	11691
2136.39	11735
2138.437	11786
2140.483	11590
2142.527	11774
2144.574	11715
2146.619	11680
2148.661	11716
2150.705	11439
2152.747	11737
2154.792	11666
2156.832	11759
2158.874	11773
2160.915	11663
2162.954	11732
2164.995	11644
2167.034	11659
2169.072	11658
2171.111	11625
2173.148	11630
2175.186	11708
2177.223	11472
2179.258	11504
2181.294	11596
2183.328	11513
2185.362	11541
2187.398	11481
2189.431	11559
2191.463	11467
2193.495	11597
2195.528	11552
2197.56	11421
2199.59	11577
2201.62	11368
2203.649	11368
2205.678	11699
2207.708	11370
2209.737	11600
2211.764	11355
2213.791	11470
2215.817	11570
2217.843	11319
2219.87	11341
2221.895	11504
2223.919	11287
2225.942	11427
2227.966	11428
2229.988	11511
2232.012	11449
2234.032	11416
2236.054	11390
2238.074	11267
2240.095	11430
2242.116	11329
2244.135	11328
2246.153	11271
2248.171	11498
2250.188	11379
2252.208	11383
2254.223	11312
2256.239	11350
2258.255	11467
2260.269	11384
2262.283	11482
2264.3	11320
2266.312	11385
2268.325	11175
2270.336	11459
2272.349	11421
2274.362	11453
2276.372	11305
2278.383	11300
2280.392	11287
2282.402	11552
2284.409	11433
2286.418	11443
2288.427	11269
2290.433	11280
2292.441	11325
2294.446	11345
2296.453	11311
2298.459	11280
2300.463	11324
2302.466	11364
2304.471	11422
2306.475	11200
2308.477	11265
2310.478	11206
2312.481	11232
2314.481	11401
2316.481	11143
2318.482	11276
2320.482	11141
2322.48	11277
2324.48	11182
2326.478	11167
2328.476	11119
2330.473	11194
2332.469	11125
2334.465	11307
2336.46	11125
2338.454	11073
2340.45	11227
2342.444	11248
2344.437	11033
2346.43	11326
2348.421	11059
2350.414	11117
2352.405	11151
2354.396	11269
2356.386	11097
2358.376	10937
2360.366	11086
2362.355	10985
2364.343	11158
2366.331	11119
2368.317	11010
2370.304	11061
2372.292	11018
2374.278	11062
2376.262	10942
2378.247	10919
2380.23	11038
2382.216	10971
2384.199	11080
2386.181	11053
2388.163	11041
2390.144	10910
2392.127	10994
2394.107	10723
2396.087	10975
2398.066	10824
2400.046	11000
2402.023	10995
2404.004	11111
2405.981	10903
2407.957	10768
2409.934	10853
2411.91	10852
2413.886	10835
2415.862	10828
2417.836	10927
2419.809	10912
2421.784	10841
2423.756	10951
2425.73	10863
2427.701	10906
2429.672	10948
2431.644	10844
2433.615	10837
2435.586	10833
2437.555	10939
2439.523	10865
2441.491	10836
2443.459	10960
2445.428	10928
2447.395	10757
2449.361	10930
2451.327	10836
2453.292	10851
2455.257	10727
2457.223	10584
2459.187	10713
2461.15	10667
2463.113	10715
2465.076	10701
2467.039	10786
2468.999	10649
2470.96	10729
2472.921	10830
2474.881	10722
2476.841	10646
2478.8	10710
2480.759	10630
2482.717	10649
2484.675	10767
2486.63	10838
2488.589	10736
2490.545	10675
2492.5	10692
2494.455	10708
2496.408	10628
2498.364	10651
2500.318	10548
2502.27	10600
2504.223	10464
2506.174	10628
2508.126	10471
2510.078	10464
2512.03	10608
2513.979	10613
2515.927	10518
2517.877	10582
2519.826	10577
2521.775	10655
2523.722	10628
2525.668	10556
2527.616	10634
2529.561	10583
2531.508	10760
2533.452	10642
2535.398	10472
2537.342	10586
2539.284	10624
2541.229	10488
2543.173	10610
2545.114	10416
2547.055	10542
2548.996	10506
2550.938	10498
2552.878	10561
2554.817	10401
2556.756	10709
2558.695	10473
2560.633	10352
2562.572	10499
2564.509	10605
2566.445	10623
2568.382	10511
2570.317	10614
2572.254	10518
2574.189	10610
2576.123	10399
2578.057	10479
2579.99	10477
2581.923	10474
2583.855	10611
2585.788	10579
2587.719	10535
2589.65	10646
2591.579	10524
2593.511	10474
2595.44	10476
2597.37	10526
2599.297	10531
2601.225	10403
2603.153	10475
2605.08	10598
2607.007	10536
2608.932	10339
2610.858	10520
2612.782	10485
2614.709	10589
2616.632	10536
2618.556	10472
2620.478	10545
2622.401	10413
2624.324	10460
2626.247	10507
2628.167	10501
2630.088	10546
2632.008	10394
2633.928	10392
2635.848	10469
2637.766	10402
2639.684	10374
2641.603	10511
2643.519	10608
2645.437	10448
2647.353	10387
2649.27	10588
2651.184	10534
2653.099	10542
2655.014	10508
2656.928	10434
2658.842	10444
2660.755	10314
2662.667	10673
2664.579	10513
2666.491	10557
2668.402	10476
2670.312	10448
2672.222	10277
2674.132	10403
2676.042	10465
2677.951	10362
2679.859	10371
2681.766	10514
2683.674	10453
2685.582	10341
2687.488	10202
2689.392	10435
2691.298	10372
2693.202	10470
2695.107	10343
2697.012	10300
2698.914	10347
2700.817	10293
2702.72	10299
2704.622	10284
2706.524	10301
2708.425	10163
2710.326	10439
2712.225	10329
2714.125	10195
2716.024	10269
2717.923	10132
2719.822	10229
2721.719	10224
2723.616	10312
2725.512	10324
2727.41	10146
2729.305	10163
2731.201	10152
2733.095	10121
2734.99	10130
2736.884	10280
2738.778	10201
2740.67	10251
2742.562	10054
2744.455	10259
2746.346	10141
2748.238	10087
2750.129	10054
2752.018	10166
2753.907	10217
2755.797	10188
2757.687	10123
2759.575	10049
2761.462	10135
2763.349	10004
2765.237	10299
2767.124	10092
2769.009	10136
2770.894	10075
2772.779	9999
2774.663	10264
2776.547	10033
2778.431	10082
2780.314	10050
2782.197	10094
2784.078	10038
2785.96	9976
2787.842	10075
2789.723	10099
2791.603	10003
2793.483	10078
2795.362	10058
2797.241	10118
2799.121	10159
2800.997	9970
2802.874	9987
2804.751	9895
2806.628	10099
2808.506	10125
2810.38	10052
2812.255	9920
2814.13	9767
2816.003	9944
2817.878	9934
2819.752	10004
2821.623	9993
2823.496	9914
2825.368	9971
2827.238	9876
2829.111	9850
2830.98	10075
2832.851	9846
2834.719	9958
2836.589	10020
2838.458	9950
2840.327	9815
2842.193	9847
2844.061	9832
2845.927	9902
2847.794	9964
2849.66	9895
2851.525	9841
2853.39	9943
2855.254	9956
2857.117	9950
2858.983	9841
2860.845	9947
2862.707	9962
2864.569	9982
2866.431	10049
2868.293	9944
2870.154	9938
2872.013	10142
2873.873	10114
2875.733	10290
2877.592	10107
2879.451	10267
2881.309	10296
2883.166	10232
2885.022	10233
2886.879	10350
2888.736	10209
2890.591	10331
2892.446	10395
2894.301	10195
2896.155	10295
2898.009	10346
2899.863	10182
2901.716	10254
2903.568	10257
2905.419	10254
2907.27	10342
2909.123	10396
2910.973	10133
2912.824	10231
2914.673	10380
2916.521	10368
2918.372	10537
2920.22	10380
2922.067	10520
2923.914	10530
2925.761	10547
2927.607	10669
2929.455	10623
2931.301	10702
2933.144	10779
2934.99	10712
2936.833	10727
2938.678	10674
2940.522	10889
2942.364	10971
2944.207	10909
2946.048	10886
2947.891	11090
2949.731	11059
2951.571	10909
2953.412	10984
2955.25	10747
2957.09	10827
2958.93	10659
2960.767	10718
2962.606	10722
2964.443	10687
2966.279	10511
2968.116	10486
2969.953	10388
2971.788	10358
2973.623	10325
2975.457	10200
2977.292	10313
2979.127	10342
2980.959	10301
2982.792	10096
2984.624	10062
2986.455	10149
2988.288	10103
2990.119	10022
2991.949	9949
2993.779	9934
2995.608	9999
2997.439	9838
2999.268	9945
3001.096	9999
3002.923	9950
3004.751	9714
3006.578	9592
3008.406	9716
3010.232	9610
3012.057	9637
3013.883	9623
3015.706	9541
3017.532	9456
3019.356	9569
3021.179	9415
3023.002	9473
3024.823	9417
3026.646	9405
3028.469	9361
3030.289	9460
3032.11	9401
3033.93	9388
3035.749	9211
3037.57	9228
3039.39	9332
3041.207	9263
3043.026	9208
3044.842	9337
3046.661	9210
3048.477	9312
3050.294	9263
3052.109	9366
3053.925	9263
3055.739	9185
3057.555	9294
3059.368	9260
3061.181	9165
3062.995	9155
3064.807	9347
3066.62	9093
3068.433	9176
3070.243	9218
3072.054	9141
3073.865	9075
3075.675	9136
3077.485	9113
3079.293	9029
3081.102	9088
3082.911	8982
3084.719	9033
3086.527	9004
3088.333	8950
3090.139	9129
3091.945	8887
3093.75	9087
3095.557	8992
3097.361	9085
3099.165	8921
3100.969	9005
3102.772	8905
3104.575	8978
3106.379	8852
3108.181	8938
3109.982	8854
3111.783	8825
3113.584	8941
3115.386	8801
3117.186	8860
3118.985	8761
3120.783	8802
3122.582	8947
3124.381	8769
3126.179	8807
3127.975	8813
3129.772	8768
3131.569	8866
3133.365	8719
3135.161	8680
3136.956	8787
3138.751	8703
3140.544	8518
3142.338	8722
3144.132	8768
3145.925	8734
3147.717	8659
3149.509	8680
3151.301	8616
3153.091	8679
3154.884	8638
3156.673	8671
3158.462	8611
3160.252	8623
3162.041	8669
3163.831	8672
3165.618	8579
3167.405	8653
3169.193	8636
3170.979	8582
3172.767	8633
3174.553	8693
3176.338	8548
3178.123	8568
3179.907	8574
3181.692	8630
3183.477	8490
3185.259	8570
3187.042	8426
3188.824	8467
3190.607	8536
3192.389	8572
3194.17	8613
3195.951	8572
3197.73	8414
3199.51	8437
3201.289	8525
3203.07	8522
3204.848	8448
3206.626	8448
3208.403	8419
3210.18	8525
3211.959	8467
3213.735	8468
3215.511	8349
3217.285	8465
3219.06	8380
3220.836	8348
3222.611	8406
3224.384	8376
3226.158	8613
3227.929	8490
3229.702	8273
3231.476	8330
3233.248	8293
3235.018	8408
3236.789	8270
3238.56	8383
3240.33	8417
3242.1	8407
3243.869	8292
3245.637	8386
3247.405	8277
3249.172	8391
3250.941	8418
3252.707	8388
3254.474	8521
3256.24	8463
3258.006	8379
3259.772	8244
3261.537	8305
3263.301	8362
3265.065	8339
3266.828	8331
3268.592	8282
3270.355	8334
3272.117	8342
3273.878	8325
3275.64	8223
3277.401	8208
3279.162	8348
3280.922	8287
3282.682	8262
3284.441	8332
3286.199	8249
3287.959	8299
3289.716	8165
3291.475	8247
3293.232	8227
3294.988	8313
3296.744	8147
3298.501	8182
3300.256	8229
3302.011	8263
3303.766	8275
3305.52	8199
3307.275	8276
3309.028	8201
3310.781	8345
3312.533	8226
3314.285	8196
3316.038	8247
3317.789	8315
3319.54	8187
3321.289	8084
3323.039	8240
3324.789	8181
3326.539	8167
3328.288	8225
3330.035	8275
3331.783	8178
3333.531	8032
3335.28	8263
3337.025	8091
3338.771	8190
3340.518	8275
3342.262	8109
3344.009	8157
3345.753	8167
3347.497	8212
3349.24	8022
3350.983	8050
3352.726	8097
3354.469	8094
3356.212	8094
3357.952	8009
3359.694	8115
3361.434	7889
3363.176	8046
3364.916	7991
3366.654	7984
3368.394	7928
3370.132	8117
3371.871	7974
3373.61	7967
3375.346	8069
3377.083	7906
3378.82	7939
3380.556	8022
3382.292	7897
3384.027	7964
3385.763	7789
3387.497	7900
3389.231	7926
3390.965	7882
3392.698	8065
3394.431	7846
3396.164	7869
3397.896	7937
3399.627	7803
3401.36	7859
3403.09	7883
3404.82	7867
3406.55	7906
3408.279	7882
3410.01	7797
3411.738	7845
3413.467	7768
3415.194	7914
3416.92	7851
3418.647	7839
3420.375	7665
3422.102	7786
3423.827	7718
3425.553	7889
3427.277	7716
3429.003	7782
3430.727	7799
3432.451	7764
3434.173	7823
3435.896	7536
3437.62	7690
3439.343	7706
3441.063	7738
3442.785	7699
3444.505	7523
3446.226	7551
3447.948	7750
3449.666	7627
3451.386	7692
3453.104	7582
3454.823	7551
3456.541	7591
3458.259	7545
3459.976	7452
3461.693	7567
3463.408	7551
3465.125	7443
3466.841	7582
3468.556	7622
3470.271	7478
3471.985	7444
3473.698	7536
3475.414	7487
3477.126	7430
3478.838	7428
3480.55	7456
3482.263	7336
3483.975	7536
3485.686	7592
3487.396	7428
3489.106	7292
3490.817	7352
3492.526	7343
3494.236	7317
3495.944	7453
3497.652	7274
3499.359	7324
3501.066	7326
3502.775	7247
3504.481	7328
3506.187	7356
3507.893	7298
3509.598	7212
3511.304	7306
3513.009	7410
3514.713	7283
3516.417	7244
3518.12	7271
3519.821	7304
3521.525	7170
3523.228	7216
3524.929	7157
3526.631	7025
3528.33	7227
3530.032	7141
3531.733	7193
3533.433	7126
3535.131	7177
3536.83	7110
3538.529	7297
3540.227	7150
3541.925	7048
3543.623	7121
3545.319	7302
3547.016	7143
3548.712	7173
3550.408	7116
3552.103	7108
3553.798	7048
3555.491	7128
3557.188	7050
3558.88	7113
3560.574	7230
3562.266	7007
3563.959	7113
3565.651	7165
3567.343	7063
3569.035	6983
3570.725	7036
3572.415	7038
3574.106	7057
3575.797	7017
3577.485	7045
3579.174	6991
3580.863	7092
3582.551	7020
3584.238	6856
3585.926	6997
3587.613	6974
3589.3	6965
3590.986	7021
3592.671	6864
3594.357	6958
3596.042	6917
3597.726	6921
3599.41	6940
3601.094	6933
3602.778	6855
3604.461	6774
3606.143	6746
3607.825	6912
3609.507	6820
3611.188	6767
3612.87	6772
3614.551	6943
3616.229	6717
3617.909	6772
3619.589	6745
3621.269	6785
3622.948	6825
3624.625	6658
3626.302	6784
3627.98	6721
3629.657	6812
3631.334	6724
3633.01	6585
3634.686	6670
3636.361	6691
3638.036	6586
3639.712	6713
3641.385	6605
3643.06	6700
3644.732	6515
3646.405	6648
3648.08	6581
3649.751	6725
3651.424	6545
3653.094	6601
3654.766	6542
3656.436	6592
3658.106	6593
3659.777	6709
3661.446	6579
3663.115	6500
3664.783	6522
3666.452	6535
3668.121	6560
3669.788	6494
3671.454	6509
3673.121	6538
3674.789	6553
3676.455	6513
3678.12	6495
3679.784	6472
3681.45	6398
3683.114	6347
3684.779	6549
3686.442	6372
3688.105	6500
3689.768	6485
3691.43	6442
3693.093	6544
3694.754	6461
3696.415	6541
3698.076	6349
3699.736	6518
3701.396	6402
3703.057	6427
3704.716	6537
3706.375	6434
3708.034	6440
3709.692	6352
3711.351	6457
3713.008	6347
3714.665	6395
3716.321	6357
3717.977	6263
3719.634	6365
3721.29	6306
3722.945	6345
3724.598	6417
3726.253	6375
3727.907	6327
3729.561	6332
3731.214	6368
3732.867	6305
3734.518	6329
3736.171	6345
3737.824	6322
3739.474	6258
3741.125	6280
3742.775	6259
3744.425	6222
3746.074	6307
3747.725	6194
3749.373	6207
3751.022	6340
3752.669	6171
3754.318	6224
3755.966	6316
3757.612	6324
3759.259	6164
3760.905	6171
3762.55	6210
3764.197	6133
3765.842	6146
3767.486	6156
3769.131	6135
3770.774	6202
3772.417	6098
3774.061	6170
3775.705	6145
3777.347	6167
3778.988	6181
3780.629	6231
3782.271	6093
3783.912	6098
3785.552	6110
3787.192	6033
3788.831	6107
3790.472	6080
3792.112	6056
3793.75	6067
3795.388	6092
3797.024	5957
3798.661	6148
3800.3	5974
3801.936	6052
3803.572	6023
3805.208	6004
3806.844	6000
3808.48	6005
3810.115	6041
3811.748	6012
3813.382	5955
3815.016	5988
3816.649	5999
3818.283	6062
3819.914	6002
3821.547	5881
3823.178	5978
3824.809	5919
3826.441	5986
3828.072	5975
3829.701	5980
3831.331	5904
3832.96	5966
3834.591	5891
3836.219	5879
3837.847	5970
3839.475	5884
3841.102	5974
3842.729	5802
3844.357	5911
3845.984	5865
3847.609	5930
3849.234	5774
3850.86	5815
3852.485	5786
3854.11	5829
3855.734	5809
3857.357	5839
3858.981	5684
3860.603	5857
3862.227	5848
3863.848	5763
3865.471	5821
3867.092	5720
3868.713	5702
3870.334	5806
3871.954	5799
3873.575	5783
3875.194	5678
3876.813	5803
3878.433	5737
3880.051	5733
3881.669	5652
3883.286	5741
3884.904	5708
3886.52	5690
3888.138	5713
3889.754	5673
3891.37	5615
3892.985	5693
3894.6	5775
3896.216	5755
3897.831	5612
3899.444	5667
3901.058	5743
3902.67	5640
3904.283	5698
3905.897	5699
3907.509	5626
3909.121	5688
3910.731	5678
3912.342	5707
3913.954	5706
3915.563	5590
3917.174	5582
3918.783	5610
3920.391	5609
3922.002	5494
3923.611	5620
3925.218	5593
3926.826	5602
3928.432	5620
3930.039	5561
3931.647	5664
3933.253	5576
3934.859	5558
3936.464	5499
3938.068	5608
3939.675	5525
3941.278	5591
3942.883	5570
3944.486	5572
3946.089	5595
3947.692	5402
3949.295	5622
3950.898	5492
3952.499	5550
3954.1	5489
3955.7	5351
3957.303	5467
3958.903	5561
3960.502	5430
3962.101	5506
3963.7	5368
3965.301	5518
3966.899	5514
3968.497	5410
3970.094	5435
3971.691	5381
3973.288	5401
3974.885	5412
3976.481	5416
3978.077	5451
3979.672	5367
3981.267	5347
3982.863	5380
3984.457	5338
3986.051	5384
3987.645	5288
3989.238	5343
3990.831	5476
3992.425	5436
3994.017	5250
3995.607	5389
3997.199	5330
3998.79	5363
4000.382	5205
4001.973	5283
4003.561	5319
4005.151	5221
4006.741	5261
4008.331	5230
4009.918	5211
4011.507	5310
4013.095	5373
4014.681	5215
4016.269	5256
4017.856	5101
4019.443	5225
4021.028	5082
4022.614	5291
4024.199	5232
4025.785	5184
4027.37	5088
4028.953	5208
4030.536	5217
4032.12	5041
4033.704	5211
4035.287	5115
4036.869	5168
4038.45	5281
4040.032	5016
4041.613	5071
4043.195	5095
4044.776	5042
4046.356	5146
4047.935	5060
4049.515	5041
4051.095	5001
4052.674	5037
4054.251	5102
4055.829	5055
4057.406	5024
4058.985	5063
4060.562	5107
4062.139	5038
4063.715	5008
4065.29	5025
4066.865	4998
4068.442	5037
4070.016	4987
4071.59	5097
4073.164	4947
4074.738	4937
4076.312	5060
4077.885	4901
4079.458	5001
4081.03	4975
4082.602	4972
4084.173	4948
4085.745	5033
4087.315	4951
4088.886	4897
4090.456	5015
4092.026	4901
4093.596	4924
4095.165	4907
4096.734	5005
4098.301	4946
4099.869	4975
4101.437	5006
4103.006	4869
4104.572	4964
4106.139	4858
4107.704	4815
4109.27	4921
4110.837	4884
4112.401	4874
4113.966	4834
4115.53	4775
4117.094	4847
4118.659	4832
4120.223	4881
4121.785	4856
4123.347	4780
4124.909	4792
4126.471	4834
4128.034	4803
4129.595	4841
4131.155	4804
4132.716	4846
4134.275	4863
4135.836	4727
4137.395	4692
4138.955	4677
4140.513	4713
4142.071	4663
4143.628	4706
4145.188	4769
4146.745	4634
4148.302	4685
4149.858	4581
4151.414	4720
4152.971	4729
4154.526	4670
4156.081	4626
4157.635	4600
4159.189	4673
4160.745	4743
4162.298	4677
4163.852	4602
4165.405	4705
4166.957	4623
4168.51	4728
4170.063	4698
4171.614	4579
4173.166	4708
4174.717	4641
4176.267	4584
4177.817	4666
4179.368	4587
4180.917	4557
4182.466	4552
4184.016	4592
4185.564	4614
4187.112	4556
4188.66	4524
4190.207	4498
4191.754	4523
4193.301	4551
4194.848	4608
4196.394	4496
4197.94	4520
4199.484	4466
4201.03	4553
4202.575	4496
4204.12	4572
4205.663	4433
4207.207	4396
4208.75	4504
4210.292	4483
4211.836	4525
4213.378	4580
4214.92	4458
4216.46	4530
4218.002	4485
4219.544	4454
4221.083	4492
4222.625	4430
4224.164	4391
4225.703	4314
4227.244	4481
4228.782	4460
4230.32	4506
4231.857	4396
4233.395	4399
4234.933	4414
4236.471	4425
4238.007	4374
4239.542	4343
4241.078	4444
4242.614	4446
4244.15	4383
4245.685	4351
4247.219	4423
4248.753	4370
4250.287	4407
4251.82	4333
4253.354	4344
4254.887	4362
4256.419	4312
4257.951	4383
4259.483	4346
4261.016	4314
4262.547	4437
4264.078	4330
4265.608	4325
4267.137	4321
4268.668	4423
4270.197	4356
4271.727	4253
4273.254	4243
4274.783	4278
4276.311	4305
4277.84	4370
4279.366	4373
4280.894	4382
4282.42	4341
4283.946	4327
4285.473	4301
4286.998	4247
4288.523	4323
4290.047	4353
4291.572	4203
4293.096	4178
4294.622	4295
4296.144	4196
4297.668	4194
4299.19	4263
4300.713	4130
4302.236	4152
4303.758	4188
4305.279	4203
4306.799	4172
4308.321	4164
4309.842	4155
4311.361	4208
4312.882	4227
4314.401	4125
