400.0961	4776
402.6185	4749
405.1424	4789
407.6635	4851
410.1838	4896
412.7035	4858
415.2225	4894
417.7388	4924
420.2585	4935
422.7754	5042
425.2917	5157
427.8072	5018
430.3221	5207
432.8363	5191
435.3498	5136
437.8626	5084
440.3727	5160
442.8841	5087
445.3969	5204
447.907	5149
450.4142	5098
452.9229	5085
455.4289	5127
457.9362	5196
460.4449	5148
462.9488	5017
465.454	5057
467.9566	5119
470.4604	5232
472.9637	5062
475.4662	5002
477.966	5089
480.4671	5134
482.9656	5087
485.4633	5092
487.9645	5207
490.4608	5049
492.9566	5194
495.4536	5125
497.948	5240
500.4437	5170
502.9387	5127
505.431	5276
507.9226	5205
510.4136	5080
512.9079	5214
515.3975	5297
517.8864	5245
520.3746	5279
522.8622	5267
525.3491	5278
527.8394	5271
530.3249	5348
532.8098	5276
535.2939	5355
537.7774	5290
540.2623	5218
542.7444	5314
545.2259	5265
547.7067	5371
550.1868	5296
552.6683	5326
555.147	5407
557.6231	5292
560.1005	5311
562.5773	5292
565.0534	5416
567.5308	5336
570.0056	5383
572.4776	5481
574.951	5549
577.4237	5516
579.8978	5572
582.3671	5505
584.8378	5546
587.3079	5504
589.7773	5640
592.244	5708
594.714	5540
597.1793	5561
599.6461	5510
602.1121	5488
604.5754	5504
607.0421	5478
609.5042	5488
611.9675	5503
614.4282	5491
616.8902	5508
619.3515	5473
621.8122	5402
624.2702	5440
626.7296	5432
629.1863	5475
631.6423	5404
634.1017	5501
636.5563	5457
639.0104	5470
641.4658	5377
643.9185	5470
646.3725	5446
648.8239	5562
651.2766	5505
653.7266	5565
656.176	5481
658.6247	5555
661.0748	5545
663.5242	5517
665.9709	5612
668.417	5677
670.8624	5698
673.3092	5742
675.7533	5622
678.1968	5704
680.6395	5580
683.0817	5668
685.5251	5634
687.9659	5606
690.4061	5605
692.8456	5644
695.2844	5722
697.7226	5630
700.1621	5735
702.599	5686
705.0332	5775
707.4688	5721
709.9036	5768
712.3399	5772
714.7735	5750
717.2044	5711
719.6367	5819
722.0683	5780
724.4993	5765
726.9296	5796
729.3593	5758
731.7883	5882
734.2147	5867
736.6423	5871
739.0714	5863
741.4958	5882
743.9216	5999
746.3447	5814
748.7691	5940
751.1929	5983
753.616	5982
756.0366	6014
758.4584	6029
760.8776	6015
763.2982	6052
765.718	6035
768.1373	6030
770.5539	5985
772.9698	6097
775.3871	6169
777.8038	6079
780.2178	6079
782.6332	6073
785.0459	6141
787.458	6217
789.8714	6105
792.2842	6035
794.6943	5956
797.1038	6100
799.5127	5992
801.9209	5996
804.3324	6092
806.7393	6212
809.1456	6086
811.5513	6060
813.9562	6148
816.3625	6310
818.7663	6128
821.1693	6173
823.5718	6083
825.9735	6240
828.3746	6105
830.7771	6087
833.177	6231
835.5762	6237
837.9747	6195
840.3727	6150
842.772	6251
845.1666	6204
847.5626	6280
849.958	6332
852.3527	6417
854.7488	6355
857.1403	6496
859.5331	6465
861.9253	6276
864.3168	6470
866.7057	6363
869.098	6424
871.4876	6296
873.8746	6296
876.263	6377
878.6487	6284
881.0378	6301
883.4243	6300
885.8081	6349
888.1933	6293
890.5759	6294
892.9598	6221
895.343	6293
897.7256	6339
900.1057	6303
902.4871	6367
904.8659	6494
907.246	6460
909.6254	6429
912.0023	6522
914.3786	6582
916.7562	6602
919.1331	6730
921.5074	6803
923.8831	6786
926.2562	6870
928.6287	6887
931.0005	6727
933.3757	6708
935.7462	6917
938.1162	6840
940.4855	6846
942.8542	6960
945.2242	6950
947.5916	7129
949.9584	7398
952.3266	7561
954.6921	7864
957.0571	8274
959.4233	8733
961.787	8821
964.15	8669
966.5125	8487
968.8742	8100
971.2354	7656
973.5959	7488
975.9559	7100
978.3151	6859
980.6738	6789
983.0338	6783
985.3912	6648
987.7461	6739
990.1022	6569
992.4578	6586
994.8127	6605
997.1689	6533
999.5207	6596
1001.874	6672
1004.226	6660
1006.576	6637
1008.929	6693
1011.28	6642
1013.628	6575
1015.977	6665
1018.324	6618
1020.674	6571
1023.019	6656
1025.366	6657
1027.713	6766
1030.056	6704
1032.399	6707
1034.746	6730
1037.087	6805
1039.431	6696
1041.771	6831
1044.113	6761
1046.454	6713
1048.793	6879
1051.133	6728
1053.471	6696
1055.807	6782
1058.146	6679
1060.483	6856
1062.818	6867
1065.153	6929
1067.489	6817
1069.822	6857
1072.156	6849
1074.488	7022
1076.82	6899
1079.15	6932
1081.48	6848
1083.814	6976
1086.143	6907
1088.471	6711
1090.799	6755
1093.126	6774
1095.452	6692
1097.78	6637
1100.105	6754
1102.43	6738
1104.754	6722
1107.077	6722
1109.4	6756
1111.722	6759
1114.044	6750
1116.365	6662
1118.685	6781
1121.005	6700
1123.324	6729
1125.643	6657
1127.961	6789
1130.278	6781
1132.595	6737
1134.911	6832
1137.226	6774
1139.541	6742
1141.854	6669
1144.167	6748
1146.482	6841
1148.793	6602
1151.105	6733
1153.414	6746
1155.725	6667
1158.033	6733
1160.344	6760
1162.651	6763
1164.959	6685
1167.265	6717
1169.572	6756
1171.878	6666
1174.184	6831
1176.488	6703
1178.79	6673
1181.094	6756
1183.396	6793
1185.699	6867
1188.001	6802
1190.301	6853
1192.6	6768
1194.9	6807
1197.2	6858
1199.497	6722
1201.794	6836
1204.09	6797
1206.387	6690
1208.684	6740
1210.978	6815
1213.272	6828
1215.565	6771
1217.858	6763
1220.15	6844
1222.443	6786
1224.734	6766
1227.024	6917
1229.313	6852
1231.602	7028
1233.892	6990
1236.18	7015
1238.467	7049
1240.754	7085
1243.04	7030
1245.325	7007
1247.612	7055
1249.896	7103
1252.178	7163
1254.461	7239
1256.743	7105
1259.027	7106
1261.308	7110
1263.587	7074
1265.867	7013
1268.146	7136
1270.425	7128
1272.703	7119
1274.981	7191
1277.256	7028
1279.532	7108
1281.808	6998
1284.083	7055
1286.358	7038
1288.63	7010
1290.904	7149
1293.175	7001
1295.449	7028
1297.719	7011
1299.99	6955
1302.259	6848
1304.529	6921
1306.798	7025
1309.065	6946
1311.333	7004
1313.599	6959
1315.866	6988
1318.131	7004
1320.396	6974
1322.66	7007
1324.925	7039
1327.187	6982
1329.448	7055
1331.711	7142
1333.974	7139
1336.234	7045
1338.493	7108
1340.752	6989
1343.01	6865
1345.269	6911
1347.526	6957
1349.784	6984
1352.04	6943
1354.295	6966
1356.552	7068
1358.806	7008
1361.059	6971
1363.312	6967
1365.564	6967
1367.818	6913
1370.069	7116
1372.318	6955
1374.568	6999
1376.817	7097
1379.066	6918
1381.316	7090
1383.564	7132
1385.809	7107
1388.056	7182
1390.301	7175
1392.549	7151
1394.793	7217
1397.036	7190
1399.279	7377
1401.522	7292
1403.763	7398
1406.007	7222
1408.248	7348
1410.487	7353
1412.727	7379
1414.965	7410
1417.205	7343
1419.442	7300
1421.68	7345
1423.915	7399
1426.152	7427
1428.388	7243
1430.623	7248
1432.857	7345
1435.091	7233
1437.323	7289
1439.556	7320
1441.789	7473
1444.019	7375
1446.25	7501
1448.48	7386
1450.708	7486
1452.938	7520
1455.167	7490
1457.394	7536
1459.62	7537
1461.846	7447
1464.073	7495
1466.299	7563
1468.523	7315
1470.746	7361
1472.969	7268
1475.191	7245
1477.415	7134
1479.636	7223
1481.858	7060
1484.078	7148
1486.298	7070
1488.518	7012
1490.736	7048
1492.954	6972
1495.169	7017
1497.386	7056
1499.602	6961
1501.819	6921
1504.034	6870
1506.248	6869
1508.462	7033
1510.675	6999
1512.888	6895
1515.1	6922
1517.311	6902
1519.522	7099
1521.732	7025
1523.942	6969
1526.151	6861
1528.36	6976
1530.566	6902
1532.773	6889
1534.98	6938
1537.187	7033
1539.392	6869
1541.596	6945
1543.801	6992
1546.005	7126
1548.208	6872
1550.411	7083
1552.612	7025
1554.814	7032
1557.013	7105
1559.212	6982
1561.414	7078
1563.612	7135
1565.811	7015
1568.007	7156
1570.203	7150
1572.403	7062
1574.598	7134
1576.792	7176
1578.988	7160
1581.181	7184
1583.376	7155
1585.568	7090
1587.761	7193
1589.952	7281
1592.143	7263
1594.333	7183
1596.524	7266
1598.715	7156
1600.903	7114
1603.091	7432
1605.278	7362
1607.466	7306
1609.652	7212
1611.838	7163
1614.023	7286
1616.207	7231
1618.391	7321
1620.576	7132
1622.759	7302
1624.941	7335
1627.123	7269
1629.304	7383
1631.484	7266
1633.664	7339
1635.844	7322
1638.022	7348
1640.201	7259
1642.38	7308
1644.556	7355
1646.732	7312
1648.908	7524
1651.084	7384
1653.257	7490
1655.433	7379
1657.607	7505
1659.779	7547
1661.951	7363
1664.122	7435
1666.295	7417
1668.467	7595
1670.635	7404
1672.805	7412
1674.973	7485
1677.142	7465
1679.31	7522
1681.478	7306
1683.644	7344
1685.81	7401
1687.975	7463
1690.142	7346
1692.305	7419
1694.468	7375
1696.632	7200
1698.794	7327
1700.957	7230
1703.119	7320
1705.279	7134
1707.439	7122
1709.598	7239
1711.758	7265
1713.917	7221
1716.075	7229
1718.231	7245
1720.388	7198
1722.543	7196
1724.702	7077
1726.856	7202
1729.01	7022
1731.164	7104
1733.317	7151
1735.471	7100
1737.623	7126
1739.774	7177
1741.925	7169
1744.075	7171
1746.225	7182
1748.376	7146
1750.524	7166
1752.672	7198
1754.82	7145
1756.965	7188
1759.113	7136
1761.259	7018
1763.405	7192
1765.549	7224
1767.694	7299
1769.836	7266
1771.981	7122
1774.123	7121
1776.264	7235
1778.405	7203
1780.546	7243
1782.687	7279
1784.827	7270
1786.966	7214
1789.103	7262
1791.242	7284
1793.381	7214
1795.517	7291
1797.653	7200
1799.788	7236
1801.923	7278
1804.057	7135
1806.193	7260
1808.326	7277
1810.457	7167
1812.59	7095
1814.721	7222
1816.855	7258
1818.984	7173
1821.113	7192
1823.244	7205
1825.372	7162
1827.499	7277
1829.63	7257
1831.756	7120
1833.882	7194
1836.007	7215
1838.132	7154
1840.26	7066
1842.384	7139
1844.507	7148
1846.63	7141
1848.752	7209
1850.875	7147
1852.996	7258
1855.118	7057
1857.238	7137
1859.358	7147
1861.477	7120
1863.597	7109
1865.715	7105
1867.832	7217
1869.948	7125
1872.064	7140
1874.181	7264
1876.297	7208
1878.411	7153
1880.526	7135
1882.639	7142
1884.752	7173
1886.865	7237
1888.977	7285
1891.089	7184
1893.2	7129
1895.308	7179
1897.42	7113
1899.53	7186
1901.639	7211
1903.745	7241
1905.853	7218
1907.962	7213
1910.067	7118
1912.174	7214
1914.278	7187
1916.383	7325
1918.486	7344
1920.592	7212
1922.694	7240
1924.797	7226
1926.898	7319
1929	7346
1931.102	7237
1933.203	7327
1935.301	7192
1937.401	7297
1939.499	7228
1941.598	7322
1943.697	7304
1945.793	7218
1947.888	7269
1949.985	7348
1952.08	7242
1954.176	7181
1956.269	7403
1958.364	7290
1960.457	7458
1962.549	7293
1964.642	7238
1966.733	7308
1968.823	7342
1970.913	7256
1973.005	7137
1975.093	7157
1977.184	7204
1979.271	7227
1981.359	7143
1983.446	7163
1985.532	7158
1987.619	7270
1989.705	7230
1991.789	7034
1993.874	7187
1995.956	7144
1998.041	7337
2000.123	7210
2002.206	7278
2004.287	7259
2006.368	7211
2008.449	7250
2010.529	7207
2012.609	7201
2014.688	7161
2016.766	7175
2018.843	7210
2020.922	7126
2022.999	7222
2025.074	7239
2027.15	7074
2029.225	7146
2031.299	7276
2033.375	7111
2035.447	7195
2037.52	7116
2039.592	7244
2041.664	7147
2043.736	7161
2045.807	7212
2047.876	7176
2049.947	7280
2052.015	7158
2054.086	7195
2056.153	7191
2058.221	7253
2060.288	7228
2062.353	7188
2064.42	7162
2066.486	7134
2068.55	7274
2070.614	7210
2072.678	7149
2074.741	7181
2076.805	7121
2078.866	7125
2080.929	7194
2082.99	7269
2085.049	7299
2087.109	7251
2089.17	7171
2091.228	7151
2093.286	7090
2095.344	7261
2097.4	7173
2099.46	7188
2101.516	7209
2103.572	7168
2105.626	7273
2107.679	7222
2109.735	7144
2111.788	7089
2113.841	7281
2115.894	7109
2117.945	7204
2119.997	7221
2122.049	7224
2124.1	7157
2126.148	7197
2128.197	7227
2130.246	7115
2132.296	7059
2134.342	7244
2136.39	7117
2138.437	7154
2140.483	7116
2142.527	7187
2144.574	7147
2146.619	7186
2148.661	7134
2150.705	7125
2152.747	7193
2154.792	7083
2156.832	7153
2158.874	7029
2160.915	7082
2162.954	7110
2164.995	7101
2167.034	7055
2169.072	7073
2171.111	6992
2173.148	7110
2175.186	7236
2177.223	7175
2179.258	7056
2181.294	7226
2183.328	7115
2185.362	7085
2187.398	6999
2189.431	7114
2191.463	7021
2193.495	7194
2195.528	7159
2197.56	7005
2199.59	6885
2201.62	7017
2203.649	6982
2205.678	6950
2207.708	7038
2209.737	7066
2211.764	6931
2213.791	6963
2215.817	6977
2217.843	6931
2219.87	7086
2221.895	6876
2223.919	6970
2225.942	7112
2227.966	6985
2229.988	6978
2232.012	6887
2234.032	7029
2236.054	6861
2238.074	6812
2240.095	7024
2242.116	6892
2244.135	6954
2246.153	7021
2248.171	6993
2250.188	7032
2252.208	6941
2254.223	7019
2256.239	6954
2258.255	6973
2260.269	6924
2262.283	6993
2264.3	6947
2266.312	7084
2268.325	7027
2270.336	6981
2272.349	7081
2274.362	6935
2276.372	6967
2278.383	7063
2280.392	6954
2282.402	6989
2284.409	6954
2286.418	6928
2288.427	7073
2290.433	7018
2292.441	6928
2294.446	6892
2296.453	7001
2298.459	7051
2300.463	6916
2302.466	7029
2304.471	6850
2306.475	7049
2308.477	6926
2310.478	6871
2312.481	6983
2314.481	6907
2316.481	6855
2318.482	6939
2320.482	6981
2322.48	6962
2324.48	6919
2326.478	6856
2328.476	6917
2330.473	6838
2332.469	6878
2334.465	6796
2336.46	6884
2338.454	6809
2340.45	6954
2342.444	6748
2344.437	6890
2346.43	6830
2348.421	6776
2350.414	6947
2352.405	6810
2354.396	6845
2356.386	6795
2358.376	6802
2360.366	6799
2362.355	6770
2364.343	6798
2366.331	6802
2368.317	6712
2370.304	6819
2372.292	6786
2374.278	6766
2376.262	6737
2378.247	6774
2380.23	6679
2382.216	6730
2384.199	6711
2386.181	6696
2388.163	6808
2390.144	6693
2392.127	6782
2394.107	6807
2396.087	6645
2398.066	6743
2400.046	6699
2402.023	6665
2404.004	6809
2405.981	6734
2407.957	6612
2409.934	6578
2411.91	6713
2413.886	6668
2415.862	6651
2417.836	6639
2419.809	6628
2421.784	6696
2423.756	6640
2425.73	6631
2427.701	6666
2429.672	6702
2431.644	6695
2433.615	6708
2435.586	6652
2437.555	6832
2439.523	6693
2441.491	6653
2443.459	6670
2445.428	6688
2447.395	6630
2449.361	6770
2451.327	6514
2453.292	6514
2455.257	6683
2457.223	6735
2459.187	6789
2461.15	6640
2463.113	6763
2465.076	6632
2467.039	6724
2468.999	6629
2470.96	6615
2472.921	6663
2474.881	6680
2476.841	6566
2478.8	6606
2480.759	6741
2482.717	6632
2484.675	6559
2486.63	6545
2488.589	6603
2490.545	6624
2492.5	6557
2494.455	6594
2496.408	6468
2498.364	6476
2500.318	6627
2502.27	6552
2504.223	6505
2506.174	6599
2508.126	6594
2510.078	6588
2512.03	6635
2513.979	6628
2515.927	6612
2517.877	6469
2519.826	6603
2521.775	6681
2523.722	6619
2525.668	6569
2527.616	6562
2529.561	6596
2531.508	6488
2533.452	6496
2535.398	6563
2537.342	6400
2539.284	6331
2541.229	6618
2543.173	6394
2545.114	6469
2547.055	6601
2548.996	6572
2550.938	6550
2552.878	6552
2554.817	6461
2556.756	6527
2558.695	6582
2560.633	6561
2562.572	6503
2564.509	6516
2566.445	6405
2568.382	6406
2570.317	6562
2572.254	6626
2574.189	6576
2576.123	6541
2578.057	6470
2579.99	6466
2581.923	6498
2583.855	6526
2585.788	6616
2587.719	6425
2589.65	6629
2591.579	6512
2593.511	6444
2595.44	6462
2597.37	6478
2599.297	6548
2601.225	6541
2603.153	6489
2605.08	6572
2607.007	6478
2608.932	6560
2610.858	6588
2612.782	6489
2614.709	6531
2616.632	6491
2618.556	6515
2620.478	6556
2622.401	6521
2624.324	6557
2626.247	6652
2628.167	6433
2630.088	6673
2632.008	6455
2633.928	6605
2635.848	6431
2637.766	6573
2639.684	6624
2641.603	6567
2643.519	6581
2645.437	6564
2647.353	6506
2649.27	6475
2651.184	6542
2653.099	6506
2655.014	6482
2656.928	6542
2658.842	6569
2660.755	6496
2662.667	6434
2664.579	6553
2666.491	6493
2668.402	6559
2670.312	6478
2672.222	6461
2674.132	6569
2676.042	6482
2677.951	6490
2679.859	6491
2681.766	6432
2683.674	6365
2685.582	6485
2687.488	6392
2689.392	6481
2691.298	6307
2693.202	6440
2695.107	6407
2697.012	6355
2698.914	6424
2700.817	6396
2702.72	6476
2704.622	6381
2706.524	6467
2708.425	6352
2710.326	6458
2712.225	6418
2714.125	6469
2716.024	6346
2717.923	6420
2719.822	6448
2721.719	6362
2723.616	6423
2725.512	6468
2727.41	6390
2729.305	6393
2731.201	6268
2733.095	6349
2734.99	6481
2736.884	6374
2738.778	6439
2740.67	6493
2742.562	6451
2744.455	6332
2746.346	6343
2748.238	6421
2750.129	6338
2752.018	6426
2753.907	6365
2755.797	6467
2757.687	6346
2759.575	6356
2761.462	6301
2763.349	6252
2765.237	6296
2767.124	6320
2769.009	6350
2770.894	6355
2772.779	6291
2774.663	6358
2776.547	6457
2778.431	6261
2780.314	6325
2782.197	6337
2784.078	6340
2785.96	6324
2787.842	6275
2789.723	6454
2791.603	6363
2793.483	6326
2795.362	6280
2797.241	6350
2799.121	6343
2800.997	6299
2802.874	6333
2804.751	6367
2806.628	6276
2808.506	6385
2810.38	6275
2812.255	6222
2814.13	6332
2816.003	6330
2817.878	6375
2819.752	6187
2821.623	6300
2823.496	6280
2825.368	6299
2827.238	6310
2829.111	6246
2830.98	6297
2832.851	6315
2834.719	6329
2836.589	6190
2838.458	6261
2840.327	6297
2842.193	6417
2844.061	6242
2845.927	6263
2847.794	6481
2849.66	6484
2851.525	6505
2853.39	6458
2855.254	6576
2857.117	6346
2858.983	6441
2860.845	6575
2862.707	6562
2864.569	6556
2866.431	6541
2868.293	6588
2870.154	6699
2872.013	6802
2873.873	6792
2875.733	6995
2877.592	6954
2879.451	6987
2881.309	6967
2883.166	7146
2885.022	7188
2886.879	7117
2888.736	7215
2890.591	7310
2892.446	7235
2894.301	7181
2896.155	7243
2898.009	7322
2899.863	7277
2901.716	7119
2903.568	7191
2905.419	7165
2907.27	7147
2909.123	7297
2910.973	7257
2912.824	7353
2914.673	7411
2916.521	7365
2918.372	7464
2920.22	7640
2922.067	7778
2923.914	7677
2925.761	7800
2927.607	7806
2929.455	7872
2931.301	7849
2933.144	8007
2934.99	8195
2936.833	8190
2938.678	8166
2940.522	8249
2942.364	8450
2944.207	8426
2946.048	8499
2947.891	8787
2949.731	8623
2951.571	8694
2953.412	8501
2955.25	8590
2957.09	8357
2958.93	8402
2960.767	8222
2962.606	8037
2964.443	8052
2966.279	8074
2968.116	7909
2969.953	7749
2971.788	7655
2973.623	7564
2975.457	7614
2977.292	7475
2979.127	7380
2980.959	7393
2982.792	7293
2984.624	7363
2986.455	7134
2988.288	7257
2990.119	7150
2991.949	7079
2993.779	7045
2995.608	6949
2997.439	6856
2999.268	6958
3001.096	6743
3002.923	6773
3004.751	6700
3006.578	6597
3008.406	6650
3010.232	6572
3012.057	6519
3013.883	6452
3015.706	6273
3017.532	6223
3019.356	6247
3021.179	6236
3023.002	6159
3024.823	6111
3026.646	6190
3028.469	6071
3030.289	6176
3032.11	6028
3033.93	6008
3035.749	6131
3037.57	6042
3039.39	6056
3041.207	6078
3043.026	6108
3044.842	6060
3046.661	6022
3048.477	6058
3050.294	5988
3052.109	6080
3053.925	5956
3055.739	5965
3057.555	6062
3059.368	5956
3061.181	5967
3062.995	5984
3064.807	6160
3066.62	5829
3068.433	6120
3070.243	5888
3072.054	5955
3073.865	5984
3075.675	6099
3077.485	6070
3079.293	5896
3081.102	5885
3082.911	5951
3084.719	5893
3086.527	5850
3088.333	5837
3090.139	5889
3091.945	5826
3093.75	5875
3095.557	5780
3097.361	5827
3099.165	5864
3100.969	5692
3102.772	5827
3104.575	5821
3106.379	5753
3108.181	5690
3109.982	5814
3111.783	5758
3113.584	5756
3115.386	5700
3117.186	5751
3118.985	5740
3120.783	5784
3122.582	5847
3124.381	5675
3126.179	5678
3127.975	5788
3129.772	5709
3131.569	5744
3133.365	5630
3135.161	5703
3136.956	5633
3138.751	5661
3140.544	5740
3142.338	5701
3144.132	5697
3145.925	5655
3147.717	5730
3149.509	5703
3151.301	5663
3153.091	5648
3154.884	5564
3156.673	5635
3158.462	5621
3160.252	5650
3162.041	5621
3163.831	5556
3165.618	5568
3167.405	5582
3169.193	5578
3170.979	5517
3172.767	5552
3174.553	5600
3176.338	5685
3178.123	5632
3179.907	5620
3181.692	5674
3183.477	5619
3185.259	5643
3187.042	5572
3188.824	5582
3190.607	5595
3192.389	5592
3194.17	5644
3195.951	5717
3197.73	5587
3199.51	5572
3201.289	5486
3203.07	5541
3204.848	5601
3206.626	5614
3208.403	5602
3210.18	5583
3211.959	5504
3213.735	5626
3215.511	5629
3217.285	5578
3219.06	5596
3220.836	5695
3222.611	5450
3224.384	5500
3226.158	5621
3227.929	5472
3229.702	5610
3231.476	5571
3233.248	5514
3235.018	5607
3236.789	5672
3238.56	5630
3240.33	5569
3242.1	5600
3243.869	5566
3245.637	5561
3247.405	5430
3249.172	5645
3250.941	5508
3252.707	5572
3254.474	5564
3256.24	5702
3258.006	5541
3259.772	5521
3261.537	5629
3263.301	5638
3265.065	5626
3266.828	5630
3268.592	5524
3270.355	5642
3272.117	5605
3273.878	5541
3275.64	5548
3277.401	5671
3279.162	5597
3280.922	5647
3282.682	5534
3284.441	5546
3286.199	5722
3287.959	5485
3289.716	5656
3291.475	5678
3293.232	5548
3294.988	5592
3296.744	5588
3298.501	5626
3300.256	5589
3302.011	5706
3303.766	5501
3305.52	5670
3307.275	5589
3309.028	5531
3310.781	5493
3312.533	5514
3314.285	5556
3316.038	5522
3317.789	5596
3319.54	5612
3321.289	5640
3323.039	5663
3324.789	5532
3326.539	5669
3328.288	5554
3330.035	5619
3331.783	5617
3333.531	5501
3335.28	5553
3337.025	5526
3338.771	5552
3340.518	5479
3342.262	5469
3344.009	5507
3345.753	5562
3347.497	5466
3349.24	5535
3350.983	5485
3352.726	5589
3354.469	5433
3356.212	5461
3357.952	5468
3359.694	5427
3361.434	5506
3363.176	5491
3364.916	5434
3366.654	5300
3368.394	5447
3370.132	5446
3371.871	5319
3373.61	5504
3375.346	5424
3377.083	5381
3378.82	5337
3380.556	5448
3382.292	5361
3384.027	5407
3385.763	5304
3387.497	5338
3389.231	5382
3390.965	5256
3392.698	5283
3394.431	5363
3396.164	5329
3397.896	5388
3399.627	5414
3401.36	5258
3403.09	5412
3404.82	5301
3406.55	5291
3408.279	5313
3410.01	5263
3411.738	5208
3413.467	5237
3415.194	5325
3416.92	5270
3418.647	5233
3420.375	5206
3422.102	5195
3423.827	5175
3425.553	5287
3427.277	5317
3429.003	5212
3430.727	5183
3432.451	5196
3434.173	5271
3435.896	5191
3437.62	5130
3439.343	5121
3441.063	5225
3442.785	5250
3444.505	5189
3446.226	5112
3447.948	5215
3449.666	5117
3451.386	5103
3453.104	5016
3454.823	5091
3456.541	5092
3458.259	5110
3459.976	5041
3461.693	5025
3463.408	5082
3465.125	4997
3466.841	5214
3468.556	5133
3470.271	5089
3471.985	5030
3473.698	5105
3475.414	5038
3477.126	5028
3478.838	4962
3480.55	4925
3482.263	4970
3483.975	5139
3485.686	4984
3487.396	4976
3489.106	4951
3490.817	4967
3492.526	4779
3494.236	4931
3495.944	5027
3497.652	4871
3499.359	4890
3501.066	4888
3502.775	4864
3504.481	4970
3506.187	4935
3507.893	4952
3509.598	4832
3511.304	4996
3513.009	4897
3514.713	4779
3516.417	4788
3518.12	4850
3519.821	4821
3521.525	4894
3523.228	4698
3524.929	4868
3526.631	4749
3528.33	4791
3530.032	4849
3531.733	4787
3533.433	4914
3535.131	4735
3536.83	4763
3538.529	4735
3540.227	4789
3541.925	4721
3543.623	4799
3545.319	4732
3547.016	4752
3548.712	4699
3550.408	4615
3552.103	4718
3553.798	4685
3555.491	4745
3557.188	4657
3558.88	4725
3560.574	4761
3562.266	4635
3563.959	4601
3565.651	4659
3567.343	4687
3569.035	4682
3570.725	4616
3572.415	4596
3574.106	4501
3575.797	4669
3577.485	4705
3579.174	4624
3580.863	4556
3582.551	4526
3584.238	4546
3585.926	4566
3587.613	4533
3589.3	4497
3590.986	4569
3592.671	4515
3594.357	4523
3596.042	4522
3597.726	4573
3599.41	4516
3601.094	4503
3602.778	4426
3604.461	4379
3606.143	4479
3607.825	4415
3609.507	4415
3611.188	4407
3612.87	4412
3614.551	4432
3616.229	4495
3617.909	4442
3619.589	4493
3621.269	4409
3622.948	4398
3624.625	4372
3626.302	4411
3627.98	4364
3629.657	4348
3631.334	4323
3633.01	4388
3634.686	4377
3636.361	4313
3638.036	4310
3639.712	4346
3641.385	4331
3643.06	4365
3644.732	4289
3646.405	4309
3648.08	4390
3649.751	4234
3651.424	4297
3653.094	4309
3654.766	4271
3656.436	4294
3658.106	4268
3659.777	4150
3661.446	4254
3663.115	4172
3664.783	4257
3666.452	4227
3668.121	4210
3669.788	4228
3671.454	4178
3673.121	4236
3674.789	4184
3676.455	4224
3678.12	4172
3679.784	4198
3681.45	4207
3683.114	4113
3684.779	4108
3686.442	4180
3688.105	4182
3689.768	4171
3691.43	4093
3693.093	4163
3694.754	4177
3696.415	4172
3698.076	4192
3699.736	4117
3701.396	4116
3703.057	4191
3704.716	4186
3706.375	4139
3708.034	4144
3709.692	4066
3711.351	4159
3713.008	4134
3714.665	4043
3716.321	4072
3717.977	4035
3719.634	4134
3721.29	4122
3722.945	4068
3724.598	4069
3726.253	4101
3727.907	4106
3729.561	4053
3731.214	4030
3732.867	4055
3734.518	4062
3736.171	4137
3737.824	4086
3739.474	4004
3741.125	4109
3742.775	4020
3744.425	4020
3746.074	4064
3747.725	4082
3749.373	4060
3751.022	4021
3752.669	3908
3754.318	4006
3755.966	4006
3757.612	4008
3759.259	3968
3760.905	3966
3762.55	3982
3764.197	3990
3765.842	3916
3767.486	4019
3769.131	3976
3770.774	4025
3772.417	3982
3774.061	3966
3775.705	3894
3777.347	3919
3778.988	3954
3780.629	3989
3782.271	3965
3783.912	3926
3785.552	3962
3787.192	4019
3788.831	3954
3790.472	3943
3792.112	3981
3793.75	3931
3795.388	3865
3797.024	3825
3798.661	3944
3800.3	3885
3801.936	3883
3803.572	3869
3805.208	3949
3806.844	3901
3808.48	3853
3810.115	3847
3811.748	3828
3813.382	3877
3815.016	3786
3816.649	3903
3818.283	3850
3819.914	3824
3821.547	3774
3823.178	3861
3824.809	3800
3826.441	3839
3828.072	3841
3829.701	3843
3831.331	3730
3832.96	3876
3834.591	3810
3836.219	3870
3837.847	3824
3839.475	3758
3841.102	3759
3842.729	3713
3844.357	3866
3845.984	3820
3847.609	3758
3849.234	3767
3850.86	3803
3852.485	3741
3854.11	3781
3855.734	3779
3857.357	3846
3858.981	3755
3860.603	3814
3862.227	3801
3863.848	3757
3865.471	3698
3867.092	3782
3868.713	3699
3870.334	3755
3871.954	3732
3873.575	3759
3875.194	3739
3876.813	3700
3878.433	3777
3880.051	3759
3881.669	3727
3883.286	3708
3884.904	3722
3886.52	3635
3888.138	3733
3889.754	3679
3891.37	3737
3892.985	3712
3894.6	3715
3896.216	3648
3897.831	3654
3899.444	3707
3901.058	3664
3902.67	3606
3904.283	3683
3905.897	3706
3907.509	3657
3909.121	3623
3910.731	3627
3912.342	3620
3913.954	3639
3915.563	3648
3917.174	3661
3918.783	3671
3920.391	3683
3922.002	3684
3923.611	3675
3925.218	3660
3926.826	3634
3928.432	3658
3930.039	3635
3931.647	3682
3933.253	3602
3934.859	3637
3936.464	3599
3938.068	3577
3939.675	3613
3941.278	3570
3942.883	3631
3944.486	3702
3946.089	3599
3947.692	3564
3949.295	3696
3950.898	3704
3952.499	3619
3954.1	3582
3955.7	3620
3957.303	3548
3958.903	3610
3960.502	3515
3962.101	3545
3963.7	3546
3965.301	3605
3966.899	3590
3968.497	3515
3970.094	3497
3971.691	3607
3973.288	3492
3974.885	3541
3976.481	3574
3978.077	3443
3979.672	3455
3981.267	3504
3982.863	3538
3984.457	3533
3986.051	3555
3987.645	3479
3989.238	3491
3990.831	3496
3992.425	3501
3994.017	3479
3995.607	3388
3997.199	3438
3998.79	3475
4000.382	3428
4001.973	3530
4003.561	3348
4005.151	3369
4006.741	3459
4008.331	3392
4009.918	3493
4011.507	3439
4013.095	3430
4014.681	3443
4016.269	3425
4017.856	3414
4019.443	3304
4021.028	3404
4022.614	3383
4024.199	3361
4025.785	3389
4027.37	3402
4028.953	3360
4030.536	3364
4032.12	3290
4033.704	3386
4035.287	3368
4036.869	3335
4038.45	3332
4040.032	3401
4041.613	3318
4043.195	3364
4044.776	3382
4046.356	3356
4047.935	3306
4049.515	3385
4051.095	3334
4052.674	3357
4054.251	3286
4055.829	3299
4057.406	3309
4058.985	3271
4060.562	3291
4062.139	3327
4063.715	3288
4065.29	3289
4066.865	3268
4068.442	3292
4070.016	3318
4071.59	3326
4073.164	3301
4074.738	3201
4076.312	3296
4077.885	3284
4079.458	3230
4081.03	3203
4082.602	3231
4084.173	3286
4085.745	3205
4087.315	3263
4088.886	3204
4090.456	3290
4092.026	3223
4093.596	3320
4095.165	3228
4096.734	3222
4098.301	3253
4099.869	3176
4101.437	3208
4103.006	3168
4104.572	3180
4106.139	3229
4107.704	3241
4109.27	3172
4110.837	3201
4112.401	3175
4113.966	3132
4115.53	3233
4117.094	3146
4118.659	3144
4120.223	3158
4121.785	3162
4123.347	3214
4124.909	3184
4126.471	3170
4128.034	3144
4129.595	3150
4131.155	3128
4132.716	3213
4134.275	3133
4135.836	3196
4137.395	3083
4138.955	3164
4140.513	3152
4142.071	3057
4143.628	3114
4145.188	3144
4146.745	3056
4148.302	3150
4149.858	3076
4151.414	3118
4152.971	3069
4154.526	3093
4156.081	3091
4157.635	3080
4159.189	3059
4160.745	3051
4162.298	3003
4163.852	3026
4165.405	3121
4166.957	3123
4168.51	3006
4170.063	3031
4171.614	3047
4173.166	3100
4174.717	3004
4176.267	2971
4177.817	3032
4179.368	3010
4180.917	3045
4182.466	3034
4184.016	3035
4185.564	3011
4187.112	3103
4188.66	2983
4190.207	3019
4191.754	2964
4193.301	2997
4194.848	2968
4196.394	2947
4197.94	2933
4199.484	3064
4201.03	3018
4202.575	2922
4204.12	3012
4205.663	3012
4207.207	3004
4208.75	3019
4210.292	3012
4211.836	2971
4213.378	2939
4214.92	2955
4216.46	3012
4218.002	3010
4219.544	2939
4221.083	2964
4222.625	3022
4224.164	2971
4225.703	2912
4227.244	2889
4228.782	2918
4230.32	2966
4231.857	2925
4233.395	2894
4234.933	2914
4236.471	2893
4238.007	2901
4239.542	2941
4241.078	2882
4242.614	2928
4244.15	2873
4245.685	2860
4247.219	2924
4248.753	2940
4250.287	2883
4251.82	3024
4253.354	2871
4254.887	2888
4256.419	2888
4257.951	2875
4259.483	2924
4261.016	2874
4262.547	2900
4264.078	2881
4265.608	2891
4267.137	2920
4268.668	2900
4270.197	2828
4271.727	2820
4273.254	2836
4274.783	2861
4276.311	2925
4277.84	2897
4279.366	2878
4280.894	2812
4282.42	2871
4283.946	2792
4285.473	2818
4286.998	2836
4288.523	2820
4290.047	2809
4291.572	2848
4293.096	2743
4294.622	2729
4296.144	2832
4297.668	2892
4299.19	2810
4300.713	2811
4302.236	2836
4303.758	2777
4305.279	2806
4306.799	2805
4308.321	2747
4309.842	2752
4311.361	2844
4312.882	2761
4314.401	2785
