400.0961	4601
402.6185	4545
405.1424	4492
407.6635	4645
410.1838	4674
412.7035	4606
415.2225	4535
417.7388	4578
420.2585	4664
422.7754	4758
425.2917	4768
427.8072	4958
430.3221	4808
432.8363	4953
435.3498	4953
437.8626	4953
440.3727	4794
442.8841	4908
445.3969	4796
447.907	4890
450.4142	4891
452.9229	4888
455.4289	4933
457.9362	4863
460.4449	4817
462.9488	4829
465.454	4918
467.9566	4861
470.4604	4870
472.9637	4835
475.4662	4757
477.966	4776
480.4671	4873
482.9656	4934
485.4633	4867
487.9645	4950
490.4608	4925
492.9566	4923
495.4536	4853
497.948	4869
500.4437	4952
502.9387	4963
505.431	5013
507.9226	4911
510.4136	5040
512.9079	4901
515.3975	4901
517.8864	5013
520.3746	5057
522.8622	4981
525.3491	4948
527.8394	5133
530.3249	4963
532.8098	5131
535.2939	5138
537.7774	5005
540.2623	5024
542.7444	5069
545.2259	5094
547.7067	5037
550.1868	5115
552.6683	5133
555.147	5042
557.6231	5064
560.1005	5029
562.5773	5148
565.0534	5081
567.5308	5159
570.0056	5094
572.4776	5247
574.951	5160
577.4237	5246
579.8978	5149
582.3671	5303
584.8378	5265
587.3079	5254
589.7773	5263
592.244	5231
594.714	5245
597.1793	5158
599.6461	5280
602.1121	5225
604.5754	5204
607.0421	5294
609.5042	5213
611.9675	5366
614.4282	5206
616.8902	5260
619.3515	5237
621.8122	5285
624.2702	5251
626.7296	5219
629.1863	5187
631.6423	5246
634.1017	5136
636.5563	5235
639.0104	5216
641.4658	5247
643.9185	5256
646.3725	5223
648.8239	5286
651.2766	5233
653.7266	5312
656.176	5277
658.6247	5229
661.0748	5305
663.5242	5299
665.9709	5266
668.417	5300
670.8624	5389
673.3092	5289
675.7533	5353
678.1968	5351
680.6395	5444
683.0817	5351
685.5251	5446
687.9659	5316
690.4061	5421
692.8456	5312
695.2844	5425
697.7226	5395
700.1621	5464
702.599	5414
705.0332	5499
707.4688	5455
709.9036	5383
712.3399	5604
714.7735	5455
717.2044	5521
719.6367	5514
722.0683	5508
724.4993	5523
726.9296	5560
729.3593	5532
731.7883	5625
734.2147	5575
736.6423	5528
739.0714	5713
741.4958	5508
743.9216	5591
746.3447	5642
748.7691	5640
751.1929	5703
753.616	5759
756.0366	5737
758.4584	5691
760.8776	5809
763.2982	5801
765.718	5792
768.1373	5831
770.5539	5769
772.9698	5856
775.3871	5691
777.8038	5764
780.2178	5828
782.6332	5697
785.0459	5747
787.458	5856
789.8714	5842
792.2842	5758
794.6943	5847
797.1038	5832
799.5127	5811
801.9209	5826
804.3324	5800
806.7393	5828
809.1456	5924
811.5513	6053
813.9562	5928
816.3625	5930
818.7663	5795
821.1693	5973
823.5718	5801
825.9735	5964
828.3746	5915
830.7771	5808
833.177	5879
835.5762	6018
837.9747	5909
840.3727	5972
842.772	5974
845.1666	5906
847.5626	5984
849.958	6050
852.3527	6017
854.7488	6048
857.1403	6113
859.5331	6140
861.9253	6004
864.3168	6057
866.7057	6087
869.098	6094
871.4876	6050
873.8746	5932
876.263	6080
878.6487	5999
881.0378	5992
883.4243	6030
885.8081	5964
888.1933	5954
890.5759	6078
892.9598	6100
895.343	5970
897.7256	6026
900.1057	6014
902.4871	5892
904.8659	6088
907.246	6030
909.6254	6030
912.0023	6146
914.3786	6247
916.7562	6250
919.1331	6528
921.5074	6495
923.8831	6475
926.2562	6554
928.6287	6585
931.0005	6375
933.3757	6451
935.7462	6525
938.1162	6552
940.4855	6535
942.8542	6575
945.2242	6602
947.5916	6678
949.9584	6763
952.3266	6990
954.6921	7053
957.0571	7359
959.4233	7652
961.787	7842
964.15	7636
966.5125	7546
968.8742	7289
971.2354	7054
973.5959	6898
975.9559	6697
978.3151	6539
980.6738	6531
983.0338	6464
985.3912	6339
987.7461	6322
990.1022	6331
992.4578	6400
994.8127	6249
997.1689	6322
999.5207	6349
1001.874	6293
1004.226	6440
1006.576	6300
1008.929	6248
1011.28	6337
1013.628	6370
1015.977	6301
1018.324	6396
1020.674	6325
1023.019	6216
1025.366	6349
1027.713	6425
1030.056	6341
1032.399	6351
1034.746	6386
1037.087	6341
1039.431	6348
1041.771	6482
1044.113	6460
1046.454	6405
1048.793	6360
1051.133	6508
1053.471	6400
1055.807	6474
1058.146	6491
1060.483	6589
1062.818	6461
1065.153	6408
1067.489	6538
1069.822	6468
1072.156	6487
1074.488	6548
1076.82	6513
1079.15	6541
1081.48	6542
1083.814	6546
1086.143	6480
1088.471	6534
1090.799	6456
1093.126	6371
1095.452	6472
1097.78	6433
1100.105	6429
1102.43	6447
1104.754	6408
1107.077	6413
1109.4	6365
1111.722	6481
1114.044	6432
1116.365	6481
1118.685	6417
1121.005	6439
1123.324	6508
1125.643	6657
1127.961	6511
1130.278	6396
1132.595	6461
1134.911	6478
1137.226	6327
1139.541	6481
1141.854	6451
1144.167	6332
1146.482	6310
1148.793	6352
1151.105	6474
1153.414	6441
1155.725	6472
1158.033	6467
1160.344	6449
1162.651	6478
1164.959	6549
1167.265	6368
1169.572	6574
1171.878	6381
1174.184	6484
1176.488	6586
1178.79	6567
1181.094	6533
1183.396	6519
1185.699	6529
1188.001	6466
1190.301	6393
1192.6	6465
1194.9	6533
1197.2	6579
1199.497	6430
1201.794	6479
1204.09	6425
1206.387	6424
1208.684	6465
1210.978	6490
1213.272	6546
1215.565	6498
1217.858	6419
1220.15	6439
1222.443	6523
1224.734	6506
1227.024	6542
1229.313	6626
1231.602	6673
1233.892	6698
1236.18	6772
1238.467	6770
1240.754	6719
1243.04	6692
1245.325	6738
1247.612	6797
1249.896	6824
1252.178	6802
1254.461	6797
1256.743	6778
1259.027	6782
1261.308	6768
1263.587	6801
1265.867	6758
1268.146	6876
1270.425	6896
1272.703	6718
1274.981	6744
1277.256	6813
1279.532	6778
1281.808	6759
1284.083	6802
1286.358	6736
1288.63	6743
1290.904	6746
1293.175	6649
1295.449	6641
1297.719	6577
1299.99	6766
1302.259	6495
1304.529	6694
1306.798	6640
1309.065	6617
1311.333	6752
1313.599	6739
1315.866	6770
1318.131	6775
1320.396	6619
1322.66	6632
1324.925	6721
1327.187	6723
1329.448	6774
1331.711	6817
1333.974	6718
1336.234	6758
1338.493	6760
1340.752	6722
1343.01	6575
1345.269	6647
1347.526	6673
1349.784	6750
1352.04	6623
1354.295	6638
1356.552	6725
1358.806	6498
1361.059	6720
1363.312	6653
1365.564	6726
1367.818	6632
1370.069	6660
1372.318	6696
1374.568	6723
1376.817	6690
1379.066	6743
1381.316	6812
1383.564	6828
1385.809	6627
1388.056	6928
1390.301	6867
1392.549	6845
1394.793	6979
1397.036	7067
1399.279	7019
1401.522	7087
1403.763	7067
1406.007	6902
1408.248	7057
1410.487	7097
1412.727	6947
1414.965	7012
1417.205	6964
1419.442	6956
1421.68	6938
1423.915	6997
1426.152	6966
1428.388	6949
1430.623	6944
1432.857	7049
1435.091	6961
1437.323	7014
1439.556	7096
1441.789	7120
1444.019	7117
1446.25	7089
1448.48	7037
1450.708	7072
1452.938	7081
1455.167	7094
1457.394	7126
1459.62	7061
1461.846	7198
1464.073	7132
1466.299	7076
1468.523	7037
1470.746	6987
1472.969	6913
1475.191	6922
1477.415	6856
1479.636	6786
1481.858	6750
1484.078	6717
1486.298	6782
1488.518	6758
1490.736	6800
1492.954	6573
1495.169	6726
1497.386	6785
1499.602	6620
1501.819	6645
1504.034	6619
1506.248	6654
1508.462	6735
1510.675	6745
1512.888	6683
1515.1	6671
1517.311	6637
1519.522	6677
1521.732	6662
1523.942	6630
1526.151	6694
1528.36	6618
1530.566	6614
1532.773	6761
1534.98	6700
1537.187	6676
1539.392	6677
1541.596	6712
1543.801	6786
1546.005	6738
1548.208	6742
1550.411	6748
1552.612	6751
1554.814	6711
1557.013	6826
1559.212	6879
1561.414	6820
1563.612	6791
1565.811	6801
1568.007	6860
1570.203	6627
1572.403	6853
1574.598	6826
1576.792	6931
1578.988	6798
1581.181	6973
1583.376	6822
1585.568	6852
1587.761	6857
1589.952	6924
1592.143	6837
1594.333	6794
1596.524	6916
1598.715	6846
1600.903	6931
1603.091	6934
1605.278	6906
1607.466	6767
1609.652	6916
1611.838	6943
1614.023	6856
1616.207	6995
1618.391	7002
1620.576	6881
1622.759	6909
1624.941	7087
1627.123	6940
1629.304	7019
1631.484	6917
1633.664	7108
1635.844	7051
1638.022	7032
1640.201	6998
1642.38	7102
1644.556	6991
1646.732	6985
1648.908	6971
1651.084	7170
1653.257	6980
1655.433	7056
1657.607	7026
1659.779	7129
1661.951	7060
1664.122	7082
1666.295	7183
1668.467	7135
1670.635	7097
1672.805	7183
1674.973	7132
1677.142	7042
1679.31	7052
1681.478	7110
1683.644	7074
1685.81	6964
1687.975	7037
1690.142	7011
1692.305	6995
1694.468	7061
1696.632	6970
1698.794	7019
1700.957	6928
1703.119	6948
1705.279	6904
1707.439	6942
1709.598	6932
1711.758	6946
1713.917	6928
1716.075	6927
1718.231	6852
1720.388	6820
1722.543	6917
1724.702	6888
1726.856	6860
1729.01	6795
1731.164	6755
1733.317	6871
1735.471	6838
1737.623	6886
1739.774	6890
1741.925	6892
1744.075	6752
1746.225	6816
1748.376	6790
1750.524	6773
1752.672	6830
1754.82	6824
1756.965	6984
1759.113	6906
1761.259	6832
1763.405	6878
1765.549	6908
1767.694	6908
1769.836	6855
1771.981	6898
1774.123	6930
1776.264	6968
1778.405	6939
1780.546	6937
1782.687	6896
1784.827	6945
1786.966	6899
1789.103	7056
1791.242	6922
1793.381	6907
1795.517	6982
1797.653	6836
1799.788	7005
1801.923	6876
1804.057	6978
1806.193	6923
1808.326	6879
1810.457	6870
1812.59	6886
1814.721	6910
1816.855	6884
1818.984	6928
1821.113	6923
1823.244	6960
1825.372	6940
1827.499	7027
1829.63	6909
1831.756	6912
1833.882	6887
1836.007	6928
1838.132	6922
1840.26	6906
1842.384	6984
1844.507	6777
1846.63	6905
1848.752	6890
1850.875	6818
1852.996	6761
1855.118	6950
1857.238	6901
1859.358	6882
1861.477	6977
1863.597	6764
1865.715	6891
1867.832	6895
1869.948	6894
1872.064	6872
1874.181	6846
1876.297	6875
1878.411	6851
1880.526	6842
1882.639	6911
1884.752	7027
1886.865	6978
1888.977	6862
1891.089	6860
1893.2	6798
1895.308	6977
1897.42	7055
1899.53	6885
1901.639	6877
1903.745	6828
1905.853	6988
1907.962	6905
1910.067	6918
1912.174	6867
1914.278	7006
1916.383	6940
1918.486	6944
1920.592	7027
1922.694	6989
1924.797	7076
1926.898	7059
1929	6888
1931.102	6975
1933.203	6921
1935.301	6923
1937.401	6953
1939.499	7008
1941.598	6920
1943.697	6841
1945.793	6945
1947.888	7038
1949.985	6995
1952.08	7017
1954.176	7044
1956.269	7003
1958.364	6845
1960.457	7071
1962.549	7035
1964.642	6956
1966.733	6995
1968.823	6889
1970.913	7006
1973.005	6954
1975.093	6920
1977.184	6904
1979.271	6994
1981.359	6946
1983.446	6989
1985.532	6968
1987.619	6955
1989.705	6987
1991.789	6828
1993.874	6945
1995.956	6942
1998.041	6827
2000.123	6896
2002.206	6883
2004.287	6866
2006.368	6841
2008.449	6831
2010.529	6958
2012.609	6820
2014.688	6863
2016.766	6815
2018.843	6992
2020.922	6758
2022.999	6914
2025.074	6903
2027.15	6806
2029.225	6889
2031.299	6849
2033.375	6948
2035.447	6897
2037.52	6834
2039.592	6818
2041.664	6834
2043.736	6904
2045.807	6867
2047.876	6786
2049.947	6876
2052.015	6892
2054.086	6880
2056.153	6893
2058.221	6906
2060.288	6839
2062.353	6848
2064.42	6884
2066.486	6911
2068.55	6918
2070.614	6857
2072.678	7000
2074.741	6895
2076.805	6880
2078.866	6843
2080.929	6906
2082.99	6885
2085.049	6834
2087.109	6855
2089.17	6865
2091.228	7036
2093.286	6846
2095.344	6966
2097.4	6865
2099.46	6817
2101.516	6928
2103.572	6958
2105.626	6925
2107.679	6855
2109.735	6864
2111.788	6814
2113.841	6927
2115.894	6929
2117.945	6825
2119.997	6989
2122.049	6802
2124.1	6894
2126.148	6950
2128.197	6893
2130.246	6933
2132.296	6762
2134.342	6836
2136.39	6804
2138.437	6919
2140.483	6800
2142.527	6871
2144.574	6784
2146.619	6862
2148.661	6878
2150.705	6767
2152.747	6802
2154.792	6900
2156.832	6697
2158.874	6820
2160.915	6866
2162.954	6763
2164.995	6812
2167.034	6882
2169.072	6660
2171.111	6804
2173.148	6742
2175.186	6759
2177.223	6782
2179.258	6741
2181.294	6845
2183.328	6666
2185.362	6868
2187.398	6654
2189.431	6744
2191.463	6755
2193.495	6874
2195.528	6622
2197.56	6672
2199.59	6744
2201.62	6717
2203.649	6773
2205.678	6632
2207.708	6668
2209.737	6738
2211.764	6556
2213.791	6674
2215.817	6660
2217.843	6829
2219.87	6714
2221.895	6613
2223.919	6736
2225.942	6674
2227.966	6721
2229.988	6711
2232.012	6675
2234.032	6675
2236.054	6658
2238.074	6635
2240.095	6656
2242.116	6598
2244.135	6717
2246.153	6606
2248.171	6657
2250.188	6679
2252.208	6536
2254.223	6707
2256.239	6620
2258.255	6613
2260.269	6642
2262.283	6592
2264.3	6675
2266.312	6616
2268.325	6704
2270.336	6684
2272.349	6620
2274.362	6642
2276.372	6714
2278.383	6745
2280.392	6612
2282.402	6658
2284.409	6612
2286.418	6649
2288.427	6736
2290.433	6653
2292.441	6696
2294.446	6743
2296.453	6663
2298.459	6716
2300.463	6523
2302.466	6502
2304.471	6649
2306.475	6594
2308.477	6583
2310.478	6469
2312.481	6626
2314.481	6520
2316.481	6495
2318.482	6651
2320.482	6541
2322.48	6619
2324.48	6679
2326.478	6532
2328.476	6698
2330.473	6605
2332.469	6420
2334.465	6627
2336.46	6590
2338.454	6573
2340.45	6598
2342.444	6622
2344.437	6688
2346.43	6653
2348.421	6539
2350.414	6586
2352.405	6556
2354.396	6623
2356.386	6479
2358.376	6410
2360.366	6529
2362.355	6568
2364.343	6441
2366.331	6481
2368.317	6434
2370.304	6579
2372.292	6570
2374.278	6390
2376.262	6438
2378.247	6430
2380.23	6457
2382.216	6362
2384.199	6426
2386.181	6483
2388.163	6539
2390.144	6507
2392.127	6545
2394.107	6404
2396.087	6543
2398.066	6508
2400.046	6464
2402.023	6362
2404.004	6335
2405.981	6418
2407.957	6381
2409.934	6477
2411.91	6379
2413.886	6360
2415.862	6373
2417.836	6413
2419.809	6294
2421.784	6425
2423.756	6438
2425.73	6425
2427.701	6417
2429.672	6439
2431.644	6374
2433.615	6433
2435.586	6345
2437.555	6419
2439.523	6456
2441.491	6373
2443.459	6337
2445.428	6441
2447.395	6365
2449.361	6354
2451.327	6369
2453.292	6463
2455.257	6288
2457.223	6243
2459.187	6306
2461.15	6345
2463.113	6354
2465.076	6302
2467.039	6352
2468.999	6399
2470.96	6281
2472.921	6315
2474.881	6340
2476.841	6384
2478.8	6318
2480.759	6229
2482.717	6316
2484.675	6310
2486.63	6309
2488.589	6282
2490.545	6321
2492.5	6279
2494.455	6395
2496.408	6236
2498.364	6331
2500.318	6254
2502.27	6302
2504.223	6284
2506.174	6271
2508.126	6192
2510.078	6273
2512.03	6348
2513.979	6280
2515.927	6216
2517.877	6213
2519.826	6252
2521.775	6139
2523.722	6228
2525.668	6303
2527.616	6275
2529.561	6211
2531.508	6308
2533.452	6173
2535.398	6186
2537.342	6368
2539.284	6228
2541.229	6287
2543.173	6248
2545.114	6266
2547.055	6221
2548.996	6183
2550.938	6225
2552.878	6253
2554.817	6288
2556.756	6341
2558.695	6190
2560.633	6130
2562.572	6293
2564.509	6351
2566.445	6264
2568.382	6161
2570.317	6170
2572.254	6153
2574.189	6172
2576.123	6271
2578.057	6317
2579.99	6295
2581.923	6216
2583.855	6295
2585.788	6215
2587.719	6163
2589.65	6260
2591.579	6233
2593.511	6297
2595.44	6182
2597.37	6216
2599.297	6279
2601.225	6331
2603.153	6264
2605.08	6276
2607.007	6323
2608.932	6200
2610.858	6216
2612.782	6201
2614.709	6257
2616.632	6230
2618.556	6207
2620.478	6371
2622.401	6168
2624.324	6270
2626.247	6245
2628.167	6246
2630.088	6107
2632.008	6299
2633.928	6193
2635.848	6160
2637.766	6224
2639.684	6183
2641.603	6294
2643.519	6261
2645.437	6340
2647.353	6216
2649.27	6233
2651.184	6139
2653.099	6326
2655.014	6139
2656.928	6174
2658.842	6186
2660.755	6280
2662.667	6313
2664.579	6286
2666.491	6223
2668.402	6154
2670.312	6084
2672.222	6180
2674.132	6193
2676.042	6222
2677.951	6183
2679.859	6172
2681.766	6059
2683.674	6289
2685.582	6226
2687.488	6260
2689.392	6135
2691.298	6169
2693.202	6058
2695.107	6123
2697.012	6090
2698.914	6123
2700.817	6216
2702.72	6139
2704.622	6099
2706.524	6149
2708.425	6129
2710.326	6125
2712.225	6046
2714.125	6068
2716.024	6118
2717.923	5952
2719.822	6173
2721.719	6136
2723.616	6078
2725.512	6188
2727.41	6114
2729.305	6080
2731.201	6158
2733.095	6075
2734.99	6181
2736.884	6052
2738.778	6168
2740.67	6088
2742.562	6052
2744.455	6103
2746.346	6032
2748.238	6031
2750.129	6073
2752.018	6144
2753.907	5917
2755.797	6052
2757.687	6177
2759.575	6035
2761.462	6048
2763.349	5968
2765.237	5982
2767.124	6052
2769.009	6049
2770.894	6055
2772.779	6064
2774.663	6090
2776.547	6003
2778.431	5975
2780.314	6084
2782.197	6045
2784.078	6028
2785.96	6076
2787.842	6109
2789.723	6101
2791.603	6014
2793.483	6016
2795.362	6052
2797.241	6003
2799.121	5963
2800.997	6007
2802.874	6078
2804.751	5933
2806.628	6052
2808.506	6074
2810.38	6029
2812.255	5874
2814.13	5993
2816.003	6041
2817.878	5940
2819.752	6068
2821.623	5986
2823.496	5920
2825.368	6078
2827.238	5949
2829.111	6011
2830.98	6009
2832.851	6157
2834.719	5993
2836.589	6060
2838.458	6059
2840.327	5974
2842.193	5960
2844.061	6108
2845.927	5923
2847.794	6117
2849.66	6015
2851.525	6017
2853.39	6104
2855.254	6052
2857.117	6101
2858.983	6063
2860.845	6144
2862.707	6195
2864.569	6263
2866.431	6229
2868.293	6224
2870.154	6344
2872.013	6331
2873.873	6424
2875.733	6504
2877.592	6575
2879.451	6502
2881.309	6694
2883.166	6569
2885.022	6681
2886.879	6741
2888.736	6732
2890.591	6757
2892.446	6765
2894.301	6880
2896.155	6809
2898.009	6764
2899.863	6857
2901.716	6674
2903.568	6779
2905.419	6703
2907.27	6720
2909.123	6770
2910.973	6888
2912.824	6913
2914.673	6966
2916.521	6907
2918.372	6912
2920.22	7001
2922.067	7055
2923.914	7026
2925.761	7223
2927.607	7220
2929.455	7157
2931.301	7285
2933.144	7361
2934.99	7344
2936.833	7276
2938.678	7466
2940.522	7580
2942.364	7721
2944.207	7763
2946.048	7756
2947.891	7998
2949.731	7867
2951.571	7973
2953.412	7789
2955.25	7775
2957.09	7931
2958.93	7698
2960.767	7754
2962.606	7522
2964.443	7526
2966.279	7458
2968.116	7434
2969.953	7182
2971.788	7191
2973.623	7086
2975.457	6916
2977.292	6887
2979.127	6887
2980.959	6771
2982.792	6712
2984.624	6665
2986.455	6733
2988.288	6693
2990.119	6597
2991.949	6465
2993.779	6479
2995.608	6541
2997.439	6435
2999.268	6419
3001.096	6308
3002.923	6306
3004.751	6144
3006.578	6155
3008.406	6162
3010.232	6152
3012.057	6182
3013.883	6028
3015.706	6127
3017.532	5950
3019.356	5857
3021.179	5890
3023.002	5943
3024.823	5844
3026.646	5851
3028.469	5770
3030.289	5848
3032.11	5773
3033.93	5915
3035.749	5681
3037.57	5784
3039.39	5669
3041.207	5692
3043.026	5691
3044.842	5762
3046.661	5681
3048.477	5770
3050.294	5655
3052.109	5743
3053.925	5723
3055.739	5637
3057.555	5689
3059.368	5609
3061.181	5698
3062.995	5748
3064.807	5737
3066.62	5620
3068.433	5632
3070.243	5665
3072.054	5698
3073.865	5616
3075.675	5636
3077.485	5640
3079.293	5645
3081.102	5717
3082.911	5680
3084.719	5599
3086.527	5584
3088.333	5580
3090.139	5598
3091.945	5440
3093.75	5452
3095.557	5442
3097.361	5521
3099.165	5512
3100.969	5504
3102.772	5507
3104.575	5525
3106.379	5460
3108.181	5472
3109.982	5406
3111.783	5505
3113.584	5457
3115.386	5385
3117.186	5383
3118.985	5478
3120.783	5396
3122.582	5479
3124.381	5388
3126.179	5411
3127.975	5439
3129.772	5363
3131.569	5314
3133.365	5411
3135.161	5404
3136.956	5360
3138.751	5362
3140.544	5343
3142.338	5393
3144.132	5384
3145.925	5336
3147.717	5350
3149.509	5333
3151.301	5325
3153.091	5318
3154.884	5349
3156.673	5338
3158.462	5406
3160.252	5410
3162.041	5343
3163.831	5361
3165.618	5445
3167.405	5408
3169.193	5341
3170.979	5318
3172.767	5292
3174.553	5295
3176.338	5333
3178.123	5243
3179.907	5106
3181.692	5173
3183.477	5261
3185.259	5188
3187.042	5226
3188.824	5309
3190.607	5289
3192.389	5295
3194.17	5336
3195.951	5400
3197.73	5203
3199.51	5250
3201.289	5232
3203.07	5233
3204.848	5200
3206.626	5248
3208.403	5311
3210.18	5370
3211.959	5344
3213.735	5303
3215.511	5406
3217.285	5327
3219.06	5265
3220.836	5273
3222.611	5226
3224.384	5134
3226.158	5404
3227.929	5254
3229.702	5234
3231.476	5314
3233.248	5332
3235.018	5210
3236.789	5267
3238.56	5203
3240.33	5112
3242.1	5350
3243.869	5365
3245.637	5288
3247.405	5244
3249.172	5254
3250.941	5295
3252.707	5185
3254.474	5153
3256.24	5263
3258.006	5249
3259.772	5195
3261.537	5309
3263.301	5279
3265.065	5184
3266.828	5247
3268.592	5226
3270.355	5285
3272.117	5085
3273.878	5223
3275.64	5296
3277.401	5306
3279.162	5290
3280.922	5235
3282.682	5266
3284.441	5242
3286.199	5237
3287.959	5233
3289.716	5154
3291.475	5245
3293.232	5247
3294.988	5297
3296.744	5226
3298.501	5300
3300.256	5214
3302.011	5166
3303.766	5261
3305.52	5149
3307.275	5206
3309.028	5272
3310.781	5239
3312.533	5168
3314.285	5272
3316.038	5303
3317.789	5182
3319.54	5196
3321.289	5245
3323.039	5198
3324.789	5222
3326.539	5173
3328.288	5157
3330.035	5144
3331.783	5197
3333.531	5132
3335.28	5155
3337.025	5163
3338.771	5100
3340.518	5175
3342.262	5187
3344.009	5142
3345.753	5095
3347.497	5158
3349.24	5163
3350.983	5064
3352.726	5213
3354.469	5071
3356.212	5109
3357.952	5157
3359.694	5072
3361.434	5086
3363.176	5036
3364.916	5178
3366.654	5060
3368.394	4993
3370.132	5104
3371.871	5055
3373.61	5074
3375.346	5068
3377.083	5085
3378.82	5066
3380.556	5071
3382.292	4985
3384.027	5062
3385.763	4998
3387.497	5104
3389.231	5072
3390.965	5096
3392.698	5069
3394.431	4913
3396.164	4954
3397.896	4953
3399.627	5070
3401.36	5032
3403.09	4883
3404.82	4981
3406.55	4975
3408.279	4967
3410.01	4993
3411.738	4963
3413.467	4996
3415.194	5003
3416.92	4925
3418.647	4914
3420.375	4868
3422.102	4906
3423.827	5004
3425.553	4864
3427.277	4925
3429.003	4894
3430.727	4887
3432.451	4865
3434.173	4856
3435.896	4928
3437.62	4919
3439.343	4956
3441.063	4943
3442.785	4850
3444.505	4780
3446.226	4850
3447.948	4793
3449.666	4789
3451.386	4828
3453.104	4895
3454.823	4823
3456.541	4788
3458.259	4747
3459.976	4780
3461.693	4758
3463.408	4844
3465.125	4809
3466.841	4742
3468.556	4743
3470.271	4725
3471.985	4694
3473.698	4747
3475.414	4748
3477.126	4634
3478.838	4753
3480.55	4656
3482.263	4707
3483.975	4681
3485.686	4735
3487.396	4787
3489.106	4631
3490.817	4662
3492.526	4702
3494.236	4679
3495.944	4671
3497.652	4670
3499.359	4568
3501.066	4620
3502.775	4608
3504.481	4514
3506.187	4512
3507.893	4511
3509.598	4642
3511.304	4652
3513.009	4480
3514.713	4605
3516.417	4545
3518.12	4594
3519.821	4543
3521.525	4597
3523.228	4487
3524.929	4528
3526.631	4525
3528.33	4468
3530.032	4519
3531.733	4545
3533.433	4530
3535.131	4509
3536.83	4453
3538.529	4536
3540.227	4487
3541.925	4518
3543.623	4551
3545.319	4499
3547.016	4426
3548.712	4445
3550.408	4416
3552.103	4491
3553.798	4386
3555.491	4347
3557.188	4447
3558.88	4383
3560.574	4382
3562.266	4448
3563.959	4392
3565.651	4427
3567.343	4450
3569.035	4320
3570.725	4336
3572.415	4431
3574.106	4448
3575.797	4299
3577.485	4291
3579.174	4355
3580.863	4399
3582.551	4380
3584.238	4310
3585.926	4382
3587.613	4353
3589.3	4333
3590.986	4382
3592.671	4222
3594.357	4298
3596.042	4284
3597.726	4310
3599.41	4278
3601.094	4215
3602.778	4299
3604.461	4257
3606.143	4263
3607.825	4196
3609.507	4259
3611.188	4203
3612.87	4269
3614.551	4246
3616.229	4116
3617.909	4184
3619.589	4122
3621.269	4270
3622.948	4115
3624.625	4195
3626.302	4160
3627.98	4134
3629.657	4077
3631.334	4159
3633.01	4051
3634.686	4117
3636.361	4104
3638.036	4140
3639.712	4110
3641.385	4147
3643.06	4149
3644.732	4064
3646.405	4090
3648.08	4077
3649.751	4077
3651.424	4016
3653.094	4022
3654.766	4062
3656.436	4093
3658.106	4010
3659.777	4023
3661.446	4037
3663.115	4003
3664.783	3972
3666.452	4049
3668.121	4010
3669.788	4021
3671.454	4013
3673.121	3938
3674.789	4003
3676.455	4054
3678.12	4005
3679.784	4020
3681.45	3960
3683.114	4021
3684.779	3919
3686.442	3999
3688.105	3905
3689.768	3952
3691.43	4039
3693.093	4003
3694.754	3934
3696.415	3893
3698.076	3928
3699.736	3978
3701.396	3938
3703.057	3928
3704.716	3941
3706.375	3985
3708.034	3910
3709.692	3849
3711.351	3970
3713.008	3929
3714.665	3894
3716.321	3897
3717.977	3879
3719.634	3897
3721.29	3980
3722.945	3973
3724.598	3919
3726.253	3868
3727.907	3905
3729.561	3916
3731.214	3908
3732.867	3913
3734.518	3824
3736.171	3840
3737.824	3838
3739.474	3781
3741.125	3795
3742.775	3848
3744.425	3883
3746.074	3810
3747.725	3847
3749.373	3869
3751.022	3887
3752.669	3766
3754.318	3860
3755.966	3802
3757.612	3834
3759.259	3863
3760.905	3866
3762.55	3815
3764.197	3826
3765.842	3869
3767.486	3751
3769.131	3825
3770.774	3774
3772.417	3824
3774.061	3866
3775.705	3718
3777.347	3780
3778.988	3800
3780.629	3812
3782.271	3768
3783.912	3724
3785.552	3700
3787.192	3706
3788.831	3812
3790.472	3667
3792.112	3732
3793.75	3817
3795.388	3744
3797.024	3646
3798.661	3662
3800.3	3708
3801.936	3776
3803.572	3689
3805.208	3666
3806.844	3747
3808.48	3671
3810.115	3691
3811.748	3734
3813.382	3736
3815.016	3739
3816.649	3666
3818.283	3682
3819.914	3693
3821.547	3623
3823.178	3624
3824.809	3658
3826.441	3676
3828.072	3697
3829.701	3621
3831.331	3644
3832.96	3611
3834.591	3571
3836.219	3645
3837.847	3655
3839.475	3598
3841.102	3669
3842.729	3574
3844.357	3627
3845.984	3608
3847.609	3618
3849.234	3608
3850.86	3646
3852.485	3609
3854.11	3647
3855.734	3621
3857.357	3616
3858.981	3603
3860.603	3601
3862.227	3536
3863.848	3629
3865.471	3522
3867.092	3648
3868.713	3606
3870.334	3525
3871.954	3571
3873.575	3551
3875.194	3510
3876.813	3571
3878.433	3569
3880.051	3525
3881.669	3546
3883.286	3549
3884.904	3563
3886.52	3495
3888.138	3598
3889.754	3498
3891.37	3593
3892.985	3526
3894.6	3506
3896.216	3562
3897.831	3420
3899.444	3486
3901.058	3534
3902.67	3445
3904.283	3474
3905.897	3511
3907.509	3539
3909.121	3463
3910.731	3443
3912.342	3522
3913.954	3427
3915.563	3388
3917.174	3467
3918.783	3460
3920.391	3408
3922.002	3467
3923.611	3495
3925.218	3508
3926.826	3449
3928.432	3408
3930.039	3428
3931.647	3361
3933.253	3467
3934.859	3562
3936.464	3414
3938.068	3517
3939.675	3456
3941.278	3451
3942.883	3451
3944.486	3447
3946.089	3407
3947.692	3406
3949.295	3410
3950.898	3408
3952.499	3352
3954.1	3482
3955.7	3401
3957.303	3380
3958.903	3450
3960.502	3441
3962.101	3406
3963.7	3407
3965.301	3380
3966.899	3437
3968.497	3381
3970.094	3367
3971.691	3319
3973.288	3378
3974.885	3411
3976.481	3391
3978.077	3367
3979.672	3392
3981.267	3320
3982.863	3307
3984.457	3251
3986.051	3257
3987.645	3342
3989.238	3356
3990.831	3365
3992.425	3279
3994.017	3261
3995.607	3334
3997.199	3291
3998.79	3363
4000.382	3308
4001.973	3326
4003.561	3215
4005.151	3217
4006.741	3308
4008.331	3271
4009.918	3233
4011.507	3349
4013.095	3280
4014.681	3311
4016.269	3224
4017.856	3239
4019.443	3273
4021.028	3239
4022.614	3279
4024.199	3240
4025.785	3226
4027.37	3256
4028.953	3304
4030.536	3213
4032.12	3306
4033.704	3145
4035.287	3203
4036.869	3218
4038.45	3265
4040.032	3179
4041.613	3184
4043.195	3105
4044.776	3232
4046.356	3189
4047.935	3206
4049.515	3180
4051.095	3116
4052.674	3187
4054.251	3178
4055.829	3197
4057.406	3154
4058.985	3171
4060.562	3159
4062.139	3188
4063.715	3148
4065.29	3182
4066.865	3132
4068.442	3071
4070.016	3145
4071.59	3189
4073.164	3097
4074.738	3115
4076.312	3149
4077.885	3157
4079.458	3115
4081.03	3133
4082.602	3128
4084.173	3088
4085.745	3122
4087.315	3164
4088.886	3071
4090.456	3076
4092.026	3096
4093.596	3036
4095.165	3200
4096.734	3037
4098.301	3045
4099.869	3013
4101.437	3084
4103.006	3071
4104.572	3085
4106.139	3093
4107.704	3078
4109.27	3077
4110.837	3061
4112.401	3056
4113.966	3106
4115.53	3005
4117.094	2984
4118.659	3055
4120.223	3047
4121.785	3048
4123.347	3017
4124.909	3028
4126.471	3060
4128.034	3021
4129.595	3023
4131.155	2963
4132.716	3082
4134.275	3057
4135.836	3051
4137.395	2977
4138.955	3024
4140.513	3017
4142.071	2991
4143.628	2981
4145.188	3005
4146.745	3031
4148.302	2993
4149.858	3028
4151.414	2987
4152.971	2984
4154.526	2996
4156.081	2949
4157.635	2958
4159.189	2908
4160.745	2943
4162.298	2863
4163.852	2929
4165.405	2985
4166.957	2951
4168.51	2929
4170.063	2890
4171.614	2896
4173.166	2926
4174.717	2854
4176.267	2891
4177.817	2941
4179.368	2862
4180.917	2901
4182.466	2946
4184.016	2843
4185.564	2963
4187.112	2892
4188.66	2793
4190.207	2941
4191.754	2872
4193.301	2867
4194.848	2917
4196.394	2818
4197.94	2900
4199.484	2835
4201.03	2912
4202.575	2956
4204.12	2867
4205.663	2857
4207.207	2828
4208.75	2842
4210.292	2823
4211.836	2894
4213.378	2822
4214.92	2876
4216.46	2829
4218.002	2852
4219.544	2792
4221.083	2775
4222.625	2819
4224.164	2828
4225.703	2788
4227.244	2847
4228.782	2881
4230.32	2803
4231.857	2781
4233.395	2863
4234.933	2866
4236.471	2814
4238.007	2847
4239.542	2772
4241.078	2789
4242.614	2797
4244.15	2812
4245.685	2743
4247.219	2821
4248.753	2761
4250.287	2770
4251.82	2806
4253.354	2687
4254.887	2838
4256.419	2714
4257.951	2796
4259.483	2823
4261.016	2791
4262.547	2722
4264.078	2783
4265.608	2781
4267.137	2786
4268.668	2787
4270.197	2653
4271.727	2773
4273.254	2757
4274.783	2736
4276.311	2756
4277.84	2722
4279.366	2726
4280.894	2683
4282.42	2674
4283.946	2766
4285.473	2726
4286.998	2674
4288.523	2773
4290.047	2710
4291.572	2808
4293.096	2696
4294.622	2747
4296.144	2746
4297.668	2682
4299.19	2709
4300.713	2665
4302.236	2712
4303.758	2720
4305.279	2724
4306.799	2751
4308.321	2670
4309.842	2661
4311.361	2717
4312.882	2638
4314.401	2706
