400.0961	6236
402.6185	6308
405.1424	6288
407.6635	6310
410.1838	6276
412.7035	6254
415.2225	6376
417.7388	6407
420.2585	6413
422.7754	6477
425.2917	6581
427.8072	6529
430.3221	6623
432.8363	6720
435.3498	6751
437.8626	6781
440.3727	6649
442.8841	6726
445.3969	6726
447.907	6705
450.4142	6738
452.9229	6622
455.4289	6782
457.9362	6647
460.4449	6884
462.9488	6629
465.454	6753
467.9566	6696
470.4604	6693
472.9637	6642
475.4662	6750
477.966	6724
480.4671	6828
482.9656	6678
485.4633	6735
487.9645	6884
490.4608	6777
492.9566	6737
495.4536	6748
497.948	6775
500.4437	6791
502.9387	6726
505.431	6855
507.9226	6907
510.4136	6853
512.9079	6954
515.3975	6924
517.8864	7022
520.3746	7078
522.8622	6980
525.3491	7024
527.8394	6942
530.3249	7061
532.8098	6952
535.2939	6996
537.7774	7081
540.2623	7014
542.7444	6904
545.2259	7003
547.7067	6971
550.1868	6929
552.6683	6993
555.147	7072
557.6231	6942
560.1005	6928
562.5773	7165
565.0534	7038
567.5308	7176
570.0056	7188
572.4776	7183
574.951	7312
577.4237	7331
579.8978	7252
582.3671	7281
584.8378	7394
587.3079	7402
589.7773	7281
592.244	7449
594.714	7271
597.1793	7369
599.6461	7259
602.1121	7320
604.5754	7279
607.0421	7340
609.5042	7197
611.9675	7299
614.4282	7256
616.8902	7346
619.3515	7236
621.8122	7190
624.2702	7269
626.7296	7319
629.1863	7331
631.6423	7226
634.1017	7166
636.5563	7224
639.0104	7323
641.4658	7340
643.9185	7311
646.3725	7285
648.8239	7265
651.2766	7286
653.7266	7310
656.176	7438
658.6247	7409
661.0748	7379
663.5242	7422
665.9709	7376
668.417	7377
670.8624	7506
673.3092	7404
675.7533	7417
678.1968	7501
680.6395	7540
683.0817	7350
685.5251	7505
687.9659	7441
690.4061	7611
692.8456	7533
695.2844	7515
697.7226	7614
700.1621	7460
702.599	7539
705.0332	7551
707.4688	7536
709.9036	7609
712.3399	7607
714.7735	7657
717.2044	7498
719.6367	7686
722.0683	7698
724.4993	7739
726.9296	7872
729.3593	7888
731.7883	7787
734.2147	7761
736.6423	7790
739.0714	7812
741.4958	7856
743.9216	7924
746.3447	7962
748.7691	7831
751.1929	8017
753.616	8046
756.0366	7947
758.4584	8022
760.8776	8099
763.2982	8095
765.718	8192
768.1373	8113
770.5539	8070
772.9698	8136
775.3871	8117
777.8038	8255
780.2178	8073
782.6332	8224
785.0459	8039
787.458	8126
789.8714	8136
792.2842	8193
794.6943	8007
797.1038	8090
799.5127	8053
801.9209	8133
804.3324	8052
806.7393	8145
809.1456	8207
811.5513	8113
813.9562	8242
816.3625	8231
818.7663	8192
821.1693	8265
823.5718	8268
825.9735	8254
828.3746	8198
830.7771	8192
833.177	8218
835.5762	8209
837.9747	8215
840.3727	8414
842.772	8263
845.1666	8263
847.5626	8330
849.958	8317
852.3527	8450
854.7488	8371
857.1403	8489
859.5331	8445
861.9253	8309
864.3168	8383
866.7057	8262
869.098	8336
871.4876	8415
873.8746	8352
876.263	8325
878.6487	8231
881.0378	8457
883.4243	8376
885.8081	8311
888.1933	8433
890.5759	8386
892.9598	8437
895.343	8388
897.7256	8343
900.1057	8326
902.4871	8398
904.8659	8362
907.246	8269
909.6254	8468
912.0023	8467
914.3786	8551
916.7562	8743
919.1331	8646
921.5074	8651
923.8831	8883
926.2562	8747
928.6287	8737
931.0005	8719
933.3757	8810
935.7462	8868
938.1162	9030
940.4855	9036
942.8542	8934
945.2242	9142
947.5916	9339
949.9584	9484
952.3266	9722
954.6921	10262
957.0571	10446
959.4233	10832
961.787	10924
964.15	10955
966.5125	10642
968.8742	10146
971.2354	9736
973.5959	9476
975.9559	9041
978.3151	9030
980.6738	8987
983.0338	8791
985.3912	8840
987.7461	8736
990.1022	8750
992.4578	8743
994.8127	8701
997.1689	8732
999.5207	8666
1001.874	8863
1004.226	8859
1006.576	8832
1008.929	8709
1011.28	8682
1013.628	8576
1015.977	8787
1018.324	8785
1020.674	8715
1023.019	8837
1025.366	8871
1027.713	8861
1030.056	8827
1032.399	8902
1034.746	8941
1037.087	8996
1039.431	8840
1041.771	8814
1044.113	8915
1046.454	8931
1048.793	8865
1051.133	8725
1053.471	8857
1055.807	8990
1058.146	8970
1060.483	8900
1062.818	8999
1065.153	9101
1067.489	9115
1069.822	9042
1072.156	9174
1074.488	9087
1076.82	9104
1079.15	9040
1081.48	9081
1083.814	9106
1086.143	9013
1088.471	8895
1090.799	8893
1093.126	8924
1095.452	8985
1097.78	8967
1100.105	8862
1102.43	8918
1104.754	9006
1107.077	8902
1109.4	8888
1111.722	8957
1114.044	9016
1116.365	9040
1118.685	8861
1121.005	8912
1123.324	8964
1125.643	9007
1127.961	9032
1130.278	8987
1132.595	8997
1134.911	8943
1137.226	8981
1139.541	8825
1141.854	8908
1144.167	8994
1146.482	8918
1148.793	9011
1151.105	9158
1153.414	9055
1155.725	8940
1158.033	9017
1160.344	9020
1162.651	9027
1164.959	8969
1167.265	8884
1169.572	8898
1171.878	9003
1174.184	9036
1176.488	9036
1178.79	8928
1181.094	8943
1183.396	8970
1185.699	9077
1188.001	8898
1190.301	8910
1192.6	9002
1194.9	8977
1197.2	8931
1199.497	8968
1201.794	8971
1204.09	9020
1206.387	8884
1208.684	8991
1210.978	9116
1213.272	9121
1215.565	8906
1217.858	8962
1220.15	9138
1222.443	8928
1224.734	9075
1227.024	9101
1229.313	8963
1231.602	9159
1233.892	9209
1236.18	9244
1238.467	9206
1240.754	9323
1243.04	9305
1245.325	9162
1247.612	9305
1249.896	9403
1252.178	9329
1254.461	9220
1256.743	9323
1259.027	9405
1261.308	9310
1263.587	9350
1265.867	9291
1268.146	9270
1270.425	9338
1272.703	9287
1274.981	9376
1277.256	9355
1279.532	9300
1281.808	9249
1284.083	9217
1286.358	9211
1288.63	9270
1290.904	9155
1293.175	9191
1295.449	9119
1297.719	9183
1299.99	9029
1302.259	9096
1304.529	9081
1306.798	9355
1309.065	9215
1311.333	9179
1313.599	9096
1315.866	9244
1318.131	9278
1320.396	9127
1322.66	9126
1324.925	9117
1327.187	9128
1329.448	9271
1331.711	9258
1333.974	9203
1336.234	9195
1338.493	9299
1340.752	9345
1343.01	9121
1345.269	9122
1347.526	9266
1349.784	9166
1352.04	9156
1354.295	9242
1356.552	9321
1358.806	9081
1361.059	9110
1363.312	9071
1365.564	9177
1367.818	9158
1370.069	9401
1372.318	9141
1374.568	9229
1376.817	9177
1379.066	9322
1381.316	9202
1383.564	9271
1385.809	9267
1388.056	9393
1390.301	9397
1392.549	9326
1394.793	9418
1397.036	9345
1399.279	9409
1401.522	9510
1403.763	9553
1406.007	9461
1408.248	9414
1410.487	9480
1412.727	9369
1414.965	9420
1417.205	9475
1419.442	9518
1421.68	9614
1423.915	9629
1426.152	9508
1428.388	9441
1430.623	9453
1432.857	9677
1435.091	9557
1437.323	9637
1439.556	9655
1441.789	9606
1444.019	9555
1446.25	9590
1448.48	9586
1450.708	9676
1452.938	9691
1455.167	9766
1457.394	9764
1459.62	9509
1461.846	9659
1464.073	9613
1466.299	9583
1468.523	9625
1470.746	9509
1472.969	9475
1475.191	9458
1477.415	9446
1479.636	9444
1481.858	9322
1484.078	9363
1486.298	9349
1488.518	9347
1490.736	9316
1492.954	9353
1495.169	9233
1497.386	9266
1499.602	9320
1501.819	9221
1504.034	9189
1506.248	9278
1508.462	9241
1510.675	9291
1512.888	9282
1515.1	9223
1517.311	9244
1519.522	9028
1521.732	9188
1523.942	9336
1526.151	9088
1528.36	9227
1530.566	9193
1532.773	9178
1534.98	9350
1537.187	9122
1539.392	9174
1541.596	9291
1543.801	9230
1546.005	9321
1548.208	9277
1550.411	9301
1552.612	9284
1554.814	9285
1557.013	9280
1559.212	9387
1561.414	9488
1563.612	9457
1565.811	9293
1568.007	9390
1570.203	9417
1572.403	9283
1574.598	9294
1576.792	9431
1578.988	9427
1581.181	9553
1583.376	9429
1585.568	9399
1587.761	9433
1589.952	9494
1592.143	9411
1594.333	9583
1596.524	9440
1598.715	9428
1600.903	9581
1603.091	9447
1605.278	9543
1607.466	9658
1609.652	9474
1611.838	9465
1614.023	9450
1616.207	9504
1618.391	9580
1620.576	9506
1622.759	9585
1624.941	9540
1627.123	9399
1629.304	9694
1631.484	9510
1633.664	9583
1635.844	9706
1638.022	9604
1640.201	9531
1642.38	9657
1644.556	9870
1646.732	9701
1648.908	9616
1651.084	9739
1653.257	9649
1655.433	9630
1657.607	9648
1659.779	9617
1661.951	9740
1664.122	9597
1666.295	9772
1668.467	9717
1670.635	9782
1672.805	9796
1674.973	9692
1677.142	9686
1679.31	9675
1681.478	9655
1683.644	9702
1685.81	9650
1687.975	9701
1690.142	9542
1692.305	9618
1694.468	9565
1696.632	9594
1698.794	9729
1700.957	9551
1703.119	9536
1705.279	9572
1707.439	9507
1709.598	9390
1711.758	9532
1713.917	9396
1716.075	9510
1718.231	9545
1720.388	9329
1722.543	9411
1724.702	9604
1726.856	9447
1729.01	9432
1731.164	9562
1733.317	9400
1735.471	9384
1737.623	9491
1739.774	9423
1741.925	9393
1744.075	9409
1746.225	9444
1748.376	9416
1750.524	9550
1752.672	9518
1754.82	9451
1756.965	9560
1759.113	9471
1761.259	9501
1763.405	9634
1765.549	9500
1767.694	9433
1769.836	9497
1771.981	9537
1774.123	9503
1776.264	9511
1778.405	9536
1780.546	9626
1782.687	9591
1784.827	9405
1786.966	9571
1789.103	9628
1791.242	9453
1793.381	9580
1795.517	9482
1797.653	9604
1799.788	9688
1801.923	9726
1804.057	9574
1806.193	9544
1808.326	9532
1810.457	9595
1812.59	9578
1814.721	9661
1816.855	9494
1818.984	9541
1821.113	9640
1823.244	9638
1825.372	9634
1827.499	9444
1829.63	9601
1831.756	9485
1833.882	9515
1836.007	9505
1838.132	9630
1840.26	9337
1842.384	9507
1844.507	9479
1846.63	9517
1848.752	9473
1850.875	9476
1852.996	9523
1855.118	9435
1857.238	9439
1859.358	9419
1861.477	9408
1863.597	9418
1865.715	9343
1867.832	9381
1869.948	9506
1872.064	9392
1874.181	9401
1876.297	9436
1878.411	9449
1880.526	9401
1882.639	9469
1884.752	9374
1886.865	9434
1888.977	9431
1891.089	9567
1893.2	9471
1895.308	9351
1897.42	9472
1899.53	9694
1901.639	9514
1903.745	9568
1905.853	9500
1907.962	9582
1910.067	9525
1912.174	9593
1914.278	9552
1916.383	9551
1918.486	9510
1920.592	9651
1922.694	9562
1924.797	9427
1926.898	9576
1929	9696
1931.102	9526
1933.203	9544
1935.301	9662
1937.401	9592
1939.499	9738
1941.598	9563
1943.697	9680
1945.793	9556
1947.888	9649
1949.985	9436
1952.08	9675
1954.176	9559
1956.269	9623
1958.364	9503
1960.457	9584
1962.549	9618
1964.642	9544
1966.733	9523
1968.823	9547
1970.913	9648
1973.005	9467
1975.093	9581
1977.184	9673
1979.271	9474
1981.359	9574
1983.446	9644
1985.532	9600
1987.619	9564
1989.705	9540
1991.789	9442
1993.874	9544
1995.956	9448
1998.041	9481
2000.123	9442
2002.206	9535
2004.287	9435
2006.368	9433
2008.449	9488
2010.529	9470
2012.609	9445
2014.688	9515
2016.766	9427
2018.843	9477
2020.922	9433
2022.999	9420
2025.074	9316
2027.15	9411
2029.225	9648
2031.299	9594
2033.375	9531
2035.447	9500
2037.52	9394
2039.592	9430
2041.664	9449
2043.736	9390
2045.807	9491
2047.876	9430
2049.947	9443
2052.015	9442
2054.086	9535
2056.153	9407
2058.221	9517
2060.288	9571
2062.353	9380
2064.42	9489
2066.486	9459
2068.55	9574
2070.614	9532
2072.678	9503
2074.741	9383
2076.805	9487
2078.866	9472
2080.929	9490
2082.99	9484
2085.049	9270
2087.109	9535
2089.17	9396
2091.228	9323
2093.286	9370
2095.344	9380
2097.4	9460
2099.46	9384
2101.516	9351
2103.572	9530
2105.626	9473
2107.679	9424
2109.735	9384
2111.788	9314
2113.841	9561
2115.894	9572
2117.945	9483
2119.997	9338
2122.049	9416
2124.1	9553
2126.148	9414
2128.197	9527
2130.246	9528
2132.296	9394
2134.342	9444
2136.39	9351
2138.437	9546
2140.483	9417
2142.527	9358
2144.574	9333
2146.619	9256
2148.661	9342
2150.705	9348
2152.747	9416
2154.792	9414
2156.832	9492
2158.874	9276
2160.915	9205
2162.954	9326
2164.995	9386
2167.034	9427
2169.072	9250
2171.111	9431
2173.148	9394
2175.186	9341
2177.223	9105
2179.258	9157
2181.294	9229
2183.328	9231
2185.362	9321
2187.398	9256
2189.431	9358
2191.463	9326
2193.495	9178
2195.528	9044
2197.56	9185
2199.59	9186
2201.62	9168
2203.649	9146
2205.678	9144
2207.708	9170
2209.737	9073
2211.764	9260
2213.791	9102
2215.817	9177
2217.843	9175
2219.87	9126
2221.895	9096
2223.919	9102
2225.942	9180
2227.966	9161
2229.988	9150
2232.012	9012
2234.032	9253
2236.054	9182
2238.074	9178
2240.095	9209
2242.116	9076
2244.135	9172
2246.153	9170
2248.171	9090
2250.188	9149
2252.208	9080
2254.223	9222
2256.239	9118
2258.255	9073
2260.269	9168
2262.283	9092
2264.3	8955
2266.312	9142
2268.325	9164
2270.336	9059
2272.349	9036
2274.362	9091
2276.372	9133
2278.383	9035
2280.392	8989
2282.402	9008
2284.409	8996
2286.418	9143
2288.427	9079
2290.433	9029
2292.441	9163
2294.446	9078
2296.453	9138
2298.459	9011
2300.463	9145
2302.466	9148
2304.471	9079
2306.475	9006
2308.477	9062
2310.478	9055
2312.481	9079
2314.481	9077
2316.481	9043
2318.482	9091
2320.482	9023
2322.48	9042
2324.48	9044
2326.478	9009
2328.476	8970
2330.473	9035
2332.469	8968
2334.465	8901
2336.46	8895
2338.454	8922
2340.45	9002
2342.444	8866
2344.437	8883
2346.43	8844
2348.421	8788
2350.414	8919
2352.405	8941
2354.396	8942
2356.386	8891
2358.376	8830
2360.366	8880
2362.355	8888
2364.343	8904
2366.331	8819
2368.317	8893
2370.304	8771
2372.292	8924
2374.278	8885
2376.262	8878
2378.247	8865
2380.23	8902
2382.216	8889
2384.199	8692
2386.181	8739
2388.163	8731
2390.144	8739
2392.127	8812
2394.107	8742
2396.087	8752
2398.066	8772
2400.046	8850
2402.023	8777
2404.004	8757
2405.981	8754
2407.957	8730
2409.934	8618
2411.91	8599
2413.886	8690
2415.862	8640
2417.836	8683
2419.809	8687
2421.784	8686
2423.756	8734
2425.73	8725
2427.701	8700
2429.672	8742
2431.644	8739
2433.615	8737
2435.586	8625
2437.555	8788
2439.523	8659
2441.491	8747
2443.459	8860
2445.428	8807
2447.395	8649
2449.361	8600
2451.327	8634
2453.292	8548
2455.257	8636
2457.223	8646
2459.187	8709
2461.15	8632
2463.113	8555
2465.076	8606
2467.039	8630
2468.999	8572
2470.96	8413
2472.921	8517
2474.881	8636
2476.841	8517
2478.8	8578
2480.759	8605
2482.717	8552
2484.675	8506
2486.63	8604
2488.589	8550
2490.545	8456
2492.5	8509
2494.455	8581
2496.408	8580
2498.364	8626
2500.318	8583
2502.27	8536
2504.223	8576
2506.174	8584
2508.126	8497
2510.078	8361
2512.03	8346
2513.979	8503
2515.927	8403
2517.877	8490
2519.826	8430
2521.775	8582
2523.722	8380
2525.668	8424
2527.616	8524
2529.561	8442
2531.508	8492
2533.452	8558
2535.398	8505
2537.342	8493
2539.284	8482
2541.229	8516
2543.173	8338
2545.114	8391
2547.055	8589
2548.996	8449
2550.938	8466
2552.878	8529
2554.817	8583
2556.756	8448
2558.695	8502
2560.633	8354
2562.572	8325
2564.509	8518
2566.445	8417
2568.382	8491
2570.317	8372
2572.254	8445
2574.189	8397
2576.123	8450
2578.057	8407
2579.99	8404
2581.923	8544
2583.855	8378
2585.788	8567
2587.719	8460
2589.65	8508
2591.579	8364
2593.511	8585
2595.44	8451
2597.37	8376
2599.297	8501
2601.225	8389
2603.153	8424
2605.08	8325
2607.007	8327
2608.932	8417
2610.858	8317
2612.782	8465
2614.709	8498
2616.632	8386
2618.556	8560
2620.478	8428
2622.401	8418
2624.324	8520
2626.247	8474
2628.167	8411
2630.088	8352
2632.008	8474
2633.928	8573
2635.848	8551
2637.766	8311
2639.684	8310
2641.603	8385
2643.519	8552
2645.437	8426
2647.353	8482
2649.27	8440
2651.184	8405
2653.099	8443
2655.014	8524
2656.928	8418
2658.842	8435
2660.755	8431
2662.667	8311
2664.579	8311
2666.491	8405
2668.402	8315
2670.312	8433
2672.222	8397
2674.132	8358
2676.042	8335
2677.951	8383
2679.859	8344
2681.766	8319
2683.674	8315
2685.582	8237
2687.488	8289
2689.392	8354
2691.298	8364
2693.202	8183
2695.107	8305
2697.012	8142
2698.914	8420
2700.817	8087
2702.72	8241
2704.622	8275
2706.524	8312
2708.425	8227
2710.326	8372
2712.225	8274
2714.125	8139
2716.024	8290
2717.923	8187
2719.822	8316
2721.719	8159
2723.616	8215
2725.512	8395
2727.41	8256
2729.305	8179
2731.201	8223
2733.095	8196
2734.99	8198
2736.884	8159
2738.778	8083
2740.67	8159
2742.562	8261
2744.455	8146
2746.346	8204
2748.238	8174
2750.129	8107
2752.018	8166
2753.907	8014
2755.797	8216
2757.687	8065
2759.575	8150
2761.462	8019
2763.349	8145
2765.237	8093
2767.124	8135
2769.009	8219
2770.894	7949
2772.779	8005
2774.663	8129
2776.547	8027
2778.431	8095
2780.314	8080
2782.197	8022
2784.078	8050
2785.96	8027
2787.842	8166
2789.723	7926
2791.603	8119
2793.483	8029
2795.362	8181
2797.241	8184
2799.121	7973
2800.997	8037
2802.874	8035
2804.751	8097
2806.628	8011
2808.506	8018
2810.38	7964
2812.255	7952
2814.13	8082
2816.003	8080
2817.878	7954
2819.752	8070
2821.623	8013
2823.496	8027
2825.368	8019
2827.238	8006
2829.111	7989
2830.98	7996
2832.851	8027
2834.719	7958
2836.589	7947
2838.458	7901
2840.327	7924
2842.193	8102
2844.061	7934
2845.927	7981
2847.794	7971
2849.66	7965
2851.525	7991
2853.39	8038
2855.254	8033
2857.117	8077
2858.983	7983
2860.845	8294
2862.707	8076
2864.569	8134
2866.431	8069
2868.293	8138
2870.154	8296
2872.013	8334
2873.873	8351
2875.733	8325
2877.592	8555
2879.451	8533
2881.309	8574
2883.166	8543
2885.022	8642
2886.879	8612
2888.736	8658
2890.591	8539
2892.446	8755
2894.301	8543
2896.155	8635
2898.009	8619
2899.863	8737
2901.716	8436
2903.568	8648
2905.419	8532
2907.27	8673
2909.123	8571
2910.973	8610
2912.824	8552
2914.673	8765
2916.521	8849
2918.372	8827
2920.22	8885
2922.067	8877
2923.914	9060
2925.761	9097
2927.607	9180
2929.455	9160
2931.301	9175
2933.144	9256
2934.99	9264
2936.833	9350
2938.678	9426
2940.522	9389
2942.364	9512
2944.207	9604
2946.048	9565
2947.891	9825
2949.731	9684
2951.571	9746
2953.412	9622
2955.25	9467
2957.09	9429
2958.93	9312
2960.767	9341
2962.606	9181
2964.443	9096
2966.279	9173
2968.116	9035
2969.953	8981
2971.788	8927
2973.623	8752
2975.457	8748
2977.292	8824
2979.127	8666
2980.959	8718
2982.792	8660
2984.624	8652
2986.455	8469
2988.288	8586
2990.119	8448
2991.949	8513
2993.779	8449
2995.608	8396
2997.439	8316
2999.268	8294
3001.096	8237
3002.923	8063
3004.751	8235
3006.578	8155
3008.406	7999
3010.232	7918
3012.057	7892
3013.883	7864
3015.706	7795
3017.532	7694
3019.356	7861
3021.179	7644
3023.002	7809
3024.823	7715
3026.646	7648
3028.469	7658
3030.289	7508
3032.11	7722
3033.93	7731
3035.749	7610
3037.57	7517
3039.39	7419
3041.207	7552
3043.026	7506
3044.842	7524
3046.661	7429
3048.477	7519
3050.294	7476
3052.109	7536
3053.925	7427
3055.739	7491
3057.555	7650
3059.368	7363
3061.181	7547
3062.995	7490
3064.807	7524
3066.62	7482
3068.433	7385
3070.243	7476
3072.054	7409
3073.865	7394
3075.675	7501
3077.485	7344
3079.293	7393
3081.102	7464
3082.911	7348
3084.719	7227
3086.527	7297
3088.333	7315
3090.139	7411
3091.945	7305
3093.75	7270
3095.557	7210
3097.361	7341
3099.165	7326
3100.969	7254
3102.772	7197
3104.575	7239
3106.379	7190
3108.181	7163
3109.982	7292
3111.783	7126
3113.584	7311
3115.386	7135
3117.186	7115
3118.985	7223
3120.783	7110
3122.582	7176
3124.381	7008
3126.179	7197
3127.975	7057
3129.772	7173
3131.569	7150
3133.365	7055
3135.161	6988
3136.956	7150
3138.751	7056
3140.544	6999
3142.338	7058
3144.132	6990
3145.925	7115
3147.717	7008
3149.509	7134
3151.301	7052
3153.091	6890
3154.884	6998
3156.673	7181
3158.462	7015
3160.252	7144
3162.041	7007
3163.831	6988
3165.618	6944
3167.405	7080
3169.193	7008
3170.979	6981
3172.767	6963
3174.553	6908
3176.338	6899
3178.123	7046
3179.907	7050
3181.692	6969
3183.477	7053
3185.259	6994
3187.042	6956
3188.824	6956
3190.607	6930
3192.389	6771
3194.17	6967
3195.951	7017
3197.73	6891
3199.51	6832
3201.289	6962
3203.07	6918
3204.848	7060
3206.626	6948
3208.403	6916
3210.18	6889
3211.959	6958
3213.735	6885
3215.511	6846
3217.285	6883
3219.06	6826
3220.836	7010
3222.611	6819
3224.384	6925
3226.158	6833
3227.929	6885
3229.702	6974
3231.476	6800
3233.248	6984
3235.018	6876
3236.789	6859
3238.56	6865
3240.33	6893
3242.1	6898
3243.869	6809
3245.637	6936
3247.405	6719
3249.172	6811
3250.941	6921
3252.707	6766
3254.474	6850
3256.24	6878
3258.006	6838
3259.772	6855
3261.537	6881
3263.301	6896
3265.065	6753
3266.828	6897
3268.592	6960
3270.355	6922
3272.117	6923
3273.878	6857
3275.64	6891
3277.401	6858
3279.162	6893
3280.922	6815
3282.682	6886
3284.441	6928
3286.199	6765
3287.959	6809
3289.716	6836
3291.475	6749
3293.232	6853
3294.988	6792
3296.744	6754
3298.501	6821
3300.256	6801
3302.011	6795
3303.766	6937
3305.52	6930
3307.275	6746
3309.028	6798
3310.781	6839
3312.533	6953
3314.285	6753
3316.038	6782
3317.789	6812
3319.54	6753
3321.289	6836
3323.039	6750
3324.789	6739
3326.539	6735
3328.288	6754
3330.035	6828
3331.783	6700
3333.531	6809
3335.28	6795
3337.025	6636
3338.771	6745
3340.518	6745
3342.262	6632
3344.009	6834
3345.753	6650
3347.497	6730
3349.24	6735
3350.983	6874
3352.726	6704
3354.469	6615
3356.212	6657
3357.952	6590
3359.694	6551
3361.434	6637
3363.176	6564
3364.916	6687
3366.654	6580
3368.394	6531
3370.132	6651
3371.871	6521
3373.61	6520
3375.346	6656
3377.083	6492
3378.82	6581
3380.556	6634
3382.292	6528
3384.027	6484
3385.763	6435
3387.497	6567
3389.231	6428
3390.965	6535
3392.698	6496
3394.431	6493
3396.164	6515
3397.896	6431
3399.627	6572
3401.36	6414
3403.09	6582
3404.82	6503
3406.55	6467
3408.279	6621
3410.01	6612
3411.738	6455
3413.467	6418
3415.194	6314
3416.92	6393
3418.647	6457
3420.375	6378
3422.102	6402
3423.827	6326
3425.553	6468
3427.277	6318
3429.003	6488
3430.727	6408
3432.451	6372
3434.173	6376
3435.896	6306
3437.62	6273
3439.343	6273
3441.063	6382
3442.785	6405
3444.505	6284
3446.226	6283
3447.948	6334
3449.666	6241
3451.386	6333
3453.104	6188
3454.823	6273
3456.541	6277
3458.259	6288
3459.976	6214
3461.693	6205
3463.408	6232
3465.125	6186
3466.841	6175
3468.556	6173
3470.271	6290
3471.985	6169
3473.698	6074
3475.414	6172
3477.126	6156
3478.838	6091
3480.55	6097
3482.263	6121
3483.975	6035
3485.686	6081
3487.396	6054
3489.106	6201
3490.817	6059
3492.526	6077
3494.236	5975
3495.944	6141
3497.652	6023
3499.359	6036
3501.066	6037
3502.775	6060
3504.481	6036
3506.187	5965
3507.893	5983
3509.598	5905
3511.304	5987
3513.009	5937
3514.713	5977
3516.417	6003
3518.12	6012
3519.821	5976
3521.525	5954
3523.228	5943
3524.929	5868
3526.631	5897
3528.33	5812
3530.032	5927
3531.733	5844
3533.433	5873
3535.131	5856
3536.83	5856
3538.529	5897
3540.227	5896
3541.925	5920
3543.623	5849
3545.319	5896
3547.016	5773
3548.712	5710
3550.408	5794
3552.103	5849
3553.798	5812
3555.491	5811
3557.188	5778
3558.88	5666
3560.574	5726
3562.266	5777
3563.959	5855
3565.651	5741
3567.343	5682
3569.035	5700
3570.725	5805
3572.415	5696
3574.106	5708
3575.797	5648
3577.485	5663
3579.174	5702
3580.863	5706
3582.551	5735
3584.238	5622
3585.926	5755
3587.613	5667
3589.3	5660
3590.986	5592
3592.671	5578
3594.357	5600
3596.042	5650
3597.726	5574
3599.41	5649
3601.094	5507
3602.778	5513
3604.461	5523
3606.143	5635
3607.825	5575
3609.507	5534
3611.188	5494
3612.87	5474
3614.551	5510
3616.229	5538
3617.909	5430
3619.589	5481
3621.269	5570
3622.948	5585
3624.625	5320
3626.302	5377
3627.98	5401
3629.657	5409
3631.334	5450
3633.01	5516
3634.686	5407
3636.361	5408
3638.036	5336
3639.712	5384
3641.385	5514
3643.06	5407
3644.732	5332
3646.405	5304
3648.08	5291
3649.751	5271
3651.424	5370
3653.094	5171
3654.766	5349
3656.436	5347
3658.106	5222
3659.777	5250
3661.446	5242
3663.115	5248
3664.783	5340
3666.452	5297
3668.121	5249
3669.788	5246
3671.454	5218
3673.121	5217
3674.789	5287
3676.455	5220
3678.12	5222
3679.784	5279
3681.45	5240
3683.114	5176
3684.779	5217
3686.442	5186
3688.105	5201
3689.768	5234
3691.43	5148
3693.093	5074
3694.754	5194
3696.415	5113
3698.076	5131
3699.736	5154
3701.396	5272
3703.057	5258
3704.716	5168
3706.375	5163
3708.034	5175
3709.692	5140
3711.351	5024
3713.008	5133
3714.665	5058
3716.321	5154
3717.977	5184
3719.634	5091
3721.29	5128
3722.945	5056
3724.598	5017
3726.253	5152
3727.907	5047
3729.561	5061
3731.214	5040
3732.867	5048
3734.518	5053
3736.171	4958
3737.824	5089
3739.474	5072
3741.125	5107
3742.775	5062
3744.425	5105
3746.074	5057
3747.725	4919
3749.373	4981
3751.022	4984
3752.669	5031
3754.318	4914
3755.966	4984
3757.612	5021
3759.259	4989
3760.905	4974
3762.55	4964
3764.197	4968
3765.842	4964
3767.486	4929
3769.131	4878
3770.774	4917
3772.417	4918
3774.061	5033
3775.705	4902
3777.347	5014
3778.988	4983
3780.629	4890
3782.271	4844
3783.912	4951
3785.552	4867
3787.192	5000
3788.831	4909
3790.472	4866
3792.112	4855
3793.75	4786
3795.388	4755
3797.024	4796
3798.661	4785
3800.3	4988
3801.936	4878
3803.572	4865
3805.208	4782
3806.844	4858
3808.48	4759
3810.115	4745
3811.748	4858
3813.382	4798
3815.016	4779
3816.649	4783
3818.283	4726
3819.914	4771
3821.547	4761
3823.178	4740
3824.809	4656
3826.441	4670
3828.072	4840
3829.701	4725
3831.331	4786
3832.96	4808
3834.591	4703
3836.219	4751
3837.847	4752
3839.475	4780
3841.102	4706
3842.729	4703
3844.357	4762
3845.984	4656
3847.609	4636
3849.234	4688
3850.86	4645
3852.485	4701
3854.11	4534
3855.734	4664
3857.357	4729
3858.981	4679
3860.603	4697
3862.227	4651
3863.848	4689
3865.471	4580
3867.092	4642
3868.713	4667
3870.334	4704
3871.954	4621
3873.575	4666
3875.194	4594
3876.813	4564
3878.433	4701
3880.051	4614
3881.669	4548
3883.286	4589
3884.904	4510
3886.52	4633
3888.138	4589
3889.754	4509
3891.37	4612
3892.985	4517
3894.6	4559
3896.216	4508
3897.831	4475
3899.444	4562
3901.058	4491
3902.67	4487
3904.283	4521
3905.897	4557
3907.509	4526
3909.121	4435
3910.731	4529
3912.342	4569
3913.954	4466
3915.563	4529
3917.174	4583
3918.783	4440
3920.391	4463
3922.002	4495
3923.611	4416
3925.218	4500
3926.826	4508
3928.432	4440
3930.039	4495
3931.647	4431
3933.253	4532
3934.859	4510
3936.464	4459
3938.068	4426
3939.675	4441
3941.278	4521
3942.883	4390
3944.486	4504
3946.089	4512
3947.692	4378
3949.295	4425
3950.898	4524
3952.499	4399
3954.1	4407
3955.7	4418
3957.303	4477
3958.903	4470
3960.502	4454
3962.101	4401
3963.7	4457
3965.301	4415
3966.899	4315
3968.497	4451
3970.094	4289
3971.691	4346
3973.288	4423
3974.885	4312
3976.481	4358
3978.077	4302
3979.672	4372
3981.267	4392
3982.863	4373
3984.457	4349
3986.051	4281
3987.645	4317
3989.238	4324
3990.831	4258
3992.425	4295
3994.017	4308
3995.607	4274
3997.199	4326
3998.79	4201
4000.382	4262
4001.973	4170
4003.561	4236
4005.151	4214
4006.741	4207
4008.331	4269
4009.918	4159
4011.507	4306
4013.095	4238
4014.681	4146
4016.269	4101
4017.856	4183
4019.443	4176
4021.028	4199
4022.614	4137
4024.199	4118
4025.785	4122
4027.37	4206
4028.953	4076
4030.536	4094
4032.12	4163
4033.704	4127
4035.287	4127
4036.869	4151
4038.45	4166
4040.032	4137
4041.613	4091
4043.195	4115
4044.776	4148
4046.356	4181
4047.935	4133
4049.515	4088
4051.095	4132
4052.674	4053
4054.251	4110
4055.829	4013
4057.406	4112
4058.985	4094
4060.562	4024
4062.139	4048
4063.715	4112
4065.29	4057
4066.865	4170
4068.442	4035
4070.016	4025
4071.59	4092
4073.164	4081
4074.738	4030
4076.312	4040
4077.885	3952
4079.458	3971
4081.03	4015
4082.602	4073
4084.173	3991
4085.745	4064
4087.315	3957
4088.886	4088
4090.456	4010
4092.026	4018
4093.596	4032
4095.165	3947
4096.734	4013
4098.301	3941
4099.869	4022
4101.437	3990
4103.006	3968
4104.572	3918
4106.139	3872
4107.704	3958
4109.27	3970
4110.837	4006
4112.401	3891
4113.966	3864
4115.53	3888
4117.094	3911
4118.659	3987
4120.223	3775
4121.785	3927
4123.347	3871
4124.909	3894
4126.471	3840
4128.034	3866
4129.595	3869
4131.155	3897
4132.716	3813
4134.275	3902
4135.836	3990
4137.395	3736
4138.955	3746
4140.513	3849
4142.071	3872
4143.628	3812
4145.188	3813
4146.745	3727
4148.302	3728
4149.858	3745
4151.414	3748
4152.971	3781
4154.526	3833
4156.081	3766
4157.635	3774
4159.189	3749
4160.745	3773
4162.298	3780
4163.852	3758
4165.405	3819
4166.957	3799
4168.51	3749
4170.063	3689
4171.614	3649
4173.166	3673
4174.717	3676
4176.267	3689
4177.817	3728
4179.368	3692
4180.917	3670
4182.466	3686
4184.016	3642
4185.564	3719
4187.112	3666
4188.66	3726
4190.207	3619
4191.754	3639
4193.301	3660
4194.848	3713
4196.394	3625
4197.94	3678
4199.484	3604
4201.03	3591
4202.575	3590
4204.12	3538
4205.663	3611
4207.207	3609
4208.75	3567
4210.292	3564
4211.836	3673
4213.378	3618
4214.92	3601
4216.46	3608
4218.002	3592
4219.544	3591
4221.083	3613
4222.625	3570
4224.164	3622
4225.703	3576
4227.244	3562
4228.782	3580
4230.32	3619
4231.857	3602
4233.395	3545
4234.933	3522
4236.471	3599
4238.007	3540
4239.542	3588
4241.078	3591
4242.614	3492
4244.15	3526
4245.685	3495
4247.219	3513
4248.753	3536
4250.287	3484
4251.82	3565
4253.354	3515
4254.887	3558
4256.419	3497
4257.951	3510
4259.483	3501
4261.016	3505
4262.547	3459
4264.078	3484
4265.608	3532
4267.137	3496
4268.668	3513
4270.197	3494
4271.727	3493
4273.254	3487
4274.783	3429
4276.311	3431
4277.84	3506
4279.366	3498
4280.894	3461
4282.42	3400
4283.946	3441
4285.473	3485
4286.998	3487
4288.523	3455
4290.047	3470
4291.572	3492
4293.096	3398
4294.622	3353
4296.144	3358
4297.668	3425
4299.19	3392
4300.713	3360
4302.236	3372
4303.758	3355
4305.279	3407
4306.799	3379
4308.321	3404
4309.842	3395
4311.361	3341
4312.882	3459
4314.401	3382
