400.0961	4151
402.6185	4225
405.1424	4243
407.6635	4252
410.1838	4231
412.7035	4368
415.2225	4324
417.7388	4328
420.2585	4313
422.7754	4389
425.2917	4476
427.8072	4479
430.3221	4536
432.8363	4599
435.3498	4565
437.8626	4649
440.3727	4547
442.8841	4605
445.3969	4484
447.907	4543
450.4142	4548
452.9229	4511
455.4289	4554
457.9362	4562
460.4449	4559
462.9488	4518
465.454	4522
467.9566	4533
470.4604	4439
472.9637	4420
475.4662	4431
477.966	4424
480.4671	4552
482.9656	4511
485.4633	4536
487.9645	4537
490.4608	4501
492.9566	4461
495.4536	4579
497.948	4589
500.4437	4495
502.9387	4530
505.431	4622
507.9226	4529
510.4136	4513
512.9079	4464
515.3975	4584
517.8864	4564
520.3746	4625
522.8622	4586
525.3491	4642
527.8394	4525
530.3249	4649
532.8098	4626
535.2939	4694
537.7774	4589
540.2623	4662
542.7444	4725
545.2259	4679
547.7067	4637
550.1868	4611
552.6683	4564
555.147	4712
557.6231	4642
560.1005	4810
562.5773	4712
565.0534	4695
567.5308	4762
570.0056	4799
572.4776	4811
574.951	4692
577.4237	4784
579.8978	4916
582.3671	4866
584.8378	4862
587.3079	4905
589.7773	4908
592.244	4842
594.714	4939
597.1793	4893
599.6461	4800
602.1121	4789
604.5754	4861
607.0421	4787
609.5042	4804
611.9675	4805
614.4282	4784
616.8902	4826
619.3515	4866
621.8122	4750
624.2702	4857
626.7296	4855
629.1863	4776
631.6423	4849
634.1017	4712
636.5563	4750
639.0104	4830
641.4658	4864
643.9185	4905
646.3725	4924
648.8239	4758
651.2766	4829
653.7266	4879
656.176	4799
658.6247	4847
661.0748	4878
663.5242	4814
665.9709	4857
668.417	4871
670.8624	4909
673.3092	4931
675.7533	5028
678.1968	4877
680.6395	5002
683.0817	4926
685.5251	4944
687.9659	4935
690.4061	5016
692.8456	4939
695.2844	4965
697.7226	5041
700.1621	5023
702.599	5063
705.0332	4983
707.4688	5106
709.9036	5034
712.3399	5105
714.7735	5047
717.2044	5071
719.6367	5052
722.0683	5054
724.4993	5069
726.9296	5103
729.3593	5212
731.7883	5084
734.2147	5223
736.6423	5112
739.0714	5211
741.4958	5108
743.9216	5248
746.3447	5167
748.7691	5156
751.1929	5291
753.616	5270
756.0366	5310
758.4584	5288
760.8776	5313
763.2982	5338
765.718	5230
768.1373	5401
770.5539	5313
772.9698	5389
775.3871	5375
777.8038	5316
780.2178	5365
782.6332	5383
785.0459	5273
787.458	5356
789.8714	5340
792.2842	5357
794.6943	5339
797.1038	5274
799.5127	5354
801.9209	5323
804.3324	5366
806.7393	5457
809.1456	5381
811.5513	5478
813.9562	5472
816.3625	5435
818.7663	5464
821.1693	5454
823.5718	5425
825.9735	5467
828.3746	5423
830.7771	5405
833.177	5446
835.5762	5504
837.9747	5423
840.3727	5528
842.772	5484
845.1666	5602
847.5626	5550
849.958	5638
852.3527	5576
854.7488	5659
857.1403	5639
859.5331	5658
861.9253	5702
864.3168	5538
866.7057	5643
869.098	5666
871.4876	5562
873.8746	5539
876.263	5480
878.6487	5608
881.0378	5487
883.4243	5524
885.8081	5632
888.1933	5486
890.5759	5444
892.9598	5528
895.343	5498
897.7256	5578
900.1057	5517
902.4871	5594
904.8659	5600
907.246	5635
909.6254	5764
912.0023	5786
914.3786	5777
916.7562	5838
919.1331	5945
921.5074	6109
923.8831	6131
926.2562	6086
928.6287	6021
931.0005	5955
933.3757	6038
935.7462	5916
938.1162	5995
940.4855	5982
942.8542	6084
945.2242	6123
947.5916	6302
949.9584	6312
952.3266	6558
954.6921	6748
957.0571	7007
959.4233	7383
961.787	7349
964.15	7312
966.5125	7179
968.8742	6908
971.2354	6602
973.5959	6423
975.9559	6157
978.3151	5997
980.6738	6022
983.0338	5907
985.3912	5877
987.7461	5817
990.1022	5827
992.4578	5807
994.8127	5832
997.1689	5747
999.5207	5868
1001.874	5814
1004.226	5854
1006.576	5814
1008.929	5842
1011.28	5778
1013.628	5814
1015.977	5684
1018.324	5828
1020.674	5777
1023.019	5897
1025.366	5895
1027.713	5961
1030.056	5848
1032.399	5873
1034.746	5970
1037.087	5947
1039.431	5806
1041.771	5875
1044.113	5921
1046.454	5866
1048.793	6037
1051.133	6000
1053.471	5986
1055.807	5901
1058.146	6024
1060.483	5953
1062.818	5940
1065.153	6044
1067.489	6054
1069.822	5965
1072.156	6129
1074.488	5976
1076.82	6000
1079.15	6061
1081.48	6051
1083.814	5985
1086.143	5980
1088.471	5974
1090.799	5908
1093.126	5807
1095.452	5937
1097.78	6033
1100.105	5885
1102.43	5840
1104.754	5859
1107.077	5899
1109.4	5916
1111.722	5959
1114.044	5851
1116.365	5912
1118.685	5896
1121.005	5937
1123.324	5986
1125.643	5972
1127.961	5977
1130.278	5976
1132.595	5888
1134.911	5868
1137.226	5879
1139.541	5882
1141.854	5978
1144.167	5906
1146.482	5930
1148.793	5926
1151.105	5858
1153.414	5884
1155.725	5983
1158.033	5937
1160.344	5927
1162.651	6025
1164.959	5988
1167.265	5975
1169.572	5918
1171.878	5891
1174.184	5945
1176.488	5881
1178.79	5998
1181.094	5987
1183.396	6044
1185.699	5949
1188.001	5948
1190.301	5819
1192.6	5843
1194.9	5904
1197.2	5878
1199.497	5952
1201.794	5876
1204.09	5939
1206.387	6014
1208.684	6007
1210.978	5963
1213.272	5963
1215.565	5902
1217.858	5960
1220.15	6016
1222.443	5966
1224.734	5879
1227.024	5949
1229.313	6055
1231.602	6141
1233.892	6102
1236.18	6175
1238.467	6144
1240.754	6268
1243.04	6158
1245.325	6286
1247.612	6324
1249.896	6372
1252.178	6248
1254.461	6317
1256.743	6154
1259.027	6268
1261.308	6206
1263.587	6233
1265.867	6388
1268.146	6229
1270.425	6355
1272.703	6219
1274.981	6380
1277.256	6255
1279.532	6319
1281.808	6267
1284.083	6249
1286.358	6190
1288.63	6132
1290.904	6099
1293.175	6152
1295.449	6173
1297.719	6120
1299.99	6128
1302.259	6146
1304.529	6194
1306.798	6016
1309.065	6215
1311.333	6148
1313.599	6224
1315.866	6195
1318.131	6084
1320.396	6079
1322.66	6147
1324.925	6217
1327.187	6153
1329.448	6231
1331.711	6285
1333.974	6349
1336.234	6281
1338.493	6272
1340.752	6104
1343.01	6165
1345.269	6119
1347.526	6194
1349.784	6180
1352.04	6033
1354.295	6143
1356.552	6073
1358.806	6027
1361.059	6204
1363.312	6107
1365.564	6136
1367.818	6170
1370.069	6219
1372.318	6141
1374.568	6125
1376.817	6165
1379.066	6194
1381.316	6167
1383.564	6251
1385.809	6155
1388.056	6243
1390.301	6305
1392.549	6331
1394.793	6356
1397.036	6449
1399.279	6527
1401.522	6618
1403.763	6585
1406.007	6589
1408.248	6528
1410.487	6567
1412.727	6478
1414.965	6549
1417.205	6376
1419.442	6426
1421.68	6459
1423.915	6444
1426.152	6480
1428.388	6464
1430.623	6394
1432.857	6434
1435.091	6504
1437.323	6500
1439.556	6515
1441.789	6612
1444.019	6490
1446.25	6609
1448.48	6539
1450.708	6681
1452.938	6650
1455.167	6555
1457.394	6774
1459.62	6638
1461.846	6565
1464.073	6536
1466.299	6506
1468.523	6443
1470.746	6395
1472.969	6384
1475.191	6355
1477.415	6244
1479.636	6348
1481.858	6146
1484.078	6166
1486.298	6148
1488.518	6194
1490.736	6121
1492.954	6067
1495.169	6270
1497.386	6195
1499.602	6062
1501.819	6197
1504.034	6100
1506.248	6239
1508.462	6138
1510.675	6051
1512.888	6238
1515.1	6082
1517.311	6109
1519.522	6087
1521.732	6139
1523.942	6183
1526.151	6043
1528.36	6030
1530.566	6152
1532.773	6053
1534.98	6133
1537.187	6292
1539.392	6220
1541.596	6147
1543.801	6101
1546.005	6249
1548.208	6126
1550.411	6214
1552.612	6216
1554.814	6160
1557.013	6117
1559.212	6297
1561.414	6239
1563.612	6224
1565.811	6313
1568.007	6261
1570.203	6299
1572.403	6220
1574.598	6350
1576.792	6332
1578.988	6349
1581.181	6376
1583.376	6383
1585.568	6154
1587.761	6433
1589.952	6296
1592.143	6320
1594.333	6381
1596.524	6302
1598.715	6337
1600.903	6378
1603.091	6429
1605.278	6217
1607.466	6418
1609.652	6264
1611.838	6357
1614.023	6373
1616.207	6359
1618.391	6374
1620.576	6365
1622.759	6397
1624.941	6448
1627.123	6484
1629.304	6282
1631.484	6418
1633.664	6505
1635.844	6508
1638.022	6521
1640.201	6528
1642.38	6507
1644.556	6655
1646.732	6491
1648.908	6430
1651.084	6581
1653.257	6445
1655.433	6523
1657.607	6512
1659.779	6569
1661.951	6553
1664.122	6514
1666.295	6567
1668.467	6568
1670.635	6577
1672.805	6548
1674.973	6661
1677.142	6645
1679.31	6652
1681.478	6440
1683.644	6618
1685.81	6453
1687.975	6451
1690.142	6526
1692.305	6467
1694.468	6401
1696.632	6457
1698.794	6431
1700.957	6388
1703.119	6411
1705.279	6388
1707.439	6254
1709.598	6259
1711.758	6346
1713.917	6286
1716.075	6328
1718.231	6332
1720.388	6323
1722.543	6310
1724.702	6247
1726.856	6334
1729.01	6414
1731.164	6302
1733.317	6346
1735.471	6316
1737.623	6289
1739.774	6322
1741.925	6365
1744.075	6368
1746.225	6349
1748.376	6255
1750.524	6303
1752.672	6262
1754.82	6322
1756.965	6209
1759.113	6335
1761.259	6299
1763.405	6393
1765.549	6431
1767.694	6332
1769.836	6395
1771.981	6450
1774.123	6362
1776.264	6275
1778.405	6484
1780.546	6412
1782.687	6296
1784.827	6395
1786.966	6363
1789.103	6479
1791.242	6414
1793.381	6347
1795.517	6405
1797.653	6362
1799.788	6343
1801.923	6422
1804.057	6423
1806.193	6341
1808.326	6398
1810.457	6328
1812.59	6305
1814.721	6390
1816.855	6276
1818.984	6389
1821.113	6301
1823.244	6305
1825.372	6321
1827.499	6288
1829.63	6349
1831.756	6256
1833.882	6349
1836.007	6424
1838.132	6296
1840.26	6332
1842.384	6325
1844.507	6344
1846.63	6440
1848.752	6409
1850.875	6381
1852.996	6414
1855.118	6383
1857.238	6356
1859.358	6333
1861.477	6370
1863.597	6328
1865.715	6268
1867.832	6360
1869.948	6235
1872.064	6254
1874.181	6283
1876.297	6282
1878.411	6236
1880.526	6295
1882.639	6365
1884.752	6417
1886.865	6323
1888.977	6459
1891.089	6282
1893.2	6349
1895.308	6257
1897.42	6428
1899.53	6282
1901.639	6271
1903.745	6378
1905.853	6311
1907.962	6510
1910.067	6402
1912.174	6365
1914.278	6302
1916.383	6431
1918.486	6425
1920.592	6424
1922.694	6403
1924.797	6378
1926.898	6325
1929	6437
1931.102	6400
1933.203	6391
1935.301	6441
1937.401	6412
1939.499	6365
1941.598	6410
1943.697	6341
1945.793	6529
1947.888	6442
1949.985	6409
1952.08	6501
1954.176	6453
1956.269	6388
1958.364	6464
1960.457	6397
1962.549	6428
1964.642	6503
1966.733	6417
1968.823	6289
1970.913	6262
1973.005	6333
1975.093	6451
1977.184	6333
1979.271	6407
1981.359	6440
1983.446	6365
1985.532	6398
1987.619	6369
1989.705	6322
1991.789	6363
1993.874	6402
1995.956	6385
1998.041	6312
2000.123	6320
2002.206	6333
2004.287	6274
2006.368	6319
2008.449	6444
2010.529	6327
2012.609	6283
2014.688	6354
2016.766	6220
2018.843	6429
2020.922	6345
2022.999	6313
2025.074	6341
2027.15	6375
2029.225	6349
2031.299	6280
2033.375	6299
2035.447	6277
2037.52	6312
2039.592	6218
2041.664	6329
2043.736	6423
2045.807	6394
2047.876	6354
2049.947	6416
2052.015	6369
2054.086	6334
2056.153	6355
2058.221	6292
2060.288	6396
2062.353	6338
2064.42	6272
2066.486	6367
2068.55	6449
2070.614	6343
2072.678	6375
2074.741	6370
2076.805	6358
2078.866	6498
2080.929	6346
2082.99	6399
2085.049	6272
2087.109	6265
2089.17	6284
2091.228	6315
2093.286	6364
2095.344	6424
2097.4	6514
2099.46	6336
2101.516	6299
2103.572	6337
2105.626	6280
2107.679	6388
2109.735	6269
2111.788	6299
2113.841	6356
2115.894	6271
2117.945	6327
2119.997	6328
2122.049	6400
2124.1	6306
2126.148	6306
2128.197	6339
2130.246	6355
2132.296	6390
2134.342	6286
2136.39	6342
2138.437	6320
2140.483	6212
2142.527	6362
2144.574	6386
2146.619	6304
2148.661	6259
2150.705	6329
2152.747	6251
2154.792	6284
2156.832	6370
2158.874	6276
2160.915	6266
2162.954	6293
2164.995	6362
2167.034	6321
2169.072	6300
2171.111	6317
2173.148	6280
2175.186	6264
2177.223	6320
2179.258	6245
2181.294	6280
2183.328	6224
2185.362	6200
2187.398	6140
2189.431	6200
2191.463	6232
2193.495	6157
2195.528	6229
2197.56	6198
2199.59	6100
2201.62	6175
2203.649	6163
2205.678	6133
2207.708	6274
2209.737	6111
2211.764	6285
2213.791	6185
2215.817	6257
2217.843	6175
2219.87	6166
2221.895	6091
2223.919	6176
2225.942	6144
2227.966	6141
2229.988	6174
2232.012	6224
2234.032	6224
2236.054	6201
2238.074	6176
2240.095	6240
2242.116	6144
2244.135	6222
2246.153	6204
2248.171	6129
2250.188	6228
2252.208	6204
2254.223	6232
2256.239	6134
2258.255	6159
2260.269	6179
2262.283	6139
2264.3	6125
2266.312	6091
2268.325	6205
2270.336	6129
2272.349	6201
2274.362	6200
2276.372	6137
2278.383	6223
2280.392	6093
2282.402	6227
2284.409	6166
2286.418	6159
2288.427	6177
2290.433	6240
2292.441	6256
2294.446	6230
2296.453	6208
2298.459	6154
2300.463	6141
2302.466	6169
2304.471	6056
2306.475	6126
2308.477	6144
2310.478	6097
2312.481	6145
2314.481	6121
2316.481	6262
2318.482	6128
2320.482	6194
2322.48	6097
2324.48	6093
2326.478	6060
2328.476	6150
2330.473	6093
2332.469	5996
2334.465	6046
2336.46	6103
2338.454	6093
2340.45	6015
2342.444	6107
2344.437	6090
2346.43	6023
2348.421	6053
2350.414	6090
2352.405	6023
2354.396	6030
2356.386	6006
2358.376	6027
2360.366	6122
2362.355	5968
2364.343	5899
2366.331	6059
2368.317	5990
2370.304	5947
2372.292	5976
2374.278	5906
2376.262	5977
2378.247	6047
2380.23	6063
2382.216	6064
2384.199	5969
2386.181	5909
2388.163	6004
2390.144	5986
2392.127	6044
2394.107	5850
2396.087	5925
2398.066	5962
2400.046	5919
2402.023	5891
2404.004	5961
2405.981	5947
2407.957	5908
2409.934	5868
2411.91	5866
2413.886	5845
2415.862	5951
2417.836	5906
2419.809	5980
2421.784	5918
2423.756	5825
2425.73	6003
2427.701	5908
2429.672	5909
2431.644	5837
2433.615	5868
2435.586	5948
2437.555	5780
2439.523	6021
2441.491	5812
2443.459	6003
2445.428	5986
2447.395	5902
2449.361	5867
2451.327	5924
2453.292	5944
2455.257	5849
2457.223	5876
2459.187	5839
2461.15	5842
2463.113	5836
2465.076	5868
2467.039	5867
2468.999	5951
2470.96	5861
2472.921	5838
2474.881	5890
2476.841	5832
2478.8	5833
2480.759	5876
2482.717	5834
2484.675	5985
2486.63	5801
2488.589	5863
2490.545	5876
2492.5	5824
2494.455	5821
2496.408	5779
2498.364	5889
2500.318	5775
2502.27	5773
2504.223	5738
2506.174	5734
2508.126	5836
2510.078	5847
2512.03	5771
2513.979	5794
2515.927	5723
2517.877	5779
2519.826	5792
2521.775	5775
2523.722	5713
2525.668	5807
2527.616	5734
2529.561	5854
2531.508	5753
2533.452	5815
2535.398	5803
2537.342	5753
2539.284	5699
2541.229	5822
2543.173	5791
2545.114	5835
2547.055	5797
2548.996	5722
2550.938	5761
2552.878	5825
2554.817	5808
2556.756	5714
2558.695	5725
2560.633	5807
2562.572	5767
2564.509	5752
2566.445	5843
2568.382	5799
2570.317	5781
2572.254	5689
2574.189	5815
2576.123	5677
2578.057	5860
2579.99	5693
2581.923	5693
2583.855	5812
2585.788	5824
2587.719	5805
2589.65	5773
2591.579	5812
2593.511	5779
2595.44	5683
2597.37	5639
2599.297	5966
2601.225	5772
2603.153	5791
2605.08	5727
2607.007	5789
2608.932	5761
2610.858	5842
2612.782	5719
2614.709	5814
2616.632	5700
2618.556	5695
2620.478	5794
2622.401	5733
2624.324	5759
2626.247	5788
2628.167	5686
2630.088	5847
2632.008	5765
2633.928	5835
2635.848	5773
2637.766	5707
2639.684	5801
2641.603	5878
2643.519	5803
2645.437	5839
2647.353	5685
2649.27	5708
2651.184	5779
2653.099	5758
2655.014	5741
2656.928	5838
2658.842	5807
2660.755	5827
2662.667	5741
2664.579	5738
2666.491	5753
2668.402	5717
2670.312	5703
2672.222	5696
2674.132	5688
2676.042	5757
2677.951	5747
2679.859	5749
2681.766	5652
2683.674	5744
2685.582	5677
2687.488	5694
2689.392	5789
2691.298	5689
2693.202	5717
2695.107	5677
2697.012	5675
2698.914	5722
2700.817	5527
2702.72	5637
2704.622	5611
2706.524	5734
2708.425	5728
2710.326	5675
2712.225	5714
2714.125	5626
2716.024	5769
2717.923	5734
2719.822	5627
2721.719	5692
2723.616	5607
2725.512	5621
2727.41	5653
2729.305	5692
2731.201	5567
2733.095	5648
2734.99	5676
2736.884	5642
2738.778	5669
2740.67	5637
2742.562	5643
2744.455	5584
2746.346	5734
2748.238	5608
2750.129	5588
2752.018	5696
2753.907	5603
2755.797	5654
2757.687	5611
2759.575	5588
2761.462	5516
2763.349	5578
2765.237	5651
2767.124	5695
2769.009	5573
2770.894	5522
2772.779	5555
2774.663	5636
2776.547	5674
2778.431	5587
2780.314	5683
2782.197	5549
2784.078	5601
2785.96	5620
2787.842	5570
2789.723	5549
2791.603	5563
2793.483	5607
2795.362	5550
2797.241	5569
2799.121	5619
2800.997	5604
2802.874	5554
2804.751	5453
2806.628	5590
2808.506	5545
2810.38	5545
2812.255	5563
2814.13	5514
2816.003	5559
2817.878	5625
2819.752	5535
2821.623	5701
2823.496	5603
2825.368	5629
2827.238	5556
2829.111	5682
2830.98	5676
2832.851	5608
2834.719	5579
2836.589	5590
2838.458	5526
2840.327	5629
2842.193	5608
2844.061	5646
2845.927	5614
2847.794	5642
2849.66	5731
2851.525	5717
2853.39	5695
2855.254	5648
2857.117	5753
2858.983	5766
2860.845	5875
2862.707	5826
2864.569	5772
2866.431	5841
2868.293	5814
2870.154	5956
2872.013	6034
2873.873	5979
2875.733	6101
2877.592	6231
2879.451	6164
2881.309	6353
2883.166	6259
2885.022	6411
2886.879	6461
2888.736	6311
2890.591	6428
2892.446	6533
2894.301	6492
2896.155	6417
2898.009	6461
2899.863	6433
2901.716	6417
2903.568	6472
2905.419	6447
2907.27	6353
2909.123	6449
2910.973	6500
2912.824	6479
2914.673	6588
2916.521	6610
2918.372	6760
2920.22	6753
2922.067	6807
2923.914	6983
2925.761	6975
2927.607	7006
2929.455	6892
2931.301	6921
2933.144	7144
2934.99	7119
2936.833	7354
2938.678	7202
2940.522	7275
2942.364	7460
2944.207	7508
2946.048	7585
2947.891	7741
2949.731	7782
2951.571	7609
2953.412	7809
2955.25	7583
2957.09	7604
2958.93	7470
2960.767	7387
2962.606	7434
2964.443	7183
2966.279	7079
2968.116	6969
2969.953	6810
2971.788	6879
2973.623	6711
2975.457	6713
2977.292	6746
2979.127	6622
2980.959	6624
2982.792	6494
2984.624	6456
2986.455	6415
2988.288	6328
2990.119	6359
2991.949	6233
2993.779	6355
2995.608	6238
2997.439	6004
2999.268	6109
3001.096	6039
3002.923	5902
3004.751	5964
3006.578	5829
3008.406	5930
3010.232	5692
3012.057	5748
3013.883	5614
3015.706	5696
3017.532	5611
3019.356	5694
3021.179	5600
3023.002	5622
3024.823	5424
3026.646	5601
3028.469	5418
3030.289	5534
3032.11	5411
3033.93	5539
3035.749	5319
3037.57	5362
3039.39	5416
3041.207	5331
3043.026	5355
3044.842	5383
3046.661	5360
3048.477	5433
3050.294	5420
3052.109	5355
3053.925	5374
3055.739	5368
3057.555	5352
3059.368	5342
3061.181	5447
3062.995	5354
3064.807	5351
3066.62	5288
3068.433	5368
3070.243	5355
3072.054	5288
3073.865	5261
3075.675	5175
3077.485	5378
3079.293	5260
3081.102	5308
3082.911	5235
3084.719	5162
3086.527	5287
3088.333	5241
3090.139	5290
3091.945	5176
3093.75	5194
3095.557	5209
3097.361	5190
3099.165	5242
3100.969	5143
3102.772	5106
3104.575	5170
3106.379	5122
3108.181	5027
3109.982	5093
3111.783	5096
3113.584	5161
3115.386	5008
3117.186	5131
3118.985	5051
3120.783	5074
3122.582	5072
3124.381	5075
3126.179	5068
3127.975	5073
3129.772	5106
3131.569	5092
3133.365	5007
3135.161	5074
3136.956	5057
3138.751	5138
3140.544	5093
3142.338	5127
3144.132	4903
3145.925	4916
3147.717	4985
3149.509	4983
3151.301	4934
3153.091	5044
3154.884	5012
3156.673	4933
3158.462	5071
3160.252	5045
3162.041	4949
3163.831	5000
3165.618	5094
3167.405	5018
3169.193	5050
3170.979	4934
3172.767	5057
3174.553	4973
3176.338	4966
3178.123	4968
3179.907	5065
3181.692	4904
3183.477	4981
3185.259	4944
3187.042	4893
3188.824	4951
3190.607	5048
3192.389	4914
3194.17	4968
3195.951	5081
3197.73	4895
3199.51	5037
3201.289	4945
3203.07	4967
3204.848	4966
3206.626	4841
3208.403	4955
3210.18	4956
3211.959	4999
3213.735	4927
3215.511	4936
3217.285	4890
3219.06	4870
3220.836	4972
3222.611	4954
3224.384	4900
3226.158	4940
3227.929	4981
3229.702	5004
3231.476	4897
3233.248	4941
3235.018	4934
3236.789	5010
3238.56	5012
3240.33	4904
3242.1	4923
3243.869	4953
3245.637	4952
3247.405	4912
3249.172	4921
3250.941	4957
3252.707	4972
3254.474	4933
3256.24	4948
3258.006	5011
3259.772	4946
3261.537	4924
3263.301	4954
3265.065	4851
3266.828	4888
3268.592	5053
3270.355	5024
3272.117	4913
3273.878	4965
3275.64	4930
3277.401	4839
3279.162	5055
3280.922	4909
3282.682	4939
3284.441	5056
3286.199	5034
3287.959	4929
3289.716	4921
3291.475	4892
3293.232	5036
3294.988	4950
3296.744	4850
3298.501	4882
3300.256	4893
3302.011	4957
3303.766	4958
3305.52	4993
3307.275	4985
3309.028	4904
3310.781	5037
3312.533	4899
3314.285	4955
3316.038	4957
3317.789	5011
3319.54	4888
3321.289	4945
3323.039	4952
3324.789	4872
3326.539	4866
3328.288	4913
3330.035	4963
3331.783	4914
3333.531	5016
3335.28	4902
3337.025	4915
3338.771	4885
3340.518	4948
3342.262	4884
3344.009	4986
3345.753	4773
3347.497	4857
3349.24	4842
3350.983	4837
3352.726	4874
3354.469	4829
3356.212	4891
3357.952	4812
3359.694	4913
3361.434	4836
3363.176	4888
3364.916	4804
3366.654	4726
3368.394	4885
3370.132	4832
3371.871	4705
3373.61	4804
3375.346	4721
3377.083	4748
3378.82	4779
3380.556	4802
3382.292	4649
3384.027	4731
3385.763	4713
3387.497	4746
3389.231	4801
3390.965	4825
3392.698	4786
3394.431	4775
3396.164	4727
3397.896	4611
3399.627	4789
3401.36	4738
3403.09	4689
3404.82	4709
3406.55	4686
3408.279	4709
3410.01	4715
3411.738	4745
3413.467	4614
3415.194	4519
3416.92	4717
3418.647	4637
3420.375	4666
3422.102	4603
3423.827	4709
3425.553	4692
3427.277	4679
3429.003	4648
3430.727	4619
3432.451	4693
3434.173	4640
3435.896	4600
3437.62	4548
3439.343	4656
3441.063	4583
3442.785	4572
3444.505	4635
3446.226	4462
3447.948	4619
3449.666	4637
3451.386	4517
3453.104	4677
3454.823	4499
3456.541	4617
3458.259	4513
3459.976	4594
3461.693	4440
3463.408	4561
3465.125	4581
3466.841	4488
3468.556	4418
3470.271	4455
3471.985	4464
3473.698	4549
3475.414	4401
3477.126	4358
3478.838	4392
3480.55	4460
3482.263	4422
3483.975	4404
3485.686	4381
3487.396	4444
3489.106	4350
3490.817	4512
3492.526	4434
3494.236	4411
3495.944	4411
3497.652	4379
3499.359	4354
3501.066	4313
3502.775	4318
3504.481	4326
3506.187	4317
3507.893	4292
3509.598	4356
3511.304	4308
3513.009	4266
3514.713	4321
3516.417	4246
3518.12	4217
3519.821	4284
3521.525	4290
3523.228	4315
3524.929	4254
3526.631	4200
3528.33	4167
3530.032	4236
3531.733	4291
3533.433	4272
3535.131	4204
3536.83	4274
3538.529	4218
3540.227	4105
3541.925	4198
3543.623	4207
3545.319	4173
3547.016	4215
3548.712	4162
3550.408	4153
3552.103	4140
3553.798	4168
3555.491	4145
3557.188	4107
3558.88	4212
3560.574	4091
3562.266	4154
3563.959	4147
3565.651	4167
3567.343	4129
3569.035	4225
3570.725	4133
3572.415	4198
3574.106	4119
3575.797	4113
3577.485	4117
3579.174	4130
3580.863	4054
3582.551	4087
3584.238	4042
3585.926	4079
3587.613	4090
3589.3	4010
3590.986	4045
3592.671	4037
3594.357	3956
3596.042	4016
3597.726	3990
3599.41	4056
3601.094	4003
3602.778	4020
3604.461	4035
3606.143	3944
3607.825	3937
3609.507	3930
3611.188	3986
3612.87	3959
3614.551	4011
3616.229	3948
3617.909	3863
3619.589	4030
3621.269	3930
3622.948	3934
3624.625	3870
3626.302	3901
3627.98	3844
3629.657	3924
3631.334	3953
3633.01	3829
3634.686	3849
3636.361	3840
3638.036	3805
3639.712	3970
3641.385	3799
3643.06	3880
3644.732	3875
3646.405	3747
3648.08	3788
3649.751	3823
3651.424	3854
3653.094	3843
3654.766	3779
3656.436	3730
3658.106	3812
3659.777	3750
3661.446	3805
3663.115	3790
3664.783	3808
3666.452	3731
3668.121	3750
3669.788	3780
3671.454	3735
3673.121	3751
3674.789	3718
3676.455	3691
3678.12	3743
3679.784	3718
3681.45	3749
3683.114	3780
3684.779	3648
3686.442	3665
3688.105	3748
3689.768	3673
3691.43	3765
3693.093	3714
3694.754	3715
3696.415	3698
3698.076	3699
3699.736	3624
3701.396	3709
3703.057	3741
3704.716	3708
3706.375	3738
3708.034	3636
3709.692	3693
3711.351	3647
3713.008	3782
3714.665	3721
3716.321	3624
3717.977	3590
3719.634	3594
3721.29	3601
3722.945	3657
3724.598	3678
3726.253	3607
3727.907	3622
3729.561	3663
3731.214	3615
3732.867	3676
3734.518	3647
3736.171	3601
3737.824	3613
3739.474	3623
3741.125	3620
3742.775	3606
3744.425	3668
3746.074	3666
3747.725	3610
3749.373	3577
3751.022	3636
3752.669	3608
3754.318	3556
3755.966	3572
3757.612	3626
3759.259	3540
3760.905	3610
3762.55	3675
3764.197	3563
3765.842	3526
3767.486	3488
3769.131	3530
3770.774	3644
3772.417	3572
3774.061	3550
3775.705	3573
3777.347	3431
3778.988	3548
3780.629	3543
3782.271	3605
3783.912	3459
3785.552	3521
3787.192	3511
3788.831	3539
3790.472	3491
3792.112	3537
3793.75	3465
3795.388	3547
3797.024	3475
3798.661	3567
3800.3	3513
3801.936	3426
3803.572	3446
3805.208	3544
3806.844	3437
3808.48	3513
3810.115	3424
3811.748	3430
3813.382	3509
3815.016	3357
3816.649	3413
3818.283	3387
3819.914	3460
3821.547	3385
3823.178	3395
3824.809	3383
3826.441	3408
3828.072	3449
3829.701	3432
3831.331	3382
3832.96	3367
3834.591	3354
3836.219	3380
3837.847	3382
3839.475	3372
3841.102	3406
3842.729	3392
3844.357	3453
3845.984	3321
3847.609	3322
3849.234	3354
3850.86	3326
3852.485	3353
3854.11	3409
3855.734	3330
3857.357	3360
3858.981	3378
3860.603	3264
3862.227	3348
3863.848	3377
3865.471	3341
3867.092	3340
3868.713	3363
3870.334	3298
3871.954	3297
3873.575	3359
3875.194	3322
3876.813	3269
3878.433	3276
3880.051	3337
3881.669	3255
3883.286	3265
3884.904	3343
3886.52	3321
3888.138	3300
3889.754	3350
3891.37	3246
3892.985	3311
3894.6	3260
3896.216	3327
3897.831	3250
3899.444	3273
3901.058	3339
3902.67	3285
3904.283	3223
3905.897	3256
3907.509	3321
3909.121	3266
3910.731	3318
3912.342	3290
3913.954	3197
3915.563	3261
3917.174	3339
3918.783	3206
3920.391	3241
3922.002	3217
3923.611	3290
3925.218	3315
3926.826	3288
3928.432	3230
3930.039	3235
3931.647	3220
3933.253	3213
3934.859	3239
3936.464	3201
3938.068	3269
3939.675	3291
3941.278	3177
3942.883	3255
3944.486	3264
3946.089	3271
3947.692	3199
3949.295	3204
3950.898	3246
3952.499	3151
3954.1	3176
3955.7	3266
3957.303	3188
3958.903	3219
3960.502	3263
3962.101	3189
3963.7	3166
3965.301	3223
3966.899	3136
3968.497	3110
3970.094	3109
3971.691	3167
3973.288	3168
3974.885	3101
3976.481	3105
3978.077	3159
3979.672	3101
3981.267	3130
3982.863	3076
3984.457	3143
3986.051	3111
3987.645	3175
3989.238	3145
3990.831	3154
3992.425	3070
3994.017	3113
3995.607	3049
3997.199	3108
3998.79	3092
4000.382	3088
4001.973	3072
4003.561	3054
4005.151	3058
4006.741	3066
4008.331	3076
4009.918	3100
4011.507	3018
4013.095	3083
4014.681	3120
4016.269	3046
4017.856	2995
4019.443	3038
4021.028	3001
4022.614	3084
4024.199	3073
4025.785	2976
4027.37	3001
4028.953	3045
4030.536	3048
4032.12	3064
4033.704	2984
4035.287	3021
4036.869	3014
4038.45	2918
4040.032	2981
4041.613	3012
4043.195	3032
4044.776	3007
4046.356	2951
4047.935	3020
4049.515	2983
4051.095	2954
4052.674	3003
4054.251	2989
4055.829	3080
4057.406	2958
4058.985	2971
4060.562	2935
4062.139	3006
4063.715	2953
4065.29	2926
4066.865	2980
4068.442	2943
4070.016	2977
4071.59	2932
4073.164	2850
4074.738	3027
4076.312	2931
4077.885	2917
4079.458	2966
4081.03	2939
4082.602	2958
4084.173	2952
4085.745	2872
4087.315	2950
4088.886	2932
4090.456	2937
4092.026	2883
4093.596	2900
4095.165	2912
4096.734	2868
4098.301	2921
4099.869	2817
4101.437	2886
4103.006	2917
4104.572	2848
4106.139	2887
4107.704	2870
4109.27	2903
4110.837	2857
4112.401	2785
4113.966	2829
4115.53	2878
4117.094	2889
4118.659	2943
4120.223	2888
4121.785	2880
4123.347	2872
4124.909	2742
4126.471	2859
4128.034	2800
4129.595	2843
4131.155	2850
4132.716	2806
4134.275	2830
4135.836	2857
4137.395	2839
4138.955	2845
4140.513	2864
4142.071	2840
4143.628	2855
4145.188	2826
4146.745	2842
4148.302	2816
4149.858	2721
4151.414	2776
4152.971	2811
4154.526	2745
4156.081	2764
4157.635	2752
4159.189	2773
4160.745	2733
4162.298	2783
4163.852	2744
4165.405	2738
4166.957	2772
4168.51	2693
4170.063	2775
4171.614	2747
4173.166	2701
4174.717	2660
4176.267	2740
4177.817	2697
4179.368	2688
4180.917	2738
4182.466	2681
4184.016	2690
4185.564	2675
4187.112	2679
4188.66	2708
4190.207	2685
4191.754	2705
4193.301	2707
4194.848	2729
4196.394	2774
4197.94	2652
4199.484	2701
4201.03	2687
4202.575	2706
4204.12	2649
4205.663	2693
4207.207	2748
4208.75	2649
4210.292	2653
4211.836	2719
4213.378	2647
4214.92	2663
4216.46	2741
4218.002	2615
4219.544	2669
4221.083	2592
4222.625	2673
4224.164	2710
4225.703	2592
4227.244	2662
4228.782	2634
4230.32	2609
4231.857	2593
4233.395	2664
4234.933	2694
4236.471	2611
4238.007	2588
4239.542	2705
4241.078	2656
4242.614	2632
4244.15	2615
4245.685	2615
4247.219	2558
4248.753	2542
4250.287	2651
4251.82	2621
4253.354	2527
4254.887	2612
4256.419	2604
4257.951	2561
4259.483	2586
4261.016	2655
4262.547	2667
4264.078	2587
4265.608	2504
4267.137	2663
4268.668	2574
4270.197	2560
4271.727	2560
4273.254	2575
4274.783	2618
4276.311	2530
4277.84	2531
4279.366	2601
4280.894	2613
4282.42	2544
4283.946	2591
4285.473	2583
4286.998	2529
4288.523	2545
4290.047	2567
4291.572	2512
4293.096	2527
4294.622	2528
4296.144	2495
4297.668	2509
4299.19	2439
4300.713	2499
4302.236	2508
4303.758	2566
4305.279	2511
4306.799	2515
4308.321	2461
4309.842	2480
4311.361	2545
4312.882	2529
4314.401	2535
