400.0961	6414
402.6185	6368
405.1424	6445
407.6635	6326
410.1838	6480
412.7035	6469
415.2225	6484
417.7388	6539
420.2585	6518
422.7754	6600
425.2917	6630
427.8072	6669
430.3221	6588
432.8363	6704
435.3498	6710
437.8626	6802
440.3727	6659
442.8841	6819
445.3969	6796
447.907	6818
450.4142	6690
452.9229	6809
455.4289	6765
457.9362	6862
460.4449	6836
462.9488	6788
465.454	6795
467.9566	6850
470.4604	6912
472.9637	6774
475.4662	6832
477.966	6803
480.4671	7013
482.9656	6922
485.4633	6874
487.9645	7031
490.4608	6980
492.9566	7071
495.4536	7128
497.948	7177
500.4437	7131
502.9387	7041
505.431	7101
507.9226	7063
510.4136	7155
512.9079	7054
515.3975	7129
517.8864	7229
520.3746	7152
522.8622	7126
525.3491	7240
527.8394	7162
530.3249	7200
532.8098	7067
535.2939	7213
537.7774	7121
540.2623	7121
542.7444	7220
545.2259	7225
547.7067	7227
550.1868	7252
552.6683	7258
555.147	7152
557.6231	7252
560.1005	7191
562.5773	7287
565.0534	7275
567.5308	7153
570.0056	7311
572.4776	7321
574.951	7299
577.4237	7356
579.8978	7432
582.3671	7392
584.8378	7401
587.3079	7537
589.7773	7367
592.244	7390
594.714	7534
597.1793	7432
599.6461	7482
602.1121	7343
604.5754	7433
607.0421	7470
609.5042	7429
611.9675	7491
614.4282	7421
616.8902	7510
619.3515	7485
621.8122	7495
624.2702	7384
626.7296	7403
629.1863	7523
631.6423	7471
634.1017	7480
636.5563	7531
639.0104	7502
641.4658	7602
643.9185	7501
646.3725	7650
648.8239	7483
651.2766	7607
653.7266	7578
656.176	7661
658.6247	7648
661.0748	7680
663.5242	7557
665.9709	7574
668.417	7633
670.8624	7630
673.3092	7652
675.7533	7803
678.1968	7652
680.6395	7687
683.0817	7790
685.5251	7658
687.9659	7746
690.4061	7786
692.8456	7839
695.2844	7942
697.7226	7771
700.1621	7956
702.599	7825
705.0332	7951
707.4688	7881
709.9036	7842
712.3399	8009
714.7735	7906
717.2044	7963
719.6367	7939
722.0683	7961
724.4993	8053
726.9296	8134
729.3593	7954
731.7883	8014
734.2147	7932
736.6423	8159
739.0714	8096
741.4958	8002
743.9216	8213
746.3447	8147
748.7691	8238
751.1929	8241
753.616	8299
756.0366	8226
758.4584	8242
760.8776	8225
763.2982	8197
765.718	8272
768.1373	8243
770.5539	8352
772.9698	8210
775.3871	8306
777.8038	8341
780.2178	8272
782.6332	8360
785.0459	8280
787.458	8320
789.8714	8329
792.2842	8293
794.6943	8340
797.1038	8426
799.5127	8288
801.9209	8387
804.3324	8501
806.7393	8402
809.1456	8211
811.5513	8437
813.9562	8280
816.3625	8512
818.7663	8283
821.1693	8397
823.5718	8383
825.9735	8465
828.3746	8529
830.7771	8504
833.177	8586
835.5762	8460
837.9747	8416
840.3727	8508
842.772	8659
845.1666	8651
847.5626	8512
849.958	8614
852.3527	8492
854.7488	8630
857.1403	8653
859.5331	8523
861.9253	8622
864.3168	8477
866.7057	8414
869.098	8509
871.4876	8665
873.8746	8446
876.263	8595
878.6487	8462
881.0378	8384
883.4243	8494
885.8081	8599
888.1933	8591
890.5759	8516
892.9598	8503
895.343	8655
897.7256	8566
900.1057	8511
902.4871	8525
904.8659	8688
907.246	8613
909.6254	8606
912.0023	8726
914.3786	8900
916.7562	8970
919.1331	9204
921.5074	9158
923.8831	9308
926.2562	9184
928.6287	9266
931.0005	9053
933.3757	8999
935.7462	8939
938.1162	8994
940.4855	8951
942.8542	8995
945.2242	8866
947.5916	8983
949.9584	8922
952.3266	8965
954.6921	9085
957.0571	9027
959.4233	9242
961.787	9386
964.15	9405
966.5125	9273
968.8742	9261
971.2354	9224
973.5959	9076
975.9559	9079
978.3151	8951
980.6738	9013
983.0338	9164
985.3912	8980
987.7461	8937
990.1022	8850
992.4578	8940
994.8127	8771
997.1689	8910
999.5207	8924
1001.874	8802
1004.226	8916
1006.576	8848
1008.929	8925
1011.28	8760
1013.628	8870
1015.977	8647
1018.324	8826
1020.674	8853
1023.019	8809
1025.366	8884
1027.713	8893
1030.056	8965
1032.399	8944
1034.746	8920
1037.087	8876
1039.431	8980
1041.771	9022
1044.113	8877
1046.454	8992
1048.793	8889
1051.133	8927
1053.471	9022
1055.807	9070
1058.146	9096
1060.483	8913
1062.818	9057
1065.153	9001
1067.489	9011
1069.822	9053
1072.156	8974
1074.488	9087
1076.82	9145
1079.15	9064
1081.48	8964
1083.814	8975
1086.143	9080
1088.471	9261
1090.799	9086
1093.126	9118
1095.452	9082
1097.78	9054
1100.105	9149
1102.43	9010
1104.754	9157
1107.077	9023
1109.4	9261
1111.722	9074
1114.044	9106
1116.365	9146
1118.685	9180
1121.005	9207
1123.324	9225
1125.643	9266
1127.961	9155
1130.278	9254
1132.595	9190
1134.911	9129
1137.226	9120
1139.541	9157
1141.854	9154
1144.167	9172
1146.482	9138
1148.793	9274
1151.105	9154
1153.414	9240
1155.725	9210
1158.033	9175
1160.344	9203
1162.651	9130
1164.959	9269
1167.265	9117
1169.572	9208
1171.878	9158
1174.184	9250
1176.488	9219
1178.79	9292
1181.094	9360
1183.396	9412
1185.699	9339
1188.001	9198
1190.301	9308
1192.6	9197
1194.9	9081
1197.2	9036
1199.497	9186
1201.794	9287
1204.09	9199
1206.387	9204
1208.684	9190
1210.978	9232
1213.272	9096
1215.565	9293
1217.858	9184
1220.15	9309
1222.443	9201
1224.734	9236
1227.024	9322
1229.313	9433
1231.602	9325
1233.892	9382
1236.18	9448
1238.467	9270
1240.754	9585
1243.04	9370
1245.325	9388
1247.612	9477
1249.896	9438
1252.178	9362
1254.461	9531
1256.743	9627
1259.027	9410
1261.308	9596
1263.587	9434
1265.867	9616
1268.146	9578
1270.425	9613
1272.703	9523
1274.981	9704
1277.256	9514
1279.532	9412
1281.808	9469
1284.083	9531
1286.358	9405
1288.63	9378
1290.904	9379
1293.175	9228
1295.449	9329
1297.719	9458
1299.99	9372
1302.259	9314
1304.529	9429
1306.798	9436
1309.065	9513
1311.333	9574
1313.599	9359
1315.866	9410
1318.131	9417
1320.396	9462
1322.66	9260
1324.925	9516
1327.187	9561
1329.448	9596
1331.711	9469
1333.974	9620
1336.234	9390
1338.493	9541
1340.752	9579
1343.01	9441
1345.269	9556
1347.526	9449
1349.784	9529
1352.04	9376
1354.295	9346
1356.552	9414
1358.806	9351
1361.059	9411
1363.312	9396
1365.564	9549
1367.818	9568
1370.069	9577
1372.318	9501
1374.568	9472
1376.817	9554
1379.066	9580
1381.316	9407
1383.564	9603
1385.809	9691
1388.056	9754
1390.301	9598
1392.549	9732
1394.793	9949
1397.036	9955
1399.279	9978
1401.522	9993
1403.763	10095
1406.007	9964
1408.248	9958
1410.487	9961
1412.727	10004
1414.965	9989
1417.205	9832
1419.442	9998
1421.68	9930
1423.915	9715
1426.152	9777
1428.388	9772
1430.623	9759
1432.857	9861
1435.091	10008
1437.323	9957
1439.556	9961
1441.789	9909
1444.019	10009
1446.25	9859
1448.48	9846
1450.708	9873
1452.938	9932
1455.167	10022
1457.394	10056
1459.62	9896
1461.846	9780
1464.073	9820
1466.299	9758
1468.523	9670
1470.746	9567
1472.969	9586
1475.191	9840
1477.415	9684
1479.636	9662
1481.858	9586
1484.078	9479
1486.298	9616
1488.518	9563
1490.736	9494
1492.954	9542
1495.169	9489
1497.386	9491
1499.602	9426
1501.819	9555
1504.034	9578
1506.248	9489
1508.462	9451
1510.675	9507
1512.888	9407
1515.1	9468
1517.311	9445
1519.522	9443
1521.732	9498
1523.942	9427
1526.151	9501
1528.36	9509
1530.566	9321
1532.773	9604
1534.98	9463
1537.187	9365
1539.392	9486
1541.596	9572
1543.801	9583
1546.005	9388
1548.208	9573
1550.411	9599
1552.612	9533
1554.814	9560
1557.013	9628
1559.212	9696
1561.414	9659
1563.612	9644
1565.811	9610
1568.007	9720
1570.203	9869
1572.403	9775
1574.598	9665
1576.792	9806
1578.988	9777
1581.181	9635
1583.376	9816
1585.568	9717
1587.761	9929
1589.952	9811
1592.143	9762
1594.333	9722
1596.524	9632
1598.715	9858
1600.903	9818
1603.091	9789
1605.278	9794
1607.466	9838
1609.652	9905
1611.838	9841
1614.023	9855
1616.207	9668
1618.391	9851
1620.576	9798
1622.759	9730
1624.941	9755
1627.123	9904
1629.304	9767
1631.484	9934
1633.664	9767
1635.844	9915
1638.022	9781
1640.201	9864
1642.38	9721
1644.556	9744
1646.732	9911
1648.908	9654
1651.084	9868
1653.257	9858
1655.433	9835
1657.607	9752
1659.779	9979
1661.951	9784
1664.122	9907
1666.295	9730
1668.467	9827
1670.635	9788
1672.805	9871
1674.973	9819
1677.142	9865
1679.31	9850
1681.478	9760
1683.644	9898
1685.81	9750
1687.975	9838
1690.142	9809
1692.305	9744
1694.468	9782
1696.632	9750
1698.794	9869
1700.957	9757
1703.119	9768
1705.279	9789
1707.439	9953
1709.598	9719
1711.758	9683
1713.917	9575
1716.075	9817
1718.231	9716
1720.388	9697
1722.543	9692
1724.702	9726
1726.856	9649
1729.01	9931
1731.164	9765
1733.317	9800
1735.471	9870
1737.623	9751
1739.774	9872
1741.925	9841
1744.075	9793
1746.225	9776
1748.376	9771
1750.524	9873
1752.672	9736
1754.82	9916
1756.965	9798
1759.113	9767
1761.259	9673
1763.405	9850
1765.549	9741
1767.694	9701
1769.836	9787
1771.981	9788
1774.123	9769
1776.264	9855
1778.405	9907
1780.546	9862
1782.687	9765
1784.827	9911
1786.966	9788
1789.103	9765
1791.242	9887
1793.381	9780
1795.517	9898
1797.653	9876
1799.788	9832
1801.923	9924
1804.057	9889
1806.193	9858
1808.326	9903
1810.457	9901
1812.59	9723
1814.721	9910
1816.855	9876
1818.984	9842
1821.113	9881
1823.244	9837
1825.372	9716
1827.499	9807
1829.63	9838
1831.756	9725
1833.882	9880
1836.007	10006
1838.132	9710
1840.26	9794
1842.384	9754
1844.507	9826
1846.63	9859
1848.752	9603
1850.875	9589
1852.996	9791
1855.118	9600
1857.238	9696
1859.358	9661
1861.477	9674
1863.597	9700
1865.715	9721
1867.832	9745
1869.948	9697
1872.064	9593
1874.181	9736
1876.297	9666
1878.411	9678
1880.526	9732
1882.639	9765
1884.752	9748
1886.865	9628
1888.977	9751
1891.089	9741
1893.2	9711
1895.308	9736
1897.42	9756
1899.53	9713
1901.639	9746
1903.745	9633
1905.853	9825
1907.962	9721
1910.067	9877
1912.174	9658
1914.278	9818
1916.383	9830
1918.486	9541
1920.592	9809
1922.694	9729
1924.797	9810
1926.898	9825
1929	9968
1931.102	9929
1933.203	9832
1935.301	9811
1937.401	9879
1939.499	9862
1941.598	9815
1943.697	9825
1945.793	9811
1947.888	9894
1949.985	9858
1952.08	9887
1954.176	9790
1956.269	9761
1958.364	9928
1960.457	9964
1962.549	9848
1964.642	9855
1966.733	9706
1968.823	10032
1970.913	9872
1973.005	9796
1975.093	9869
1977.184	9629
1979.271	9820
1981.359	9802
1983.446	9723
1985.532	9694
1987.619	9741
1989.705	9741
1991.789	9624
1993.874	9751
1995.956	9809
1998.041	9679
2000.123	9811
2002.206	9775
2004.287	9792
2006.368	9635
2008.449	9726
2010.529	9628
2012.609	9807
2014.688	9712
2016.766	9686
2018.843	9646
2020.922	9633
2022.999	9682
2025.074	9640
2027.15	9542
2029.225	9585
2031.299	9596
2033.375	9719
2035.447	9611
2037.52	9642
2039.592	9739
2041.664	9694
2043.736	9749
2045.807	9755
2047.876	9536
2049.947	9658
2052.015	9716
2054.086	9699
2056.153	9817
2058.221	9673
2060.288	9668
2062.353	9639
2064.42	9770
2066.486	9711
2068.55	9682
2070.614	9713
2072.678	9696
2074.741	9780
2076.805	9573
2078.866	9679
2080.929	9758
2082.99	9608
2085.049	9595
2087.109	9673
2089.17	9609
2091.228	9605
2093.286	9857
2095.344	9835
2097.4	9773
2099.46	9734
2101.516	9673
2103.572	9613
2105.626	9667
2107.679	9710
2109.735	9681
2111.788	9603
2113.841	9651
2115.894	9645
2117.945	9714
2119.997	9730
2122.049	9557
2124.1	9586
2126.148	9686
2128.197	9659
2130.246	9691
2132.296	9506
2134.342	9581
2136.39	9529
2138.437	9594
2140.483	9625
2142.527	9641
2144.574	9541
2146.619	9580
2148.661	9566
2150.705	9418
2152.747	9449
2154.792	9564
2156.832	9593
2158.874	9565
2160.915	9455
2162.954	9570
2164.995	9453
2167.034	9561
2169.072	9578
2171.111	9533
2173.148	9448
2175.186	9590
2177.223	9505
2179.258	9450
2181.294	9513
2183.328	9453
2185.362	9580
2187.398	9414
2189.431	9297
2191.463	9354
2193.495	9480
2195.528	9390
2197.56	9356
2199.59	9395
2201.62	9298
2203.649	9512
2205.678	9428
2207.708	9279
2209.737	9222
2211.764	9371
2213.791	9375
2215.817	9359
2217.843	9430
2219.87	9441
2221.895	9364
2223.919	9277
2225.942	9381
2227.966	9382
2229.988	9255
2232.012	9340
2234.032	9466
2236.054	9309
2238.074	9274
2240.095	9355
2242.116	9268
2244.135	9215
2246.153	9282
2248.171	9386
2250.188	9363
2252.208	9146
2254.223	9328
2256.239	9300
2258.255	9379
2260.269	9209
2262.283	9316
2264.3	9415
2266.312	9181
2268.325	9315
2270.336	9160
2272.349	9218
2274.362	9426
2276.372	9294
2278.383	9302
2280.392	9413
2282.402	9246
2284.409	9485
2286.418	9274
2288.427	9225
2290.433	9173
2292.441	9336
2294.446	9321
2296.453	9217
2298.459	9212
2300.463	9270
2302.466	9286
2304.471	9193
2306.475	9274
2308.477	9249
2310.478	9151
2312.481	9175
2314.481	9247
2316.481	9203
2318.482	9158
2320.482	9256
2322.48	9172
2324.48	9207
2326.478	9166
2328.476	9209
2330.473	9176
2332.469	9093
2334.465	9204
2336.46	9050
2338.454	9109
2340.45	9118
2342.444	9073
2344.437	9212
2346.43	9091
2348.421	8933
2350.414	9143
2352.405	9029
2354.396	9125
2356.386	9008
2358.376	9016
2360.366	9249
2362.355	9129
2364.343	9078
2366.331	9127
2368.317	9033
2370.304	8994
2372.292	8997
2374.278	8970
2376.262	9029
2378.247	8938
2380.23	9071
2382.216	9067
2384.199	8937
2386.181	9010
2388.163	9115
2390.144	9021
2392.127	8952
2394.107	8858
2396.087	8983
2398.066	8782
2400.046	9057
2402.023	8910
2404.004	8864
2405.981	8810
2407.957	8864
2409.934	8758
2411.91	8822
2413.886	8924
2415.862	8895
2417.836	8829
2419.809	8899
2421.784	8990
2423.756	8918
2425.73	8840
2427.701	8847
2429.672	8928
2431.644	8960
2433.615	8973
2435.586	8881
2437.555	8975
2439.523	8850
2441.491	8782
2443.459	8902
2445.428	8802
2447.395	8858
2449.361	8826
2451.327	8760
2453.292	8843
2455.257	8870
2457.223	8891
2459.187	8951
2461.15	8839
2463.113	8689
2465.076	8868
2467.039	8886
2468.999	8809
2470.96	8696
2472.921	8786
2474.881	8777
2476.841	8755
2478.8	8734
2480.759	8747
2482.717	8598
2484.675	8691
2486.63	8708
2488.589	8733
2490.545	8742
2492.5	8652
2494.455	8775
2496.408	8721
2498.364	8743
2500.318	8852
2502.27	8731
2504.223	8662
2506.174	8614
2508.126	8664
2510.078	8711
2512.03	8621
2513.979	8620
2515.927	8561
2517.877	8674
2519.826	8668
2521.775	8617
2523.722	8610
2525.668	8618
2527.616	8590
2529.561	8577
2531.508	8527
2533.452	8719
2535.398	8692
2537.342	8581
2539.284	8519
2541.229	8674
2543.173	8546
2545.114	8630
2547.055	8633
2548.996	8688
2550.938	8549
2552.878	8664
2554.817	8525
2556.756	8401
2558.695	8615
2560.633	8574
2562.572	8503
2564.509	8573
2566.445	8523
2568.382	8497
2570.317	8563
2572.254	8707
2574.189	8736
2576.123	8657
2578.057	8534
2579.99	8660
2581.923	8640
2583.855	8466
2585.788	8723
2587.719	8656
2589.65	8595
2591.579	8621
2593.511	8410
2595.44	8463
2597.37	8458
2599.297	8595
2601.225	8518
2603.153	8574
2605.08	8458
2607.007	8464
2608.932	8440
2610.858	8557
2612.782	8531
2614.709	8693
2616.632	8577
2618.556	8565
2620.478	8526
2622.401	8405
2624.324	8712
2626.247	8528
2628.167	8487
2630.088	8727
2632.008	8613
2633.928	8541
2635.848	8600
2637.766	8524
2639.684	8555
2641.603	8538
2643.519	8587
2645.437	8578
2647.353	8566
2649.27	8538
2651.184	8477
2653.099	8500
2655.014	8492
2656.928	8536
2658.842	8660
2660.755	8568
2662.667	8511
2664.579	8402
2666.491	8511
2668.402	8498
2670.312	8375
2672.222	8334
2674.132	8420
2676.042	8564
2677.951	8551
2679.859	8453
2681.766	8377
2683.674	8425
2685.582	8340
2687.488	8470
2689.392	8395
2691.298	8339
2693.202	8423
2695.107	8393
2697.012	8349
2698.914	8458
2700.817	8361
2702.72	8380
2704.622	8273
2706.524	8396
2708.425	8277
2710.326	8347
2712.225	8446
2714.125	8327
2716.024	8359
2717.923	8337
2719.822	8283
2721.719	8223
2723.616	8315
2725.512	8337
2727.41	8217
2729.305	8267
2731.201	8240
2733.095	8311
2734.99	8359
2736.884	8297
2738.778	8373
2740.67	8271
2742.562	8239
2744.455	8214
2746.346	8242
2748.238	8335
2750.129	8353
2752.018	8285
2753.907	8176
2755.797	8149
2757.687	8257
2759.575	8172
2761.462	8389
2763.349	8213
2765.237	8133
2767.124	8212
2769.009	8213
2770.894	8229
2772.779	8139
2774.663	8104
2776.547	8291
2778.431	8215
2780.314	8136
2782.197	8256
2784.078	8250
2785.96	8299
2787.842	8192
2789.723	8159
2791.603	8179
2793.483	8150
2795.362	8124
2797.241	8307
2799.121	8100
2800.997	8180
2802.874	8072
2804.751	8075
2806.628	8019
2808.506	8083
2810.38	8075
2812.255	8117
2814.13	8093
2816.003	8079
2817.878	8117
2819.752	8054
2821.623	8277
2823.496	8112
2825.368	8137
2827.238	8065
2829.111	8113
2830.98	7971
2832.851	8152
2834.719	8170
2836.589	8103
2838.458	8249
2840.327	8059
2842.193	8250
2844.061	8119
2845.927	8059
2847.794	8048
2849.66	8160
2851.525	8134
2853.39	8302
2855.254	8265
2857.117	8371
2858.983	8204
2860.845	8204
2862.707	8234
2864.569	8296
2866.431	8248
2868.293	8297
2870.154	8363
2872.013	8432
2873.873	8298
2875.733	8251
2877.592	8291
2879.451	8381
2881.309	8471
2883.166	8412
2885.022	8516
2886.879	8542
2888.736	8658
2890.591	8653
2892.446	8665
2894.301	8778
2896.155	8744
2898.009	8746
2899.863	8823
2901.716	8629
2903.568	8563
2905.419	8684
2907.27	8719
2909.123	8704
2910.973	8757
2912.824	8646
2914.673	8622
2916.521	8702
2918.372	8818
2920.22	8720
2922.067	8870
2923.914	8813
2925.761	8706
2927.607	8732
2929.455	8926
2931.301	8708
2933.144	8767
2934.99	8692
2936.833	8787
2938.678	8689
2940.522	8832
2942.364	8952
2944.207	9098
2946.048	9317
2947.891	9558
2949.731	9502
2951.571	9402
2953.412	9462
2955.25	9320
2957.09	9355
2958.93	9279
2960.767	9371
2962.606	9362
2964.443	9306
2966.279	9227
2968.116	9063
2969.953	8932
2971.788	8854
2973.623	8683
2975.457	8380
2977.292	8563
2979.127	8471
2980.959	8409
2982.792	8151
2984.624	8278
2986.455	8232
2988.288	8183
2990.119	8022
2991.949	8104
2993.779	7967
2995.608	7969
2997.439	8067
2999.268	8025
3001.096	7896
3002.923	7976
3004.751	7887
3006.578	7737
3008.406	7962
3010.232	7765
3012.057	7885
3013.883	7868
3015.706	7758
3017.532	7740
3019.356	7750
3021.179	7800
3023.002	7714
3024.823	7681
3026.646	7710
3028.469	7671
3030.289	7665
3032.11	7669
3033.93	7662
3035.749	7541
3037.57	7695
3039.39	7473
3041.207	7556
3043.026	7576
3044.842	7674
3046.661	7568
3048.477	7684
3050.294	7542
3052.109	7510
3053.925	7563
3055.739	7474
3057.555	7683
3059.368	7464
3061.181	7485
3062.995	7467
3064.807	7513
3066.62	7497
3068.433	7476
3070.243	7402
3072.054	7459
3073.865	7551
3075.675	7446
3077.485	7305
3079.293	7368
3081.102	7430
3082.911	7373
3084.719	7412
3086.527	7431
3088.333	7435
3090.139	7363
3091.945	7215
3093.75	7370
3095.557	7399
3097.361	7348
3099.165	7374
3100.969	7313
3102.772	7334
3104.575	7228
3106.379	7327
3108.181	7338
3109.982	7326
3111.783	7284
3113.584	7267
3115.386	7286
3117.186	7214
3118.985	7064
3120.783	7141
3122.582	7290
3124.381	7201
3126.179	7065
3127.975	7190
3129.772	7096
3131.569	7207
3133.365	7052
3135.161	7061
3136.956	7098
3138.751	7075
3140.544	7025
3142.338	7114
3144.132	7113
3145.925	7127
3147.717	7067
3149.509	7073
3151.301	6976
3153.091	7039
3154.884	7032
3156.673	7013
3158.462	7018
3160.252	6977
3162.041	7097
3163.831	6936
3165.618	6909
3167.405	7043
3169.193	6920
3170.979	6858
3172.767	6995
3174.553	7035
3176.338	7008
3178.123	6984
3179.907	7037
3181.692	6938
3183.477	6965
3185.259	6950
3187.042	6886
3188.824	6869
3190.607	6917
3192.389	6956
3194.17	6914
3195.951	6859
3197.73	6804
3199.51	6908
3201.289	6878
3203.07	6886
3204.848	6862
3206.626	6955
3208.403	6920
3210.18	6854
3211.959	6896
3213.735	6891
3215.511	6878
3217.285	6864
3219.06	6737
3220.836	6788
3222.611	6714
3224.384	6861
3226.158	6803
3227.929	6844
3229.702	6859
3231.476	6831
3233.248	6870
3235.018	6757
3236.789	6794
3238.56	6778
3240.33	6888
3242.1	6774
3243.869	6747
3245.637	6799
3247.405	6789
3249.172	6838
3250.941	6995
3252.707	6733
3254.474	6774
3256.24	6790
3258.006	6734
3259.772	6821
3261.537	6709
3263.301	6834
3265.065	6800
3266.828	6759
3268.592	6726
3270.355	6713
3272.117	6746
3273.878	6687
3275.64	6750
3277.401	6793
3279.162	6731
3280.922	6738
3282.682	6706
3284.441	6755
3286.199	6706
3287.959	6713
3289.716	6669
3291.475	6747
3293.232	6683
3294.988	6741
3296.744	6792
3298.501	6694
3300.256	6626
3302.011	6679
3303.766	6642
3305.52	6622
3307.275	6656
3309.028	6650
3310.781	6671
3312.533	6651
3314.285	6624
3316.038	6694
3317.789	6668
3319.54	6659
3321.289	6594
3323.039	6562
3324.789	6588
3326.539	6620
3328.288	6497
3330.035	6532
3331.783	6601
3333.531	6571
3335.28	6540
3337.025	6575
3338.771	6585
3340.518	6429
3342.262	6422
3344.009	6454
3345.753	6572
3347.497	6565
3349.24	6488
3350.983	6441
3352.726	6524
3354.469	6457
3356.212	6421
3357.952	6467
3359.694	6502
3361.434	6391
3363.176	6449
3364.916	6475
3366.654	6333
3368.394	6326
3370.132	6364
3371.871	6355
3373.61	6486
3375.346	6468
3377.083	6324
3378.82	6471
3380.556	6389
3382.292	6430
3384.027	6465
3385.763	6246
3387.497	6292
3389.231	6346
3390.965	6348
3392.698	6571
3394.431	6344
3396.164	6377
3397.896	6365
3399.627	6345
3401.36	6333
3403.09	6251
3404.82	6363
3406.55	6394
3408.279	6265
3410.01	6378
3411.738	6312
3413.467	6249
3415.194	6235
3416.92	6152
3418.647	6285
3420.375	6240
3422.102	6185
3423.827	6378
3425.553	6291
3427.277	6224
3429.003	6275
3430.727	6244
3432.451	6369
3434.173	6132
3435.896	6295
3437.62	6072
3439.343	6235
3441.063	6215
3442.785	6151
3444.505	6103
3446.226	6184
3447.948	6107
3449.666	6100
3451.386	6150
3453.104	6087
3454.823	6088
3456.541	6233
3458.259	6061
3459.976	6096
3461.693	6026
3463.408	5934
3465.125	6079
3466.841	5966
3468.556	5984
3470.271	6066
3471.985	6009
3473.698	6028
3475.414	6112
3477.126	5928
3478.838	5916
3480.55	5995
3482.263	5977
3483.975	5982
3485.686	5877
3487.396	5991
3489.106	5943
3490.817	5908
3492.526	5884
3494.236	5925
3495.944	5774
3497.652	5960
3499.359	5857
3501.066	5957
3502.775	5895
3504.481	5866
3506.187	5824
3507.893	5863
3509.598	5697
3511.304	5857
3513.009	5907
3514.713	5803
3516.417	5929
3518.12	5837
3519.821	5849
3521.525	5838
3523.228	5753
3524.929	5823
3526.631	5677
3528.33	5860
3530.032	5678
3531.733	5745
3533.433	5751
3535.131	5795
3536.83	5730
3538.529	5711
3540.227	5752
3541.925	5749
3543.623	5720
3545.319	5684
3547.016	5712
3548.712	5727
3550.408	5634
3552.103	5736
3553.798	5677
3555.491	5751
3557.188	5586
3558.88	5624
3560.574	5645
3562.266	5714
3563.959	5703
3565.651	5644
3567.343	5566
3569.035	5654
3570.725	5632
3572.415	5585
3574.106	5592
3575.797	5546
3577.485	5540
3579.174	5548
3580.863	5639
3582.551	5543
3584.238	5490
3585.926	5545
3587.613	5673
3589.3	5525
3590.986	5451
3592.671	5562
3594.357	5610
3596.042	5505
3597.726	5498
3599.41	5526
3601.094	5482
3602.778	5464
3604.461	5380
3606.143	5508
3607.825	5579
3609.507	5550
3611.188	5456
3612.87	5443
3614.551	5386
3616.229	5332
3617.909	5354
3619.589	5397
3621.269	5379
3622.948	5371
3624.625	5381
3626.302	5379
3627.98	5338
3629.657	5351
3631.334	5372
3633.01	5398
3634.686	5324
3636.361	5301
3638.036	5360
3639.712	5294
3641.385	5402
3643.06	5237
3644.732	5336
3646.405	5292
3648.08	5229
3649.751	5205
3651.424	5361
3653.094	5207
3654.766	5312
3656.436	5226
3658.106	5214
3659.777	5245
3661.446	5186
3663.115	5232
3664.783	5135
3666.452	5190
3668.121	5174
3669.788	5158
3671.454	5227
3673.121	5199
3674.789	5247
3676.455	5193
3678.12	5257
3679.784	5186
3681.45	5201
3683.114	5136
3684.779	5115
3686.442	5181
3688.105	5185
3689.768	5100
3691.43	5109
3693.093	5080
3694.754	5191
3696.415	5117
3698.076	5194
3699.736	5195
3701.396	5193
3703.057	5071
3704.716	5104
3706.375	5056
3708.034	5088
3709.692	5061
3711.351	5070
3713.008	5092
3714.665	5121
3716.321	5102
3717.977	5025
3719.634	5076
3721.29	5051
3722.945	5028
3724.598	5079
3726.253	5063
3727.907	5121
3729.561	5073
3731.214	4981
3732.867	4923
3734.518	5010
3736.171	5002
3737.824	5010
3739.474	5069
3741.125	5118
3742.775	4914
3744.425	5045
3746.074	5055
3747.725	4985
3749.373	4995
3751.022	4944
3752.669	4995
3754.318	4981
3755.966	4971
3757.612	4899
3759.259	4927
3760.905	4925
3762.55	4939
3764.197	4954
3765.842	4799
3767.486	4893
3769.131	4934
3770.774	4905
3772.417	4906
3774.061	4863
3775.705	4898
3777.347	4887
3778.988	4883
3780.629	4830
3782.271	4934
3783.912	4891
3785.552	4910
3787.192	4915
3788.831	4824
3790.472	4775
3792.112	4795
3793.75	4887
3795.388	4845
3797.024	4847
3798.661	4820
3800.3	4733
3801.936	4803
3803.572	4772
3805.208	4764
3806.844	4808
3808.48	4775
3810.115	4743
3811.748	4828
3813.382	4897
3815.016	4698
3816.649	4824
3818.283	4782
3819.914	4746
3821.547	4785
3823.178	4662
3824.809	4690
3826.441	4763
3828.072	4672
3829.701	4815
3831.331	4759
3832.96	4750
3834.591	4723
3836.219	4771
3837.847	4735
3839.475	4652
3841.102	4641
3842.729	4695
3844.357	4716
3845.984	4744
3847.609	4605
3849.234	4684
3850.86	4633
3852.485	4646
3854.11	4614
3855.734	4598
3857.357	4683
3858.981	4582
3860.603	4656
3862.227	4664
3863.848	4617
3865.471	4504
3867.092	4605
3868.713	4577
3870.334	4531
3871.954	4540
3873.575	4559
3875.194	4643
3876.813	4487
3878.433	4536
3880.051	4574
3881.669	4507
3883.286	4526
3884.904	4579
3886.52	4445
3888.138	4657
3889.754	4517
3891.37	4520
3892.985	4528
3894.6	4515
3896.216	4565
3897.831	4500
3899.444	4521
3901.058	4572
3902.67	4469
3904.283	4506
3905.897	4431
3907.509	4481
3909.121	4496
3910.731	4575
3912.342	4475
3913.954	4487
3915.563	4544
3917.174	4465
3918.783	4488
3920.391	4510
3922.002	4521
3923.611	4505
3925.218	4388
3926.826	4444
3928.432	4482
3930.039	4483
3931.647	4406
3933.253	4389
3934.859	4355
3936.464	4397
3938.068	4502
3939.675	4399
3941.278	4446
3942.883	4341
3944.486	4385
3946.089	4378
3947.692	4422
3949.295	4436
3950.898	4502
3952.499	4336
3954.1	4417
3955.7	4404
3957.303	4351
3958.903	4352
3960.502	4428
3962.101	4423
3963.7	4399
3965.301	4317
3966.899	4363
3968.497	4366
3970.094	4311
3971.691	4296
3973.288	4340
3974.885	4355
3976.481	4351
3978.077	4301
3979.672	4174
3981.267	4286
3982.863	4244
3984.457	4281
3986.051	4264
3987.645	4181
3989.238	4316
3990.831	4217
3992.425	4262
3994.017	4172
3995.607	4252
3997.199	4255
3998.79	4244
4000.382	4237
4001.973	4256
4003.561	4174
4005.151	4136
4006.741	4237
4008.331	4241
4009.918	4300
4011.507	4151
4013.095	4201
4014.681	4132
4016.269	4103
4017.856	4212
4019.443	4121
4021.028	4136
4022.614	4156
4024.199	4117
4025.785	4070
4027.37	4115
4028.953	4174
4030.536	4073
4032.12	3977
4033.704	4105
4035.287	4040
4036.869	4071
4038.45	4079
4040.032	4065
4041.613	4109
4043.195	4032
4044.776	3991
4046.356	3996
4047.935	4063
4049.515	4047
4051.095	4110
4052.674	3994
4054.251	3990
4055.829	4012
4057.406	4095
4058.985	4037
4060.562	4035
4062.139	4061
4063.715	4016
4065.29	4026
4066.865	4013
4068.442	3894
4070.016	3944
4071.59	4051
4073.164	3961
4074.738	3943
4076.312	4051
4077.885	3967
4079.458	4005
4081.03	4008
4082.602	4024
4084.173	4064
4085.745	3980
4087.315	3994
4088.886	3949
4090.456	3958
4092.026	3962
4093.596	4011
4095.165	3855
4096.734	3974
4098.301	3821
4099.869	3933
4101.437	3878
4103.006	3889
4104.572	3848
4106.139	3856
4107.704	3874
4109.27	3806
4110.837	3958
4112.401	3893
4113.966	3902
4115.53	3864
4117.094	3871
4118.659	3880
4120.223	3805
4121.785	3916
4123.347	3861
4124.909	3823
4126.471	3787
4128.034	3782
4129.595	3872
4131.155	3919
4132.716	3907
4134.275	3729
4135.836	3809
4137.395	3708
4138.955	3832
4140.513	3827
4142.071	3745
4143.628	3771
4145.188	3765
4146.745	3762
4148.302	3761
4149.858	3740
4151.414	3797
4152.971	3732
4154.526	3803
4156.081	3633
4157.635	3776
4159.189	3716
4160.745	3647
4162.298	3630
4163.852	3722
4165.405	3682
4166.957	3682
4168.51	3694
4170.063	3642
4171.614	3746
4173.166	3666
4174.717	3769
4176.267	3645
4177.817	3636
4179.368	3669
4180.917	3665
4182.466	3720
4184.016	3649
4185.564	3659
4187.112	3603
4188.66	3691
4190.207	3636
4191.754	3610
4193.301	3646
4194.848	3707
4196.394	3572
4197.94	3625
4199.484	3615
4201.03	3649
4202.575	3680
4204.12	3646
4205.663	3581
4207.207	3586
4208.75	3670
4210.292	3567
4211.836	3581
4213.378	3560
4214.92	3498
4216.46	3570
4218.002	3647
4219.544	3639
4221.083	3520
4222.625	3522
4224.164	3594
4225.703	3586
4227.244	3479
4228.782	3481
4230.32	3579
4231.857	3559
4233.395	3545
4234.933	3474
4236.471	3536
4238.007	3519
4239.542	3507
4241.078	3450
4242.614	3530
4244.15	3496
4245.685	3551
4247.219	3507
4248.753	3504
4250.287	3485
4251.82	3499
4253.354	3463
4254.887	3395
4256.419	3490
4257.951	3416
4259.483	3472
4261.016	3450
4262.547	3467
4264.078	3524
4265.608	3480
4267.137	3382
4268.668	3443
4270.197	3415
4271.727	3453
4273.254	3430
4274.783	3418
4276.311	3437
4277.84	3349
4279.366	3385
4280.894	3341
4282.42	3487
4283.946	3358
4285.473	3459
4286.998	3354
4288.523	3321
4290.047	3434
4291.572	3358
4293.096	3360
4294.622	3358
4296.144	3384
4297.668	3300
4299.19	3420
4300.713	3379
4302.236	3317
4303.758	3405
4305.279	3332
4306.799	3316
4308.321	3319
4309.842	3283
4311.361	3308
4312.882	3355
4314.401	3307
