400.0961	4621
402.6185	4646
405.1424	4683
407.6635	4642
410.1838	4695
412.7035	4698
415.2225	4713
417.7388	4850
420.2585	4803
422.7754	4926
425.2917	4904
427.8072	4978
430.3221	4971
432.8363	4956
435.3498	5048
437.8626	5095
440.3727	4974
442.8841	5038
445.3969	5010
447.907	5047
450.4142	4993
452.9229	5075
455.4289	4990
457.9362	5018
460.4449	4951
462.9488	4958
465.454	4920
467.9566	4965
470.4604	4894
472.9637	4928
475.4662	4935
477.966	5024
480.4671	4951
482.9656	4942
485.4633	5014
487.9645	5135
490.4608	5029
492.9566	5026
495.4536	5106
497.948	5018
500.4437	5128
502.9387	5032
505.431	5137
507.9226	5124
510.4136	5156
512.9079	5087
515.3975	5131
517.8864	5116
520.3746	5138
522.8622	5139
525.3491	5139
527.8394	5114
530.3249	5184
532.8098	5120
535.2939	5163
537.7774	5184
540.2623	5117
542.7444	5146
545.2259	5201
547.7067	5057
550.1868	5203
552.6683	5220
555.147	5174
557.6231	5208
560.1005	5266
562.5773	5164
565.0534	5225
567.5308	5254
570.0056	5247
572.4776	5343
574.951	5418
577.4237	5420
579.8978	5423
582.3671	5408
584.8378	5460
587.3079	5503
589.7773	5426
592.244	5421
594.714	5498
597.1793	5535
599.6461	5424
602.1121	5276
604.5754	5416
607.0421	5360
609.5042	5378
611.9675	5371
614.4282	5406
616.8902	5333
619.3515	5368
621.8122	5336
624.2702	5279
626.7296	5437
629.1863	5372
631.6423	5321
634.1017	5287
636.5563	5399
639.0104	5419
641.4658	5386
643.9185	5335
646.3725	5452
648.8239	5356
651.2766	5408
653.7266	5484
656.176	5417
658.6247	5423
661.0748	5462
663.5242	5377
665.9709	5513
668.417	5468
670.8624	5513
673.3092	5407
675.7533	5398
678.1968	5580
680.6395	5407
683.0817	5531
685.5251	5499
687.9659	5376
690.4061	5593
692.8456	5477
695.2844	5541
697.7226	5578
700.1621	5634
702.599	5656
705.0332	5623
707.4688	5548
709.9036	5706
712.3399	5676
714.7735	5603
717.2044	5653
719.6367	5752
722.0683	5672
724.4993	5722
726.9296	5747
729.3593	5753
731.7883	5665
734.2147	5637
736.6423	5723
739.0714	5760
741.4958	5753
743.9216	5806
746.3447	5799
748.7691	5876
751.1929	5767
753.616	5831
756.0366	5908
758.4584	5958
760.8776	5912
763.2982	5895
765.718	5836
768.1373	5941
770.5539	5939
772.9698	6069
775.3871	5885
777.8038	5973
780.2178	5924
782.6332	5975
785.0459	5847
787.458	5998
789.8714	5919
792.2842	5858
794.6943	5975
797.1038	6021
799.5127	6009
801.9209	5944
804.3324	5976
806.7393	5955
809.1456	5949
811.5513	6068
813.9562	6039
816.3625	6017
818.7663	6135
821.1693	5999
823.5718	6103
825.9735	6000
828.3746	6083
830.7771	5904
833.177	6079
835.5762	6050
837.9747	6129
840.3727	5946
842.772	6113
845.1666	6204
847.5626	6205
849.958	6151
852.3527	6119
854.7488	6356
857.1403	6271
859.5331	6246
861.9253	6128
864.3168	6173
866.7057	6307
869.098	6096
871.4876	6183
873.8746	6069
876.263	6114
878.6487	6223
881.0378	6177
883.4243	6183
885.8081	6162
888.1933	6199
890.5759	6143
892.9598	6232
895.343	6184
897.7256	6243
900.1057	6206
902.4871	6184
904.8659	6182
907.246	6280
909.6254	6335
912.0023	6241
914.3786	6378
916.7562	6500
919.1331	6422
921.5074	6510
923.8831	6525
926.2562	6645
928.6287	6554
931.0005	6456
933.3757	6436
935.7462	6640
938.1162	6608
940.4855	6769
942.8542	6825
945.2242	6728
947.5916	7021
949.9584	7103
952.3266	7289
954.6921	7604
957.0571	7889
959.4233	8284
961.787	8345
964.15	8216
966.5125	8123
968.8742	7699
971.2354	7333
973.5959	7028
975.9559	6827
978.3151	6772
980.6738	6705
983.0338	6462
985.3912	6494
987.7461	6507
990.1022	6439
992.4578	6500
994.8127	6397
997.1689	6422
999.5207	6504
1001.874	6497
1004.226	6493
1006.576	6532
1008.929	6472
1011.28	6362
1013.628	6472
1015.977	6492
1018.324	6452
1020.674	6433
1023.019	6408
1025.366	6588
1027.713	6604
1030.056	6567
1032.399	6556
1034.746	6569
1037.087	6563
1039.431	6623
1041.771	6587
1044.113	6587
1046.454	6641
1048.793	6666
1051.133	6543
1053.471	6514
1055.807	6672
1058.146	6619
1060.483	6623
1062.818	6668
1065.153	6777
1067.489	6684
1069.822	6640
1072.156	6860
1074.488	6764
1076.82	6850
1079.15	6784
1081.48	6760
1083.814	6524
1086.143	6740
1088.471	6565
1090.799	6594
1093.126	6594
1095.452	6726
1097.78	6605
1100.105	6658
1102.43	6546
1104.754	6681
1107.077	6528
1109.4	6594
1111.722	6653
1114.044	6592
1116.365	6737
1118.685	6519
1121.005	6754
1123.324	6597
1125.643	6690
1127.961	6621
1130.278	6645
1132.595	6591
1134.911	6630
1137.226	6506
1139.541	6577
1141.854	6732
1144.167	6501
1146.482	6644
1148.793	6558
1151.105	6697
1153.414	6574
1155.725	6663
1158.033	6658
1160.344	6653
1162.651	6645
1164.959	6684
1167.265	6766
1169.572	6706
1171.878	6543
1174.184	6624
1176.488	6567
1178.79	6687
1181.094	6554
1183.396	6711
1185.699	6579
1188.001	6696
1190.301	6611
1192.6	6521
1194.9	6588
1197.2	6613
1199.497	6661
1201.794	6612
1204.09	6594
1206.387	6633
1208.684	6647
1210.978	6680
1213.272	6620
1215.565	6702
1217.858	6583
1220.15	6547
1222.443	6570
1224.734	6721
1227.024	6756
1229.313	6694
1231.602	6753
1233.892	6779
1236.18	6878
1238.467	6919
1240.754	6915
1243.04	6824
1245.325	6823
1247.612	6856
1249.896	6999
1252.178	6811
1254.461	7063
1256.743	6879
1259.027	6831
1261.308	6877
1263.587	6818
1265.867	6888
1268.146	7047
1270.425	6948
1272.703	6943
1274.981	7002
1277.256	6960
1279.532	6859
1281.808	6838
1284.083	6908
1286.358	6957
1288.63	6838
1290.904	6835
1293.175	6838
1295.449	6887
1297.719	6839
1299.99	6743
1302.259	6727
1304.529	6700
1306.798	6798
1309.065	6795
1311.333	6677
1313.599	6775
1315.866	6870
1318.131	6854
1320.396	6791
1322.66	6665
1324.925	6839
1327.187	6746
1329.448	6916
1331.711	6952
1333.974	6905
1336.234	6856
1338.493	6853
1340.752	6785
1343.01	6770
1345.269	6839
1347.526	6897
1349.784	6734
1352.04	6800
1354.295	6799
1356.552	6894
1358.806	6886
1361.059	6753
1363.312	6705
1365.564	6783
1367.818	6912
1370.069	6961
1372.318	6841
1374.568	6842
1376.817	6989
1379.066	6737
1381.316	6992
1383.564	6996
1385.809	6889
1388.056	6931
1390.301	6986
1392.549	6991
1394.793	7072
1397.036	6992
1399.279	6975
1401.522	7095
1403.763	7233
1406.007	6921
1408.248	7036
1410.487	7061
1412.727	7029
1414.965	7058
1417.205	6954
1419.442	7086
1421.68	7096
1423.915	7041
1426.152	7088
1428.388	7169
1430.623	7040
1432.857	7170
1435.091	7147
1437.323	7174
1439.556	7081
1441.789	7174
1444.019	7038
1446.25	7161
1448.48	7208
1450.708	7225
1452.938	7155
1455.167	7179
1457.394	7291
1459.62	7247
1461.846	7120
1464.073	7194
1466.299	7155
1468.523	7167
1470.746	7112
1472.969	7169
1475.191	7019
1477.415	7104
1479.636	7035
1481.858	6964
1484.078	6855
1486.298	6896
1488.518	7017
1490.736	6927
1492.954	6791
1495.169	6800
1497.386	6841
1499.602	6887
1501.819	6785
1504.034	6894
1506.248	6796
1508.462	6883
1510.675	6751
1512.888	6844
1515.1	6750
1517.311	6838
1519.522	6780
1521.732	6772
1523.942	6900
1526.151	6783
1528.36	6733
1530.566	6808
1532.773	6663
1534.98	6815
1537.187	6870
1539.392	6876
1541.596	6730
1543.801	6842
1546.005	6786
1548.208	6847
1550.411	6923
1552.612	6845
1554.814	6973
1557.013	6896
1559.212	7047
1561.414	6925
1563.612	7023
1565.811	6965
1568.007	7013
1570.203	6941
1572.403	6926
1574.598	7041
1576.792	7067
1578.988	7010
1581.181	7119
1583.376	7039
1585.568	7090
1587.761	7000
1589.952	7017
1592.143	7102
1594.333	7008
1596.524	7015
1598.715	7121
1600.903	7000
1603.091	7126
1605.278	7155
1607.466	6939
1609.652	7064
1611.838	7072
1614.023	7136
1616.207	7105
1618.391	7107
1620.576	7085
1622.759	7193
1624.941	7150
1627.123	7073
1629.304	7115
1631.484	7191
1633.664	7071
1635.844	7127
1638.022	7132
1640.201	7144
1642.38	7211
1644.556	7088
1646.732	7269
1648.908	7190
1651.084	7255
1653.257	7205
1655.433	7200
1657.607	7156
1659.779	7334
1661.951	7202
1664.122	7271
1666.295	7285
1668.467	7271
1670.635	7278
1672.805	7251
1674.973	7282
1677.142	7198
1679.31	7299
1681.478	7115
1683.644	7135
1685.81	7176
1687.975	7187
1690.142	7221
1692.305	7171
1694.468	7216
1696.632	7073
1698.794	7117
1700.957	7031
1703.119	7148
1705.279	7101
1707.439	7078
1709.598	6981
1711.758	7011
1713.917	7101
1716.075	7043
1718.231	7148
1720.388	7092
1722.543	7084
1724.702	7102
1726.856	7030
1729.01	6882
1731.164	6995
1733.317	7088
1735.471	7025
1737.623	7002
1739.774	7032
1741.925	6999
1744.075	7021
1746.225	7028
1748.376	7026
1750.524	7071
1752.672	7028
1754.82	7128
1756.965	7056
1759.113	7016
1761.259	7063
1763.405	7086
1765.549	7074
1767.694	6966
1769.836	7151
1771.981	7107
1774.123	7106
1776.264	7000
1778.405	6997
1780.546	7160
1782.687	7163
1784.827	7174
1786.966	7065
1789.103	7068
1791.242	7088
1793.381	7192
1795.517	7058
1797.653	7087
1799.788	7132
1801.923	7131
1804.057	7156
1806.193	7084
1808.326	7157
1810.457	7049
1812.59	7069
1814.721	7111
1816.855	7119
1818.984	7244
1821.113	7094
1823.244	7103
1825.372	7127
1827.499	7114
1829.63	7025
1831.756	7082
1833.882	7045
1836.007	6996
1838.132	6971
1840.26	7043
1842.384	7004
1844.507	7122
1846.63	7029
1848.752	7081
1850.875	6930
1852.996	7032
1855.118	6958
1857.238	7077
1859.358	7020
1861.477	6964
1863.597	7067
1865.715	6997
1867.832	7030
1869.948	7005
1872.064	7042
1874.181	7018
1876.297	7076
1878.411	7053
1880.526	7108
1882.639	6959
1884.752	7071
1886.865	7052
1888.977	7022
1891.089	7062
1893.2	7027
1895.308	7051
1897.42	7081
1899.53	7140
1901.639	7169
1903.745	6975
1905.853	7086
1907.962	7052
1910.067	7232
1912.174	6995
1914.278	7147
1916.383	7176
1918.486	7051
1920.592	7180
1922.694	7128
1924.797	7111
1926.898	7188
1929	7125
1931.102	7057
1933.203	7023
1935.301	7175
1937.401	7032
1939.499	7224
1941.598	7132
1943.697	7102
1945.793	7102
1947.888	7256
1949.985	7251
1952.08	7140
1954.176	7195
1956.269	7105
1958.364	7158
1960.457	7119
1962.549	7166
1964.642	7121
1966.733	7092
1968.823	7252
1970.913	7210
1973.005	7247
1975.093	7113
1977.184	7136
1979.271	7100
1981.359	7173
1983.446	7048
1985.532	7098
1987.619	7053
1989.705	7138
1991.789	7017
1993.874	7129
1995.956	6963
1998.041	7052
2000.123	6898
2002.206	7117
2004.287	7105
2006.368	7061
2008.449	7073
2010.529	7068
2012.609	7037
2014.688	7006
2016.766	7012
2018.843	6954
2020.922	7129
2022.999	6976
2025.074	7056
2027.15	7037
2029.225	7142
2031.299	6964
2033.375	7102
2035.447	7197
2037.52	7037
2039.592	6993
2041.664	7060
2043.736	7067
2045.807	7039
2047.876	7142
2049.947	6989
2052.015	7043
2054.086	7161
2056.153	7114
2058.221	7125
2060.288	7061
2062.353	7040
2064.42	6955
2066.486	7042
2068.55	7049
2070.614	7048
2072.678	7041
2074.741	7135
2076.805	7122
2078.866	7129
2080.929	7024
2082.99	7112
2085.049	7081
2087.109	7027
2089.17	7075
2091.228	7064
2093.286	7113
2095.344	7148
2097.4	7026
2099.46	7017
2101.516	7109
2103.572	7102
2105.626	7082
2107.679	7064
2109.735	7084
2111.788	7036
2113.841	6968
2115.894	7005
2117.945	7016
2119.997	7084
2122.049	7079
2124.1	7078
2126.148	7090
2128.197	7093
2130.246	7013
2132.296	6970
2134.342	7036
2136.39	7019
2138.437	7035
2140.483	6945
2142.527	7116
2144.574	6939
2146.619	7054
2148.661	7078
2150.705	6906
2152.747	7104
2154.792	7041
2156.832	7019
2158.874	7088
2160.915	6885
2162.954	6990
2164.995	7012
2167.034	7042
2169.072	7065
2171.111	7024
2173.148	6913
2175.186	6930
2177.223	7024
2179.258	6828
2181.294	7033
2183.328	6964
2185.362	7047
2187.398	6839
2189.431	6872
2191.463	6883
2193.495	6830
2195.528	7019
2197.56	6879
2199.59	6997
2201.62	6955
2203.649	7034
2205.678	6865
2207.708	6949
2209.737	6926
2211.764	6900
2213.791	6973
2215.817	6835
2217.843	6808
2219.87	6810
2221.895	6970
2223.919	6886
2225.942	6771
2227.966	6869
2229.988	6822
2232.012	6856
2234.032	6765
2236.054	6908
2238.074	6861
2240.095	6874
2242.116	6823
2244.135	6821
2246.153	6830
2248.171	6877
2250.188	6893
2252.208	6799
2254.223	6872
2256.239	6718
2258.255	6738
2260.269	6833
2262.283	6838
2264.3	6825
2266.312	6770
2268.325	6868
2270.336	6927
2272.349	6882
2274.362	6772
2276.372	6898
2278.383	6751
2280.392	6827
2282.402	6820
2284.409	6763
2286.418	6758
2288.427	6840
2290.433	6857
2292.441	6744
2294.446	6914
2296.453	6831
2298.459	6873
2300.463	6778
2302.466	6929
2304.471	6907
2306.475	6781
2308.477	6877
2310.478	6802
2312.481	6836
2314.481	6824
2316.481	6723
2318.482	6845
2320.482	6910
2322.48	6914
2324.48	6786
2326.478	6647
2328.476	6821
2330.473	6666
2332.469	6711
2334.465	6834
2336.46	6837
2338.454	6717
2340.45	6674
2342.444	6638
2344.437	6657
2346.43	6622
2348.421	6762
2350.414	6703
2352.405	6742
2354.396	6752
2356.386	6619
2358.376	6715
2360.366	6674
2362.355	6749
2364.343	6660
2366.331	6657
2368.317	6670
2370.304	6798
2372.292	6675
2374.278	6606
2376.262	6728
2378.247	6603
2380.23	6515
2382.216	6705
2384.199	6663
2386.181	6580
2388.163	6524
2390.144	6531
2392.127	6606
2394.107	6538
2396.087	6769
2398.066	6521
2400.046	6564
2402.023	6661
2404.004	6677
2405.981	6607
2407.957	6525
2409.934	6493
2411.91	6629
2413.886	6641
2415.862	6530
2417.836	6618
2419.809	6541
2421.784	6496
2423.756	6577
2425.73	6508
2427.701	6493
2429.672	6695
2431.644	6647
2433.615	6522
2435.586	6579
2437.555	6492
2439.523	6606
2441.491	6548
2443.459	6596
2445.428	6632
2447.395	6612
2449.361	6582
2451.327	6585
2453.292	6539
2455.257	6500
2457.223	6493
2459.187	6561
2461.15	6540
2463.113	6444
2465.076	6447
2467.039	6426
2468.999	6593
2470.96	6525
2472.921	6541
2474.881	6481
2476.841	6580
2478.8	6458
2480.759	6478
2482.717	6491
2484.675	6581
2486.63	6392
2488.589	6579
2490.545	6443
2492.5	6488
2494.455	6451
2496.408	6372
2498.364	6479
2500.318	6388
2502.27	6526
2504.223	6458
2506.174	6456
2508.126	6470
2510.078	6402
2512.03	6542
2513.979	6454
2515.927	6308
2517.877	6544
2519.826	6446
2521.775	6449
2523.722	6254
2525.668	6414
2527.616	6438
2529.561	6357
2531.508	6480
2533.452	6390
2535.398	6402
2537.342	6406
2539.284	6367
2541.229	6460
2543.173	6416
2545.114	6296
2547.055	6324
2548.996	6430
2550.938	6410
2552.878	6409
2554.817	6411
2556.756	6376
2558.695	6355
2560.633	6511
2562.572	6341
2564.509	6519
2566.445	6336
2568.382	6462
2570.317	6382
2572.254	6386
2574.189	6442
2576.123	6354
2578.057	6380
2579.99	6506
2581.923	6439
2583.855	6352
2585.788	6272
2587.719	6342
2589.65	6458
2591.579	6268
2593.511	6420
2595.44	6383
2597.37	6433
2599.297	6355
2601.225	6349
2603.153	6386
2605.08	6489
2607.007	6287
2608.932	6494
2610.858	6310
2612.782	6365
2614.709	6310
2616.632	6232
2618.556	6416
2620.478	6482
2622.401	6430
2624.324	6427
2626.247	6420
2628.167	6491
2630.088	6379
2632.008	6484
2633.928	6419
2635.848	6343
2637.766	6367
2639.684	6390
2641.603	6398
2643.519	6389
2645.437	6438
2647.353	6439
2649.27	6480
2651.184	6364
2653.099	6292
2655.014	6481
2656.928	6322
2658.842	6414
2660.755	6259
2662.667	6383
2664.579	6412
2666.491	6375
2668.402	6393
2670.312	6422
2672.222	6291
2674.132	6478
2676.042	6261
2677.951	6385
2679.859	6451
2681.766	6157
2683.674	6349
2685.582	6323
2687.488	6382
2689.392	6257
2691.298	6478
2693.202	6221
2695.107	6257
2697.012	6294
2698.914	6226
2700.817	6292
2702.72	6388
2704.622	6197
2706.524	6241
2708.425	6113
2710.326	6144
2712.225	6334
2714.125	6148
2716.024	6343
2717.923	6324
2719.822	6249
2721.719	6191
2723.616	6199
2725.512	6213
2727.41	6245
2729.305	6228
2731.201	6193
2733.095	6246
2734.99	6215
2736.884	6250
2738.778	6243
2740.67	6280
2742.562	6242
2744.455	6239
2746.346	6229
2748.238	6150
2750.129	6303
2752.018	6286
2753.907	6064
2755.797	6129
2757.687	6204
2759.575	6158
2761.462	6189
2763.349	6251
2765.237	6272
2767.124	6182
2769.009	6197
2770.894	6189
2772.779	6123
2774.663	6120
2776.547	6138
2778.431	6273
2780.314	6235
2782.197	6161
2784.078	6214
2785.96	6095
2787.842	6074
2789.723	6259
2791.603	6141
2793.483	6070
2795.362	6205
2797.241	6037
2799.121	6142
2800.997	6131
2802.874	6217
2804.751	6152
2806.628	6151
2808.506	6094
2810.38	6125
2812.255	6044
2814.13	6188
2816.003	6139
2817.878	6150
2819.752	6089
2821.623	6079
2823.496	6203
2825.368	6186
2827.238	6043
2829.111	6105
2830.98	6072
2832.851	6022
2834.719	6055
2836.589	6123
2838.458	6098
2840.327	6138
2842.193	6210
2844.061	6194
2845.927	6129
2847.794	6198
2849.66	6237
2851.525	6164
2853.39	6254
2855.254	6239
2857.117	6171
2858.983	6281
2860.845	6298
2862.707	6148
2864.569	6288
2866.431	6292
2868.293	6293
2870.154	6441
2872.013	6488
2873.873	6426
2875.733	6559
2877.592	6435
2879.451	6485
2881.309	6718
2883.166	6718
2885.022	6808
2886.879	6756
2888.736	6658
2890.591	7031
2892.446	6730
2894.301	6839
2896.155	6688
2898.009	6853
2899.863	6718
2901.716	6691
2903.568	6715
2905.419	6707
2907.27	6564
2909.123	6742
2910.973	6728
2912.824	6693
2914.673	6767
2916.521	6874
2918.372	6986
2920.22	6925
2922.067	7020
2923.914	7047
2925.761	7072
2927.607	7097
2929.455	7302
2931.301	7323
2933.144	7348
2934.99	7406
2936.833	7472
2938.678	7465
2940.522	7397
2942.364	7613
2944.207	7685
2946.048	7661
2947.891	7763
2949.731	7776
2951.571	7713
2953.412	7787
2955.25	7558
2957.09	7520
2958.93	7502
2960.767	7317
2962.606	7300
2964.443	7312
2966.279	7285
2968.116	7007
2969.953	7039
2971.788	7031
2973.623	6932
2975.457	6833
2977.292	6897
2979.127	6839
2980.959	6831
2982.792	6808
2984.624	6831
2986.455	6738
2988.288	6778
2990.119	6698
2991.949	6690
2993.779	6628
2995.608	6606
2997.439	6569
2999.268	6459
3001.096	6442
3002.923	6353
3004.751	6352
3006.578	6204
3008.406	6254
3010.232	6192
3012.057	6201
3013.883	6088
3015.706	6044
3017.532	6045
3019.356	5980
3021.179	6048
3023.002	5955
3024.823	5814
3026.646	5946
3028.469	5867
3030.289	5914
3032.11	5940
3033.93	5811
3035.749	5766
3037.57	5854
3039.39	5935
3041.207	5814
3043.026	5828
3044.842	5805
3046.661	5709
3048.477	5785
3050.294	5805
3052.109	5847
3053.925	5841
3055.739	5745
3057.555	5848
3059.368	5721
3061.181	5767
3062.995	5736
3064.807	5785
3066.62	5733
3068.433	5640
3070.243	5812
3072.054	5816
3073.865	5743
3075.675	5784
3077.485	5824
3079.293	5655
3081.102	5609
3082.911	5652
3084.719	5675
3086.527	5764
3088.333	5657
3090.139	5631
3091.945	5649
3093.75	5696
3095.557	5714
3097.361	5602
3099.165	5619
3100.969	5458
3102.772	5564
3104.575	5596
3106.379	5525
3108.181	5548
3109.982	5589
3111.783	5540
3113.584	5525
3115.386	5560
3117.186	5682
3118.985	5563
3120.783	5571
3122.582	5425
3124.381	5435
3126.179	5428
3127.975	5451
3129.772	5481
3131.569	5440
3133.365	5511
3135.161	5521
3136.956	5552
3138.751	5478
3140.544	5393
3142.338	5532
3144.132	5507
3145.925	5478
3147.717	5418
3149.509	5407
3151.301	5500
3153.091	5531
3154.884	5392
3156.673	5463
3158.462	5428
3160.252	5409
3162.041	5398
3163.831	5322
3165.618	5259
3167.405	5537
3169.193	5405
3170.979	5485
3172.767	5401
3174.553	5560
3176.338	5411
3178.123	5346
3179.907	5353
3181.692	5433
3183.477	5270
3185.259	5380
3187.042	5422
3188.824	5313
3190.607	5431
3192.389	5407
3194.17	5331
3195.951	5406
3197.73	5355
3199.51	5413
3201.289	5319
3203.07	5291
3204.848	5374
3206.626	5311
3208.403	5402
3210.18	5281
3211.959	5435
3213.735	5334
3215.511	5443
3217.285	5340
3219.06	5367
3220.836	5335
3222.611	5380
3224.384	5438
3226.158	5327
3227.929	5385
3229.702	5352
3231.476	5419
3233.248	5403
3235.018	5322
3236.789	5363
3238.56	5392
3240.33	5262
3242.1	5375
3243.869	5323
3245.637	5331
3247.405	5286
3249.172	5398
3250.941	5314
3252.707	5309
3254.474	5321
3256.24	5242
3258.006	5336
3259.772	5329
3261.537	5244
3263.301	5340
3265.065	5490
3266.828	5344
3268.592	5296
3270.355	5479
3272.117	5327
3273.878	5319
3275.64	5364
3277.401	5414
3279.162	5295
3280.922	5343
3282.682	5314
3284.441	5322
3286.199	5292
3287.959	5350
3289.716	5263
3291.475	5293
3293.232	5374
3294.988	5374
3296.744	5228
3298.501	5311
3300.256	5330
3302.011	5327
3303.766	5251
3305.52	5291
3307.275	5336
3309.028	5314
3310.781	5246
3312.533	5369
3314.285	5361
3316.038	5316
3317.789	5410
3319.54	5290
3321.289	5238
3323.039	5278
3324.789	5182
3326.539	5287
3328.288	5325
3330.035	5336
3331.783	5303
3333.531	5303
3335.28	5301
3337.025	5346
3338.771	5230
3340.518	5212
3342.262	5249
3344.009	5271
3345.753	5315
3347.497	5301
3349.24	5224
3350.983	5157
3352.726	5141
3354.469	5190
3356.212	5164
3357.952	5233
3359.694	5204
3361.434	5193
3363.176	5179
3364.916	5222
3366.654	5164
3368.394	5108
3370.132	5162
3371.871	5215
3373.61	5144
3375.346	5081
3377.083	5161
3378.82	5075
3380.556	5122
3382.292	5125
3384.027	5096
3385.763	5130
3387.497	5053
3389.231	5171
3390.965	5106
3392.698	5096
3394.431	5087
3396.164	5044
3397.896	5179
3399.627	5080
3401.36	5154
3403.09	5045
3404.82	5179
3406.55	5047
3408.279	5101
3410.01	5132
3411.738	5092
3413.467	5004
3415.194	4898
3416.92	5136
3418.647	5005
3420.375	5164
3422.102	5046
3423.827	4981
3425.553	5009
3427.277	5076
3429.003	4983
3430.727	4968
3432.451	4965
3434.173	4923
3435.896	5057
3437.62	5027
3439.343	4987
3441.063	4891
3442.785	4987
3444.505	4951
3446.226	4890
3447.948	4923
3449.666	4901
3451.386	4924
3453.104	4842
3454.823	4972
3456.541	4905
3458.259	4897
3459.976	4915
3461.693	5013
3463.408	4880
3465.125	4831
3466.841	4907
3468.556	4906
3470.271	4879
3471.985	4904
3473.698	4811
3475.414	4818
3477.126	4788
3478.838	4816
3480.55	4877
3482.263	4778
3483.975	4727
3485.686	4885
3487.396	4679
3489.106	4776
3490.817	4747
3492.526	4762
3494.236	4788
3495.944	4691
3497.652	4666
3499.359	4743
3501.066	4625
3502.775	4753
3504.481	4670
3506.187	4662
3507.893	4765
3509.598	4688
3511.304	4671
3513.009	4682
3514.713	4743
3516.417	4655
3518.12	4658
3519.821	4671
3521.525	4600
3523.228	4705
3524.929	4556
3526.631	4715
3528.33	4648
3530.032	4661
3531.733	4636
3533.433	4518
3535.131	4501
3536.83	4596
3538.529	4567
3540.227	4653
3541.925	4557
3543.623	4564
3545.319	4552
3547.016	4575
3548.712	4593
3550.408	4504
3552.103	4521
3553.798	4560
3555.491	4538
3557.188	4583
3558.88	4576
3560.574	4529
3562.266	4490
3563.959	4605
3565.651	4421
3567.343	4491
3569.035	4462
3570.725	4504
3572.415	4580
3574.106	4583
3575.797	4496
3577.485	4513
3579.174	4566
3580.863	4375
3582.551	4464
3584.238	4459
3585.926	4436
3587.613	4464
3589.3	4479
3590.986	4414
3592.671	4402
3594.357	4376
3596.042	4353
3597.726	4351
3599.41	4398
3601.094	4325
3602.778	4395
3604.461	4392
3606.143	4317
3607.825	4375
3609.507	4380
3611.188	4350
3612.87	4284
3614.551	4325
3616.229	4301
3617.909	4271
3619.589	4339
3621.269	4305
3622.948	4193
3624.625	4258
3626.302	4241
3627.98	4205
3629.657	4138
3631.334	4251
3633.01	4306
3634.686	4221
3636.361	4233
3638.036	4188
3639.712	4112
3641.385	4210
3643.06	4179
3644.732	4123
3646.405	4157
3648.08	4165
3649.751	4198
3651.424	4146
3653.094	4167
3654.766	4218
3656.436	4153
3658.106	4106
3659.777	4065
3661.446	4141
3663.115	4212
3664.783	4149
3666.452	4097
3668.121	4081
3669.788	4152
3671.454	4049
3673.121	4073
3674.789	4126
3676.455	4071
3678.12	4033
3679.784	4096
3681.45	4081
3683.114	4094
3684.779	4139
3686.442	4046
3688.105	4015
3689.768	4001
3691.43	4143
3693.093	4020
3694.754	3994
3696.415	4050
3698.076	4003
3699.736	4021
3701.396	4046
3703.057	4039
3704.716	3949
3706.375	4039
3708.034	4050
3709.692	4084
3711.351	4016
3713.008	4044
3714.665	4108
3716.321	3940
3717.977	4036
3719.634	3976
3721.29	4072
3722.945	3961
3724.598	3944
3726.253	4081
3727.907	4002
3729.561	4011
3731.214	3973
3732.867	3867
3734.518	4026
3736.171	3972
3737.824	3990
3739.474	4042
3741.125	3864
3742.775	3921
3744.425	3927
3746.074	3877
3747.725	3932
3749.373	3878
3751.022	3941
3752.669	3893
3754.318	3933
3755.966	3958
3757.612	3901
3759.259	3867
3760.905	3958
3762.55	3915
3764.197	3886
3765.842	3938
3767.486	3843
3769.131	3870
3770.774	3917
3772.417	3779
3774.061	3896
3775.705	3858
3777.347	3875
3778.988	3822
3780.629	3840
3782.271	3866
3783.912	3743
3785.552	3837
3787.192	3811
3788.831	3765
3790.472	3696
3792.112	3860
3793.75	3896
3795.388	3801
3797.024	3841
3798.661	3765
3800.3	3757
3801.936	3710
3803.572	3773
3805.208	3760
3806.844	3818
3808.48	3793
3810.115	3855
3811.748	3809
3813.382	3822
3815.016	3662
3816.649	3797
3818.283	3850
3819.914	3745
3821.547	3794
3823.178	3692
3824.809	3745
3826.441	3789
3828.072	3706
3829.701	3710
3831.331	3695
3832.96	3724
3834.591	3689
3836.219	3779
3837.847	3654
3839.475	3805
3841.102	3713
3842.729	3715
3844.357	3641
3845.984	3695
3847.609	3733
3849.234	3621
3850.86	3635
3852.485	3701
3854.11	3683
3855.734	3737
3857.357	3688
3858.981	3716
3860.603	3692
3862.227	3638
3863.848	3573
3865.471	3650
3867.092	3585
3868.713	3688
3870.334	3615
3871.954	3666
3873.575	3656
3875.194	3657
3876.813	3640
3878.433	3625
3880.051	3632
3881.669	3662
3883.286	3584
3884.904	3575
3886.52	3615
3888.138	3620
3889.754	3568
3891.37	3546
3892.985	3604
3894.6	3615
3896.216	3593
3897.831	3609
3899.444	3617
3901.058	3726
3902.67	3576
3904.283	3593
3905.897	3550
3907.509	3570
3909.121	3630
3910.731	3579
3912.342	3608
3913.954	3581
3915.563	3559
3917.174	3614
3918.783	3513
3920.391	3522
3922.002	3566
3923.611	3576
3925.218	3526
3926.826	3641
3928.432	3566
3930.039	3556
3931.647	3526
3933.253	3541
3934.859	3525
3936.464	3505
3938.068	3569
3939.675	3466
3941.278	3472
3942.883	3522
3944.486	3482
3946.089	3518
3947.692	3450
3949.295	3457
3950.898	3514
3952.499	3483
3954.1	3547
3955.7	3436
3957.303	3411
3958.903	3503
3960.502	3476
3962.101	3510
3963.7	3533
3965.301	3568
3966.899	3494
3968.497	3481
3970.094	3413
3971.691	3429
3973.288	3469
3974.885	3492
3976.481	3500
3978.077	3459
3979.672	3419
3981.267	3405
3982.863	3438
3984.457	3510
3986.051	3347
3987.645	3441
3989.238	3460
3990.831	3383
3992.425	3382
3994.017	3372
3995.607	3356
3997.199	3330
3998.79	3381
4000.382	3337
4001.973	3364
4003.561	3347
4005.151	3421
4006.741	3321
4008.331	3324
4009.918	3305
4011.507	3258
4013.095	3279
4014.681	3355
4016.269	3294
4017.856	3359
4019.443	3396
4021.028	3368
4022.614	3285
4024.199	3320
4025.785	3313
4027.37	3299
4028.953	3347
4030.536	3359
4032.12	3328
4033.704	3229
4035.287	3265
4036.869	3293
4038.45	3320
4040.032	3294
4041.613	3376
4043.195	3261
4044.776	3280
4046.356	3192
4047.935	3297
4049.515	3244
4051.095	3184
4052.674	3241
4054.251	3180
4055.829	3197
4057.406	3249
4058.985	3265
4060.562	3291
4062.139	3187
4063.715	3231
4065.29	3234
4066.865	3153
4068.442	3184
4070.016	3207
4071.59	3200
4073.164	3102
4074.738	3195
4076.312	3169
4077.885	3129
4079.458	3160
4081.03	3239
4082.602	3154
4084.173	3121
4085.745	3134
4087.315	3169
4088.886	3120
4090.456	3156
4092.026	3140
4093.596	3107
4095.165	3222
4096.734	3163
4098.301	3173
4099.869	3238
4101.437	3183
4103.006	3126
4104.572	3121
4106.139	3152
4107.704	3135
4109.27	3172
4110.837	3096
4112.401	3124
4113.966	3116
4115.53	3131
4117.094	3123
4118.659	3066
4120.223	3031
4121.785	3162
4123.347	3114
4124.909	3052
4126.471	2964
4128.034	3126
4129.595	3058
4131.155	3075
4132.716	3078
4134.275	3015
4135.836	3111
4137.395	3064
4138.955	3041
4140.513	3009
4142.071	3049
4143.628	3013
4145.188	3028
4146.745	3041
4148.302	3114
4149.858	2985
4151.414	3067
4152.971	3025
4154.526	3083
4156.081	2963
4157.635	3042
4159.189	2989
4160.745	2997
4162.298	2990
4163.852	2970
4165.405	2997
4166.957	2915
4168.51	2953
4170.063	2978
4171.614	2952
4173.166	2955
4174.717	2953
4176.267	2944
4177.817	2971
4179.368	2956
4180.917	2921
4182.466	2943
4184.016	2941
4185.564	2964
4187.112	2916
4188.66	2868
4190.207	2888
4191.754	2911
4193.301	2933
4194.848	2992
4196.394	2975
4197.94	2954
4199.484	2968
4201.03	2916
4202.575	2893
4204.12	2886
4205.663	2902
4207.207	2877
4208.75	2926
4210.292	2915
4211.836	2910
4213.378	2922
4214.92	2933
4216.46	2855
4218.002	2874
4219.544	2867
4221.083	2866
4222.625	2891
4224.164	2903
4225.703	2893
4227.244	2894
4228.782	2850
4230.32	2861
4231.857	2858
4233.395	2749
4234.933	2859
4236.471	2879
4238.007	2869
4239.542	2866
4241.078	2868
4242.614	2849
4244.15	2823
4245.685	2769
4247.219	2786
4248.753	2852
4250.287	2839
4251.82	2849
4253.354	2788
4254.887	2822
4256.419	2822
4257.951	2775
4259.483	2788
4261.016	2770
4262.547	2819
4264.078	2870
4265.608	2719
4267.137	2786
4268.668	2793
4270.197	2798
4271.727	2778
4273.254	2709
4274.783	2807
4276.311	2794
4277.84	2802
4279.366	2734
4280.894	2779
4282.42	2794
4283.946	2772
4285.473	2775
4286.998	2773
4288.523	2742
4290.047	2757
4291.572	2668
4293.096	2801
4294.622	2720
4296.144	2693
4297.668	2707
4299.19	2699
4300.713	2765
4302.236	2712
4303.758	2698
4305.279	2782
4306.799	2757
4308.321	2726
4309.842	2693
4311.361	2724
4312.882	2689
4314.401	2709
