400.0961	4121
402.6185	4011
405.1424	4077
407.6635	4069
410.1838	4063
412.7035	4108
415.2225	4105
417.7388	4195
420.2585	4140
422.7754	4113
425.2917	4284
427.8072	4264
430.3221	4218
432.8363	4411
435.3498	4300
437.8626	4318
440.3727	4280
442.8841	4295
445.3969	4273
447.907	4377
450.4142	4343
452.9229	4156
455.4289	4335
457.9362	4310
460.4449	4299
462.9488	4232
465.454	4239
467.9566	4307
470.4604	4261
472.9637	4250
475.4662	4311
477.966	4367
480.4671	4321
482.9656	4240
485.4633	4344
487.9645	4262
490.4608	4357
492.9566	4362
495.4536	4373
497.948	4309
500.4437	4341
502.9387	4409
505.431	4404
507.9226	4325
510.4136	4333
512.9079	4313
515.3975	4332
517.8864	4368
520.3746	4288
522.8622	4423
525.3491	4448
527.8394	4417
530.3249	4468
532.8098	4460
535.2939	4478
537.7774	4465
540.2623	4492
542.7444	4510
545.2259	4492
547.7067	4424
550.1868	4435
552.6683	4518
555.147	4447
557.6231	4437
560.1005	4600
562.5773	4469
565.0534	4400
567.5308	4528
570.0056	4539
572.4776	4618
574.951	4671
577.4237	4525
579.8978	4639
582.3671	4700
584.8378	4557
587.3079	4638
589.7773	4646
592.244	4660
594.714	4554
597.1793	4703
599.6461	4599
602.1121	4723
604.5754	4612
607.0421	4634
609.5042	4516
611.9675	4561
614.4282	4596
616.8902	4592
619.3515	4716
621.8122	4592
624.2702	4530
626.7296	4629
629.1863	4552
631.6423	4611
634.1017	4546
636.5563	4598
639.0104	4493
641.4658	4641
643.9185	4589
646.3725	4639
648.8239	4475
651.2766	4649
653.7266	4650
656.176	4704
658.6247	4644
661.0748	4620
663.5242	4651
665.9709	4688
668.417	4724
670.8624	4661
673.3092	4647
675.7533	4693
678.1968	4755
680.6395	4757
683.0817	4690
685.5251	4750
687.9659	4737
690.4061	4753
692.8456	4762
695.2844	4797
697.7226	4810
700.1621	4814
702.599	4849
705.0332	4788
707.4688	4848
709.9036	4768
712.3399	4867
714.7735	4848
717.2044	4980
719.6367	4889
722.0683	4886
724.4993	4969
726.9296	4829
729.3593	4923
731.7883	4908
734.2147	5041
736.6423	4933
739.0714	4904
741.4958	4992
743.9216	4982
746.3447	5053
748.7691	5063
751.1929	4975
753.616	5048
756.0366	5020
758.4584	5060
760.8776	5128
763.2982	5130
765.718	5185
768.1373	5151
770.5539	5062
772.9698	5111
775.3871	5045
777.8038	5156
780.2178	5095
782.6332	5121
785.0459	5133
787.458	5172
789.8714	5071
792.2842	5058
794.6943	5048
797.1038	5143
799.5127	5039
801.9209	5085
804.3324	5067
806.7393	5178
809.1456	5148
811.5513	5082
813.9562	5259
816.3625	5228
818.7663	5173
821.1693	5195
823.5718	5077
825.9735	5263
828.3746	5147
830.7771	5218
833.177	5235
835.5762	5188
837.9747	5261
840.3727	5204
842.772	5311
845.1666	5385
847.5626	5263
849.958	5379
852.3527	5348
854.7488	5345
857.1403	5415
859.5331	5426
861.9253	5483
864.3168	5379
866.7057	5255
869.098	5353
871.4876	5313
873.8746	5371
876.263	5332
878.6487	5313
881.0378	5268
883.4243	5296
885.8081	5235
888.1933	5340
890.5759	5351
892.9598	5324
895.343	5345
897.7256	5210
900.1057	5254
902.4871	5392
904.8659	5206
907.246	5333
909.6254	5499
912.0023	5519
914.3786	5583
916.7562	5688
919.1331	5763
921.5074	5937
923.8831	5948
926.2562	5930
928.6287	5990
931.0005	5833
933.3757	5830
935.7462	5716
938.1162	5615
940.4855	5799
942.8542	5671
945.2242	5742
947.5916	5722
949.9584	5877
952.3266	6088
954.6921	6063
957.0571	6249
959.4233	6444
961.787	6634
964.15	6450
966.5125	6484
968.8742	6165
971.2354	6044
973.5959	5896
975.9559	5748
978.3151	5817
980.6738	5667
983.0338	5697
985.3912	5647
987.7461	5622
990.1022	5617
992.4578	5556
994.8127	5551
997.1689	5552
999.5207	5580
1001.874	5564
1004.226	5641
1006.576	5529
1008.929	5594
1011.28	5545
1013.628	5530
1015.977	5581
1018.324	5502
1020.674	5553
1023.019	5543
1025.366	5469
1027.713	5603
1030.056	5590
1032.399	5590
1034.746	5669
1037.087	5506
1039.431	5651
1041.771	5539
1044.113	5645
1046.454	5622
1048.793	5537
1051.133	5567
1053.471	5529
1055.807	5551
1058.146	5595
1060.483	5537
1062.818	5670
1065.153	5643
1067.489	5621
1069.822	5583
1072.156	5751
1074.488	5674
1076.82	5645
1079.15	5677
1081.48	5693
1083.814	5679
1086.143	5545
1088.471	5602
1090.799	5602
1093.126	5663
1095.452	5555
1097.78	5699
1100.105	5658
1102.43	5520
1104.754	5618
1107.077	5653
1109.4	5695
1111.722	5587
1114.044	5676
1116.365	5660
1118.685	5728
1121.005	5706
1123.324	5719
1125.643	5735
1127.961	5713
1130.278	5740
1132.595	5568
1134.911	5625
1137.226	5740
1139.541	5546
1141.854	5617
1144.167	5658
1146.482	5716
1148.793	5656
1151.105	5592
1153.414	5654
1155.725	5573
1158.033	5611
1160.344	5618
1162.651	5614
1164.959	5693
1167.265	5747
1169.572	5718
1171.878	5637
1174.184	5775
1176.488	5715
1178.79	5758
1181.094	5831
1183.396	5806
1185.699	5766
1188.001	5769
1190.301	5689
1192.6	5736
1194.9	5738
1197.2	5775
1199.497	5689
1201.794	5740
1204.09	5681
1206.387	5657
1208.684	5583
1210.978	5714
1213.272	5697
1215.565	5555
1217.858	5633
1220.15	5733
1222.443	5640
1224.734	5646
1227.024	5830
1229.313	5814
1231.602	5846
1233.892	5819
1236.18	5864
1238.467	5861
1240.754	5921
1243.04	5990
1245.325	5980
1247.612	5905
1249.896	6081
1252.178	6022
1254.461	6044
1256.743	6014
1259.027	5968
1261.308	5967
1263.587	6073
1265.867	5953
1268.146	6021
1270.425	6068
1272.703	6005
1274.981	6007
1277.256	6071
1279.532	6063
1281.808	5936
1284.083	5886
1286.358	5959
1288.63	5988
1290.904	5911
1293.175	5926
1295.449	5872
1297.719	5924
1299.99	5835
1302.259	5867
1304.529	5851
1306.798	5963
1309.065	5865
1311.333	5909
1313.599	5840
1315.866	5972
1318.131	6018
1320.396	5948
1322.66	5833
1324.925	5903
1327.187	6021
1329.448	5990
1331.711	6126
1333.974	5988
1336.234	5917
1338.493	5965
1340.752	5911
1343.01	5773
1345.269	5840
1347.526	5869
1349.784	5872
1352.04	5829
1354.295	5825
1356.552	5827
1358.806	5883
1361.059	5858
1363.312	5900
1365.564	5827
1367.818	5929
1370.069	5992
1372.318	5905
1374.568	5923
1376.817	5985
1379.066	5853
1381.316	5930
1383.564	5967
1385.809	5977
1388.056	6078
1390.301	6109
1392.549	6138
1394.793	6180
1397.036	6270
1399.279	6402
1401.522	6349
1403.763	6394
1406.007	6282
1408.248	6373
1410.487	6498
1412.727	6384
1414.965	6322
1417.205	6472
1419.442	6227
1421.68	6219
1423.915	6261
1426.152	6169
1428.388	6242
1430.623	6167
1432.857	6269
1435.091	6170
1437.323	6214
1439.556	6260
1441.789	6374
1444.019	6246
1446.25	6252
1448.48	6273
1450.708	6388
1452.938	6452
1455.167	6288
1457.394	6441
1459.62	6361
1461.846	6441
1464.073	6308
1466.299	6332
1468.523	6250
1470.746	6193
1472.969	6099
1475.191	5982
1477.415	6102
1479.636	5951
1481.858	6025
1484.078	5947
1486.298	5871
1488.518	5962
1490.736	5914
1492.954	5792
1495.169	5840
1497.386	5947
1499.602	5969
1501.819	5928
1504.034	5868
1506.248	5873
1508.462	5810
1510.675	5851
1512.888	5801
1515.1	5831
1517.311	5856
1519.522	5857
1521.732	5771
1523.942	5838
1526.151	5755
1528.36	5805
1530.566	5846
1532.773	5845
1534.98	5837
1537.187	5804
1539.392	5829
1541.596	5923
1543.801	5980
1546.005	5853
1548.208	5858
1550.411	5887
1552.612	5892
1554.814	5984
1557.013	5860
1559.212	5948
1561.414	6020
1563.612	6072
1565.811	5982
1568.007	6067
1570.203	6048
1572.403	6075
1574.598	6051
1576.792	6009
1578.988	6055
1581.181	6045
1583.376	6030
1585.568	6078
1587.761	6056
1589.952	5975
1592.143	6076
1594.333	6030
1596.524	6042
1598.715	6011
1600.903	6075
1603.091	6039
1605.278	6063
1607.466	6178
1609.652	6144
1611.838	6030
1614.023	6097
1616.207	6010
1618.391	6029
1620.576	6023
1622.759	6095
1624.941	6161
1627.123	6122
1629.304	6165
1631.484	6056
1633.664	6139
1635.844	6144
1638.022	6229
1640.201	6347
1642.38	6203
1644.556	6174
1646.732	6204
1648.908	6157
1651.084	6217
1653.257	6269
1655.433	6243
1657.607	6293
1659.779	6237
1661.951	6255
1664.122	6248
1666.295	6261
1668.467	6202
1670.635	6260
1672.805	6330
1674.973	6267
1677.142	6263
1679.31	6235
1681.478	6359
1683.644	6208
1685.81	6208
1687.975	6239
1690.142	6175
1692.305	6207
1694.468	6176
1696.632	6182
1698.794	6107
1700.957	6105
1703.119	6067
1705.279	6164
1707.439	6096
1709.598	6138
1711.758	6123
1713.917	5987
1716.075	5974
1718.231	6026
1720.388	5979
1722.543	6157
1724.702	6075
1726.856	6057
1729.01	6015
1731.164	6086
1733.317	6093
1735.471	6092
1737.623	6076
1739.774	5975
1741.925	6090
1744.075	6075
1746.225	6099
1748.376	6002
1750.524	6054
1752.672	6072
1754.82	6015
1756.965	6094
1759.113	6047
1761.259	5991
1763.405	6020
1765.549	6133
1767.694	6051
1769.836	6138
1771.981	6002
1774.123	6076
1776.264	6064
1778.405	6029
1780.546	6064
1782.687	6091
1784.827	6037
1786.966	6087
1789.103	5952
1791.242	6124
1793.381	6013
1795.517	6100
1797.653	6096
1799.788	6077
1801.923	6159
1804.057	6141
1806.193	6137
1808.326	6154
1810.457	6043
1812.59	6105
1814.721	6120
1816.855	6234
1818.984	6084
1821.113	6047
1823.244	6072
1825.372	6111
1827.499	5967
1829.63	5978
1831.756	6006
1833.882	6094
1836.007	5956
1838.132	5999
1840.26	6064
1842.384	6007
1844.507	6143
1846.63	5962
1848.752	6067
1850.875	5935
1852.996	6006
1855.118	5964
1857.238	6094
1859.358	5999
1861.477	5926
1863.597	6039
1865.715	6077
1867.832	6012
1869.948	6196
1872.064	6050
1874.181	6037
1876.297	6017
1878.411	5996
1880.526	6048
1882.639	6139
1884.752	6078
1886.865	6158
1888.977	6033
1891.089	6155
1893.2	6026
1895.308	5988
1897.42	6096
1899.53	5978
1901.639	6181
1903.745	6034
1905.853	6154
1907.962	6042
1910.067	6085
1912.174	5941
1914.278	6098
1916.383	6163
1918.486	6235
1920.592	6219
1922.694	6116
1924.797	6106
1926.898	6137
1929	6194
1931.102	6167
1933.203	6196
1935.301	6073
1937.401	6158
1939.499	6069
1941.598	6138
1943.697	6195
1945.793	6057
1947.888	6118
1949.985	6118
1952.08	6227
1954.176	6205
1956.269	6094
1958.364	6214
1960.457	6082
1962.549	6146
1964.642	6112
1966.733	6015
1968.823	6215
1970.913	6126
1973.005	6060
1975.093	6150
1977.184	6073
1979.271	6209
1981.359	6072
1983.446	6135
1985.532	6065
1987.619	6086
1989.705	6079
1991.789	6047
1993.874	6134
1995.956	6056
1998.041	6034
2000.123	6084
2002.206	6116
2004.287	6091
2006.368	5955
2008.449	6074
2010.529	6056
2012.609	6066
2014.688	6137
2016.766	6064
2018.843	6124
2020.922	6085
2022.999	6076
2025.074	6002
2027.15	6011
2029.225	6152
2031.299	6068
2033.375	6016
2035.447	6095
2037.52	6077
2039.592	6125
2041.664	6122
2043.736	6104
2045.807	6061
2047.876	6082
2049.947	5961
2052.015	6173
2054.086	5998
2056.153	6118
2058.221	6063
2060.288	6052
2062.353	6087
2064.42	6100
2066.486	5967
2068.55	6094
2070.614	6054
2072.678	6146
2074.741	6106
2076.805	6028
2078.866	6023
2080.929	6100
2082.99	6048
2085.049	6115
2087.109	5991
2089.17	6071
2091.228	6086
2093.286	6053
2095.344	6093
2097.4	6213
2099.46	6052
2101.516	6010
2103.572	6006
2105.626	6176
2107.679	6149
2109.735	5979
2111.788	5966
2113.841	6148
2115.894	6049
2117.945	6063
2119.997	6010
2122.049	6091
2124.1	6058
2126.148	6103
2128.197	6019
2130.246	6188
2132.296	6168
2134.342	6053
2136.39	6146
2138.437	6082
2140.483	6106
2142.527	6060
2144.574	6058
2146.619	6071
2148.661	6050
2150.705	5991
2152.747	5987
2154.792	5901
2156.832	6101
2158.874	6033
2160.915	5954
2162.954	6004
2164.995	6102
2167.034	6013
2169.072	5916
2171.111	6000
2173.148	6007
2175.186	5904
2177.223	5939
2179.258	5934
2181.294	6061
2183.328	6009
2185.362	5920
2187.398	5827
2189.431	5988
2191.463	5966
2193.495	5962
2195.528	5887
2197.56	5952
2199.59	5929
2201.62	5861
2203.649	5893
2205.678	5852
2207.708	5854
2209.737	5865
2211.764	5834
2213.791	5985
2215.817	5930
2217.843	5919
2219.87	5979
2221.895	5834
2223.919	5853
2225.942	5891
2227.966	5927
2229.988	5940
2232.012	5785
2234.032	5951
2236.054	5884
2238.074	5941
2240.095	5840
2242.116	5848
2244.135	5862
2246.153	5926
2248.171	5890
2250.188	5843
2252.208	5848
2254.223	5911
2256.239	5930
2258.255	5861
2260.269	5864
2262.283	6047
2264.3	5809
2266.312	5935
2268.325	5923
2270.336	5854
2272.349	5844
2274.362	5791
2276.372	5911
2278.383	5909
2280.392	5866
2282.402	5985
2284.409	5831
2286.418	5933
2288.427	5866
2290.433	5920
2292.441	5858
2294.446	5763
2296.453	5877
2298.459	5792
2300.463	5896
2302.466	5939
2304.471	5831
2306.475	5983
2308.477	5911
2310.478	5865
2312.481	5883
2314.481	5957
2316.481	5803
2318.482	5764
2320.482	5856
2322.48	5803
2324.48	5823
2326.478	5757
2328.476	5875
2330.473	5795
2332.469	5805
2334.465	5754
2336.46	5838
2338.454	5857
2340.45	5697
2342.444	5862
2344.437	5838
2346.43	5873
2348.421	5758
2350.414	5794
2352.405	5819
2354.396	5713
2356.386	5798
2358.376	5795
2360.366	5735
2362.355	5779
2364.343	5763
2366.331	5840
2368.317	5719
2370.304	5680
2372.292	5827
2374.278	5733
2376.262	5739
2378.247	5667
2380.23	5722
2382.216	5624
2384.199	5687
2386.181	5802
2388.163	5730
2390.144	5658
2392.127	5770
2394.107	5683
2396.087	5595
2398.066	5693
2400.046	5675
2402.023	5725
2404.004	5664
2405.981	5725
2407.957	5708
2409.934	5661
2411.91	5743
2413.886	5748
2415.862	5724
2417.836	5655
2419.809	5613
2421.784	5723
2423.756	5749
2425.73	5574
2427.701	5792
2429.672	5745
2431.644	5686
2433.615	5657
2435.586	5594
2437.555	5722
2439.523	5676
2441.491	5628
2443.459	5676
2445.428	5640
2447.395	5668
2449.361	5702
2451.327	5648
2453.292	5668
2455.257	5639
2457.223	5650
2459.187	5728
2461.15	5645
2463.113	5622
2465.076	5640
2467.039	5580
2468.999	5667
2470.96	5552
2472.921	5639
2474.881	5605
2476.841	5609
2478.8	5643
2480.759	5544
2482.717	5563
2484.675	5603
2486.63	5537
2488.589	5595
2490.545	5566
2492.5	5549
2494.455	5539
2496.408	5555
2498.364	5537
2500.318	5493
2502.27	5544
2504.223	5628
2506.174	5658
2508.126	5696
2510.078	5459
2512.03	5615
2513.979	5669
2515.927	5570
2517.877	5652
2519.826	5511
2521.775	5481
2523.722	5586
2525.668	5559
2527.616	5521
2529.561	5609
2531.508	5542
2533.452	5624
2535.398	5612
2537.342	5471
2539.284	5576
2541.229	5620
2543.173	5466
2545.114	5465
2547.055	5518
2548.996	5454
2550.938	5591
2552.878	5587
2554.817	5428
2556.756	5494
2558.695	5566
2560.633	5571
2562.572	5496
2564.509	5505
2566.445	5592
2568.382	5494
2570.317	5513
2572.254	5549
2574.189	5559
2576.123	5500
2578.057	5564
2579.99	5563
2581.923	5523
2583.855	5584
2585.788	5513
2587.719	5440
2589.65	5533
2591.579	5665
2593.511	5546
2595.44	5535
2597.37	5514
2599.297	5519
2601.225	5538
2603.153	5543
2605.08	5563
2607.007	5620
2608.932	5515
2610.858	5496
2612.782	5541
2614.709	5594
2616.632	5491
2618.556	5588
2620.478	5461
2622.401	5508
2624.324	5432
2626.247	5506
2628.167	5605
2630.088	5420
2632.008	5558
2633.928	5599
2635.848	5547
2637.766	5581
2639.684	5512
2641.603	5536
2643.519	5547
2645.437	5566
2647.353	5579
2649.27	5504
2651.184	5570
2653.099	5519
2655.014	5528
2656.928	5566
2658.842	5559
2660.755	5580
2662.667	5542
2664.579	5547
2666.491	5572
2668.402	5400
2670.312	5512
2672.222	5476
2674.132	5541
2676.042	5536
2677.951	5544
2679.859	5525
2681.766	5504
2683.674	5487
2685.582	5452
2687.488	5450
2689.392	5577
2691.298	5403
2693.202	5465
2695.107	5364
2697.012	5490
2698.914	5429
2700.817	5517
2702.72	5435
2704.622	5411
2706.524	5400
2708.425	5477
2710.326	5463
2712.225	5380
2714.125	5443
2716.024	5466
2717.923	5395
2719.822	5356
2721.719	5456
2723.616	5497
2725.512	5482
2727.41	5425
2729.305	5423
2731.201	5275
2733.095	5556
2734.99	5455
2736.884	5435
2738.778	5442
2740.67	5439
2742.562	5346
2744.455	5478
2746.346	5392
2748.238	5454
2750.129	5424
2752.018	5515
2753.907	5403
2755.797	5380
2757.687	5397
2759.575	5438
2761.462	5418
2763.349	5457
2765.237	5370
2767.124	5395
2769.009	5400
2770.894	5410
2772.779	5393
2774.663	5279
2776.547	5437
2778.431	5389
2780.314	5340
2782.197	5370
2784.078	5308
2785.96	5359
2787.842	5383
2789.723	5379
2791.603	5334
2793.483	5353
2795.362	5370
2797.241	5307
2799.121	5385
2800.997	5356
2802.874	5306
2804.751	5412
2806.628	5493
2808.506	5370
2810.38	5372
2812.255	5326
2814.13	5362
2816.003	5373
2817.878	5389
2819.752	5358
2821.623	5413
2823.496	5315
2825.368	5407
2827.238	5344
2829.111	5480
2830.98	5367
2832.851	5314
2834.719	5350
2836.589	5471
2838.458	5549
2840.327	5448
2842.193	5461
2844.061	5449
2845.927	5457
2847.794	5460
2849.66	5467
2851.525	5504
2853.39	5508
2855.254	5472
2857.117	5593
2858.983	5524
2860.845	5591
2862.707	5621
2864.569	5738
2866.431	5582
2868.293	5746
2870.154	5870
2872.013	5906
2873.873	5792
2875.733	5979
2877.592	6068
2879.451	5966
2881.309	6132
2883.166	6052
2885.022	6270
2886.879	6306
2888.736	6227
2890.591	6461
2892.446	6437
2894.301	6509
2896.155	6424
2898.009	6431
2899.863	6388
2901.716	6407
2903.568	6459
2905.419	6243
2907.27	6307
2909.123	6389
2910.973	6365
2912.824	6393
2914.673	6449
2916.521	6504
2918.372	6658
2920.22	6637
2922.067	6598
2923.914	6636
2925.761	6755
2927.607	6865
2929.455	6849
2931.301	6919
2933.144	6907
2934.99	6900
2936.833	7037
2938.678	7165
2940.522	7271
2942.364	7301
2944.207	7369
2946.048	7519
2947.891	7751
2949.731	7865
2951.571	7665
2953.412	7886
2955.25	7604
2957.09	7628
2958.93	7437
2960.767	7473
2962.606	7324
2964.443	7324
2966.279	7135
2968.116	6968
2969.953	6920
2971.788	6720
2973.623	6618
2975.457	6478
2977.292	6358
2979.127	6536
2980.959	6359
2982.792	6300
2984.624	6201
2986.455	6154
2988.288	6182
2990.119	6071
2991.949	6169
2993.779	6166
2995.608	5867
2997.439	5958
2999.268	5799
3001.096	5695
3002.923	5831
3004.751	5644
3006.578	5701
3008.406	5592
3010.232	5556
3012.057	5515
3013.883	5446
3015.706	5455
3017.532	5358
3019.356	5398
3021.179	5380
3023.002	5336
3024.823	5280
3026.646	5294
3028.469	5292
3030.289	5278
3032.11	5188
3033.93	5242
3035.749	5233
3037.57	5139
3039.39	5133
3041.207	5219
3043.026	5200
3044.842	5155
3046.661	5131
3048.477	5185
3050.294	5153
3052.109	5188
3053.925	5076
3055.739	5158
3057.555	5197
3059.368	5181
3061.181	5105
3062.995	5084
3064.807	5206
3066.62	5139
3068.433	5235
3070.243	5109
3072.054	5122
3073.865	5123
3075.675	5062
3077.485	5139
3079.293	5118
3081.102	5155
3082.911	5070
3084.719	4973
3086.527	5062
3088.333	5032
3090.139	5104
3091.945	5066
3093.75	5137
3095.557	5188
3097.361	4987
3099.165	4964
3100.969	4963
3102.772	5021
3104.575	5007
3106.379	4978
3108.181	4954
3109.982	4995
3111.783	4896
3113.584	4989
3115.386	4925
3117.186	4912
3118.985	4962
3120.783	4936
3122.582	5002
3124.381	4900
3126.179	4936
3127.975	4896
3129.772	4905
3131.569	4942
3133.365	4914
3135.161	4975
3136.956	4821
3138.751	4869
3140.544	4792
3142.338	4795
3144.132	4806
3145.925	4912
3147.717	4917
3149.509	4806
3151.301	4837
3153.091	4897
3154.884	4889
3156.673	4887
3158.462	4817
3160.252	4837
3162.041	4788
3163.831	4848
3165.618	4762
3167.405	4928
3169.193	4815
3170.979	4806
3172.767	4840
3174.553	4834
3176.338	4898
3178.123	4737
3179.907	4794
3181.692	4825
3183.477	4778
3185.259	4813
3187.042	4745
3188.824	4801
3190.607	4821
3192.389	4780
3194.17	4823
3195.951	4882
3197.73	4797
3199.51	4822
3201.289	4743
3203.07	4752
3204.848	4771
3206.626	4830
3208.403	4770
3210.18	4849
3211.959	4832
3213.735	4792
3215.511	4861
3217.285	4714
3219.06	4752
3220.836	4739
3222.611	4824
3224.384	4815
3226.158	4862
3227.929	4814
3229.702	4824
3231.476	4731
3233.248	4850
3235.018	4822
3236.789	4820
3238.56	4712
3240.33	4723
3242.1	4782
3243.869	4702
3245.637	4828
3247.405	4788
3249.172	4837
3250.941	4800
3252.707	4749
3254.474	4749
3256.24	4808
3258.006	4778
3259.772	4742
3261.537	4792
3263.301	4899
3265.065	4799
3266.828	4790
3268.592	4723
3270.355	4847
3272.117	4810
3273.878	4796
3275.64	4812
3277.401	4754
3279.162	4799
3280.922	4756
3282.682	4739
3284.441	4854
3286.199	4752
3287.959	4778
3289.716	4713
3291.475	4797
3293.232	4772
3294.988	4729
3296.744	4787
3298.501	4767
3300.256	4740
3302.011	4754
3303.766	4721
3305.52	4791
3307.275	4746
3309.028	4814
3310.781	4748
3312.533	4897
3314.285	4795
3316.038	4800
3317.789	4802
3319.54	4786
3321.289	4755
3323.039	4749
3324.789	4811
3326.539	4766
3328.288	4776
3330.035	4816
3331.783	4680
3333.531	4783
3335.28	4804
3337.025	4745
3338.771	4776
3340.518	4700
3342.262	4736
3344.009	4698
3345.753	4623
3347.497	4707
3349.24	4693
3350.983	4665
3352.726	4584
3354.469	4660
3356.212	4719
3357.952	4645
3359.694	4748
3361.434	4675
3363.176	4593
3364.916	4665
3366.654	4600
3368.394	4616
3370.132	4735
3371.871	4558
3373.61	4547
3375.346	4534
3377.083	4622
3378.82	4530
3380.556	4560
3382.292	4642
3384.027	4553
3385.763	4550
3387.497	4632
3389.231	4498
3390.965	4528
3392.698	4565
3394.431	4458
3396.164	4572
3397.896	4584
3399.627	4586
3401.36	4601
3403.09	4567
3404.82	4529
3406.55	4481
3408.279	4444
3410.01	4467
3411.738	4575
3413.467	4521
3415.194	4531
3416.92	4616
3418.647	4574
3420.375	4419
3422.102	4536
3423.827	4461
3425.553	4477
3427.277	4512
3429.003	4537
3430.727	4392
3432.451	4382
3434.173	4442
3435.896	4450
3437.62	4486
3439.343	4446
3441.063	4416
3442.785	4402
3444.505	4405
3446.226	4424
3447.948	4498
3449.666	4427
3451.386	4332
3453.104	4360
3454.823	4418
3456.541	4370
3458.259	4336
3459.976	4240
3461.693	4315
3463.408	4342
3465.125	4334
3466.841	4297
3468.556	4242
3470.271	4312
3471.985	4269
3473.698	4239
3475.414	4286
3477.126	4327
3478.838	4224
3480.55	4267
3482.263	4294
3483.975	4283
3485.686	4212
3487.396	4203
3489.106	4251
3490.817	4231
3492.526	4182
3494.236	4275
3495.944	4167
3497.652	4291
3499.359	4199
3501.066	4201
3502.775	4173
3504.481	4194
3506.187	4134
3507.893	4059
3509.598	4131
3511.304	4112
3513.009	4174
3514.713	4139
3516.417	3997
3518.12	4150
3519.821	4096
3521.525	4129
3523.228	4088
3524.929	4079
3526.631	4054
3528.33	4010
3530.032	4036
3531.733	4160
3533.433	4136
3535.131	4066
3536.83	4038
3538.529	4123
3540.227	4014
3541.925	4028
3543.623	4003
3545.319	4007
3547.016	4000
3548.712	4047
3550.408	4031
3552.103	4022
3553.798	4002
3555.491	4055
3557.188	3978
3558.88	3995
3560.574	3972
3562.266	3956
3563.959	4021
3565.651	3954
3567.343	3860
3569.035	3906
3570.725	3950
3572.415	3959
3574.106	3971
3575.797	3961
3577.485	3928
3579.174	3890
3580.863	3946
3582.551	3847
3584.238	3889
3585.926	3941
3587.613	3940
3589.3	3981
3590.986	3875
3592.671	3886
3594.357	3925
3596.042	3934
3597.726	3788
3599.41	3834
3601.094	3839
3602.778	3775
3604.461	3899
3606.143	3848
3607.825	3865
3609.507	3770
3611.188	3803
3612.87	3764
3614.551	3799
3616.229	3838
3617.909	3740
3619.589	3755
3621.269	3763
3622.948	3788
3624.625	3683
3626.302	3763
3627.98	3697
3629.657	3739
3631.334	3744
3633.01	3727
3634.686	3684
3636.361	3637
3638.036	3724
3639.712	3714
3641.385	3729
3643.06	3652
3644.732	3688
3646.405	3671
3648.08	3755
3649.751	3653
3651.424	3599
3653.094	3643
3654.766	3711
3656.436	3589
3658.106	3657
3659.777	3610
3661.446	3573
3663.115	3632
3664.783	3711
3666.452	3627
3668.121	3623
3669.788	3647
3671.454	3672
3673.121	3606
3674.789	3605
3676.455	3525
3678.12	3633
3679.784	3598
3681.45	3575
3683.114	3638
3684.779	3632
3686.442	3544
3688.105	3520
3689.768	3607
3691.43	3628
3693.093	3501
3694.754	3501
3696.415	3535
3698.076	3559
3699.736	3577
3701.396	3495
3703.057	3556
3704.716	3516
3706.375	3610
3708.034	3503
3709.692	3513
3711.351	3460
3713.008	3548
3714.665	3574
3716.321	3531
3717.977	3508
3719.634	3499
3721.29	3497
3722.945	3503
3724.598	3491
3726.253	3518
3727.907	3472
3729.561	3497
3731.214	3495
3732.867	3429
3734.518	3531
3736.171	3573
3737.824	3487
3739.474	3533
3741.125	3530
3742.775	3417
3744.425	3452
3746.074	3480
3747.725	3444
3749.373	3457
3751.022	3410
3752.669	3335
3754.318	3467
3755.966	3445
3757.612	3426
3759.259	3464
3760.905	3432
3762.55	3289
3764.197	3461
3765.842	3440
3767.486	3432
3769.131	3398
3770.774	3429
3772.417	3423
3774.061	3460
3775.705	3438
3777.347	3403
3778.988	3446
3780.629	3407
3782.271	3422
3783.912	3372
3785.552	3378
3787.192	3423
3788.831	3397
3790.472	3427
3792.112	3392
3793.75	3372
3795.388	3308
3797.024	3361
3798.661	3368
3800.3	3341
3801.936	3310
3803.572	3386
3805.208	3268
3806.844	3351
3808.48	3371
3810.115	3352
3811.748	3355
3813.382	3306
3815.016	3298
3816.649	3348
3818.283	3257
3819.914	3305
3821.547	3229
3823.178	3325
3824.809	3310
3826.441	3310
3828.072	3319
3829.701	3320
3831.331	3271
3832.96	3283
3834.591	3322
3836.219	3288
3837.847	3267
3839.475	3268
3841.102	3146
3842.729	3222
3844.357	3253
3845.984	3275
3847.609	3253
3849.234	3247
3850.86	3197
3852.485	3207
3854.11	3194
3855.734	3215
3857.357	3281
3858.981	3172
3860.603	3225
3862.227	3193
3863.848	3237
3865.471	3173
3867.092	3247
3868.713	3202
3870.334	3219
3871.954	3277
3873.575	3208
3875.194	3158
3876.813	3214
3878.433	3160
3880.051	3230
3881.669	3159
3883.286	3211
3884.904	3102
3886.52	3120
3888.138	3206
3889.754	3110
3891.37	3231
3892.985	3130
3894.6	3146
3896.216	3184
3897.831	3189
3899.444	3212
3901.058	3150
3902.67	3106
3904.283	3214
3905.897	3233
3907.509	3168
3909.121	3146
3910.731	3167
3912.342	3125
3913.954	3199
3915.563	3091
3917.174	3121
3918.783	3108
3920.391	3193
3922.002	3114
3923.611	3154
3925.218	3101
3926.826	3202
3928.432	3124
3930.039	3151
3931.647	3103
3933.253	3178
3934.859	3096
3936.464	3135
3938.068	3140
3939.675	3150
3941.278	3059
3942.883	3110
3944.486	3076
3946.089	3083
3947.692	3045
3949.295	3079
3950.898	3056
3952.499	3107
3954.1	3067
3955.7	3129
3957.303	3110
3958.903	3000
3960.502	3089
3962.101	3013
3963.7	3014
3965.301	3081
3966.899	3016
3968.497	3108
3970.094	3116
3971.691	3081
3973.288	3105
3974.885	3071
3976.481	2980
3978.077	3083
3979.672	3028
3981.267	2986
3982.863	3092
3984.457	3036
3986.051	2997
3987.645	2980
3989.238	2919
3990.831	2982
3992.425	2981
3994.017	2953
3995.607	2992
3997.199	2931
3998.79	2939
4000.382	3058
4001.973	2945
4003.561	2921
4005.151	2970
4006.741	2936
4008.331	2913
4009.918	2941
4011.507	2984
4013.095	2912
4014.681	2926
4016.269	2960
4017.856	2881
4019.443	2931
4021.028	2874
4022.614	2929
4024.199	2911
4025.785	2931
4027.37	2894
4028.953	2902
4030.536	2865
4032.12	2925
4033.704	2869
4035.287	2897
4036.869	2843
4038.45	2929
4040.032	2877
4041.613	2913
4043.195	2860
4044.776	2857
4046.356	2895
4047.935	2865
4049.515	2877
4051.095	2827
4052.674	2918
4054.251	2778
4055.829	2897
4057.406	2785
4058.985	2815
4060.562	2853
4062.139	2841
4063.715	2776
4065.29	2852
4066.865	2850
4068.442	2890
4070.016	2846
4071.59	2824
4073.164	2818
4074.738	2804
4076.312	2804
4077.885	2751
4079.458	2822
4081.03	2753
4082.602	2806
4084.173	2821
4085.745	2833
4087.315	2831
4088.886	2759
4090.456	2773
4092.026	2788
4093.596	2783
4095.165	2812
4096.734	2742
4098.301	2793
4099.869	2739
4101.437	2825
4103.006	2839
4104.572	2851
4106.139	2754
4107.704	2781
4109.27	2747
4110.837	2775
4112.401	2717
4113.966	2729
4115.53	2759
4117.094	2733
4118.659	2792
4120.223	2752
4121.785	2762
4123.347	2720
4124.909	2730
4126.471	2729
4128.034	2738
4129.595	2677
4131.155	2673
4132.716	2684
4134.275	2649
4135.836	2731
4137.395	2698
4138.955	2735
4140.513	2647
4142.071	2661
4143.628	2712
4145.188	2714
4146.745	2685
4148.302	2708
4149.858	2690
4151.414	2657
4152.971	2643
4154.526	2604
4156.081	2652
4157.635	2695
4159.189	2697
4160.745	2623
4162.298	2641
4163.852	2665
4165.405	2685
4166.957	2635
4168.51	2638
4170.063	2657
4171.614	2588
4173.166	2644
4174.717	2601
4176.267	2585
4177.817	2580
4179.368	2549
4180.917	2600
4182.466	2589
4184.016	2605
4185.564	2620
4187.112	2584
4188.66	2579
4190.207	2550
4191.754	2595
4193.301	2648
4194.848	2554
4196.394	2496
4197.94	2610
4199.484	2614
4201.03	2569
4202.575	2669
4204.12	2615
4205.663	2550
4207.207	2590
4208.75	2525
4210.292	2654
4211.836	2566
4213.378	2599
4214.92	2517
4216.46	2554
4218.002	2537
4219.544	2567
4221.083	2584
4222.625	2549
4224.164	2570
4225.703	2530
4227.244	2511
4228.782	2519
4230.32	2470
4231.857	2547
4233.395	2474
4234.933	2539
4236.471	2543
4238.007	2541
4239.542	2552
4241.078	2542
4242.614	2508
4244.15	2502
4245.685	2485
4247.219	2561
4248.753	2492
4250.287	2543
4251.82	2510
4253.354	2505
4254.887	2499
4256.419	2485
4257.951	2524
4259.483	2591
4261.016	2525
4262.547	2506
4264.078	2469
4265.608	2522
4267.137	2503
4268.668	2450
4270.197	2478
4271.727	2499
4273.254	2482
4274.783	2495
4276.311	2430
4277.84	2409
4279.366	2465
4280.894	2438
4282.42	2454
4283.946	2502
4285.473	2417
4286.998	2443
4288.523	2362
4290.047	2404
4291.572	2414
4293.096	2451
4294.622	2504
4296.144	2446
4297.668	2412
4299.19	2424
4300.713	2401
4302.236	2485
4303.758	2414
4305.279	2461
4306.799	2446
4308.321	2448
4309.842	2390
4311.361	2418
4312.882	2336
4314.401	2377
