400.0961	4158
402.6185	4239
405.1424	4247
407.6635	4324
410.1838	4232
412.7035	4232
415.2225	4268
417.7388	4306
420.2585	4268
422.7754	4395
425.2917	4386
427.8072	4453
430.3221	4436
432.8363	4416
435.3498	4534
437.8626	4472
440.3727	4465
442.8841	4496
445.3969	4410
447.907	4551
450.4142	4469
452.9229	4530
455.4289	4500
457.9362	4431
460.4449	4371
462.9488	4422
465.454	4528
467.9566	4572
470.4604	4478
472.9637	4485
475.4662	4504
477.966	4653
480.4671	4661
482.9656	4556
485.4633	4533
487.9645	4601
490.4608	4716
492.9566	4636
495.4536	4754
497.948	4673
500.4437	4681
502.9387	4649
505.431	4558
507.9226	4659
510.4136	4638
512.9079	4803
515.3975	4693
517.8864	4722
520.3746	4671
522.8622	4757
525.3491	4682
527.8394	4735
530.3249	4731
532.8098	4684
535.2939	4672
537.7774	4678
540.2623	4687
542.7444	4790
545.2259	4671
547.7067	4701
550.1868	4701
552.6683	4692
555.147	4735
557.6231	4790
560.1005	4731
562.5773	4758
565.0534	4759
567.5308	4772
570.0056	4818
572.4776	4812
574.951	4790
577.4237	4847
579.8978	4873
582.3671	4859
584.8378	4841
587.3079	4848
589.7773	4942
592.244	4904
594.714	4853
597.1793	4902
599.6461	4953
602.1121	4880
604.5754	4831
607.0421	4889
609.5042	4813
611.9675	4876
614.4282	4909
616.8902	4868
619.3515	4885
621.8122	4963
624.2702	4976
626.7296	4885
629.1863	4850
631.6423	4829
634.1017	4823
636.5563	4817
639.0104	4934
641.4658	4951
643.9185	5019
646.3725	4951
648.8239	4980
651.2766	4925
653.7266	5024
656.176	5024
658.6247	4973
661.0748	5047
663.5242	5006
665.9709	4949
668.417	4985
670.8624	5026
673.3092	5023
675.7533	4982
678.1968	4999
680.6395	5112
683.0817	5150
685.5251	5040
687.9659	5128
690.4061	5046
692.8456	5085
695.2844	5106
697.7226	5133
700.1621	5061
702.599	5086
705.0332	5113
707.4688	5243
709.9036	5095
712.3399	5138
714.7735	5121
717.2044	5260
719.6367	5242
722.0683	5163
724.4993	5205
726.9296	5317
729.3593	5138
731.7883	5185
734.2147	5295
736.6423	5279
739.0714	5322
741.4958	5333
743.9216	5357
746.3447	5321
748.7691	5316
751.1929	5389
753.616	5380
756.0366	5491
758.4584	5373
760.8776	5329
763.2982	5425
765.718	5565
768.1373	5436
770.5539	5518
772.9698	5496
775.3871	5427
777.8038	5403
780.2178	5421
782.6332	5487
785.0459	5472
787.458	5472
789.8714	5403
792.2842	5435
794.6943	5479
797.1038	5464
799.5127	5479
801.9209	5481
804.3324	5410
806.7393	5511
809.1456	5418
811.5513	5533
813.9562	5413
816.3625	5589
818.7663	5488
821.1693	5495
823.5718	5606
825.9735	5553
828.3746	5576
830.7771	5481
833.177	5517
835.5762	5510
837.9747	5613
840.3727	5469
842.772	5498
845.1666	5661
847.5626	5565
849.958	5612
852.3527	5610
854.7488	5600
857.1403	5546
859.5331	5604
861.9253	5508
864.3168	5675
866.7057	5596
869.098	5643
871.4876	5618
873.8746	5563
876.263	5668
878.6487	5605
881.0378	5650
883.4243	5629
885.8081	5684
888.1933	5469
890.5759	5564
892.9598	5602
895.343	5575
897.7256	5603
900.1057	5573
902.4871	5617
904.8659	5564
907.246	5735
909.6254	5713
912.0023	5735
914.3786	5700
916.7562	5798
919.1331	5871
921.5074	5927
923.8831	5867
926.2562	5924
928.6287	5869
931.0005	5814
933.3757	5922
935.7462	5892
938.1162	5984
940.4855	5875
942.8542	5843
945.2242	5829
947.5916	5927
949.9584	5859
952.3266	5960
954.6921	5920
957.0571	6171
959.4233	6260
961.787	6282
964.15	6228
966.5125	6110
968.8742	6025
971.2354	6000
973.5959	5984
975.9559	5952
978.3151	5877
980.6738	5699
983.0338	5922
985.3912	5737
987.7461	5851
990.1022	5839
992.4578	5806
994.8127	5713
997.1689	5794
999.5207	5816
1001.874	5823
1004.226	5842
1006.576	5916
1008.929	5812
1011.28	5773
1013.628	5856
1015.977	5946
1018.324	5849
1020.674	5975
1023.019	5869
1025.366	5866
1027.713	5827
1030.056	5801
1032.399	5882
1034.746	5822
1037.087	5832
1039.431	5789
1041.771	5944
1044.113	5778
1046.454	5814
1048.793	5857
1051.133	6085
1053.471	5850
1055.807	5945
1058.146	5921
1060.483	5852
1062.818	5873
1065.153	5976
1067.489	5983
1069.822	5888
1072.156	5949
1074.488	5929
1076.82	5953
1079.15	6014
1081.48	5976
1083.814	5976
1086.143	5952
1088.471	5965
1090.799	6001
1093.126	5999
1095.452	6088
1097.78	5974
1100.105	5964
1102.43	5968
1104.754	5944
1107.077	5993
1109.4	6016
1111.722	5965
1114.044	6042
1116.365	6064
1118.685	6011
1121.005	6149
1123.324	6095
1125.643	6015
1127.961	6162
1130.278	6081
1132.595	6099
1134.911	6101
1137.226	6031
1139.541	6030
1141.854	6028
1144.167	6056
1146.482	6076
1148.793	6008
1151.105	6028
1153.414	6110
1155.725	5997
1158.033	6144
1160.344	6038
1162.651	6074
1164.959	6030
1167.265	6022
1169.572	6117
1171.878	6083
1174.184	6038
1176.488	6087
1178.79	6138
1181.094	6067
1183.396	6098
1185.699	6069
1188.001	6014
1190.301	6027
1192.6	5945
1194.9	6039
1197.2	6079
1199.497	5986
1201.794	6037
1204.09	6124
1206.387	6150
1208.684	6083
1210.978	6064
1213.272	6150
1215.565	6143
1217.858	6027
1220.15	6079
1222.443	6048
1224.734	6151
1227.024	6064
1229.313	6173
1231.602	6134
1233.892	6207
1236.18	6137
1238.467	6181
1240.754	6209
1243.04	6273
1245.325	6225
1247.612	6207
1249.896	6279
1252.178	6289
1254.461	6360
1256.743	6342
1259.027	6341
1261.308	6290
1263.587	6395
1265.867	6332
1268.146	6229
1270.425	6388
1272.703	6336
1274.981	6118
1277.256	6267
1279.532	6380
1281.808	6315
1284.083	6263
1286.358	6129
1288.63	6307
1290.904	6336
1293.175	6229
1295.449	6233
1297.719	6258
1299.99	6229
1302.259	6226
1304.529	6173
1306.798	6257
1309.065	6137
1311.333	6172
1313.599	6331
1315.866	6181
1318.131	6253
1320.396	6229
1322.66	6165
1324.925	6237
1327.187	6298
1329.448	6336
1331.711	6315
1333.974	6305
1336.234	6296
1338.493	6306
1340.752	6223
1343.01	6168
1345.269	6222
1347.526	6197
1349.784	6227
1352.04	6208
1354.295	6235
1356.552	6333
1358.806	6242
1361.059	6363
1363.312	6204
1365.564	6227
1367.818	6365
1370.069	6305
1372.318	6396
1374.568	6368
1376.817	6315
1379.066	6247
1381.316	6266
1383.564	6363
1385.809	6260
1388.056	6300
1390.301	6349
1392.549	6387
1394.793	6460
1397.036	6432
1399.279	6406
1401.522	6471
1403.763	6442
1406.007	6365
1408.248	6453
1410.487	6483
1412.727	6412
1414.965	6336
1417.205	6442
1419.442	6411
1421.68	6400
1423.915	6459
1426.152	6408
1428.388	6414
1430.623	6470
1432.857	6335
1435.091	6600
1437.323	6466
1439.556	6487
1441.789	6610
1444.019	6449
1446.25	6478
1448.48	6501
1450.708	6472
1452.938	6640
1455.167	6556
1457.394	6624
1459.62	6518
1461.846	6548
1464.073	6548
1466.299	6554
1468.523	6552
1470.746	6461
1472.969	6484
1475.191	6354
1477.415	6440
1479.636	6390
1481.858	6394
1484.078	6402
1486.298	6309
1488.518	6345
1490.736	6281
1492.954	6346
1495.169	6237
1497.386	6348
1499.602	6402
1501.819	6352
1504.034	6270
1506.248	6284
1508.462	6361
1510.675	6365
1512.888	6224
1515.1	6305
1517.311	6234
1519.522	6169
1521.732	6144
1523.942	6428
1526.151	6302
1528.36	6335
1530.566	6291
1532.773	6342
1534.98	6187
1537.187	6223
1539.392	6236
1541.596	6338
1543.801	6372
1546.005	6424
1548.208	6274
1550.411	6336
1552.612	6301
1554.814	6401
1557.013	6353
1559.212	6341
1561.414	6389
1563.612	6349
1565.811	6394
1568.007	6386
1570.203	6456
1572.403	6417
1574.598	6499
1576.792	6384
1578.988	6468
1581.181	6468
1583.376	6455
1585.568	6484
1587.761	6353
1589.952	6528
1592.143	6503
1594.333	6459
1596.524	6518
1598.715	6569
1600.903	6496
1603.091	6461
1605.278	6571
1607.466	6405
1609.652	6558
1611.838	6522
1614.023	6496
1616.207	6601
1618.391	6523
1620.576	6593
1622.759	6539
1624.941	6655
1627.123	6447
1629.304	6533
1631.484	6500
1633.664	6542
1635.844	6557
1638.022	6469
1640.201	6456
1642.38	6688
1644.556	6550
1646.732	6551
1648.908	6577
1651.084	6617
1653.257	6562
1655.433	6495
1657.607	6536
1659.779	6551
1661.951	6390
1664.122	6648
1666.295	6447
1668.467	6573
1670.635	6507
1672.805	6529
1674.973	6611
1677.142	6573
1679.31	6641
1681.478	6597
1683.644	6632
1685.81	6569
1687.975	6516
1690.142	6571
1692.305	6562
1694.468	6487
1696.632	6691
1698.794	6525
1700.957	6463
1703.119	6664
1705.279	6408
1707.439	6596
1709.598	6510
1711.758	6545
1713.917	6603
1716.075	6418
1718.231	6595
1720.388	6511
1722.543	6449
1724.702	6445
1726.856	6492
1729.01	6493
1731.164	6462
1733.317	6468
1735.471	6485
1737.623	6527
1739.774	6506
1741.925	6460
1744.075	6406
1746.225	6448
1748.376	6520
1750.524	6596
1752.672	6501
1754.82	6538
1756.965	6452
1759.113	6515
1761.259	6598
1763.405	6496
1765.549	6405
1767.694	6554
1769.836	6536
1771.981	6522
1774.123	6490
1776.264	6510
1778.405	6466
1780.546	6502
1782.687	6555
1784.827	6591
1786.966	6528
1789.103	6577
1791.242	6610
1793.381	6571
1795.517	6680
1797.653	6600
1799.788	6529
1801.923	6507
1804.057	6743
1806.193	6578
1808.326	6523
1810.457	6537
1812.59	6450
1814.721	6637
1816.855	6487
1818.984	6453
1821.113	6536
1823.244	6527
1825.372	6513
1827.499	6574
1829.63	6448
1831.756	6451
1833.882	6631
1836.007	6599
1838.132	6299
1840.26	6495
1842.384	6539
1844.507	6561
1846.63	6581
1848.752	6535
1850.875	6576
1852.996	6500
1855.118	6495
1857.238	6460
1859.358	6494
1861.477	6525
1863.597	6525
1865.715	6542
1867.832	6513
1869.948	6389
1872.064	6470
1874.181	6404
1876.297	6604
1878.411	6492
1880.526	6555
1882.639	6447
1884.752	6425
1886.865	6513
1888.977	6521
1891.089	6576
1893.2	6497
1895.308	6513
1897.42	6541
1899.53	6534
1901.639	6516
1903.745	6530
1905.853	6566
1907.962	6608
1910.067	6543
1912.174	6547
1914.278	6561
1916.383	6609
1918.486	6578
1920.592	6568
1922.694	6540
1924.797	6608
1926.898	6553
1929	6486
1931.102	6597
1933.203	6563
1935.301	6715
1937.401	6614
1939.499	6617
1941.598	6551
1943.697	6593
1945.793	6621
1947.888	6628
1949.985	6595
1952.08	6659
1954.176	6611
1956.269	6492
1958.364	6580
1960.457	6560
1962.549	6573
1964.642	6513
1966.733	6503
1968.823	6670
1970.913	6464
1973.005	6553
1975.093	6525
1977.184	6557
1979.271	6609
1981.359	6594
1983.446	6503
1985.532	6490
1987.619	6601
1989.705	6545
1991.789	6527
1993.874	6508
1995.956	6465
1998.041	6555
2000.123	6475
2002.206	6526
2004.287	6430
2006.368	6417
2008.449	6465
2010.529	6434
2012.609	6549
2014.688	6557
2016.766	6487
2018.843	6445
2020.922	6602
2022.999	6571
2025.074	6495
2027.15	6496
2029.225	6422
2031.299	6495
2033.375	6530
2035.447	6371
2037.52	6542
2039.592	6433
2041.664	6478
2043.736	6569
2045.807	6509
2047.876	6580
2049.947	6503
2052.015	6490
2054.086	6540
2056.153	6518
2058.221	6487
2060.288	6562
2062.353	6558
2064.42	6460
2066.486	6498
2068.55	6546
2070.614	6393
2072.678	6491
2074.741	6379
2076.805	6410
2078.866	6592
2080.929	6575
2082.99	6500
2085.049	6619
2087.109	6573
2089.17	6487
2091.228	6439
2093.286	6398
2095.344	6561
2097.4	6390
2099.46	6523
2101.516	6463
2103.572	6569
2105.626	6634
2107.679	6451
2109.735	6585
2111.788	6466
2113.841	6436
2115.894	6460
2117.945	6556
2119.997	6534
2122.049	6434
2124.1	6473
2126.148	6368
2128.197	6476
2130.246	6485
2132.296	6441
2134.342	6463
2136.39	6525
2138.437	6543
2140.483	6450
2142.527	6467
2144.574	6466
2146.619	6410
2148.661	6379
2150.705	6376
2152.747	6366
2154.792	6491
2156.832	6426
2158.874	6383
2160.915	6387
2162.954	6348
2164.995	6424
2167.034	6476
2169.072	6414
2171.111	6455
2173.148	6402
2175.186	6343
2177.223	6336
2179.258	6334
2181.294	6448
2183.328	6371
2185.362	6403
2187.398	6328
2189.431	6338
2191.463	6347
2193.495	6329
2195.528	6280
2197.56	6428
2199.59	6306
2201.62	6425
2203.649	6350
2205.678	6212
2207.708	6283
2209.737	6368
2211.764	6283
2213.791	6284
2215.817	6370
2217.843	6306
2219.87	6386
2221.895	6246
2223.919	6249
2225.942	6326
2227.966	6271
2229.988	6236
2232.012	6283
2234.032	6268
2236.054	6267
2238.074	6190
2240.095	6253
2242.116	6334
2244.135	6336
2246.153	6235
2248.171	6269
2250.188	6224
2252.208	6143
2254.223	6156
2256.239	6342
2258.255	6274
2260.269	6284
2262.283	6331
2264.3	6205
2266.312	6356
2268.325	6259
2270.336	6255
2272.349	6190
2274.362	6247
2276.372	6339
2278.383	6377
2280.392	6198
2282.402	6341
2284.409	6272
2286.418	6303
2288.427	6236
2290.433	6165
2292.441	6307
2294.446	6212
2296.453	6197
2298.459	6204
2300.463	6244
2302.466	6310
2304.471	6278
2306.475	6361
2308.477	6249
2310.478	6152
2312.481	6159
2314.481	6231
2316.481	6265
2318.482	6242
2320.482	6252
2322.48	6211
2324.48	6111
2326.478	6317
2328.476	6192
2330.473	6271
2332.469	6182
2334.465	6256
2336.46	6226
2338.454	6186
2340.45	6215
2342.444	6130
2344.437	6262
2346.43	6198
2348.421	6208
2350.414	6319
2352.405	6151
2354.396	6129
2356.386	6019
2358.376	6242
2360.366	6126
2362.355	6153
2364.343	6160
2366.331	6209
2368.317	6159
2370.304	6024
2372.292	6082
2374.278	6126
2376.262	6069
2378.247	6054
2380.23	6102
2382.216	6158
2384.199	6171
2386.181	6265
2388.163	6196
2390.144	6127
2392.127	6129
2394.107	6046
2396.087	6132
2398.066	6002
2400.046	6092
2402.023	6128
2404.004	6085
2405.981	6055
2407.957	5970
2409.934	6118
2411.91	5955
2413.886	5972
2415.862	6053
2417.836	6114
2419.809	5989
2421.784	5957
2423.756	6014
2425.73	6103
2427.701	6131
2429.672	6055
2431.644	5965
2433.615	5978
2435.586	6044
2437.555	6012
2439.523	5912
2441.491	5980
2443.459	6070
2445.428	6060
2447.395	5874
2449.361	6022
2451.327	5994
2453.292	6123
2455.257	6056
2457.223	5928
2459.187	6054
2461.15	6020
2463.113	5938
2465.076	6042
2467.039	6004
2468.999	5938
2470.96	5932
2472.921	6038
2474.881	6051
2476.841	5983
2478.8	5992
2480.759	5993
2482.717	5913
2484.675	5883
2486.63	5817
2488.589	5976
2490.545	5954
2492.5	5900
2494.455	5909
2496.408	5924
2498.364	5978
2500.318	5880
2502.27	5825
2504.223	5933
2506.174	5846
2508.126	5921
2510.078	5882
2512.03	5749
2513.979	5878
2515.927	5860
2517.877	5987
2519.826	5930
2521.775	5898
2523.722	5954
2525.668	5983
2527.616	5899
2529.561	5913
2531.508	5837
2533.452	5858
2535.398	6005
2537.342	5940
2539.284	5908
2541.229	5869
2543.173	5909
2545.114	5792
2547.055	5772
2548.996	5880
2550.938	5876
2552.878	5863
2554.817	5901
2556.756	5769
2558.695	5947
2560.633	5866
2562.572	5839
2564.509	5904
2566.445	5830
2568.382	5836
2570.317	5882
2572.254	5823
2574.189	5839
2576.123	5895
2578.057	5835
2579.99	5863
2581.923	5930
2583.855	5878
2585.788	5807
2587.719	5678
2589.65	5912
2591.579	5882
2593.511	5834
2595.44	5841
2597.37	5765
2599.297	5822
2601.225	5828
2603.153	5817
2605.08	5845
2607.007	5812
2608.932	5816
2610.858	5892
2612.782	5852
2614.709	5942
2616.632	5811
2618.556	5826
2620.478	5885
2622.401	5828
2624.324	5825
2626.247	5846
2628.167	5812
2630.088	5830
2632.008	5840
2633.928	5886
2635.848	5803
2637.766	5904
2639.684	5856
2641.603	5907
2643.519	5877
2645.437	5764
2647.353	5821
2649.27	5877
2651.184	5765
2653.099	5900
2655.014	5883
2656.928	5907
2658.842	5816
2660.755	5784
2662.667	5927
2664.579	5842
2666.491	5790
2668.402	5774
2670.312	5894
2672.222	5790
2674.132	5714
2676.042	5767
2677.951	5664
2679.859	5826
2681.766	5829
2683.674	5875
2685.582	5631
2687.488	5730
2689.392	5902
2691.298	5817
2693.202	5778
2695.107	5796
2697.012	5738
2698.914	5748
2700.817	5757
2702.72	5669
2704.622	5659
2706.524	5688
2708.425	5772
2710.326	5808
2712.225	5735
2714.125	5651
2716.024	5833
2717.923	5672
2719.822	5717
2721.719	5638
2723.616	5672
2725.512	5751
2727.41	5772
2729.305	5714
2731.201	5713
2733.095	5733
2734.99	5684
2736.884	5833
2738.778	5641
2740.67	5645
2742.562	5695
2744.455	5705
2746.346	5645
2748.238	5655
2750.129	5676
2752.018	5758
2753.907	5711
2755.797	5580
2757.687	5720
2759.575	5753
2761.462	5755
2763.349	5639
2765.237	5584
2767.124	5613
2769.009	5655
2770.894	5613
2772.779	5578
2774.663	5736
2776.547	5685
2778.431	5657
2780.314	5643
2782.197	5676
2784.078	5647
2785.96	5577
2787.842	5531
2789.723	5623
2791.603	5627
2793.483	5558
2795.362	5613
2797.241	5672
2799.121	5590
2800.997	5556
2802.874	5626
2804.751	5480
2806.628	5660
2808.506	5547
2810.38	5535
2812.255	5629
2814.13	5605
2816.003	5637
2817.878	5516
2819.752	5590
2821.623	5540
2823.496	5573
2825.368	5547
2827.238	5565
2829.111	5547
2830.98	5602
2832.851	5523
2834.719	5537
2836.589	5551
2838.458	5585
2840.327	5587
2842.193	5683
2844.061	5542
2845.927	5566
2847.794	5510
2849.66	5557
2851.525	5637
2853.39	5668
2855.254	5644
2857.117	5632
2858.983	5616
2860.845	5612
2862.707	5588
2864.569	5682
2866.431	5727
2868.293	5670
2870.154	5661
2872.013	5749
2873.873	5829
2875.733	5803
2877.592	5824
2879.451	5825
2881.309	5694
2883.166	5809
2885.022	5917
2886.879	5868
2888.736	5854
2890.591	5964
2892.446	5984
2894.301	5881
2896.155	5943
2898.009	6070
2899.863	5971
2901.716	5923
2903.568	5919
2905.419	5877
2907.27	5874
2909.123	5853
2910.973	5882
2912.824	5933
2914.673	5870
2916.521	5917
2918.372	6080
2920.22	6020
2922.067	5998
2923.914	5962
2925.761	6077
2927.607	6016
2929.455	5990
2931.301	6087
2933.144	6061
2934.99	6094
2936.833	6130
2938.678	6179
2940.522	6100
2942.364	6095
2944.207	6248
2946.048	6235
2947.891	6377
2949.731	6282
2951.571	6411
2953.412	6366
2955.25	6406
2957.09	6310
2958.93	6207
2960.767	6206
2962.606	6293
2964.443	6042
2966.279	6190
2968.116	6024
2969.953	5997
2971.788	5875
2973.623	5878
2975.457	5847
2977.292	5835
2979.127	5790
2980.959	5737
2982.792	5821
2984.624	5788
2986.455	5710
2988.288	5736
2990.119	5679
2991.949	5785
2993.779	5648
2995.608	5642
2997.439	5588
2999.268	5594
3001.096	5529
3002.923	5534
3004.751	5517
3006.578	5371
3008.406	5514
3010.232	5473
3012.057	5406
3013.883	5394
3015.706	5442
3017.532	5350
3019.356	5310
3021.179	5295
3023.002	5389
3024.823	5296
3026.646	5288
3028.469	5306
3030.289	5342
3032.11	5228
3033.93	5221
3035.749	5279
3037.57	5202
3039.39	5317
3041.207	5329
3043.026	5182
3044.842	5258
3046.661	5223
3048.477	5146
3050.294	5240
3052.109	5226
3053.925	5189
3055.739	5111
3057.555	5221
3059.368	5202
3061.181	5178
3062.995	5036
3064.807	5234
3066.62	5250
3068.433	5165
3070.243	5180
3072.054	5079
3073.865	5209
3075.675	5238
3077.485	5151
3079.293	5108
3081.102	5088
3082.911	5107
3084.719	5090
3086.527	5057
3088.333	5071
3090.139	5055
3091.945	5124
3093.75	5125
3095.557	4981
3097.361	5042
3099.165	5035
3100.969	5057
3102.772	4982
3104.575	4996
3106.379	5033
3108.181	4984
3109.982	5062
3111.783	5027
3113.584	5104
3115.386	4926
3117.186	5020
3118.985	4976
3120.783	5062
3122.582	5110
3124.381	5055
3126.179	5020
3127.975	4933
3129.772	4913
3131.569	5015
3133.365	4995
3135.161	4951
3136.956	4909
3138.751	4966
3140.544	4897
3142.338	4936
3144.132	4959
3145.925	4977
3147.717	4910
3149.509	4887
3151.301	4903
3153.091	4859
3154.884	4868
3156.673	4935
3158.462	4856
3160.252	4939
3162.041	4879
3163.831	4880
3165.618	4897
3167.405	4851
3169.193	4897
3170.979	4826
3172.767	4801
3174.553	4903
3176.338	4806
3178.123	4864
3179.907	4900
3181.692	4867
3183.477	4783
3185.259	4813
3187.042	4842
3188.824	4829
3190.607	4784
3192.389	4847
3194.17	4802
3195.951	4805
3197.73	4852
3199.51	4841
3201.289	4857
3203.07	4862
3204.848	4888
3206.626	4839
3208.403	4867
3210.18	4859
3211.959	4751
3213.735	4849
3215.511	4700
3217.285	4798
3219.06	4738
3220.836	4738
3222.611	4685
3224.384	4818
3226.158	4731
3227.929	4776
3229.702	4704
3231.476	4758
3233.248	4695
3235.018	4788
3236.789	4731
3238.56	4714
3240.33	4714
3242.1	4859
3243.869	4711
3245.637	4677
3247.405	4767
3249.172	4663
3250.941	4813
3252.707	4729
3254.474	4769
3256.24	4708
3258.006	4767
3259.772	4774
3261.537	4710
3263.301	4710
3265.065	4699
3266.828	4661
3268.592	4764
3270.355	4829
3272.117	4711
3273.878	4677
3275.64	4688
3277.401	4663
3279.162	4746
3280.922	4831
3282.682	4685
3284.441	4745
3286.199	4692
3287.959	4648
3289.716	4707
3291.475	4722
3293.232	4798
3294.988	4712
3296.744	4755
3298.501	4716
3300.256	4684
3302.011	4727
3303.766	4727
3305.52	4736
3307.275	4657
3309.028	4639
3310.781	4686
3312.533	4593
3314.285	4683
3316.038	4628
3317.789	4694
3319.54	4603
3321.289	4628
3323.039	4704
3324.789	4641
3326.539	4685
3328.288	4695
3330.035	4732
3331.783	4666
3333.531	4768
3335.28	4655
3337.025	4611
3338.771	4597
3340.518	4633
3342.262	4601
3344.009	4601
3345.753	4495
3347.497	4576
3349.24	4620
3350.983	4671
3352.726	4551
3354.469	4574
3356.212	4537
3357.952	4536
3359.694	4574
3361.434	4626
3363.176	4555
3364.916	4581
3366.654	4593
3368.394	4535
3370.132	4579
3371.871	4645
3373.61	4579
3375.346	4543
3377.083	4526
3378.82	4559
3380.556	4554
3382.292	4560
3384.027	4544
3385.763	4529
3387.497	4452
3389.231	4516
3390.965	4566
3392.698	4535
3394.431	4444
3396.164	4435
3397.896	4473
3399.627	4418
3401.36	4428
3403.09	4414
3404.82	4564
3406.55	4382
3408.279	4384
3410.01	4595
3411.738	4442
3413.467	4492
3415.194	4489
3416.92	4526
3418.647	4457
3420.375	4498
3422.102	4461
3423.827	4455
3425.553	4383
3427.277	4550
3429.003	4449
3430.727	4423
3432.451	4497
3434.173	4381
3435.896	4385
3437.62	4465
3439.343	4438
3441.063	4405
3442.785	4414
3444.505	4329
3446.226	4356
3447.948	4427
3449.666	4299
3451.386	4384
3453.104	4354
3454.823	4364
3456.541	4354
3458.259	4404
3459.976	4334
3461.693	4380
3463.408	4260
3465.125	4317
3466.841	4316
3468.556	4324
3470.271	4316
3471.985	4339
3473.698	4213
3475.414	4266
3477.126	4218
3478.838	4309
3480.55	4287
3482.263	4236
3483.975	4283
3485.686	4350
3487.396	4226
3489.106	4250
3490.817	4144
3492.526	4327
3494.236	4168
3495.944	4222
3497.652	4251
3499.359	4265
3501.066	4180
3502.775	4274
3504.481	4142
3506.187	4227
3507.893	4135
3509.598	4153
3511.304	4189
3513.009	4225
3514.713	4249
3516.417	4146
3518.12	4142
3519.821	4104
3521.525	4183
3523.228	4207
3524.929	4099
3526.631	4167
3528.33	4123
3530.032	4138
3531.733	4185
3533.433	4202
3535.131	4147
3536.83	4096
3538.529	4236
3540.227	4147
3541.925	4112
3543.623	4145
3545.319	4052
3547.016	4135
3548.712	4071
3550.408	4134
3552.103	4156
3553.798	4144
3555.491	4152
3557.188	4063
3558.88	4172
3560.574	3984
3562.266	4075
3563.959	4111
3565.651	4089
3567.343	4018
3569.035	4093
3570.725	4028
3572.415	4029
3574.106	4051
3575.797	4082
3577.485	4096
3579.174	4028
3580.863	4093
3582.551	4039
3584.238	4071
3585.926	4095
3587.613	4016
3589.3	4072
3590.986	4059
3592.671	3967
3594.357	4042
3596.042	4032
3597.726	3924
3599.41	3930
3601.094	4019
3602.778	3930
3604.461	3989
3606.143	3966
3607.825	4032
3609.507	3968
3611.188	3923
3612.87	3918
3614.551	3904
3616.229	3920
3617.909	3904
3619.589	3957
3621.269	3927
3622.948	3918
3624.625	3875
3626.302	3943
3627.98	3872
3629.657	3843
3631.334	3954
3633.01	3926
3634.686	3969
3636.361	3870
3638.036	3886
3639.712	3898
3641.385	3863
3643.06	3820
3644.732	3823
3646.405	3869
3648.08	3873
3649.751	3882
3651.424	3853
3653.094	3795
3654.766	3932
3656.436	3849
3658.106	3853
3659.777	3825
3661.446	3821
3663.115	3876
3664.783	3811
3666.452	3809
3668.121	3864
3669.788	3842
3671.454	3774
3673.121	3843
3674.789	3807
3676.455	3735
3678.12	3826
3679.784	3692
3681.45	3813
3683.114	3716
3684.779	3839
3686.442	3778
3688.105	3719
3689.768	3755
3691.43	3742
3693.093	3666
3694.754	3690
3696.415	3750
3698.076	3811
3699.736	3693
3701.396	3774
3703.057	3771
3704.716	3842
3706.375	3776
3708.034	3839
3709.692	3741
3711.351	3706
3713.008	3740
3714.665	3662
3716.321	3785
3717.977	3707
3719.634	3691
3721.29	3741
3722.945	3750
3724.598	3742
3726.253	3724
3727.907	3658
3729.561	3699
3731.214	3731
3732.867	3764
3734.518	3741
3736.171	3819
3737.824	3738
3739.474	3618
3741.125	3661
3742.775	3652
3744.425	3765
3746.074	3631
3747.725	3585
3749.373	3703
3751.022	3695
3752.669	3661
3754.318	3672
3755.966	3669
3757.612	3623
3759.259	3693
3760.905	3603
3762.55	3685
3764.197	3692
3765.842	3609
3767.486	3676
3769.131	3593
3770.774	3634
3772.417	3619
3774.061	3708
3775.705	3609
3777.347	3649
3778.988	3543
3780.629	3592
3782.271	3682
3783.912	3590
3785.552	3621
3787.192	3604
3788.831	3603
3790.472	3669
3792.112	3613
3793.75	3620
3795.388	3627
3797.024	3654
3798.661	3668
3800.3	3595
3801.936	3621
3803.572	3544
3805.208	3507
3806.844	3626
3808.48	3549
3810.115	3551
3811.748	3522
3813.382	3611
3815.016	3591
3816.649	3507
3818.283	3535
3819.914	3557
3821.547	3598
3823.178	3570
3824.809	3547
3826.441	3497
3828.072	3556
3829.701	3573
3831.331	3505
3832.96	3531
3834.591	3527
3836.219	3559
3837.847	3441
3839.475	3393
3841.102	3528
3842.729	3550
3844.357	3440
3845.984	3517
3847.609	3495
3849.234	3562
3850.86	3440
3852.485	3484
3854.11	3497
3855.734	3462
3857.357	3390
3858.981	3488
3860.603	3541
3862.227	3421
3863.848	3455
3865.471	3490
3867.092	3472
3868.713	3475
3870.334	3413
3871.954	3419
3873.575	3439
3875.194	3435
3876.813	3483
3878.433	3418
3880.051	3544
3881.669	3474
3883.286	3454
3884.904	3474
3886.52	3349
3888.138	3432
3889.754	3362
3891.37	3461
3892.985	3362
3894.6	3379
3896.216	3331
3897.831	3374
3899.444	3334
3901.058	3423
3902.67	3356
3904.283	3424
3905.897	3321
3907.509	3415
3909.121	3445
3910.731	3322
3912.342	3362
3913.954	3346
3915.563	3358
3917.174	3352
3918.783	3358
3920.391	3285
3922.002	3259
3923.611	3327
3925.218	3369
3926.826	3354
3928.432	3415
3930.039	3397
3931.647	3406
3933.253	3371
3934.859	3395
3936.464	3374
3938.068	3305
3939.675	3266
3941.278	3304
3942.883	3369
3944.486	3333
3946.089	3366
3947.692	3340
3949.295	3333
3950.898	3331
3952.499	3332
3954.1	3424
3955.7	3332
3957.303	3233
3958.903	3366
3960.502	3265
3962.101	3347
3963.7	3283
3965.301	3310
3966.899	3255
3968.497	3278
3970.094	3296
3971.691	3305
3973.288	3220
3974.885	3292
3976.481	3268
3978.077	3240
3979.672	3178
3981.267	3308
3982.863	3211
3984.457	3321
3986.051	3249
3987.645	3236
3989.238	3218
3990.831	3236
3992.425	3252
3994.017	3242
3995.607	3176
3997.199	3282
3998.79	3216
4000.382	3211
4001.973	3236
4003.561	3236
4005.151	3235
4006.741	3152
4008.331	3143
4009.918	3202
4011.507	3159
4013.095	3121
4014.681	3135
4016.269	3190
4017.856	3196
4019.443	3118
4021.028	3143
4022.614	3186
4024.199	3131
4025.785	3170
4027.37	3094
4028.953	3101
4030.536	3147
4032.12	3199
4033.704	3115
4035.287	3123
4036.869	3081
4038.45	3112
4040.032	3081
4041.613	3088
4043.195	3120
4044.776	3134
4046.356	3156
4047.935	3093
4049.515	3082
4051.095	3130
4052.674	3079
4054.251	3092
4055.829	3080
4057.406	3159
4058.985	3036
4060.562	3049
4062.139	3015
4063.715	3060
4065.29	3053
4066.865	3017
4068.442	3055
4070.016	3031
4071.59	3059
4073.164	3047
4074.738	3045
4076.312	3074
4077.885	3076
4079.458	3024
4081.03	2980
4082.602	3038
4084.173	3040
4085.745	3049
4087.315	2962
4088.886	3025
4090.456	3010
4092.026	3086
4093.596	3026
4095.165	3043
4096.734	3029
4098.301	3011
4099.869	3012
4101.437	2965
4103.006	3031
4104.572	2980
4106.139	3023
4107.704	2955
4109.27	3015
4110.837	3020
4112.401	3004
4113.966	3031
4115.53	2950
4117.094	3041
4118.659	2970
4120.223	3001
4121.785	2960
4123.347	2947
4124.909	2943
4126.471	2939
4128.034	2901
4129.595	2952
4131.155	2959
4132.716	2963
4134.275	2966
4135.836	2906
4137.395	2894
4138.955	3009
4140.513	2929
4142.071	2962
4143.628	2890
4145.188	2909
4146.745	2918
4148.302	2921
4149.858	2874
4151.414	2879
4152.971	2905
4154.526	2955
4156.081	2877
4157.635	2872
4159.189	2879
4160.745	2874
4162.298	2822
4163.852	2864
4165.405	2947
4166.957	2863
4168.51	2830
4170.063	2878
4171.614	2811
4173.166	2844
4174.717	2859
4176.267	2871
4177.817	2798
4179.368	2803
4180.917	2832
4182.466	2866
4184.016	2864
4185.564	2901
4187.112	2887
4188.66	2908
4190.207	2857
4191.754	2836
4193.301	2796
4194.848	2767
4196.394	2883
4197.94	2848
4199.484	2822
4201.03	2861
4202.575	2758
4204.12	2809
4205.663	2779
4207.207	2851
4208.75	2810
4210.292	2816
4211.836	2808
4213.378	2785
4214.92	2826
4216.46	2768
4218.002	2848
4219.544	2768
4221.083	2760
4222.625	2744
4224.164	2803
4225.703	2739
4227.244	2774
4228.782	2788
4230.32	2797
4231.857	2771
4233.395	2812
4234.933	2796
4236.471	2769
4238.007	2725
4239.542	2792
4241.078	2746
4242.614	2766
4244.15	2717
4245.685	2733
4247.219	2711
4248.753	2759
4250.287	2750
4251.82	2758
4253.354	2735
4254.887	2731
4256.419	2759
4257.951	2748
4259.483	2819
4261.016	2733
4262.547	2736
4264.078	2716
4265.608	2690
4267.137	2772
4268.668	2720
4270.197	2740
4271.727	2770
4273.254	2671
4274.783	2686
4276.311	2705
4277.84	2695
4279.366	2770
4280.894	2752
4282.42	2712
4283.946	2688
4285.473	2712
4286.998	2671
4288.523	2705
4290.047	2644
4291.572	2669
4293.096	2718
4294.622	2682
4296.144	2697
4297.668	2689
4299.19	2649
4300.713	2696
4302.236	2647
4303.758	2673
4305.279	2692
4306.799	2664
4308.321	2728
4309.842	2672
4311.361	2678
4312.882	2618
4314.401	2647
