400.0961	4780
402.6185	4995
405.1424	4868
407.6635	4780
410.1838	4816
412.7035	4852
415.2225	4889
417.7388	4922
420.2585	4907
422.7754	5042
425.2917	4933
427.8072	5004
430.3221	4974
432.8363	5137
435.3498	5179
437.8626	5110
440.3727	5125
442.8841	5142
445.3969	5138
447.907	5165
450.4142	5124
452.9229	5143
455.4289	5200
457.9362	5231
460.4449	5279
462.9488	5128
465.454	5198
467.9566	5219
470.4604	5251
472.9637	5182
475.4662	5190
477.966	5295
480.4671	5291
482.9656	5249
485.4633	5341
487.9645	5257
490.4608	5366
492.9566	5313
495.4536	5390
497.948	5260
500.4437	5311
502.9387	5408
505.431	5273
507.9226	5287
510.4136	5429
512.9079	5379
515.3975	5379
517.8864	5423
520.3746	5541
522.8622	5472
525.3491	5407
527.8394	5413
530.3249	5515
532.8098	5419
535.2939	5394
537.7774	5472
540.2623	5470
542.7444	5430
545.2259	5339
547.7067	5435
550.1868	5418
552.6683	5404
555.147	5512
557.6231	5481
560.1005	5442
562.5773	5425
565.0534	5556
567.5308	5550
570.0056	5544
572.4776	5656
574.951	5384
577.4237	5664
579.8978	5517
582.3671	5574
584.8378	5602
587.3079	5626
589.7773	5581
592.244	5660
594.714	5696
597.1793	5649
599.6461	5675
602.1121	5732
604.5754	5702
607.0421	5708
609.5042	5668
611.9675	5549
614.4282	5644
616.8902	5605
619.3515	5715
621.8122	5547
624.2702	5627
626.7296	5715
629.1863	5639
631.6423	5519
634.1017	5677
636.5563	5615
639.0104	5722
641.4658	5653
643.9185	5584
646.3725	5724
648.8239	5756
651.2766	5687
653.7266	5699
656.176	5812
658.6247	5810
661.0748	5836
663.5242	5917
665.9709	5740
668.417	5859
670.8624	5790
673.3092	5890
675.7533	5837
678.1968	5875
680.6395	5858
683.0817	5867
685.5251	5701
687.9659	5805
690.4061	5832
692.8456	5860
695.2844	5816
697.7226	5917
700.1621	5986
702.599	5949
705.0332	5994
707.4688	5894
709.9036	5959
712.3399	6021
714.7735	6003
717.2044	5972
719.6367	6085
722.0683	6039
724.4993	6089
726.9296	6038
729.3593	6033
731.7883	6192
734.2147	6233
736.6423	6165
739.0714	6078
741.4958	6187
743.9216	6113
746.3447	6145
748.7691	6277
751.1929	6138
753.616	6161
756.0366	6154
758.4584	6217
760.8776	6173
763.2982	6291
765.718	6308
768.1373	6280
770.5539	6366
772.9698	6313
775.3871	6321
777.8038	6352
780.2178	6308
782.6332	6321
785.0459	6369
787.458	6258
789.8714	6312
792.2842	6265
794.6943	6330
797.1038	6276
799.5127	6331
801.9209	6442
804.3324	6254
806.7393	6399
809.1456	6369
811.5513	6290
813.9562	6346
816.3625	6425
818.7663	6389
821.1693	6433
823.5718	6411
825.9735	6420
828.3746	6420
830.7771	6413
833.177	6460
835.5762	6437
837.9747	6358
840.3727	6433
842.772	6384
845.1666	6496
847.5626	6562
849.958	6584
852.3527	6407
854.7488	6508
857.1403	6491
859.5331	6585
861.9253	6511
864.3168	6474
866.7057	6432
869.098	6486
871.4876	6409
873.8746	6478
876.263	6387
878.6487	6484
881.0378	6548
883.4243	6408
885.8081	6471
888.1933	6519
890.5759	6435
892.9598	6517
895.343	6572
897.7256	6482
900.1057	6485
902.4871	6533
904.8659	6471
907.246	6468
909.6254	6663
912.0023	6451
914.3786	6678
916.7562	6667
919.1331	6699
921.5074	6838
923.8831	6765
926.2562	6705
928.6287	6733
931.0005	6729
933.3757	6696
935.7462	6775
938.1162	6716
940.4855	6771
942.8542	6863
945.2242	6746
947.5916	6839
949.9584	6958
952.3266	7032
954.6921	7220
957.0571	7139
959.4233	7280
961.787	7306
964.15	7304
966.5125	7380
968.8742	7195
971.2354	6997
973.5959	7020
975.9559	6834
978.3151	6829
980.6738	6861
983.0338	6787
985.3912	6757
987.7461	6663
990.1022	6773
992.4578	6802
994.8127	6669
997.1689	6755
999.5207	6748
1001.874	6786
1004.226	6763
1006.576	6595
1008.929	6772
1011.28	6755
1013.628	6715
1015.977	6796
1018.324	6819
1020.674	6734
1023.019	6686
1025.366	6742
1027.713	6875
1030.056	6823
1032.399	6855
1034.746	6905
1037.087	6858
1039.431	6871
1041.771	6820
1044.113	6877
1046.454	6831
1048.793	6823
1051.133	6872
1053.471	6864
1055.807	6998
1058.146	6917
1060.483	6836
1062.818	6837
1065.153	6950
1067.489	6901
1069.822	6865
1072.156	6877
1074.488	6874
1076.82	7047
1079.15	6945
1081.48	6969
1083.814	6825
1086.143	6880
1088.471	6984
1090.799	6897
1093.126	6967
1095.452	6855
1097.78	6970
1100.105	6765
1102.43	6988
1104.754	6922
1107.077	6897
1109.4	7000
1111.722	6762
1114.044	7028
1116.365	7012
1118.685	7035
1121.005	6946
1123.324	6954
1125.643	6995
1127.961	7095
1130.278	6967
1132.595	6973
1134.911	7003
1137.226	6937
1139.541	7077
1141.854	7022
1144.167	7055
1146.482	6942
1148.793	7019
1151.105	7016
1153.414	6986
1155.725	7104
1158.033	7001
1160.344	6949
1162.651	6951
1164.959	7098
1167.265	7061
1169.572	7012
1171.878	7053
1174.184	7105
1176.488	7031
1178.79	6996
1181.094	7009
1183.396	7061
1185.699	7067
1188.001	7117
1190.301	6958
1192.6	7021
1194.9	6867
1197.2	6971
1199.497	6941
1201.794	7073
1204.09	7037
1206.387	7143
1208.684	7045
1210.978	6991
1213.272	6967
1215.565	6993
1217.858	6967
1220.15	7147
1222.443	7124
1224.734	7103
1227.024	7193
1229.313	7068
1231.602	7090
1233.892	7192
1236.18	7150
1238.467	7065
1240.754	7167
1243.04	7329
1245.325	7253
1247.612	7148
1249.896	7111
1252.178	7272
1254.461	7270
1256.743	7252
1259.027	7236
1261.308	7153
1263.587	7190
1265.867	7173
1268.146	7108
1270.425	7058
1272.703	7239
1274.981	7202
1277.256	7212
1279.532	7200
1281.808	7206
1284.083	7205
1286.358	7236
1288.63	7160
1290.904	7110
1293.175	7091
1295.449	7091
1297.719	7275
1299.99	7154
1302.259	7195
1304.529	7148
1306.798	7246
1309.065	7147
1311.333	7193
1313.599	7273
1315.866	7147
1318.131	7306
1320.396	7172
1322.66	7234
1324.925	7086
1327.187	7121
1329.448	7117
1331.711	7181
1333.974	7088
1336.234	7227
1338.493	7252
1340.752	7252
1343.01	7206
1345.269	7210
1347.526	7281
1349.784	7227
1352.04	7171
1354.295	7171
1356.552	7281
1358.806	7212
1361.059	7132
1363.312	7128
1365.564	7285
1367.818	7136
1370.069	7253
1372.318	7193
1374.568	7201
1376.817	7247
1379.066	7283
1381.316	7263
1383.564	7215
1385.809	7294
1388.056	7220
1390.301	7271
1392.549	7354
1394.793	7331
1397.036	7386
1399.279	7403
1401.522	7425
1403.763	7447
1406.007	7438
1408.248	7366
1410.487	7355
1412.727	7340
1414.965	7296
1417.205	7290
1419.442	7395
1421.68	7300
1423.915	7420
1426.152	7447
1428.388	7412
1430.623	7431
1432.857	7522
1435.091	7343
1437.323	7491
1439.556	7588
1441.789	7521
1444.019	7439
1446.25	7400
1448.48	7420
1450.708	7447
1452.938	7541
1455.167	7530
1457.394	7669
1459.62	7454
1461.846	7525
1464.073	7358
1466.299	7547
1468.523	7341
1470.746	7421
1472.969	7398
1475.191	7454
1477.415	7310
1479.636	7372
1481.858	7357
1484.078	7423
1486.298	7236
1488.518	7267
1490.736	7414
1492.954	7423
1495.169	7244
1497.386	7260
1499.602	7353
1501.819	7228
1504.034	7320
1506.248	7222
1508.462	7239
1510.675	7126
1512.888	7205
1515.1	7152
1517.311	7327
1519.522	7268
1521.732	7240
1523.942	7329
1526.151	7240
1528.36	7265
1530.566	7282
1532.773	7174
1534.98	7228
1537.187	7356
1539.392	7336
1541.596	7180
1543.801	7273
1546.005	7243
1548.208	7234
1550.411	7284
1552.612	7328
1554.814	7330
1557.013	7212
1559.212	7310
1561.414	7444
1563.612	7364
1565.811	7339
1568.007	7340
1570.203	7435
1572.403	7446
1574.598	7367
1576.792	7384
1578.988	7459
1581.181	7498
1583.376	7482
1585.568	7434
1587.761	7368
1589.952	7418
1592.143	7403
1594.333	7401
1596.524	7466
1598.715	7443
1600.903	7539
1603.091	7369
1605.278	7576
1607.466	7448
1609.652	7516
1611.838	7463
1614.023	7477
1616.207	7540
1618.391	7551
1620.576	7413
1622.759	7387
1624.941	7419
1627.123	7529
1629.304	7599
1631.484	7358
1633.664	7478
1635.844	7433
1638.022	7564
1640.201	7398
1642.38	7609
1644.556	7506
1646.732	7566
1648.908	7464
1651.084	7611
1653.257	7554
1655.433	7469
1657.607	7489
1659.779	7675
1661.951	7439
1664.122	7642
1666.295	7428
1668.467	7588
1670.635	7560
1672.805	7562
1674.973	7620
1677.142	7535
1679.31	7624
1681.478	7571
1683.644	7534
1685.81	7628
1687.975	7508
1690.142	7658
1692.305	7560
1694.468	7464
1696.632	7584
1698.794	7536
1700.957	7530
1703.119	7443
1705.279	7499
1707.439	7374
1709.598	7394
1711.758	7530
1713.917	7405
1716.075	7560
1718.231	7553
1720.388	7425
1722.543	7575
1724.702	7447
1726.856	7396
1729.01	7605
1731.164	7461
1733.317	7416
1735.471	7501
1737.623	7614
1739.774	7404
1741.925	7368
1744.075	7535
1746.225	7517
1748.376	7510
1750.524	7507
1752.672	7378
1754.82	7368
1756.965	7522
1759.113	7530
1761.259	7673
1763.405	7511
1765.549	7456
1767.694	7564
1769.836	7623
1771.981	7481
1774.123	7552
1776.264	7607
1778.405	7430
1780.546	7635
1782.687	7386
1784.827	7492
1786.966	7607
1789.103	7505
1791.242	7597
1793.381	7541
1795.517	7568
1797.653	7586
1799.788	7534
1801.923	7649
1804.057	7418
1806.193	7609
1808.326	7562
1810.457	7583
1812.59	7375
1814.721	7624
1816.855	7674
1818.984	7533
1821.113	7486
1823.244	7478
1825.372	7570
1827.499	7407
1829.63	7515
1831.756	7365
1833.882	7534
1836.007	7550
1838.132	7533
1840.26	7500
1842.384	7476
1844.507	7569
1846.63	7436
1848.752	7571
1850.875	7477
1852.996	7470
1855.118	7365
1857.238	7494
1859.358	7611
1861.477	7442
1863.597	7434
1865.715	7493
1867.832	7437
1869.948	7404
1872.064	7394
1874.181	7545
1876.297	7422
1878.411	7397
1880.526	7435
1882.639	7543
1884.752	7534
1886.865	7489
1888.977	7448
1891.089	7499
1893.2	7543
1895.308	7508
1897.42	7551
1899.53	7483
1901.639	7483
1903.745	7532
1905.853	7571
1907.962	7641
1910.067	7573
1912.174	7644
1914.278	7527
1916.383	7592
1918.486	7505
1920.592	7690
1922.694	7480
1924.797	7567
1926.898	7619
1929	7619
1931.102	7573
1933.203	7595
1935.301	7657
1937.401	7561
1939.499	7563
1941.598	7562
1943.697	7547
1945.793	7539
1947.888	7578
1949.985	7502
1952.08	7589
1954.176	7604
1956.269	7550
1958.364	7520
1960.457	7591
1962.549	7607
1964.642	7523
1966.733	7642
1968.823	7584
1970.913	7575
1973.005	7581
1975.093	7532
1977.184	7511
1979.271	7564
1981.359	7519
1983.446	7514
1985.532	7692
1987.619	7536
1989.705	7488
1991.789	7427
1993.874	7567
1995.956	7518
1998.041	7530
2000.123	7509
2002.206	7462
2004.287	7412
2006.368	7462
2008.449	7496
2010.529	7378
2012.609	7495
2014.688	7542
2016.766	7486
2018.843	7416
2020.922	7497
2022.999	7471
2025.074	7487
2027.15	7522
2029.225	7345
2031.299	7571
2033.375	7471
2035.447	7385
2037.52	7571
2039.592	7506
2041.664	7534
2043.736	7486
2045.807	7563
2047.876	7465
2049.947	7480
2052.015	7541
2054.086	7371
2056.153	7395
2058.221	7628
2060.288	7516
2062.353	7447
2064.42	7456
2066.486	7516
2068.55	7467
2070.614	7396
2072.678	7442
2074.741	7474
2076.805	7400
2078.866	7474
2080.929	7363
2082.99	7528
2085.049	7689
2087.109	7383
2089.17	7504
2091.228	7485
2093.286	7381
2095.344	7436
2097.4	7387
2099.46	7454
2101.516	7423
2103.572	7419
2105.626	7392
2107.679	7488
2109.735	7438
2111.788	7450
2113.841	7439
2115.894	7343
2117.945	7476
2119.997	7501
2122.049	7379
2124.1	7556
2126.148	7384
2128.197	7453
2130.246	7386
2132.296	7552
2134.342	7362
2136.39	7386
2138.437	7384
2140.483	7368
2142.527	7423
2144.574	7378
2146.619	7287
2148.661	7441
2150.705	7411
2152.747	7504
2154.792	7440
2156.832	7446
2158.874	7400
2160.915	7547
2162.954	7505
2164.995	7363
2167.034	7467
2169.072	7276
2171.111	7530
2173.148	7355
2175.186	7275
2177.223	7405
2179.258	7256
2181.294	7290
2183.328	7267
2185.362	7313
2187.398	7289
2189.431	7352
2191.463	7360
2193.495	7343
2195.528	7237
2197.56	7236
2199.59	7242
2201.62	7149
2203.649	7311
2205.678	7255
2207.708	7229
2209.737	7222
2211.764	7316
2213.791	7296
2215.817	7257
2217.843	7307
2219.87	7272
2221.895	7254
2223.919	7272
2225.942	7192
2227.966	7244
2229.988	7147
2232.012	7244
2234.032	7236
2236.054	7312
2238.074	7109
2240.095	7184
2242.116	7254
2244.135	7245
2246.153	7199
2248.171	7160
2250.188	7228
2252.208	7188
2254.223	7238
2256.239	7134
2258.255	7330
2260.269	7142
2262.283	7130
2264.3	7118
2266.312	7264
2268.325	7259
2270.336	7144
2272.349	7224
2274.362	7175
2276.372	7300
2278.383	7297
2280.392	7131
2282.402	7256
2284.409	7286
2286.418	7110
2288.427	7299
2290.433	7076
2292.441	7160
2294.446	7222
2296.453	7175
2298.459	7175
2300.463	7177
2302.466	7159
2304.471	7084
2306.475	7116
2308.477	7216
2310.478	7080
2312.481	7132
2314.481	7025
2316.481	7103
2318.482	7243
2320.482	7049
2322.48	7152
2324.48	7160
2326.478	7026
2328.476	7024
2330.473	7138
2332.469	7066
2334.465	7188
2336.46	7062
2338.454	7112
2340.45	7113
2342.444	7126
2344.437	6961
2346.43	7120
2348.421	6995
2350.414	7109
2352.405	7153
2354.396	7116
2356.386	7080
2358.376	6907
2360.366	6944
2362.355	6977
2364.343	7110
2366.331	6879
2368.317	6977
2370.304	7009
2372.292	7031
2374.278	7018
2376.262	7060
2378.247	6947
2380.23	6876
2382.216	6933
2384.199	6944
2386.181	6956
2388.163	7010
2390.144	6902
2392.127	7108
2394.107	6918
2396.087	6872
2398.066	6984
2400.046	6997
2402.023	6957
2404.004	6869
2405.981	6965
2407.957	6839
2409.934	6795
2411.91	6850
2413.886	6934
2415.862	6802
2417.836	6922
2419.809	6988
2421.784	6949
2423.756	6975
2425.73	6831
2427.701	7059
2429.672	6867
2431.644	6786
2433.615	6888
2435.586	6854
2437.555	6995
2439.523	6939
2441.491	6836
2443.459	6823
2445.428	6853
2447.395	6957
2449.361	6959
2451.327	6770
2453.292	6882
2455.257	6813
2457.223	6859
2459.187	6818
2461.15	6870
2463.113	6734
2465.076	6808
2467.039	6806
2468.999	6888
2470.96	6714
2472.921	6809
2474.881	6786
2476.841	6859
2478.8	6845
2480.759	6854
2482.717	6860
2484.675	6799
2486.63	6744
2488.589	6819
2490.545	6778
2492.5	6766
2494.455	6795
2496.408	6745
2498.364	6712
2500.318	6708
2502.27	6776
2504.223	6761
2506.174	6760
2508.126	6780
2510.078	6736
2512.03	6742
2513.979	6668
2515.927	6598
2517.877	6702
2519.826	6675
2521.775	6684
2523.722	6745
2525.668	6730
2527.616	6691
2529.561	6762
2531.508	6644
2533.452	6692
2535.398	6836
2537.342	6750
2539.284	6596
2541.229	6809
2543.173	6680
2545.114	6647
2547.055	6789
2548.996	6598
2550.938	6655
2552.878	6706
2554.817	6679
2556.756	6790
2558.695	6599
2560.633	6717
2562.572	6678
2564.509	6747
2566.445	6731
2568.382	6586
2570.317	6600
2572.254	6631
2574.189	6757
2576.123	6652
2578.057	6746
2579.99	6683
2581.923	6657
2583.855	6763
2585.788	6701
2587.719	6600
2589.65	6698
2591.579	6715
2593.511	6651
2595.44	6590
2597.37	6763
2599.297	6731
2601.225	6735
2603.153	6633
2605.08	6748
2607.007	6666
2608.932	6672
2610.858	6561
2612.782	6614
2614.709	6689
2616.632	6669
2618.556	6674
2620.478	6722
2622.401	6601
2624.324	6658
2626.247	6724
2628.167	6687
2630.088	6507
2632.008	6607
2633.928	6728
2635.848	6586
2637.766	6760
2639.684	6673
2641.603	6566
2643.519	6616
2645.437	6604
2647.353	6691
2649.27	6594
2651.184	6594
2653.099	6714
2655.014	6643
2656.928	6719
2658.842	6598
2660.755	6569
2662.667	6634
2664.579	6694
2666.491	6633
2668.402	6657
2670.312	6540
2672.222	6642
2674.132	6596
2676.042	6500
2677.951	6578
2679.859	6571
2681.766	6510
2683.674	6605
2685.582	6658
2687.488	6554
2689.392	6579
2691.298	6627
2693.202	6622
2695.107	6462
2697.012	6550
2698.914	6528
2700.817	6499
2702.72	6528
2704.622	6479
2706.524	6519
2708.425	6480
2710.326	6554
2712.225	6480
2714.125	6522
2716.024	6495
2717.923	6527
2719.822	6418
2721.719	6519
2723.616	6381
2725.512	6409
2727.41	6608
2729.305	6388
2731.201	6517
2733.095	6573
2734.99	6513
2736.884	6479
2738.778	6538
2740.67	6550
2742.562	6477
2744.455	6520
2746.346	6421
2748.238	6416
2750.129	6454
2752.018	6448
2753.907	6430
2755.797	6424
2757.687	6384
2759.575	6475
2761.462	6394
2763.349	6393
2765.237	6471
2767.124	6489
2769.009	6362
2770.894	6417
2772.779	6443
2774.663	6357
2776.547	6435
2778.431	6317
2780.314	6403
2782.197	6384
2784.078	6345
2785.96	6385
2787.842	6356
2789.723	6365
2791.603	6371
2793.483	6263
2795.362	6337
2797.241	6426
2799.121	6402
2800.997	6355
2802.874	6417
2804.751	6380
2806.628	6340
2808.506	6383
2810.38	6370
2812.255	6308
2814.13	6352
2816.003	6428
2817.878	6350
2819.752	6414
2821.623	6261
2823.496	6282
2825.368	6344
2827.238	6245
2829.111	6269
2830.98	6371
2832.851	6299
2834.719	6212
2836.589	6294
2838.458	6169
2840.327	6167
2842.193	6255
2844.061	6197
2845.927	6329
2847.794	6315
2849.66	6244
2851.525	6253
2853.39	6292
2855.254	6280
2857.117	6305
2858.983	6301
2860.845	6400
2862.707	6434
2864.569	6349
2866.431	6393
2868.293	6352
2870.154	6468
2872.013	6493
2873.873	6442
2875.733	6365
2877.592	6464
2879.451	6534
2881.309	6514
2883.166	6545
2885.022	6543
2886.879	6561
2888.736	6443
2890.591	6567
2892.446	6503
2894.301	6618
2896.155	6479
2898.009	6577
2899.863	6488
2901.716	6480
2903.568	6604
2905.419	6504
2907.27	6529
2909.123	6777
2910.973	6587
2912.824	6592
2914.673	6587
2916.521	6591
2918.372	6677
2920.22	6660
2922.067	6687
2923.914	6639
2925.761	6602
2927.607	6561
2929.455	6732
2931.301	6746
2933.144	6751
2934.99	6650
2936.833	6736
2938.678	6771
2940.522	6854
2942.364	6895
2944.207	6947
2946.048	6919
2947.891	6881
2949.731	7078
2951.571	6933
2953.412	6927
2955.25	6899
2957.09	6863
2958.93	6916
2960.767	6842
2962.606	6822
2964.443	6785
2966.279	6782
2968.116	6706
2969.953	6773
2971.788	6746
2973.623	6535
2975.457	6504
2977.292	6512
2979.127	6451
2980.959	6410
2982.792	6456
2984.624	6444
2986.455	6355
2988.288	6310
2990.119	6357
2991.949	6355
2993.779	6258
2995.608	6369
2997.439	6284
2999.268	6156
3001.096	6248
3002.923	6083
3004.751	6151
3006.578	6196
3008.406	6135
3010.232	6039
3012.057	6065
3013.883	5888
3015.706	5985
3017.532	6102
3019.356	5970
3021.179	5882
3023.002	5984
3024.823	6068
3026.646	6068
3028.469	5937
3030.289	5852
3032.11	5912
3033.93	5949
3035.749	5965
3037.57	5833
3039.39	5978
3041.207	5946
3043.026	5840
3044.842	5832
3046.661	5707
3048.477	5825
3050.294	5833
3052.109	5795
3053.925	5937
3055.739	5739
3057.555	5940
3059.368	5787
3061.181	5844
3062.995	5766
3064.807	5916
3066.62	5772
3068.433	5826
3070.243	5829
3072.054	5788
3073.865	5811
3075.675	5671
3077.485	5804
3079.293	5747
3081.102	5733
3082.911	5877
3084.719	5766
3086.527	5827
3088.333	5796
3090.139	5710
3091.945	5712
3093.75	5721
3095.557	5653
3097.361	5729
3099.165	5776
3100.969	5620
3102.772	5599
3104.575	5638
3106.379	5622
3108.181	5604
3109.982	5584
3111.783	5552
3113.584	5642
3115.386	5530
3117.186	5605
3118.985	5695
3120.783	5588
3122.582	5578
3124.381	5547
3126.179	5592
3127.975	5552
3129.772	5548
3131.569	5551
3133.365	5601
3135.161	5590
3136.956	5459
3138.751	5573
3140.544	5547
3142.338	5573
3144.132	5470
3145.925	5535
3147.717	5498
3149.509	5428
3151.301	5507
3153.091	5449
3154.884	5420
3156.673	5560
3158.462	5404
3160.252	5531
3162.041	5418
3163.831	5547
3165.618	5478
3167.405	5466
3169.193	5457
3170.979	5470
3172.767	5385
3174.553	5429
3176.338	5440
3178.123	5329
3179.907	5378
3181.692	5484
3183.477	5541
3185.259	5439
3187.042	5395
3188.824	5383
3190.607	5406
3192.389	5443
3194.17	5363
3195.951	5345
3197.73	5498
3199.51	5405
3201.289	5324
3203.07	5468
3204.848	5428
3206.626	5352
3208.403	5436
3210.18	5391
3211.959	5316
3213.735	5492
3215.511	5291
3217.285	5295
3219.06	5339
3220.836	5284
3222.611	5384
3224.384	5426
3226.158	5296
3227.929	5298
3229.702	5371
3231.476	5314
3233.248	5247
3235.018	5386
3236.789	5355
3238.56	5250
3240.33	5276
3242.1	5244
3243.869	5241
3245.637	5405
3247.405	5194
3249.172	5301
3250.941	5300
3252.707	5274
3254.474	5403
3256.24	5252
3258.006	5358
3259.772	5283
3261.537	5272
3263.301	5240
3265.065	5424
3266.828	5249
3268.592	5301
3270.355	5245
3272.117	5236
3273.878	5261
3275.64	5189
3277.401	5299
3279.162	5333
3280.922	5104
3282.682	5242
3284.441	5283
3286.199	5139
3287.959	5279
3289.716	5215
3291.475	5340
3293.232	5199
3294.988	5379
3296.744	5212
3298.501	5157
3300.256	5278
3302.011	5218
3303.766	5249
3305.52	5228
3307.275	5198
3309.028	5271
3310.781	5283
3312.533	5209
3314.285	5173
3316.038	5179
3317.789	5205
3319.54	5188
3321.289	5158
3323.039	5176
3324.789	5178
3326.539	5294
3328.288	5199
3330.035	5143
3331.783	5237
3333.531	5164
3335.28	5157
3337.025	5161
3338.771	5201
3340.518	5145
3342.262	5121
3344.009	5258
3345.753	5149
3347.497	5134
3349.24	5116
3350.983	5093
3352.726	5117
3354.469	5207
3356.212	4969
3357.952	5090
3359.694	5061
3361.434	5107
3363.176	5198
3364.916	5174
3366.654	5050
3368.394	5127
3370.132	5145
3371.871	5106
3373.61	5096
3375.346	5020
3377.083	5020
3378.82	5038
3380.556	5053
3382.292	5041
3384.027	5062
3385.763	5044
3387.497	5141
3389.231	5001
3390.965	5053
3392.698	5003
3394.431	5138
3396.164	5115
3397.896	5015
3399.627	5003
3401.36	5053
3403.09	5126
3404.82	5023
3406.55	5027
3408.279	5041
3410.01	5019
3411.738	4931
3413.467	4966
3415.194	4958
3416.92	4890
3418.647	4997
3420.375	4960
3422.102	4846
3423.827	4908
3425.553	5019
3427.277	4916
3429.003	4883
3430.727	4774
3432.451	4801
3434.173	4878
3435.896	4867
3437.62	4876
3439.343	4884
3441.063	4889
3442.785	4932
3444.505	4830
3446.226	4791
3447.948	4849
3449.666	4884
3451.386	4873
3453.104	4906
3454.823	4856
3456.541	4891
3458.259	4833
3459.976	4790
3461.693	4805
3463.408	4746
3465.125	4813
3466.841	4750
3468.556	4653
3470.271	4715
3471.985	4750
3473.698	4642
3475.414	4792
3477.126	4775
3478.838	4755
3480.55	4767
3482.263	4720
3483.975	4662
3485.686	4769
3487.396	4711
3489.106	4715
3490.817	4753
3492.526	4663
3494.236	4760
3495.944	4774
3497.652	4617
3499.359	4683
3501.066	4635
3502.775	4723
3504.481	4705
3506.187	4561
3507.893	4654
3509.598	4654
3511.304	4695
3513.009	4622
3514.713	4533
3516.417	4628
3518.12	4556
3519.821	4638
3521.525	4608
3523.228	4582
3524.929	4671
3526.631	4498
3528.33	4661
3530.032	4642
3531.733	4612
3533.433	4583
3535.131	4579
3536.83	4520
3538.529	4572
3540.227	4626
3541.925	4523
3543.623	4482
3545.319	4480
3547.016	4535
3548.712	4538
3550.408	4475
3552.103	4509
3553.798	4513
3555.491	4527
3557.188	4509
3558.88	4598
3560.574	4464
3562.266	4520
3563.959	4465
3565.651	4583
3567.343	4483
3569.035	4548
3570.725	4468
3572.415	4413
3574.106	4445
3575.797	4454
3577.485	4377
3579.174	4466
3580.863	4406
3582.551	4381
3584.238	4423
3585.926	4421
3587.613	4411
3589.3	4279
3590.986	4351
3592.671	4396
3594.357	4389
3596.042	4301
3597.726	4364
3599.41	4381
3601.094	4335
3602.778	4433
3604.461	4338
3606.143	4281
3607.825	4399
3609.507	4359
3611.188	4346
3612.87	4357
3614.551	4375
3616.229	4460
3617.909	4327
3619.589	4288
3621.269	4362
3622.948	4295
3624.625	4241
3626.302	4366
3627.98	4256
3629.657	4264
3631.334	4347
3633.01	4171
3634.686	4254
3636.361	4244
3638.036	4246
3639.712	4192
3641.385	4245
3643.06	4266
3644.732	4229
3646.405	4253
3648.08	4227
3649.751	4176
3651.424	4140
3653.094	4175
3654.766	4213
3656.436	4111
3658.106	4261
3659.777	4169
3661.446	4202
3663.115	4205
3664.783	4160
3666.452	4145
3668.121	4208
3669.788	4161
3671.454	4230
3673.121	4255
3674.789	4103
3676.455	4181
3678.12	4149
3679.784	4157
3681.45	4194
3683.114	4197
3684.779	4117
3686.442	4086
3688.105	4023
3689.768	4110
3691.43	4136
3693.093	4066
3694.754	4114
3696.415	4093
3698.076	4123
3699.736	4085
3701.396	4113
3703.057	4111
3704.716	4139
3706.375	4117
3708.034	4091
3709.692	4085
3711.351	4180
3713.008	4083
3714.665	4034
3716.321	4010
3717.977	4049
3719.634	4097
3721.29	4086
3722.945	4083
3724.598	4023
3726.253	4132
3727.907	4019
3729.561	4042
3731.214	4077
3732.867	4014
3734.518	4075
3736.171	4127
3737.824	4034
3739.474	3934
3741.125	4025
3742.775	4072
3744.425	4011
3746.074	4118
3747.725	4066
3749.373	3980
3751.022	3989
3752.669	4069
3754.318	3949
3755.966	3939
3757.612	3956
3759.259	3979
3760.905	3975
3762.55	3942
3764.197	3916
3765.842	3996
3767.486	3976
3769.131	3859
3770.774	3938
3772.417	3949
3774.061	3920
3775.705	3871
3777.347	3957
3778.988	3863
3780.629	3914
3782.271	3907
3783.912	3891
3785.552	3920
3787.192	4044
3788.831	3877
3790.472	3810
3792.112	3863
3793.75	3905
3795.388	3909
3797.024	3905
3798.661	3915
3800.3	3917
3801.936	3881
3803.572	3825
3805.208	3877
3806.844	3914
3808.48	3864
3810.115	3724
3811.748	3845
3813.382	3841
3815.016	3874
3816.649	3816
3818.283	3857
3819.914	3802
3821.547	3844
3823.178	3742
3824.809	3793
3826.441	3837
3828.072	3768
3829.701	3809
3831.331	3784
3832.96	3843
3834.591	3726
3836.219	3744
3837.847	3761
3839.475	3795
3841.102	3758
3842.729	3833
3844.357	3803
3845.984	3713
3847.609	3711
3849.234	3739
3850.86	3798
3852.485	3728
3854.11	3735
3855.734	3737
3857.357	3724
3858.981	3765
3860.603	3736
3862.227	3780
3863.848	3713
3865.471	3738
3867.092	3651
3868.713	3648
3870.334	3753
3871.954	3757
3873.575	3685
3875.194	3750
3876.813	3637
3878.433	3663
3880.051	3637
3881.669	3606
3883.286	3613
3884.904	3646
3886.52	3655
3888.138	3643
3889.754	3704
3891.37	3646
3892.985	3600
3894.6	3644
3896.216	3639
3897.831	3589
3899.444	3641
3901.058	3586
3902.67	3625
3904.283	3584
3905.897	3718
3907.509	3610
3909.121	3635
3910.731	3556
3912.342	3641
3913.954	3603
3915.563	3648
3917.174	3626
3918.783	3585
3920.391	3603
3922.002	3617
3923.611	3563
3925.218	3601
3926.826	3638
3928.432	3561
3930.039	3636
3931.647	3653
3933.253	3597
3934.859	3553
3936.464	3569
3938.068	3578
3939.675	3599
3941.278	3626
3942.883	3491
3944.486	3554
3946.089	3545
3947.692	3513
3949.295	3557
3950.898	3565
3952.499	3540
3954.1	3574
3955.7	3523
3957.303	3432
3958.903	3523
3960.502	3517
3962.101	3485
3963.7	3531
3965.301	3452
3966.899	3478
3968.497	3476
3970.094	3437
3971.691	3548
3973.288	3489
3974.885	3507
3976.481	3508
3978.077	3492
3979.672	3478
3981.267	3463
3982.863	3506
3984.457	3515
3986.051	3431
3987.645	3502
3989.238	3484
3990.831	3437
3992.425	3460
3994.017	3387
3995.607	3430
3997.199	3461
3998.79	3399
4000.382	3315
4001.973	3425
4003.561	3414
4005.151	3434
4006.741	3444
4008.331	3339
4009.918	3291
4011.507	3417
4013.095	3396
4014.681	3428
4016.269	3354
4017.856	3227
4019.443	3410
4021.028	3336
4022.614	3431
4024.199	3382
4025.785	3323
4027.37	3348
4028.953	3345
4030.536	3326
4032.12	3342
4033.704	3254
4035.287	3260
4036.869	3401
4038.45	3241
4040.032	3309
4041.613	3193
4043.195	3352
4044.776	3275
4046.356	3332
4047.935	3346
4049.515	3333
4051.095	3380
4052.674	3254
4054.251	3177
4055.829	3249
4057.406	3299
4058.985	3251
4060.562	3355
4062.139	3278
4063.715	3237
4065.29	3293
4066.865	3308
4068.442	3202
4070.016	3226
4071.59	3211
4073.164	3218
4074.738	3251
4076.312	3266
4077.885	3210
4079.458	3216
4081.03	3278
4082.602	3178
4084.173	3250
4085.745	3223
4087.315	3167
4088.886	3241
4090.456	3168
4092.026	3178
4093.596	3137
4095.165	3220
4096.734	3180
4098.301	3146
4099.869	3137
4101.437	3190
4103.006	3169
4104.572	3135
4106.139	3157
4107.704	3225
4109.27	3087
4110.837	3129
4112.401	3139
4113.966	3156
4115.53	3133
4117.094	3169
4118.659	3157
4120.223	3152
4121.785	3155
4123.347	2992
4124.909	3069
4126.471	3127
4128.034	3134
4129.595	3077
4131.155	3088
4132.716	3098
4134.275	3054
4135.836	3141
4137.395	3003
4138.955	3112
4140.513	3028
4142.071	3121
4143.628	3044
4145.188	3103
4146.745	3033
4148.302	3017
4149.858	3111
4151.414	3058
4152.971	3022
4154.526	3053
4156.081	3012
4157.635	3035
4159.189	3030
4160.745	3059
4162.298	3040
4163.852	2978
4165.405	3002
4166.957	3020
4168.51	2958
4170.063	2956
4171.614	2981
4173.166	2972
4174.717	2975
4176.267	3016
4177.817	2963
4179.368	3037
4180.917	2978
4182.466	3006
4184.016	3006
4185.564	2953
4187.112	3026
4188.66	2907
4190.207	2915
4191.754	2905
4193.301	2922
4194.848	2958
4196.394	2897
4197.94	2972
4199.484	2890
4201.03	2935
4202.575	2957
4204.12	2920
4205.663	3004
4207.207	2940
4208.75	2942
4210.292	2919
4211.836	2890
4213.378	2882
4214.92	2879
4216.46	2851
4218.002	2946
4219.544	2880
4221.083	2926
4222.625	2927
4224.164	2871
4225.703	2870
4227.244	2921
4228.782	2849
4230.32	2862
4231.857	2819
4233.395	2827
4234.933	2843
4236.471	2924
4238.007	2815
4239.542	2926
4241.078	2785
4242.614	2862
4244.15	2821
4245.685	2871
4247.219	2894
4248.753	2788
4250.287	2789
4251.82	2813
4253.354	2843
4254.887	2818
4256.419	2821
4257.951	2829
4259.483	2794
4261.016	2826
4262.547	2831
4264.078	2784
4265.608	2834
4267.137	2806
4268.668	2837
4270.197	2875
4271.727	2800
4273.254	2771
4274.783	2799
4276.311	2831
4277.84	2808
4279.366	2831
4280.894	2791
4282.42	2797
4283.946	2744
4285.473	2728
4286.998	2814
4288.523	2719
4290.047	2729
4291.572	2860
4293.096	2727
4294.622	2749
4296.144	2710
4297.668	2770
4299.19	2698
4300.713	2780
4302.236	2735
4303.758	2735
4305.279	2776
4306.799	2751
4308.321	2718
4309.842	2744
4311.361	2710
4312.882	2694
4314.401	2693
