400.0961	4889
402.6185	4857
405.1424	4937
407.6635	4839
410.1838	4901
412.7035	4955
415.2225	5040
417.7388	5125
420.2585	5105
422.7754	5132
425.2917	5167
427.8072	5174
430.3221	5228
432.8363	5228
435.3498	5260
437.8626	5222
440.3727	5195
442.8841	5278
445.3969	5305
447.907	5315
450.4142	5254
452.9229	5266
455.4289	5268
457.9362	5128
460.4449	5152
462.9488	5229
465.454	5274
467.9566	5119
470.4604	5118
472.9637	5210
475.4662	5246
477.966	5229
480.4671	5253
482.9656	5243
485.4633	5189
487.9645	5307
490.4608	5209
492.9566	5320
495.4536	5308
497.948	5281
500.4437	5343
502.9387	5332
505.431	5358
507.9226	5266
510.4136	5355
512.9079	5354
515.3975	5443
517.8864	5433
520.3746	5268
522.8622	5316
525.3491	5317
527.8394	5385
530.3249	5400
532.8098	5460
535.2939	5386
537.7774	5418
540.2623	5369
542.7444	5440
545.2259	5410
547.7067	5432
550.1868	5388
552.6683	5463
555.147	5349
557.6231	5485
560.1005	5430
562.5773	5463
565.0534	5470
567.5308	5552
570.0056	5408
572.4776	5665
574.951	5628
577.4237	5577
579.8978	5613
582.3671	5693
584.8378	5658
587.3079	5628
589.7773	5764
592.244	5773
594.714	5658
597.1793	5800
599.6461	5695
602.1121	5716
604.5754	5641
607.0421	5716
609.5042	5597
611.9675	5650
614.4282	5726
616.8902	5623
619.3515	5653
621.8122	5685
624.2702	5545
626.7296	5492
629.1863	5577
631.6423	5551
634.1017	5535
636.5563	5516
639.0104	5645
641.4658	5618
643.9185	5574
646.3725	5556
648.8239	5614
651.2766	5572
653.7266	5569
656.176	5813
658.6247	5620
661.0748	5654
663.5242	5737
665.9709	5703
668.417	5682
670.8624	5734
673.3092	5707
675.7533	5708
678.1968	5797
680.6395	5686
683.0817	5792
685.5251	5833
687.9659	5794
690.4061	5810
692.8456	5825
695.2844	5886
697.7226	5841
700.1621	5693
702.599	5823
705.0332	5750
707.4688	5843
709.9036	5705
712.3399	5814
714.7735	5846
717.2044	5926
719.6367	5892
722.0683	5844
724.4993	5842
726.9296	5845
729.3593	5946
731.7883	6011
734.2147	6030
736.6423	5915
739.0714	5998
741.4958	6050
743.9216	6062
746.3447	6044
748.7691	6096
751.1929	6022
753.616	6104
756.0366	6179
758.4584	6317
760.8776	6069
763.2982	6242
765.718	6144
768.1373	6181
770.5539	6252
772.9698	6437
775.3871	6252
777.8038	6228
780.2178	6299
782.6332	6213
785.0459	6125
787.458	6170
789.8714	6168
792.2842	6213
794.6943	6104
797.1038	6315
799.5127	6271
801.9209	6199
804.3324	6158
806.7393	6287
809.1456	6239
811.5513	6372
813.9562	6280
816.3625	6271
818.7663	6352
821.1693	6213
823.5718	6299
825.9735	6316
828.3746	6232
830.7771	6240
833.177	6374
835.5762	6291
837.9747	6390
840.3727	6336
842.772	6420
845.1666	6367
847.5626	6416
849.958	6485
852.3527	6501
854.7488	6576
857.1403	6525
859.5331	6536
861.9253	6531
864.3168	6490
866.7057	6415
869.098	6468
871.4876	6479
873.8746	6452
876.263	6541
878.6487	6451
881.0378	6450
883.4243	6484
885.8081	6470
888.1933	6438
890.5759	6453
892.9598	6403
895.343	6512
897.7256	6477
900.1057	6520
902.4871	6603
904.8659	6535
907.246	6584
909.6254	6578
912.0023	6566
914.3786	6650
916.7562	6745
919.1331	6634
921.5074	6784
923.8831	6861
926.2562	6881
928.6287	6943
931.0005	6745
933.3757	6929
935.7462	6929
938.1162	6980
940.4855	7007
942.8542	7076
945.2242	7185
947.5916	7309
949.9584	7459
952.3266	7775
954.6921	7997
957.0571	8414
959.4233	8793
961.787	8946
964.15	9000
966.5125	8487
968.8742	8231
971.2354	7831
973.5959	7561
975.9559	7295
978.3151	7173
980.6738	6999
983.0338	6841
985.3912	6897
987.7461	6881
990.1022	6814
992.4578	6744
994.8127	6705
997.1689	6780
999.5207	6758
1001.874	6704
1004.226	6823
1006.576	6825
1008.929	6676
1011.28	6749
1013.628	6768
1015.977	6776
1018.324	6778
1020.674	6730
1023.019	6889
1025.366	6911
1027.713	6847
1030.056	6824
1032.399	6966
1034.746	6942
1037.087	6981
1039.431	6921
1041.771	6902
1044.113	6877
1046.454	7037
1048.793	7016
1051.133	6946
1053.471	6913
1055.807	6962
1058.146	6898
1060.483	7033
1062.818	7119
1065.153	7096
1067.489	6923
1069.822	7081
1072.156	7109
1074.488	7092
1076.82	7158
1079.15	7020
1081.48	6986
1083.814	6944
1086.143	7037
1088.471	6919
1090.799	6773
1093.126	6821
1095.452	6988
1097.78	6959
1100.105	6864
1102.43	6931
1104.754	6871
1107.077	6798
1109.4	6978
1111.722	6795
1114.044	6898
1116.365	6956
1118.685	6817
1121.005	6873
1123.324	6855
1125.643	6880
1127.961	6839
1130.278	6955
1132.595	6930
1134.911	6866
1137.226	6857
1139.541	6942
1141.854	6976
1144.167	6955
1146.482	6783
1148.793	6930
1151.105	6772
1153.414	6834
1155.725	6867
1158.033	6980
1160.344	6760
1162.651	6906
1164.959	6867
1167.265	6863
1169.572	6903
1171.878	6937
1174.184	7003
1176.488	6852
1178.79	7004
1181.094	6843
1183.396	7102
1185.699	6909
1188.001	6997
1190.301	6868
1192.6	6852
1194.9	6893
1197.2	6826
1199.497	6989
1201.794	6918
1204.09	6977
1206.387	6918
1208.684	6802
1210.978	7069
1213.272	6985
1215.565	6896
1217.858	6887
1220.15	7024
1222.443	6871
1224.734	6978
1227.024	6980
1229.313	7029
1231.602	6983
1233.892	7168
1236.18	7280
1238.467	7241
1240.754	7148
1243.04	7101
1245.325	7124
1247.612	7317
1249.896	7342
1252.178	7243
1254.461	7326
1256.743	7219
1259.027	7218
1261.308	7359
1263.587	7180
1265.867	7304
1268.146	7267
1270.425	7238
1272.703	7168
1274.981	7238
1277.256	7173
1279.532	7285
1281.808	7323
1284.083	7235
1286.358	7077
1288.63	7133
1290.904	7109
1293.175	7183
1295.449	7136
1297.719	7190
1299.99	7042
1302.259	7138
1304.529	7066
1306.798	7085
1309.065	7031
1311.333	6986
1313.599	7072
1315.866	7226
1318.131	7162
1320.396	7208
1322.66	7037
1324.925	7127
1327.187	7127
1329.448	7218
1331.711	7121
1333.974	7208
1336.234	7243
1338.493	7154
1340.752	7080
1343.01	7114
1345.269	7164
1347.526	7128
1349.784	7043
1352.04	7088
1354.295	7178
1356.552	7264
1358.806	7109
1361.059	6938
1363.312	6984
1365.564	7031
1367.818	7162
1370.069	7216
1372.318	7152
1374.568	7177
1376.817	7215
1379.066	7121
1381.316	7155
1383.564	7132
1385.809	7209
1388.056	7216
1390.301	7143
1392.549	7238
1394.793	7161
1397.036	7315
1399.279	7229
1401.522	7334
1403.763	7443
1406.007	7242
1408.248	7307
1410.487	7432
1412.727	7234
1414.965	7367
1417.205	7296
1419.442	7334
1421.68	7296
1423.915	7413
1426.152	7340
1428.388	7355
1430.623	7361
1432.857	7539
1435.091	7386
1437.323	7278
1439.556	7367
1441.789	7425
1444.019	7463
1446.25	7509
1448.48	7495
1450.708	7560
1452.938	7531
1455.167	7607
1457.394	7579
1459.62	7698
1461.846	7643
1464.073	7425
1466.299	7458
1468.523	7484
1470.746	7381
1472.969	7358
1475.191	7317
1477.415	7415
1479.636	7287
1481.858	7150
1484.078	7171
1486.298	7183
1488.518	7268
1490.736	7002
1492.954	7138
1495.169	7065
1497.386	6967
1499.602	7180
1501.819	7214
1504.034	7170
1506.248	7087
1508.462	7166
1510.675	6942
1512.888	7059
1515.1	7037
1517.311	7103
1519.522	7149
1521.732	7012
1523.942	7072
1526.151	7064
1528.36	7220
1530.566	7134
1532.773	7105
1534.98	7184
1537.187	7110
1539.392	7137
1541.596	7178
1543.801	7129
1546.005	7120
1548.208	7167
1550.411	7269
1552.612	7284
1554.814	7236
1557.013	7215
1559.212	7271
1561.414	7150
1563.612	7214
1565.811	7283
1568.007	7205
1570.203	7251
1572.403	7341
1574.598	7442
1576.792	7184
1578.988	7343
1581.181	7255
1583.376	7266
1585.568	7369
1587.761	7310
1589.952	7259
1592.143	7358
1594.333	7378
1596.524	7371
1598.715	7325
1600.903	7470
1603.091	7311
1605.278	7218
1607.466	7459
1609.652	7345
1611.838	7423
1614.023	7314
1616.207	7480
1618.391	7404
1620.576	7299
1622.759	7407
1624.941	7367
1627.123	7429
1629.304	7374
1631.484	7491
1633.664	7520
1635.844	7411
1638.022	7514
1640.201	7557
1642.38	7567
1644.556	7492
1646.732	7522
1648.908	7367
1651.084	7567
1653.257	7574
1655.433	7493
1657.607	7605
1659.779	7517
1661.951	7452
1664.122	7633
1666.295	7688
1668.467	7653
1670.635	7671
1672.805	7631
1674.973	7597
1677.142	7572
1679.31	7631
1681.478	7618
1683.644	7548
1685.81	7527
1687.975	7528
1690.142	7550
1692.305	7421
1694.468	7412
1696.632	7415
1698.794	7488
1700.957	7334
1703.119	7491
1705.279	7382
1707.439	7416
1709.598	7389
1711.758	7330
1713.917	7304
1716.075	7278
1718.231	7364
1720.388	7368
1722.543	7291
1724.702	7218
1726.856	7288
1729.01	7339
1731.164	7259
1733.317	7162
1735.471	7229
1737.623	7360
1739.774	7305
1741.925	7402
1744.075	7343
1746.225	7277
1748.376	7342
1750.524	7373
1752.672	7467
1754.82	7431
1756.965	7374
1759.113	7342
1761.259	7369
1763.405	7376
1765.549	7347
1767.694	7442
1769.836	7267
1771.981	7393
1774.123	7376
1776.264	7394
1778.405	7435
1780.546	7498
1782.687	7391
1784.827	7319
1786.966	7427
1789.103	7392
1791.242	7344
1793.381	7394
1795.517	7445
1797.653	7474
1799.788	7443
1801.923	7412
1804.057	7363
1806.193	7430
1808.326	7448
1810.457	7368
1812.59	7456
1814.721	7507
1816.855	7481
1818.984	7408
1821.113	7244
1823.244	7420
1825.372	7432
1827.499	7409
1829.63	7364
1831.756	7347
1833.882	7368
1836.007	7282
1838.132	7363
1840.26	7272
1842.384	7383
1844.507	7354
1846.63	7421
1848.752	7441
1850.875	7415
1852.996	7305
1855.118	7396
1857.238	7359
1859.358	7446
1861.477	7276
1863.597	7236
1865.715	7380
1867.832	7300
1869.948	7482
1872.064	7279
1874.181	7328
1876.297	7360
1878.411	7324
1880.526	7421
1882.639	7349
1884.752	7297
1886.865	7339
1888.977	7321
1891.089	7381
1893.2	7433
1895.308	7294
1897.42	7481
1899.53	7340
1901.639	7378
1903.745	7324
1905.853	7411
1907.962	7387
1910.067	7561
1912.174	7549
1914.278	7424
1916.383	7506
1918.486	7314
1920.592	7402
1922.694	7352
1924.797	7335
1926.898	7459
1929	7403
1931.102	7435
1933.203	7487
1935.301	7449
1937.401	7476
1939.499	7347
1941.598	7492
1943.697	7460
1945.793	7381
1947.888	7491
1949.985	7527
1952.08	7370
1954.176	7456
1956.269	7642
1958.364	7454
1960.457	7473
1962.549	7513
1964.642	7514
1966.733	7343
1968.823	7429
1970.913	7404
1973.005	7476
1975.093	7318
1977.184	7445
1979.271	7338
1981.359	7245
1983.446	7414
1985.532	7246
1987.619	7313
1989.705	7483
1991.789	7406
1993.874	7300
1995.956	7357
1998.041	7371
2000.123	7279
2002.206	7423
2004.287	7386
2006.368	7410
2008.449	7319
2010.529	7447
2012.609	7432
2014.688	7404
2016.766	7443
2018.843	7337
2020.922	7279
2022.999	7413
2025.074	7443
2027.15	7466
2029.225	7441
2031.299	7282
2033.375	7292
2035.447	7317
2037.52	7444
2039.592	7407
2041.664	7321
2043.736	7379
2045.807	7411
2047.876	7336
2049.947	7421
2052.015	7411
2054.086	7343
2056.153	7262
2058.221	7355
2060.288	7375
2062.353	7436
2064.42	7293
2066.486	7374
2068.55	7384
2070.614	7377
2072.678	7357
2074.741	7364
2076.805	7292
2078.866	7410
2080.929	7227
2082.99	7446
2085.049	7424
2087.109	7413
2089.17	7368
2091.228	7376
2093.286	7267
2095.344	7499
2097.4	7210
2099.46	7316
2101.516	7317
2103.572	7430
2105.626	7342
2107.679	7283
2109.735	7286
2111.788	7275
2113.841	7354
2115.894	7272
2117.945	7379
2119.997	7320
2122.049	7315
2124.1	7408
2126.148	7280
2128.197	7320
2130.246	7402
2132.296	7409
2134.342	7287
2136.39	7376
2138.437	7331
2140.483	7274
2142.527	7388
2144.574	7263
2146.619	7287
2148.661	7498
2150.705	7295
2152.747	7356
2154.792	7424
2156.832	7317
2158.874	7256
2160.915	7306
2162.954	7203
2164.995	7277
2167.034	7369
2169.072	7321
2171.111	7339
2173.148	7318
2175.186	7272
2177.223	7199
2179.258	7245
2181.294	7328
2183.328	7206
2185.362	7300
2187.398	7167
2189.431	7323
2191.463	7185
2193.495	7188
2195.528	7128
2197.56	7241
2199.59	7080
2201.62	7150
2203.649	7240
2205.678	7255
2207.708	7139
2209.737	7236
2211.764	7228
2213.791	7242
2215.817	7110
2217.843	7273
2219.87	7181
2221.895	7136
2223.919	7148
2225.942	7194
2227.966	7164
2229.988	7224
2232.012	7175
2234.032	7160
2236.054	6967
2238.074	7033
2240.095	7134
2242.116	7189
2244.135	7146
2246.153	7027
2248.171	7150
2250.188	7218
2252.208	7052
2254.223	7118
2256.239	7146
2258.255	7183
2260.269	7122
2262.283	7303
2264.3	7108
2266.312	7252
2268.325	7029
2270.336	7113
2272.349	7131
2274.362	7117
2276.372	7136
2278.383	7015
2280.392	7211
2282.402	7027
2284.409	7221
2286.418	7145
2288.427	7218
2290.433	7078
2292.441	7174
2294.446	7167
2296.453	7031
2298.459	7186
2300.463	7128
2302.466	7124
2304.471	7160
2306.475	7056
2308.477	7168
2310.478	6979
2312.481	7200
2314.481	7129
2316.481	7052
2318.482	7059
2320.482	7161
2322.48	7151
2324.48	7137
2326.478	7126
2328.476	7102
2330.473	7052
2332.469	7057
2334.465	6986
2336.46	7033
2338.454	7142
2340.45	7074
2342.444	7120
2344.437	7055
2346.43	7032
2348.421	6983
2350.414	7002
2352.405	6991
2354.396	7029
2356.386	6998
2358.376	7000
2360.366	7030
2362.355	7053
2364.343	7024
2366.331	7002
2368.317	6983
2370.304	6913
2372.292	6926
2374.278	6923
2376.262	7035
2378.247	6966
2380.23	6805
2382.216	6872
2384.199	7001
2386.181	6969
2388.163	6884
2390.144	6864
2392.127	6914
2394.107	6814
2396.087	6827
2398.066	6971
2400.046	7032
2402.023	6872
2404.004	6951
2405.981	6900
2407.957	6798
2409.934	6849
2411.91	6976
2413.886	6922
2415.862	6833
2417.836	6718
2419.809	6852
2421.784	6817
2423.756	7055
2425.73	6855
2427.701	6849
2429.672	6935
2431.644	6918
2433.615	6951
2435.586	6840
2437.555	6863
2439.523	6836
2441.491	6891
2443.459	6897
2445.428	6851
2447.395	6822
2449.361	6960
2451.327	6753
2453.292	6777
2455.257	6772
2457.223	6750
2459.187	6774
2461.15	6826
2463.113	6842
2465.076	6714
2467.039	6784
2468.999	6867
2470.96	6851
2472.921	6860
2474.881	6785
2476.841	6837
2478.8	6805
2480.759	6718
2482.717	6869
2484.675	6786
2486.63	6688
2488.589	6827
2490.545	6774
2492.5	6891
2494.455	6776
2496.408	6715
2498.364	6794
2500.318	6780
2502.27	6756
2504.223	6690
2506.174	6706
2508.126	6732
2510.078	6596
2512.03	6794
2513.979	6643
2515.927	6651
2517.877	6690
2519.826	6865
2521.775	6823
2523.722	6735
2525.668	6685
2527.616	6779
2529.561	6762
2531.508	6720
2533.452	6762
2535.398	6694
2537.342	6848
2539.284	6727
2541.229	6743
2543.173	6712
2545.114	6743
2547.055	6729
2548.996	6731
2550.938	6552
2552.878	6757
2554.817	6744
2556.756	6687
2558.695	6777
2560.633	6740
2562.572	6638
2564.509	6763
2566.445	6647
2568.382	6675
2570.317	6739
2572.254	6644
2574.189	6688
2576.123	6749
2578.057	6589
2579.99	6654
2581.923	6684
2583.855	6626
2585.788	6669
2587.719	6626
2589.65	6731
2591.579	6769
2593.511	6602
2595.44	6580
2597.37	6596
2599.297	6853
2601.225	6659
2603.153	6728
2605.08	6768
2607.007	6754
2608.932	6704
2610.858	6754
2612.782	6624
2614.709	6660
2616.632	6786
2618.556	6696
2620.478	6635
2622.401	6816
2624.324	6714
2626.247	6594
2628.167	6699
2630.088	6675
2632.008	6866
2633.928	6711
2635.848	6738
2637.766	6645
2639.684	6755
2641.603	6671
2643.519	6687
2645.437	6644
2647.353	6643
2649.27	6690
2651.184	6758
2653.099	6508
2655.014	6674
2656.928	6755
2658.842	6693
2660.755	6641
2662.667	6660
2664.579	6643
2666.491	6627
2668.402	6599
2670.312	6644
2672.222	6682
2674.132	6726
2676.042	6650
2677.951	6617
2679.859	6513
2681.766	6650
2683.674	6661
2685.582	6586
2687.488	6532
2689.392	6630
2691.298	6593
2693.202	6600
2695.107	6676
2697.012	6551
2698.914	6582
2700.817	6546
2702.72	6581
2704.622	6483
2706.524	6588
2708.425	6490
2710.326	6702
2712.225	6425
2714.125	6520
2716.024	6539
2717.923	6528
2719.822	6546
2721.719	6454
2723.616	6450
2725.512	6619
2727.41	6500
2729.305	6575
2731.201	6534
2733.095	6585
2734.99	6513
2736.884	6525
2738.778	6528
2740.67	6583
2742.562	6651
2744.455	6419
2746.346	6469
2748.238	6426
2750.129	6475
2752.018	6461
2753.907	6362
2755.797	6415
2757.687	6533
2759.575	6514
2761.462	6464
2763.349	6437
2765.237	6560
2767.124	6450
2769.009	6591
2770.894	6438
2772.779	6391
2774.663	6478
2776.547	6382
2778.431	6451
2780.314	6534
2782.197	6450
2784.078	6416
2785.96	6381
2787.842	6482
2789.723	6410
2791.603	6486
2793.483	6536
2795.362	6542
2797.241	6401
2799.121	6558
2800.997	6536
2802.874	6435
2804.751	6325
2806.628	6402
2808.506	6338
2810.38	6317
2812.255	6329
2814.13	6367
2816.003	6445
2817.878	6438
2819.752	6385
2821.623	6363
2823.496	6245
2825.368	6460
2827.238	6248
2829.111	6404
2830.98	6422
2832.851	6433
2834.719	6334
2836.589	6385
2838.458	6349
2840.327	6272
2842.193	6360
2844.061	6431
2845.927	6415
2847.794	6467
2849.66	6460
2851.525	6494
2853.39	6426
2855.254	6472
2857.117	6510
2858.983	6431
2860.845	6551
2862.707	6500
2864.569	6551
2866.431	6654
2868.293	6626
2870.154	6650
2872.013	6754
2873.873	6782
2875.733	6709
2877.592	6862
2879.451	6831
2881.309	7008
2883.166	6970
2885.022	7075
2886.879	7090
2888.736	7065
2890.591	6986
2892.446	6971
2894.301	7056
2896.155	7167
2898.009	7014
2899.863	6997
2901.716	6907
2903.568	6993
2905.419	7036
2907.27	7085
2909.123	7050
2910.973	6980
2912.824	7079
2914.673	7061
2916.521	7066
2918.372	7194
2920.22	7237
2922.067	7324
2923.914	7418
2925.761	7297
2927.607	7584
2929.455	7478
2931.301	7564
2933.144	7747
2934.99	7681
2936.833	7910
2938.678	7850
2940.522	7809
2942.364	8055
2944.207	7999
2946.048	8082
2947.891	8082
2949.731	8066
2951.571	7977
2953.412	8049
2955.25	7781
2957.09	7735
2958.93	7712
2960.767	7671
2962.606	7638
2964.443	7690
2966.279	7499
2968.116	7366
2969.953	7315
2971.788	7390
2973.623	7192
2975.457	7287
2977.292	7097
2979.127	7190
2980.959	7127
2982.792	7137
2984.624	7064
2986.455	7088
2988.288	7054
2990.119	6982
2991.949	7086
2993.779	6874
2995.608	6836
2997.439	6905
2999.268	6781
3001.096	6679
3002.923	6714
3004.751	6707
3006.578	6523
3008.406	6549
3010.232	6444
3012.057	6434
3013.883	6442
3015.706	6420
3017.532	6476
3019.356	6216
3021.179	6243
3023.002	6323
3024.823	6172
3026.646	6130
3028.469	6114
3030.289	6168
3032.11	6010
3033.93	6129
3035.749	6062
3037.57	5997
3039.39	6025
3041.207	5965
3043.026	6068
3044.842	6128
3046.661	6004
3048.477	6043
3050.294	6003
3052.109	6038
3053.925	6143
3055.739	5967
3057.555	6119
3059.368	6017
3061.181	6073
3062.995	6015
3064.807	5986
3066.62	5930
3068.433	6086
3070.243	6053
3072.054	6008
3073.865	6043
3075.675	5889
3077.485	5922
3079.293	5980
3081.102	6003
3082.911	5881
3084.719	5840
3086.527	5849
3088.333	5901
3090.139	5929
3091.945	5811
3093.75	5917
3095.557	5780
3097.361	5872
3099.165	5940
3100.969	5695
3102.772	5772
3104.575	5862
3106.379	5686
3108.181	5898
3109.982	5857
3111.783	5707
3113.584	5881
3115.386	5782
3117.186	5707
3118.985	5774
3120.783	5744
3122.582	5827
3124.381	5689
3126.179	5845
3127.975	5784
3129.772	5819
3131.569	5714
3133.365	5702
3135.161	5679
3136.956	5709
3138.751	5780
3140.544	5651
3142.338	5854
3144.132	5666
3145.925	5816
3147.717	5716
3149.509	5756
3151.301	5612
3153.091	5580
3154.884	5560
3156.673	5697
3158.462	5636
3160.252	5650
3162.041	5631
3163.831	5710
3165.618	5687
3167.405	5619
3169.193	5627
3170.979	5610
3172.767	5592
3174.553	5676
3176.338	5761
3178.123	5625
3179.907	5571
3181.692	5631
3183.477	5659
3185.259	5572
3187.042	5663
3188.824	5662
3190.607	5632
3192.389	5543
3194.17	5546
3195.951	5556
3197.73	5600
3199.51	5665
3201.289	5536
3203.07	5597
3204.848	5535
3206.626	5600
3208.403	5662
3210.18	5600
3211.959	5585
3213.735	5605
3215.511	5543
3217.285	5603
3219.06	5650
3220.836	5600
3222.611	5553
3224.384	5452
3226.158	5601
3227.929	5608
3229.702	5684
3231.476	5675
3233.248	5515
3235.018	5569
3236.789	5692
3238.56	5558
3240.33	5504
3242.1	5604
3243.869	5600
3245.637	5683
3247.405	5549
3249.172	5478
3250.941	5660
3252.707	5645
3254.474	5531
3256.24	5551
3258.006	5552
3259.772	5556
3261.537	5598
3263.301	5621
3265.065	5527
3266.828	5671
3268.592	5543
3270.355	5647
3272.117	5492
3273.878	5509
3275.64	5684
3277.401	5602
3279.162	5678
3280.922	5504
3282.682	5617
3284.441	5556
3286.199	5552
3287.959	5496
3289.716	5455
3291.475	5572
3293.232	5646
3294.988	5524
3296.744	5570
3298.501	5532
3300.256	5607
3302.011	5562
3303.766	5558
3305.52	5520
3307.275	5507
3309.028	5595
3310.781	5552
3312.533	5518
3314.285	5597
3316.038	5653
3317.789	5599
3319.54	5605
3321.289	5545
3323.039	5597
3324.789	5594
3326.539	5519
3328.288	5637
3330.035	5489
3331.783	5557
3333.531	5615
3335.28	5646
3337.025	5497
3338.771	5522
3340.518	5545
3342.262	5438
3344.009	5491
3345.753	5513
3347.497	5551
3349.24	5432
3350.983	5464
3352.726	5419
3354.469	5516
3356.212	5415
3357.952	5485
3359.694	5481
3361.434	5397
3363.176	5389
3364.916	5506
3366.654	5372
3368.394	5449
3370.132	5449
3371.871	5401
3373.61	5425
3375.346	5308
3377.083	5393
3378.82	5324
3380.556	5387
3382.292	5510
3384.027	5394
3385.763	5351
3387.497	5238
3389.231	5415
3390.965	5338
3392.698	5448
3394.431	5373
3396.164	5284
3397.896	5302
3399.627	5272
3401.36	5318
3403.09	5394
3404.82	5264
3406.55	5359
3408.279	5299
3410.01	5283
3411.738	5218
3413.467	5351
3415.194	5294
3416.92	5277
3418.647	5298
3420.375	5277
3422.102	5352
3423.827	5220
3425.553	5339
3427.277	5244
3429.003	5289
3430.727	5220
3432.451	5271
3434.173	5349
3435.896	5267
3437.62	5258
3439.343	5206
3441.063	5254
3442.785	5164
3444.505	5106
3446.226	5192
3447.948	5194
3449.666	5180
3451.386	5122
3453.104	5161
3454.823	5171
3456.541	5169
3458.259	5163
3459.976	5122
3461.693	5083
3463.408	5168
3465.125	5049
3466.841	5140
3468.556	5056
3470.271	5025
3471.985	5042
3473.698	5061
3475.414	5101
3477.126	5047
3478.838	5019
3480.55	5077
3482.263	4988
3483.975	5031
3485.686	5025
3487.396	5028
3489.106	5111
3490.817	4939
3492.526	4963
3494.236	4875
3495.944	4956
3497.652	4981
3499.359	4917
3501.066	4971
3502.775	4971
3504.481	4919
3506.187	4923
3507.893	4979
3509.598	4873
3511.304	5015
3513.009	4764
3514.713	4920
3516.417	4983
3518.12	4915
3519.821	4913
3521.525	4817
3523.228	4879
3524.929	4782
3526.631	4785
3528.33	4857
3530.032	4771
3531.733	4809
3533.433	4787
3535.131	4775
3536.83	4834
3538.529	4833
3540.227	4707
3541.925	4816
3543.623	4659
3545.319	4796
3547.016	4736
3548.712	4725
3550.408	4774
3552.103	4851
3553.798	4830
3555.491	4759
3557.188	4724
3558.88	4755
3560.574	4703
3562.266	4759
3563.959	4664
3565.651	4775
3567.343	4718
3569.035	4737
3570.725	4657
3572.415	4669
3574.106	4658
3575.797	4646
3577.485	4695
3579.174	4635
3580.863	4559
3582.551	4612
3584.238	4693
3585.926	4624
3587.613	4596
3589.3	4673
3590.986	4604
3592.671	4635
3594.357	4588
3596.042	4609
3597.726	4676
3599.41	4597
3601.094	4499
3602.778	4623
3604.461	4554
3606.143	4536
3607.825	4523
3609.507	4546
3611.188	4551
3612.87	4507
3614.551	4472
3616.229	4467
3617.909	4491
3619.589	4459
3621.269	4489
3622.948	4414
3624.625	4457
3626.302	4439
3627.98	4401
3629.657	4435
3631.334	4410
3633.01	4372
3634.686	4389
3636.361	4423
3638.036	4434
3639.712	4426
3641.385	4421
3643.06	4406
3644.732	4326
3646.405	4361
3648.08	4312
3649.751	4384
3651.424	4358
3653.094	4392
3654.766	4354
3656.436	4299
3658.106	4333
3659.777	4327
3661.446	4302
3663.115	4317
3664.783	4292
3666.452	4367
3668.121	4331
3669.788	4238
3671.454	4322
3673.121	4293
3674.789	4284
3676.455	4252
3678.12	4242
3679.784	4305
3681.45	4324
3683.114	4300
3684.779	4234
3686.442	4288
3688.105	4287
3689.768	4214
3691.43	4286
3693.093	4279
3694.754	4197
3696.415	4154
3698.076	4164
3699.736	4184
3701.396	4287
3703.057	4205
3704.716	4253
3706.375	4234
3708.034	4187
3709.692	4157
3711.351	4111
3713.008	4239
3714.665	4250
3716.321	4160
3717.977	4171
3719.634	4171
3721.29	4142
3722.945	4217
3724.598	4118
3726.253	4155
3727.907	4210
3729.561	4150
3731.214	4148
3732.867	4130
3734.518	4138
3736.171	4224
3737.824	4094
3739.474	4203
3741.125	4128
3742.775	4119
3744.425	4201
3746.074	4143
3747.725	4166
3749.373	4105
3751.022	3969
3752.669	4178
3754.318	4015
3755.966	4070
3757.612	4030
3759.259	4140
3760.905	4131
3762.55	4059
3764.197	4055
3765.842	4044
3767.486	4113
3769.131	3972
3770.774	4049
3772.417	3992
3774.061	4031
3775.705	3995
3777.347	4090
3778.988	4080
3780.629	3967
3782.271	3980
3783.912	3989
3785.552	4057
3787.192	4024
3788.831	4031
3790.472	3957
3792.112	3969
3793.75	3941
3795.388	4000
3797.024	3991
3798.661	4038
3800.3	3925
3801.936	4052
3803.572	3970
3805.208	3912
3806.844	3942
3808.48	3981
3810.115	3980
3811.748	3969
3813.382	4000
3815.016	3856
3816.649	3900
3818.283	3857
3819.914	3922
3821.547	3948
3823.178	3909
3824.809	3892
3826.441	3960
3828.072	3898
3829.701	3950
3831.331	3928
3832.96	3914
3834.591	3880
3836.219	3897
3837.847	3856
3839.475	3864
3841.102	3922
3842.729	3920
3844.357	3892
3845.984	3925
3847.609	3814
3849.234	3845
3850.86	3862
3852.485	3820
3854.11	3803
3855.734	3835
3857.357	3828
3858.981	3856
3860.603	3821
3862.227	3880
3863.848	3816
3865.471	3739
3867.092	3813
3868.713	3860
3870.334	3750
3871.954	3748
3873.575	3773
3875.194	3849
3876.813	3786
3878.433	3817
3880.051	3765
3881.669	3800
3883.286	3766
3884.904	3760
3886.52	3774
3888.138	3824
3889.754	3786
3891.37	3781
3892.985	3873
3894.6	3738
3896.216	3784
3897.831	3743
3899.444	3766
3901.058	3796
3902.67	3745
3904.283	3712
3905.897	3644
3907.509	3864
3909.121	3777
3910.731	3760
3912.342	3727
3913.954	3777
3915.563	3698
3917.174	3761
3918.783	3709
3920.391	3739
3922.002	3644
3923.611	3799
3925.218	3671
3926.826	3718
3928.432	3724
3930.039	3783
3931.647	3657
3933.253	3585
3934.859	3676
3936.464	3683
3938.068	3693
3939.675	3678
3941.278	3706
3942.883	3736
3944.486	3647
3946.089	3720
3947.692	3674
3949.295	3653
3950.898	3689
3952.499	3637
3954.1	3717
3955.7	3661
3957.303	3697
3958.903	3651
3960.502	3655
3962.101	3636
3963.7	3641
3965.301	3638
3966.899	3593
3968.497	3683
3970.094	3618
3971.691	3584
3973.288	3586
3974.885	3632
3976.481	3525
3978.077	3602
3979.672	3575
3981.267	3615
3982.863	3550
3984.457	3602
3986.051	3558
3987.645	3514
3989.238	3524
3990.831	3444
3992.425	3567
3994.017	3515
3995.607	3530
3997.199	3569
3998.79	3465
4000.382	3561
4001.973	3521
4003.561	3476
4005.151	3479
4006.741	3470
4008.331	3492
4009.918	3490
4011.507	3475
4013.095	3478
4014.681	3419
4016.269	3499
4017.856	3443
4019.443	3522
4021.028	3502
4022.614	3398
4024.199	3374
4025.785	3436
4027.37	3445
4028.953	3422
4030.536	3434
4032.12	3422
4033.704	3431
4035.287	3404
4036.869	3486
4038.45	3399
4040.032	3424
4041.613	3359
4043.195	3365
4044.776	3438
4046.356	3364
4047.935	3359
4049.515	3355
4051.095	3314
4052.674	3470
4054.251	3379
4055.829	3389
4057.406	3341
4058.985	3321
4060.562	3299
4062.139	3331
4063.715	3355
4065.29	3297
4066.865	3361
4068.442	3250
4070.016	3390
4071.59	3327
4073.164	3433
4074.738	3328
4076.312	3339
4077.885	3300
4079.458	3363
4081.03	3342
4082.602	3308
4084.173	3336
4085.745	3313
4087.315	3282
4088.886	3324
4090.456	3289
4092.026	3295
4093.596	3263
4095.165	3263
4096.734	3274
4098.301	3327
4099.869	3281
4101.437	3336
4103.006	3236
4104.572	3235
4106.139	3335
4107.704	3306
4109.27	3207
4110.837	3208
4112.401	3289
4113.966	3285
4115.53	3215
4117.094	3217
4118.659	3308
4120.223	3192
4121.785	3264
4123.347	3274
4124.909	3265
4126.471	3202
4128.034	3188
4129.595	3230
4131.155	3206
4132.716	3196
4134.275	3171
4135.836	3179
4137.395	3239
4138.955	3157
4140.513	3196
4142.071	3139
4143.628	3198
4145.188	3151
4146.745	3103
4148.302	3248
4149.858	3044
4151.414	3089
4152.971	3148
4154.526	3148
4156.081	3074
4157.635	3157
4159.189	3130
4160.745	3128
4162.298	3097
4163.852	3097
4165.405	3130
4166.957	3141
4168.51	3133
4170.063	3079
4171.614	3105
4173.166	3176
4174.717	3117
4176.267	3071
4177.817	3108
4179.368	3087
4180.917	3131
4182.466	3108
4184.016	3087
4185.564	3041
4187.112	3094
4188.66	3085
4190.207	3100
4191.754	3056
4193.301	3009
4194.848	3068
4196.394	3084
4197.94	2990
4199.484	3048
4201.03	3067
4202.575	3026
4204.12	3022
4205.663	3012
4207.207	3010
4208.75	3036
4210.292	2992
4211.836	3030
4213.378	3027
4214.92	3031
4216.46	3058
4218.002	2940
4219.544	3036
4221.083	3030
4222.625	3040
4224.164	2982
4225.703	3017
4227.244	2989
4228.782	3005
4230.32	2950
4231.857	2939
4233.395	2918
4234.933	2971
4236.471	3002
4238.007	2978
4239.542	3008
4241.078	2925
4242.614	2907
4244.15	2957
4245.685	2930
4247.219	2945
4248.753	2995
4250.287	2943
4251.82	3011
4253.354	2970
4254.887	2985
4256.419	3005
4257.951	2876
4259.483	2959
4261.016	2908
4262.547	2943
4264.078	2890
4265.608	3032
4267.137	2941
4268.668	2875
4270.197	2887
4271.727	2922
4273.254	2850
4274.783	2885
4276.311	2893
4277.84	2917
4279.366	2907
4280.894	2893
4282.42	2860
4283.946	2911
4285.473	2869
4286.998	2874
4288.523	2850
4290.047	2806
4291.572	2839
4293.096	2833
4294.622	2879
4296.144	2846
4297.668	2815
4299.19	2851
4300.713	2967
4302.236	2805
4303.758	2884
4305.279	2853
4306.799	2823
4308.321	2812
4309.842	2863
4311.361	2891
4312.882	2811
4314.401	2817
