400.0961	5906
402.6185	5821
405.1424	5808
407.6635	5848
410.1838	5979
412.7035	6065
415.2225	5846
417.7388	6058
420.2585	6059
422.7754	6041
425.2917	6045
427.8072	6193
430.3221	6169
432.8363	6244
435.3498	6212
437.8626	6264
440.3727	6341
442.8841	6298
445.3969	6318
447.907	6231
450.4142	6380
452.9229	6373
455.4289	6229
457.9362	6326
460.4449	6309
462.9488	6300
465.454	6211
467.9566	6327
470.4604	6302
472.9637	6206
475.4662	6230
477.966	6331
480.4671	6345
482.9656	6362
485.4633	6352
487.9645	6294
490.4608	6317
492.9566	6324
495.4536	6367
497.948	6377
500.4437	6337
502.9387	6467
505.431	6500
507.9226	6526
510.4136	6593
512.9079	6386
515.3975	6542
517.8864	6448
520.3746	6642
522.8622	6388
525.3491	6491
527.8394	6569
530.3249	6550
532.8098	6518
535.2939	6506
537.7774	6458
540.2623	6610
542.7444	6519
545.2259	6521
547.7067	6588
550.1868	6621
552.6683	6562
555.147	6571
557.6231	6575
560.1005	6651
562.5773	6672
565.0534	6688
567.5308	6597
570.0056	6829
572.4776	6721
574.951	6687
577.4237	6930
579.8978	6997
582.3671	6914
584.8378	6989
587.3079	6857
589.7773	6959
592.244	6955
594.714	6756
597.1793	6862
599.6461	6947
602.1121	6761
604.5754	6818
607.0421	6776
609.5042	6835
611.9675	6800
614.4282	6900
616.8902	6830
619.3515	6798
621.8122	6832
624.2702	6888
626.7296	6735
629.1863	6704
631.6423	6840
634.1017	6729
636.5563	6773
639.0104	6884
641.4658	6879
643.9185	6757
646.3725	6781
648.8239	6782
651.2766	6729
653.7266	6727
656.176	6958
658.6247	6927
661.0748	6863
663.5242	6948
665.9709	6888
668.417	6932
670.8624	6953
673.3092	7020
675.7533	7019
678.1968	6879
680.6395	6985
683.0817	7052
685.5251	7128
687.9659	7024
690.4061	7060
692.8456	7007
695.2844	7005
697.7226	7083
700.1621	7129
702.599	7089
705.0332	7068
707.4688	7172
709.9036	7126
712.3399	7144
714.7735	7116
717.2044	7080
719.6367	7126
722.0683	7112
724.4993	7258
726.9296	7311
729.3593	7348
731.7883	7390
734.2147	7285
736.6423	7370
739.0714	7357
741.4958	7361
743.9216	7407
746.3447	7380
748.7691	7464
751.1929	7358
753.616	7610
756.0366	7510
758.4584	7550
760.8776	7434
763.2982	7471
765.718	7561
768.1373	7626
770.5539	7509
772.9698	7658
775.3871	7617
777.8038	7467
780.2178	7578
782.6332	7569
785.0459	7604
787.458	7643
789.8714	7479
792.2842	7550
794.6943	7574
797.1038	7677
799.5127	7694
801.9209	7561
804.3324	7696
806.7393	7738
809.1456	7631
811.5513	7689
813.9562	7734
816.3625	7754
818.7663	7704
821.1693	7595
823.5718	7668
825.9735	7712
828.3746	7582
830.7771	7705
833.177	7710
835.5762	7649
837.9747	7789
840.3727	7796
842.772	7756
845.1666	7815
847.5626	7784
849.958	7881
852.3527	7761
854.7488	7962
857.1403	7924
859.5331	7878
861.9253	7894
864.3168	7986
866.7057	7864
869.098	7832
871.4876	7855
873.8746	7674
876.263	7880
878.6487	7763
881.0378	7845
883.4243	7816
885.8081	7866
888.1933	7828
890.5759	7768
892.9598	7774
895.343	7939
897.7256	7913
900.1057	7916
902.4871	7802
904.8659	7835
907.246	7975
909.6254	7958
912.0023	7950
914.3786	8012
916.7562	7962
919.1331	8048
921.5074	8154
923.8831	8212
926.2562	8235
928.6287	8248
931.0005	8250
933.3757	8147
935.7462	8331
938.1162	8285
940.4855	8476
942.8542	8359
945.2242	8522
947.5916	8903
949.9584	9088
952.3266	9238
954.6921	9609
957.0571	9975
959.4233	10303
961.787	10343
964.15	10249
966.5125	10045
968.8742	9730
971.2354	9268
973.5959	8876
975.9559	8611
978.3151	8507
980.6738	8344
983.0338	8158
985.3912	8116
987.7461	8289
990.1022	8071
992.4578	8109
994.8127	8187
997.1689	8237
999.5207	8178
1001.874	8354
1004.226	8206
1006.576	8205
1008.929	8209
1011.28	8313
1013.628	8103
1015.977	8162
1018.324	8247
1020.674	8253
1023.019	8247
1025.366	8285
1027.713	8195
1030.056	8226
1032.399	8279
1034.746	8468
1037.087	8237
1039.431	8311
1041.771	8331
1044.113	8328
1046.454	8412
1048.793	8379
1051.133	8249
1053.471	8380
1055.807	8387
1058.146	8345
1060.483	8418
1062.818	8408
1065.153	8468
1067.489	8489
1069.822	8606
1072.156	8503
1074.488	8570
1076.82	8623
1079.15	8590
1081.48	8482
1083.814	8368
1086.143	8362
1088.471	8390
1090.799	8385
1093.126	8395
1095.452	8429
1097.78	8318
1100.105	8367
1102.43	8266
1104.754	8367
1107.077	8280
1109.4	8487
1111.722	8369
1114.044	8340
1116.365	8356
1118.685	8485
1121.005	8444
1123.324	8442
1125.643	8382
1127.961	8458
1130.278	8309
1132.595	8342
1134.911	8338
1137.226	8350
1139.541	8333
1141.854	8405
1144.167	8272
1146.482	8348
1148.793	8310
1151.105	8393
1153.414	8279
1155.725	8415
1158.033	8342
1160.344	8364
1162.651	8497
1164.959	8478
1167.265	8435
1169.572	8291
1171.878	8431
1174.184	8502
1176.488	8414
1178.79	8469
1181.094	8373
1183.396	8357
1185.699	8402
1188.001	8406
1190.301	8591
1192.6	8399
1194.9	8391
1197.2	8394
1199.497	8428
1201.794	8360
1204.09	8424
1206.387	8350
1208.684	8435
1210.978	8344
1213.272	8462
1215.565	8482
1217.858	8341
1220.15	8422
1222.443	8512
1224.734	8624
1227.024	8568
1229.313	8470
1231.602	8659
1233.892	8677
1236.18	8714
1238.467	8682
1240.754	8699
1243.04	8771
1245.325	8757
1247.612	8835
1249.896	8704
1252.178	8734
1254.461	8707
1256.743	8733
1259.027	8857
1261.308	8718
1263.587	8851
1265.867	8718
1268.146	8614
1270.425	8741
1272.703	8628
1274.981	8781
1277.256	8754
1279.532	8632
1281.808	8713
1284.083	8679
1286.358	8718
1288.63	8719
1290.904	8660
1293.175	8635
1295.449	8625
1297.719	8531
1299.99	8566
1302.259	8756
1304.529	8625
1306.798	8659
1309.065	8655
1311.333	8676
1313.599	8655
1315.866	8670
1318.131	8618
1320.396	8608
1322.66	8712
1324.925	8756
1327.187	8590
1329.448	8551
1331.711	8812
1333.974	8636
1336.234	8633
1338.493	8729
1340.752	8816
1343.01	8562
1345.269	8568
1347.526	8616
1349.784	8755
1352.04	8610
1354.295	8684
1356.552	8620
1358.806	8750
1361.059	8658
1363.312	8562
1365.564	8679
1367.818	8559
1370.069	8741
1372.318	8598
1374.568	8693
1376.817	8695
1379.066	8698
1381.316	8704
1383.564	8656
1385.809	8775
1388.056	8676
1390.301	8775
1392.549	8716
1394.793	8775
1397.036	8856
1399.279	8788
1401.522	8912
1403.763	8908
1406.007	8889
1408.248	8833
1410.487	8808
1412.727	8968
1414.965	8798
1417.205	8885
1419.442	8867
1421.68	9010
1423.915	8838
1426.152	8950
1428.388	8954
1430.623	8973
1432.857	9004
1435.091	8908
1437.323	9059
1439.556	8962
1441.789	8991
1444.019	9004
1446.25	9081
1448.48	8947
1450.708	9095
1452.938	9130
1455.167	9061
1457.394	9183
1459.62	9124
1461.846	8932
1464.073	9019
1466.299	9059
1468.523	9009
1470.746	8976
1472.969	8886
1475.191	8804
1477.415	8886
1479.636	8808
1481.858	8846
1484.078	8783
1486.298	8624
1488.518	8702
1490.736	8811
1492.954	8600
1495.169	8716
1497.386	8667
1499.602	8705
1501.819	8634
1504.034	8596
1506.248	8714
1508.462	8593
1510.675	8653
1512.888	8552
1515.1	8617
1517.311	8740
1519.522	8664
1521.732	8595
1523.942	8589
1526.151	8648
1528.36	8643
1530.566	8688
1532.773	8656
1534.98	8638
1537.187	8652
1539.392	8848
1541.596	8655
1543.801	8643
1546.005	8770
1548.208	8565
1550.411	8718
1552.612	8771
1554.814	8793
1557.013	8707
1559.212	8803
1561.414	8759
1563.612	8812
1565.811	8807
1568.007	8765
1570.203	8827
1572.403	8899
1574.598	8839
1576.792	8719
1578.988	8874
1581.181	8843
1583.376	8822
1585.568	8924
1587.761	8969
1589.952	8866
1592.143	8911
1594.333	8840
1596.524	8953
1598.715	9057
1600.903	8877
1603.091	9014
1605.278	9016
1607.466	8977
1609.652	8934
1611.838	8889
1614.023	9098
1616.207	9104
1618.391	8935
1620.576	8980
1622.759	8952
1624.941	8931
1627.123	9013
1629.304	9103
1631.484	8880
1633.664	9039
1635.844	9074
1638.022	8990
1640.201	9039
1642.38	9019
1644.556	8998
1646.732	9062
1648.908	9136
1651.084	8981
1653.257	9067
1655.433	9108
1657.607	9098
1659.779	9031
1661.951	9136
1664.122	9179
1666.295	9179
1668.467	9033
1670.635	9160
1672.805	9135
1674.973	8985
1677.142	9112
1679.31	9152
1681.478	8965
1683.644	9056
1685.81	9098
1687.975	9045
1690.142	9124
1692.305	9000
1694.468	8959
1696.632	9109
1698.794	8965
1700.957	8880
1703.119	9045
1705.279	8957
1707.439	8953
1709.598	8866
1711.758	8983
1713.917	9089
1716.075	9042
1718.231	8864
1720.388	8993
1722.543	8716
1724.702	8878
1726.856	8862
1729.01	8948
1731.164	8978
1733.317	8922
1735.471	8984
1737.623	8795
1739.774	8851
1741.925	8935
1744.075	8876
1746.225	8985
1748.376	8908
1750.524	8966
1752.672	8906
1754.82	9144
1756.965	8918
1759.113	8994
1761.259	8912
1763.405	8968
1765.549	8929
1767.694	8954
1769.836	9009
1771.981	9007
1774.123	8832
1776.264	9054
1778.405	9046
1780.546	9086
1782.687	8929
1784.827	9090
1786.966	9015
1789.103	9067
1791.242	8985
1793.381	9110
1795.517	9118
1797.653	9052
1799.788	9007
1801.923	9043
1804.057	8981
1806.193	9002
1808.326	9013
1810.457	8927
1812.59	9065
1814.721	9032
1816.855	8948
1818.984	9071
1821.113	8980
1823.244	8938
1825.372	8991
1827.499	8928
1829.63	8917
1831.756	9029
1833.882	8819
1836.007	9090
1838.132	8970
1840.26	9043
1842.384	8819
1844.507	8972
1846.63	8911
1848.752	8867
1850.875	8939
1852.996	8864
1855.118	8982
1857.238	8831
1859.358	8970
1861.477	9005
1863.597	8857
1865.715	9027
1867.832	9038
1869.948	8862
1872.064	8824
1874.181	8993
1876.297	8870
1878.411	9091
1880.526	8896
1882.639	8978
1884.752	8908
1886.865	9022
1888.977	8986
1891.089	8922
1893.2	8887
1895.308	8979
1897.42	8956
1899.53	8905
1901.639	8899
1903.745	8947
1905.853	8996
1907.962	9078
1910.067	8952
1912.174	9022
1914.278	9027
1916.383	9024
1918.486	9009
1920.592	9014
1922.694	8924
1924.797	9077
1926.898	8946
1929	9031
1931.102	9086
1933.203	9140
1935.301	9078
1937.401	9164
1939.499	9058
1941.598	8943
1943.697	9109
1945.793	9133
1947.888	9023
1949.985	9067
1952.08	9007
1954.176	9160
1956.269	9114
1958.364	9104
1960.457	9041
1962.549	9106
1964.642	8972
1966.733	8962
1968.823	9112
1970.913	8804
1973.005	9017
1975.093	9002
1977.184	8961
1979.271	8920
1981.359	8941
1983.446	9081
1985.532	8981
1987.619	9088
1989.705	8922
1991.789	8887
1993.874	9003
1995.956	8861
1998.041	8998
2000.123	8894
2002.206	8945
2004.287	8952
2006.368	8854
2008.449	8841
2010.529	8939
2012.609	9031
2014.688	8843
2016.766	8887
2018.843	8905
2020.922	8933
2022.999	8883
2025.074	8908
2027.15	8958
2029.225	8931
2031.299	8940
2033.375	8962
2035.447	8911
2037.52	8798
2039.592	9033
2041.664	8966
2043.736	8898
2045.807	8935
2047.876	8911
2049.947	8853
2052.015	8959
2054.086	8866
2056.153	8936
2058.221	9108
2060.288	8850
2062.353	8856
2064.42	8974
2066.486	8807
2068.55	8971
2070.614	8911
2072.678	8842
2074.741	8888
2076.805	8848
2078.866	9083
2080.929	8946
2082.99	8977
2085.049	8847
2087.109	8962
2089.17	8922
2091.228	8821
2093.286	9033
2095.344	8946
2097.4	9058
2099.46	9072
2101.516	8805
2103.572	9082
2105.626	8885
2107.679	8861
2109.735	8977
2111.788	8796
2113.841	8942
2115.894	8942
2117.945	9104
2119.997	8856
2122.049	8918
2124.1	8818
2126.148	9001
2128.197	8935
2130.246	8842
2132.296	8960
2134.342	8822
2136.39	8857
2138.437	8909
2140.483	8890
2142.527	8803
2144.574	8853
2146.619	8849
2148.661	8864
2150.705	8881
2152.747	8931
2154.792	8834
2156.832	8890
2158.874	8878
2160.915	8789
2162.954	8747
2164.995	8786
2167.034	8775
2169.072	8730
2171.111	8884
2173.148	8687
2175.186	8743
2177.223	8699
2179.258	8755
2181.294	8860
2183.328	8803
2185.362	8643
2187.398	8655
2189.431	8771
2191.463	8771
2193.495	8858
2195.528	8743
2197.56	8568
2199.59	8674
2201.62	8639
2203.649	8672
2205.678	8714
2207.708	8646
2209.737	8609
2211.764	8607
2213.791	8618
2215.817	8556
2217.843	8627
2219.87	8778
2221.895	8717
2223.919	8479
2225.942	8610
2227.966	8610
2229.988	8565
2232.012	8472
2234.032	8667
2236.054	8630
2238.074	8707
2240.095	8673
2242.116	8588
2244.135	8558
2246.153	8530
2248.171	8583
2250.188	8590
2252.208	8598
2254.223	8560
2256.239	8704
2258.255	8669
2260.269	8664
2262.283	8708
2264.3	8477
2266.312	8522
2268.325	8666
2270.336	8546
2272.349	8646
2274.362	8668
2276.372	8648
2278.383	8568
2280.392	8608
2282.402	8644
2284.409	8679
2286.418	8629
2288.427	8674
2290.433	8569
2292.441	8664
2294.446	8636
2296.453	8467
2298.459	8637
2300.463	8538
2302.466	8624
2304.471	8572
2306.475	8637
2308.477	8640
2310.478	8526
2312.481	8519
2314.481	8525
2316.481	8484
2318.482	8436
2320.482	8418
2322.48	8471
2324.48	8566
2326.478	8513
2328.476	8501
2330.473	8553
2332.469	8507
2334.465	8443
2336.46	8527
2338.454	8545
2340.45	8521
2342.444	8451
2344.437	8516
2346.43	8442
2348.421	8339
2350.414	8332
2352.405	8455
2354.396	8421
2356.386	8432
2358.376	8340
2360.366	8404
2362.355	8558
2364.343	8386
2366.331	8369
2368.317	8497
2370.304	8271
2372.292	8466
2374.278	8344
2376.262	8460
2378.247	8357
2380.23	8355
2382.216	8533
2384.199	8352
2386.181	8319
2388.163	8394
2390.144	8334
2392.127	8426
2394.107	8339
2396.087	8381
2398.066	8203
2400.046	8308
2402.023	8209
2404.004	8336
2405.981	8194
2407.957	8345
2409.934	8206
2411.91	8304
2413.886	8246
2415.862	8266
2417.836	8166
2419.809	8235
2421.784	8249
2423.756	8218
2425.73	8177
2427.701	8246
2429.672	8267
2431.644	8273
2433.615	8288
2435.586	8248
2437.555	8254
2439.523	8263
2441.491	8184
2443.459	8297
2445.428	8253
2447.395	7960
2449.361	8216
2451.327	8269
2453.292	8251
2455.257	8215
2457.223	8225
2459.187	8261
2461.15	8193
2463.113	8300
2465.076	8143
2467.039	8103
2468.999	8137
2470.96	8159
2472.921	8178
2474.881	8167
2476.841	8158
2478.8	8175
2480.759	8153
2482.717	8043
2484.675	8211
2486.63	8010
2488.589	8064
2490.545	8173
2492.5	8094
2494.455	8099
2496.408	8184
2498.364	8050
2500.318	8093
2502.27	8008
2504.223	8091
2506.174	8164
2508.126	8078
2510.078	7970
2512.03	8100
2513.979	8087
2515.927	7902
2517.877	7871
2519.826	8174
2521.775	8066
2523.722	8052
2525.668	8140
2527.616	8129
2529.561	7923
2531.508	8006
2533.452	8032
2535.398	7965
2537.342	7992
2539.284	8099
2541.229	8055
2543.173	8079
2545.114	8016
2547.055	8078
2548.996	7991
2550.938	7948
2552.878	7928
2554.817	7957
2556.756	8005
2558.695	7950
2560.633	7954
2562.572	7955
2564.509	7957
2566.445	7998
2568.382	8011
2570.317	8092
2572.254	7901
2574.189	8033
2576.123	7891
2578.057	7952
2579.99	7962
2581.923	7962
2583.855	8014
2585.788	7898
2587.719	8011
2589.65	8053
2591.579	8071
2593.511	8018
2595.44	8078
2597.37	8017
2599.297	8060
2601.225	8023
2603.153	8038
2605.08	8027
2607.007	7898
2608.932	7972
2610.858	8144
2612.782	7973
2614.709	8075
2616.632	8004
2618.556	8018
2620.478	8119
2622.401	8021
2624.324	8097
2626.247	7841
2628.167	7946
2630.088	8015
2632.008	7957
2633.928	8056
2635.848	8086
2637.766	7943
2639.684	8138
2641.603	7900
2643.519	8031
2645.437	8011
2647.353	8045
2649.27	7957
2651.184	8016
2653.099	7922
2655.014	7862
2656.928	8079
2658.842	7969
2660.755	7836
2662.667	8006
2664.579	7822
2666.491	7920
2668.402	7935
2670.312	7772
2672.222	7932
2674.132	8011
2676.042	7886
2677.951	7966
2679.859	8009
2681.766	8009
2683.674	7938
2685.582	7904
2687.488	7939
2689.392	7949
2691.298	7790
2693.202	7860
2695.107	7920
2697.012	7849
2698.914	7910
2700.817	7837
2702.72	7943
2704.622	7771
2706.524	7832
2708.425	7733
2710.326	7817
2712.225	7800
2714.125	7729
2716.024	7857
2717.923	7716
2719.822	7939
2721.719	7745
2723.616	7685
2725.512	7776
2727.41	7755
2729.305	7790
2731.201	7708
2733.095	7802
2734.99	7746
2736.884	7753
2738.778	7831
2740.67	7790
2742.562	7742
2744.455	7820
2746.346	7798
2748.238	7687
2750.129	7778
2752.018	7895
2753.907	7719
2755.797	7684
2757.687	7818
2759.575	7636
2761.462	7749
2763.349	7690
2765.237	7724
2767.124	7683
2769.009	7675
2770.894	7605
2772.779	7597
2774.663	7728
2776.547	7631
2778.431	7694
2780.314	7672
2782.197	7645
2784.078	7686
2785.96	7604
2787.842	7654
2789.723	7687
2791.603	7711
2793.483	7599
2795.362	7707
2797.241	7677
2799.121	7711
2800.997	7671
2802.874	7760
2804.751	7790
2806.628	7702
2808.506	7715
2810.38	7645
2812.255	7729
2814.13	7653
2816.003	7665
2817.878	7661
2819.752	7633
2821.623	7512
2823.496	7535
2825.368	7679
2827.238	7538
2829.111	7617
2830.98	7597
2832.851	7627
2834.719	7612
2836.589	7436
2838.458	7560
2840.327	7626
2842.193	7584
2844.061	7597
2845.927	7668
2847.794	7690
2849.66	7714
2851.525	7598
2853.39	7673
2855.254	7806
2857.117	7662
2858.983	7717
2860.845	7771
2862.707	7594
2864.569	7792
2866.431	7739
2868.293	7733
2870.154	7832
2872.013	8009
2873.873	7873
2875.733	8087
2877.592	8054
2879.451	8013
2881.309	8194
2883.166	8205
2885.022	8215
2886.879	8278
2888.736	8247
2890.591	8284
2892.446	8264
2894.301	8198
2896.155	8266
2898.009	8094
2899.863	8296
2901.716	8294
2903.568	8231
2905.419	8081
2907.27	8208
2909.123	8277
2910.973	8244
2912.824	8297
2914.673	8276
2916.521	8349
2918.372	8463
2920.22	8523
2922.067	8427
2923.914	8614
2925.761	8637
2927.607	8742
2929.455	8736
2931.301	8887
2933.144	8867
2934.99	8901
2936.833	9006
2938.678	8976
2940.522	9037
2942.364	9220
2944.207	9252
2946.048	9211
2947.891	9333
2949.731	9237
2951.571	9198
2953.412	9111
2955.25	8904
2957.09	8900
2958.93	8986
2960.767	8888
2962.606	8745
2964.443	8707
2966.279	8617
2968.116	8587
2969.953	8680
2971.788	8572
2973.623	8425
2975.457	8286
2977.292	8440
2979.127	8236
2980.959	8392
2982.792	8224
2984.624	8294
2986.455	8396
2988.288	8183
2990.119	8098
2991.949	8124
2993.779	7960
2995.608	8092
2997.439	7963
2999.268	7974
3001.096	7963
3002.923	7919
3004.751	7750
3006.578	7849
3008.406	7589
3010.232	7586
3012.057	7538
3013.883	7493
3015.706	7517
3017.532	7353
3019.356	7364
3021.179	7497
3023.002	7414
3024.823	7401
3026.646	7336
3028.469	7316
3030.289	7171
3032.11	7308
3033.93	7268
3035.749	7161
3037.57	7210
3039.39	7184
3041.207	7141
3043.026	7153
3044.842	7292
3046.661	7190
3048.477	7095
3050.294	7152
3052.109	7275
3053.925	7104
3055.739	7227
3057.555	7210
3059.368	7250
3061.181	7257
3062.995	7143
3064.807	7149
3066.62	7014
3068.433	7234
3070.243	7090
3072.054	7129
3073.865	7202
3075.675	7161
3077.485	7063
3079.293	7029
3081.102	7094
3082.911	7177
3084.719	6999
3086.527	7030
3088.333	7030
3090.139	7134
3091.945	6957
3093.75	6968
3095.557	6922
3097.361	7015
3099.165	6955
3100.969	7132
3102.772	6926
3104.575	7017
3106.379	6973
3108.181	6979
3109.982	6854
3111.783	6819
3113.584	6849
3115.386	6753
3117.186	6778
3118.985	6825
3120.783	6774
3122.582	6881
3124.381	6871
3126.179	6775
3127.975	6886
3129.772	6918
3131.569	6864
3133.365	6858
3135.161	6675
3136.956	6836
3138.751	6821
3140.544	6697
3142.338	6784
3144.132	6735
3145.925	6779
3147.717	6625
3149.509	6739
3151.301	6783
3153.091	6564
3154.884	6653
3156.673	6764
3158.462	6680
3160.252	6732
3162.041	6724
3163.831	6807
3165.618	6730
3167.405	6759
3169.193	6747
3170.979	6735
3172.767	6695
3174.553	6788
3176.338	6771
3178.123	6635
3179.907	6651
3181.692	6643
3183.477	6612
3185.259	6579
3187.042	6652
3188.824	6661
3190.607	6637
3192.389	6603
3194.17	6546
3195.951	6566
3197.73	6635
3199.51	6611
3201.289	6583
3203.07	6733
3204.848	6702
3206.626	6545
3208.403	6636
3210.18	6520
3211.959	6622
3213.735	6617
3215.511	6676
3217.285	6607
3219.06	6663
3220.836	6590
3222.611	6657
3224.384	6614
3226.158	6676
3227.929	6663
3229.702	6573
3231.476	6626
3233.248	6537
3235.018	6624
3236.789	6480
3238.56	6542
3240.33	6455
3242.1	6635
3243.869	6608
3245.637	6533
3247.405	6557
3249.172	6611
3250.941	6460
3252.707	6478
3254.474	6560
3256.24	6471
3258.006	6588
3259.772	6520
3261.537	6539
3263.301	6651
3265.065	6711
3266.828	6554
3268.592	6575
3270.355	6540
3272.117	6537
3273.878	6562
3275.64	6540
3277.401	6523
3279.162	6596
3280.922	6546
3282.682	6553
3284.441	6623
3286.199	6533
3287.959	6524
3289.716	6417
3291.475	6564
3293.232	6512
3294.988	6528
3296.744	6564
3298.501	6610
3300.256	6462
3302.011	6511
3303.766	6447
3305.52	6590
3307.275	6449
3309.028	6420
3310.781	6524
3312.533	6583
3314.285	6571
3316.038	6477
3317.789	6520
3319.54	6460
3321.289	6542
3323.039	6530
3324.789	6661
3326.539	6556
3328.288	6544
3330.035	6484
3331.783	6586
3333.531	6445
3335.28	6474
3337.025	6421
3338.771	6567
3340.518	6425
3342.262	6568
3344.009	6555
3345.753	6440
3347.497	6447
3349.24	6473
3350.983	6482
3352.726	6425
3354.469	6392
3356.212	6283
3357.952	6458
3359.694	6333
3361.434	6391
3363.176	6318
3364.916	6397
3366.654	6276
3368.394	6227
3370.132	6369
3371.871	6334
3373.61	6375
3375.346	6437
3377.083	6249
3378.82	6348
3380.556	6362
3382.292	6274
3384.027	6198
3385.763	6330
3387.497	6246
3389.231	6417
3390.965	6252
3392.698	6358
3394.431	6296
3396.164	6144
3397.896	6168
3399.627	6266
3401.36	6243
3403.09	6356
3404.82	6212
3406.55	6275
3408.279	6230
3410.01	6421
3411.738	6211
3413.467	6197
3415.194	6139
3416.92	6259
3418.647	6308
3420.375	6135
3422.102	6203
3423.827	6208
3425.553	6163
3427.277	6200
3429.003	6149
3430.727	6119
3432.451	6108
3434.173	6202
3435.896	6124
3437.62	6087
3439.343	5971
3441.063	6029
3442.785	6145
3444.505	5998
3446.226	6165
3447.948	6098
3449.666	6055
3451.386	6086
3453.104	6019
3454.823	6061
3456.541	6161
3458.259	6014
3459.976	5982
3461.693	5984
3463.408	6063
3465.125	5929
3466.841	5956
3468.556	5965
3470.271	6022
3471.985	5852
3473.698	5971
3475.414	5888
3477.126	5870
3478.838	5982
3480.55	5877
3482.263	5878
3483.975	5919
3485.686	5870
3487.396	5863
3489.106	5902
3490.817	5743
3492.526	5757
3494.236	5674
3495.944	5851
3497.652	5892
3499.359	5753
3501.066	5775
3502.775	5795
3504.481	5852
3506.187	5834
3507.893	5740
3509.598	5785
3511.304	5765
3513.009	5688
3514.713	5776
3516.417	5691
3518.12	5793
3519.821	5693
3521.525	5655
3523.228	5707
3524.929	5713
3526.631	5624
3528.33	5623
3530.032	5620
3531.733	5617
3533.433	5692
3535.131	5617
3536.83	5633
3538.529	5653
3540.227	5631
3541.925	5586
3543.623	5630
3545.319	5585
3547.016	5531
3548.712	5601
3550.408	5633
3552.103	5605
3553.798	5569
3555.491	5437
3557.188	5548
3558.88	5620
3560.574	5517
3562.266	5511
3563.959	5442
3565.651	5592
3567.343	5510
3569.035	5526
3570.725	5566
3572.415	5427
3574.106	5492
3575.797	5463
3577.485	5457
3579.174	5375
3580.863	5343
3582.551	5507
3584.238	5441
3585.926	5517
3587.613	5416
3589.3	5419
3590.986	5351
3592.671	5447
3594.357	5479
3596.042	5307
3597.726	5375
3599.41	5452
3601.094	5292
3602.778	5307
3604.461	5327
3606.143	5398
3607.825	5216
3609.507	5294
3611.188	5208
3612.87	5321
3614.551	5348
3616.229	5281
3617.909	5165
3619.589	5302
3621.269	5283
3622.948	5306
3624.625	5247
3626.302	5201
3627.98	5229
3629.657	5315
3631.334	5247
3633.01	5227
3634.686	5287
3636.361	5138
3638.036	5253
3639.712	5144
3641.385	5234
3643.06	5224
3644.732	5189
3646.405	5112
3648.08	5134
3649.751	5151
3651.424	5125
3653.094	5078
3654.766	5079
3656.436	5134
3658.106	5065
3659.777	4984
3661.446	5156
3663.115	5083
3664.783	5050
3666.452	5097
3668.121	5010
3669.788	5120
3671.454	5059
3673.121	5096
3674.789	4959
3676.455	4945
3678.12	4988
3679.784	5021
3681.45	5020
3683.114	4991
3684.779	5046
3686.442	5099
3688.105	4953
3689.768	5056
3691.43	4943
3693.093	4991
3694.754	5027
3696.415	5000
3698.076	5035
3699.736	5051
3701.396	4835
3703.057	4916
3704.716	4874
3706.375	5000
3708.034	4943
3709.692	4883
3711.351	4957
3713.008	4980
3714.665	5026
3716.321	4956
3717.977	4916
3719.634	4857
3721.29	4898
3722.945	4970
3724.598	4931
3726.253	4934
3727.907	4897
3729.561	4839
3731.214	4882
3732.867	4802
3734.518	4839
3736.171	4766
3737.824	4846
3739.474	4873
3741.125	4762
3742.775	4856
3744.425	4828
3746.074	4847
3747.725	4833
3749.373	4839
3751.022	4825
3752.669	4806
3754.318	4851
3755.966	4806
3757.612	4782
3759.259	4734
3760.905	4824
3762.55	4872
3764.197	4767
3765.842	4816
3767.486	4861
3769.131	4817
3770.774	4789
3772.417	4623
3774.061	4866
3775.705	4727
3777.347	4697
3778.988	4787
3780.629	4696
3782.271	4739
3783.912	4646
3785.552	4717
3787.192	4719
3788.831	4701
3790.472	4728
3792.112	4759
3793.75	4756
3795.388	4751
3797.024	4721
3798.661	4619
3800.3	4676
3801.936	4573
3803.572	4631
3805.208	4565
3806.844	4688
3808.48	4744
3810.115	4614
3811.748	4564
3813.382	4632
3815.016	4548
3816.649	4584
3818.283	4675
3819.914	4614
3821.547	4698
3823.178	4596
3824.809	4634
3826.441	4663
3828.072	4586
3829.701	4555
3831.331	4620
3832.96	4635
3834.591	4487
3836.219	4493
3837.847	4529
3839.475	4613
3841.102	4569
3842.729	4496
3844.357	4477
3845.984	4479
3847.609	4452
3849.234	4526
3850.86	4549
3852.485	4432
3854.11	4442
3855.734	4452
3857.357	4447
3858.981	4541
3860.603	4500
3862.227	4519
3863.848	4477
3865.471	4491
3867.092	4451
3868.713	4469
3870.334	4478
3871.954	4373
3873.575	4540
3875.194	4448
3876.813	4443
3878.433	4447
3880.051	4450
3881.669	4496
3883.286	4476
3884.904	4490
3886.52	4506
3888.138	4399
3889.754	4360
3891.37	4414
3892.985	4447
3894.6	4440
3896.216	4354
3897.831	4425
3899.444	4383
3901.058	4385
3902.67	4389
3904.283	4395
3905.897	4445
3907.509	4344
3909.121	4309
3910.731	4410
3912.342	4357
3913.954	4394
3915.563	4309
3917.174	4315
3918.783	4381
3920.391	4302
3922.002	4404
3923.611	4335
3925.218	4375
3926.826	4377
3928.432	4349
3930.039	4325
3931.647	4372
3933.253	4327
3934.859	4281
3936.464	4237
3938.068	4287
3939.675	4299
3941.278	4241
3942.883	4417
3944.486	4306
3946.089	4325
3947.692	4282
3949.295	4280
3950.898	4266
3952.499	4251
3954.1	4257
3955.7	4203
3957.303	4297
3958.903	4318
3960.502	4275
3962.101	4393
3963.7	4224
3965.301	4257
3966.899	4246
3968.497	4216
3970.094	4214
3971.691	4249
3973.288	4274
3974.885	4195
3976.481	4183
3978.077	4152
3979.672	4214
3981.267	4134
3982.863	4188
3984.457	4132
3986.051	4202
3987.645	4167
3989.238	4098
3990.831	4196
3992.425	4134
3994.017	4158
3995.607	4126
3997.199	4139
3998.79	4103
4000.382	4109
4001.973	4114
4003.561	4142
4005.151	4052
4006.741	4087
4008.331	4087
4009.918	4133
4011.507	4072
4013.095	4076
4014.681	4046
4016.269	4035
4017.856	3989
4019.443	4058
4021.028	3977
4022.614	3936
4024.199	4029
4025.785	4052
4027.37	4052
4028.953	3993
4030.536	4075
4032.12	3933
4033.704	4006
4035.287	4005
4036.869	3949
4038.45	3939
4040.032	4017
4041.613	3875
4043.195	3956
4044.776	3933
4046.356	4019
4047.935	3985
4049.515	4001
4051.095	3984
4052.674	4010
4054.251	3902
4055.829	3981
4057.406	3912
4058.985	3904
4060.562	3962
4062.139	3947
4063.715	3900
4065.29	3978
4066.865	3920
4068.442	3903
4070.016	3892
4071.59	3874
4073.164	3815
4074.738	3871
4076.312	3866
4077.885	3849
4079.458	4001
4081.03	3855
4082.602	3855
4084.173	3867
4085.745	3824
4087.315	3849
4088.886	3967
4090.456	3889
4092.026	3868
4093.596	3868
4095.165	3844
4096.734	3854
4098.301	3801
4099.869	3817
4101.437	3760
4103.006	3845
4104.572	3824
4106.139	3744
4107.704	3826
4109.27	3800
4110.837	3858
4112.401	3805
4113.966	3820
4115.53	3858
4117.094	3781
4118.659	3763
4120.223	3765
4121.785	3682
4123.347	3801
4124.909	3824
4126.471	3762
4128.034	3706
4129.595	3689
4131.155	3761
4132.716	3718
4134.275	3684
4135.836	3794
4137.395	3715
4138.955	3697
4140.513	3718
4142.071	3716
4143.628	3642
4145.188	3618
4146.745	3656
4148.302	3745
4149.858	3665
4151.414	3745
4152.971	3586
4154.526	3569
4156.081	3673
4157.635	3622
4159.189	3605
4160.745	3672
4162.298	3657
4163.852	3683
4165.405	3633
4166.957	3596
4168.51	3599
4170.063	3616
4171.614	3614
4173.166	3651
4174.717	3640
4176.267	3630
4177.817	3646
4179.368	3610
4180.917	3557
4182.466	3636
4184.016	3525
4185.564	3553
4187.112	3632
4188.66	3600
4190.207	3484
4191.754	3531
4193.301	3480
4194.848	3569
4196.394	3541
4197.94	3532
4199.484	3550
4201.03	3494
4202.575	3535
4204.12	3495
4205.663	3482
4207.207	3466
4208.75	3541
4210.292	3502
4211.836	3591
4213.378	3520
4214.92	3418
4216.46	3396
4218.002	3502
4219.544	3509
4221.083	3479
4222.625	3482
4224.164	3529
4225.703	3452
4227.244	3467
4228.782	3499
4230.32	3565
4231.857	3379
4233.395	3446
4234.933	3560
4236.471	3418
4238.007	3513
4239.542	3441
4241.078	3488
4242.614	3405
4244.15	3414
4245.685	3372
4247.219	3482
4248.753	3462
4250.287	3439
4251.82	3498
4253.354	3476
4254.887	3387
4256.419	3321
4257.951	3438
4259.483	3375
4261.016	3449
4262.547	3311
4264.078	3459
4265.608	3384
4267.137	3465
4268.668	3403
4270.197	3352
4271.727	3379
4273.254	3371
4274.783	3403
4276.311	3381
4277.84	3388
4279.366	3417
4280.894	3335
4282.42	3375
4283.946	3291
4285.473	3329
4286.998	3302
4288.523	3308
4290.047	3322
4291.572	3288
4293.096	3318
4294.622	3338
4296.144	3302
4297.668	3301
4299.19	3366
4300.713	3274
4302.236	3348
4303.758	3326
4305.279	3309
4306.799	3229
4308.321	3267
4309.842	3273
4311.361	3348
4312.882	3224
4314.401	3298
