400.0961	12209
402.6185	12291
405.1424	12146
407.6635	12089
410.1838	12264
412.7035	12285
415.2225	12384
417.7388	12285
420.2585	12631
422.7754	12590
425.2917	12667
427.8072	12738
430.3221	12863
432.8363	12837
435.3498	12671
437.8626	12993
440.3727	12850
442.8841	12924
445.3969	12924
447.907	13149
450.4142	13008
452.9229	13139
455.4289	12849
457.9362	13140
460.4449	13069
462.9488	13101
465.454	13110
467.9566	13118
470.4604	13227
472.9637	13369
475.4662	13341
477.966	13302
480.4671	13152
482.9656	13478
485.4633	13478
487.9645	13495
490.4608	13366
492.9566	13542
495.4536	13717
497.948	13383
500.4437	13568
502.9387	13672
505.431	13677
507.9226	13658
510.4136	13731
512.9079	13602
515.3975	13737
517.8864	13872
520.3746	13818
522.8622	13816
525.3491	13821
527.8394	13774
530.3249	13772
532.8098	13744
535.2939	13905
537.7774	13931
540.2623	13859
542.7444	13830
545.2259	13893
547.7067	14071
550.1868	13936
552.6683	13990
555.147	13877
557.6231	13892
560.1005	13887
562.5773	13860
565.0534	14108
567.5308	14097
570.0056	14106
572.4776	14065
574.951	14108
577.4237	14161
579.8978	14368
582.3671	14442
584.8378	14252
587.3079	14177
589.7773	14085
592.244	14304
594.714	14435
597.1793	14383
599.6461	14365
602.1121	14360
604.5754	14267
607.0421	14375
609.5042	14267
611.9675	14467
614.4282	14421
616.8902	14414
619.3515	14295
621.8122	14285
624.2702	14367
626.7296	14383
629.1863	14333
631.6423	14275
634.1017	14443
636.5563	14572
639.0104	14316
641.4658	14441
643.9185	14353
646.3725	14411
648.8239	14692
651.2766	14504
653.7266	14529
656.176	14774
658.6247	14845
661.0748	14529
663.5242	14802
665.9709	14652
668.417	14818
670.8624	14791
673.3092	14971
675.7533	14719
678.1968	14851
680.6395	14952
683.0817	14920
685.5251	15002
687.9659	14833
690.4061	15002
692.8456	14905
695.2844	14765
697.7226	15018
700.1621	15094
702.599	15137
705.0332	15250
707.4688	15094
709.9036	15006
712.3399	15110
714.7735	15069
717.2044	15245
719.6367	15287
722.0683	15141
724.4993	15396
726.9296	15533
729.3593	15319
731.7883	15396
734.2147	15770
736.6423	15720
739.0714	15628
741.4958	15807
743.9216	15720
746.3447	15554
748.7691	15710
751.1929	15999
753.616	15985
756.0366	16070
758.4584	15968
760.8776	15873
763.2982	16098
765.718	15947
768.1373	16031
770.5539	16010
772.9698	15958
775.3871	15939
777.8038	16167
780.2178	16089
782.6332	16114
785.0459	16077
787.458	16116
789.8714	16038
792.2842	15798
794.6943	16083
797.1038	16103
799.5127	16033
801.9209	16023
804.3324	16065
806.7393	16244
809.1456	16133
811.5513	16174
813.9562	16223
816.3625	16269
818.7663	16094
821.1693	16385
823.5718	16224
825.9735	16300
828.3746	16243
830.7771	16181
833.177	16234
835.5762	16244
837.9747	16309
840.3727	16508
842.772	16466
845.1666	16287
847.5626	16498
849.958	16567
852.3527	16402
854.7488	16526
857.1403	16469
859.5331	16565
861.9253	16584
864.3168	16474
866.7057	16393
869.098	16535
871.4876	16425
873.8746	16455
876.263	16443
878.6487	16424
881.0378	16446
883.4243	16200
885.8081	16298
888.1933	16405
890.5759	16302
892.9598	16344
895.343	16456
897.7256	16555
900.1057	16410
902.4871	16628
904.8659	16312
907.246	16486
909.6254	16469
912.0023	16262
914.3786	16659
916.7562	16954
919.1331	16970
921.5074	16856
923.8831	17062
926.2562	17075
928.6287	17067
931.0005	17222
933.3757	17093
935.7462	17050
938.1162	17109
940.4855	17377
942.8542	17003
945.2242	17390
947.5916	17475
949.9584	17691
952.3266	17530
954.6921	17927
957.0571	18003
959.4233	18543
961.787	18656
964.15	18498
966.5125	18150
968.8742	17949
971.2354	17904
973.5959	17607
975.9559	17437
978.3151	17278
980.6738	17231
983.0338	17191
985.3912	17047
987.7461	17056
990.1022	17079
992.4578	17065
994.8127	17162
997.1689	16990
999.5207	17177
1001.874	17219
1004.226	17072
1006.576	17087
1008.929	17242
1011.28	17006
1013.628	17033
1015.977	17061
1018.324	17009
1020.674	17072
1023.019	17022
1025.366	17432
1027.713	17014
1030.056	17309
1032.399	17156
1034.746	17256
1037.087	17259
1039.431	17174
1041.771	17217
1044.113	17304
1046.454	17236
1048.793	17306
1051.133	17330
1053.471	17284
1055.807	17240
1058.146	17299
1060.483	17284
1062.818	17570
1065.153	17462
1067.489	17303
1069.822	17446
1072.156	17311
1074.488	17330
1076.82	17550
1079.15	17351
1081.48	17304
1083.814	17431
1086.143	17557
1088.471	17600
1090.799	17444
1093.126	17511
1095.452	17655
1097.78	17246
1100.105	17418
1102.43	17507
1104.754	17374
1107.077	17498
1109.4	17382
1111.722	17823
1114.044	17491
1116.365	17742
1118.685	17542
1121.005	17568
1123.324	17732
1125.643	17550
1127.961	17746
1130.278	17654
1132.595	17554
1134.911	17688
1137.226	17789
1139.541	17543
1141.854	17675
1144.167	17427
1146.482	17736
1148.793	17558
1151.105	17876
1153.414	17787
1155.725	17764
1158.033	17766
1160.344	17483
1162.651	17736
1164.959	17756
1167.265	17612
1169.572	17751
1171.878	17622
1174.184	17758
1176.488	17676
1178.79	17865
1181.094	17807
1183.396	17772
1185.699	17602
1188.001	17798
1190.301	17675
1192.6	17772
1194.9	17715
1197.2	17683
1199.497	17738
1201.794	17695
1204.09	17672
1206.387	17865
1208.684	17726
1210.978	17754
1213.272	17715
1215.565	17756
1217.858	17646
1220.15	17902
1222.443	17712
1224.734	17927
1227.024	17765
1229.313	17909
1231.602	17942
1233.892	18084
1236.18	18239
1238.467	17908
1240.754	18136
1243.04	18328
1245.325	18162
1247.612	18231
1249.896	18139
1252.178	18136
1254.461	18219
1256.743	18136
1259.027	18203
1261.308	18429
1263.587	18174
1265.867	18357
1268.146	18283
1270.425	18121
1272.703	18232
1274.981	18152
1277.256	18172
1279.532	18129
1281.808	18261
1284.083	18093
1286.358	18167
1288.63	18117
1290.904	17756
1293.175	18136
1295.449	17975
1297.719	18050
1299.99	18090
1302.259	17965
1304.529	17989
1306.798	18021
1309.065	18188
1311.333	17998
1313.599	17939
1315.866	18153
1318.131	18114
1320.396	18012
1322.66	17983
1324.925	17975
1327.187	17995
1329.448	18326
1331.711	18130
1333.974	17961
1336.234	18043
1338.493	18214
1340.752	18313
1343.01	18035
1345.269	18076
1347.526	17992
1349.784	18116
1352.04	18082
1354.295	17910
1356.552	18233
1358.806	18111
1361.059	18084
1363.312	18025
1365.564	18194
1367.818	18231
1370.069	18043
1372.318	18145
1374.568	18094
1376.817	18427
1379.066	18128
1381.316	18273
1383.564	18216
1385.809	18130
1388.056	18228
1390.301	18091
1392.549	18359
1394.793	18458
1397.036	18344
1399.279	18204
1401.522	18687
1403.763	18332
1406.007	18455
1408.248	18278
1410.487	18501
1412.727	18512
1414.965	18616
1417.205	18608
1419.442	18653
1421.68	18459
1423.915	18422
1426.152	18500
1428.388	18520
1430.623	18461
1432.857	18547
1435.091	18911
1437.323	18713
1439.556	18792
1441.789	18777
1444.019	18760
1446.25	18685
1448.48	18686
1450.708	18796
1452.938	18915
1455.167	18716
1457.394	18919
1459.62	18802
1461.846	18753
1464.073	18734
1466.299	18960
1468.523	18745
1470.746	18656
1472.969	18519
1475.191	18467
1477.415	18418
1479.636	18590
1481.858	18475
1484.078	18431
1486.298	18309
1488.518	18202
1490.736	18136
1492.954	18262
1495.169	18111
1497.386	18356
1499.602	18160
1501.819	18205
1504.034	17973
1506.248	18333
1508.462	17998
1510.675	18144
1512.888	18106
1515.1	18090
1517.311	18204
1519.522	18177
1521.732	18030
1523.942	18060
1526.151	18008
1528.36	18055
1530.566	18103
1532.773	18254
1534.98	18184
1537.187	18291
1539.392	18300
1541.596	18065
1543.801	18278
1546.005	18214
1548.208	18220
1550.411	18277
1552.612	18383
1554.814	18356
1557.013	18238
1559.212	18419
1561.414	18280
1563.612	18387
1565.811	18491
1568.007	18448
1570.203	18722
1572.403	18599
1574.598	18609
1576.792	18577
1578.988	18646
1581.181	18606
1583.376	18817
1585.568	18597
1587.761	18550
1589.952	18854
1592.143	18582
1594.333	18756
1596.524	18716
1598.715	18694
1600.903	18759
1603.091	18436
1605.278	18624
1607.466	18718
1609.652	18713
1611.838	18776
1614.023	18677
1616.207	18741
1618.391	18741
1620.576	18715
1622.759	18793
1624.941	18806
1627.123	18690
1629.304	18821
1631.484	18738
1633.664	18839
1635.844	18793
1638.022	18969
1640.201	18829
1642.38	18788
1644.556	18839
1646.732	18675
1648.908	18954
1651.084	18793
1653.257	18801
1655.433	18777
1657.607	18770
1659.779	18776
1661.951	18666
1664.122	19052
1666.295	18924
1668.467	18872
1670.635	18795
1672.805	18882
1674.973	18935
1677.142	18841
1679.31	18749
1681.478	18637
1683.644	18923
1685.81	18743
1687.975	18705
1690.142	18911
1692.305	18830
1694.468	18758
1696.632	18849
1698.794	18724
1700.957	18606
1703.119	18719
1705.279	18701
1707.439	18776
1709.598	18670
1711.758	18653
1713.917	18691
1716.075	18731
1718.231	18811
1720.388	18552
1722.543	18628
1724.702	18548
1726.856	18564
1729.01	18726
1731.164	18753
1733.317	18525
1735.471	18603
1737.623	18627
1739.774	18693
1741.925	18681
1744.075	18787
1746.225	18715
1748.376	18638
1750.524	18699
1752.672	18653
1754.82	18717
1756.965	18839
1759.113	18529
1761.259	18841
1763.405	18824
1765.549	18604
1767.694	18796
1769.836	18899
1771.981	18746
1774.123	18791
1776.264	18824
1778.405	18781
1780.546	18980
1782.687	18777
1784.827	18696
1786.966	18783
1789.103	18917
1791.242	18941
1793.381	19036
1795.517	18770
1797.653	18693
1799.788	18696
1801.923	18803
1804.057	18918
1806.193	18968
1808.326	18764
1810.457	18658
1812.59	18556
1814.721	18816
1816.855	18935
1818.984	18750
1821.113	18737
1823.244	18667
1825.372	18727
1827.499	18577
1829.63	18665
1831.756	18641
1833.882	18720
1836.007	18685
1838.132	18770
1840.26	18591
1842.384	18745
1844.507	18585
1846.63	18658
1848.752	18482
1850.875	18559
1852.996	18703
1855.118	18676
1857.238	18521
1859.358	18684
1861.477	18501
1863.597	18621
1865.715	18568
1867.832	18468
1869.948	18779
1872.064	18622
1874.181	18656
1876.297	18478
1878.411	18436
1880.526	18816
1882.639	18567
1884.752	18764
1886.865	18608
1888.977	18709
1891.089	18588
1893.2	18683
1895.308	18708
1897.42	18675
1899.53	18546
1901.639	18552
1903.745	18699
1905.853	19032
1907.962	18513
1910.067	18705
1912.174	18593
1914.278	18889
1916.383	18822
1918.486	18877
1920.592	18708
1922.694	18879
1924.797	18816
1926.898	18754
1929	19023
1931.102	18807
1933.203	18710
1935.301	19018
1937.401	18957
1939.499	18911
1941.598	18774
1943.697	19038
1945.793	18749
1947.888	18746
1949.985	18764
1952.08	18902
1954.176	18764
1956.269	18837
1958.364	18731
1960.457	18906
1962.549	18906
1964.642	18845
1966.733	18723
1968.823	18752
1970.913	18743
1973.005	18751
1975.093	18656
1977.184	18642
1979.271	18741
1981.359	18772
1983.446	18491
1985.532	18718
1987.619	18680
1989.705	18823
1991.789	18666
1993.874	18697
1995.956	18644
1998.041	18514
2000.123	18422
2002.206	18665
2004.287	18697
2006.368	18509
2008.449	18573
2010.529	18418
2012.609	18536
2014.688	18574
2016.766	18615
2018.843	18430
2020.922	18660
2022.999	18496
2025.074	18446
2027.15	18615
2029.225	18589
2031.299	18730
2033.375	18434
2035.447	18494
2037.52	18399
2039.592	18573
2041.664	18419
2043.736	18554
2045.807	18288
2047.876	18601
2049.947	18563
2052.015	18561
2054.086	18604
2056.153	18467
2058.221	18599
2060.288	18458
2062.353	18566
2064.42	18579
2066.486	18271
2068.55	18670
2070.614	18426
2072.678	18626
2074.741	18399
2076.805	18407
2078.866	18630
2080.929	18311
2082.99	18716
2085.049	18529
2087.109	18318
2089.17	18536
2091.228	18423
2093.286	18499
2095.344	18518
2097.4	18367
2099.46	18369
2101.516	18562
2103.572	18442
2105.626	18735
2107.679	18537
2109.735	18517
2111.788	18571
2113.841	18578
2115.894	18260
2117.945	18618
2119.997	18388
2122.049	18382
2124.1	18598
2126.148	18366
2128.197	18463
2130.246	18431
2132.296	18443
2134.342	18422
2136.39	18399
2138.437	18333
2140.483	18390
2142.527	18407
2144.574	18338
2146.619	18353
2148.661	18431
2150.705	18271
2152.747	18529
2154.792	18387
2156.832	18468
2158.874	18076
2160.915	18084
2162.954	18290
2164.995	18368
2167.034	18425
2169.072	18202
2171.111	18128
2173.148	18074
2175.186	18305
2177.223	18056
2179.258	18007
2181.294	18214
2183.328	18171
2185.362	18200
2187.398	18011
2189.431	18077
2191.463	18010
2193.495	18039
2195.528	18179
2197.56	18078
2199.59	18011
2201.62	17904
2203.649	17855
2205.678	17904
2207.708	17955
2209.737	17857
2211.764	17685
2213.791	17943
2215.817	17796
2217.843	17704
2219.87	17968
2221.895	17755
2223.919	17605
2225.942	17845
2227.966	17823
2229.988	17639
2232.012	17676
2234.032	18012
2236.054	17723
2238.074	17623
2240.095	17785
2242.116	17771
2244.135	17807
2246.153	17543
2248.171	17861
2250.188	17793
2252.208	17712
2254.223	17867
2256.239	17870
2258.255	17926
2260.269	17797
2262.283	17806
2264.3	17847
2266.312	17760
2268.325	17666
2270.336	17751
2272.349	17723
2274.362	17707
2276.372	17746
2278.383	17958
2280.392	17631
2282.402	17827
2284.409	17650
2286.418	17735
2288.427	17836
2290.433	17738
2292.441	17653
2294.446	17621
2296.453	17953
2298.459	17521
2300.463	17686
2302.466	17755
2304.471	17478
2306.475	17547
2308.477	17666
2310.478	17586
2312.481	17573
2314.481	17722
2316.481	17628
2318.482	17686
2320.482	17514
2322.48	17527
2324.48	17518
2326.478	17439
2328.476	17561
2330.473	17471
2332.469	17443
2334.465	17475
2336.46	17343
2338.454	17328
2340.45	17649
2342.444	17233
2344.437	17497
2346.43	17344
2348.421	17269
2350.414	17398
2352.405	17387
2354.396	17217
2356.386	17280
2358.376	17139
2360.366	17346
2362.355	17123
2364.343	17246
2366.331	17160
2368.317	17224
2370.304	17032
2372.292	17286
2374.278	17152
2376.262	17139
2378.247	17239
2380.23	17269
2382.216	17388
2384.199	16977
2386.181	16947
2388.163	17009
2390.144	17070
2392.127	17041
2394.107	16857
2396.087	17192
2398.066	16945
2400.046	17111
2402.023	16845
2404.004	16998
2405.981	16951
2407.957	16827
2409.934	16923
2411.91	16719
2413.886	16929
2415.862	17004
2417.836	16914
2419.809	16989
2421.784	16910
2423.756	16865
2425.73	16880
2427.701	16912
2429.672	16876
2431.644	16817
2433.615	16770
2435.586	16810
2437.555	16861
2439.523	17029
2441.491	16937
2443.459	16853
2445.428	16933
2447.395	16753
2449.361	16930
2451.327	16920
2453.292	16692
2455.257	16912
2457.223	16698
2459.187	16807
2461.15	16940
2463.113	16573
2465.076	16902
2467.039	16810
2468.999	16691
2470.96	16345
2472.921	16774
2474.881	16610
2476.841	16569
2478.8	16659
2480.759	16744
2482.717	16604
2484.675	16579
2486.63	16442
2488.589	16772
2490.545	16576
2492.5	16565
2494.455	16510
2496.408	16667
2498.364	16217
2500.318	16435
2502.27	16615
2504.223	16577
2506.174	16657
2508.126	16532
2510.078	16618
2512.03	16497
2513.979	16400
2515.927	16314
2517.877	16411
2519.826	16585
2521.775	16361
2523.722	16449
2525.668	16343
2527.616	16253
2529.561	16498
2531.508	16155
2533.452	16481
2535.398	16274
2537.342	16297
2539.284	16226
2541.229	16475
2543.173	16470
2545.114	16297
2547.055	16300
2548.996	16429
2550.938	16378
2552.878	16309
2554.817	16286
2556.756	16297
2558.695	16389
2560.633	16096
2562.572	16287
2564.509	16381
2566.445	16390
2568.382	16304
2570.317	16332
2572.254	16338
2574.189	16254
2576.123	16265
2578.057	16138
2579.99	16202
2581.923	16354
2583.855	16235
2585.788	16460
2587.719	16286
2589.65	16144
2591.579	16079
2593.511	16405
2595.44	16263
2597.37	16361
2599.297	16295
2601.225	16112
2603.153	16275
2605.08	16271
2607.007	16356
2608.932	16215
2610.858	16178
2612.782	16177
2614.709	16222
2616.632	16303
2618.556	16291
2620.478	16307
2622.401	16174
2624.324	16169
2626.247	16170
2628.167	16240
2630.088	16276
2632.008	16302
2633.928	16221
2635.848	16262
2637.766	16243
2639.684	16057
2641.603	16374
2643.519	16096
2645.437	16250
2647.353	16401
2649.27	15940
2651.184	16340
2653.099	16347
2655.014	16097
2656.928	16134
2658.842	16180
2660.755	15914
2662.667	16225
2664.579	16197
2666.491	16157
2668.402	16103
2670.312	16042
2672.222	15920
2674.132	16149
2676.042	16079
2677.951	16154
2679.859	15988
2681.766	16091
2683.674	16185
2685.582	16105
2687.488	16021
2689.392	15987
2691.298	15927
2693.202	15782
2695.107	15984
2697.012	15846
2698.914	16047
2700.817	15844
2702.72	15991
2704.622	15899
2706.524	15817
2708.425	15820
2710.326	15770
2712.225	15736
2714.125	15780
2716.024	15819
2717.923	15713
2719.822	15792
2721.719	15650
2723.616	15824
2725.512	15920
2727.41	15999
2729.305	15667
2731.201	15729
2733.095	15623
2734.99	15754
2736.884	15779
2738.778	15562
2740.67	15728
2742.562	15573
2744.455	15627
2746.346	15559
2748.238	15684
2750.129	15606
2752.018	15681
2753.907	15602
2755.797	15609
2757.687	15718
2759.575	15411
2761.462	15561
2763.349	15609
2765.237	15661
2767.124	15662
2769.009	15616
2770.894	15459
2772.779	15549
2774.663	15521
2776.547	15538
2778.431	15491
2780.314	15477
2782.197	15521
2784.078	15670
2785.96	15369
2787.842	15615
2789.723	15451
2791.603	15377
2793.483	15336
2795.362	15446
2797.241	15364
2799.121	15524
2800.997	15422
2802.874	15396
2804.751	15166
2806.628	15468
2808.506	15531
2810.38	15236
2812.255	15370
2814.13	15095
2816.003	15525
2817.878	15285
2819.752	15254
2821.623	15368
2823.496	15271
2825.368	15264
2827.238	15198
2829.111	15189
2830.98	15260
2832.851	15250
2834.719	15337
2836.589	15348
2838.458	15238
2840.327	15245
2842.193	15241
2844.061	15258
2845.927	15276
2847.794	15344
2849.66	15513
2851.525	15224
2853.39	15190
2855.254	15386
2857.117	15277
2858.983	15233
2860.845	15287
2862.707	15396
2864.569	15506
2866.431	15204
2868.293	15381
2870.154	15448
2872.013	15656
2873.873	15265
2875.733	15528
2877.592	15541
2879.451	15702
2881.309	15763
2883.166	15543
2885.022	15763
2886.879	15786
2888.736	15822
2890.591	15757
2892.446	15735
2894.301	15713
2896.155	15756
2898.009	15627
2899.863	15738
2901.716	15677
2903.568	15623
2905.419	15729
2907.27	15673
2909.123	15683
2910.973	15597
2912.824	15727
2914.673	15731
2916.521	15829
2918.372	15880
2920.22	16030
2922.067	15872
2923.914	15905
2925.761	15838
2927.607	16097
2929.455	16182
2931.301	15982
2933.144	16304
2934.99	16114
2936.833	16264
2938.678	16463
2940.522	16255
2942.364	16512
2944.207	16423
2946.048	16572
2947.891	16693
2949.731	16524
2951.571	16550
2953.412	16554
2955.25	16527
2957.09	16447
2958.93	16367
2960.767	16379
2962.606	16208
2964.443	16032
2966.279	15836
2968.116	15833
2969.953	15887
2971.788	15807
2973.623	15615
2975.457	15596
2977.292	15649
2979.127	15653
2980.959	15751
2982.792	15240
2984.624	15177
2986.455	15469
2988.288	15296
2990.119	15251
2991.949	15041
2993.779	15189
2995.608	14956
2997.439	15012
2999.268	15096
3001.096	14849
3002.923	14860
3004.751	14735
3006.578	14714
3008.406	14872
3010.232	14611
3012.057	14692
3013.883	14559
3015.706	14576
3017.532	14464
3019.356	14336
3021.179	14599
3023.002	14462
3024.823	14544
3026.646	14180
3028.469	14328
3030.289	14389
3032.11	14185
3033.93	14317
3035.749	14115
3037.57	14257
3039.39	14244
3041.207	14285
3043.026	14237
3044.842	14240
3046.661	14034
3048.477	14230
3050.294	14246
3052.109	14082
3053.925	14112
3055.739	14150
3057.555	14218
3059.368	13916
3061.181	13982
3062.995	14061
3064.807	14104
3066.62	13984
3068.433	13867
3070.243	14005
3072.054	13962
3073.865	13846
3075.675	13821
3077.485	13883
3079.293	14020
3081.102	13945
3082.911	13938
3084.719	13774
3086.527	13832
3088.333	13793
3090.139	14002
3091.945	13671
3093.75	13676
3095.557	13651
3097.361	13736
3099.165	13742
3100.969	13719
3102.772	13416
3104.575	13463
3106.379	13714
3108.181	13559
3109.982	13706
3111.783	13426
3113.584	13783
3115.386	13538
3117.186	13537
3118.985	13339
3120.783	13379
3122.582	13447
3124.381	13489
3126.179	13450
3127.975	13489
3129.772	13472
3131.569	13426
3133.365	13422
3135.161	13404
3136.956	13269
3138.751	13317
3140.544	13288
3142.338	13166
3144.132	13224
3145.925	13279
3147.717	13316
3149.509	13216
3151.301	13244
3153.091	13102
3154.884	13097
3156.673	13091
3158.462	13034
3160.252	13232
3162.041	13178
3163.831	13122
3165.618	12987
3167.405	13014
3169.193	13190
3170.979	13210
3172.767	13034
3174.553	12939
3176.338	13086
3178.123	13087
3179.907	13082
3181.692	12991
3183.477	12884
3185.259	12919
3187.042	12830
3188.824	12902
3190.607	12957
3192.389	13001
3194.17	12898
3195.951	12937
3197.73	12852
3199.51	12895
3201.289	12723
3203.07	12796
3204.848	12843
3206.626	12768
3208.403	12699
3210.18	12659
3211.959	12880
3213.735	12811
3215.511	12793
3217.285	12672
3219.06	12907
3220.836	12676
3222.611	12557
3224.384	12857
3226.158	12699
3227.929	12784
3229.702	12734
3231.476	12775
3233.248	12799
3235.018	12773
3236.789	12640
3238.56	12639
3240.33	12742
3242.1	12706
3243.869	12775
3245.637	12609
3247.405	12590
3249.172	12785
3250.941	12707
3252.707	12617
3254.474	12562
3256.24	12675
3258.006	12641
3259.772	12579
3261.537	12648
3263.301	12526
3265.065	12720
3266.828	12693
3268.592	12486
3270.355	12530
3272.117	12689
3273.878	12641
3275.64	12428
3277.401	12648
3279.162	12698
3280.922	12500
3282.682	12539
3284.441	12473
3286.199	12524
3287.959	12532
3289.716	12565
3291.475	12508
3293.232	12484
3294.988	12469
3296.744	12450
3298.501	12550
3300.256	12411
3302.011	12566
3303.766	12493
3305.52	12488
3307.275	12533
3309.028	12258
3310.781	12498
3312.533	12460
3314.285	12492
3316.038	12280
3317.789	12482
3319.54	12353
3321.289	12309
3323.039	12185
3324.789	12332
3326.539	12388
3328.288	12202
3330.035	12382
3331.783	12333
3333.531	12400
3335.28	12389
3337.025	12153
3338.771	12371
3340.518	12352
3342.262	12320
3344.009	12151
3345.753	12291
3347.497	12203
3349.24	12206
3350.983	12090
3352.726	12101
3354.469	12295
3356.212	12168
3357.952	12119
3359.694	11972
3361.434	11912
3363.176	12141
3364.916	12223
3366.654	12164
3368.394	12161
3370.132	12157
3371.871	12076
3373.61	12062
3375.346	11902
3377.083	12223
3378.82	12014
3380.556	12029
3382.292	12047
3384.027	11960
3385.763	12038
3387.497	11867
3389.231	12048
3390.965	11827
3392.698	11893
3394.431	11896
3396.164	11971
3397.896	11817
3399.627	11902
3401.36	11888
3403.09	11965
3404.82	11886
3406.55	11830
3408.279	11847
3410.01	11947
3411.738	11878
3413.467	11857
3415.194	11908
3416.92	11724
3418.647	11785
3420.375	11823
3422.102	11780
3423.827	11722
3425.553	11705
3427.277	11818
3429.003	11825
3430.727	11650
3432.451	11715
3434.173	11640
3435.896	11677
3437.62	11405
3439.343	11630
3441.063	11631
3442.785	11660
3444.505	11609
3446.226	11570
3447.948	11547
3449.666	11446
3451.386	11635
3453.104	11616
3454.823	11645
3456.541	11388
3458.259	11299
3459.976	11369
3461.693	11431
3463.408	11354
3465.125	11299
3466.841	11221
3468.556	11157
3470.271	11257
3471.985	11380
3473.698	11158
3475.414	11330
3477.126	11199
3478.838	11231
3480.55	11217
3482.263	11212
3483.975	11184
3485.686	11166
3487.396	10961
3489.106	10989
3490.817	10992
3492.526	11173
3494.236	11036
3495.944	11095
3497.652	10951
3499.359	11113
3501.066	11112
3502.775	11080
3504.481	10894
3506.187	11085
3507.893	10961
3509.598	10984
3511.304	10936
3513.009	11023
3514.713	10963
3516.417	11022
3518.12	10947
3519.821	10960
3521.525	11046
3523.228	10876
3524.929	10897
3526.631	10844
3528.33	10746
3530.032	10835
3531.733	10795
3533.433	10899
3535.131	10820
3536.83	10803
3538.529	10802
3540.227	10762
3541.925	10666
3543.623	10878
3545.319	10739
3547.016	10811
3548.712	10961
3550.408	10733
3552.103	10791
3553.798	10637
3555.491	10627
3557.188	10477
3558.88	10728
3560.574	10570
3562.266	10712
3563.959	10752
3565.651	10585
3567.343	10559
3569.035	10748
3570.725	10559
3572.415	10581
3574.106	10673
3575.797	10603
3577.485	10387
3579.174	10660
3580.863	10559
3582.551	10724
3584.238	10448
3585.926	10504
3587.613	10376
3589.3	10523
3590.986	10455
3592.671	10281
3594.357	10519
3596.042	10363
3597.726	10332
3599.41	10394
3601.094	10461
3602.778	10439
3604.461	10395
3606.143	10368
3607.825	10417
3609.507	10325
3611.188	10295
3612.87	10271
3614.551	10248
3616.229	10155
3617.909	10203
3619.589	10053
3621.269	10261
3622.948	10094
3624.625	10104
3626.302	10020
3627.98	10033
3629.657	10161
3631.334	9978
3633.01	10156
3634.686	10202
3636.361	10111
3638.036	10049
3639.712	10050
3641.385	10004
3643.06	9946
3644.732	10016
3646.405	10037
3648.08	10075
3649.751	10078
3651.424	9880
3653.094	10000
3654.766	9944
3656.436	9928
3658.106	9929
3659.777	9856
3661.446	9800
3663.115	9846
3664.783	9898
3666.452	9852
3668.121	9823
3669.788	9800
3671.454	9787
3673.121	9916
3674.789	9851
3676.455	9777
3678.12	9770
3679.784	9799
3681.45	9684
3683.114	9913
3684.779	9699
3686.442	9724
3688.105	9742
3689.768	9730
3691.43	9775
3693.093	9721
3694.754	9557
3696.415	9617
3698.076	9753
3699.736	9717
3701.396	9622
3703.057	9605
3704.716	9664
3706.375	9691
3708.034	9745
3709.692	9655
3711.351	9643
3713.008	9638
3714.665	9608
3716.321	9693
3717.977	9478
3719.634	9647
3721.29	9715
3722.945	9540
3724.598	9414
3726.253	9615
3727.907	9552
3729.561	9495
3731.214	9545
3732.867	9543
3734.518	9511
3736.171	9494
3737.824	9528
3739.474	9436
3741.125	9511
3742.775	9418
3744.425	9408
3746.074	9561
3747.725	9451
3749.373	9366
3751.022	9300
3752.669	9271
3754.318	9402
3755.966	9244
3757.612	9413
3759.259	9248
3760.905	9373
3762.55	9334
3764.197	9294
3765.842	9230
3767.486	9213
3769.131	9193
3770.774	9259
3772.417	9216
3774.061	9290
3775.705	9158
3777.347	9253
3778.988	9129
3780.629	9220
3782.271	9163
3783.912	9184
3785.552	9108
3787.192	9230
3788.831	9076
3790.472	9099
3792.112	9100
3793.75	9186
3795.388	9269
3797.024	9247
3798.661	9217
3800.3	9100
3801.936	8950
3803.572	9053
3805.208	9189
3806.844	8995
3808.48	9018
3810.115	8878
3811.748	8910
3813.382	9073
3815.016	9082
3816.649	8947
3818.283	8962
3819.914	8859
3821.547	9020
3823.178	8882
3824.809	8885
3826.441	8847
3828.072	8918
3829.701	8883
3831.331	8841
3832.96	8903
3834.591	8879
3836.219	8959
3837.847	8836
3839.475	8816
3841.102	8910
3842.729	8685
3844.357	8841
3845.984	8854
3847.609	8919
3849.234	8601
3850.86	8820
3852.485	8754
3854.11	8597
3855.734	8712
3857.357	8747
3858.981	8728
3860.603	8727
3862.227	8760
3863.848	8638
3865.471	8749
3867.092	8694
3868.713	8566
3870.334	8736
3871.954	8611
3873.575	8691
3875.194	8787
3876.813	8684
3878.433	8597
3880.051	8665
3881.669	8606
3883.286	8586
3884.904	8506
3886.52	8618
3888.138	8476
3889.754	8560
3891.37	8568
3892.985	8447
3894.6	8625
3896.216	8604
3897.831	8490
3899.444	8416
3901.058	8427
3902.67	8464
3904.283	8588
3905.897	8580
3907.509	8492
3909.121	8432
3910.731	8340
3912.342	8526
3913.954	8405
3915.563	8371
3917.174	8474
3918.783	8468
3920.391	8633
3922.002	8374
3923.611	8508
3925.218	8403
3926.826	8398
3928.432	8435
3930.039	8382
3931.647	8411
3933.253	8414
3934.859	8483
3936.464	8284
3938.068	8373
3939.675	8343
3941.278	8256
3942.883	8367
3944.486	8218
3946.089	8459
3947.692	8270
3949.295	8230
3950.898	8308
3952.499	8328
3954.1	8227
3955.7	8334
3957.303	8375
3958.903	8116
3960.502	8272
3962.101	8164
3963.7	8243
3965.301	8190
3966.899	8178
3968.497	8228
3970.094	8228
3971.691	8234
3973.288	8165
3974.885	8138
3976.481	7989
3978.077	8076
3979.672	7997
3981.267	8032
3982.863	8016
3984.457	8050
3986.051	7991
3987.645	8063
3989.238	7949
3990.831	8126
3992.425	7977
3994.017	8085
3995.607	8047
3997.199	8008
3998.79	8035
4000.382	7968
4001.973	7889
4003.561	7967
4005.151	7879
4006.741	7911
4008.331	7798
4009.918	7797
4011.507	7995
4013.095	7850
4014.681	7860
4016.269	7804
4017.856	7767
4019.443	7835
4021.028	7612
4022.614	7752
4024.199	7704
4025.785	7840
4027.37	7708
4028.953	7767
4030.536	7729
4032.12	7763
4033.704	7609
4035.287	7615
4036.869	7639
4038.45	7609
4040.032	7678
4041.613	7704
4043.195	7495
4044.776	7564
4046.356	7617
4047.935	7618
4049.515	7638
4051.095	7716
4052.674	7538
4054.251	7518
4055.829	7538
4057.406	7555
4058.985	7546
4060.562	7494
4062.139	7556
4063.715	7548
4065.29	7436
4066.865	7584
4068.442	7521
4070.016	7415
4071.59	7474
4073.164	7409
4074.738	7420
4076.312	7468
4077.885	7407
4079.458	7473
4081.03	7431
4082.602	7419
4084.173	7430
4085.745	7314
4087.315	7385
4088.886	7450
4090.456	7433
4092.026	7443
4093.596	7355
4095.165	7278
4096.734	7335
4098.301	7356
4099.869	7321
4101.437	7355
4103.006	7349
4104.572	7207
4106.139	7210
4107.704	7304
4109.27	7355
4110.837	7290
4112.401	7266
4113.966	7155
4115.53	7131
4117.094	7240
4118.659	7391
4120.223	7311
4121.785	7206
4123.347	7128
4124.909	7122
4126.471	7213
4128.034	7169
4129.595	7163
4131.155	7127
4132.716	7087
4134.275	7057
4135.836	7141
4137.395	7064
4138.955	7126
4140.513	7184
4142.071	7046
4143.628	7070
4145.188	7013
4146.745	7059
4148.302	6990
4149.858	6915
4151.414	7034
4152.971	7093
4154.526	7074
4156.081	6935
4157.635	6982
4159.189	7033
4160.745	6887
4162.298	6974
4163.852	6820
4165.405	6799
4166.957	6767
4168.51	6947
4170.063	6853
4171.614	6893
4173.166	6815
4174.717	6926
4176.267	6814
4177.817	6943
4179.368	6748
4180.917	6870
4182.466	6845
4184.016	6829
4185.564	6780
4187.112	6774
4188.66	6752
4190.207	6737
4191.754	6684
4193.301	6713
4194.848	6750
4196.394	6866
4197.94	6708
4199.484	6791
4201.03	6640
4202.575	6834
4204.12	6627
4205.663	6827
4207.207	6649
4208.75	6804
4210.292	6766
4211.836	6682
4213.378	6585
4214.92	6570
4216.46	6740
4218.002	6549
4219.544	6535
4221.083	6587
4222.625	6554
4224.164	6609
4225.703	6581
4227.244	6500
4228.782	6655
4230.32	6547
4231.857	6599
4233.395	6584
4234.933	6536
4236.471	6533
4238.007	6568
4239.542	6556
4241.078	6488
4242.614	6524
4244.15	6528
4245.685	6495
4247.219	6469
4248.753	6548
4250.287	6621
4251.82	6565
4253.354	6504
4254.887	6574
4256.419	6379
4257.951	6439
4259.483	6435
4261.016	6364
4262.547	6375
4264.078	6476
4265.608	6326
4267.137	6332
4268.668	6426
4270.197	6412
4271.727	6389
4273.254	6331
4274.783	6265
4276.311	6324
4277.84	6385
4279.366	6403
4280.894	6461
4282.42	6350
4283.946	6327
4285.473	6354
4286.998	6355
4288.523	6150
4290.047	6240
4291.572	6333
4293.096	6269
4294.622	6263
4296.144	6212
4297.668	6253
4299.19	6223
4300.713	6341
4302.236	6235
4303.758	6257
4305.279	6184
4306.799	6202
4308.321	6100
4309.842	6108
4311.361	6228
4312.882	6295
4314.401	6115
