400.0961	4229
402.6185	4310
405.1424	4371
407.6635	4224
410.1838	4280
412.7035	4391
415.2225	4394
417.7388	4397
420.2585	4387
422.7754	4508
425.2917	4561
427.8072	4458
430.3221	4446
432.8363	4527
435.3498	4504
437.8626	4563
440.3727	4468
442.8841	4589
445.3969	4621
447.907	4671
450.4142	4665
452.9229	4613
455.4289	4552
457.9362	4440
460.4449	4516
462.9488	4609
465.454	4555
467.9566	4520
470.4604	4552
472.9637	4432
475.4662	4559
477.966	4531
480.4671	4569
482.9656	4481
485.4633	4545
487.9645	4549
490.4608	4577
492.9566	4682
495.4536	4672
497.948	4598
500.4437	4681
502.9387	4679
505.431	4672
507.9226	4660
510.4136	4606
512.9079	4584
515.3975	4612
517.8864	4610
520.3746	4732
522.8622	4631
525.3491	4624
527.8394	4748
530.3249	4684
532.8098	4745
535.2939	4723
537.7774	4712
540.2623	4727
542.7444	4756
545.2259	4757
547.7067	4681
550.1868	4785
552.6683	4734
555.147	4740
557.6231	4778
560.1005	4750
562.5773	4744
565.0534	4765
567.5308	4791
570.0056	4870
572.4776	4763
574.951	4879
577.4237	4835
579.8978	4922
582.3671	4934
584.8378	4917
587.3079	4944
589.7773	4920
592.244	4925
594.714	4889
597.1793	4962
599.6461	4909
602.1121	4923
604.5754	4891
607.0421	4989
609.5042	4894
611.9675	4878
614.4282	4856
616.8902	4934
619.3515	4810
621.8122	4868
624.2702	4806
626.7296	4871
629.1863	4839
631.6423	4842
634.1017	4705
636.5563	4927
639.0104	4804
641.4658	4872
643.9185	4848
646.3725	4816
648.8239	4881
651.2766	5000
653.7266	4758
656.176	4853
658.6247	4980
661.0748	4912
663.5242	4926
665.9709	4990
668.417	4929
670.8624	4967
673.3092	4931
675.7533	4987
678.1968	4975
680.6395	4994
683.0817	4964
685.5251	4944
687.9659	5062
690.4061	5026
692.8456	5065
695.2844	5099
697.7226	5035
700.1621	5046
702.599	5035
705.0332	5121
707.4688	5083
709.9036	5085
712.3399	5139
714.7735	5070
717.2044	5124
719.6367	5197
722.0683	5047
724.4993	5080
726.9296	5276
729.3593	5176
731.7883	5167
734.2147	5269
736.6423	5260
739.0714	5288
741.4958	5164
743.9216	5335
746.3447	5170
748.7691	5329
751.1929	5375
753.616	5283
756.0366	5364
758.4584	5353
760.8776	5357
763.2982	5232
765.718	5404
768.1373	5392
770.5539	5345
772.9698	5297
775.3871	5430
777.8038	5311
780.2178	5422
782.6332	5386
785.0459	5350
787.458	5404
789.8714	5433
792.2842	5258
794.6943	5366
797.1038	5452
799.5127	5415
801.9209	5409
804.3324	5438
806.7393	5479
809.1456	5370
811.5513	5437
813.9562	5502
816.3625	5451
818.7663	5494
821.1693	5490
823.5718	5483
825.9735	5499
828.3746	5448
830.7771	5494
833.177	5442
835.5762	5535
837.9747	5476
840.3727	5496
842.772	5499
845.1666	5591
847.5626	5658
849.958	5610
852.3527	5615
854.7488	5802
857.1403	5635
859.5331	5745
861.9253	5727
864.3168	5641
866.7057	5706
869.098	5661
871.4876	5602
873.8746	5563
876.263	5702
878.6487	5591
881.0378	5606
883.4243	5640
885.8081	5645
888.1933	5566
890.5759	5617
892.9598	5605
895.343	5649
897.7256	5576
900.1057	5568
902.4871	5638
904.8659	5675
907.246	5641
909.6254	5787
912.0023	5871
914.3786	5757
916.7562	5821
919.1331	6005
921.5074	6124
923.8831	6196
926.2562	6070
928.6287	6067
931.0005	6044
933.3757	6095
935.7462	6176
938.1162	6003
940.4855	5983
942.8542	6093
945.2242	5986
947.5916	6242
949.9584	6303
952.3266	6562
954.6921	6618
957.0571	6904
959.4233	6938
961.787	7135
964.15	7208
966.5125	6946
968.8742	6686
971.2354	6485
973.5959	6230
975.9559	6160
978.3151	6134
980.6738	6136
983.0338	6012
985.3912	6016
987.7461	5862
990.1022	5849
992.4578	5880
994.8127	5733
997.1689	5842
999.5207	5877
1001.874	5967
1004.226	5967
1006.576	5843
1008.929	5937
1011.28	5886
1013.628	5838
1015.977	5819
1018.324	5868
1020.674	5920
1023.019	5883
1025.366	5972
1027.713	5839
1030.056	6011
1032.399	5962
1034.746	5845
1037.087	5902
1039.431	5977
1041.771	6013
1044.113	5825
1046.454	5975
1048.793	6066
1051.133	6078
1053.471	5858
1055.807	5897
1058.146	5979
1060.483	5980
1062.818	5931
1065.153	6007
1067.489	6028
1069.822	6032
1072.156	6203
1074.488	6034
1076.82	6121
1079.15	5956
1081.48	6076
1083.814	5966
1086.143	5999
1088.471	5955
1090.799	6010
1093.126	5972
1095.452	6036
1097.78	6018
1100.105	5919
1102.43	5858
1104.754	5925
1107.077	6059
1109.4	5978
1111.722	5998
1114.044	6029
1116.365	5917
1118.685	5962
1121.005	5991
1123.324	5955
1125.643	6065
1127.961	6135
1130.278	6159
1132.595	5956
1134.911	6006
1137.226	5998
1139.541	6014
1141.854	5935
1144.167	6061
1146.482	6024
1148.793	5981
1151.105	6039
1153.414	5954
1155.725	5897
1158.033	6022
1160.344	6068
1162.651	6103
1164.959	5993
1167.265	6012
1169.572	6009
1171.878	6062
1174.184	5999
1176.488	6066
1178.79	6114
1181.094	6122
1183.396	6167
1185.699	6075
1188.001	6138
1190.301	6034
1192.6	5988
1194.9	6121
1197.2	5975
1199.497	5934
1201.794	6038
1204.09	6059
1206.387	5966
1208.684	6106
1210.978	5847
1213.272	6043
1215.565	6061
1217.858	6117
1220.15	6093
1222.443	6019
1224.734	6054
1227.024	6083
1229.313	6164
1231.602	6231
1233.892	6233
1236.18	6266
1238.467	6330
1240.754	6260
1243.04	6459
1245.325	6256
1247.612	6384
1249.896	6364
1252.178	6373
1254.461	6340
1256.743	6386
1259.027	6385
1261.308	6400
1263.587	6428
1265.867	6293
1268.146	6473
1270.425	6378
1272.703	6517
1274.981	6379
1277.256	6437
1279.532	6309
1281.808	6269
1284.083	6289
1286.358	6396
1288.63	6316
1290.904	6327
1293.175	6254
1295.449	6210
1297.719	6368
1299.99	6301
1302.259	6122
1304.529	6246
1306.798	6176
1309.065	6150
1311.333	6177
1313.599	6284
1315.866	6312
1318.131	6217
1320.396	6313
1322.66	6276
1324.925	6328
1327.187	6417
1329.448	6288
1331.711	6227
1333.974	6340
1336.234	6279
1338.493	6288
1340.752	6293
1343.01	6337
1345.269	6192
1347.526	6282
1349.784	6156
1352.04	6177
1354.295	6147
1356.552	6220
1358.806	6236
1361.059	6273
1363.312	6200
1365.564	6201
1367.818	6255
1370.069	6338
1372.318	6225
1374.568	6253
1376.817	6276
1379.066	6332
1381.316	6337
1383.564	6374
1385.809	6372
1388.056	6426
1390.301	6461
1392.549	6426
1394.793	6736
1397.036	6667
1399.279	6767
1401.522	6767
1403.763	6644
1406.007	6716
1408.248	6666
1410.487	6810
1412.727	6824
1414.965	6601
1417.205	6705
1419.442	6744
1421.68	6577
1423.915	6577
1426.152	6523
1428.388	6577
1430.623	6557
1432.857	6571
1435.091	6578
1437.323	6645
1439.556	6648
1441.789	6709
1444.019	6583
1446.25	6603
1448.48	6723
1450.708	6611
1452.938	6740
1455.167	6829
1457.394	6767
1459.62	6824
1461.846	6761
1464.073	6538
1466.299	6509
1468.523	6540
1470.746	6562
1472.969	6528
1475.191	6468
1477.415	6314
1479.636	6352
1481.858	6392
1484.078	6363
1486.298	6366
1488.518	6307
1490.736	6330
1492.954	6311
1495.169	6125
1497.386	6283
1499.602	6173
1501.819	6260
1504.034	6269
1506.248	6287
1508.462	6229
1510.675	6259
1512.888	6199
1515.1	6258
1517.311	6242
1519.522	6195
1521.732	6181
1523.942	6210
1526.151	6247
1528.36	6185
1530.566	6250
1532.773	6267
1534.98	6305
1537.187	6255
1539.392	6290
1541.596	6286
1543.801	6311
1546.005	6259
1548.208	6169
1550.411	6290
1552.612	6203
1554.814	6303
1557.013	6375
1559.212	6490
1561.414	6279
1563.612	6404
1565.811	6330
1568.007	6446
1570.203	6483
1572.403	6396
1574.598	6366
1576.792	6401
1578.988	6475
1581.181	6410
1583.376	6430
1585.568	6356
1587.761	6390
1589.952	6434
1592.143	6409
1594.333	6386
1596.524	6430
1598.715	6517
1600.903	6496
1603.091	6437
1605.278	6471
1607.466	6580
1609.652	6459
1611.838	6644
1614.023	6467
1616.207	6533
1618.391	6510
1620.576	6587
1622.759	6523
1624.941	6607
1627.123	6555
1629.304	6533
1631.484	6441
1633.664	6521
1635.844	6536
1638.022	6518
1640.201	6634
1642.38	6479
1644.556	6583
1646.732	6519
1648.908	6604
1651.084	6684
1653.257	6475
1655.433	6621
1657.607	6573
1659.779	6680
1661.951	6603
1664.122	6663
1666.295	6655
1668.467	6648
1670.635	6707
1672.805	6633
1674.973	6715
1677.142	6729
1679.31	6684
1681.478	6557
1683.644	6630
1685.81	6521
1687.975	6552
1690.142	6583
1692.305	6554
1694.468	6595
1696.632	6506
1698.794	6567
1700.957	6518
1703.119	6534
1705.279	6529
1707.439	6489
1709.598	6477
1711.758	6477
1713.917	6498
1716.075	6494
1718.231	6451
1720.388	6405
1722.543	6378
1724.702	6382
1726.856	6452
1729.01	6443
1731.164	6324
1733.317	6416
1735.471	6419
1737.623	6404
1739.774	6536
1741.925	6500
1744.075	6293
1746.225	6449
1748.376	6384
1750.524	6480
1752.672	6408
1754.82	6404
1756.965	6484
1759.113	6498
1761.259	6469
1763.405	6430
1765.549	6463
1767.694	6446
1769.836	6458
1771.981	6436
1774.123	6578
1776.264	6531
1778.405	6480
1780.546	6410
1782.687	6428
1784.827	6460
1786.966	6472
1789.103	6480
1791.242	6561
1793.381	6540
1795.517	6566
1797.653	6539
1799.788	6574
1801.923	6466
1804.057	6561
1806.193	6444
1808.326	6561
1810.457	6530
1812.59	6515
1814.721	6469
1816.855	6429
1818.984	6477
1821.113	6361
1823.244	6424
1825.372	6443
1827.499	6479
1829.63	6513
1831.756	6544
1833.882	6406
1836.007	6479
1838.132	6385
1840.26	6458
1842.384	6445
1844.507	6355
1846.63	6398
1848.752	6497
1850.875	6423
1852.996	6487
1855.118	6383
1857.238	6481
1859.358	6480
1861.477	6390
1863.597	6376
1865.715	6374
1867.832	6406
1869.948	6376
1872.064	6418
1874.181	6458
1876.297	6389
1878.411	6429
1880.526	6390
1882.639	6406
1884.752	6474
1886.865	6448
1888.977	6403
1891.089	6439
1893.2	6432
1895.308	6532
1897.42	6531
1899.53	6450
1901.639	6451
1903.745	6527
1905.853	6487
1907.962	6453
1910.067	6414
1912.174	6510
1914.278	6548
1916.383	6585
1918.486	6509
1920.592	6398
1922.694	6521
1924.797	6450
1926.898	6434
1929	6649
1931.102	6518
1933.203	6498
1935.301	6630
1937.401	6656
1939.499	6559
1941.598	6702
1943.697	6517
1945.793	6581
1947.888	6633
1949.985	6482
1952.08	6588
1954.176	6522
1956.269	6435
1958.364	6525
1960.457	6526
1962.549	6549
1964.642	6554
1966.733	6520
1968.823	6475
1970.913	6529
1973.005	6537
1975.093	6624
1977.184	6489
1979.271	6481
1981.359	6493
1983.446	6520
1985.532	6618
1987.619	6446
1989.705	6389
1991.789	6437
1993.874	6629
1995.956	6518
1998.041	6479
2000.123	6503
2002.206	6405
2004.287	6450
2006.368	6452
2008.449	6370
2010.529	6451
2012.609	6425
2014.688	6545
2016.766	6406
2018.843	6506
2020.922	6388
2022.999	6470
2025.074	6492
2027.15	6416
2029.225	6450
2031.299	6458
2033.375	6430
2035.447	6534
2037.52	6433
2039.592	6456
2041.664	6463
2043.736	6548
2045.807	6441
2047.876	6520
2049.947	6541
2052.015	6409
2054.086	6465
2056.153	6527
2058.221	6458
2060.288	6454
2062.353	6407
2064.42	6371
2066.486	6435
2068.55	6574
2070.614	6451
2072.678	6433
2074.741	6473
2076.805	6487
2078.866	6523
2080.929	6435
2082.99	6464
2085.049	6528
2087.109	6602
2089.17	6471
2091.228	6490
2093.286	6378
2095.344	6507
2097.4	6458
2099.46	6548
2101.516	6354
2103.572	6499
2105.626	6523
2107.679	6418
2109.735	6438
2111.788	6351
2113.841	6432
2115.894	6528
2117.945	6457
2119.997	6428
2122.049	6406
2124.1	6540
2126.148	6479
2128.197	6489
2130.246	6392
2132.296	6450
2134.342	6478
2136.39	6456
2138.437	6557
2140.483	6451
2142.527	6383
2144.574	6488
2146.619	6364
2148.661	6484
2150.705	6401
2152.747	6433
2154.792	6426
2156.832	6394
2158.874	6424
2160.915	6494
2162.954	6308
2164.995	6457
2167.034	6459
2169.072	6306
2171.111	6478
2173.148	6428
2175.186	6372
2177.223	6305
2179.258	6317
2181.294	6398
2183.328	6421
2185.362	6345
2187.398	6373
2189.431	6326
2191.463	6435
2193.495	6334
2195.528	6282
2197.56	6297
2199.59	6329
2201.62	6265
2203.649	6355
2205.678	6250
2207.708	6311
2209.737	6364
2211.764	6196
2213.791	6193
2215.817	6275
2217.843	6236
2219.87	6357
2221.895	6299
2223.919	6212
2225.942	6295
2227.966	6386
2229.988	6236
2232.012	6109
2234.032	6265
2236.054	6194
2238.074	6349
2240.095	6283
2242.116	6274
2244.135	6240
2246.153	6369
2248.171	6278
2250.188	6258
2252.208	6226
2254.223	6330
2256.239	6288
2258.255	6371
2260.269	6279
2262.283	6292
2264.3	6186
2266.312	6350
2268.325	6346
2270.336	6201
2272.349	6254
2274.362	6341
2276.372	6314
2278.383	6195
2280.392	6252
2282.402	6365
2284.409	6187
2286.418	6211
2288.427	6221
2290.433	6391
2292.441	6179
2294.446	6168
2296.453	6179
2298.459	6330
2300.463	6254
2302.466	6314
2304.471	6257
2306.475	6321
2308.477	6198
2310.478	6162
2312.481	6273
2314.481	6204
2316.481	6250
2318.482	6343
2320.482	6210
2322.48	6265
2324.48	6211
2326.478	6212
2328.476	6163
2330.473	6332
2332.469	6150
2334.465	6157
2336.46	6238
2338.454	6162
2340.45	6169
2342.444	6206
2344.437	6248
2346.43	6201
2348.421	6117
2350.414	6151
2352.405	6143
2354.396	6106
2356.386	6202
2358.376	6088
2360.366	6104
2362.355	6116
2364.343	6178
2366.331	6015
2368.317	6091
2370.304	6066
2372.292	6122
2374.278	6079
2376.262	6103
2378.247	6022
2380.23	6149
2382.216	6102
2384.199	6151
2386.181	6035
2388.163	6066
2390.144	6161
2392.127	6041
2394.107	6030
2396.087	6057
2398.066	6109
2400.046	6136
2402.023	5995
2404.004	6120
2405.981	5970
2407.957	6094
2409.934	6015
2411.91	6124
2413.886	5916
2415.862	6063
2417.836	6110
2419.809	6058
2421.784	5896
2423.756	6034
2425.73	6040
2427.701	6008
2429.672	6041
2431.644	6029
2433.615	5995
2435.586	6017
2437.555	6024
2439.523	6114
2441.491	6106
2443.459	5927
2445.428	6075
2447.395	6006
2449.361	6113
2451.327	5983
2453.292	6065
2455.257	5995
2457.223	6042
2459.187	6035
2461.15	5956
2463.113	6039
2465.076	6003
2467.039	5989
2468.999	6020
2470.96	5903
2472.921	6028
2474.881	6022
2476.841	6032
2478.8	6024
2480.759	5892
2482.717	5887
2484.675	5988
2486.63	5971
2488.589	5862
2490.545	5915
2492.5	5984
2494.455	5970
2496.408	5925
2498.364	6005
2500.318	5943
2502.27	5952
2504.223	5915
2506.174	6065
2508.126	5941
2510.078	5930
2512.03	5934
2513.979	5886
2515.927	5889
2517.877	5865
2519.826	5875
2521.775	5938
2523.722	5951
2525.668	5896
2527.616	5881
2529.561	5958
2531.508	5921
2533.452	5962
2535.398	5887
2537.342	5965
2539.284	5836
2541.229	5908
2543.173	5860
2545.114	5984
2547.055	5903
2548.996	5884
2550.938	5909
2552.878	5872
2554.817	5790
2556.756	5853
2558.695	5939
2560.633	5832
2562.572	5824
2564.509	5877
2566.445	5998
2568.382	5869
2570.317	5958
2572.254	5833
2574.189	5966
2576.123	5859
2578.057	5751
2579.99	5933
2581.923	5962
2583.855	5882
2585.788	5893
2587.719	5863
2589.65	5973
2591.579	5882
2593.511	5863
2595.44	5920
2597.37	5824
2599.297	5970
2601.225	5981
2603.153	5945
2605.08	5832
2607.007	5856
2608.932	6079
2610.858	5846
2612.782	5962
2614.709	5922
2616.632	6009
2618.556	5853
2620.478	5875
2622.401	5877
2624.324	5930
2626.247	5873
2628.167	5897
2630.088	6029
2632.008	5968
2633.928	5886
2635.848	5902
2637.766	5846
2639.684	5890
2641.603	5771
2643.519	5791
2645.437	5968
2647.353	5839
2649.27	5897
2651.184	5886
2653.099	5829
2655.014	5865
2656.928	5822
2658.842	5997
2660.755	5877
2662.667	5940
2664.579	5817
2666.491	5975
2668.402	5895
2670.312	5918
2672.222	5924
2674.132	5834
2676.042	5870
2677.951	5869
2679.859	5886
2681.766	5837
2683.674	5879
2685.582	5719
2687.488	5811
2689.392	5838
2691.298	5818
2693.202	5845
2695.107	5902
2697.012	5820
2698.914	5805
2700.817	5848
2702.72	5790
2704.622	5769
2706.524	5870
2708.425	5781
2710.326	5790
2712.225	5746
2714.125	5844
2716.024	5818
2717.923	5832
2719.822	5837
2721.719	5779
2723.616	5728
2725.512	5814
2727.41	5820
2729.305	5759
2731.201	5843
2733.095	5791
2734.99	5792
2736.884	5680
2738.778	5760
2740.67	5720
2742.562	5770
2744.455	5736
2746.346	5840
2748.238	5819
2750.129	5788
2752.018	5747
2753.907	5825
2755.797	5803
2757.687	5775
2759.575	5751
2761.462	5838
2763.349	5784
2765.237	5801
2767.124	5757
2769.009	5665
2770.894	5830
2772.779	5632
2774.663	5831
2776.547	5737
2778.431	5733
2780.314	5745
2782.197	5723
2784.078	5627
2785.96	5800
2787.842	5676
2789.723	5701
2791.603	5668
2793.483	5636
2795.362	5708
2797.241	5739
2799.121	5702
2800.997	5654
2802.874	5679
2804.751	5688
2806.628	5632
2808.506	5677
2810.38	5629
2812.255	5683
2814.13	5722
2816.003	5698
2817.878	5656
2819.752	5730
2821.623	5789
2823.496	5741
2825.368	5724
2827.238	5740
2829.111	5759
2830.98	5676
2832.851	5802
2834.719	5727
2836.589	5733
2838.458	5835
2840.327	5738
2842.193	5809
2844.061	5780
2845.927	5809
2847.794	5888
2849.66	5761
2851.525	5816
2853.39	5837
2855.254	5917
2857.117	5910
2858.983	5891
2860.845	5995
2862.707	5979
2864.569	5917
2866.431	5983
2868.293	6015
2870.154	6121
2872.013	6177
2873.873	6115
2875.733	6244
2877.592	6230
2879.451	6455
2881.309	6398
2883.166	6406
2885.022	6480
2886.879	6602
2888.736	6632
2890.591	6597
2892.446	6695
2894.301	6685
2896.155	6645
2898.009	6630
2899.863	6613
2901.716	6572
2903.568	6653
2905.419	6593
2907.27	6614
2909.123	6709
2910.973	6602
2912.824	6637
2914.673	6714
2916.521	6846
2918.372	6787
2920.22	6891
2922.067	6773
2923.914	6960
2925.761	7071
2927.607	7024
2929.455	7028
2931.301	7095
2933.144	7110
2934.99	7129
2936.833	7223
2938.678	7256
2940.522	7380
2942.364	7462
2944.207	7631
2946.048	7708
2947.891	7849
2949.731	7956
2951.571	7904
2953.412	7895
2955.25	7843
2957.09	7791
2958.93	7663
2960.767	7665
2962.606	7455
2964.443	7429
2966.279	7294
2968.116	7067
2969.953	7180
2971.788	7101
2973.623	6853
2975.457	6838
2977.292	6682
2979.127	6614
2980.959	6677
2982.792	6515
2984.624	6520
2986.455	6300
2988.288	6366
2990.119	6401
2991.949	6307
2993.779	6298
2995.608	6218
2997.439	6242
2999.268	6137
3001.096	6004
3002.923	5974
3004.751	5869
3006.578	5884
3008.406	5887
3010.232	5858
3012.057	5799
3013.883	5799
3015.706	5793
3017.532	5656
3019.356	5742
3021.179	5675
3023.002	5698
3024.823	5552
3026.646	5641
3028.469	5449
3030.289	5518
3032.11	5529
3033.93	5526
3035.749	5444
3037.57	5485
3039.39	5529
3041.207	5616
3043.026	5481
3044.842	5454
3046.661	5408
3048.477	5558
3050.294	5421
3052.109	5365
3053.925	5431
3055.739	5514
3057.555	5538
3059.368	5381
3061.181	5451
3062.995	5390
3064.807	5472
3066.62	5533
3068.433	5389
3070.243	5479
3072.054	5364
3073.865	5420
3075.675	5358
3077.485	5386
3079.293	5410
3081.102	5453
3082.911	5390
3084.719	5366
3086.527	5322
3088.333	5351
3090.139	5300
3091.945	5276
3093.75	5350
3095.557	5291
3097.361	5319
3099.165	5338
3100.969	5339
3102.772	5193
3104.575	5397
3106.379	5204
3108.181	5249
3109.982	5312
3111.783	5260
3113.584	5255
3115.386	5266
3117.186	5268
3118.985	5257
3120.783	5156
3122.582	5221
3124.381	5246
3126.179	5174
3127.975	5262
3129.772	5108
3131.569	5167
3133.365	5138
3135.161	5121
3136.956	5258
3138.751	5150
3140.544	5157
3142.338	5179
3144.132	5090
3145.925	5150
3147.717	5041
3149.509	5065
3151.301	5126
3153.091	5040
3154.884	5211
3156.673	5083
3158.462	5158
3160.252	5092
3162.041	5062
3163.831	5163
3165.618	5161
3167.405	5139
3169.193	5100
3170.979	5124
3172.767	5115
3174.553	5130
3176.338	5180
3178.123	5116
3179.907	5059
3181.692	5140
3183.477	5063
3185.259	5120
3187.042	5092
3188.824	5138
3190.607	5090
3192.389	5089
3194.17	5056
3195.951	5200
3197.73	5158
3199.51	5123
3201.289	5096
3203.07	4967
3204.848	5044
3206.626	5096
3208.403	5029
3210.18	5056
3211.959	5115
3213.735	5056
3215.511	5112
3217.285	5012
3219.06	5040
3220.836	5032
3222.611	5086
3224.384	5053
3226.158	5087
3227.929	5092
3229.702	5120
3231.476	5052
3233.248	5052
3235.018	5107
3236.789	5098
3238.56	4951
3240.33	5176
3242.1	5053
3243.869	5056
3245.637	5082
3247.405	5064
3249.172	5067
3250.941	5076
3252.707	4917
3254.474	4946
3256.24	5035
3258.006	5041
3259.772	5119
3261.537	5085
3263.301	5120
3265.065	5085
3266.828	5020
3268.592	5031
3270.355	5136
3272.117	5029
3273.878	5054
3275.64	5032
3277.401	5115
3279.162	5090
3280.922	5033
3282.682	5126
3284.441	5107
3286.199	5039
3287.959	4996
3289.716	4935
3291.475	5082
3293.232	5026
3294.988	5131
3296.744	5062
3298.501	5083
3300.256	5073
3302.011	5041
3303.766	4988
3305.52	5031
3307.275	5008
3309.028	4937
3310.781	5003
3312.533	5144
3314.285	5044
3316.038	5076
3317.789	4988
3319.54	4987
3321.289	5012
3323.039	4960
3324.789	4974
3326.539	5091
3328.288	4982
3330.035	5063
3331.783	4959
3333.531	4953
3335.28	5045
3337.025	4960
3338.771	5000
3340.518	4943
3342.262	4966
3344.009	4935
3345.753	4959
3347.497	5038
3349.24	4975
3350.983	4888
3352.726	5030
3354.469	4937
3356.212	4847
3357.952	4881
3359.694	5096
3361.434	4857
3363.176	4875
3364.916	4855
3366.654	4909
3368.394	4903
3370.132	4856
3371.871	4908
3373.61	4883
3375.346	4814
3377.083	4892
3378.82	4817
3380.556	4803
3382.292	4859
3384.027	4867
3385.763	4864
3387.497	4856
3389.231	4870
3390.965	4816
3392.698	4754
3394.431	4879
3396.164	4848
3397.896	4809
3399.627	4726
3401.36	4857
3403.09	4860
3404.82	4835
3406.55	4742
3408.279	4775
3410.01	4890
3411.738	4770
3413.467	4784
3415.194	4744
3416.92	4689
3418.647	4797
3420.375	4729
3422.102	4765
3423.827	4775
3425.553	4736
3427.277	4664
3429.003	4755
3430.727	4688
3432.451	4620
3434.173	4604
3435.896	4730
3437.62	4671
3439.343	4730
3441.063	4627
3442.785	4591
3444.505	4601
3446.226	4608
3447.948	4689
3449.666	4561
3451.386	4651
3453.104	4646
3454.823	4605
3456.541	4579
3458.259	4544
3459.976	4584
3461.693	4624
3463.408	4582
3465.125	4529
3466.841	4547
3468.556	4524
3470.271	4512
3471.985	4440
3473.698	4548
3475.414	4529
3477.126	4498
3478.838	4491
3480.55	4514
3482.263	4476
3483.975	4451
3485.686	4523
3487.396	4492
3489.106	4490
3490.817	4566
3492.526	4473
3494.236	4432
3495.944	4461
3497.652	4417
3499.359	4496
3501.066	4334
3502.775	4534
3504.481	4423
3506.187	4427
3507.893	4446
3509.598	4332
3511.304	4374
3513.009	4342
3514.713	4402
3516.417	4448
3518.12	4337
3519.821	4284
3521.525	4337
3523.228	4304
3524.929	4413
3526.631	4379
3528.33	4295
3530.032	4305
3531.733	4423
3533.433	4370
3535.131	4261
3536.83	4260
3538.529	4342
3540.227	4264
3541.925	4253
3543.623	4198
3545.319	4302
3547.016	4333
3548.712	4254
3550.408	4231
3552.103	4229
3553.798	4207
3555.491	4276
3557.188	4239
3558.88	4201
3560.574	4192
3562.266	4259
3563.959	4138
3565.651	4160
3567.343	4205
3569.035	4195
3570.725	4166
3572.415	4175
3574.106	4137
3575.797	4184
3577.485	4236
3579.174	4182
3580.863	4165
3582.551	4159
3584.238	4219
3585.926	4142
3587.613	4176
3589.3	4174
3590.986	4154
3592.671	4184
3594.357	4147
3596.042	4238
3597.726	4127
3599.41	4030
3601.094	4111
3602.778	4114
3604.461	4030
3606.143	4025
3607.825	4076
3609.507	4032
3611.188	4077
3612.87	4061
3614.551	4088
3616.229	4003
3617.909	4024
3619.589	3999
3621.269	3982
3622.948	3991
3624.625	3939
3626.302	3913
3627.98	3957
3629.657	4004
3631.334	3889
3633.01	3917
3634.686	3898
3636.361	3987
3638.036	3994
3639.712	3871
3641.385	3946
3643.06	3897
3644.732	3893
3646.405	4025
3648.08	3785
3649.751	3945
3651.424	3879
3653.094	3897
3654.766	3898
3656.436	3878
3658.106	3897
3659.777	3865
3661.446	3898
3663.115	3829
3664.783	3874
3666.452	3821
3668.121	3913
3669.788	3780
3671.454	3887
3673.121	3808
3674.789	3799
3676.455	3883
3678.12	3833
3679.784	3798
3681.45	3815
3683.114	3872
3684.779	3867
3686.442	3832
3688.105	3801
3689.768	3767
3691.43	3754
3693.093	3803
3694.754	3802
3696.415	3685
3698.076	3786
3699.736	3769
3701.396	3783
3703.057	3766
3704.716	3826
3706.375	3852
3708.034	3797
3709.692	3771
3711.351	3756
3713.008	3812
3714.665	3742
3716.321	3731
3717.977	3807
3719.634	3640
3721.29	3791
3722.945	3751
3724.598	3767
3726.253	3777
3727.907	3710
3729.561	3748
3731.214	3781
3732.867	3688
3734.518	3639
3736.171	3693
3737.824	3755
3739.474	3706
3741.125	3729
3742.775	3648
3744.425	3672
3746.074	3681
3747.725	3676
3749.373	3732
3751.022	3680
3752.669	3624
3754.318	3674
3755.966	3632
3757.612	3609
3759.259	3660
3760.905	3634
3762.55	3651
3764.197	3673
3765.842	3612
3767.486	3617
3769.131	3581
3770.774	3598
3772.417	3644
3774.061	3584
3775.705	3665
3777.347	3570
3778.988	3596
3780.629	3724
3782.271	3627
3783.912	3590
3785.552	3568
3787.192	3620
3788.831	3569
3790.472	3571
3792.112	3565
3793.75	3581
3795.388	3585
3797.024	3526
3798.661	3603
3800.3	3535
3801.936	3628
3803.572	3565
3805.208	3589
3806.844	3581
3808.48	3609
3810.115	3507
3811.748	3485
3813.382	3497
3815.016	3465
3816.649	3535
3818.283	3523
3819.914	3476
3821.547	3589
3823.178	3541
3824.809	3518
3826.441	3519
3828.072	3551
3829.701	3480
3831.331	3484
3832.96	3467
3834.591	3488
3836.219	3504
3837.847	3503
3839.475	3449
3841.102	3492
3842.729	3438
3844.357	3516
3845.984	3423
3847.609	3462
3849.234	3394
3850.86	3464
3852.485	3559
3854.11	3437
3855.734	3411
3857.357	3431
3858.981	3463
3860.603	3427
3862.227	3367
3863.848	3379
3865.471	3450
3867.092	3381
3868.713	3341
3870.334	3446
3871.954	3433
3873.575	3450
3875.194	3379
3876.813	3438
3878.433	3422
3880.051	3377
3881.669	3452
3883.286	3374
3884.904	3329
3886.52	3404
3888.138	3363
3889.754	3322
3891.37	3462
3892.985	3351
3894.6	3408
3896.216	3347
3897.831	3379
3899.444	3394
3901.058	3339
3902.67	3404
3904.283	3405
3905.897	3419
3907.509	3372
3909.121	3344
3910.731	3330
3912.342	3303
3913.954	3369
3915.563	3394
3917.174	3310
3918.783	3308
3920.391	3278
3922.002	3260
3923.611	3336
3925.218	3340
3926.826	3368
3928.432	3380
3930.039	3335
3931.647	3397
3933.253	3366
3934.859	3317
3936.464	3380
3938.068	3280
3939.675	3335
3941.278	3246
3942.883	3379
3944.486	3292
3946.089	3343
3947.692	3260
3949.295	3343
3950.898	3284
3952.499	3415
3954.1	3293
3955.7	3359
3957.303	3244
3958.903	3301
3960.502	3227
3962.101	3278
3963.7	3285
3965.301	3179
3966.899	3286
3968.497	3222
3970.094	3225
3971.691	3240
3973.288	3279
3974.885	3138
3976.481	3182
3978.077	3281
3979.672	3255
3981.267	3122
3982.863	3223
3984.457	3283
3986.051	3252
3987.645	3229
3989.238	3170
3990.831	3221
3992.425	3162
3994.017	3211
3995.607	3222
3997.199	3274
3998.79	3217
4000.382	3225
4001.973	3241
4003.561	3144
4005.151	3149
4006.741	3132
4008.331	3132
4009.918	3143
4011.507	3097
4013.095	3114
4014.681	3115
4016.269	3147
4017.856	3127
4019.443	3184
4021.028	3147
4022.614	3100
4024.199	3136
4025.785	3145
4027.37	3103
4028.953	3039
4030.536	3069
4032.12	3054
4033.704	3144
4035.287	3118
4036.869	3076
4038.45	3133
4040.032	3093
4041.613	3037
4043.195	3048
4044.776	3033
4046.356	3046
4047.935	3036
4049.515	3120
4051.095	3023
4052.674	3063
4054.251	3061
4055.829	3030
4057.406	3006
4058.985	3073
4060.562	3015
4062.139	3005
4063.715	3004
4065.29	3049
4066.865	3035
4068.442	3011
4070.016	2949
4071.59	2961
4073.164	3040
4074.738	2993
4076.312	3017
4077.885	3006
4079.458	3042
4081.03	2967
4082.602	2977
4084.173	3083
4085.745	2971
4087.315	3023
4088.886	3032
4090.456	3015
4092.026	2963
4093.596	2999
4095.165	2969
4096.734	2991
4098.301	2989
4099.869	3049
4101.437	2964
4103.006	2938
4104.572	2949
4106.139	2961
4107.704	2927
4109.27	2947
4110.837	2926
4112.401	2995
4113.966	2879
4115.53	2904
4117.094	2961
4118.659	2995
4120.223	2848
4121.785	2967
4123.347	2947
4124.909	2928
4126.471	2965
4128.034	2924
4129.595	2914
4131.155	2854
4132.716	2927
4134.275	2900
4135.836	2977
4137.395	2893
4138.955	2841
4140.513	2845
4142.071	2876
4143.628	2859
4145.188	2757
4146.745	2892
4148.302	2810
4149.858	2871
4151.414	2866
4152.971	2892
4154.526	2850
4156.081	2877
4157.635	2835
4159.189	2777
4160.745	2811
4162.298	2819
4163.852	2866
4165.405	2858
4166.957	2812
4168.51	2804
4170.063	2850
4171.614	2742
4173.166	2806
4174.717	2860
4176.267	2784
4177.817	2819
4179.368	2786
4180.917	2817
4182.466	2771
4184.016	2766
4185.564	2820
4187.112	2788
4188.66	2822
4190.207	2711
4191.754	2710
4193.301	2753
4194.848	2799
4196.394	2784
4197.94	2745
4199.484	2769
4201.03	2730
4202.575	2686
4204.12	2635
4205.663	2743
4207.207	2708
4208.75	2782
4210.292	2768
4211.836	2770
4213.378	2740
4214.92	2709
4216.46	2736
4218.002	2768
4219.544	2646
4221.083	2759
4222.625	2727
4224.164	2751
4225.703	2755
4227.244	2722
4228.782	2719
4230.32	2682
4231.857	2690
4233.395	2663
4234.933	2644
4236.471	2700
4238.007	2731
4239.542	2699
4241.078	2739
4242.614	2675
4244.15	2658
4245.685	2644
4247.219	2717
4248.753	2718
4250.287	2652
4251.82	2687
4253.354	2703
4254.887	2603
4256.419	2645
4257.951	2614
4259.483	2670
4261.016	2614
4262.547	2676
4264.078	2666
4265.608	2696
4267.137	2683
4268.668	2601
4270.197	2653
4271.727	2591
4273.254	2669
4274.783	2664
4276.311	2624
4277.84	2680
4279.366	2618
4280.894	2664
4282.42	2665
4283.946	2689
4285.473	2582
4286.998	2636
4288.523	2602
4290.047	2658
4291.572	2603
4293.096	2564
4294.622	2598
4296.144	2581
4297.668	2601
4299.19	2658
4300.713	2611
4302.236	2586
4303.758	2658
4305.279	2524
4306.799	2556
4308.321	2590
4309.842	2560
4311.361	2525
4312.882	2538
4314.401	2552
