400.0961	3812
402.6185	3819
405.1424	3766
407.6635	3807
410.1838	3792
412.7035	3795
415.2225	3809
417.7388	3851
420.2585	3926
422.7754	4015
425.2917	4025
427.8072	4090
430.3221	4100
432.8363	4064
435.3498	4145
437.8626	4131
440.3727	4061
442.8841	4107
445.3969	4091
447.907	4079
450.4142	4095
452.9229	4099
455.4289	4092
457.9362	4137
460.4449	4082
462.9488	3963
465.454	3984
467.9566	4059
470.4604	4013
472.9637	3981
475.4662	3998
477.966	3969
480.4671	4079
482.9656	4007
485.4633	4048
487.9645	3968
490.4608	4083
492.9566	4062
495.4536	4096
497.948	3945
500.4437	4172
502.9387	4037
505.431	4133
507.9226	4055
510.4136	4089
512.9079	4103
515.3975	4103
517.8864	4163
520.3746	4297
522.8622	4114
525.3491	4165
527.8394	4153
530.3249	4083
532.8098	4179
535.2939	4088
537.7774	4308
540.2623	4208
542.7444	4197
545.2259	4187
547.7067	4172
550.1868	4189
552.6683	4163
555.147	4171
557.6231	4147
560.1005	4208
562.5773	4250
565.0534	4233
567.5308	4224
570.0056	4265
572.4776	4271
574.951	4376
577.4237	4359
579.8978	4379
582.3671	4356
584.8378	4439
587.3079	4378
589.7773	4335
592.244	4370
594.714	4393
597.1793	4374
599.6461	4352
602.1121	4281
604.5754	4261
607.0421	4296
609.5042	4237
611.9675	4356
614.4282	4286
616.8902	4391
619.3515	4278
621.8122	4348
624.2702	4296
626.7296	4353
629.1863	4283
631.6423	4296
634.1017	4180
636.5563	4236
639.0104	4241
641.4658	4235
643.9185	4267
646.3725	4272
648.8239	4297
651.2766	4326
653.7266	4409
656.176	4360
658.6247	4269
661.0748	4338
663.5242	4343
665.9709	4319
668.417	4413
670.8624	4410
673.3092	4363
675.7533	4399
678.1968	4408
680.6395	4350
683.0817	4412
685.5251	4355
687.9659	4440
690.4061	4458
692.8456	4478
695.2844	4511
697.7226	4459
700.1621	4462
702.599	4484
705.0332	4464
707.4688	4549
709.9036	4529
712.3399	4563
714.7735	4523
717.2044	4442
719.6367	4610
722.0683	4558
724.4993	4603
726.9296	4567
729.3593	4534
731.7883	4591
734.2147	4599
736.6423	4637
739.0714	4671
741.4958	4519
743.9216	4586
746.3447	4701
748.7691	4739
751.1929	4780
753.616	4790
756.0366	4692
758.4584	4649
760.8776	4764
763.2982	4723
765.718	4748
768.1373	4707
770.5539	4760
772.9698	4696
775.3871	4771
777.8038	4755
780.2178	4756
782.6332	4815
785.0459	4735
787.458	4873
789.8714	4755
792.2842	4828
794.6943	4705
797.1038	4757
799.5127	4759
801.9209	4746
804.3324	4692
806.7393	4850
809.1456	4810
811.5513	4806
813.9562	4855
816.3625	4823
818.7663	4925
821.1693	4929
823.5718	4837
825.9735	4878
828.3746	4687
830.7771	4830
833.177	4856
835.5762	4905
837.9747	4788
840.3727	4845
842.772	4963
845.1666	4897
847.5626	5025
849.958	4937
852.3527	5066
854.7488	4971
857.1403	5084
859.5331	5030
861.9253	4896
864.3168	4986
866.7057	4953
869.098	4981
871.4876	4944
873.8746	4964
876.263	4951
878.6487	4920
881.0378	4892
883.4243	5072
885.8081	4939
888.1933	4892
890.5759	4952
892.9598	4901
895.343	4952
897.7256	4903
900.1057	4955
902.4871	4929
904.8659	5020
907.246	4923
909.6254	5054
912.0023	4996
914.3786	5206
916.7562	5214
919.1331	5377
921.5074	5427
923.8831	5340
926.2562	5413
928.6287	5378
931.0005	5377
933.3757	5400
935.7462	5492
938.1162	5441
940.4855	5448
942.8542	5611
945.2242	5649
947.5916	5628
949.9584	5869
952.3266	6060
954.6921	6390
957.0571	6588
959.4233	6834
961.787	7077
964.15	7007
966.5125	6705
968.8742	6478
971.2354	6167
973.5959	5820
975.9559	5706
978.3151	5460
980.6738	5364
983.0338	5305
985.3912	5290
987.7461	5230
990.1022	5230
992.4578	5196
994.8127	5129
997.1689	5253
999.5207	5220
1001.874	5254
1004.226	5293
1006.576	5264
1008.929	5273
1011.28	5157
1013.628	5232
1015.977	5171
1018.324	5170
1020.674	5292
1023.019	5202
1025.366	5289
1027.713	5197
1030.056	5251
1032.399	5281
1034.746	5386
1037.087	5300
1039.431	5267
1041.771	5364
1044.113	5305
1046.454	5188
1048.793	5329
1051.133	5272
1053.471	5313
1055.807	5279
1058.146	5478
1060.483	5284
1062.818	5317
1065.153	5456
1067.489	5449
1069.822	5421
1072.156	5434
1074.488	5368
1076.82	5589
1079.15	5322
1081.48	5396
1083.814	5522
1086.143	5322
1088.471	5366
1090.799	5297
1093.126	5375
1095.452	5379
1097.78	5298
1100.105	5255
1102.43	5309
1104.754	5302
1107.077	5321
1109.4	5352
1111.722	5305
1114.044	5338
1116.365	5252
1118.685	5314
1121.005	5330
1123.324	5259
1125.643	5294
1127.961	5385
1130.278	5234
1132.595	5277
1134.911	5294
1137.226	5218
1139.541	5257
1141.854	5155
1144.167	5331
1146.482	5320
1148.793	5200
1151.105	5272
1153.414	5348
1155.725	5272
1158.033	5307
1160.344	5336
1162.651	5229
1164.959	5365
1167.265	5305
1169.572	5363
1171.878	5355
1174.184	5377
1176.488	5175
1178.79	5348
1181.094	5335
1183.396	5399
1185.699	5334
1188.001	5298
1190.301	5260
1192.6	5324
1194.9	5307
1197.2	5294
1199.497	5341
1201.794	5348
1204.09	5273
1206.387	5412
1208.684	5307
1210.978	5278
1213.272	5306
1215.565	5329
1217.858	5274
1220.15	5318
1222.443	5352
1224.734	5406
1227.024	5391
1229.313	5411
1231.602	5376
1233.892	5496
1236.18	5528
1238.467	5498
1240.754	5586
1243.04	5618
1245.325	5541
1247.612	5594
1249.896	5609
1252.178	5622
1254.461	5616
1256.743	5495
1259.027	5549
1261.308	5562
1263.587	5560
1265.867	5512
1268.146	5636
1270.425	5688
1272.703	5644
1274.981	5745
1277.256	5626
1279.532	5582
1281.808	5544
1284.083	5504
1286.358	5556
1288.63	5427
1290.904	5514
1293.175	5397
1295.449	5459
1297.719	5403
1299.99	5449
1302.259	5505
1304.529	5501
1306.798	5460
1309.065	5423
1311.333	5553
1313.599	5476
1315.866	5606
1318.131	5501
1320.396	5505
1322.66	5472
1324.925	5501
1327.187	5439
1329.448	5496
1331.711	5599
1333.974	5548
1336.234	5558
1338.493	5560
1340.752	5589
1343.01	5552
1345.269	5479
1347.526	5594
1349.784	5366
1352.04	5429
1354.295	5440
1356.552	5426
1358.806	5478
1361.059	5451
1363.312	5459
1365.564	5380
1367.818	5550
1370.069	5499
1372.318	5439
1374.568	5478
1376.817	5527
1379.066	5521
1381.316	5559
1383.564	5501
1385.809	5568
1388.056	5653
1390.301	5652
1392.549	5661
1394.793	5692
1397.036	5747
1399.279	5729
1401.522	5865
1403.763	5767
1406.007	5772
1408.248	5750
1410.487	5789
1412.727	5711
1414.965	5864
1417.205	5635
1419.442	5793
1421.68	5609
1423.915	5731
1426.152	5745
1428.388	5663
1430.623	5660
1432.857	5658
1435.091	5810
1437.323	5794
1439.556	5782
1441.789	5870
1444.019	5880
1446.25	5841
1448.48	5899
1450.708	5799
1452.938	5834
1455.167	6041
1457.394	5928
1459.62	5864
1461.846	5895
1464.073	5782
1466.299	5876
1468.523	5775
1470.746	5682
1472.969	5676
1475.191	5570
1477.415	5643
1479.636	5607
1481.858	5589
1484.078	5663
1486.298	5557
1488.518	5550
1490.736	5498
1492.954	5468
1495.169	5454
1497.386	5482
1499.602	5475
1501.819	5446
1504.034	5456
1506.248	5426
1508.462	5428
1510.675	5386
1512.888	5406
1515.1	5403
1517.311	5490
1519.522	5339
1521.732	5440
1523.942	5482
1526.151	5427
1528.36	5326
1530.566	5427
1532.773	5447
1534.98	5523
1537.187	5360
1539.392	5463
1541.596	5468
1543.801	5422
1546.005	5514
1548.208	5420
1550.411	5570
1552.612	5448
1554.814	5540
1557.013	5545
1559.212	5562
1561.414	5522
1563.612	5457
1565.811	5512
1568.007	5619
1570.203	5597
1572.403	5467
1574.598	5598
1576.792	5547
1578.988	5711
1581.181	5629
1583.376	5648
1585.568	5638
1587.761	5626
1589.952	5616
1592.143	5685
1594.333	5532
1596.524	5619
1598.715	5594
1600.903	5697
1603.091	5696
1605.278	5568
1607.466	5640
1609.652	5622
1611.838	5698
1614.023	5669
1616.207	5684
1618.391	5711
1620.576	5691
1622.759	5630
1624.941	5684
1627.123	5645
1629.304	5705
1631.484	5763
1633.664	5674
1635.844	5763
1638.022	5680
1640.201	5759
1642.38	5730
1644.556	5782
1646.732	5762
1648.908	5828
1651.084	5848
1653.257	5824
1655.433	5794
1657.607	5811
1659.779	5873
1661.951	5810
1664.122	5840
1666.295	5792
1668.467	5838
1670.635	5872
1672.805	5903
1674.973	5848
1677.142	5814
1679.31	5877
1681.478	5811
1683.644	5818
1685.81	5930
1687.975	5802
1690.142	5730
1692.305	5648
1694.468	5798
1696.632	5788
1698.794	5660
1700.957	5691
1703.119	5691
1705.279	5668
1707.439	5753
1709.598	5655
1711.758	5623
1713.917	5518
1716.075	5586
1718.231	5606
1720.388	5656
1722.543	5547
1724.702	5796
1726.856	5686
1729.01	5665
1731.164	5589
1733.317	5557
1735.471	5596
1737.623	5570
1739.774	5513
1741.925	5671
1744.075	5616
1746.225	5655
1748.376	5579
1750.524	5605
1752.672	5645
1754.82	5574
1756.965	5583
1759.113	5647
1761.259	5704
1763.405	5681
1765.549	5620
1767.694	5586
1769.836	5665
1771.981	5706
1774.123	5644
1776.264	5621
1778.405	5643
1780.546	5631
1782.687	5666
1784.827	5654
1786.966	5662
1789.103	5678
1791.242	5659
1793.381	5622
1795.517	5722
1797.653	5791
1799.788	5693
1801.923	5681
1804.057	5750
1806.193	5720
1808.326	5634
1810.457	5653
1812.59	5546
1814.721	5673
1816.855	5671
1818.984	5607
1821.113	5679
1823.244	5620
1825.372	5711
1827.499	5714
1829.63	5587
1831.756	5587
1833.882	5679
1836.007	5664
1838.132	5580
1840.26	5578
1842.384	5580
1844.507	5581
1846.63	5547
1848.752	5623
1850.875	5693
1852.996	5565
1855.118	5591
1857.238	5600
1859.358	5551
1861.477	5580
1863.597	5634
1865.715	5584
1867.832	5694
1869.948	5682
1872.064	5692
1874.181	5529
1876.297	5610
1878.411	5659
1880.526	5657
1882.639	5500
1884.752	5576
1886.865	5606
1888.977	5634
1891.089	5623
1893.2	5691
1895.308	5648
1897.42	5643
1899.53	5674
1901.639	5677
1903.745	5624
1905.853	5711
1907.962	5612
1910.067	5697
1912.174	5659
1914.278	5669
1916.383	5768
1918.486	5755
1920.592	5723
1922.694	5729
1924.797	5675
1926.898	5648
1929	5873
1931.102	5699
1933.203	5702
1935.301	5765
1937.401	5685
1939.499	5679
1941.598	5729
1943.697	5760
1945.793	5657
1947.888	5754
1949.985	5668
1952.08	5706
1954.176	5761
1956.269	5625
1958.364	5677
1960.457	5667
1962.549	5784
1964.642	5678
1966.733	5673
1968.823	5699
1970.913	5747
1973.005	5533
1975.093	5604
1977.184	5739
1979.271	5625
1981.359	5611
1983.446	5636
1985.532	5615
1987.619	5655
1989.705	5702
1991.789	5645
1993.874	5653
1995.956	5670
1998.041	5636
2000.123	5585
2002.206	5502
2004.287	5632
2006.368	5618
2008.449	5594
2010.529	5578
2012.609	5701
2014.688	5550
2016.766	5639
2018.843	5619
2020.922	5624
2022.999	5658
2025.074	5703
2027.15	5738
2029.225	5581
2031.299	5685
2033.375	5562
2035.447	5611
2037.52	5610
2039.592	5631
2041.664	5692
2043.736	5584
2045.807	5681
2047.876	5560
2049.947	5699
2052.015	5630
2054.086	5685
2056.153	5618
2058.221	5568
2060.288	5663
2062.353	5646
2064.42	5653
2066.486	5710
2068.55	5585
2070.614	5699
2072.678	5625
2074.741	5662
2076.805	5679
2078.866	5701
2080.929	5533
2082.99	5633
2085.049	5638
2087.109	5771
2089.17	5649
2091.228	5647
2093.286	5672
2095.344	5667
2097.4	5682
2099.46	5672
2101.516	5721
2103.572	5598
2105.626	5750
2107.679	5763
2109.735	5586
2111.788	5637
2113.841	5630
2115.894	5606
2117.945	5701
2119.997	5719
2122.049	5580
2124.1	5593
2126.148	5644
2128.197	5657
2130.246	5614
2132.296	5564
2134.342	5670
2136.39	5583
2138.437	5604
2140.483	5659
2142.527	5580
2144.574	5609
2146.619	5583
2148.661	5680
2150.705	5604
2152.747	5586
2154.792	5586
2156.832	5629
2158.874	5583
2160.915	5545
2162.954	5589
2164.995	5553
2167.034	5526
2169.072	5486
2171.111	5514
2173.148	5629
2175.186	5550
2177.223	5604
2179.258	5537
2181.294	5581
2183.328	5532
2185.362	5554
2187.398	5536
2189.431	5477
2191.463	5587
2193.495	5590
2195.528	5528
2197.56	5436
2199.59	5546
2201.62	5529
2203.649	5480
2205.678	5490
2207.708	5528
2209.737	5500
2211.764	5532
2213.791	5511
2215.817	5472
2217.843	5548
2219.87	5495
2221.895	5428
2223.919	5482
2225.942	5480
2227.966	5484
2229.988	5482
2232.012	5419
2234.032	5620
2236.054	5493
2238.074	5471
2240.095	5494
2242.116	5460
2244.135	5514
2246.153	5462
2248.171	5521
2250.188	5517
2252.208	5341
2254.223	5540
2256.239	5465
2258.255	5512
2260.269	5430
2262.283	5497
2264.3	5396
2266.312	5504
2268.325	5490
2270.336	5545
2272.349	5491
2274.362	5522
2276.372	5495
2278.383	5532
2280.392	5407
2282.402	5495
2284.409	5505
2286.418	5539
2288.427	5411
2290.433	5563
2292.441	5470
2294.446	5524
2296.453	5427
2298.459	5531
2300.463	5448
2302.466	5423
2304.471	5403
2306.475	5473
2308.477	5502
2310.478	5508
2312.481	5513
2314.481	5372
2316.481	5501
2318.482	5479
2320.482	5426
2322.48	5503
2324.48	5453
2326.478	5443
2328.476	5339
2330.473	5385
2332.469	5428
2334.465	5435
2336.46	5358
2338.454	5443
2340.45	5414
2342.444	5396
2344.437	5390
2346.43	5423
2348.421	5312
2350.414	5356
2352.405	5387
2354.396	5406
2356.386	5354
2358.376	5325
2360.366	5397
2362.355	5344
2364.343	5394
2366.331	5380
2368.317	5385
2370.304	5346
2372.292	5315
2374.278	5370
2376.262	5380
2378.247	5305
2380.23	5357
2382.216	5410
2384.199	5336
2386.181	5248
2388.163	5352
2390.144	5354
2392.127	5357
2394.107	5327
2396.087	5335
2398.066	5328
2400.046	5251
2402.023	5230
2404.004	5372
2405.981	5294
2407.957	5284
2409.934	5257
2411.91	5290
2413.886	5312
2415.862	5344
2417.836	5279
2419.809	5331
2421.784	5259
2423.756	5288
2425.73	5123
2427.701	5310
2429.672	5256
2431.644	5288
2433.615	5250
2435.586	5235
2437.555	5211
2439.523	5345
2441.491	5256
2443.459	5333
2445.428	5291
2447.395	5243
2449.361	5199
2451.327	5307
2453.292	5240
2455.257	5221
2457.223	5215
2459.187	5179
2461.15	5204
2463.113	5218
2465.076	5309
2467.039	5188
2468.999	5305
2470.96	5164
2472.921	5295
2474.881	5242
2476.841	5140
2478.8	5183
2480.759	5179
2482.717	5276
2484.675	5167
2486.63	5239
2488.589	5250
2490.545	5246
2492.5	5257
2494.455	5190
2496.408	5307
2498.364	5180
2500.318	5100
2502.27	5202
2504.223	5220
2506.174	5137
2508.126	5169
2510.078	5188
2512.03	5325
2513.979	5175
2515.927	5132
2517.877	5153
2519.826	5149
2521.775	5226
2523.722	5205
2525.668	5148
2527.616	5172
2529.561	5097
2531.508	5166
2533.452	5177
2535.398	5220
2537.342	5141
2539.284	5251
2541.229	5124
2543.173	5193
2545.114	5126
2547.055	5249
2548.996	5137
2550.938	5150
2552.878	5212
2554.817	5228
2556.756	5204
2558.695	5034
2560.633	5150
2562.572	5233
2564.509	5185
2566.445	5181
2568.382	5133
2570.317	5159
2572.254	5073
2574.189	5315
2576.123	5071
2578.057	5144
2579.99	5207
2581.923	5087
2583.855	5208
2585.788	5134
2587.719	5152
2589.65	5115
2591.579	5120
2593.511	5098
2595.44	5155
2597.37	5036
2599.297	5066
2601.225	5103
2603.153	5112
2605.08	5236
2607.007	5156
2608.932	5166
2610.858	5095
2612.782	5229
2614.709	5234
2616.632	5115
2618.556	5111
2620.478	5208
2622.401	5054
2624.324	5200
2626.247	5172
2628.167	5168
2630.088	5198
2632.008	5186
2633.928	5243
2635.848	5221
2637.766	5170
2639.684	5149
2641.603	5230
2643.519	5175
2645.437	5164
2647.353	5234
2649.27	5130
2651.184	5118
2653.099	5135
2655.014	5058
2656.928	5193
2658.842	5181
2660.755	5146
2662.667	5115
2664.579	5128
2666.491	5135
2668.402	5122
2670.312	5100
2672.222	5013
2674.132	5144
2676.042	5158
2677.951	5190
2679.859	5060
2681.766	5141
2683.674	5132
2685.582	5095
2687.488	5024
2689.392	5132
2691.298	5003
2693.202	5156
2695.107	5064
2697.012	5072
2698.914	5153
2700.817	5124
2702.72	5056
2704.622	4981
2706.524	5056
2708.425	5073
2710.326	5091
2712.225	5086
2714.125	4997
2716.024	5089
2717.923	5117
2719.822	5126
2721.719	5104
2723.616	5074
2725.512	5143
2727.41	5102
2729.305	5085
2731.201	5107
2733.095	5007
2734.99	5136
2736.884	5084
2738.778	5088
2740.67	4997
2742.562	5043
2744.455	5116
2746.346	5054
2748.238	5006
2750.129	5000
2752.018	5049
2753.907	4988
2755.797	5002
2757.687	5049
2759.575	5004
2761.462	4989
2763.349	5010
2765.237	5028
2767.124	5005
2769.009	5092
2770.894	5047
2772.779	4995
2774.663	5070
2776.547	5004
2778.431	5003
2780.314	4959
2782.197	5055
2784.078	5065
2785.96	5062
2787.842	4980
2789.723	5001
2791.603	4972
2793.483	5006
2795.362	4987
2797.241	5052
2799.121	4967
2800.997	4890
2802.874	4999
2804.751	4965
2806.628	4948
2808.506	5028
2810.38	4986
2812.255	4966
2814.13	4958
2816.003	5006
2817.878	4998
2819.752	5029
2821.623	4969
2823.496	4967
2825.368	4950
2827.238	4957
2829.111	4948
2830.98	5044
2832.851	4967
2834.719	5034
2836.589	5061
2838.458	5062
2840.327	5035
2842.193	5010
2844.061	5008
2845.927	5128
2847.794	5099
2849.66	5018
2851.525	5151
2853.39	5134
2855.254	5102
2857.117	5104
2858.983	5092
2860.845	5183
2862.707	5204
2864.569	5235
2866.431	5320
2868.293	5329
2870.154	5351
2872.013	5505
2873.873	5427
2875.733	5453
2877.592	5618
2879.451	5558
2881.309	5560
2883.166	5543
2885.022	5614
2886.879	5753
2888.736	5707
2890.591	5763
2892.446	5820
2894.301	5795
2896.155	5712
2898.009	5754
2899.863	5852
2901.716	5767
2903.568	5733
2905.419	5679
2907.27	5594
2909.123	5816
2910.973	5752
2912.824	5806
2914.673	5831
2916.521	5795
2918.372	6045
2920.22	5969
2922.067	6063
2923.914	6152
2925.761	6188
2927.607	6273
2929.455	6256
2931.301	6329
2933.144	6460
2934.99	6407
2936.833	6478
2938.678	6581
2940.522	6600
2942.364	6670
2944.207	6700
2946.048	6801
2947.891	7043
2949.731	6885
2951.571	6938
2953.412	6847
2955.25	6795
2957.09	6750
2958.93	6759
2960.767	6615
2962.606	6590
2964.443	6479
2966.279	6406
2968.116	6337
2969.953	6226
2971.788	6218
2973.623	6078
2975.457	6057
2977.292	6012
2979.127	5922
2980.959	5871
2982.792	5789
2984.624	5852
2986.455	5766
2988.288	5732
2990.119	5624
2991.949	5582
2993.779	5607
2995.608	5673
2997.439	5513
2999.268	5467
3001.096	5358
3002.923	5382
3004.751	5265
3006.578	5237
3008.406	5241
3010.232	5242
3012.057	5169
3013.883	5073
3015.706	5036
3017.532	5072
3019.356	5005
3021.179	4990
3023.002	4991
3024.823	4899
3026.646	4928
3028.469	4905
3030.289	4873
3032.11	4681
3033.93	4833
3035.749	4762
3037.57	4867
3039.39	4796
3041.207	4832
3043.026	4848
3044.842	4849
3046.661	4684
3048.477	4801
3050.294	4699
3052.109	4820
3053.925	4832
3055.739	4783
3057.555	4785
3059.368	4829
3061.181	4662
3062.995	4839
3064.807	4782
3066.62	4815
3068.433	4837
3070.243	4831
3072.054	4774
3073.865	4736
3075.675	4755
3077.485	4832
3079.293	4705
3081.102	4780
3082.911	4705
3084.719	4655
3086.527	4626
3088.333	4641
3090.139	4709
3091.945	4639
3093.75	4659
3095.557	4611
3097.361	4626
3099.165	4722
3100.969	4647
3102.772	4608
3104.575	4573
3106.379	4607
3108.181	4607
3109.982	4604
3111.783	4577
3113.584	4591
3115.386	4586
3117.186	4554
3118.985	4586
3120.783	4596
3122.582	4558
3124.381	4547
3126.179	4603
3127.975	4645
3129.772	4561
3131.569	4465
3133.365	4493
3135.161	4515
3136.956	4462
3138.751	4496
3140.544	4504
3142.338	4530
3144.132	4470
3145.925	4543
3147.717	4493
3149.509	4522
3151.301	4496
3153.091	4542
3154.884	4496
3156.673	4453
3158.462	4437
3160.252	4546
3162.041	4454
3163.831	4561
3165.618	4513
3167.405	4475
3169.193	4538
3170.979	4506
3172.767	4583
3174.553	4548
3176.338	4372
3178.123	4497
3179.907	4505
3181.692	4495
3183.477	4437
3185.259	4399
3187.042	4387
3188.824	4519
3190.607	4441
3192.389	4451
3194.17	4449
3195.951	4492
3197.73	4458
3199.51	4461
3201.289	4458
3203.07	4464
3204.848	4414
3206.626	4514
3208.403	4496
3210.18	4437
3211.959	4557
3213.735	4460
3215.511	4447
3217.285	4488
3219.06	4499
3220.836	4411
3222.611	4420
3224.384	4396
3226.158	4496
3227.929	4495
3229.702	4526
3231.476	4417
3233.248	4427
3235.018	4463
3236.789	4435
3238.56	4451
3240.33	4383
3242.1	4479
3243.869	4455
3245.637	4433
3247.405	4423
3249.172	4438
3250.941	4537
3252.707	4439
3254.474	4454
3256.24	4506
3258.006	4390
3259.772	4504
3261.537	4498
3263.301	4472
3265.065	4541
3266.828	4401
3268.592	4379
3270.355	4479
3272.117	4463
3273.878	4466
3275.64	4414
3277.401	4538
3279.162	4534
3280.922	4451
3282.682	4465
3284.441	4400
3286.199	4533
3287.959	4451
3289.716	4474
3291.475	4554
3293.232	4490
3294.988	4553
3296.744	4479
3298.501	4470
3300.256	4391
3302.011	4430
3303.766	4482
3305.52	4568
3307.275	4520
3309.028	4543
3310.781	4473
3312.533	4377
3314.285	4513
3316.038	4531
3317.789	4424
3319.54	4451
3321.289	4376
3323.039	4389
3324.789	4488
3326.539	4488
3328.288	4352
3330.035	4362
3331.783	4457
3333.531	4434
3335.28	4429
3337.025	4443
3338.771	4424
3340.518	4387
3342.262	4359
3344.009	4301
3345.753	4345
3347.497	4413
3349.24	4426
3350.983	4399
3352.726	4494
3354.469	4433
3356.212	4326
3357.952	4407
3359.694	4362
3361.434	4441
3363.176	4301
3364.916	4349
3366.654	4350
3368.394	4321
3370.132	4408
3371.871	4219
3373.61	4282
3375.346	4277
3377.083	4342
3378.82	4298
3380.556	4252
3382.292	4294
3384.027	4241
3385.763	4275
3387.497	4194
3389.231	4226
3390.965	4243
3392.698	4223
3394.431	4288
3396.164	4266
3397.896	4277
3399.627	4230
3401.36	4270
3403.09	4259
3404.82	4273
3406.55	4217
3408.279	4153
3410.01	4307
3411.738	4308
3413.467	4304
3415.194	4292
3416.92	4327
3418.647	4298
3420.375	4168
3422.102	4207
3423.827	4206
3425.553	4160
3427.277	4231
3429.003	4203
3430.727	4180
3432.451	4188
3434.173	4210
3435.896	4158
3437.62	4276
3439.343	4122
3441.063	4187
3442.785	4102
3444.505	4174
3446.226	4124
3447.948	4251
3449.666	4131
3451.386	4119
3453.104	4107
3454.823	4118
3456.541	4092
3458.259	4021
3459.976	3991
3461.693	4035
3463.408	4049
3465.125	4054
3466.841	4106
3468.556	4012
3470.271	4082
3471.985	3967
3473.698	4056
3475.414	3986
3477.126	4040
3478.838	3975
3480.55	3942
3482.263	4037
3483.975	3918
3485.686	4049
3487.396	4041
3489.106	3919
3490.817	3889
3492.526	3976
3494.236	3917
3495.944	3935
3497.652	3924
3499.359	3804
3501.066	3917
3502.775	3871
3504.481	3908
3506.187	3859
3507.893	3907
3509.598	3901
3511.304	3977
3513.009	3867
3514.713	3834
3516.417	3889
3518.12	3833
3519.821	3803
3521.525	3866
3523.228	3884
3524.929	3834
3526.631	3818
3528.33	3855
3530.032	3845
3531.733	3823
3533.433	3903
3535.131	3816
3536.83	3825
3538.529	3810
3540.227	3791
3541.925	3797
3543.623	3850
3545.319	3817
3547.016	3762
3548.712	3708
3550.408	3857
3552.103	3860
3553.798	3778
3555.491	3809
3557.188	3661
3558.88	3805
3560.574	3751
3562.266	3769
3563.959	3678
3565.651	3720
3567.343	3722
3569.035	3777
3570.725	3742
3572.415	3686
3574.106	3720
3575.797	3618
3577.485	3708
3579.174	3657
3580.863	3685
3582.551	3658
3584.238	3624
3585.926	3622
3587.613	3718
3589.3	3681
3590.986	3679
3592.671	3624
3594.357	3579
3596.042	3633
3597.726	3665
3599.41	3687
3601.094	3613
3602.778	3597
3604.461	3652
3606.143	3570
3607.825	3622
3609.507	3542
3611.188	3633
3612.87	3550
3614.551	3585
3616.229	3553
3617.909	3616
3619.589	3587
3621.269	3608
3622.948	3541
3624.625	3521
3626.302	3513
3627.98	3501
3629.657	3489
3631.334	3504
3633.01	3530
3634.686	3523
3636.361	3362
3638.036	3482
3639.712	3456
3641.385	3409
3643.06	3492
3644.732	3426
3646.405	3351
3648.08	3425
3649.751	3488
3651.424	3483
3653.094	3451
3654.766	3458
3656.436	3410
3658.106	3371
3659.777	3383
3661.446	3456
3663.115	3418
3664.783	3412
3666.452	3457
3668.121	3419
3669.788	3357
3671.454	3396
3673.121	3421
3674.789	3389
3676.455	3389
3678.12	3430
3679.784	3351
3681.45	3333
3683.114	3343
3684.779	3357
3686.442	3311
3688.105	3344
3689.768	3266
3691.43	3341
3693.093	3252
3694.754	3480
3696.415	3351
3698.076	3305
3699.736	3276
3701.396	3255
3703.057	3302
3704.716	3295
3706.375	3367
3708.034	3312
3709.692	3340
3711.351	3318
3713.008	3245
3714.665	3265
3716.321	3314
3717.977	3337
3719.634	3301
3721.29	3344
3722.945	3255
3724.598	3290
3726.253	3267
3727.907	3333
3729.561	3190
3731.214	3260
3732.867	3248
3734.518	3242
3736.171	3193
3737.824	3182
3739.474	3243
3741.125	3269
3742.775	3270
3744.425	3275
3746.074	3287
3747.725	3245
3749.373	3248
3751.022	3282
3752.669	3214
3754.318	3186
3755.966	3255
3757.612	3150
3759.259	3237
3760.905	3203
3762.55	3168
3764.197	3182
3765.842	3137
3767.486	3254
3769.131	3158
3770.774	3212
3772.417	3235
3774.061	3211
3775.705	3194
3777.347	3272
3778.988	3131
3780.629	3134
3782.271	3190
3783.912	3221
3785.552	3189
3787.192	3218
3788.831	3158
3790.472	3134
3792.112	3160
3793.75	3171
3795.388	3089
3797.024	3131
3798.661	3156
3800.3	3211
3801.936	3073
3803.572	3156
3805.208	3083
3806.844	3128
3808.48	3179
3810.115	3127
3811.748	3090
3813.382	3097
3815.016	3089
3816.649	3085
3818.283	3049
3819.914	3091
3821.547	3066
3823.178	3109
3824.809	3033
3826.441	3167
3828.072	3031
3829.701	3076
3831.331	3066
3832.96	3150
3834.591	3134
3836.219	3096
3837.847	3110
3839.475	3074
3841.102	3059
3842.729	2978
3844.357	3095
3845.984	3055
3847.609	3049
3849.234	3077
3850.86	3106
3852.485	2982
3854.11	3005
3855.734	3130
3857.357	3004
3858.981	2944
3860.603	3063
3862.227	3090
3863.848	3029
3865.471	3111
3867.092	3007
3868.713	3050
3870.334	3029
3871.954	3001
3873.575	3011
3875.194	3000
3876.813	2973
3878.433	2993
3880.051	2957
3881.669	2986
3883.286	3021
3884.904	2942
3886.52	2990
3888.138	2966
3889.754	2941
3891.37	3030
3892.985	3018
3894.6	2935
3896.216	2950
3897.831	2951
3899.444	3020
3901.058	2928
3902.67	2907
3904.283	2982
3905.897	2972
3907.509	2975
3909.121	2975
3910.731	2894
3912.342	2925
3913.954	2967
3915.563	2963
3917.174	3000
3918.783	2894
3920.391	2997
3922.002	2924
3923.611	2973
3925.218	2954
3926.826	2951
3928.432	2924
3930.039	2942
3931.647	2931
3933.253	2934
3934.859	2847
3936.464	2920
3938.068	2907
3939.675	2942
3941.278	2874
3942.883	2971
3944.486	2942
3946.089	2947
3947.692	2818
3949.295	2910
3950.898	2887
3952.499	2928
3954.1	2882
3955.7	2880
3957.303	2868
3958.903	2891
3960.502	2785
3962.101	2968
3963.7	2865
3965.301	2798
3966.899	2875
3968.497	2812
3970.094	2868
3971.691	2850
3973.288	2781
3974.885	2811
3976.481	2813
3978.077	2861
3979.672	2740
3981.267	2843
3982.863	2865
3984.457	2833
3986.051	2827
3987.645	2846
3989.238	2791
3990.831	2803
3992.425	2735
3994.017	2731
3995.607	2819
3997.199	2773
3998.79	2814
4000.382	2838
4001.973	2714
4003.561	2703
4005.151	2733
4006.741	2764
4008.331	2756
4009.918	2771
4011.507	2773
4013.095	2700
4014.681	2747
4016.269	2717
4017.856	2741
4019.443	2819
4021.028	2773
4022.614	2735
4024.199	2782
4025.785	2754
4027.37	2743
4028.953	2695
4030.536	2725
4032.12	2722
4033.704	2682
4035.287	2734
4036.869	2688
4038.45	2686
4040.032	2708
4041.613	2701
4043.195	2663
4044.776	2665
4046.356	2691
4047.935	2727
4049.515	2691
4051.095	2657
4052.674	2700
4054.251	2655
4055.829	2712
4057.406	2673
4058.985	2665
4060.562	2623
4062.139	2627
4063.715	2654
4065.29	2674
4066.865	2690
4068.442	2662
4070.016	2592
4071.59	2674
4073.164	2598
4074.738	2646
4076.312	2602
4077.885	2686
4079.458	2646
4081.03	2615
4082.602	2612
4084.173	2614
4085.745	2652
4087.315	2640
4088.886	2606
4090.456	2689
4092.026	2602
4093.596	2625
4095.165	2674
4096.734	2638
4098.301	2643
4099.869	2636
4101.437	2628
4103.006	2637
4104.572	2612
4106.139	2620
4107.704	2608
4109.27	2622
4110.837	2612
4112.401	2609
4113.966	2614
4115.53	2576
4117.094	2654
4118.659	2629
4120.223	2651
4121.785	2619
4123.347	2611
4124.909	2561
4126.471	2595
4128.034	2554
4129.595	2522
4131.155	2581
4132.716	2530
4134.275	2542
4135.836	2504
4137.395	2535
4138.955	2488
4140.513	2536
4142.071	2552
4143.628	2519
4145.188	2519
4146.745	2525
4148.302	2507
4149.858	2501
4151.414	2514
4152.971	2547
4154.526	2509
4156.081	2522
4157.635	2516
4159.189	2514
4160.745	2470
4162.298	2427
4163.852	2527
4165.405	2492
4166.957	2551
4168.51	2473
4170.063	2417
4171.614	2469
4173.166	2427
4174.717	2466
4176.267	2437
4177.817	2452
4179.368	2463
4180.917	2435
4182.466	2419
4184.016	2422
4185.564	2416
4187.112	2356
4188.66	2377
4190.207	2407
4191.754	2376
4193.301	2529
4194.848	2464
4196.394	2399
4197.94	2415
4199.484	2438
4201.03	2470
4202.575	2469
4204.12	2430
4205.663	2392
4207.207	2448
4208.75	2404
4210.292	2496
4211.836	2391
4213.378	2350
4214.92	2375
4216.46	2354
4218.002	2375
4219.544	2440
4221.083	2437
4222.625	2358
4224.164	2390
4225.703	2485
4227.244	2391
4228.782	2326
4230.32	2372
4231.857	2360
4233.395	2382
4234.933	2347
4236.471	2420
4238.007	2369
4239.542	2353
4241.078	2342
4242.614	2406
4244.15	2380
4245.685	2324
4247.219	2348
4248.753	2394
4250.287	2362
4251.82	2369
4253.354	2342
4254.887	2349
4256.419	2350
4257.951	2365
4259.483	2321
4261.016	2333
4262.547	2251
4264.078	2348
4265.608	2305
4267.137	2286
4268.668	2287
4270.197	2318
4271.727	2347
4273.254	2299
4274.783	2328
4276.311	2357
4277.84	2344
4279.366	2280
4280.894	2301
4282.42	2319
4283.946	2291
4285.473	2285
4286.998	2200
4288.523	2289
4290.047	2309
4291.572	2291
4293.096	2324
4294.622	2333
4296.144	2349
4297.668	2353
4299.19	2254
4300.713	2256
4302.236	2288
4303.758	2283
4305.279	2271
4306.799	2306
4308.321	2273
4309.842	2275
4311.361	2239
4312.882	2259
4314.401	2258
