400.0961	9305
402.6185	9422
405.1424	9428
407.6635	9330
410.1838	9503
412.7035	9519
415.2225	9485
417.7388	9575
420.2585	9757
422.7754	9795
425.2917	9674
427.8072	9863
430.3221	9839
432.8363	10166
435.3498	9976
437.8626	10043
440.3727	9997
442.8841	9962
445.3969	10074
447.907	10173
450.4142	9985
452.9229	10145
455.4289	9996
457.9362	10152
460.4449	9995
462.9488	10017
465.454	10099
467.9566	10050
470.4604	10110
472.9637	10078
475.4662	10173
477.966	10140
480.4671	10403
482.9656	10294
485.4633	10237
487.9645	10301
490.4608	10158
492.9566	10265
495.4536	10361
497.948	10605
500.4437	10582
502.9387	10475
505.431	10521
507.9226	10645
510.4136	10588
512.9079	10530
515.3975	10628
517.8864	10526
520.3746	10596
522.8622	10570
525.3491	10681
527.8394	10525
530.3249	10648
532.8098	10725
535.2939	10572
537.7774	10830
540.2623	10682
542.7444	10620
545.2259	10517
547.7067	10855
550.1868	10672
552.6683	10675
555.147	10627
557.6231	10739
560.1005	10725
562.5773	10734
565.0534	10623
567.5308	10837
570.0056	10831
572.4776	10831
574.951	10878
577.4237	10771
579.8978	10928
582.3671	11000
584.8378	10872
587.3079	11117
589.7773	11112
592.244	10983
594.714	11085
597.1793	11182
599.6461	10983
602.1121	10907
604.5754	11124
607.0421	11015
609.5042	11066
611.9675	11014
614.4282	11161
616.8902	11091
619.3515	10972
621.8122	11139
624.2702	11186
626.7296	10879
629.1863	11022
631.6423	11099
634.1017	11023
636.5563	11031
639.0104	11015
641.4658	11128
643.9185	11015
646.3725	10991
648.8239	11211
651.2766	11276
653.7266	11148
656.176	11181
658.6247	11138
661.0748	11142
663.5242	11352
665.9709	11290
668.417	11358
670.8624	11255
673.3092	11319
675.7533	11484
678.1968	11369
680.6395	11316
683.0817	11338
685.5251	11436
687.9659	11334
690.4061	11546
692.8456	11444
695.2844	11374
697.7226	11568
700.1621	11412
702.599	11541
705.0332	11656
707.4688	11588
709.9036	11481
712.3399	11620
714.7735	11708
717.2044	11695
719.6367	11856
722.0683	11596
724.4993	11761
726.9296	11799
729.3593	11779
731.7883	11819
734.2147	12032
736.6423	11871
739.0714	11985
741.4958	12001
743.9216	12070
746.3447	11962
748.7691	12016
751.1929	12045
753.616	12142
756.0366	12449
758.4584	12301
760.8776	12144
763.2982	12153
765.718	12269
768.1373	12322
770.5539	12375
772.9698	12491
775.3871	12342
777.8038	12272
780.2178	12228
782.6332	12430
785.0459	12481
787.458	12459
789.8714	12398
792.2842	12350
794.6943	12351
797.1038	12418
799.5127	12260
801.9209	12468
804.3324	12416
806.7393	12353
809.1456	12494
811.5513	12507
813.9562	12535
816.3625	12552
818.7663	12387
821.1693	12467
823.5718	12583
825.9735	12727
828.3746	12637
830.7771	12435
833.177	12579
835.5762	12578
837.9747	12581
840.3727	12746
842.772	12657
845.1666	12551
847.5626	12747
849.958	12639
852.3527	12896
854.7488	12770
857.1403	12666
859.5331	12807
861.9253	12796
864.3168	12833
866.7057	12684
869.098	12541
871.4876	12818
873.8746	12801
876.263	12810
878.6487	12809
881.0378	12656
883.4243	12771
885.8081	12672
888.1933	12672
890.5759	12611
892.9598	12689
895.343	12612
897.7256	12828
900.1057	12676
902.4871	12724
904.8659	12904
907.246	12738
909.6254	12723
912.0023	12645
914.3786	12976
916.7562	12965
919.1331	13088
921.5074	13050
923.8831	13314
926.2562	13077
928.6287	13214
931.0005	13260
933.3757	13062
935.7462	13180
938.1162	13301
940.4855	13375
942.8542	13432
945.2242	13677
947.5916	13701
949.9584	13888
952.3266	14125
954.6921	14451
957.0571	14910
959.4233	15041
961.787	14990
964.15	15024
966.5125	14711
968.8742	14545
971.2354	14018
973.5959	13833
975.9559	13457
978.3151	13512
980.6738	13320
983.0338	13388
985.3912	13187
987.7461	13237
990.1022	13073
992.4578	13132
994.8127	13052
997.1689	13093
999.5207	13185
1001.874	13180
1004.226	13348
1006.576	13087
1008.929	13175
1011.28	13222
1013.628	13234
1015.977	13077
1018.324	13178
1020.674	13318
1023.019	13204
1025.366	13215
1027.713	13261
1030.056	13185
1032.399	13455
1034.746	13144
1037.087	13096
1039.431	13326
1041.771	13393
1044.113	13276
1046.454	13242
1048.793	13466
1051.133	13432
1053.471	13270
1055.807	13481
1058.146	13492
1060.483	13346
1062.818	13548
1065.153	13370
1067.489	13541
1069.822	13613
1072.156	13710
1074.488	13669
1076.82	13496
1079.15	13382
1081.48	13413
1083.814	13412
1086.143	13516
1088.471	13483
1090.799	13429
1093.126	13385
1095.452	13626
1097.78	13311
1100.105	13500
1102.43	13491
1104.754	13275
1107.077	13469
1109.4	13624
1111.722	13512
1114.044	13492
1116.365	13425
1118.685	13458
1121.005	13555
1123.324	13497
1125.643	13719
1127.961	13533
1130.278	13596
1132.595	13461
1134.911	13632
1137.226	13517
1139.541	13529
1141.854	13717
1144.167	13571
1146.482	13701
1148.793	13647
1151.105	13519
1153.414	13487
1155.725	13477
1158.033	13528
1160.344	13628
1162.651	13756
1164.959	13312
1167.265	13603
1169.572	13732
1171.878	13592
1174.184	13525
1176.488	13657
1178.79	13515
1181.094	13599
1183.396	13687
1185.699	13650
1188.001	13439
1190.301	13568
1192.6	13508
1194.9	13605
1197.2	13409
1199.497	13562
1201.794	13690
1204.09	13562
1206.387	13645
1208.684	13533
1210.978	13692
1213.272	13636
1215.565	13687
1217.858	13699
1220.15	13837
1222.443	13657
1224.734	13787
1227.024	13901
1229.313	13775
1231.602	13896
1233.892	13874
1236.18	13739
1238.467	14056
1240.754	14103
1243.04	13865
1245.325	14029
1247.612	14084
1249.896	13997
1252.178	13923
1254.461	14111
1256.743	13903
1259.027	14144
1261.308	13848
1263.587	14022
1265.867	13996
1268.146	14001
1270.425	14019
1272.703	14019
1274.981	13933
1277.256	13991
1279.532	13988
1281.808	13989
1284.083	13893
1286.358	13910
1288.63	13920
1290.904	13835
1293.175	13763
1295.449	14035
1297.719	13922
1299.99	13824
1302.259	13791
1304.529	13809
1306.798	13941
1309.065	13705
1311.333	13717
1313.599	13688
1315.866	13829
1318.131	13931
1320.396	13807
1322.66	13824
1324.925	13911
1327.187	13767
1329.448	14082
1331.711	13887
1333.974	13940
1336.234	13883
1338.493	13872
1340.752	13958
1343.01	13942
1345.269	13975
1347.526	14022
1349.784	13984
1352.04	14006
1354.295	13908
1356.552	13960
1358.806	13910
1361.059	13853
1363.312	14081
1365.564	13784
1367.818	13884
1370.069	13820
1372.318	13813
1374.568	13913
1376.817	14067
1379.066	14018
1381.316	13989
1383.564	13960
1385.809	13923
1388.056	14034
1390.301	14210
1392.549	14114
1394.793	14124
1397.036	14018
1399.279	14275
1401.522	14115
1403.763	14063
1406.007	14313
1408.248	14183
1410.487	14229
1412.727	14380
1414.965	14095
1417.205	14399
1419.442	14362
1421.68	14137
1423.915	14162
1426.152	14377
1428.388	14351
1430.623	14322
1432.857	14304
1435.091	14355
1437.323	14443
1439.556	14454
1441.789	14382
1444.019	14418
1446.25	14486
1448.48	14524
1450.708	14557
1452.938	14653
1455.167	14407
1457.394	14471
1459.62	14474
1461.846	14428
1464.073	14424
1466.299	14607
1468.523	14318
1470.746	14455
1472.969	14220
1475.191	14190
1477.415	14277
1479.636	14173
1481.858	14154
1484.078	14098
1486.298	14087
1488.518	14094
1490.736	14083
1492.954	14096
1495.169	14019
1497.386	14225
1499.602	14129
1501.819	13916
1504.034	13957
1506.248	14027
1508.462	13824
1510.675	13907
1512.888	14007
1515.1	14062
1517.311	13987
1519.522	13876
1521.732	13914
1523.942	13904
1526.151	13955
1528.36	14010
1530.566	14038
1532.773	14056
1534.98	14089
1537.187	13854
1539.392	14109
1541.596	14098
1543.801	13979
1546.005	14047
1548.208	13962
1550.411	14210
1552.612	14142
1554.814	14271
1557.013	14095
1559.212	14299
1561.414	14219
1563.612	14324
1565.811	14329
1568.007	14185
1570.203	14368
1572.403	14103
1574.598	14387
1576.792	14301
1578.988	14269
1581.181	14394
1583.376	14364
1585.568	14436
1587.761	14438
1589.952	14332
1592.143	14362
1594.333	14491
1596.524	14524
1598.715	14387
1600.903	14391
1603.091	14467
1605.278	14645
1607.466	14460
1609.652	14421
1611.838	14537
1614.023	14567
1616.207	14466
1618.391	14419
1620.576	14408
1622.759	14494
1624.941	14571
1627.123	14575
1629.304	14494
1631.484	14470
1633.664	14385
1635.844	14559
1638.022	14537
1640.201	14609
1642.38	14444
1644.556	14527
1646.732	14656
1648.908	14466
1651.084	14688
1653.257	14471
1655.433	14503
1657.607	14535
1659.779	14608
1661.951	14671
1664.122	14639
1666.295	14609
1668.467	14539
1670.635	14545
1672.805	14700
1674.973	14684
1677.142	14700
1679.31	14564
1681.478	14493
1683.644	14774
1685.81	14530
1687.975	14535
1690.142	14499
1692.305	14616
1694.468	14484
1696.632	14317
1698.794	14652
1700.957	14558
1703.119	14552
1705.279	14509
1707.439	14410
1709.598	14486
1711.758	14168
1713.917	14522
1716.075	14413
1718.231	14324
1720.388	14305
1722.543	14393
1724.702	14361
1726.856	14424
1729.01	14285
1731.164	14443
1733.317	14327
1735.471	14605
1737.623	14390
1739.774	14495
1741.925	14417
1744.075	14454
1746.225	14419
1748.376	14209
1750.524	14455
1752.672	14509
1754.82	14464
1756.965	14708
1759.113	14302
1761.259	14431
1763.405	14461
1765.549	14726
1767.694	14415
1769.836	14695
1771.981	14604
1774.123	14584
1776.264	14655
1778.405	14559
1780.546	14861
1782.687	14699
1784.827	14484
1786.966	14675
1789.103	14597
1791.242	14684
1793.381	14657
1795.517	14558
1797.653	14526
1799.788	14472
1801.923	14534
1804.057	14457
1806.193	14444
1808.326	14790
1810.457	14451
1812.59	14439
1814.721	14676
1816.855	14490
1818.984	14389
1821.113	14465
1823.244	14575
1825.372	14684
1827.499	14550
1829.63	14537
1831.756	14457
1833.882	14454
1836.007	14625
1838.132	14526
1840.26	14447
1842.384	14493
1844.507	14324
1846.63	14498
1848.752	14427
1850.875	14253
1852.996	14378
1855.118	14170
1857.238	14497
1859.358	14397
1861.477	14238
1863.597	14448
1865.715	14300
1867.832	14500
1869.948	14308
1872.064	14320
1874.181	14382
1876.297	14414
1878.411	14170
1880.526	14323
1882.639	14518
1884.752	14429
1886.865	14299
1888.977	14250
1891.089	14275
1893.2	14562
1895.308	14499
1897.42	14294
1899.53	14287
1901.639	14413
1903.745	14399
1905.853	14611
1907.962	14374
1910.067	14487
1912.174	14577
1914.278	14510
1916.383	14586
1918.486	14800
1920.592	14493
1922.694	14472
1924.797	14465
1926.898	14602
1929	14603
1931.102	14681
1933.203	14533
1935.301	14558
1937.401	14433
1939.499	14351
1941.598	14625
1943.697	14726
1945.793	14497
1947.888	14619
1949.985	14650
1952.08	14596
1954.176	14600
1956.269	14516
1958.364	14584
1960.457	14593
1962.549	14629
1964.642	14334
1966.733	14457
1968.823	14510
1970.913	14538
1973.005	14465
1975.093	14504
1977.184	14409
1979.271	14541
1981.359	14470
1983.446	14441
1985.532	14427
1987.619	14464
1989.705	14394
1991.789	14358
1993.874	14466
1995.956	14479
1998.041	14450
2000.123	14390
2002.206	14647
2004.287	14581
2006.368	14222
2008.449	14424
2010.529	14440
2012.609	14465
2014.688	14549
2016.766	14527
2018.843	14227
2020.922	14548
2022.999	14440
2025.074	14280
2027.15	14477
2029.225	14359
2031.299	14446
2033.375	14491
2035.447	14425
2037.52	14451
2039.592	14239
2041.664	14337
2043.736	14315
2045.807	14426
2047.876	14307
2049.947	14441
2052.015	14047
2054.086	14328
2056.153	14272
2058.221	14500
2060.288	14409
2062.353	14558
2064.42	14284
2066.486	14267
2068.55	14454
2070.614	14463
2072.678	14430
2074.741	14266
2076.805	14275
2078.866	14337
2080.929	14389
2082.99	14412
2085.049	14270
2087.109	14524
2089.17	14242
2091.228	14301
2093.286	14400
2095.344	14390
2097.4	14338
2099.46	14369
2101.516	14196
2103.572	14265
2105.626	14469
2107.679	14366
2109.735	14249
2111.788	14453
2113.841	14243
2115.894	14340
2117.945	14472
2119.997	14283
2122.049	14222
2124.1	14363
2126.148	14443
2128.197	14304
2130.246	14485
2132.296	14397
2134.342	14259
2136.39	14164
2138.437	14078
2140.483	14252
2142.527	14206
2144.574	14187
2146.619	14180
2148.661	14233
2150.705	14332
2152.747	14196
2154.792	14167
2156.832	14306
2158.874	14304
2160.915	14057
2162.954	14235
2164.995	14113
2167.034	14161
2169.072	13978
2171.111	14014
2173.148	14176
2175.186	14129
2177.223	14215
2179.258	13970
2181.294	14195
2183.328	14031
2185.362	14101
2187.398	13887
2189.431	13985
2191.463	14013
2193.495	14008
2195.528	14093
2197.56	13796
2199.59	13972
2201.62	13796
2203.649	13951
2205.678	14047
2207.708	13984
2209.737	13921
2211.764	13941
2213.791	13878
2215.817	14007
2217.843	13877
2219.87	13917
2221.895	13915
2223.919	13845
2225.942	13796
2227.966	13717
2229.988	13894
2232.012	13727
2234.032	13980
2236.054	13881
2238.074	13845
2240.095	13864
2242.116	13749
2244.135	13868
2246.153	13859
2248.171	13892
2250.188	13808
2252.208	13703
2254.223	13856
2256.239	14034
2258.255	13791
2260.269	13779
2262.283	13895
2264.3	13884
2266.312	13828
2268.325	14119
2270.336	13874
2272.349	13879
2274.362	13809
2276.372	13768
2278.383	13733
2280.392	13884
2282.402	13707
2284.409	13943
2286.418	13884
2288.427	13860
2290.433	13701
2292.441	13879
2294.446	13832
2296.453	13800
2298.459	13804
2300.463	13892
2302.466	13816
2304.471	13747
2306.475	13675
2308.477	13579
2310.478	13805
2312.481	13681
2314.481	13674
2316.481	13692
2318.482	13604
2320.482	13527
2322.48	13771
2324.48	13772
2326.478	13731
2328.476	13579
2330.473	13416
2332.469	13517
2334.465	13625
2336.46	13604
2338.454	13479
2340.45	13643
2342.444	13659
2344.437	13612
2346.43	13392
2348.421	13591
2350.414	13508
2352.405	13562
2354.396	13482
2356.386	13439
2358.376	13472
2360.366	13544
2362.355	13476
2364.343	13362
2366.331	13482
2368.317	13480
2370.304	13406
2372.292	13404
2374.278	13438
2376.262	13329
2378.247	13538
2380.23	13461
2382.216	13351
2384.199	13172
2386.181	13427
2388.163	13314
2390.144	13221
2392.127	13298
2394.107	13269
2396.087	13229
2398.066	13205
2400.046	13297
2402.023	13233
2404.004	13243
2405.981	13154
2407.957	13303
2409.934	13269
2411.91	13352
2413.886	13387
2415.862	13175
2417.836	13247
2419.809	13245
2421.784	13278
2423.756	12980
2425.73	13095
2427.701	13180
2429.672	13147
2431.644	13149
2433.615	13232
2435.586	13045
2437.555	13276
2439.523	13269
2441.491	13110
2443.459	13281
2445.428	13231
2447.395	13188
2449.361	13237
2451.327	13098
2453.292	13308
2455.257	13009
2457.223	13143
2459.187	13076
2461.15	13219
2463.113	13094
2465.076	13069
2467.039	13077
2468.999	12978
2470.96	12978
2472.921	12919
2474.881	13176
2476.841	12978
2478.8	13057
2480.759	13043
2482.717	12909
2484.675	13060
2486.63	12907
2488.589	12999
2490.545	12878
2492.5	12883
2494.455	12971
2496.408	12916
2498.364	12943
2500.318	12884
2502.27	13014
2504.223	13043
2506.174	12976
2508.126	13071
2510.078	12943
2512.03	12897
2513.979	12815
2515.927	12829
2517.877	12741
2519.826	12896
2521.775	12914
2523.722	12741
2525.668	12968
2527.616	12767
2529.561	12890
2531.508	12802
2533.452	12852
2535.398	12904
2537.342	12745
2539.284	12685
2541.229	12877
2543.173	12821
2545.114	12672
2547.055	12743
2548.996	12677
2550.938	12772
2552.878	12843
2554.817	12873
2556.756	12931
2558.695	12829
2560.633	12850
2562.572	12790
2564.509	12709
2566.445	12722
2568.382	12724
2570.317	12693
2572.254	12694
2574.189	12614
2576.123	12769
2578.057	12772
2579.99	12871
2581.923	12776
2583.855	12858
2585.788	12945
2587.719	12685
2589.65	13005
2591.579	12596
2593.511	12841
2595.44	12660
2597.37	12667
2599.297	12751
2601.225	12743
2603.153	12894
2605.08	12626
2607.007	12716
2608.932	12718
2610.858	12593
2612.782	12687
2614.709	12706
2616.632	12713
2618.556	12816
2620.478	12737
2622.401	12670
2624.324	12906
2626.247	12491
2628.167	12724
2630.088	12646
2632.008	12856
2633.928	12806
2635.848	12689
2637.766	12800
2639.684	12797
2641.603	12838
2643.519	12654
2645.437	12752
2647.353	12596
2649.27	12716
2651.184	12759
2653.099	12653
2655.014	12574
2656.928	12663
2658.842	12790
2660.755	12822
2662.667	12764
2664.579	12683
2666.491	12688
2668.402	12715
2670.312	12678
2672.222	12583
2674.132	12726
2676.042	12528
2677.951	12592
2679.859	12650
2681.766	12545
2683.674	12492
2685.582	12661
2687.488	12522
2689.392	12577
2691.298	12651
2693.202	12568
2695.107	12596
2697.012	12579
2698.914	12492
2700.817	12509
2702.72	12439
2704.622	12422
2706.524	12520
2708.425	12321
2710.326	12384
2712.225	12428
2714.125	12275
2716.024	12524
2717.923	12328
2719.822	12298
2721.719	12412
2723.616	12525
2725.512	12279
2727.41	12320
2729.305	12346
2731.201	12385
2733.095	12369
2734.99	12266
2736.884	12304
2738.778	12345
2740.67	12512
2742.562	12131
2744.455	12258
2746.346	12355
2748.238	12188
2750.129	12361
2752.018	12341
2753.907	12366
2755.797	12292
2757.687	12380
2759.575	12371
2761.462	12130
2763.349	12077
2765.237	12304
2767.124	12260
2769.009	12150
2770.894	12224
2772.779	12263
2774.663	12109
2776.547	12221
2778.431	12172
2780.314	12138
2782.197	12129
2784.078	12342
2785.96	11956
2787.842	12256
2789.723	12114
2791.603	12190
2793.483	12169
2795.362	12102
2797.241	12092
2799.121	12182
2800.997	12173
2802.874	12100
2804.751	11890
2806.628	12201
2808.506	12144
2810.38	12057
2812.255	12135
2814.13	11868
2816.003	12107
2817.878	12048
2819.752	11977
2821.623	12053
2823.496	11841
2825.368	12015
2827.238	12014
2829.111	12062
2830.98	12125
2832.851	12170
2834.719	12108
2836.589	12022
2838.458	12051
2840.327	12024
2842.193	12053
2844.061	12033
2845.927	12012
2847.794	12114
2849.66	12058
2851.525	12068
2853.39	11988
2855.254	11995
2857.117	11941
2858.983	12095
2860.845	12119
2862.707	12148
2864.569	12096
2866.431	12197
2868.293	12193
2870.154	12175
2872.013	12390
2873.873	12286
2875.733	12215
2877.592	12353
2879.451	12518
2881.309	12438
2883.166	12348
2885.022	12579
2886.879	12477
2888.736	12389
2890.591	12550
2892.446	12683
2894.301	12558
2896.155	12430
2898.009	12527
2899.863	12509
2901.716	12465
2903.568	12536
2905.419	12402
2907.27	12532
2909.123	12612
2910.973	12397
2912.824	12427
2914.673	12630
2916.521	12579
2918.372	12827
2920.22	12738
2922.067	12637
2923.914	12678
2925.761	12929
2927.607	12909
2929.455	12955
2931.301	12906
2933.144	13126
2934.99	13128
2936.833	13127
2938.678	13125
2940.522	13244
2942.364	13313
2944.207	13142
2946.048	13266
2947.891	13376
2949.731	13401
2951.571	13414
2953.412	13393
2955.25	13189
2957.09	12960
2958.93	13029
2960.767	13157
2962.606	12954
2964.443	12951
2966.279	12788
2968.116	12709
2969.953	12517
2971.788	12729
2973.623	12579
2975.457	12706
2977.292	12443
2979.127	12433
2980.959	12443
2982.792	12366
2984.624	12378
2986.455	12401
2988.288	12181
2990.119	12243
2991.949	12189
2993.779	12115
2995.608	12189
2997.439	12115
2999.268	12081
3001.096	11990
3002.923	11935
3004.751	11749
3006.578	11927
3008.406	11875
3010.232	11660
3012.057	11538
3013.883	11544
3015.706	11595
3017.532	11545
3019.356	11620
3021.179	11471
3023.002	11557
3024.823	11477
3026.646	11414
3028.469	11452
3030.289	11380
3032.11	11235
3033.93	11422
3035.749	11263
3037.57	11208
3039.39	11211
3041.207	11230
3043.026	11108
3044.842	11263
3046.661	11185
3048.477	11045
3050.294	11261
3052.109	11210
3053.925	11057
3055.739	11105
3057.555	11125
3059.368	10952
3061.181	11066
3062.995	11167
3064.807	11090
3066.62	11206
3068.433	11123
3070.243	11037
3072.054	11073
3073.865	11059
3075.675	10960
3077.485	10996
3079.293	10986
3081.102	11042
3082.911	10948
3084.719	10950
3086.527	10827
3088.333	10989
3090.139	10843
3091.945	10928
3093.75	10910
3095.557	10985
3097.361	10886
3099.165	10872
3100.969	10790
3102.772	10675
3104.575	10759
3106.379	10717
3108.181	10820
3109.982	10706
3111.783	10671
3113.584	10615
3115.386	10729
3117.186	10603
3118.985	10644
3120.783	10549
3122.582	10672
3124.381	10456
3126.179	10689
3127.975	10674
3129.772	10621
3131.569	10660
3133.365	10450
3135.161	10656
3136.956	10644
3138.751	10529
3140.544	10401
3142.338	10494
3144.132	10463
3145.925	10474
3147.717	10477
3149.509	10523
3151.301	10581
3153.091	10566
3154.884	10446
3156.673	10299
3158.462	10309
3160.252	10392
3162.041	10420
3163.831	10380
3165.618	10251
3167.405	10267
3169.193	10532
3170.979	10289
3172.767	10449
3174.553	10253
3176.338	10400
3178.123	10465
3179.907	10297
3181.692	10339
3183.477	10446
3185.259	10270
3187.042	10241
3188.824	10185
3190.607	10277
3192.389	10177
3194.17	10074
3195.951	10191
3197.73	10204
3199.51	10367
3201.289	10253
3203.07	10198
3204.848	10302
3206.626	10307
3208.403	10249
3210.18	10132
3211.959	10378
3213.735	10054
3215.511	10297
3217.285	10243
3219.06	10191
3220.836	10156
3222.611	10037
3224.384	10147
3226.158	10116
3227.929	10086
3229.702	10033
3231.476	10118
3233.248	10075
3235.018	10140
3236.789	10077
3238.56	10160
3240.33	10145
3242.1	10169
3243.869	10132
3245.637	10051
3247.405	10010
3249.172	10076
3250.941	10168
3252.707	10127
3254.474	10095
3256.24	10150
3258.006	10051
3259.772	10112
3261.537	9887
3263.301	10171
3265.065	10052
3266.828	10065
3268.592	9801
3270.355	10134
3272.117	10091
3273.878	10034
3275.64	9989
3277.401	9996
3279.162	10013
3280.922	9984
3282.682	9998
3284.441	10109
3286.199	9957
3287.959	10014
3289.716	9975
3291.475	9951
3293.232	10028
3294.988	10011
3296.744	10024
3298.501	9896
3300.256	9878
3302.011	10042
3303.766	10073
3305.52	9903
3307.275	9884
3309.028	9913
3310.781	9992
3312.533	9924
3314.285	9933
3316.038	9869
3317.789	9989
3319.54	9703
3321.289	9832
3323.039	10018
3324.789	9853
3326.539	9808
3328.288	9890
3330.035	9844
3331.783	9942
3333.531	9850
3335.28	9788
3337.025	9833
3338.771	9830
3340.518	9899
3342.262	9890
3344.009	9863
3345.753	9844
3347.497	9775
3349.24	9772
3350.983	9751
3352.726	9750
3354.469	9809
3356.212	9915
3357.952	9619
3359.694	9767
3361.434	9808
3363.176	9692
3364.916	9695
3366.654	9788
3368.394	9732
3370.132	9833
3371.871	9672
3373.61	9568
3375.346	9661
3377.083	9626
3378.82	9695
3380.556	9610
3382.292	9502
3384.027	9615
3385.763	9632
3387.497	9494
3389.231	9648
3390.965	9559
3392.698	9580
3394.431	9536
3396.164	9519
3397.896	9542
3399.627	9493
3401.36	9614
3403.09	9523
3404.82	9443
3406.55	9565
3408.279	9400
3410.01	9653
3411.738	9547
3413.467	9349
3415.194	9424
3416.92	9428
3418.647	9429
3420.375	9305
3422.102	9369
3423.827	9398
3425.553	9438
3427.277	9321
3429.003	9471
3430.727	9212
3432.451	9295
3434.173	9429
3435.896	9301
3437.62	9333
3439.343	9396
3441.063	9425
3442.785	9316
3444.505	9130
3446.226	9314
3447.948	9379
3449.666	9232
3451.386	9223
3453.104	9139
3454.823	9237
3456.541	9190
3458.259	9184
3459.976	9083
3461.693	9108
3463.408	9131
3465.125	9079
3466.841	9004
3468.556	9034
3470.271	9070
3471.985	9018
3473.698	9023
3475.414	8946
3477.126	9127
3478.838	9025
3480.55	8921
3482.263	9025
3483.975	9070
3485.686	8923
3487.396	8908
3489.106	8985
3490.817	8955
3492.526	8908
3494.236	8935
3495.944	8861
3497.652	8833
3499.359	8840
3501.066	8983
3502.775	8848
3504.481	8787
3506.187	8845
3507.893	8931
3509.598	8813
3511.304	8855
3513.009	8821
3514.713	8843
3516.417	8784
3518.12	8775
3519.821	8767
3521.525	8837
3523.228	8765
3524.929	8817
3526.631	8856
3528.33	8762
3530.032	8651
3531.733	8596
3533.433	8660
3535.131	8673
3536.83	8709
3538.529	8859
3540.227	8701
3541.925	8706
3543.623	8636
3545.319	8603
3547.016	8713
3548.712	8699
3550.408	8544
3552.103	8580
3553.798	8491
3555.491	8622
3557.188	8556
3558.88	8703
3560.574	8525
3562.266	8582
3563.959	8644
3565.651	8597
3567.343	8567
3569.035	8516
3570.725	8552
3572.415	8461
3574.106	8414
3575.797	8477
3577.485	8482
3579.174	8526
3580.863	8394
3582.551	8389
3584.238	8289
3585.926	8311
3587.613	8332
3589.3	8384
3590.986	8387
3592.671	8391
3594.357	8390
3596.042	8500
3597.726	8309
3599.41	8384
3601.094	8224
3602.778	8294
3604.461	8341
3606.143	8338
3607.825	8318
3609.507	8257
3611.188	8117
3612.87	8250
3614.551	8318
3616.229	8120
3617.909	8255
3619.589	8127
3621.269	8084
3622.948	8137
3624.625	8212
3626.302	8063
3627.98	8105
3629.657	8057
3631.334	8158
3633.01	8036
3634.686	8120
3636.361	8019
3638.036	8114
3639.712	8013
3641.385	7969
3643.06	8131
3644.732	7921
3646.405	7897
3648.08	7892
3649.751	7892
3651.424	8011
3653.094	7924
3654.766	7927
3656.436	7996
3658.106	7917
3659.777	7842
3661.446	8036
3663.115	7848
3664.783	7753
3666.452	8045
3668.121	7836
3669.788	7925
3671.454	7899
3673.121	7867
3674.789	7857
3676.455	7813
3678.12	7868
3679.784	7814
3681.45	7798
3683.114	7934
3684.779	7768
3686.442	7825
3688.105	7782
3689.768	7745
3691.43	7723
3693.093	7631
3694.754	7704
3696.415	7684
3698.076	7740
3699.736	7649
3701.396	7674
3703.057	7689
3704.716	7731
3706.375	7658
3708.034	7729
3709.692	7789
3711.351	7714
3713.008	7804
3714.665	7717
3716.321	7725
3717.977	7664
3719.634	7644
3721.29	7628
3722.945	7626
3724.598	7619
3726.253	7664
3727.907	7572
3729.561	7697
3731.214	7625
3732.867	7538
3734.518	7631
3736.171	7646
3737.824	7557
3739.474	7537
3741.125	7535
3742.775	7488
3744.425	7547
3746.074	7627
3747.725	7391
3749.373	7374
3751.022	7445
3752.669	7364
3754.318	7524
3755.966	7520
3757.612	7649
3759.259	7564
3760.905	7501
3762.55	7456
3764.197	7399
3765.842	7506
3767.486	7467
3769.131	7412
3770.774	7385
3772.417	7445
3774.061	7359
3775.705	7466
3777.347	7414
3778.988	7336
3780.629	7402
3782.271	7417
3783.912	7335
3785.552	7386
3787.192	7287
3788.831	7271
3790.472	7274
3792.112	7455
3793.75	7271
3795.388	7265
3797.024	7374
3798.661	7259
3800.3	7237
3801.936	7254
3803.572	7298
3805.208	7231
3806.844	7238
3808.48	7226
3810.115	7236
3811.748	7226
3813.382	7248
3815.016	7416
3816.649	7187
3818.283	7200
3819.914	7196
3821.547	7028
3823.178	7113
3824.809	7066
3826.441	7019
3828.072	7073
3829.701	7111
3831.331	7116
3832.96	7198
3834.591	7160
3836.219	7160
3837.847	7121
3839.475	7069
3841.102	7060
3842.729	7002
3844.357	7008
3845.984	6954
3847.609	7002
3849.234	6925
3850.86	6982
3852.485	6978
3854.11	6902
3855.734	7001
3857.357	6940
3858.981	6869
3860.603	7095
3862.227	6974
3863.848	6987
3865.471	6982
3867.092	6957
3868.713	6951
3870.334	7002
3871.954	6907
3873.575	6842
3875.194	6877
3876.813	6862
3878.433	6831
3880.051	6768
3881.669	6865
3883.286	6932
3884.904	6913
3886.52	6863
3888.138	6940
3889.754	6754
3891.37	6927
3892.985	6809
3894.6	6814
3896.216	6745
3897.831	6822
3899.444	6801
3901.058	6776
3902.67	6817
3904.283	6773
3905.897	6759
3907.509	6841
3909.121	6736
3910.731	6757
3912.342	6854
3913.954	6853
3915.563	6805
3917.174	6722
3918.783	6833
3920.391	6764
3922.002	6747
3923.611	6766
3925.218	6833
3926.826	6767
3928.432	6713
3930.039	6772
3931.647	6692
3933.253	6731
3934.859	6717
3936.464	6722
3938.068	6629
3939.675	6655
3941.278	6687
3942.883	6722
3944.486	6648
3946.089	6659
3947.692	6674
3949.295	6621
3950.898	6653
3952.499	6624
3954.1	6644
3955.7	6581
3957.303	6589
3958.903	6600
3960.502	6597
3962.101	6577
3963.7	6544
3965.301	6571
3966.899	6582
3968.497	6544
3970.094	6586
3971.691	6547
3973.288	6530
3974.885	6569
3976.481	6495
3978.077	6525
3979.672	6519
3981.267	6477
3982.863	6416
3984.457	6470
3986.051	6351
3987.645	6383
3989.238	6457
3990.831	6459
3992.425	6437
3994.017	6360
3995.607	6404
3997.199	6318
3998.79	6342
4000.382	6393
4001.973	6421
4003.561	6304
4005.151	6248
4006.741	6404
4008.331	6395
4009.918	6249
4011.507	6320
4013.095	6222
4014.681	6221
4016.269	6279
4017.856	6264
4019.443	6255
4021.028	6168
4022.614	6189
4024.199	6338
4025.785	6229
4027.37	6156
4028.953	6159
4030.536	6288
4032.12	6198
4033.704	6267
4035.287	6237
4036.869	6075
4038.45	6126
4040.032	6162
4041.613	6152
4043.195	6021
4044.776	6159
4046.356	6138
4047.935	6171
4049.515	6009
4051.095	6031
4052.674	6126
4054.251	6160
4055.829	6079
4057.406	6123
4058.985	6036
4060.562	6096
4062.139	6011
4063.715	6040
4065.29	6022
4066.865	6018
4068.442	5982
4070.016	6005
4071.59	5999
4073.164	6070
4074.738	6011
4076.312	6039
4077.885	6016
4079.458	5931
4081.03	5912
4082.602	6018
4084.173	5973
4085.745	5944
4087.315	5988
4088.886	5968
4090.456	5948
4092.026	5989
4093.596	5830
4095.165	5876
4096.734	5922
4098.301	5803
4099.869	5930
4101.437	5893
4103.006	5909
4104.572	5798
4106.139	5849
4107.704	5851
4109.27	5800
4110.837	5800
4112.401	5946
4113.966	5900
4115.53	5866
4117.094	5838
4118.659	5861
4120.223	5844
4121.785	5839
4123.347	5851
4124.909	5810
4126.471	5817
4128.034	5780
4129.595	5681
4131.155	5827
4132.716	5864
4134.275	5718
4135.836	5779
4137.395	5703
4138.955	5670
4140.513	5708
4142.071	5707
4143.628	5702
4145.188	5655
4146.745	5579
4148.302	5684
4149.858	5582
4151.414	5561
4152.971	5778
4154.526	5700
4156.081	5569
4157.635	5615
4159.189	5662
4160.745	5497
4162.298	5505
4163.852	5574
4165.405	5501
4166.957	5538
4168.51	5599
4170.063	5548
4171.614	5625
4173.166	5564
4174.717	5526
4176.267	5545
4177.817	5491
4179.368	5520
4180.917	5455
4182.466	5510
4184.016	5517
4185.564	5527
4187.112	5452
4188.66	5426
4190.207	5378
4191.754	5493
4193.301	5435
4194.848	5432
4196.394	5401
4197.94	5562
4199.484	5404
4201.03	5313
4202.575	5356
4204.12	5444
4205.663	5431
4207.207	5348
4208.75	5373
4210.292	5449
4211.836	5378
4213.378	5386
4214.92	5332
4216.46	5413
4218.002	5325
4219.544	5261
4221.083	5320
4222.625	5415
4224.164	5416
4225.703	5340
4227.244	5240
4228.782	5392
4230.32	5446
4231.857	5409
4233.395	5238
4234.933	5425
4236.471	5356
4238.007	5291
4239.542	5236
4241.078	5402
4242.614	5271
4244.15	5270
4245.685	5349
4247.219	5310
4248.753	5204
4250.287	5229
4251.82	5287
4253.354	5312
4254.887	5238
4256.419	5230
4257.951	5322
4259.483	5221
4261.016	5237
4262.547	5228
4264.078	5187
4265.608	5200
4267.137	5216
4268.668	5199
4270.197	5205
4271.727	5127
4273.254	5221
4274.783	5137
4276.311	5143
4277.84	5132
4279.366	5065
4280.894	5041
4282.42	5086
4283.946	5139
4285.473	5128
4286.998	5156
4288.523	5145
4290.047	5075
4291.572	5068
4293.096	5048
4294.622	5019
4296.144	5001
4297.668	5114
4299.19	5078
4300.713	5096
4302.236	5033
4303.758	5026
4305.279	5024
4306.799	4970
4308.321	5050
4309.842	4950
4311.361	5091
4312.882	5007
4314.401	5071
