400.0961	12480
402.6185	12527
405.1424	12528
407.6635	12342
410.1838	12490
412.7035	12573
415.2225	12465
417.7388	12626
420.2585	12759
422.7754	12757
425.2917	12807
427.8072	12979
430.3221	13096
432.8363	13011
435.3498	13014
437.8626	13021
440.3727	13126
442.8841	13295
445.3969	13260
447.907	13355
450.4142	13296
452.9229	13391
455.4289	13364
457.9362	13267
460.4449	13427
462.9488	13223
465.454	13161
467.9566	13536
470.4604	13381
472.9637	13481
475.4662	13582
477.966	13638
480.4671	13669
482.9656	13736
485.4633	13536
487.9645	13790
490.4608	13674
492.9566	13812
495.4536	13975
497.948	13980
500.4437	14008
502.9387	14104
505.431	14051
507.9226	14173
510.4136	14200
512.9079	14058
515.3975	14162
517.8864	14070
520.3746	13987
522.8622	14014
525.3491	14144
527.8394	14153
530.3249	14063
532.8098	14016
535.2939	14033
537.7774	14056
540.2623	14151
542.7444	14296
545.2259	14280
547.7067	14178
550.1868	14274
552.6683	14153
555.147	14278
557.6231	14234
560.1005	14269
562.5773	14346
565.0534	14270
567.5308	14271
570.0056	14457
572.4776	14478
574.951	14407
577.4237	14439
579.8978	14776
582.3671	14598
584.8378	14513
587.3079	14767
589.7773	14592
592.244	14743
594.714	14655
597.1793	14738
599.6461	14565
602.1121	14566
604.5754	14762
607.0421	14653
609.5042	14557
611.9675	14521
614.4282	14634
616.8902	14575
619.3515	14773
621.8122	14676
624.2702	14522
626.7296	14591
629.1863	14570
631.6423	14622
634.1017	14697
636.5563	14618
639.0104	14783
641.4658	14803
643.9185	14722
646.3725	14762
648.8239	14859
651.2766	15084
653.7266	14726
656.176	14977
658.6247	15090
661.0748	14992
663.5242	15119
665.9709	14981
668.417	15153
670.8624	15081
673.3092	15195
675.7533	15230
678.1968	15047
680.6395	15159
683.0817	15115
685.5251	15379
687.9659	15296
690.4061	15312
692.8456	15396
695.2844	15280
697.7226	15280
700.1621	15484
702.599	15389
705.0332	15440
707.4688	15564
709.9036	15438
712.3399	15578
714.7735	15528
717.2044	15352
719.6367	15549
722.0683	15403
724.4993	15767
726.9296	15657
729.3593	15903
731.7883	15786
734.2147	15983
736.6423	15847
739.0714	15858
741.4958	15889
743.9216	16228
746.3447	15928
748.7691	16130
751.1929	16103
753.616	16252
756.0366	16154
758.4584	16431
760.8776	16286
763.2982	16244
765.718	16479
768.1373	16438
770.5539	16685
772.9698	16489
775.3871	16344
777.8038	16462
780.2178	16404
782.6332	16450
785.0459	16484
787.458	16494
789.8714	16535
792.2842	16419
794.6943	16481
797.1038	16574
799.5127	16540
801.9209	16256
804.3324	16562
806.7393	16642
809.1456	16664
811.5513	16620
813.9562	16686
816.3625	16707
818.7663	16599
821.1693	16629
823.5718	16813
825.9735	16569
828.3746	16575
830.7771	16636
833.177	16791
835.5762	16669
837.9747	16948
840.3727	16761
842.772	16627
845.1666	16713
847.5626	17061
849.958	16728
852.3527	16740
854.7488	16806
857.1403	16913
859.5331	16786
861.9253	16907
864.3168	16858
866.7057	16737
869.098	16892
871.4876	16672
873.8746	16830
876.263	17000
878.6487	16579
881.0378	16775
883.4243	16626
885.8081	16782
888.1933	16770
890.5759	16779
892.9598	16766
895.343	16805
897.7256	16882
900.1057	16624
902.4871	16998
904.8659	16905
907.246	17008
909.6254	16978
912.0023	17018
914.3786	17159
916.7562	17230
919.1331	17393
921.5074	17296
923.8831	17417
926.2562	17340
928.6287	17518
931.0005	17507
933.3757	17523
935.7462	17360
938.1162	17543
940.4855	17675
942.8542	17495
945.2242	17747
947.5916	17752
949.9584	17728
952.3266	17928
954.6921	18047
957.0571	18352
959.4233	18458
961.787	18461
964.15	18625
966.5125	18553
968.8742	18232
971.2354	17939
973.5959	17864
975.9559	17626
978.3151	17552
980.6738	17425
983.0338	17579
985.3912	17373
987.7461	17419
990.1022	17525
992.4578	17449
994.8127	17505
997.1689	17463
999.5207	17316
1001.874	17477
1004.226	17346
1006.576	17342
1008.929	17315
1011.28	17426
1013.628	17104
1015.977	17454
1018.324	17341
1020.674	17507
1023.019	17666
1025.366	17777
1027.713	17603
1030.056	17474
1032.399	17569
1034.746	17770
1037.087	17653
1039.431	17418
1041.771	17452
1044.113	17567
1046.454	17712
1048.793	17547
1051.133	17797
1053.471	17417
1055.807	17601
1058.146	17639
1060.483	17810
1062.818	17687
1065.153	17891
1067.489	17580
1069.822	17910
1072.156	17930
1074.488	17833
1076.82	17833
1079.15	17728
1081.48	17851
1083.814	17747
1086.143	17872
1088.471	17896
1090.799	17764
1093.126	17717
1095.452	17718
1097.78	17688
1100.105	17948
1102.43	17791
1104.754	18056
1107.077	17812
1109.4	17838
1111.722	17938
1114.044	17974
1116.365	18066
1118.685	17883
1121.005	18194
1123.324	17888
1125.643	18135
1127.961	18245
1130.278	18108
1132.595	17906
1134.911	18009
1137.226	18096
1139.541	17971
1141.854	18240
1144.167	17999
1146.482	17820
1148.793	17919
1151.105	18026
1153.414	18057
1155.725	17940
1158.033	17994
1160.344	18116
1162.651	18122
1164.959	17844
1167.265	18067
1169.572	18144
1171.878	18125
1174.184	17842
1176.488	18226
1178.79	18178
1181.094	18270
1183.396	18034
1185.699	17894
1188.001	18042
1190.301	18197
1192.6	17888
1194.9	17902
1197.2	18214
1199.497	18026
1201.794	18178
1204.09	18129
1206.387	18060
1208.684	17975
1210.978	18171
1213.272	17962
1215.565	18091
1217.858	17962
1220.15	18181
1222.443	18240
1224.734	18400
1227.024	18308
1229.313	18245
1231.602	18391
1233.892	18390
1236.18	18278
1238.467	18596
1240.754	18349
1243.04	18480
1245.325	18651
1247.612	18394
1249.896	18658
1252.178	18525
1254.461	18651
1256.743	18458
1259.027	18574
1261.308	18598
1263.587	18668
1265.867	18541
1268.146	18707
1270.425	18544
1272.703	18572
1274.981	18718
1277.256	18644
1279.532	18646
1281.808	18541
1284.083	18444
1286.358	18469
1288.63	18558
1290.904	18476
1293.175	18381
1295.449	18398
1297.719	18583
1299.99	18397
1302.259	18326
1304.529	18316
1306.798	18546
1309.065	18664
1311.333	18526
1313.599	18480
1315.866	18455
1318.131	18424
1320.396	18279
1322.66	18355
1324.925	18258
1327.187	18459
1329.448	18591
1331.711	18559
1333.974	18415
1336.234	18502
1338.493	18627
1340.752	18416
1343.01	18407
1345.269	18413
1347.526	18393
1349.784	18510
1352.04	18436
1354.295	18378
1356.552	18579
1358.806	18384
1361.059	18398
1363.312	18523
1365.564	18315
1367.818	18481
1370.069	18733
1372.318	18541
1374.568	18465
1376.817	18586
1379.066	18508
1381.316	18523
1383.564	18560
1385.809	18397
1388.056	18522
1390.301	18878
1392.549	18458
1394.793	18753
1397.036	18941
1399.279	18809
1401.522	18668
1403.763	18971
1406.007	18809
1408.248	18781
1410.487	18893
1412.727	19132
1414.965	19002
1417.205	18779
1419.442	18785
1421.68	18789
1423.915	19191
1426.152	18748
1428.388	18857
1430.623	18942
1432.857	18815
1435.091	18901
1437.323	19026
1439.556	19092
1441.789	19265
1444.019	19020
1446.25	19233
1448.48	19104
1450.708	18991
1452.938	19001
1455.167	19295
1457.394	19213
1459.62	19194
1461.846	19230
1464.073	19165
1466.299	19149
1468.523	19087
1470.746	19107
1472.969	18852
1475.191	18843
1477.415	19047
1479.636	18522
1481.858	18639
1484.078	18693
1486.298	18824
1488.518	18669
1490.736	18723
1492.954	18668
1495.169	18678
1497.386	18558
1499.602	18802
1501.819	18835
1504.034	18609
1506.248	18439
1508.462	18473
1510.675	18497
1512.888	18482
1515.1	18477
1517.311	18433
1519.522	18630
1521.732	18595
1523.942	18413
1526.151	18520
1528.36	18685
1530.566	18408
1532.773	18534
1534.98	18646
1537.187	18616
1539.392	18568
1541.596	18672
1543.801	18514
1546.005	18587
1548.208	18453
1550.411	18793
1552.612	18658
1554.814	18816
1557.013	18687
1559.212	19002
1561.414	18919
1563.612	18913
1565.811	18989
1568.007	18781
1570.203	18753
1572.403	18793
1574.598	18929
1576.792	18952
1578.988	19091
1581.181	19213
1583.376	19027
1585.568	18993
1587.761	19022
1589.952	18940
1592.143	19080
1594.333	19071
1596.524	18998
1598.715	19059
1600.903	19263
1603.091	19060
1605.278	19035
1607.466	18900
1609.652	19232
1611.838	19172
1614.023	19179
1616.207	19087
1618.391	19343
1620.576	19155
1622.759	19023
1624.941	19203
1627.123	19124
1629.304	19102
1631.484	19082
1633.664	19109
1635.844	19185
1638.022	19230
1640.201	19126
1642.38	19231
1644.556	19001
1646.732	19196
1648.908	19168
1651.084	19291
1653.257	19049
1655.433	19227
1657.607	19076
1659.779	19453
1661.951	19153
1664.122	19228
1666.295	19246
1668.467	19389
1670.635	19314
1672.805	19141
1674.973	19337
1677.142	19413
1679.31	19145
1681.478	19245
1683.644	19058
1685.81	19217
1687.975	19270
1690.142	19044
1692.305	19248
1694.468	18991
1696.632	19026
1698.794	19030
1700.957	19053
1703.119	19156
1705.279	18973
1707.439	19031
1709.598	19010
1711.758	19057
1713.917	19101
1716.075	19013
1718.231	19098
1720.388	18914
1722.543	19038
1724.702	19145
1726.856	19021
1729.01	18962
1731.164	18934
1733.317	19045
1735.471	19120
1737.623	18890
1739.774	19110
1741.925	19081
1744.075	19129
1746.225	19136
1748.376	19173
1750.524	19205
1752.672	19227
1754.82	19121
1756.965	19252
1759.113	19078
1761.259	19184
1763.405	19208
1765.549	19263
1767.694	19100
1769.836	19157
1771.981	19287
1774.123	19231
1776.264	19111
1778.405	19284
1780.546	19325
1782.687	19131
1784.827	19357
1786.966	19298
1789.103	19164
1791.242	19239
1793.381	19127
1795.517	19276
1797.653	19241
1799.788	19097
1801.923	19259
1804.057	19246
1806.193	19231
1808.326	19244
1810.457	19043
1812.59	19191
1814.721	19277
1816.855	19179
1818.984	19171
1821.113	19205
1823.244	18967
1825.372	19104
1827.499	19093
1829.63	19179
1831.756	19165
1833.882	19195
1836.007	19108
1838.132	19044
1840.26	19145
1842.384	19091
1844.507	19009
1846.63	19070
1848.752	19005
1850.875	18940
1852.996	18962
1855.118	18865
1857.238	18813
1859.358	19001
1861.477	18990
1863.597	18855
1865.715	19110
1867.832	19193
1869.948	19082
1872.064	18934
1874.181	18872
1876.297	19055
1878.411	18931
1880.526	19177
1882.639	19124
1884.752	19059
1886.865	19116
1888.977	19096
1891.089	18910
1893.2	18939
1895.308	18925
1897.42	19215
1899.53	19039
1901.639	18943
1903.745	18916
1905.853	19315
1907.962	19379
1910.067	19196
1912.174	19153
1914.278	19416
1916.383	19019
1918.486	19177
1920.592	19232
1922.694	19350
1924.797	19003
1926.898	19339
1929	19216
1931.102	19205
1933.203	19268
1935.301	19006
1937.401	19182
1939.499	19290
1941.598	19204
1943.697	19249
1945.793	19294
1947.888	19290
1949.985	19193
1952.08	19167
1954.176	19206
1956.269	19409
1958.364	19212
1960.457	19389
1962.549	19289
1964.642	19221
1966.733	19259
1968.823	19299
1970.913	19027
1973.005	19299
1975.093	19231
1977.184	18910
1979.271	19077
1981.359	18960
1983.446	19080
1985.532	19105
1987.619	19031
1989.705	19009
1991.789	19028
1993.874	19103
1995.956	18828
1998.041	19144
2000.123	19037
2002.206	18929
2004.287	19086
2006.368	18761
2008.449	18714
2010.529	18797
2012.609	18838
2014.688	18825
2016.766	18895
2018.843	19000
2020.922	18704
2022.999	18792
2025.074	18763
2027.15	18976
2029.225	18909
2031.299	19110
2033.375	18898
2035.447	18903
2037.52	18856
2039.592	18793
2041.664	18705
2043.736	18797
2045.807	19135
2047.876	18784
2049.947	18657
2052.015	18799
2054.086	18924
2056.153	18953
2058.221	18934
2060.288	18853
2062.353	18972
2064.42	18947
2066.486	18882
2068.55	18802
2070.614	18992
2072.678	18726
2074.741	18931
2076.805	18773
2078.866	19042
2080.929	18791
2082.99	18865
2085.049	18963
2087.109	18948
2089.17	18929
2091.228	18883
2093.286	18864
2095.344	18995
2097.4	18636
2099.46	18794
2101.516	18828
2103.572	18894
2105.626	18820
2107.679	18805
2109.735	18636
2111.788	18673
2113.841	18991
2115.894	18773
2117.945	18779
2119.997	18673
2122.049	18830
2124.1	18870
2126.148	18817
2128.197	18718
2130.246	18756
2132.296	18565
2134.342	18812
2136.39	18617
2138.437	18894
2140.483	18720
2142.527	18790
2144.574	18670
2146.619	18487
2148.661	18681
2150.705	18706
2152.747	18821
2154.792	18706
2156.832	18758
2158.874	18640
2160.915	18793
2162.954	18559
2164.995	18713
2167.034	18374
2169.072	18678
2171.111	18438
2173.148	18565
2175.186	18381
2177.223	18562
2179.258	18237
2181.294	18427
2183.328	18452
2185.362	18470
2187.398	18350
2189.431	18205
2191.463	18284
2193.495	18133
2195.528	18302
2197.56	18298
2199.59	18389
2201.62	18303
2203.649	18482
2205.678	18398
2207.708	18203
2209.737	18377
2211.764	18300
2213.791	18161
2215.817	18265
2217.843	17933
2219.87	18044
2221.895	18054
2223.919	17911
2225.942	18182
2227.966	18183
2229.988	18070
2232.012	18203
2234.032	18176
2236.054	18002
2238.074	18033
2240.095	18221
2242.116	18213
2244.135	18151
2246.153	17880
2248.171	17985
2250.188	18069
2252.208	18060
2254.223	18073
2256.239	18185
2258.255	18031
2260.269	18017
2262.283	18095
2264.3	18072
2266.312	17998
2268.325	18226
2270.336	18040
2272.349	18123
2274.362	18352
2276.372	17901
2278.383	18143
2280.392	18023
2282.402	17854
2284.409	18142
2286.418	18128
2288.427	18112
2290.433	17947
2292.441	18125
2294.446	18167
2296.453	17869
2298.459	18159
2300.463	18036
2302.466	18052
2304.471	18041
2306.475	18141
2308.477	17771
2310.478	17832
2312.481	18157
2314.481	17846
2316.481	17752
2318.482	17818
2320.482	17854
2322.48	17788
2324.48	17861
2326.478	17781
2328.476	17823
2330.473	17742
2332.469	17618
2334.465	17798
2336.46	17995
2338.454	17527
2340.45	17689
2342.444	17544
2344.437	17746
2346.43	17848
2348.421	17753
2350.414	17502
2352.405	17847
2354.396	17863
2356.386	17590
2358.376	17588
2360.366	17659
2362.355	17534
2364.343	17575
2366.331	17488
2368.317	17768
2370.304	17577
2372.292	17510
2374.278	17456
2376.262	17539
2378.247	17424
2380.23	17453
2382.216	17381
2384.199	17410
2386.181	17139
2388.163	17415
2390.144	17246
2392.127	17348
2394.107	17300
2396.087	17480
2398.066	17245
2400.046	17522
2402.023	17258
2404.004	17185
2405.981	17173
2407.957	17196
2409.934	17322
2411.91	17205
2413.886	17194
2415.862	17280
2417.836	17067
2419.809	17190
2421.784	17020
2423.756	17244
2425.73	17118
2427.701	17268
2429.672	17474
2431.644	17232
2433.615	17082
2435.586	17114
2437.555	17040
2439.523	17121
2441.491	17117
2443.459	17422
2445.428	17203
2447.395	17032
2449.361	17140
2451.327	17148
2453.292	17254
2455.257	16957
2457.223	17229
2459.187	17117
2461.15	17023
2463.113	16996
2465.076	17172
2467.039	17073
2468.999	17097
2470.96	16910
2472.921	17062
2474.881	17170
2476.841	16748
2478.8	17000
2480.759	17191
2482.717	16928
2484.675	16912
2486.63	16747
2488.589	17037
2490.545	16711
2492.5	16831
2494.455	16744
2496.408	16638
2498.364	16936
2500.318	16764
2502.27	16905
2504.223	16606
2506.174	16866
2508.126	16871
2510.078	16878
2512.03	16869
2513.979	16679
2515.927	16773
2517.877	16746
2519.826	16439
2521.775	16824
2523.722	16741
2525.668	16656
2527.616	16605
2529.561	16546
2531.508	16646
2533.452	16731
2535.398	16497
2537.342	16691
2539.284	16489
2541.229	16599
2543.173	16489
2545.114	16509
2547.055	16763
2548.996	16544
2550.938	16582
2552.878	16711
2554.817	16724
2556.756	16515
2558.695	16476
2560.633	16448
2562.572	16473
2564.509	16605
2566.445	16611
2568.382	16763
2570.317	16458
2572.254	16554
2574.189	16713
2576.123	16507
2578.057	16671
2579.99	16570
2581.923	16647
2583.855	16483
2585.788	16694
2587.719	16573
2589.65	16573
2591.579	16379
2593.511	16626
2595.44	16709
2597.37	16453
2599.297	16596
2601.225	16511
2603.153	16489
2605.08	16632
2607.007	16635
2608.932	16536
2610.858	16680
2612.782	16658
2614.709	16393
2616.632	16538
2618.556	16507
2620.478	16630
2622.401	16727
2624.324	16518
2626.247	16405
2628.167	16596
2630.088	16639
2632.008	16725
2633.928	16610
2635.848	16592
2637.766	16703
2639.684	16534
2641.603	16645
2643.519	16583
2645.437	16455
2647.353	16487
2649.27	16423
2651.184	16573
2653.099	16554
2655.014	16483
2656.928	16553
2658.842	16563
2660.755	16319
2662.667	16428
2664.579	16394
2666.491	16558
2668.402	16313
2670.312	16514
2672.222	16514
2674.132	16443
2676.042	16466
2677.951	16362
2679.859	16312
2681.766	16308
2683.674	16429
2685.582	16317
2687.488	16274
2689.392	16197
2691.298	16092
2693.202	16027
2695.107	16201
2697.012	16253
2698.914	16193
2700.817	16157
2702.72	16152
2704.622	16323
2706.524	16088
2708.425	16150
2710.326	16069
2712.225	16290
2714.125	16036
2716.024	16041
2717.923	16022
2719.822	15987
2721.719	15974
2723.616	15954
2725.512	16162
2727.41	16159
2729.305	15919
2731.201	15827
2733.095	16013
2734.99	16015
2736.884	15737
2738.778	16117
2740.67	16012
2742.562	15832
2744.455	15930
2746.346	15977
2748.238	15880
2750.129	16150
2752.018	15893
2753.907	15875
2755.797	15844
2757.687	16020
2759.575	16055
2761.462	15825
2763.349	15898
2765.237	15741
2767.124	15918
2769.009	15844
2770.894	15908
2772.779	15862
2774.663	15841
2776.547	15900
2778.431	15761
2780.314	15850
2782.197	15778
2784.078	15687
2785.96	15648
2787.842	15754
2789.723	15799
2791.603	15727
2793.483	15696
2795.362	15583
2797.241	15796
2799.121	15712
2800.997	15677
2802.874	15665
2804.751	15596
2806.628	15681
2808.506	15767
2810.38	15573
2812.255	15579
2814.13	15528
2816.003	15602
2817.878	15531
2819.752	15438
2821.623	15629
2823.496	15459
2825.368	15457
2827.238	15504
2829.111	15433
2830.98	15552
2832.851	15582
2834.719	15536
2836.589	15521
2838.458	15687
2840.327	15257
2842.193	15560
2844.061	15426
2845.927	15476
2847.794	15467
2849.66	15550
2851.525	15666
2853.39	15540
2855.254	15622
2857.117	15459
2858.983	15505
2860.845	15474
2862.707	15620
2864.569	15779
2866.431	15584
2868.293	15672
2870.154	15689
2872.013	15797
2873.873	15586
2875.733	15837
2877.592	15817
2879.451	15845
2881.309	15804
2883.166	15721
2885.022	15986
2886.879	16050
2888.736	15958
2890.591	15940
2892.446	16096
2894.301	16183
2896.155	16218
2898.009	16098
2899.863	15889
2901.716	15862
2903.568	16062
2905.419	15824
2907.27	16011
2909.123	16142
2910.973	15799
2912.824	16093
2914.673	16157
2916.521	16071
2918.372	15929
2920.22	16300
2922.067	16123
2923.914	16319
2925.761	16157
2927.607	16182
2929.455	16171
2931.301	16449
2933.144	16252
2934.99	16520
2936.833	16251
2938.678	16434
2940.522	16282
2942.364	16603
2944.207	16666
2946.048	16680
2947.891	16721
2949.731	16674
2951.571	16803
2953.412	16779
2955.25	16690
2957.09	16529
2958.93	16405
2960.767	16519
2962.606	16222
2964.443	16375
2966.279	16289
2968.116	16135
2969.953	15922
2971.788	15943
2973.623	15850
2975.457	15532
2977.292	15812
2979.127	15780
2980.959	15716
2982.792	15671
2984.624	15598
2986.455	15594
2988.288	15531
2990.119	15351
2991.949	15375
2993.779	15416
2995.608	15243
2997.439	15199
2999.268	15171
3001.096	15019
3002.923	15232
3004.751	14907
3006.578	14822
3008.406	14895
3010.232	14974
3012.057	14978
3013.883	14762
3015.706	14834
3017.532	14817
3019.356	14620
3021.179	14723
3023.002	14514
3024.823	14581
3026.646	14749
3028.469	14513
3030.289	14613
3032.11	14504
3033.93	14621
3035.749	14429
3037.57	14622
3039.39	14437
3041.207	14542
3043.026	14504
3044.842	14627
3046.661	14314
3048.477	14402
3050.294	14423
3052.109	14334
3053.925	14267
3055.739	14259
3057.555	14520
3059.368	14291
3061.181	14256
3062.995	14231
3064.807	14296
3066.62	14140
3068.433	14360
3070.243	14244
3072.054	14237
3073.865	13984
3075.675	14129
3077.485	14242
3079.293	14045
3081.102	14093
3082.911	14119
3084.719	13951
3086.527	14048
3088.333	14126
3090.139	13899
3091.945	13967
3093.75	14011
3095.557	13934
3097.361	13841
3099.165	13874
3100.969	13852
3102.772	13775
3104.575	13761
3106.379	13821
3108.181	13909
3109.982	13937
3111.783	13639
3113.584	13741
3115.386	13786
3117.186	13556
3118.985	13607
3120.783	13744
3122.582	13664
3124.381	13618
3126.179	13763
3127.975	13500
3129.772	13538
3131.569	13635
3133.365	13480
3135.161	13620
3136.956	13392
3138.751	13591
3140.544	13466
3142.338	13603
3144.132	13418
3145.925	13448
3147.717	13362
3149.509	13594
3151.301	13423
3153.091	13376
3154.884	13362
3156.673	13272
3158.462	13358
3160.252	13334
3162.041	13342
3163.831	13371
3165.618	13212
3167.405	13287
3169.193	13427
3170.979	13115
3172.767	13284
3174.553	13195
3176.338	13252
3178.123	13245
3179.907	13289
3181.692	13325
3183.477	13220
3185.259	13251
3187.042	13213
3188.824	12936
3190.607	13160
3192.389	13151
3194.17	13240
3195.951	13045
3197.73	13067
3199.51	13159
3201.289	13055
3203.07	13045
3204.848	13127
3206.626	13099
3208.403	12915
3210.18	13100
3211.959	12971
3213.735	13010
3215.511	12897
3217.285	12961
3219.06	12965
3220.836	12936
3222.611	12939
3224.384	12969
3226.158	13045
3227.929	12842
3229.702	12924
3231.476	12856
3233.248	12918
3235.018	12822
3236.789	12941
3238.56	12890
3240.33	12982
3242.1	13032
3243.869	12733
3245.637	12723
3247.405	12758
3249.172	12789
3250.941	12796
3252.707	12719
3254.474	12826
3256.24	12796
3258.006	12904
3259.772	12879
3261.537	12939
3263.301	12775
3265.065	12845
3266.828	12725
3268.592	12705
3270.355	12763
3272.117	12699
3273.878	12679
3275.64	12827
3277.401	12788
3279.162	12661
3280.922	12676
3282.682	12704
3284.441	12699
3286.199	12844
3287.959	12764
3289.716	12687
3291.475	12942
3293.232	12823
3294.988	12610
3296.744	12518
3298.501	12694
3300.256	12553
3302.011	12633
3303.766	12638
3305.52	12665
3307.275	12645
3309.028	12642
3310.781	12543
3312.533	12658
3314.285	12438
3316.038	12603
3317.789	12604
3319.54	12562
3321.289	12591
3323.039	12572
3324.789	12524
3326.539	12470
3328.288	12402
3330.035	12437
3331.783	12456
3333.531	12513
3335.28	12487
3337.025	12394
3338.771	12485
3340.518	12565
3342.262	12374
3344.009	12475
3345.753	12507
3347.497	12415
3349.24	12377
3350.983	12492
3352.726	12327
3354.469	12340
3356.212	12274
3357.952	12256
3359.694	12288
3361.434	12253
3363.176	12279
3364.916	12269
3366.654	12188
3368.394	12183
3370.132	12289
3371.871	12086
3373.61	12123
3375.346	12231
3377.083	12144
3378.82	12171
3380.556	12240
3382.292	12115
3384.027	12177
3385.763	12017
3387.497	12152
3389.231	12218
3390.965	12023
3392.698	12064
3394.431	12056
3396.164	12101
3397.896	11994
3399.627	12058
3401.36	12034
3403.09	11943
3404.82	12082
3406.55	12048
3408.279	12010
3410.01	12129
3411.738	11733
3413.467	11941
3415.194	11954
3416.92	11871
3418.647	11895
3420.375	11697
3422.102	11760
3423.827	11935
3425.553	11974
3427.277	11919
3429.003	11979
3430.727	11781
3432.451	11694
3434.173	11870
3435.896	11861
3437.62	11796
3439.343	11809
3441.063	11895
3442.785	11619
3444.505	11700
3446.226	11670
3447.948	11780
3449.666	11606
3451.386	11659
3453.104	11477
3454.823	11777
3456.541	11643
3458.259	11762
3459.976	11582
3461.693	11466
3463.408	11521
3465.125	11436
3466.841	11376
3468.556	11446
3470.271	11313
3471.985	11498
3473.698	11431
3475.414	11408
3477.126	11304
3478.838	11343
3480.55	11313
3482.263	11544
3483.975	11378
3485.686	11433
3487.396	11339
3489.106	11525
3490.817	11318
3492.526	11232
3494.236	11338
3495.944	11213
3497.652	11326
3499.359	11137
3501.066	11124
3502.775	11184
3504.481	11086
3506.187	11199
3507.893	11350
3509.598	11150
3511.304	11284
3513.009	11083
3514.713	11050
3516.417	10955
3518.12	11117
3519.821	11125
3521.525	11078
3523.228	11098
3524.929	10961
3526.631	11085
3528.33	10841
3530.032	11079
3531.733	10976
3533.433	11127
3535.131	10878
3536.83	10946
3538.529	10875
3540.227	10979
3541.925	10947
3543.623	10949
3545.319	10945
3547.016	10974
3548.712	10962
3550.408	10948
3552.103	10906
3553.798	10876
3555.491	10821
3557.188	10842
3558.88	10775
3560.574	10786
3562.266	10767
3563.959	10703
3565.651	10807
3567.343	10768
3569.035	10664
3570.725	10656
3572.415	10785
3574.106	10738
3575.797	10718
3577.485	10681
3579.174	10544
3580.863	10587
3582.551	10630
3584.238	10612
3585.926	10740
3587.613	10587
3589.3	10636
3590.986	10479
3592.671	10680
3594.357	10458
3596.042	10654
3597.726	10481
3599.41	10460
3601.094	10471
3602.778	10468
3604.461	10344
3606.143	10443
3607.825	10477
3609.507	10351
3611.188	10222
3612.87	10272
3614.551	10395
3616.229	10267
3617.909	10297
3619.589	10360
3621.269	10477
3622.948	10328
3624.625	10273
3626.302	10267
3627.98	10303
3629.657	10183
3631.334	10179
3633.01	10131
3634.686	10190
3636.361	10165
3638.036	10226
3639.712	10397
3641.385	10186
3643.06	10185
3644.732	10005
3646.405	10109
3648.08	10174
3649.751	10025
3651.424	10015
3653.094	10067
3654.766	10139
3656.436	10100
3658.106	9999
3659.777	10171
3661.446	10036
3663.115	10002
3664.783	9713
3666.452	10003
3668.121	10024
3669.788	9913
3671.454	10139
3673.121	10029
3674.789	9867
3676.455	9847
3678.12	9998
3679.784	9980
3681.45	9855
3683.114	9844
3684.779	9758
3686.442	9852
3688.105	9910
3689.768	9854
3691.43	9948
3693.093	9852
3694.754	9923
3696.415	9720
3698.076	9910
3699.736	9902
3701.396	9778
3703.057	9861
3704.716	9694
3706.375	9847
3708.034	9902
3709.692	9768
3711.351	9807
3713.008	9892
3714.665	9785
3716.321	9717
3717.977	9730
3719.634	9783
3721.29	9707
3722.945	9722
3724.598	9637
3726.253	9682
3727.907	9728
3729.561	9599
3731.214	9631
3732.867	9705
3734.518	9680
3736.171	9562
3737.824	9487
3739.474	9568
3741.125	9669
3742.775	9558
3744.425	9543
3746.074	9610
3747.725	9457
3749.373	9456
3751.022	9661
3752.669	9610
3754.318	9507
3755.966	9536
3757.612	9395
3759.259	9672
3760.905	9423
3762.55	9434
3764.197	9381
3765.842	9345
3767.486	9443
3769.131	9513
3770.774	9517
3772.417	9391
3774.061	9312
3775.705	9406
3777.347	9419
3778.988	9313
3780.629	9395
3782.271	9330
3783.912	9320
3785.552	9387
3787.192	9289
3788.831	9388
3790.472	9215
3792.112	9182
3793.75	9198
3795.388	9234
3797.024	9187
3798.661	9220
3800.3	9187
3801.936	9075
3803.572	9138
3805.208	8996
3806.844	9056
3808.48	9212
3810.115	9034
3811.748	9163
3813.382	9174
3815.016	9069
3816.649	9084
3818.283	8963
3819.914	9069
3821.547	9159
3823.178	9063
3824.809	9011
3826.441	9103
3828.072	9108
3829.701	8974
3831.331	8997
3832.96	9019
3834.591	8912
3836.219	8896
3837.847	8800
3839.475	9042
3841.102	8820
3842.729	8909
3844.357	8860
3845.984	8961
3847.609	8898
3849.234	8823
3850.86	8792
3852.485	8784
3854.11	8985
3855.734	8768
3857.357	8833
3858.981	8801
3860.603	8781
3862.227	8866
3863.848	8814
3865.471	8803
3867.092	8729
3868.713	8671
3870.334	8743
3871.954	8836
3873.575	8660
3875.194	8668
3876.813	8744
3878.433	8682
3880.051	8559
3881.669	8740
3883.286	8633
3884.904	8584
3886.52	8578
3888.138	8662
3889.754	8703
3891.37	8710
3892.985	8617
3894.6	8661
3896.216	8654
3897.831	8652
3899.444	8565
3901.058	8654
3902.67	8452
3904.283	8579
3905.897	8631
3907.509	8655
3909.121	8619
3910.731	8474
3912.342	8736
3913.954	8528
3915.563	8684
3917.174	8558
3918.783	8631
3920.391	8599
3922.002	8476
3923.611	8510
3925.218	8605
3926.826	8603
3928.432	8434
3930.039	8490
3931.647	8451
3933.253	8546
3934.859	8509
3936.464	8509
3938.068	8397
3939.675	8590
3941.278	8419
3942.883	8361
3944.486	8415
3946.089	8475
3947.692	8372
3949.295	8384
3950.898	8360
3952.499	8291
3954.1	8347
3955.7	8339
3957.303	8366
3958.903	8296
3960.502	8141
3962.101	8314
3963.7	8278
3965.301	8407
3966.899	8254
3968.497	8319
3970.094	8227
3971.691	8134
3973.288	8237
3974.885	8285
3976.481	8207
3978.077	8246
3979.672	8244
3981.267	8218
3982.863	8140
3984.457	8148
3986.051	8060
3987.645	8024
3989.238	8071
3990.831	8062
3992.425	7972
3994.017	8107
3995.607	8045
3997.199	8036
3998.79	8013
4000.382	7972
4001.973	7856
4003.561	8032
4005.151	7991
4006.741	7950
4008.331	7918
4009.918	7907
4011.507	7848
4013.095	7866
4014.681	7940
4016.269	8023
4017.856	7904
4019.443	7880
4021.028	7917
4022.614	7854
4024.199	7912
4025.785	7772
4027.37	7869
4028.953	7796
4030.536	7819
4032.12	7845
4033.704	7739
4035.287	7849
4036.869	7804
4038.45	7776
4040.032	7626
4041.613	7735
4043.195	7756
4044.776	7741
4046.356	7777
4047.935	7663
4049.515	7655
4051.095	7530
4052.674	7664
4054.251	7722
4055.829	7591
4057.406	7678
4058.985	7500
4060.562	7673
4062.139	7605
4063.715	7617
4065.29	7595
4066.865	7538
4068.442	7570
4070.016	7678
4071.59	7681
4073.164	7482
4074.738	7595
4076.312	7563
4077.885	7459
4079.458	7534
4081.03	7545
4082.602	7610
4084.173	7584
4085.745	7418
4087.315	7512
4088.886	7459
4090.456	7356
4092.026	7343
4093.596	7487
4095.165	7565
4096.734	7508
4098.301	7415
4099.869	7405
4101.437	7405
4103.006	7401
4104.572	7321
4106.139	7488
4107.704	7360
4109.27	7502
4110.837	7387
4112.401	7405
4113.966	7346
4115.53	7237
4117.094	7344
4118.659	7261
4120.223	7346
4121.785	7302
4123.347	7131
4124.909	7283
4126.471	7346
4128.034	7062
4129.595	7367
4131.155	7125
4132.716	7193
4134.275	7143
4135.836	7345
4137.395	7152
4138.955	7163
4140.513	7102
4142.071	7231
4143.628	7132
4145.188	7134
4146.745	7123
4148.302	7288
4149.858	6936
4151.414	7057
4152.971	7011
4154.526	7130
4156.081	7065
4157.635	7024
4159.189	6951
4160.745	7087
4162.298	6997
4163.852	6923
4165.405	6978
4166.957	6989
4168.51	6922
4170.063	7078
4171.614	6984
4173.166	6844
4174.717	6945
4176.267	6985
4177.817	6931
4179.368	6916
4180.917	6968
4182.466	6885
4184.016	6934
4185.564	6944
4187.112	6939
4188.66	6712
4190.207	6892
4191.754	6829
4193.301	6800
4194.848	6772
4196.394	6856
4197.94	6762
4199.484	6888
4201.03	6839
4202.575	6825
4204.12	6788
4205.663	6755
4207.207	6698
4208.75	6740
4210.292	6689
4211.836	6835
4213.378	6788
4214.92	6554
4216.46	6585
4218.002	6733
4219.544	6613
4221.083	6735
4222.625	6680
4224.164	6633
4225.703	6696
4227.244	6708
4228.782	6707
4230.32	6683
4231.857	6672
4233.395	6686
4234.933	6673
4236.471	6714
4238.007	6676
4239.542	6627
4241.078	6713
4242.614	6535
4244.15	6640
4245.685	6478
4247.219	6487
4248.753	6616
4250.287	6605
4251.82	6687
4253.354	6521
4254.887	6541
4256.419	6496
4257.951	6612
4259.483	6512
4261.016	6422
4262.547	6475
4264.078	6623
4265.608	6487
4267.137	6376
4268.668	6506
4270.197	6450
4271.727	6485
4273.254	6433
4274.783	6422
4276.311	6514
4277.84	6427
4279.366	6415
4280.894	6447
4282.42	6362
4283.946	6452
4285.473	6389
4286.998	6342
4288.523	6252
4290.047	6388
4291.572	6354
4293.096	6375
4294.622	6345
4296.144	6371
4297.668	6298
4299.19	6393
4300.713	6342
4302.236	6242
4303.758	6264
4305.279	6331
4306.799	6314
4308.321	6304
4309.842	6219
4311.361	6215
4312.882	6303
4314.401	6195
