400.0961	9771
402.6185	9669
405.1424	9848
407.6635	9843
410.1838	9934
412.7035	9967
415.2225	9846
417.7388	9994
420.2585	9990
422.7754	10190
425.2917	10257
427.8072	10252
430.3221	10307
432.8363	10198
435.3498	10326
437.8626	10421
440.3727	10371
442.8841	10453
445.3969	10527
447.907	10548
450.4142	10591
452.9229	10439
455.4289	10401
457.9362	10612
460.4449	10632
462.9488	10599
465.454	10507
467.9566	10440
470.4604	10600
472.9637	10690
475.4662	10737
477.966	10623
480.4671	10692
482.9656	10751
485.4633	10833
487.9645	10770
490.4608	10695
492.9566	10936
495.4536	10875
497.948	11043
500.4437	10849
502.9387	10938
505.431	11037
507.9226	10994
510.4136	11087
512.9079	11069
515.3975	11113
517.8864	10863
520.3746	11149
522.8622	11064
525.3491	11106
527.8394	11184
530.3249	11086
532.8098	11063
535.2939	11074
537.7774	11182
540.2623	11065
542.7444	10982
545.2259	11228
547.7067	11264
550.1868	11132
552.6683	11158
555.147	11159
557.6231	11133
560.1005	11298
562.5773	11144
565.0534	11189
567.5308	11374
570.0056	11294
572.4776	11377
574.951	11478
577.4237	11451
579.8978	11510
582.3671	11416
584.8378	11586
587.3079	11640
589.7773	11653
592.244	11505
594.714	11458
597.1793	11505
599.6461	11562
602.1121	11558
604.5754	11465
607.0421	11532
609.5042	11500
611.9675	11514
614.4282	11595
616.8902	11695
619.3515	11467
621.8122	11302
624.2702	11676
626.7296	11586
629.1863	11342
631.6423	11441
634.1017	11580
636.5563	11454
639.0104	11559
641.4658	11578
643.9185	11581
646.3725	11474
648.8239	11700
651.2766	11818
653.7266	11670
656.176	11712
658.6247	11733
661.0748	11839
663.5242	11934
665.9709	11895
668.417	11746
670.8624	11882
673.3092	11894
675.7533	11962
678.1968	11787
680.6395	11921
683.0817	11971
685.5251	11935
687.9659	12009
690.4061	12100
692.8456	11993
695.2844	12003
697.7226	11902
700.1621	12075
702.599	12163
705.0332	12059
707.4688	12253
709.9036	12145
712.3399	12236
714.7735	11948
717.2044	12105
719.6367	12329
722.0683	12260
724.4993	12224
726.9296	12311
729.3593	12393
731.7883	12437
734.2147	12597
736.6423	12431
739.0714	12620
741.4958	12533
743.9216	12636
746.3447	12743
748.7691	12876
751.1929	12793
753.616	12796
756.0366	12801
758.4584	12951
760.8776	12795
763.2982	12792
765.718	13174
768.1373	12794
770.5539	12860
772.9698	13009
775.3871	12914
777.8038	12851
780.2178	12877
782.6332	12970
785.0459	12940
787.458	12879
789.8714	12967
792.2842	12935
794.6943	12948
797.1038	13073
799.5127	12768
801.9209	13024
804.3324	13042
806.7393	13057
809.1456	13027
811.5513	13041
813.9562	13189
816.3625	13071
818.7663	13132
821.1693	12994
823.5718	13099
825.9735	13176
828.3746	12957
830.7771	13331
833.177	13154
835.5762	13065
837.9747	13442
840.3727	13038
842.772	13091
845.1666	13342
847.5626	13179
849.958	13234
852.3527	13401
854.7488	13306
857.1403	13274
859.5331	13317
861.9253	13362
864.3168	13281
866.7057	13287
869.098	13448
871.4876	13278
873.8746	13300
876.263	13385
878.6487	13289
881.0378	13220
883.4243	13283
885.8081	13177
888.1933	13262
890.5759	13253
892.9598	13263
895.343	13240
897.7256	13232
900.1057	13281
902.4871	13442
904.8659	13383
907.246	13378
909.6254	13394
912.0023	13510
914.3786	13503
916.7562	13462
919.1331	13582
921.5074	13685
923.8831	13717
926.2562	13813
928.6287	13773
931.0005	13872
933.3757	13805
935.7462	13767
938.1162	13960
940.4855	13959
942.8542	14058
945.2242	14176
947.5916	14175
949.9584	14265
952.3266	14450
954.6921	14813
957.0571	14963
959.4233	15228
961.787	15429
964.15	15424
966.5125	15218
968.8742	14767
971.2354	14737
973.5959	14185
975.9559	14119
978.3151	13928
980.6738	13991
983.0338	13876
985.3912	13725
987.7461	13690
990.1022	13648
992.4578	13856
994.8127	13709
997.1689	13768
999.5207	13678
1001.874	13851
1004.226	13883
1006.576	13681
1008.929	13920
1011.28	13792
1013.628	13772
1015.977	14092
1018.324	13961
1020.674	13727
1023.019	13887
1025.366	13815
1027.713	13844
1030.056	13692
1032.399	13901
1034.746	13863
1037.087	13912
1039.431	14060
1041.771	13890
1044.113	14011
1046.454	13996
1048.793	14008
1051.133	14030
1053.471	13937
1055.807	14093
1058.146	13988
1060.483	14087
1062.818	14122
1065.153	14285
1067.489	14112
1069.822	14208
1072.156	14213
1074.488	14063
1076.82	14226
1079.15	14309
1081.48	14233
1083.814	14112
1086.143	14138
1088.471	14185
1090.799	14167
1093.126	14089
1095.452	14313
1097.78	14269
1100.105	14272
1102.43	14177
1104.754	14054
1107.077	14056
1109.4	14199
1111.722	14355
1114.044	14264
1116.365	14129
1118.685	14179
1121.005	14132
1123.324	14337
1125.643	14179
1127.961	14290
1130.278	14280
1132.595	14216
1134.911	14259
1137.226	14300
1139.541	14249
1141.854	14378
1144.167	14303
1146.482	14271
1148.793	14228
1151.105	14246
1153.414	14280
1155.725	14253
1158.033	14288
1160.344	14193
1162.651	14287
1164.959	14353
1167.265	14189
1169.572	14375
1171.878	14230
1174.184	14269
1176.488	14334
1178.79	14156
1181.094	14419
1183.396	14336
1185.699	14223
1188.001	14209
1190.301	14274
1192.6	14305
1194.9	14252
1197.2	14201
1199.497	14195
1201.794	14298
1204.09	14205
1206.387	14356
1208.684	14303
1210.978	14372
1213.272	14441
1215.565	14224
1217.858	14458
1220.15	14443
1222.443	14419
1224.734	14391
1227.024	14480
1229.313	14250
1231.602	14604
1233.892	14429
1236.18	14511
1238.467	14534
1240.754	14690
1243.04	14712
1245.325	14537
1247.612	14747
1249.896	14688
1252.178	14713
1254.461	14646
1256.743	14507
1259.027	14602
1261.308	14599
1263.587	14744
1265.867	14498
1268.146	14745
1270.425	14785
1272.703	14694
1274.981	14795
1277.256	14569
1279.532	14578
1281.808	14731
1284.083	14784
1286.358	14717
1288.63	14748
1290.904	14488
1293.175	14552
1295.449	14598
1297.719	14524
1299.99	14468
1302.259	14597
1304.529	14557
1306.798	14583
1309.065	14745
1311.333	14712
1313.599	14530
1315.866	14651
1318.131	14674
1320.396	14616
1322.66	14555
1324.925	14533
1327.187	14570
1329.448	14672
1331.711	14578
1333.974	14662
1336.234	14572
1338.493	14658
1340.752	14592
1343.01	14547
1345.269	14693
1347.526	14612
1349.784	14657
1352.04	14631
1354.295	14477
1356.552	14739
1358.806	14502
1361.059	14517
1363.312	14651
1365.564	14526
1367.818	14689
1370.069	14700
1372.318	14641
1374.568	14583
1376.817	14917
1379.066	14507
1381.316	14715
1383.564	14733
1385.809	14698
1388.056	14674
1390.301	14726
1392.549	14737
1394.793	14746
1397.036	14970
1399.279	14775
1401.522	14877
1403.763	14911
1406.007	14997
1408.248	14891
1410.487	14990
1412.727	15070
1414.965	14905
1417.205	15034
1419.442	14839
1421.68	15039
1423.915	14983
1426.152	14762
1428.388	14978
1430.623	14895
1432.857	14990
1435.091	14961
1437.323	15025
1439.556	15265
1441.789	15247
1444.019	15094
1446.25	15193
1448.48	15286
1450.708	15159
1452.938	15300
1455.167	15099
1457.394	15284
1459.62	15082
1461.846	15137
1464.073	15235
1466.299	15288
1468.523	14940
1470.746	14880
1472.969	15044
1475.191	14942
1477.415	14886
1479.636	14859
1481.858	14757
1484.078	14815
1486.298	14681
1488.518	14789
1490.736	14887
1492.954	14811
1495.169	14571
1497.386	14628
1499.602	14797
1501.819	14664
1504.034	14586
1506.248	14731
1508.462	14730
1510.675	14685
1512.888	14532
1515.1	14408
1517.311	14737
1519.522	14502
1521.732	14713
1523.942	14706
1526.151	14660
1528.36	14760
1530.566	14691
1532.773	14880
1534.98	14813
1537.187	14689
1539.392	14824
1541.596	14846
1543.801	14741
1546.005	14788
1548.208	14811
1550.411	14768
1552.612	14954
1554.814	14912
1557.013	14828
1559.212	14744
1561.414	14875
1563.612	14902
1565.811	15039
1568.007	14849
1570.203	15003
1572.403	14921
1574.598	15049
1576.792	15067
1578.988	14995
1581.181	14904
1583.376	14999
1585.568	15218
1587.761	15080
1589.952	15102
1592.143	15024
1594.333	15049
1596.524	15127
1598.715	15314
1600.903	15110
1603.091	15078
1605.278	15338
1607.466	15204
1609.652	15105
1611.838	15120
1614.023	15069
1616.207	15238
1618.391	15272
1620.576	15190
1622.759	15206
1624.941	15150
1627.123	15046
1629.304	15301
1631.484	15117
1633.664	15234
1635.844	15161
1638.022	15159
1640.201	15053
1642.38	15227
1644.556	15076
1646.732	15068
1648.908	15211
1651.084	15170
1653.257	15260
1655.433	15257
1657.607	15179
1659.779	15387
1661.951	15077
1664.122	15540
1666.295	15260
1668.467	15221
1670.635	15303
1672.805	15082
1674.973	15082
1677.142	15177
1679.31	15374
1681.478	15219
1683.644	15032
1685.81	15291
1687.975	15285
1690.142	15176
1692.305	15254
1694.468	15308
1696.632	15102
1698.794	15120
1700.957	15114
1703.119	15108
1705.279	15248
1707.439	15187
1709.598	15106
1711.758	15185
1713.917	15000
1716.075	15130
1718.231	14980
1720.388	15194
1722.543	15085
1724.702	15243
1726.856	15100
1729.01	15138
1731.164	15149
1733.317	15096
1735.471	15213
1737.623	14973
1739.774	14967
1741.925	15150
1744.075	15315
1746.225	15035
1748.376	15031
1750.524	15151
1752.672	15129
1754.82	15071
1756.965	15077
1759.113	15184
1761.259	15127
1763.405	15088
1765.549	15314
1767.694	15089
1769.836	15217
1771.981	15179
1774.123	15145
1776.264	15318
1778.405	15038
1780.546	15194
1782.687	15152
1784.827	15269
1786.966	15228
1789.103	15324
1791.242	15282
1793.381	15262
1795.517	15289
1797.653	15132
1799.788	15225
1801.923	15102
1804.057	15173
1806.193	15174
1808.326	15239
1810.457	15043
1812.59	15120
1814.721	15231
1816.855	15110
1818.984	15187
1821.113	15072
1823.244	15079
1825.372	15414
1827.499	15320
1829.63	15200
1831.756	15115
1833.882	14887
1836.007	14981
1838.132	15091
1840.26	15222
1842.384	15087
1844.507	15083
1846.63	15037
1848.752	15084
1850.875	15040
1852.996	15082
1855.118	15006
1857.238	14990
1859.358	15053
1861.477	15026
1863.597	14936
1865.715	14988
1867.832	15057
1869.948	15088
1872.064	14835
1874.181	14909
1876.297	14952
1878.411	15060
1880.526	15124
1882.639	15131
1884.752	15006
1886.865	15148
1888.977	15016
1891.089	15163
1893.2	15075
1895.308	14994
1897.42	15183
1899.53	15198
1901.639	15329
1903.745	14974
1905.853	15296
1907.962	15187
1910.067	15085
1912.174	14981
1914.278	15216
1916.383	15241
1918.486	15231
1920.592	15162
1922.694	15313
1924.797	15326
1926.898	15276
1929	15175
1931.102	15389
1933.203	15177
1935.301	15276
1937.401	15166
1939.499	15361
1941.598	15511
1943.697	15172
1945.793	15411
1947.888	15175
1949.985	15207
1952.08	15224
1954.176	15208
1956.269	15160
1958.364	15158
1960.457	15248
1962.549	15128
1964.642	15163
1966.733	15298
1968.823	15307
1970.913	15154
1973.005	15205
1975.093	15109
1977.184	14957
1979.271	15181
1981.359	15042
1983.446	15172
1985.532	15025
1987.619	15137
1989.705	15208
1991.789	15037
1993.874	15058
1995.956	14996
1998.041	15047
2000.123	15083
2002.206	15006
2004.287	15061
2006.368	14881
2008.449	14986
2010.529	14957
2012.609	15355
2014.688	14951
2016.766	15030
2018.843	15107
2020.922	14948
2022.999	14891
2025.074	15016
2027.15	15046
2029.225	14726
2031.299	14983
2033.375	14977
2035.447	14991
2037.52	14963
2039.592	15138
2041.664	14882
2043.736	15221
2045.807	14942
2047.876	15030
2049.947	15081
2052.015	15026
2054.086	15008
2056.153	15065
2058.221	14987
2060.288	15077
2062.353	15004
2064.42	14934
2066.486	15021
2068.55	14888
2070.614	14933
2072.678	14999
2074.741	15016
2076.805	15104
2078.866	15064
2080.929	14996
2082.99	14802
2085.049	14947
2087.109	14898
2089.17	14958
2091.228	14982
2093.286	15009
2095.344	14908
2097.4	14907
2099.46	14904
2101.516	14996
2103.572	14991
2105.626	15006
2107.679	15033
2109.735	15152
2111.788	14718
2113.841	14863
2115.894	14889
2117.945	14947
2119.997	15038
2122.049	14959
2124.1	14907
2126.148	14999
2128.197	14937
2130.246	14962
2132.296	14864
2134.342	14852
2136.39	14864
2138.437	14856
2140.483	14788
2142.527	14966
2144.574	14912
2146.619	14833
2148.661	15223
2150.705	14844
2152.747	14799
2154.792	14906
2156.832	14829
2158.874	14978
2160.915	14747
2162.954	14803
2164.995	14744
2167.034	14817
2169.072	14845
2171.111	14798
2173.148	14625
2175.186	14758
2177.223	14639
2179.258	14588
2181.294	14612
2183.328	14471
2185.362	14650
2187.398	14642
2189.431	14558
2191.463	14704
2193.495	14594
2195.528	14621
2197.56	14495
2199.59	14502
2201.62	14447
2203.649	14611
2205.678	14430
2207.708	14591
2209.737	14464
2211.764	14396
2213.791	14421
2215.817	14341
2217.843	14498
2219.87	14489
2221.895	14381
2223.919	14424
2225.942	14454
2227.966	14500
2229.988	14525
2232.012	14358
2234.032	14515
2236.054	14280
2238.074	14438
2240.095	14441
2242.116	14451
2244.135	14401
2246.153	14282
2248.171	14283
2250.188	14548
2252.208	14439
2254.223	14279
2256.239	14301
2258.255	14358
2260.269	14481
2262.283	14543
2264.3	14397
2266.312	14359
2268.325	14373
2270.336	14341
2272.349	14297
2274.362	14412
2276.372	14417
2278.383	14334
2280.392	14317
2282.402	14423
2284.409	14269
2286.418	14377
2288.427	14535
2290.433	14409
2292.441	14380
2294.446	14484
2296.453	14133
2298.459	14382
2300.463	14358
2302.466	14290
2304.471	14299
2306.475	14342
2308.477	14282
2310.478	14219
2312.481	14446
2314.481	14290
2316.481	14330
2318.482	14355
2320.482	14170
2322.48	14132
2324.48	14250
2326.478	14089
2328.476	14141
2330.473	14239
2332.469	14141
2334.465	14018
2336.46	13962
2338.454	14168
2340.45	14193
2342.444	14097
2344.437	14122
2346.43	14156
2348.421	14161
2350.414	14089
2352.405	14168
2354.396	13886
2356.386	13924
2358.376	14010
2360.366	14048
2362.355	14078
2364.343	13966
2366.331	13702
2368.317	13864
2370.304	14008
2372.292	14026
2374.278	13743
2376.262	14087
2378.247	13886
2380.23	14000
2382.216	13802
2384.199	13804
2386.181	13849
2388.163	13799
2390.144	13847
2392.127	13948
2394.107	13653
2396.087	13891
2398.066	13694
2400.046	13894
2402.023	13844
2404.004	13744
2405.981	13813
2407.957	13646
2409.934	13870
2411.91	13683
2413.886	13645
2415.862	13694
2417.836	13637
2419.809	13848
2421.784	13724
2423.756	13660
2425.73	13605
2427.701	13605
2429.672	13825
2431.644	13861
2433.615	13779
2435.586	13772
2437.555	13787
2439.523	13740
2441.491	13755
2443.459	13622
2445.428	13636
2447.395	13636
2449.361	13901
2451.327	13622
2453.292	13667
2455.257	13673
2457.223	13615
2459.187	13630
2461.15	13622
2463.113	13755
2465.076	13719
2467.039	13672
2468.999	13709
2470.96	13556
2472.921	13646
2474.881	13515
2476.841	13535
2478.8	13551
2480.759	13600
2482.717	13320
2484.675	13562
2486.63	13596
2488.589	13502
2490.545	13595
2492.5	13588
2494.455	13525
2496.408	13551
2498.364	13502
2500.318	13284
2502.27	13552
2504.223	13395
2506.174	13420
2508.126	13566
2510.078	13417
2512.03	13280
2513.979	13465
2515.927	13351
2517.877	13511
2519.826	13295
2521.775	13401
2523.722	13457
2525.668	13333
2527.616	13373
2529.561	13269
2531.508	13295
2533.452	13300
2535.398	13425
2537.342	13252
2539.284	13271
2541.229	13457
2543.173	13303
2545.114	13223
2547.055	13388
2548.996	13329
2550.938	13190
2552.878	13427
2554.817	13334
2556.756	13177
2558.695	13443
2560.633	13291
2562.572	13098
2564.509	13169
2566.445	13215
2568.382	13256
2570.317	13199
2572.254	13186
2574.189	13395
2576.123	13363
2578.057	13305
2579.99	13268
2581.923	13231
2583.855	13210
2585.788	13261
2587.719	13231
2589.65	13314
2591.579	13170
2593.511	13159
2595.44	13330
2597.37	13288
2599.297	13314
2601.225	13294
2603.153	13210
2605.08	13378
2607.007	13286
2608.932	13145
2610.858	13214
2612.782	13280
2614.709	13261
2616.632	13140
2618.556	13368
2620.478	13387
2622.401	13349
2624.324	13352
2626.247	13041
2628.167	13271
2630.088	13246
2632.008	13375
2633.928	13170
2635.848	13204
2637.766	13148
2639.684	13238
2641.603	13237
2643.519	13252
2645.437	13241
2647.353	13260
2649.27	13241
2651.184	13297
2653.099	13270
2655.014	13270
2656.928	13228
2658.842	13271
2660.755	13075
2662.667	13246
2664.579	13141
2666.491	13313
2668.402	13117
2670.312	13162
2672.222	12984
2674.132	13142
2676.042	13205
2677.951	13083
2679.859	13039
2681.766	13117
2683.674	13130
2685.582	12999
2687.488	12948
2689.392	13142
2691.298	12929
2693.202	12967
2695.107	12997
2697.012	13040
2698.914	12889
2700.817	12993
2702.72	12998
2704.622	12982
2706.524	12921
2708.425	13012
2710.326	12999
2712.225	12864
2714.125	12907
2716.024	12804
2717.923	12850
2719.822	12890
2721.719	12870
2723.616	12808
2725.512	12883
2727.41	12642
2729.305	12724
2731.201	12656
2733.095	12871
2734.99	12959
2736.884	12700
2738.778	12694
2740.67	12867
2742.562	12838
2744.455	12935
2746.346	12701
2748.238	12731
2750.129	12872
2752.018	12717
2753.907	12828
2755.797	12714
2757.687	12829
2759.575	12880
2761.462	12611
2763.349	12573
2765.237	12615
2767.124	12650
2769.009	12610
2770.894	12509
2772.779	12662
2774.663	12757
2776.547	12603
2778.431	12624
2780.314	12663
2782.197	12546
2784.078	12654
2785.96	12503
2787.842	12638
2789.723	12630
2791.603	12473
2793.483	12559
2795.362	12519
2797.241	12671
2799.121	12629
2800.997	12704
2802.874	12351
2804.751	12312
2806.628	12399
2808.506	12514
2810.38	12550
2812.255	12563
2814.13	12462
2816.003	12572
2817.878	12304
2819.752	12577
2821.623	12543
2823.496	12536
2825.368	12451
2827.238	12570
2829.111	12418
2830.98	12503
2832.851	12629
2834.719	12306
2836.589	12540
2838.458	12600
2840.327	12458
2842.193	12553
2844.061	12456
2845.927	12367
2847.794	12562
2849.66	12317
2851.525	12688
2853.39	12424
2855.254	12679
2857.117	12562
2858.983	12396
2860.845	12526
2862.707	12462
2864.569	12573
2866.431	12613
2868.293	12488
2870.154	12580
2872.013	12734
2873.873	12787
2875.733	12715
2877.592	12733
2879.451	12841
2881.309	12897
2883.166	12824
2885.022	12888
2886.879	12936
2888.736	12870
2890.591	13118
2892.446	12937
2894.301	12803
2896.155	12943
2898.009	13059
2899.863	12892
2901.716	12864
2903.568	12828
2905.419	12900
2907.27	12804
2909.123	12944
2910.973	12886
2912.824	13045
2914.673	13096
2916.521	12930
2918.372	12927
2920.22	13221
2922.067	13145
2923.914	13045
2925.761	13131
2927.607	13113
2929.455	13368
2931.301	13114
2933.144	13387
2934.99	13415
2936.833	13539
2938.678	13433
2940.522	13500
2942.364	13517
2944.207	13758
2946.048	13667
2947.891	13702
2949.731	13560
2951.571	13715
2953.412	13613
2955.25	13562
2957.09	13422
2958.93	13497
2960.767	13326
2962.606	13445
2964.443	13167
2966.279	13340
2968.116	13101
2969.953	13049
2971.788	13008
2973.623	12965
2975.457	13047
2977.292	12715
2979.127	12807
2980.959	12766
2982.792	12760
2984.624	12748
2986.455	12732
2988.288	12699
2990.119	12491
2991.949	12478
2993.779	12387
2995.608	12429
2997.439	12468
2999.268	12348
3001.096	12439
3002.923	12187
3004.751	12261
3006.578	12098
3008.406	12055
3010.232	12027
3012.057	12114
3013.883	11886
3015.706	12069
3017.532	11992
3019.356	11763
3021.179	11823
3023.002	11796
3024.823	11726
3026.646	11825
3028.469	11669
3030.289	11871
3032.11	11765
3033.93	11734
3035.749	11580
3037.57	11621
3039.39	11521
3041.207	11547
3043.026	11618
3044.842	11570
3046.661	11538
3048.477	11606
3050.294	11410
3052.109	11590
3053.925	11728
3055.739	11425
3057.555	11522
3059.368	11377
3061.181	11576
3062.995	11390
3064.807	11631
3066.62	11389
3068.433	11662
3070.243	11561
3072.054	11428
3073.865	11516
3075.675	11337
3077.485	11340
3079.293	11227
3081.102	11375
3082.911	11441
3084.719	11223
3086.527	11300
3088.333	11190
3090.139	11342
3091.945	11195
3093.75	11398
3095.557	11213
3097.361	11203
3099.165	11186
3100.969	11030
3102.772	11316
3104.575	11192
3106.379	11147
3108.181	11036
3109.982	11073
3111.783	11029
3113.584	11091
3115.386	11039
3117.186	11013
3118.985	11157
3120.783	11076
3122.582	11089
3124.381	10943
3126.179	10990
3127.975	11145
3129.772	10805
3131.569	10923
3133.365	10877
3135.161	10986
3136.956	10799
3138.751	10834
3140.544	10934
3142.338	10733
3144.132	10779
3145.925	10954
3147.717	10846
3149.509	10840
3151.301	10832
3153.091	10755
3154.884	10697
3156.673	10782
3158.462	10774
3160.252	10858
3162.041	10947
3163.831	10793
3165.618	10707
3167.405	10712
3169.193	10647
3170.979	10678
3172.767	10673
3174.553	10711
3176.338	10755
3178.123	10687
3179.907	10750
3181.692	10618
3183.477	10731
3185.259	10441
3187.042	10472
3188.824	10594
3190.607	10612
3192.389	10569
3194.17	10736
3195.951	10553
3197.73	10609
3199.51	10647
3201.289	10522
3203.07	10575
3204.848	10587
3206.626	10548
3208.403	10447
3210.18	10458
3211.959	10391
3213.735	10497
3215.511	10406
3217.285	10403
3219.06	10546
3220.836	10435
3222.611	10386
3224.384	10512
3226.158	10507
3227.929	10362
3229.702	10460
3231.476	10554
3233.248	10434
3235.018	10312
3236.789	10414
3238.56	10333
3240.33	10227
3242.1	10333
3243.869	10401
3245.637	10449
3247.405	10231
3249.172	10490
3250.941	10440
3252.707	10384
3254.474	10382
3256.24	10440
3258.006	10361
3259.772	10297
3261.537	10291
3263.301	10465
3265.065	10332
3266.828	10354
3268.592	10377
3270.355	10305
3272.117	10312
3273.878	10225
3275.64	10280
3277.401	10206
3279.162	10278
3280.922	10301
3282.682	10205
3284.441	10333
3286.199	10351
3287.959	10288
3289.716	10355
3291.475	10268
3293.232	10314
3294.988	10187
3296.744	10467
3298.501	10363
3300.256	10230
3302.011	10320
3303.766	10037
3305.52	10195
3307.275	10175
3309.028	10259
3310.781	10228
3312.533	10304
3314.285	10237
3316.038	10173
3317.789	10085
3319.54	10230
3321.289	10372
3323.039	10099
3324.789	10238
3326.539	10153
3328.288	10179
3330.035	10265
3331.783	10106
3333.531	10211
3335.28	10145
3337.025	10079
3338.771	10167
3340.518	10244
3342.262	9995
3344.009	10049
3345.753	10081
3347.497	10020
3349.24	10100
3350.983	10064
3352.726	10044
3354.469	10179
3356.212	10022
3357.952	9841
3359.694	10077
3361.434	10123
3363.176	9952
3364.916	10046
3366.654	9982
3368.394	9952
3370.132	9895
3371.871	9874
3373.61	9961
3375.346	9918
3377.083	9949
3378.82	9827
3380.556	9875
3382.292	9803
3384.027	9848
3385.763	9916
3387.497	9892
3389.231	9762
3390.965	9910
3392.698	9669
3394.431	9781
3396.164	9819
3397.896	9707
3399.627	9758
3401.36	9774
3403.09	9875
3404.82	9734
3406.55	9834
3408.279	9695
3410.01	9833
3411.738	9606
3413.467	9760
3415.194	9685
3416.92	9791
3418.647	9795
3420.375	9694
3422.102	9699
3423.827	9533
3425.553	9724
3427.277	9669
3429.003	9666
3430.727	9570
3432.451	9701
3434.173	9500
3435.896	9487
3437.62	9634
3439.343	9491
3441.063	9603
3442.785	9597
3444.505	9537
3446.226	9387
3447.948	9536
3449.666	9386
3451.386	9381
3453.104	9475
3454.823	9434
3456.541	9469
3458.259	9507
3459.976	9347
3461.693	9411
3463.408	9551
3465.125	9391
3466.841	9299
3468.556	9344
3470.271	9292
3471.985	9197
3473.698	9287
3475.414	9258
3477.126	9252
3478.838	9213
3480.55	9159
3482.263	9355
3483.975	9294
3485.686	9361
3487.396	9155
3489.106	9209
3490.817	9081
3492.526	9210
3494.236	9221
3495.944	9214
3497.652	9173
3499.359	9170
3501.066	9074
3502.775	9061
3504.481	9142
3506.187	9050
3507.893	9062
3509.598	8955
3511.304	9127
3513.009	8947
3514.713	8980
3516.417	8973
3518.12	8988
3519.821	9075
3521.525	9027
3523.228	9012
3524.929	8955
3526.631	8914
3528.33	8960
3530.032	8902
3531.733	8985
3533.433	8957
3535.131	8974
3536.83	8925
3538.529	8892
3540.227	8860
3541.925	8876
3543.623	8817
3545.319	8934
3547.016	8717
3548.712	8790
3550.408	8708
3552.103	8716
3553.798	8746
3555.491	8795
3557.188	8821
3558.88	8850
3560.574	8764
3562.266	8864
3563.959	8662
3565.651	8815
3567.343	8794
3569.035	8771
3570.725	8818
3572.415	8719
3574.106	8688
3575.797	8730
3577.485	8706
3579.174	8757
3580.863	8699
3582.551	8745
3584.238	8485
3585.926	8656
3587.613	8676
3589.3	8675
3590.986	8544
3592.671	8542
3594.357	8659
3596.042	8615
3597.726	8605
3599.41	8617
3601.094	8514
3602.778	8471
3604.461	8520
3606.143	8389
3607.825	8497
3609.507	8424
3611.188	8382
3612.87	8432
3614.551	8465
3616.229	8459
3617.909	8291
3619.589	8308
3621.269	8396
3622.948	8333
3624.625	8307
3626.302	8284
3627.98	8296
3629.657	8346
3631.334	8394
3633.01	8314
3634.686	8383
3636.361	8349
3638.036	8306
3639.712	8327
3641.385	8279
3643.06	8270
3644.732	8224
3646.405	8120
3648.08	8110
3649.751	8102
3651.424	8169
3653.094	8162
3654.766	8181
3656.436	8065
3658.106	8074
3659.777	8277
3661.446	8071
3663.115	8109
3664.783	7993
3666.452	8167
3668.121	8144
3669.788	7984
3671.454	8252
3673.121	8069
3674.789	8172
3676.455	8066
3678.12	8010
3679.784	8084
3681.45	7894
3683.114	7962
3684.779	7989
3686.442	8054
3688.105	7936
3689.768	8118
3691.43	8145
3693.093	7990
3694.754	7823
3696.415	8029
3698.076	7924
3699.736	8002
3701.396	7929
3703.057	8006
3704.716	7843
3706.375	7973
3708.034	8013
3709.692	8025
3711.351	7841
3713.008	7960
3714.665	7941
3716.321	7928
3717.977	7919
3719.634	7865
3721.29	7751
3722.945	7839
3724.598	7871
3726.253	7828
3727.907	7805
3729.561	7780
3731.214	7782
3732.867	7791
3734.518	7769
3736.171	7957
3737.824	7814
3739.474	7888
3741.125	7624
3742.775	7722
3744.425	7848
3746.074	7794
3747.725	7728
3749.373	7851
3751.022	7811
3752.669	7671
3754.318	7569
3755.966	7771
3757.612	7764
3759.259	7608
3760.905	7619
3762.55	7547
3764.197	7624
3765.842	7565
3767.486	7620
3769.131	7686
3770.774	7577
3772.417	7644
3774.061	7662
3775.705	7517
3777.347	7582
3778.988	7506
3780.629	7459
3782.271	7669
3783.912	7598
3785.552	7618
3787.192	7569
3788.831	7538
3790.472	7579
3792.112	7427
3793.75	7450
3795.388	7513
3797.024	7524
3798.661	7503
3800.3	7419
3801.936	7430
3803.572	7485
3805.208	7494
3806.844	7470
3808.48	7391
3810.115	7387
3811.748	7388
3813.382	7515
3815.016	7335
3816.649	7352
3818.283	7428
3819.914	7309
3821.547	7204
3823.178	7453
3824.809	7270
3826.441	7370
3828.072	7281
3829.701	7344
3831.331	7375
3832.96	7351
3834.591	7263
3836.219	7302
3837.847	7189
3839.475	7315
3841.102	7332
3842.729	7308
3844.357	7187
3845.984	7350
3847.609	7235
3849.234	7242
3850.86	7156
3852.485	7141
3854.11	7246
3855.734	7173
3857.357	7164
3858.981	7238
3860.603	7075
3862.227	7177
3863.848	7134
3865.471	7128
3867.092	7106
3868.713	7088
3870.334	7063
3871.954	7157
3873.575	7081
3875.194	7193
3876.813	7068
3878.433	6994
3880.051	7097
3881.669	7148
3883.286	7105
3884.904	7088
3886.52	7029
3888.138	7027
3889.754	6990
3891.37	7117
3892.985	6994
3894.6	6986
3896.216	7081
3897.831	7042
3899.444	7082
3901.058	6961
3902.67	6896
3904.283	6996
3905.897	6924
3907.509	6913
3909.121	7076
3910.731	6893
3912.342	6965
3913.954	6963
3915.563	6979
3917.174	6847
3918.783	6924
3920.391	7018
3922.002	6918
3923.611	7013
3925.218	7012
3926.826	6815
3928.432	6862
3930.039	6950
3931.647	6876
3933.253	6957
3934.859	6855
3936.464	6984
3938.068	6905
3939.675	6925
3941.278	6971
3942.883	6949
3944.486	6741
3946.089	6751
3947.692	6852
3949.295	6774
3950.898	6873
3952.499	6836
3954.1	6796
3955.7	6835
3957.303	6906
3958.903	6792
3960.502	6854
3962.101	6764
3963.7	6777
3965.301	6694
3966.899	6672
3968.497	6723
3970.094	6702
3971.691	6591
3973.288	6677
3974.885	6636
3976.481	6713
3978.077	6693
3979.672	6698
3981.267	6661
3982.863	6589
3984.457	6598
3986.051	6612
3987.645	6546
3989.238	6549
3990.831	6534
3992.425	6556
3994.017	6664
3995.607	6577
3997.199	6628
3998.79	6579
4000.382	6508
4001.973	6540
4003.561	6386
4005.151	6530
4006.741	6525
4008.331	6510
4009.918	6434
4011.507	6477
4013.095	6429
4014.681	6414
4016.269	6542
4017.856	6441
4019.443	6486
4021.028	6444
4022.614	6429
4024.199	6450
4025.785	6411
4027.37	6299
4028.953	6397
4030.536	6373
4032.12	6306
4033.704	6324
4035.287	6299
4036.869	6281
4038.45	6291
4040.032	6385
4041.613	6245
4043.195	6194
4044.776	6257
4046.356	6361
4047.935	6401
4049.515	6198
4051.095	6303
4052.674	6223
4054.251	6237
4055.829	6248
4057.406	6215
4058.985	6254
4060.562	6335
4062.139	6138
4063.715	6111
4065.29	6251
4066.865	6200
4068.442	6166
4070.016	6227
4071.59	6194
4073.164	6059
4074.738	6147
4076.312	6185
4077.885	6188
4079.458	6092
4081.03	6042
4082.602	6227
4084.173	6127
4085.745	6130
4087.315	5961
4088.886	6030
4090.456	6170
4092.026	6171
4093.596	6066
4095.165	6112
4096.734	6024
4098.301	5981
4099.869	6016
4101.437	6068
4103.006	6009
4104.572	6027
4106.139	6001
4107.704	5996
4109.27	5883
4110.837	6057
4112.401	5990
4113.966	5995
4115.53	5959
4117.094	5947
4118.659	6009
4120.223	5967
4121.785	5836
4123.347	5943
4124.909	5900
4126.471	5839
4128.034	5929
4129.595	5903
4131.155	6018
4132.716	5815
4134.275	5828
4135.836	5906
4137.395	5772
4138.955	5832
4140.513	5910
4142.071	5727
4143.628	5851
4145.188	5783
4146.745	5872
4148.302	5855
4149.858	5829
4151.414	5757
4152.971	5761
4154.526	5773
4156.081	5685
4157.635	5851
4159.189	5734
4160.745	5779
4162.298	5763
4163.852	5778
4165.405	5733
4166.957	5784
4168.51	5752
4170.063	5670
4171.614	5772
4173.166	5655
4174.717	5737
4176.267	5573
4177.817	5660
4179.368	5635
4180.917	5589
4182.466	5652
4184.016	5612
4185.564	5618
4187.112	5629
4188.66	5577
4190.207	5522
4191.754	5575
4193.301	5563
4194.848	5624
4196.394	5481
4197.94	5447
4199.484	5637
4201.03	5504
4202.575	5610
4204.12	5468
4205.663	5581
4207.207	5568
4208.75	5650
4210.292	5596
4211.836	5537
4213.378	5413
4214.92	5561
4216.46	5618
4218.002	5468
4219.544	5579
4221.083	5501
4222.625	5511
4224.164	5382
4225.703	5418
4227.244	5426
4228.782	5496
4230.32	5440
4231.857	5388
4233.395	5415
4234.933	5435
4236.471	5438
4238.007	5447
4239.542	5416
4241.078	5379
4242.614	5466
4244.15	5433
4245.685	5258
4247.219	5429
4248.753	5368
4250.287	5329
4251.82	5380
4253.354	5426
4254.887	5362
4256.419	5405
4257.951	5378
4259.483	5270
4261.016	5381
4262.547	5298
4264.078	5250
4265.608	5414
4267.137	5384
4268.668	5201
4270.197	5230
4271.727	5369
4273.254	5175
4274.783	5366
4276.311	5228
4277.84	5270
4279.366	5273
4280.894	5260
4282.42	5245
4283.946	5151
4285.473	5188
4286.998	5270
4288.523	5153
4290.047	5239
4291.572	5111
4293.096	5335
4294.622	5217
4296.144	5207
4297.668	5152
4299.19	5220
4300.713	5207
4302.236	5203
4303.758	5126
4305.279	5295
4306.799	5178
4308.321	5135
4309.842	5082
4311.361	5228
4312.882	5026
4314.401	5088
