400.0961	4321
402.6185	4277
405.1424	4274
407.6635	4276
410.1838	4410
412.7035	4322
415.2225	4411
417.7388	4381
420.2585	4553
422.7754	4550
425.2917	4544
427.8072	4606
430.3221	4614
432.8363	4618
435.3498	4738
437.8626	4618
440.3727	4679
442.8841	4620
445.3969	4685
447.907	4657
450.4142	4756
452.9229	4673
455.4289	4603
457.9362	4676
460.4449	4588
462.9488	4569
465.454	4627
467.9566	4575
470.4604	4657
472.9637	4546
475.4662	4559
477.966	4604
480.4671	4612
482.9656	4720
485.4633	4574
487.9645	4572
490.4608	4627
492.9566	4686
495.4536	4628
497.948	4696
500.4437	4606
502.9387	4631
505.431	4653
507.9226	4663
510.4136	4703
512.9079	4636
515.3975	4718
517.8864	4752
520.3746	4652
522.8622	4710
525.3491	4802
527.8394	4699
530.3249	4763
532.8098	4716
535.2939	4751
537.7774	4756
540.2623	4751
542.7444	4758
545.2259	4710
547.7067	4853
550.1868	4736
552.6683	4781
555.147	4750
557.6231	4866
560.1005	4739
562.5773	4787
565.0534	4860
567.5308	4860
570.0056	4796
572.4776	4901
574.951	4842
577.4237	4953
579.8978	4989
582.3671	5054
584.8378	5082
587.3079	5014
589.7773	4999
592.244	5098
594.714	5025
597.1793	5107
599.6461	4921
602.1121	5015
604.5754	5087
607.0421	4926
609.5042	5002
611.9675	4962
614.4282	4867
616.8902	4982
619.3515	4965
621.8122	4914
624.2702	4928
626.7296	4877
629.1863	4862
631.6423	4919
634.1017	4986
636.5563	4937
639.0104	4847
641.4658	4897
643.9185	4825
646.3725	4930
648.8239	4872
651.2766	4990
653.7266	4848
656.176	5038
658.6247	4997
661.0748	4960
663.5242	5036
665.9709	4988
668.417	5088
670.8624	4881
673.3092	5039
675.7533	5036
678.1968	5038
680.6395	5124
683.0817	5120
685.5251	5075
687.9659	5069
690.4061	5110
692.8456	5074
695.2844	5122
697.7226	5152
700.1621	5015
702.599	5157
705.0332	5108
707.4688	5127
709.9036	5044
712.3399	5245
714.7735	5187
717.2044	5194
719.6367	5174
722.0683	5150
724.4993	5221
726.9296	5141
729.3593	5173
731.7883	5230
734.2147	5358
736.6423	5243
739.0714	5340
741.4958	5329
743.9216	5373
746.3447	5291
748.7691	5406
751.1929	5332
753.616	5449
756.0366	5381
758.4584	5386
760.8776	5526
763.2982	5436
765.718	5452
768.1373	5444
770.5539	5436
772.9698	5364
775.3871	5376
777.8038	5441
780.2178	5461
782.6332	5377
785.0459	5518
787.458	5381
789.8714	5497
792.2842	5401
794.6943	5555
797.1038	5487
799.5127	5386
801.9209	5482
804.3324	5585
806.7393	5516
809.1456	5481
811.5513	5436
813.9562	5500
816.3625	5625
818.7663	5667
821.1693	5509
823.5718	5504
825.9735	5570
828.3746	5611
830.7771	5428
833.177	5588
835.5762	5540
837.9747	5594
840.3727	5520
842.772	5604
845.1666	5565
847.5626	5644
849.958	5716
852.3527	5663
854.7488	5732
857.1403	5771
859.5331	5899
861.9253	5772
864.3168	5767
866.7057	5584
869.098	5747
871.4876	5644
873.8746	5749
876.263	5710
878.6487	5639
881.0378	5771
883.4243	5729
885.8081	5720
888.1933	5767
890.5759	5666
892.9598	5763
895.343	5659
897.7256	5769
900.1057	5683
902.4871	5827
904.8659	5730
907.246	5684
909.6254	5777
912.0023	5819
914.3786	5791
916.7562	5844
919.1331	5896
921.5074	6146
923.8831	6024
926.2562	5996
928.6287	6014
931.0005	6067
933.3757	6037
935.7462	6096
938.1162	6186
940.4855	6283
942.8542	6261
945.2242	6503
947.5916	6567
949.9584	6703
952.3266	7154
954.6921	7436
957.0571	7910
959.4233	8247
961.787	8303
964.15	8259
966.5125	8122
968.8742	7577
971.2354	7068
973.5959	6726
975.9559	6433
978.3151	6329
980.6738	6112
983.0338	6077
985.3912	6111
987.7461	5933
990.1022	6005
992.4578	5996
994.8127	5982
997.1689	5985
999.5207	6004
1001.874	5994
1004.226	5985
1006.576	5970
1008.929	6060
1011.28	6032
1013.628	5873
1015.977	5971
1018.324	6025
1020.674	6033
1023.019	6009
1025.366	6099
1027.713	6067
1030.056	6139
1032.399	6139
1034.746	6036
1037.087	6141
1039.431	6101
1041.771	6022
1044.113	6069
1046.454	6167
1048.793	6129
1051.133	6066
1053.471	6184
1055.807	6087
1058.146	6020
1060.483	6015
1062.818	6223
1065.153	6209
1067.489	6210
1069.822	6316
1072.156	6330
1074.488	6441
1076.82	6329
1079.15	6270
1081.48	6173
1083.814	6147
1086.143	6212
1088.471	6073
1090.799	6041
1093.126	6006
1095.452	6047
1097.78	6142
1100.105	6114
1102.43	6091
1104.754	6054
1107.077	6104
1109.4	6086
1111.722	6026
1114.044	6075
1116.365	6069
1118.685	6070
1121.005	6123
1123.324	5932
1125.643	6085
1127.961	6050
1130.278	6046
1132.595	6157
1134.911	6064
1137.226	6091
1139.541	6039
1141.854	6065
1144.167	5968
1146.482	6077
1148.793	6076
1151.105	5986
1153.414	6119
1155.725	5988
1158.033	6097
1160.344	6046
1162.651	6028
1164.959	6044
1167.265	6128
1169.572	6059
1171.878	5981
1174.184	6080
1176.488	6085
1178.79	6105
1181.094	6111
1183.396	6090
1185.699	6047
1188.001	6111
1190.301	6017
1192.6	6054
1194.9	6012
1197.2	5963
1199.497	6031
1201.794	6050
1204.09	6033
1206.387	6050
1208.684	6086
1210.978	6116
1213.272	6143
1215.565	6061
1217.858	6136
1220.15	6114
1222.443	6107
1224.734	6052
1227.024	6210
1229.313	6155
1231.602	6257
1233.892	6250
1236.18	6338
1238.467	6482
1240.754	6421
1243.04	6379
1245.325	6407
1247.612	6412
1249.896	6410
1252.178	6391
1254.461	6451
1256.743	6362
1259.027	6393
1261.308	6345
1263.587	6426
1265.867	6351
1268.146	6423
1270.425	6375
1272.703	6364
1274.981	6399
1277.256	6403
1279.532	6227
1281.808	6343
1284.083	6315
1286.358	6386
1288.63	6331
1290.904	6304
1293.175	6317
1295.449	6226
1297.719	6359
1299.99	6265
1302.259	6352
1304.529	6272
1306.798	6301
1309.065	6256
1311.333	6370
1313.599	6285
1315.866	6343
1318.131	6204
1320.396	6339
1322.66	6184
1324.925	6317
1327.187	6359
1329.448	6354
1331.711	6310
1333.974	6230
1336.234	6211
1338.493	6283
1340.752	6259
1343.01	6321
1345.269	6303
1347.526	6328
1349.784	6392
1352.04	6307
1354.295	6294
1356.552	6234
1358.806	6189
1361.059	6272
1363.312	6195
1365.564	6135
1367.818	6345
1370.069	6273
1372.318	6248
1374.568	6306
1376.817	6368
1379.066	6291
1381.316	6307
1383.564	6338
1385.809	6252
1388.056	6354
1390.301	6243
1392.549	6422
1394.793	6557
1397.036	6486
1399.279	6436
1401.522	6430
1403.763	6447
1406.007	6520
1408.248	6526
1410.487	6473
1412.727	6479
1414.965	6625
1417.205	6521
1419.442	6549
1421.68	6467
1423.915	6517
1426.152	6505
1428.388	6559
1430.623	6465
1432.857	6571
1435.091	6451
1437.323	6617
1439.556	6555
1441.789	6637
1444.019	6544
1446.25	6634
1448.48	6656
1450.708	6612
1452.938	6708
1455.167	6650
1457.394	6680
1459.62	6643
1461.846	6683
1464.073	6650
1466.299	6629
1468.523	6554
1470.746	6511
1472.969	6535
1475.191	6471
1477.415	6524
1479.636	6397
1481.858	6378
1484.078	6422
1486.298	6369
1488.518	6283
1490.736	6339
1492.954	6262
1495.169	6271
1497.386	6386
1499.602	6411
1501.819	6168
1504.034	6319
1506.248	6317
1508.462	6315
1510.675	6253
1512.888	6307
1515.1	6178
1517.311	6232
1519.522	6199
1521.732	6282
1523.942	6229
1526.151	6260
1528.36	6255
1530.566	6240
1532.773	6301
1534.98	6216
1537.187	6200
1539.392	6250
1541.596	6402
1543.801	6360
1546.005	6352
1548.208	6233
1550.411	6197
1552.612	6473
1554.814	6421
1557.013	6324
1559.212	6308
1561.414	6436
1563.612	6316
1565.811	6369
1568.007	6478
1570.203	6463
1572.403	6372
1574.598	6435
1576.792	6405
1578.988	6399
1581.181	6535
1583.376	6381
1585.568	6325
1587.761	6557
1589.952	6362
1592.143	6472
1594.333	6462
1596.524	6450
1598.715	6431
1600.903	6467
1603.091	6441
1605.278	6578
1607.466	6533
1609.652	6510
1611.838	6591
1614.023	6573
1616.207	6485
1618.391	6564
1620.576	6471
1622.759	6554
1624.941	6489
1627.123	6545
1629.304	6639
1631.484	6592
1633.664	6525
1635.844	6526
1638.022	6588
1640.201	6671
1642.38	6704
1644.556	6583
1646.732	6678
1648.908	6608
1651.084	6669
1653.257	6639
1655.433	6611
1657.607	6756
1659.779	6778
1661.951	6608
1664.122	6724
1666.295	6662
1668.467	6605
1670.635	6757
1672.805	6723
1674.973	6867
1677.142	6684
1679.31	6629
1681.478	6612
1683.644	6596
1685.81	6668
1687.975	6594
1690.142	6755
1692.305	6612
1694.468	6501
1696.632	6576
1698.794	6574
1700.957	6533
1703.119	6564
1705.279	6491
1707.439	6490
1709.598	6493
1711.758	6559
1713.917	6452
1716.075	6433
1718.231	6498
1720.388	6347
1722.543	6377
1724.702	6486
1726.856	6510
1729.01	6489
1731.164	6526
1733.317	6437
1735.471	6327
1737.623	6320
1739.774	6489
1741.925	6516
1744.075	6385
1746.225	6522
1748.376	6369
1750.524	6435
1752.672	6373
1754.82	6529
1756.965	6368
1759.113	6424
1761.259	6388
1763.405	6517
1765.549	6510
1767.694	6610
1769.836	6457
1771.981	6486
1774.123	6433
1776.264	6543
1778.405	6572
1780.546	6607
1782.687	6434
1784.827	6413
1786.966	6528
1789.103	6569
1791.242	6530
1793.381	6482
1795.517	6643
1797.653	6483
1799.788	6593
1801.923	6495
1804.057	6569
1806.193	6484
1808.326	6562
1810.457	6510
1812.59	6496
1814.721	6645
1816.855	6559
1818.984	6612
1821.113	6564
1823.244	6481
1825.372	6564
1827.499	6542
1829.63	6581
1831.756	6424
1833.882	6495
1836.007	6562
1838.132	6474
1840.26	6479
1842.384	6328
1844.507	6547
1846.63	6545
1848.752	6511
1850.875	6490
1852.996	6371
1855.118	6462
1857.238	6590
1859.358	6447
1861.477	6370
1863.597	6454
1865.715	6351
1867.832	6493
1869.948	6453
1872.064	6410
1874.181	6426
1876.297	6522
1878.411	6422
1880.526	6494
1882.639	6491
1884.752	6528
1886.865	6532
1888.977	6430
1891.089	6526
1893.2	6484
1895.308	6537
1897.42	6540
1899.53	6584
1901.639	6433
1903.745	6507
1905.853	6651
1907.962	6530
1910.067	6488
1912.174	6677
1914.278	6587
1916.383	6623
1918.486	6507
1920.592	6517
1922.694	6551
1924.797	6494
1926.898	6532
1929	6744
1931.102	6575
1933.203	6538
1935.301	6564
1937.401	6546
1939.499	6624
1941.598	6549
1943.697	6538
1945.793	6641
1947.888	6686
1949.985	6649
1952.08	6743
1954.176	6512
1956.269	6557
1958.364	6626
1960.457	6515
1962.549	6545
1964.642	6515
1966.733	6716
1968.823	6618
1970.913	6521
1973.005	6554
1975.093	6513
1977.184	6585
1979.271	6520
1981.359	6544
1983.446	6494
1985.532	6457
1987.619	6463
1989.705	6469
1991.789	6542
1993.874	6526
1995.956	6462
1998.041	6463
2000.123	6443
2002.206	6559
2004.287	6526
2006.368	6466
2008.449	6395
2010.529	6432
2012.609	6449
2014.688	6522
2016.766	6500
2018.843	6571
2020.922	6424
2022.999	6448
2025.074	6415
2027.15	6549
2029.225	6533
2031.299	6525
2033.375	6441
2035.447	6578
2037.52	6471
2039.592	6491
2041.664	6484
2043.736	6398
2045.807	6514
2047.876	6523
2049.947	6522
2052.015	6503
2054.086	6543
2056.153	6403
2058.221	6495
2060.288	6529
2062.353	6481
2064.42	6542
2066.486	6600
2068.55	6625
2070.614	6529
2072.678	6603
2074.741	6507
2076.805	6474
2078.866	6626
2080.929	6420
2082.99	6557
2085.049	6490
2087.109	6505
2089.17	6473
2091.228	6427
2093.286	6506
2095.344	6596
2097.4	6458
2099.46	6507
2101.516	6511
2103.572	6497
2105.626	6494
2107.679	6580
2109.735	6504
2111.788	6511
2113.841	6508
2115.894	6559
2117.945	6477
2119.997	6462
2122.049	6497
2124.1	6506
2126.148	6515
2128.197	6504
2130.246	6596
2132.296	6506
2134.342	6447
2136.39	6472
2138.437	6479
2140.483	6464
2142.527	6413
2144.574	6478
2146.619	6481
2148.661	6432
2150.705	6383
2152.747	6533
2154.792	6490
2156.832	6476
2158.874	6406
2160.915	6491
2162.954	6506
2164.995	6355
2167.034	6488
2169.072	6471
2171.111	6508
2173.148	6405
2175.186	6439
2177.223	6367
2179.258	6460
2181.294	6304
2183.328	6425
2185.362	6461
2187.398	6283
2189.431	6381
2191.463	6314
2193.495	6505
2195.528	6301
2197.56	6387
2199.59	6370
2201.62	6408
2203.649	6377
2205.678	6318
2207.708	6434
2209.737	6304
2211.764	6212
2213.791	6381
2215.817	6461
2217.843	6316
2219.87	6307
2221.895	6341
2223.919	6320
2225.942	6299
2227.966	6288
2229.988	6245
2232.012	6261
2234.032	6399
2236.054	6518
2238.074	6361
2240.095	6274
2242.116	6329
2244.135	6467
2246.153	6285
2248.171	6416
2250.188	6343
2252.208	6246
2254.223	6516
2256.239	6386
2258.255	6383
2260.269	6359
2262.283	6276
2264.3	6256
2266.312	6422
2268.325	6198
2270.336	6226
2272.349	6398
2274.362	6341
2276.372	6174
2278.383	6385
2280.392	6298
2282.402	6332
2284.409	6339
2286.418	6303
2288.427	6393
2290.433	6303
2292.441	6249
2294.446	6293
2296.453	6263
2298.459	6326
2300.463	6173
2302.466	6286
2304.471	6291
2306.475	6317
2308.477	6332
2310.478	6105
2312.481	6220
2314.481	6218
2316.481	6227
2318.482	6347
2320.482	6229
2322.48	6250
2324.48	6289
2326.478	6232
2328.476	6203
2330.473	6198
2332.469	6154
2334.465	6236
2336.46	6262
2338.454	6111
2340.45	6267
2342.444	6156
2344.437	6311
2346.43	6302
2348.421	6152
2350.414	6106
2352.405	6161
2354.396	6192
2356.386	6140
2358.376	6155
2360.366	6190
2362.355	6256
2364.343	6214
2366.331	6175
2368.317	6214
2370.304	6153
2372.292	6288
2374.278	6148
2376.262	6183
2378.247	6142
2380.23	6088
2382.216	6182
2384.199	6126
2386.181	6131
2388.163	6018
2390.144	6181
2392.127	6162
2394.107	6132
2396.087	6109
2398.066	6112
2400.046	6088
2402.023	6192
2404.004	6127
2405.981	6031
2407.957	6122
2409.934	6152
2411.91	6050
2413.886	6123
2415.862	6080
2417.836	6090
2419.809	6251
2421.784	6020
2423.756	6048
2425.73	6125
2427.701	6039
2429.672	6085
2431.644	6011
2433.615	6089
2435.586	6126
2437.555	6021
2439.523	6070
2441.491	6109
2443.459	6080
2445.428	6089
2447.395	6050
2449.361	6090
2451.327	6144
2453.292	6115
2455.257	6070
2457.223	6104
2459.187	6158
2461.15	6075
2463.113	6024
2465.076	6069
2467.039	5969
2468.999	6031
2470.96	6023
2472.921	6037
2474.881	5953
2476.841	5973
2478.8	6001
2480.759	6095
2482.717	5962
2484.675	5883
2486.63	5984
2488.589	6020
2490.545	6010
2492.5	5939
2494.455	6041
2496.408	5922
2498.364	6015
2500.318	5997
2502.27	5946
2504.223	5970
2506.174	6065
2508.126	6143
2510.078	6042
2512.03	5894
2513.979	5914
2515.927	5913
2517.877	5979
2519.826	5953
2521.775	6005
2523.722	5961
2525.668	5864
2527.616	6044
2529.561	5962
2531.508	5967
2533.452	5924
2535.398	5918
2537.342	5926
2539.284	5890
2541.229	6031
2543.173	5885
2545.114	5933
2547.055	5934
2548.996	5872
2550.938	5940
2552.878	5996
2554.817	5876
2556.756	5838
2558.695	6048
2560.633	5847
2562.572	5975
2564.509	5810
2566.445	5881
2568.382	6001
2570.317	5947
2572.254	5941
2574.189	6082
2576.123	5991
2578.057	5923
2579.99	5927
2581.923	5796
2583.855	5839
2585.788	5829
2587.719	6034
2589.65	6015
2591.579	5892
2593.511	5947
2595.44	5971
2597.37	5976
2599.297	5956
2601.225	5949
2603.153	5848
2605.08	5912
2607.007	5985
2608.932	5866
2610.858	5901
2612.782	5889
2614.709	5909
2616.632	5951
2618.556	6014
2620.478	6069
2622.401	6031
2624.324	5910
2626.247	5875
2628.167	6001
2630.088	5971
2632.008	5949
2633.928	5945
2635.848	6011
2637.766	5914
2639.684	5865
2641.603	5931
2643.519	5979
2645.437	5962
2647.353	5980
2649.27	5943
2651.184	5984
2653.099	5895
2655.014	6060
2656.928	5976
2658.842	5955
2660.755	5864
2662.667	5928
2664.579	6018
2666.491	5945
2668.402	5833
2670.312	5944
2672.222	5907
2674.132	5916
2676.042	5934
2677.951	5886
2679.859	5871
2681.766	5861
2683.674	5886
2685.582	5861
2687.488	5964
2689.392	5825
2691.298	5826
2693.202	5901
2695.107	5904
2697.012	5951
2698.914	5876
2700.817	5752
2702.72	5775
2704.622	5815
2706.524	5829
2708.425	5842
2710.326	5830
2712.225	5853
2714.125	5757
2716.024	5875
2717.923	5805
2719.822	5826
2721.719	5730
2723.616	5866
2725.512	5857
2727.41	5839
2729.305	5808
2731.201	5848
2733.095	5781
2734.99	5844
2736.884	5772
2738.778	5795
2740.67	5801
2742.562	5725
2744.455	5759
2746.346	5750
2748.238	5830
2750.129	5817
2752.018	5770
2753.907	5797
2755.797	5785
2757.687	5841
2759.575	5743
2761.462	5821
2763.349	5822
2765.237	5756
2767.124	5742
2769.009	5787
2770.894	5747
2772.779	5857
2774.663	5821
2776.547	5806
2778.431	5768
2780.314	5740
2782.197	5629
2784.078	5755
2785.96	5800
2787.842	5777
2789.723	5757
2791.603	5719
2793.483	5719
2795.362	5793
2797.241	5701
2799.121	5741
2800.997	5756
2802.874	5795
2804.751	5802
2806.628	5834
2808.506	5885
2810.38	5637
2812.255	5642
2814.13	5707
2816.003	5658
2817.878	5588
2819.752	5672
2821.623	5739
2823.496	5670
2825.368	5576
2827.238	5638
2829.111	5667
2830.98	5586
2832.851	5705
2834.719	5717
2836.589	5561
2838.458	5819
2840.327	5745
2842.193	5740
2844.061	5799
2845.927	5791
2847.794	5706
2849.66	5754
2851.525	5796
2853.39	5742
2855.254	5865
2857.117	5780
2858.983	5898
2860.845	5854
2862.707	5894
2864.569	5915
2866.431	5989
2868.293	5942
2870.154	5943
2872.013	6024
2873.873	6186
2875.733	6073
2877.592	6220
2879.451	6279
2881.309	6337
2883.166	6334
2885.022	6397
2886.879	6416
2888.736	6380
2890.591	6376
2892.446	6429
2894.301	6307
2896.155	6412
2898.009	6335
2899.863	6362
2901.716	6348
2903.568	6325
2905.419	6339
2907.27	6380
2909.123	6352
2910.973	6437
2912.824	6427
2914.673	6516
2916.521	6604
2918.372	6599
2920.22	6795
2922.067	6680
2923.914	6858
2925.761	6895
2927.607	6882
2929.455	7096
2931.301	7146
2933.144	7189
2934.99	7183
2936.833	7180
2938.678	7167
2940.522	7405
2942.364	7486
2944.207	7534
2946.048	7519
2947.891	7500
2949.731	7518
2951.571	7430
2953.412	7475
2955.25	7345
2957.09	7264
2958.93	7162
2960.767	7220
2962.606	7073
2964.443	7038
2966.279	6936
2968.116	6882
2969.953	6767
2971.788	6769
2973.623	6697
2975.457	6564
2977.292	6581
2979.127	6570
2980.959	6611
2982.792	6524
2984.624	6488
2986.455	6431
2988.288	6475
2990.119	6401
2991.949	6319
2993.779	6335
2995.608	6248
2997.439	6280
2999.268	6178
3001.096	6082
3002.923	6113
3004.751	6005
3006.578	5897
3008.406	5950
3010.232	6021
3012.057	5804
3013.883	5784
3015.706	5733
3017.532	5633
3019.356	5706
3021.179	5602
3023.002	5724
3024.823	5696
3026.646	5506
3028.469	5485
3030.289	5660
3032.11	5491
3033.93	5548
3035.749	5546
3037.57	5442
3039.39	5455
3041.207	5507
3043.026	5480
3044.842	5532
3046.661	5552
3048.477	5464
3050.294	5323
3052.109	5445
3053.925	5380
3055.739	5407
3057.555	5454
3059.368	5436
3061.181	5493
3062.995	5403
3064.807	5400
3066.62	5419
3068.433	5468
3070.243	5378
3072.054	5441
3073.865	5372
3075.675	5442
3077.485	5361
3079.293	5353
3081.102	5550
3082.911	5444
3084.719	5359
3086.527	5333
3088.333	5278
3090.139	5397
3091.945	5322
3093.75	5266
3095.557	5284
3097.361	5307
3099.165	5317
3100.969	5280
3102.772	5206
3104.575	5213
3106.379	5251
3108.181	5149
3109.982	5264
3111.783	5223
3113.584	5184
3115.386	5249
3117.186	5173
3118.985	5193
3120.783	5081
3122.582	5204
3124.381	5149
3126.179	5043
3127.975	5327
3129.772	5192
3131.569	5187
3133.365	5110
3135.161	5168
3136.956	5137
3138.751	5178
3140.544	5173
3142.338	5200
3144.132	5188
3145.925	5170
3147.717	5155
3149.509	5106
3151.301	5178
3153.091	5084
3154.884	5137
3156.673	5220
3158.462	5154
3160.252	5173
3162.041	5180
3163.831	5170
3165.618	5212
3167.405	5197
3169.193	5187
3170.979	5112
3172.767	5148
3174.553	5094
3176.338	4994
3178.123	5070
3179.907	5081
3181.692	5081
3183.477	5109
3185.259	5132
3187.042	5152
3188.824	5010
3190.607	5155
3192.389	5052
3194.17	5075
3195.951	5184
3197.73	5117
3199.51	5073
3201.289	4982
3203.07	5109
3204.848	5166
3206.626	5102
3208.403	5219
3210.18	5082
3211.959	5097
3213.735	5080
3215.511	5150
3217.285	5104
3219.06	5087
3220.836	5057
3222.611	5079
3224.384	5132
3226.158	5159
3227.929	5060
3229.702	5187
3231.476	5115
3233.248	5049
3235.018	5107
3236.789	5101
3238.56	5029
3240.33	5127
3242.1	5065
3243.869	5118
3245.637	5093
3247.405	5143
3249.172	5048
3250.941	5191
3252.707	5080
3254.474	5067
3256.24	5183
3258.006	5088
3259.772	5156
3261.537	5141
3263.301	5154
3265.065	5067
3266.828	4939
3268.592	5010
3270.355	5132
3272.117	5085
3273.878	5046
3275.64	5077
3277.401	5187
3279.162	5065
3280.922	5097
3282.682	5134
3284.441	5081
3286.199	5031
3287.959	5025
3289.716	5099
3291.475	5074
3293.232	5036
3294.988	5133
3296.744	5011
3298.501	5221
3300.256	5113
3302.011	5114
3303.766	5029
3305.52	5116
3307.275	5013
3309.028	5063
3310.781	5163
3312.533	5069
3314.285	5161
3316.038	5157
3317.789	5111
3319.54	5036
3321.289	5125
3323.039	5068
3324.789	5109
3326.539	5082
3328.288	5031
3330.035	5133
3331.783	4969
3333.531	5083
3335.28	5163
3337.025	4975
3338.771	5054
3340.518	5057
3342.262	5010
3344.009	5072
3345.753	5110
3347.497	5101
3349.24	4992
3350.983	4997
3352.726	5051
3354.469	5057
3356.212	5009
3357.952	4971
3359.694	4945
3361.434	5017
3363.176	4979
3364.916	4955
3366.654	4974
3368.394	4925
3370.132	4951
3371.871	4852
3373.61	4908
3375.346	4894
3377.083	4961
3378.82	4944
3380.556	4906
3382.292	4881
3384.027	4926
3385.763	4904
3387.497	4922
3389.231	4984
3390.965	4841
3392.698	4840
3394.431	4862
3396.164	4839
3397.896	4859
3399.627	4948
3401.36	4876
3403.09	4923
3404.82	4834
3406.55	4921
3408.279	4776
3410.01	4888
3411.738	4849
3413.467	4803
3415.194	4880
3416.92	4948
3418.647	4816
3420.375	4824
3422.102	4738
3423.827	4888
3425.553	4878
3427.277	4806
3429.003	4813
3430.727	4736
3432.451	4738
3434.173	4799
3435.896	4846
3437.62	4728
3439.343	4717
3441.063	4732
3442.785	4758
3444.505	4672
3446.226	4785
3447.948	4749
3449.666	4639
3451.386	4727
3453.104	4831
3454.823	4792
3456.541	4682
3458.259	4644
3459.976	4648
3461.693	4756
3463.408	4646
3465.125	4681
3466.841	4686
3468.556	4631
3470.271	4632
3471.985	4538
3473.698	4624
3475.414	4610
3477.126	4570
3478.838	4723
3480.55	4527
3482.263	4651
3483.975	4609
3485.686	4587
3487.396	4490
3489.106	4528
3490.817	4458
3492.526	4577
3494.236	4527
3495.944	4539
3497.652	4498
3499.359	4636
3501.066	4515
3502.775	4498
3504.481	4404
3506.187	4481
3507.893	4540
3509.598	4430
3511.304	4522
3513.009	4465
3514.713	4543
3516.417	4508
3518.12	4474
3519.821	4480
3521.525	4427
3523.228	4493
3524.929	4398
3526.631	4388
3528.33	4470
3530.032	4394
3531.733	4472
3533.433	4432
3535.131	4344
3536.83	4427
3538.529	4440
3540.227	4283
3541.925	4378
3543.623	4404
3545.319	4332
3547.016	4333
3548.712	4346
3550.408	4334
3552.103	4278
3553.798	4299
3555.491	4377
3557.188	4399
3558.88	4380
3560.574	4265
3562.266	4272
3563.959	4226
3565.651	4285
3567.343	4417
3569.035	4284
3570.725	4341
3572.415	4231
3574.106	4362
3575.797	4284
3577.485	4260
3579.174	4194
3580.863	4348
3582.551	4266
3584.238	4164
3585.926	4284
3587.613	4251
3589.3	4148
3590.986	4286
3592.671	4219
3594.357	4158
3596.042	4199
3597.726	4216
3599.41	4175
3601.094	4142
3602.778	4181
3604.461	4189
3606.143	4149
3607.825	4256
3609.507	4147
3611.188	4128
3612.87	4164
3614.551	4054
3616.229	4073
3617.909	4043
3619.589	4067
3621.269	4107
3622.948	4000
3624.625	4067
3626.302	4038
3627.98	4125
3629.657	3994
3631.334	4056
3633.01	4008
3634.686	3912
3636.361	3997
3638.036	4035
3639.712	3992
3641.385	4016
3643.06	3989
3644.732	4033
3646.405	3952
3648.08	3908
3649.751	3960
3651.424	3943
3653.094	3971
3654.766	4033
3656.436	3891
3658.106	3912
3659.777	3951
3661.446	3891
3663.115	3999
3664.783	3815
3666.452	3931
3668.121	3937
3669.788	3861
3671.454	3809
3673.121	3926
3674.789	3870
3676.455	3835
3678.12	3839
3679.784	3790
3681.45	3852
3683.114	3884
3684.779	3858
3686.442	3971
3688.105	3727
3689.768	3837
3691.43	3805
3693.093	3820
3694.754	3918
3696.415	3811
3698.076	3843
3699.736	3767
3701.396	3784
3703.057	3807
3704.716	3839
3706.375	3776
3708.034	3850
3709.692	3840
3711.351	3817
3713.008	3904
3714.665	3845
3716.321	3759
3717.977	3806
3719.634	3851
3721.29	3752
3722.945	3706
3724.598	3777
3726.253	3711
3727.907	3708
3729.561	3759
3731.214	3717
3732.867	3778
3734.518	3663
3736.171	3680
3737.824	3778
3739.474	3725
3741.125	3656
3742.775	3635
3744.425	3760
3746.074	3772
3747.725	3716
3749.373	3671
3751.022	3712
3752.669	3715
3754.318	3719
3755.966	3692
3757.612	3621
3759.259	3694
3760.905	3669
3762.55	3652
3764.197	3695
3765.842	3615
3767.486	3680
3769.131	3705
3770.774	3679
3772.417	3693
3774.061	3653
3775.705	3658
3777.347	3683
3778.988	3652
3780.629	3714
3782.271	3670
3783.912	3537
3785.552	3701
3787.192	3619
3788.831	3591
3790.472	3703
3792.112	3680
3793.75	3522
3795.388	3599
3797.024	3579
3798.661	3639
3800.3	3604
3801.936	3596
3803.572	3645
3805.208	3605
3806.844	3575
3808.48	3574
3810.115	3609
3811.748	3474
3813.382	3669
3815.016	3567
3816.649	3602
3818.283	3630
3819.914	3492
3821.547	3529
3823.178	3521
3824.809	3470
3826.441	3489
3828.072	3654
3829.701	3566
3831.331	3467
3832.96	3556
3834.591	3525
3836.219	3533
3837.847	3454
3839.475	3596
3841.102	3522
3842.729	3497
3844.357	3546
3845.984	3558
3847.609	3488
3849.234	3475
3850.86	3568
3852.485	3581
3854.11	3487
3855.734	3436
3857.357	3497
3858.981	3469
3860.603	3452
3862.227	3490
3863.848	3500
3865.471	3440
3867.092	3500
3868.713	3520
3870.334	3447
3871.954	3386
3873.575	3477
3875.194	3492
3876.813	3402
3878.433	3491
3880.051	3453
3881.669	3472
3883.286	3411
3884.904	3385
3886.52	3416
3888.138	3403
3889.754	3427
3891.37	3395
3892.985	3410
3894.6	3412
3896.216	3441
3897.831	3427
3899.444	3413
3901.058	3429
3902.67	3416
3904.283	3408
3905.897	3360
3907.509	3367
3909.121	3459
3910.731	3338
3912.342	3358
3913.954	3399
3915.563	3442
3917.174	3420
3918.783	3397
3920.391	3398
3922.002	3421
3923.611	3439
3925.218	3412
3926.826	3418
3928.432	3427
3930.039	3380
3931.647	3340
3933.253	3320
3934.859	3329
3936.464	3403
3938.068	3281
3939.675	3333
3941.278	3306
3942.883	3349
3944.486	3370
3946.089	3348
3947.692	3311
3949.295	3381
3950.898	3337
3952.499	3361
3954.1	3353
3955.7	3298
3957.303	3323
3958.903	3305
3960.502	3279
3962.101	3219
3963.7	3278
3965.301	3338
3966.899	3339
3968.497	3198
3970.094	3301
3971.691	3262
3973.288	3291
3974.885	3250
3976.481	3231
3978.077	3308
3979.672	3270
3981.267	3189
3982.863	3198
3984.457	3210
3986.051	3227
3987.645	3273
3989.238	3260
3990.831	3198
3992.425	3182
3994.017	3169
3995.607	3241
3997.199	3319
3998.79	3180
4000.382	3265
4001.973	3183
4003.561	3214
4005.151	3196
4006.741	3183
4008.331	3214
4009.918	3189
4011.507	3147
4013.095	3120
4014.681	3118
4016.269	3207
4017.856	3142
4019.443	3184
4021.028	3078
4022.614	3040
4024.199	3117
4025.785	3168
4027.37	3107
4028.953	3143
4030.536	3133
4032.12	3144
4033.704	3113
4035.287	3144
4036.869	3114
4038.45	3118
4040.032	3175
4041.613	3104
4043.195	3090
4044.776	3129
4046.356	3166
4047.935	3097
4049.515	3095
4051.095	3040
4052.674	3029
4054.251	3085
4055.829	3075
4057.406	3077
4058.985	3113
4060.562	3065
4062.139	3077
4063.715	3065
4065.29	3050
4066.865	3056
4068.442	3016
4070.016	3061
4071.59	3010
4073.164	3088
4074.738	3020
4076.312	3045
4077.885	2952
4079.458	3046
4081.03	3000
4082.602	3083
4084.173	3001
4085.745	3008
4087.315	2934
4088.886	3096
4090.456	2981
4092.026	2909
4093.596	3019
4095.165	3091
4096.734	3074
4098.301	2975
4099.869	2977
4101.437	2974
4103.006	2996
4104.572	2927
4106.139	2946
4107.704	2977
4109.27	2947
4110.837	2926
4112.401	2969
4113.966	2981
4115.53	2943
4117.094	3005
4118.659	2920
4120.223	2970
4121.785	2928
4123.347	2952
4124.909	2991
4126.471	2920
4128.034	2917
4129.595	2849
4131.155	2973
4132.716	2896
4134.275	2943
4135.836	2955
4137.395	2870
4138.955	2896
4140.513	2940
4142.071	2883
4143.628	2916
4145.188	2888
4146.745	2882
4148.302	2788
4149.858	2912
4151.414	2904
4152.971	2939
4154.526	2829
4156.081	2910
4157.635	2871
4159.189	2895
4160.745	2872
4162.298	2884
4163.852	2836
4165.405	2859
4166.957	2820
4168.51	2830
4170.063	2856
4171.614	2830
4173.166	2795
4174.717	2821
4176.267	2798
4177.817	2835
4179.368	2817
4180.917	2844
4182.466	2740
4184.016	2799
4185.564	2866
4187.112	2856
4188.66	2768
4190.207	2828
4191.754	2771
4193.301	2800
4194.848	2799
4196.394	2794
4197.94	2719
4199.484	2722
4201.03	2769
4202.575	2719
4204.12	2788
4205.663	2755
4207.207	2803
4208.75	2777
4210.292	2739
4211.836	2822
4213.378	2834
4214.92	2739
4216.46	2731
4218.002	2741
4219.544	2720
4221.083	2754
4222.625	2726
4224.164	2648
4225.703	2717
4227.244	2728
4228.782	2696
4230.32	2694
4231.857	2733
4233.395	2781
4234.933	2710
4236.471	2733
4238.007	2662
4239.542	2723
4241.078	2729
4242.614	2701
4244.15	2725
4245.685	2720
4247.219	2748
4248.753	2668
4250.287	2645
4251.82	2690
4253.354	2655
4254.887	2690
4256.419	2606
4257.951	2672
4259.483	2681
4261.016	2730
4262.547	2614
4264.078	2678
4265.608	2695
4267.137	2741
4268.668	2676
4270.197	2662
4271.727	2592
4273.254	2679
4274.783	2634
4276.311	2651
4277.84	2679
4279.366	2747
4280.894	2621
4282.42	2696
4283.946	2640
4285.473	2632
4286.998	2671
4288.523	2684
4290.047	2663
4291.572	2628
4293.096	2612
4294.622	2634
4296.144	2612
4297.668	2636
4299.19	2613
4300.713	2605
4302.236	2577
4303.758	2614
4305.279	2599
4306.799	2646
4308.321	2639
4309.842	2594
4311.361	2577
4312.882	2657
4314.401	2617
