400.0961	5675
402.6185	5643
405.1424	5694
407.6635	5805
410.1838	5681
412.7035	5735
415.2225	5781
417.7388	5765
420.2585	5710
422.7754	5908
425.2917	5964
427.8072	6003
430.3221	5937
432.8363	6048
435.3498	6079
437.8626	6091
440.3727	6007
442.8841	6042
445.3969	6104
447.907	6053
450.4142	6017
452.9229	6050
455.4289	5974
457.9362	6042
460.4449	6039
462.9488	6033
465.454	5974
467.9566	6084
470.4604	5964
472.9637	5993
475.4662	6139
477.966	6088
480.4671	6121
482.9656	6021
485.4633	6187
487.9645	6130
490.4608	6220
492.9566	6151
495.4536	6141
497.948	6174
500.4437	6332
502.9387	6256
505.431	6184
507.9226	6342
510.4136	6383
512.9079	6347
515.3975	6335
517.8864	6434
520.3746	6303
522.8622	6413
525.3491	6447
527.8394	6323
530.3249	6346
532.8098	6330
535.2939	6424
537.7774	6333
540.2623	6377
542.7444	6447
545.2259	6293
547.7067	6475
550.1868	6512
552.6683	6507
555.147	6358
557.6231	6431
560.1005	6460
562.5773	6461
565.0534	6471
567.5308	6478
570.0056	6540
572.4776	6446
574.951	6537
577.4237	6512
579.8978	6602
582.3671	6587
584.8378	6603
587.3079	6712
589.7773	6636
592.244	6639
594.714	6571
597.1793	6828
599.6461	6523
602.1121	6609
604.5754	6630
607.0421	6528
609.5042	6660
611.9675	6534
614.4282	6476
616.8902	6662
619.3515	6558
621.8122	6607
624.2702	6577
626.7296	6579
629.1863	6411
631.6423	6535
634.1017	6641
636.5563	6607
639.0104	6669
641.4658	6640
643.9185	6592
646.3725	6627
648.8239	6608
651.2766	6682
653.7266	6555
656.176	6837
658.6247	6597
661.0748	6687
663.5242	6818
665.9709	6815
668.417	6747
670.8624	6723
673.3092	6687
675.7533	6832
678.1968	6791
680.6395	6822
683.0817	6791
685.5251	6833
687.9659	6839
690.4061	6906
692.8456	6779
695.2844	6969
697.7226	6967
700.1621	6932
702.599	6952
705.0332	6900
707.4688	6921
709.9036	6731
712.3399	7001
714.7735	7055
717.2044	7045
719.6367	7144
722.0683	6944
724.4993	6989
726.9296	7039
729.3593	7125
731.7883	7062
734.2147	7097
736.6423	7027
739.0714	7099
741.4958	7161
743.9216	7243
746.3447	7287
748.7691	7189
751.1929	7248
753.616	7268
756.0366	7270
758.4584	7345
760.8776	7330
763.2982	7390
765.718	7370
768.1373	7372
770.5539	7389
772.9698	7331
775.3871	7376
777.8038	7434
780.2178	7338
782.6332	7347
785.0459	7514
787.458	7362
789.8714	7562
792.2842	7438
794.6943	7330
797.1038	7332
799.5127	7332
801.9209	7408
804.3324	7270
806.7393	7589
809.1456	7445
811.5513	7500
813.9562	7561
816.3625	7428
818.7663	7351
821.1693	7526
823.5718	7452
825.9735	7432
828.3746	7536
830.7771	7434
833.177	7345
835.5762	7492
837.9747	7558
840.3727	7538
842.772	7554
845.1666	7591
847.5626	7611
849.958	7594
852.3527	7625
854.7488	7574
857.1403	7506
859.5331	7612
861.9253	7543
864.3168	7588
866.7057	7427
869.098	7657
871.4876	7557
873.8746	7639
876.263	7499
878.6487	7449
881.0378	7634
883.4243	7587
885.8081	7533
888.1933	7639
890.5759	7385
892.9598	7581
895.343	7544
897.7256	7520
900.1057	7490
902.4871	7598
904.8659	7620
907.246	7552
909.6254	7695
912.0023	7649
914.3786	7762
916.7562	7888
919.1331	7929
921.5074	8018
923.8831	8131
926.2562	8110
928.6287	8090
931.0005	8086
933.3757	7977
935.7462	7932
938.1162	7978
940.4855	8052
942.8542	8085
945.2242	8105
947.5916	8171
949.9584	8356
952.3266	8480
954.6921	8670
957.0571	8883
959.4233	9020
961.787	9147
964.15	9104
966.5125	9106
968.8742	8773
971.2354	8413
973.5959	8276
975.9559	8188
978.3151	8055
980.6738	8063
983.0338	7899
985.3912	8054
987.7461	7946
990.1022	7840
992.4578	7898
994.8127	7942
997.1689	7988
999.5207	7852
1001.874	7909
1004.226	7985
1006.576	8036
1008.929	7936
1011.28	7956
1013.628	7901
1015.977	8073
1018.324	7921
1020.674	7873
1023.019	7879
1025.366	8042
1027.713	7982
1030.056	7954
1032.399	7836
1034.746	7932
1037.087	7957
1039.431	7999
1041.771	8007
1044.113	7988
1046.454	8001
1048.793	8180
1051.133	8055
1053.471	7878
1055.807	7937
1058.146	8068
1060.483	8137
1062.818	8120
1065.153	8043
1067.489	8198
1069.822	8058
1072.156	8229
1074.488	8154
1076.82	8116
1079.15	8168
1081.48	7977
1083.814	8174
1086.143	8141
1088.471	8068
1090.799	8122
1093.126	8056
1095.452	8037
1097.78	8184
1100.105	8157
1102.43	8066
1104.754	8156
1107.077	8165
1109.4	8123
1111.722	8140
1114.044	8071
1116.365	8137
1118.685	8135
1121.005	8186
1123.324	8169
1125.643	8285
1127.961	8197
1130.278	8072
1132.595	8217
1134.911	8120
1137.226	8114
1139.541	8150
1141.854	8181
1144.167	8077
1146.482	8170
1148.793	8195
1151.105	8175
1153.414	8029
1155.725	8121
1158.033	8064
1160.344	8110
1162.651	8154
1164.959	8153
1167.265	8128
1169.572	8189
1171.878	8111
1174.184	8130
1176.488	8182
1178.79	8247
1181.094	8206
1183.396	8168
1185.699	8243
1188.001	8131
1190.301	8206
1192.6	8049
1194.9	8111
1197.2	8222
1199.497	8075
1201.794	8150
1204.09	8197
1206.387	8225
1208.684	8145
1210.978	8077
1213.272	8184
1215.565	8213
1217.858	8203
1220.15	8138
1222.443	8174
1224.734	8248
1227.024	8252
1229.313	8341
1231.602	8407
1233.892	8266
1236.18	8441
1238.467	8485
1240.754	8463
1243.04	8565
1245.325	8575
1247.612	8496
1249.896	8499
1252.178	8480
1254.461	8444
1256.743	8436
1259.027	8559
1261.308	8466
1263.587	8571
1265.867	8588
1268.146	8489
1270.425	8504
1272.703	8474
1274.981	8568
1277.256	8407
1279.532	8504
1281.808	8377
1284.083	8422
1286.358	8366
1288.63	8396
1290.904	8418
1293.175	8443
1295.449	8364
1297.719	8312
1299.99	8182
1302.259	8404
1304.529	8395
1306.798	8540
1309.065	8370
1311.333	8361
1313.599	8324
1315.866	8428
1318.131	8340
1320.396	8485
1322.66	8446
1324.925	8496
1327.187	8426
1329.448	8618
1331.711	8489
1333.974	8360
1336.234	8374
1338.493	8400
1340.752	8411
1343.01	8358
1345.269	8426
1347.526	8303
1349.784	8336
1352.04	8344
1354.295	8307
1356.552	8425
1358.806	8388
1361.059	8448
1363.312	8383
1365.564	8334
1367.818	8335
1370.069	8407
1372.318	8475
1374.568	8448
1376.817	8535
1379.066	8484
1381.316	8652
1383.564	8411
1385.809	8387
1388.056	8537
1390.301	8497
1392.549	8571
1394.793	8680
1397.036	8621
1399.279	8683
1401.522	8712
1403.763	8758
1406.007	8753
1408.248	8780
1410.487	8633
1412.727	8789
1414.965	8766
1417.205	8639
1419.442	8682
1421.68	8628
1423.915	8741
1426.152	8730
1428.388	8668
1430.623	8693
1432.857	8619
1435.091	8776
1437.323	8874
1439.556	8811
1441.789	8668
1444.019	8699
1446.25	8768
1448.48	8811
1450.708	8827
1452.938	8904
1455.167	8765
1457.394	8763
1459.62	8777
1461.846	8748
1464.073	8824
1466.299	8783
1468.523	8604
1470.746	8774
1472.969	8749
1475.191	8683
1477.415	8683
1479.636	8563
1481.858	8450
1484.078	8551
1486.298	8370
1488.518	8437
1490.736	8492
1492.954	8395
1495.169	8360
1497.386	8509
1499.602	8367
1501.819	8445
1504.034	8432
1506.248	8569
1508.462	8361
1510.675	8387
1512.888	8507
1515.1	8245
1517.311	8504
1519.522	8320
1521.732	8412
1523.942	8473
1526.151	8309
1528.36	8328
1530.566	8435
1532.773	8425
1534.98	8415
1537.187	8330
1539.392	8530
1541.596	8557
1543.801	8419
1546.005	8531
1548.208	8401
1550.411	8493
1552.612	8539
1554.814	8573
1557.013	8472
1559.212	8576
1561.414	8625
1563.612	8659
1565.811	8537
1568.007	8651
1570.203	8740
1572.403	8628
1574.598	8650
1576.792	8484
1578.988	8677
1581.181	8490
1583.376	8718
1585.568	8727
1587.761	8708
1589.952	8675
1592.143	8720
1594.333	8689
1596.524	8730
1598.715	8702
1600.903	8825
1603.091	8631
1605.278	8791
1607.466	8761
1609.652	8709
1611.838	8746
1614.023	8829
1616.207	8732
1618.391	8786
1620.576	8599
1622.759	8781
1624.941	8768
1627.123	8624
1629.304	8904
1631.484	8676
1633.664	8874
1635.844	8800
1638.022	8803
1640.201	8846
1642.38	8908
1644.556	8780
1646.732	8770
1648.908	8707
1651.084	8779
1653.257	8865
1655.433	8856
1657.607	8831
1659.779	8879
1661.951	8835
1664.122	8766
1666.295	8899
1668.467	8886
1670.635	8884
1672.805	8886
1674.973	8938
1677.142	8791
1679.31	8785
1681.478	8799
1683.644	8827
1685.81	8845
1687.975	8992
1690.142	8709
1692.305	8807
1694.468	8806
1696.632	8711
1698.794	8818
1700.957	8728
1703.119	8739
1705.279	8709
1707.439	8733
1709.598	8753
1711.758	8668
1713.917	8770
1716.075	8735
1718.231	8704
1720.388	8774
1722.543	8623
1724.702	8738
1726.856	8647
1729.01	8674
1731.164	8653
1733.317	8702
1735.471	8767
1737.623	8625
1739.774	8707
1741.925	8744
1744.075	8781
1746.225	8774
1748.376	8705
1750.524	8700
1752.672	8740
1754.82	8680
1756.965	8722
1759.113	8669
1761.259	8707
1763.405	8717
1765.549	8816
1767.694	8629
1769.836	8761
1771.981	8683
1774.123	8763
1776.264	8674
1778.405	8806
1780.546	8784
1782.687	8712
1784.827	8732
1786.966	8709
1789.103	8741
1791.242	8653
1793.381	8762
1795.517	8864
1797.653	8829
1799.788	8702
1801.923	8884
1804.057	8796
1806.193	8726
1808.326	8807
1810.457	8876
1812.59	8731
1814.721	8878
1816.855	8705
1818.984	8704
1821.113	8882
1823.244	8714
1825.372	8815
1827.499	8774
1829.63	8806
1831.756	8656
1833.882	8765
1836.007	8741
1838.132	8714
1840.26	8809
1842.384	8610
1844.507	8626
1846.63	8764
1848.752	8657
1850.875	8807
1852.996	8736
1855.118	8711
1857.238	8711
1859.358	8739
1861.477	8685
1863.597	8703
1865.715	8534
1867.832	8646
1869.948	8795
1872.064	8518
1874.181	8571
1876.297	8635
1878.411	8568
1880.526	8699
1882.639	8637
1884.752	8765
1886.865	8791
1888.977	8633
1891.089	8584
1893.2	8635
1895.308	8703
1897.42	8766
1899.53	8513
1901.639	8731
1903.745	8557
1905.853	8842
1907.962	8788
1910.067	8917
1912.174	8680
1914.278	8826
1916.383	8818
1918.486	8784
1920.592	8820
1922.694	8819
1924.797	8752
1926.898	8684
1929	8877
1931.102	8753
1933.203	8728
1935.301	8808
1937.401	8807
1939.499	8747
1941.598	8800
1943.697	8661
1945.793	8748
1947.888	8795
1949.985	8875
1952.08	8924
1954.176	8740
1956.269	8798
1958.364	8927
1960.457	8796
1962.549	8873
1964.642	8778
1966.733	8759
1968.823	8796
1970.913	8802
1973.005	8734
1975.093	8785
1977.184	8832
1979.271	8703
1981.359	8751
1983.446	8631
1985.532	8879
1987.619	8735
1989.705	8720
1991.789	8619
1993.874	8665
1995.956	8709
1998.041	8755
2000.123	8589
2002.206	8729
2004.287	8606
2006.368	8702
2008.449	8701
2010.529	8691
2012.609	8650
2014.688	8653
2016.766	8720
2018.843	8688
2020.922	8563
2022.999	8764
2025.074	8787
2027.15	8577
2029.225	8735
2031.299	8649
2033.375	8676
2035.447	8620
2037.52	8727
2039.592	8781
2041.664	8649
2043.736	8677
2045.807	8842
2047.876	8567
2049.947	8716
2052.015	8676
2054.086	8582
2056.153	8631
2058.221	8612
2060.288	8620
2062.353	8653
2064.42	8691
2066.486	8680
2068.55	8678
2070.614	8772
2072.678	8714
2074.741	8577
2076.805	8611
2078.866	8680
2080.929	8691
2082.99	8691
2085.049	8758
2087.109	8701
2089.17	8733
2091.228	8720
2093.286	8510
2095.344	8661
2097.4	8591
2099.46	8753
2101.516	8561
2103.572	8692
2105.626	8699
2107.679	8661
2109.735	8699
2111.788	8628
2113.841	8723
2115.894	8697
2117.945	8540
2119.997	8759
2122.049	8626
2124.1	8594
2126.148	8668
2128.197	8543
2130.246	8631
2132.296	8410
2134.342	8604
2136.39	8677
2138.437	8627
2140.483	8587
2142.527	8691
2144.574	8571
2146.619	8659
2148.661	8530
2150.705	8588
2152.747	8582
2154.792	8482
2156.832	8606
2158.874	8557
2160.915	8628
2162.954	8640
2164.995	8603
2167.034	8571
2169.072	8391
2171.111	8567
2173.148	8467
2175.186	8564
2177.223	8448
2179.258	8474
2181.294	8526
2183.328	8530
2185.362	8548
2187.398	8431
2189.431	8491
2191.463	8538
2193.495	8491
2195.528	8353
2197.56	8578
2199.59	8480
2201.62	8493
2203.649	8451
2205.678	8475
2207.708	8358
2209.737	8379
2211.764	8441
2213.791	8475
2215.817	8396
2217.843	8376
2219.87	8375
2221.895	8281
2223.919	8500
2225.942	8324
2227.966	8352
2229.988	8326
2232.012	8328
2234.032	8369
2236.054	8432
2238.074	8330
2240.095	8409
2242.116	8373
2244.135	8434
2246.153	8456
2248.171	8296
2250.188	8410
2252.208	8317
2254.223	8241
2256.239	8477
2258.255	8453
2260.269	8353
2262.283	8350
2264.3	8480
2266.312	8278
2268.325	8472
2270.336	8376
2272.349	8332
2274.362	8391
2276.372	8339
2278.383	8429
2280.392	8500
2282.402	8234
2284.409	8381
2286.418	8205
2288.427	8426
2290.433	8421
2292.441	8255
2294.446	8454
2296.453	8305
2298.459	8313
2300.463	8264
2302.466	8268
2304.471	8253
2306.475	8283
2308.477	8396
2310.478	8338
2312.481	8422
2314.481	8276
2316.481	8281
2318.482	8275
2320.482	8350
2322.48	8307
2324.48	8421
2326.478	8332
2328.476	8349
2330.473	8369
2332.469	8111
2334.465	8224
2336.46	8251
2338.454	8331
2340.45	8211
2342.444	8160
2344.437	8141
2346.43	8248
2348.421	8154
2350.414	8263
2352.405	8178
2354.396	8137
2356.386	8290
2358.376	8136
2360.366	8171
2362.355	8245
2364.343	8070
2366.331	8097
2368.317	8145
2370.304	8113
2372.292	8240
2374.278	8086
2376.262	8051
2378.247	8120
2380.23	8179
2382.216	8038
2384.199	8070
2386.181	8067
2388.163	8046
2390.144	8167
2392.127	8057
2394.107	8048
2396.087	8031
2398.066	8056
2400.046	7980
2402.023	7988
2404.004	8006
2405.981	8122
2407.957	8015
2409.934	8029
2411.91	8077
2413.886	7961
2415.862	8054
2417.836	8021
2419.809	8037
2421.784	7972
2423.756	7943
2425.73	8091
2427.701	7995
2429.672	8019
2431.644	8005
2433.615	7933
2435.586	8041
2437.555	8000
2439.523	8033
2441.491	8025
2443.459	8118
2445.428	8022
2447.395	7970
2449.361	7952
2451.327	8023
2453.292	8030
2455.257	7970
2457.223	8023
2459.187	7891
2461.15	8014
2463.113	7908
2465.076	8113
2467.039	7951
2468.999	7966
2470.96	7786
2472.921	7928
2474.881	8005
2476.841	7965
2478.8	7930
2480.759	7976
2482.717	7848
2484.675	7961
2486.63	7877
2488.589	7906
2490.545	7923
2492.5	7749
2494.455	7915
2496.408	7793
2498.364	7760
2500.318	7814
2502.27	7889
2504.223	7729
2506.174	7882
2508.126	7908
2510.078	7835
2512.03	7832
2513.979	7893
2515.927	7835
2517.877	7810
2519.826	7936
2521.775	7857
2523.722	7781
2525.668	7647
2527.616	7786
2529.561	7786
2531.508	7779
2533.452	7910
2535.398	7676
2537.342	7823
2539.284	7869
2541.229	7883
2543.173	7794
2545.114	7737
2547.055	7791
2548.996	7690
2550.938	7811
2552.878	7868
2554.817	7801
2556.756	7785
2558.695	7794
2560.633	7764
2562.572	7857
2564.509	7828
2566.445	7624
2568.382	7752
2570.317	7777
2572.254	7624
2574.189	7830
2576.123	7746
2578.057	7863
2579.99	7776
2581.923	7829
2583.855	7728
2585.788	7799
2587.719	7701
2589.65	7812
2591.579	7692
2593.511	7747
2595.44	7697
2597.37	7624
2599.297	7840
2601.225	7765
2603.153	7728
2605.08	7790
2607.007	7742
2608.932	7805
2610.858	7805
2612.782	7663
2614.709	7923
2616.632	7831
2618.556	7713
2620.478	7812
2622.401	7769
2624.324	7792
2626.247	7857
2628.167	7723
2630.088	7896
2632.008	7793
2633.928	7830
2635.848	7777
2637.766	7810
2639.684	7814
2641.603	7786
2643.519	7737
2645.437	7814
2647.353	7719
2649.27	7758
2651.184	7836
2653.099	7701
2655.014	7700
2656.928	7726
2658.842	7787
2660.755	7735
2662.667	7814
2664.579	7709
2666.491	7905
2668.402	7830
2670.312	7593
2672.222	7639
2674.132	7725
2676.042	7698
2677.951	7644
2679.859	7703
2681.766	7701
2683.674	7665
2685.582	7680
2687.488	7614
2689.392	7683
2691.298	7767
2693.202	7578
2695.107	7605
2697.012	7745
2698.914	7631
2700.817	7688
2702.72	7738
2704.622	7467
2706.524	7634
2708.425	7552
2710.326	7642
2712.225	7572
2714.125	7591
2716.024	7542
2717.923	7590
2719.822	7496
2721.719	7522
2723.616	7516
2725.512	7617
2727.41	7569
2729.305	7589
2731.201	7456
2733.095	7538
2734.99	7509
2736.884	7571
2738.778	7501
2740.67	7529
2742.562	7465
2744.455	7583
2746.346	7501
2748.238	7535
2750.129	7521
2752.018	7668
2753.907	7548
2755.797	7479
2757.687	7524
2759.575	7500
2761.462	7519
2763.349	7543
2765.237	7470
2767.124	7627
2769.009	7485
2770.894	7553
2772.779	7497
2774.663	7567
2776.547	7302
2778.431	7499
2780.314	7428
2782.197	7471
2784.078	7553
2785.96	7475
2787.842	7403
2789.723	7548
2791.603	7519
2793.483	7548
2795.362	7444
2797.241	7337
2799.121	7436
2800.997	7380
2802.874	7515
2804.751	7323
2806.628	7304
2808.506	7497
2810.38	7365
2812.255	7376
2814.13	7461
2816.003	7388
2817.878	7349
2819.752	7463
2821.623	7357
2823.496	7398
2825.368	7447
2827.238	7431
2829.111	7395
2830.98	7331
2832.851	7466
2834.719	7535
2836.589	7376
2838.458	7526
2840.327	7295
2842.193	7355
2844.061	7478
2845.927	7436
2847.794	7377
2849.66	7409
2851.525	7530
2853.39	7406
2855.254	7494
2857.117	7441
2858.983	7415
2860.845	7472
2862.707	7426
2864.569	7499
2866.431	7564
2868.293	7537
2870.154	7819
2872.013	7671
2873.873	7654
2875.733	7717
2877.592	7843
2879.451	7914
2881.309	7880
2883.166	7844
2885.022	7977
2886.879	7979
2888.736	7921
2890.591	7958
2892.446	8030
2894.301	8131
2896.155	8070
2898.009	8008
2899.863	8017
2901.716	7961
2903.568	7973
2905.419	8042
2907.27	7960
2909.123	7937
2910.973	7916
2912.824	7968
2914.673	8149
2916.521	8196
2918.372	8167
2920.22	8296
2922.067	8205
2923.914	8206
2925.761	8384
2927.607	8348
2929.455	8303
2931.301	8303
2933.144	8489
2934.99	8461
2936.833	8579
2938.678	8424
2940.522	8572
2942.364	8752
2944.207	8825
2946.048	8843
2947.891	8888
2949.731	8955
2951.571	8781
2953.412	8944
2955.25	8838
2957.09	8818
2958.93	8740
2960.767	8639
2962.606	8626
2964.443	8583
2966.279	8501
2968.116	8320
2969.953	8197
2971.788	8242
2973.623	8160
2975.457	8180
2977.292	8115
2979.127	7869
2980.959	7974
2982.792	8048
2984.624	7896
2986.455	7773
2988.288	7846
2990.119	7850
2991.949	7855
2993.779	7826
2995.608	7659
2997.439	7712
2999.268	7668
3001.096	7557
3002.923	7510
3004.751	7442
3006.578	7376
3008.406	7513
3010.232	7240
3012.057	7272
3013.883	7275
3015.706	7186
3017.532	7144
3019.356	7134
3021.179	7241
3023.002	7260
3024.823	7049
3026.646	7136
3028.469	7060
3030.289	7103
3032.11	7032
3033.93	7009
3035.749	6883
3037.57	7033
3039.39	7025
3041.207	6956
3043.026	7100
3044.842	7003
3046.661	7023
3048.477	6998
3050.294	6834
3052.109	6893
3053.925	6913
3055.739	6926
3057.555	6911
3059.368	6939
3061.181	6864
3062.995	6935
3064.807	7030
3066.62	6800
3068.433	6971
3070.243	6936
3072.054	6869
3073.865	6899
3075.675	6840
3077.485	6786
3079.293	6914
3081.102	6791
3082.911	6728
3084.719	6762
3086.527	6830
3088.333	6756
3090.139	6773
3091.945	6741
3093.75	6743
3095.557	6692
3097.361	6732
3099.165	6641
3100.969	6801
3102.772	6605
3104.575	6855
3106.379	6700
3108.181	6745
3109.982	6582
3111.783	6756
3113.584	6657
3115.386	6665
3117.186	6725
3118.985	6657
3120.783	6608
3122.582	6579
3124.381	6564
3126.179	6616
3127.975	6665
3129.772	6635
3131.569	6561
3133.365	6373
3135.161	6570
3136.956	6414
3138.751	6421
3140.544	6553
3142.338	6475
3144.132	6554
3145.925	6525
3147.717	6625
3149.509	6486
3151.301	6565
3153.091	6617
3154.884	6482
3156.673	6413
3158.462	6437
3160.252	6507
3162.041	6522
3163.831	6441
3165.618	6335
3167.405	6459
3169.193	6489
3170.979	6536
3172.767	6434
3174.553	6424
3176.338	6516
3178.123	6467
3179.907	6427
3181.692	6412
3183.477	6575
3185.259	6401
3187.042	6469
3188.824	6293
3190.607	6389
3192.389	6391
3194.17	6384
3195.951	6445
3197.73	6335
3199.51	6349
3201.289	6465
3203.07	6458
3204.848	6282
3206.626	6430
3208.403	6359
3210.18	6295
3211.959	6426
3213.735	6352
3215.511	6424
3217.285	6322
3219.06	6361
3220.836	6271
3222.611	6363
3224.384	6286
3226.158	6264
3227.929	6206
3229.702	6367
3231.476	6328
3233.248	6354
3235.018	6293
3236.789	6345
3238.56	6340
3240.33	6342
3242.1	6247
3243.869	6394
3245.637	6413
3247.405	6310
3249.172	6366
3250.941	6381
3252.707	6355
3254.474	6378
3256.24	6237
3258.006	6399
3259.772	6288
3261.537	6323
3263.301	6190
3265.065	6393
3266.828	6419
3268.592	6347
3270.355	6285
3272.117	6284
3273.878	6329
3275.64	6224
3277.401	6330
3279.162	6277
3280.922	6330
3282.682	6243
3284.441	6272
3286.199	6189
3287.959	6285
3289.716	6373
3291.475	6269
3293.232	6151
3294.988	6276
3296.744	6329
3298.501	6269
3300.256	6203
3302.011	6306
3303.766	6218
3305.52	6300
3307.275	6333
3309.028	6185
3310.781	6320
3312.533	6223
3314.285	6257
3316.038	6248
3317.789	6278
3319.54	6201
3321.289	6305
3323.039	6342
3324.789	6238
3326.539	6261
3328.288	6191
3330.035	6227
3331.783	6171
3333.531	6226
3335.28	6250
3337.025	6269
3338.771	6177
3340.518	6150
3342.262	6193
3344.009	6189
3345.753	6147
3347.497	6165
3349.24	6227
3350.983	6158
3352.726	6151
3354.469	6189
3356.212	6147
3357.952	6099
3359.694	6138
3361.434	6077
3363.176	6087
3364.916	6137
3366.654	5955
3368.394	5952
3370.132	6152
3371.871	6029
3373.61	6049
3375.346	6018
3377.083	6005
3378.82	6003
3380.556	6017
3382.292	6027
3384.027	6029
3385.763	6084
3387.497	6006
3389.231	5901
3390.965	5849
3392.698	5956
3394.431	5972
3396.164	6071
3397.896	6029
3399.627	6053
3401.36	5931
3403.09	6031
3404.82	5944
3406.55	6017
3408.279	5983
3410.01	5972
3411.738	5934
3413.467	5895
3415.194	5922
3416.92	5905
3418.647	5860
3420.375	5880
3422.102	5783
3423.827	5908
3425.553	5890
3427.277	5878
3429.003	5844
3430.727	5916
3432.451	5901
3434.173	5788
3435.896	5964
3437.62	5830
3439.343	5808
3441.063	5808
3442.785	5888
3444.505	5774
3446.226	5836
3447.948	5794
3449.666	5802
3451.386	5743
3453.104	5778
3454.823	5868
3456.541	5779
3458.259	5890
3459.976	5744
3461.693	5708
3463.408	5771
3465.125	5662
3466.841	5766
3468.556	5780
3470.271	5604
3471.985	5680
3473.698	5570
3475.414	5596
3477.126	5612
3478.838	5748
3480.55	5663
3482.263	5665
3483.975	5537
3485.686	5626
3487.396	5580
3489.106	5622
3490.817	5578
3492.526	5703
3494.236	5541
3495.944	5586
3497.652	5631
3499.359	5468
3501.066	5554
3502.775	5530
3504.481	5629
3506.187	5539
3507.893	5593
3509.598	5370
3511.304	5440
3513.009	5452
3514.713	5480
3516.417	5489
3518.12	5553
3519.821	5494
3521.525	5384
3523.228	5563
3524.929	5401
3526.631	5447
3528.33	5431
3530.032	5490
3531.733	5402
3533.433	5436
3535.131	5417
3536.83	5339
3538.529	5474
3540.227	5306
3541.925	5409
3543.623	5403
3545.319	5386
3547.016	5429
3548.712	5368
3550.408	5312
3552.103	5348
3553.798	5321
3555.491	5392
3557.188	5356
3558.88	5403
3560.574	5368
3562.266	5405
3563.959	5275
3565.651	5316
3567.343	5257
3569.035	5277
3570.725	5263
3572.415	5317
3574.106	5285
3575.797	5317
3577.485	5275
3579.174	5187
3580.863	5365
3582.551	5236
3584.238	5279
3585.926	5208
3587.613	5206
3589.3	5190
3590.986	5282
3592.671	5195
3594.357	5129
3596.042	5144
3597.726	5053
3599.41	5191
3601.094	5085
3602.778	5216
3604.461	5151
3606.143	5166
3607.825	5219
3609.507	5099
3611.188	5034
3612.87	5115
3614.551	5113
3616.229	5054
3617.909	5112
3619.589	5029
3621.269	5082
3622.948	4985
3624.625	5044
3626.302	5048
3627.98	5064
3629.657	5055
3631.334	4973
3633.01	4985
3634.686	5038
3636.361	5070
3638.036	4978
3639.712	4949
3641.385	4897
3643.06	4985
3644.732	5009
3646.405	4936
3648.08	4915
3649.751	4944
3651.424	4884
3653.094	4863
3654.766	5002
3656.436	4957
3658.106	4866
3659.777	4944
3661.446	4958
3663.115	4728
3664.783	4883
3666.452	4791
3668.121	4967
3669.788	4973
3671.454	4883
3673.121	4861
3674.789	4895
3676.455	4847
3678.12	4897
3679.784	4822
3681.45	4823
3683.114	4818
3684.779	4811
3686.442	4873
3688.105	4856
3689.768	4848
3691.43	4909
3693.093	4791
3694.754	4863
3696.415	4837
3698.076	4869
3699.736	4827
3701.396	4789
3703.057	4830
3704.716	4763
3706.375	4818
3708.034	4766
3709.692	4761
3711.351	4701
3713.008	4786
3714.665	4752
3716.321	4752
3717.977	4729
3719.634	4729
3721.29	4791
3722.945	4743
3724.598	4735
3726.253	4730
3727.907	4765
3729.561	4744
3731.214	4641
3732.867	4746
3734.518	4724
3736.171	4729
3737.824	4720
3739.474	4604
3741.125	4666
3742.775	4777
3744.425	4775
3746.074	4773
3747.725	4642
3749.373	4698
3751.022	4737
3752.669	4659
3754.318	4599
3755.966	4604
3757.612	4522
3759.259	4579
3760.905	4608
3762.55	4629
3764.197	4632
3765.842	4614
3767.486	4626
3769.131	4669
3770.774	4609
3772.417	4596
3774.061	4578
3775.705	4523
3777.347	4589
3778.988	4635
3780.629	4564
3782.271	4490
3783.912	4580
3785.552	4654
3787.192	4414
3788.831	4533
3790.472	4600
3792.112	4576
3793.75	4450
3795.388	4464
3797.024	4586
3798.661	4530
3800.3	4548
3801.936	4446
3803.572	4463
3805.208	4514
3806.844	4433
3808.48	4463
3810.115	4507
3811.748	4417
3813.382	4505
3815.016	4485
3816.649	4372
3818.283	4465
3819.914	4469
3821.547	4402
3823.178	4357
3824.809	4361
3826.441	4364
3828.072	4422
3829.701	4411
3831.331	4326
3832.96	4441
3834.591	4417
3836.219	4371
3837.847	4404
3839.475	4528
3841.102	4436
3842.729	4428
3844.357	4413
3845.984	4316
3847.609	4363
3849.234	4393
3850.86	4382
3852.485	4400
3854.11	4419
3855.734	4299
3857.357	4409
3858.981	4319
3860.603	4378
3862.227	4374
3863.848	4340
3865.471	4311
3867.092	4293
3868.713	4274
3870.334	4332
3871.954	4255
3873.575	4275
3875.194	4320
3876.813	4230
3878.433	4224
3880.051	4320
3881.669	4315
3883.286	4317
3884.904	4276
3886.52	4284
3888.138	4415
3889.754	4334
3891.37	4205
3892.985	4265
3894.6	4296
3896.216	4224
3897.831	4248
3899.444	4205
3901.058	4163
3902.67	4236
3904.283	4293
3905.897	4276
3907.509	4278
3909.121	4185
3910.731	4218
3912.342	4197
3913.954	4208
3915.563	4180
3917.174	4181
3918.783	4209
3920.391	4135
3922.002	4146
3923.611	4164
3925.218	4276
3926.826	4198
3928.432	4101
3930.039	4171
3931.647	4156
3933.253	4094
3934.859	4276
3936.464	4191
3938.068	4176
3939.675	4068
3941.278	4091
3942.883	4246
3944.486	4150
3946.089	4172
3947.692	4122
3949.295	4109
3950.898	4197
3952.499	4080
3954.1	4107
3955.7	4124
3957.303	4151
3958.903	4124
3960.502	4151
3962.101	4090
3963.7	4056
3965.301	4207
3966.899	4062
3968.497	4152
3970.094	4058
3971.691	4056
3973.288	4096
3974.885	3994
3976.481	4005
3978.077	4015
3979.672	4132
3981.267	3946
3982.863	4016
3984.457	4059
3986.051	4056
3987.645	3983
3989.238	4037
3990.831	4059
3992.425	3987
3994.017	4035
3995.607	4071
3997.199	4023
3998.79	3922
4000.382	3896
4001.973	3919
4003.561	4057
4005.151	4027
4006.741	3878
4008.331	3939
4009.918	3952
4011.507	3987
4013.095	3921
4014.681	3975
4016.269	3919
4017.856	3978
4019.443	3914
4021.028	3838
4022.614	3952
4024.199	3911
4025.785	3894
4027.37	3891
4028.953	3791
4030.536	3961
4032.12	3897
4033.704	3856
4035.287	3857
4036.869	3948
4038.45	3923
4040.032	3774
4041.613	3858
4043.195	3861
4044.776	3734
4046.356	3766
4047.935	3840
4049.515	3834
4051.095	3889
4052.674	3723
4054.251	3805
4055.829	3825
4057.406	3795
4058.985	3813
4060.562	3885
4062.139	3808
4063.715	3816
4065.29	3809
4066.865	3723
4068.442	3733
4070.016	3720
4071.59	3757
4073.164	3689
4074.738	3756
4076.312	3698
4077.885	3808
4079.458	3763
4081.03	3777
4082.602	3722
4084.173	3745
4085.745	3735
4087.315	3766
4088.886	3661
4090.456	3705
4092.026	3738
4093.596	3777
4095.165	3748
4096.734	3682
4098.301	3734
4099.869	3745
4101.437	3745
4103.006	3690
4104.572	3746
4106.139	3759
4107.704	3626
4109.27	3643
4110.837	3641
4112.401	3714
4113.966	3726
4115.53	3629
4117.094	3679
4118.659	3682
4120.223	3600
4121.785	3633
4123.347	3633
4124.909	3669
4126.471	3602
4128.034	3583
4129.595	3648
4131.155	3630
4132.716	3635
4134.275	3588
4135.836	3580
4137.395	3628
4138.955	3506
4140.513	3633
4142.071	3544
4143.628	3527
4145.188	3543
4146.745	3534
4148.302	3595
4149.858	3618
4151.414	3636
4152.971	3587
4154.526	3548
4156.081	3508
4157.635	3579
4159.189	3565
4160.745	3495
4162.298	3482
4163.852	3519
4165.405	3542
4166.957	3562
4168.51	3531
4170.063	3532
4171.614	3449
4173.166	3502
4174.717	3443
4176.267	3472
4177.817	3511
4179.368	3447
4180.917	3489
4182.466	3489
4184.016	3407
4185.564	3338
4187.112	3438
4188.66	3449
4190.207	3492
4191.754	3472
4193.301	3471
4194.848	3407
4196.394	3419
4197.94	3381
4199.484	3403
4201.03	3395
4202.575	3397
4204.12	3379
4205.663	3490
4207.207	3302
4208.75	3391
4210.292	3470
4211.836	3371
4213.378	3318
4214.92	3329
4216.46	3380
4218.002	3338
4219.544	3349
4221.083	3392
4222.625	3413
4224.164	3373
4225.703	3454
4227.244	3407
4228.782	3292
4230.32	3397
4231.857	3361
4233.395	3419
4234.933	3296
4236.471	3274
4238.007	3329
4239.542	3275
4241.078	3316
4242.614	3290
4244.15	3305
4245.685	3318
4247.219	3265
4248.753	3269
4250.287	3231
4251.82	3346
4253.354	3378
4254.887	3330
4256.419	3341
4257.951	3287
4259.483	3253
4261.016	3398
4262.547	3279
4264.078	3274
4265.608	3173
4267.137	3294
4268.668	3251
4270.197	3265
4271.727	3284
4273.254	3231
4274.783	3288
4276.311	3268
4277.84	3224
4279.366	3273
4280.894	3320
4282.42	3242
4283.946	3192
4285.473	3229
4286.998	3203
4288.523	3177
4290.047	3197
4291.572	3192
4293.096	3189
4294.622	3157
4296.144	3233
4297.668	3242
4299.19	3242
4300.713	3170
4302.236	3202
4303.758	3180
4305.279	3245
4306.799	3204
4308.321	3201
4309.842	3164
4311.361	3150
4312.882	3194
4314.401	3151
