400.0961	5141
402.6185	5148
405.1424	5124
407.6635	5139
410.1838	5113
412.7035	5294
415.2225	5255
417.7388	5227
420.2585	5386
422.7754	5296
425.2917	5358
427.8072	5357
430.3221	5489
432.8363	5495
435.3498	5469
437.8626	5514
440.3727	5460
442.8841	5513
445.3969	5500
447.907	5518
450.4142	5477
452.9229	5461
455.4289	5487
457.9362	5536
460.4449	5636
462.9488	5404
465.454	5481
467.9566	5487
470.4604	5538
472.9637	5505
475.4662	5417
477.966	5445
480.4671	5492
482.9656	5521
485.4633	5608
487.9645	5531
490.4608	5549
492.9566	5583
495.4536	5652
497.948	5630
500.4437	5616
502.9387	5622
505.431	5582
507.9226	5591
510.4136	5647
512.9079	5604
515.3975	5735
517.8864	5697
520.3746	5766
522.8622	5650
525.3491	5601
527.8394	5718
530.3249	5663
532.8098	5690
535.2939	5679
537.7774	5790
540.2623	5784
542.7444	5782
545.2259	5807
547.7067	5794
550.1868	5818
552.6683	5826
555.147	5752
557.6231	5797
560.1005	5871
562.5773	5844
565.0534	5708
567.5308	5889
570.0056	5861
572.4776	5844
574.951	5837
577.4237	5880
579.8978	5952
582.3671	5961
584.8378	5891
587.3079	5948
589.7773	5974
592.244	6008
594.714	5976
597.1793	6034
599.6461	5977
602.1121	6002
604.5754	5903
607.0421	5905
609.5042	5911
611.9675	6033
614.4282	5949
616.8902	5934
619.3515	5940
621.8122	5932
624.2702	5831
626.7296	5907
629.1863	5884
631.6423	5853
634.1017	5944
636.5563	5875
639.0104	5999
641.4658	5961
643.9185	5953
646.3725	5952
648.8239	6054
651.2766	6098
653.7266	6089
656.176	6042
658.6247	6055
661.0748	6081
663.5242	6044
665.9709	6078
668.417	6119
670.8624	6109
673.3092	6091
675.7533	6190
678.1968	6096
680.6395	6196
683.0817	6229
685.5251	6039
687.9659	6214
690.4061	6162
692.8456	6142
695.2844	6172
697.7226	6157
700.1621	6188
702.599	6202
705.0332	6082
707.4688	6259
709.9036	6244
712.3399	6375
714.7735	6285
717.2044	6322
719.6367	6318
722.0683	6206
724.4993	6356
726.9296	6426
729.3593	6477
731.7883	6358
734.2147	6266
736.6423	6602
739.0714	6470
741.4958	6490
743.9216	6373
746.3447	6484
748.7691	6533
751.1929	6557
753.616	6443
756.0366	6577
758.4584	6633
760.8776	6540
763.2982	6733
765.718	6550
768.1373	6636
770.5539	6593
772.9698	6662
775.3871	6609
777.8038	6600
780.2178	6634
782.6332	6559
785.0459	6714
787.458	6723
789.8714	6711
792.2842	6556
794.6943	6760
797.1038	6620
799.5127	6722
801.9209	6726
804.3324	6751
806.7393	6751
809.1456	6691
811.5513	6729
813.9562	6631
816.3625	6793
818.7663	6647
821.1693	6804
823.5718	6724
825.9735	6657
828.3746	6759
830.7771	6687
833.177	6719
835.5762	6754
837.9747	6842
840.3727	6713
842.772	6821
845.1666	6831
847.5626	6949
849.958	6864
852.3527	7021
854.7488	6971
857.1403	6833
859.5331	6913
861.9253	6745
864.3168	6980
866.7057	6872
869.098	6838
871.4876	6960
873.8746	6922
876.263	6898
878.6487	6763
881.0378	6794
883.4243	6814
885.8081	7019
888.1933	6766
890.5759	6761
892.9598	6809
895.343	6942
897.7256	6768
900.1057	6826
902.4871	6865
904.8659	6990
907.246	7006
909.6254	6981
912.0023	7014
914.3786	6999
916.7562	7260
919.1331	7227
921.5074	7278
923.8831	7330
926.2562	7317
928.6287	7410
931.0005	7291
933.3757	7154
935.7462	7327
938.1162	7420
940.4855	7305
942.8542	7279
945.2242	7309
947.5916	7452
949.9584	7460
952.3266	7575
954.6921	7804
957.0571	8189
959.4233	8312
961.787	8313
964.15	8236
966.5125	8297
968.8742	8033
971.2354	7618
973.5959	7480
975.9559	7377
978.3151	7253
980.6738	7216
983.0338	7231
985.3912	7161
987.7461	7217
990.1022	7029
992.4578	7154
994.8127	7057
997.1689	7045
999.5207	7085
1001.874	7149
1004.226	7199
1006.576	7030
1008.929	7173
1011.28	7120
1013.628	7119
1015.977	7127
1018.324	7095
1020.674	7148
1023.019	7277
1025.366	7226
1027.713	7068
1030.056	7209
1032.399	7213
1034.746	7264
1037.087	7326
1039.431	7309
1041.771	7174
1044.113	7251
1046.454	7261
1048.793	7287
1051.133	7163
1053.471	7256
1055.807	7323
1058.146	7250
1060.483	7336
1062.818	7250
1065.153	7381
1067.489	7377
1069.822	7307
1072.156	7429
1074.488	7284
1076.82	7279
1079.15	7336
1081.48	7300
1083.814	7365
1086.143	7428
1088.471	7324
1090.799	7228
1093.126	7246
1095.452	7406
1097.78	7274
1100.105	7280
1102.43	7376
1104.754	7281
1107.077	7363
1109.4	7352
1111.722	7337
1114.044	7291
1116.365	7394
1118.685	7375
1121.005	7463
1123.324	7501
1125.643	7525
1127.961	7423
1130.278	7340
1132.595	7393
1134.911	7372
1137.226	7412
1139.541	7336
1141.854	7395
1144.167	7370
1146.482	7402
1148.793	7351
1151.105	7385
1153.414	7389
1155.725	7319
1158.033	7373
1160.344	7315
1162.651	7428
1164.959	7293
1167.265	7263
1169.572	7344
1171.878	7429
1174.184	7252
1176.488	7368
1178.79	7254
1181.094	7349
1183.396	7321
1185.699	7242
1188.001	7433
1190.301	7328
1192.6	7322
1194.9	7328
1197.2	7480
1199.497	7342
1201.794	7507
1204.09	7340
1206.387	7393
1208.684	7406
1210.978	7440
1213.272	7471
1215.565	7330
1217.858	7409
1220.15	7513
1222.443	7405
1224.734	7450
1227.024	7538
1229.313	7407
1231.602	7459
1233.892	7435
1236.18	7597
1238.467	7654
1240.754	7596
1243.04	7671
1245.325	7577
1247.612	7668
1249.896	7702
1252.178	7708
1254.461	7648
1256.743	7541
1259.027	7579
1261.308	7691
1263.587	7700
1265.867	7664
1268.146	7649
1270.425	7715
1272.703	7659
1274.981	7760
1277.256	7678
1279.532	7528
1281.808	7672
1284.083	7508
1286.358	7655
1288.63	7583
1290.904	7624
1293.175	7583
1295.449	7565
1297.719	7566
1299.99	7492
1302.259	7602
1304.529	7616
1306.798	7562
1309.065	7653
1311.333	7608
1313.599	7504
1315.866	7603
1318.131	7540
1320.396	7523
1322.66	7569
1324.925	7782
1327.187	7639
1329.448	7657
1331.711	7586
1333.974	7676
1336.234	7656
1338.493	7649
1340.752	7659
1343.01	7570
1345.269	7528
1347.526	7596
1349.784	7516
1352.04	7615
1354.295	7449
1356.552	7570
1358.806	7505
1361.059	7472
1363.312	7670
1365.564	7609
1367.818	7511
1370.069	7585
1372.318	7587
1374.568	7580
1376.817	7619
1379.066	7651
1381.316	7552
1383.564	7724
1385.809	7690
1388.056	7706
1390.301	7776
1392.549	7737
1394.793	7899
1397.036	7863
1399.279	7894
1401.522	7973
1403.763	7987
1406.007	7877
1408.248	7966
1410.487	7863
1412.727	7847
1414.965	7886
1417.205	7885
1419.442	7945
1421.68	7932
1423.915	7980
1426.152	7890
1428.388	7783
1430.623	7936
1432.857	7783
1435.091	7866
1437.323	7977
1439.556	7957
1441.789	8045
1444.019	8012
1446.25	7822
1448.48	7946
1450.708	7948
1452.938	8127
1455.167	8022
1457.394	8072
1459.62	8045
1461.846	8000
1464.073	7920
1466.299	7761
1468.523	7961
1470.746	7835
1472.969	7828
1475.191	7711
1477.415	7773
1479.636	7771
1481.858	7634
1484.078	7772
1486.298	7566
1488.518	7770
1490.736	7604
1492.954	7633
1495.169	7611
1497.386	7547
1499.602	7626
1501.819	7705
1504.034	7597
1506.248	7669
1508.462	7611
1510.675	7682
1512.888	7532
1515.1	7702
1517.311	7690
1519.522	7578
1521.732	7529
1523.942	7643
1526.151	7556
1528.36	7627
1530.566	7580
1532.773	7567
1534.98	7501
1537.187	7692
1539.392	7644
1541.596	7700
1543.801	7618
1546.005	7522
1548.208	7570
1550.411	7647
1552.612	7720
1554.814	7695
1557.013	7680
1559.212	7698
1561.414	7756
1563.612	7762
1565.811	7817
1568.007	7812
1570.203	7770
1572.403	7899
1574.598	7788
1576.792	7855
1578.988	7888
1581.181	7917
1583.376	7854
1585.568	7853
1587.761	7775
1589.952	7913
1592.143	7910
1594.333	7896
1596.524	7905
1598.715	7753
1600.903	7800
1603.091	7825
1605.278	7864
1607.466	7898
1609.652	7918
1611.838	7900
1614.023	7717
1616.207	7867
1618.391	7960
1620.576	7871
1622.759	7963
1624.941	7834
1627.123	7817
1629.304	7867
1631.484	7872
1633.664	7916
1635.844	7887
1638.022	7972
1640.201	7989
1642.38	7877
1644.556	7952
1646.732	8013
1648.908	7977
1651.084	7962
1653.257	7895
1655.433	7919
1657.607	7989
1659.779	7964
1661.951	7881
1664.122	8023
1666.295	7966
1668.467	7933
1670.635	8069
1672.805	7978
1674.973	8016
1677.142	7903
1679.31	7984
1681.478	7923
1683.644	7903
1685.81	8009
1687.975	8097
1690.142	7949
1692.305	8050
1694.468	7972
1696.632	7914
1698.794	7834
1700.957	7905
1703.119	7862
1705.279	7784
1707.439	7837
1709.598	7936
1711.758	7805
1713.917	7782
1716.075	7826
1718.231	7784
1720.388	7854
1722.543	7786
1724.702	7813
1726.856	7802
1729.01	7737
1731.164	7739
1733.317	7897
1735.471	7844
1737.623	7871
1739.774	7758
1741.925	7939
1744.075	7786
1746.225	7836
1748.376	7790
1750.524	7876
1752.672	7769
1754.82	7877
1756.965	7890
1759.113	7831
1761.259	7820
1763.405	7899
1765.549	7929
1767.694	7732
1769.836	7825
1771.981	7774
1774.123	7800
1776.264	8041
1778.405	7922
1780.546	7881
1782.687	7883
1784.827	7993
1786.966	7885
1789.103	7895
1791.242	7816
1793.381	7931
1795.517	7896
1797.653	7865
1799.788	7862
1801.923	8050
1804.057	7893
1806.193	7947
1808.326	7771
1810.457	7847
1812.59	7830
1814.721	7843
1816.855	7822
1818.984	7900
1821.113	7955
1823.244	7775
1825.372	7759
1827.499	7857
1829.63	7817
1831.756	7754
1833.882	7811
1836.007	7986
1838.132	7887
1840.26	7892
1842.384	7812
1844.507	7859
1846.63	7859
1848.752	7835
1850.875	7824
1852.996	7775
1855.118	7871
1857.238	7820
1859.358	7797
1861.477	7727
1863.597	7894
1865.715	7817
1867.832	7917
1869.948	7760
1872.064	7890
1874.181	7702
1876.297	7879
1878.411	7856
1880.526	7946
1882.639	7912
1884.752	7853
1886.865	7736
1888.977	7757
1891.089	7763
1893.2	7891
1895.308	7833
1897.42	7799
1899.53	7813
1901.639	7788
1903.745	7876
1905.853	7907
1907.962	7946
1910.067	7811
1912.174	7959
1914.278	8003
1916.383	7833
1918.486	7829
1920.592	7838
1922.694	7952
1924.797	7960
1926.898	7842
1929	7989
1931.102	7976
1933.203	7900
1935.301	7977
1937.401	7877
1939.499	7911
1941.598	8043
1943.697	8018
1945.793	7863
1947.888	7845
1949.985	7886
1952.08	7886
1954.176	7907
1956.269	7875
1958.364	7887
1960.457	7949
1962.549	7926
1964.642	7868
1966.733	7808
1968.823	7942
1970.913	7861
1973.005	7933
1975.093	7818
1977.184	7878
1979.271	7959
1981.359	7951
1983.446	7830
1985.532	7925
1987.619	7770
1989.705	7861
1991.789	7940
1993.874	7781
1995.956	7834
1998.041	7743
2000.123	7805
2002.206	7789
2004.287	7886
2006.368	7757
2008.449	7817
2010.529	7867
2012.609	7955
2014.688	7887
2016.766	7755
2018.843	7865
2020.922	7857
2022.999	7914
2025.074	7727
2027.15	7941
2029.225	7771
2031.299	7843
2033.375	7791
2035.447	7795
2037.52	7958
2039.592	7824
2041.664	7813
2043.736	7863
2045.807	7698
2047.876	7865
2049.947	7876
2052.015	7891
2054.086	7809
2056.153	7771
2058.221	7848
2060.288	7776
2062.353	7855
2064.42	7986
2066.486	7841
2068.55	7977
2070.614	7862
2072.678	7800
2074.741	7816
2076.805	7785
2078.866	7821
2080.929	7805
2082.99	7739
2085.049	7934
2087.109	7848
2089.17	7786
2091.228	7903
2093.286	7853
2095.344	7815
2097.4	7902
2099.46	7905
2101.516	7873
2103.572	7742
2105.626	7901
2107.679	7829
2109.735	7816
2111.788	7805
2113.841	7852
2115.894	7798
2117.945	7842
2119.997	7826
2122.049	7757
2124.1	7738
2126.148	7755
2128.197	7728
2130.246	7756
2132.296	7700
2134.342	7876
2136.39	7835
2138.437	7912
2140.483	7820
2142.527	7826
2144.574	7789
2146.619	7780
2148.661	7799
2150.705	7895
2152.747	7760
2154.792	7775
2156.832	7836
2158.874	7696
2160.915	7775
2162.954	7710
2164.995	7674
2167.034	7670
2169.072	7672
2171.111	7667
2173.148	7590
2175.186	7701
2177.223	7669
2179.258	7599
2181.294	7623
2183.328	7619
2185.362	7637
2187.398	7672
2189.431	7676
2191.463	7555
2193.495	7609
2195.528	7667
2197.56	7610
2199.59	7709
2201.62	7572
2203.649	7630
2205.678	7666
2207.708	7661
2209.737	7575
2211.764	7688
2213.791	7545
2215.817	7694
2217.843	7490
2219.87	7556
2221.895	7599
2223.919	7541
2225.942	7605
2227.966	7548
2229.988	7568
2232.012	7506
2234.032	7587
2236.054	7503
2238.074	7578
2240.095	7461
2242.116	7630
2244.135	7626
2246.153	7590
2248.171	7603
2250.188	7580
2252.208	7625
2254.223	7726
2256.239	7567
2258.255	7599
2260.269	7604
2262.283	7594
2264.3	7604
2266.312	7604
2268.325	7517
2270.336	7487
2272.349	7513
2274.362	7551
2276.372	7640
2278.383	7508
2280.392	7461
2282.402	7478
2284.409	7512
2286.418	7515
2288.427	7527
2290.433	7607
2292.441	7600
2294.446	7398
2296.453	7549
2298.459	7571
2300.463	7610
2302.466	7540
2304.471	7567
2306.475	7566
2308.477	7526
2310.478	7470
2312.481	7406
2314.481	7450
2316.481	7441
2318.482	7469
2320.482	7368
2322.48	7443
2324.48	7432
2326.478	7401
2328.476	7376
2330.473	7347
2332.469	7370
2334.465	7374
2336.46	7346
2338.454	7466
2340.45	7360
2342.444	7405
2344.437	7465
2346.43	7331
2348.421	7379
2350.414	7400
2352.405	7400
2354.396	7398
2356.386	7364
2358.376	7434
2360.366	7430
2362.355	7349
2364.343	7280
2366.331	7462
2368.317	7371
2370.304	7400
2372.292	7426
2374.278	7292
2376.262	7441
2378.247	7199
2380.23	7313
2382.216	7471
2384.199	7297
2386.181	7339
2388.163	7297
2390.144	7358
2392.127	7259
2394.107	7204
2396.087	7281
2398.066	7236
2400.046	7263
2402.023	7213
2404.004	7205
2405.981	7207
2407.957	7254
2409.934	7280
2411.91	7253
2413.886	7078
2415.862	7152
2417.836	7145
2419.809	7182
2421.784	7224
2423.756	7265
2425.73	7127
2427.701	7181
2429.672	7244
2431.644	7257
2433.615	7183
2435.586	7161
2437.555	7208
2439.523	7122
2441.491	7175
2443.459	7250
2445.428	7286
2447.395	7241
2449.361	7224
2451.327	7209
2453.292	7215
2455.257	7297
2457.223	7211
2459.187	7220
2461.15	7199
2463.113	7221
2465.076	7117
2467.039	7185
2468.999	7155
2470.96	7100
2472.921	7067
2474.881	7214
2476.841	7052
2478.8	7073
2480.759	7237
2482.717	7116
2484.675	7108
2486.63	7028
2488.589	7201
2490.545	7202
2492.5	6908
2494.455	7178
2496.408	6977
2498.364	7205
2500.318	7100
2502.27	7067
2504.223	7028
2506.174	7134
2508.126	7020
2510.078	7122
2512.03	7063
2513.979	7085
2515.927	7054
2517.877	7106
2519.826	7054
2521.775	7011
2523.722	7046
2525.668	7108
2527.616	7015
2529.561	7059
2531.508	7138
2533.452	7012
2535.398	6961
2537.342	6928
2539.284	7041
2541.229	6994
2543.173	7045
2545.114	7080
2547.055	7055
2548.996	6907
2550.938	7055
2552.878	6964
2554.817	7013
2556.756	7070
2558.695	7083
2560.633	7140
2562.572	7013
2564.509	7037
2566.445	6984
2568.382	7019
2570.317	7003
2572.254	7024
2574.189	6977
2576.123	6966
2578.057	6913
2579.99	7069
2581.923	7026
2583.855	7062
2585.788	7089
2587.719	6965
2589.65	7024
2591.579	6926
2593.511	7024
2595.44	7032
2597.37	6961
2599.297	7121
2601.225	6954
2603.153	6950
2605.08	7009
2607.007	7036
2608.932	7049
2610.858	6907
2612.782	6978
2614.709	6971
2616.632	7049
2618.556	6996
2620.478	7093
2622.401	7078
2624.324	6952
2626.247	7036
2628.167	6908
2630.088	7079
2632.008	7079
2633.928	6989
2635.848	6871
2637.766	7037
2639.684	6991
2641.603	7092
2643.519	7095
2645.437	6971
2647.353	6951
2649.27	6994
2651.184	7051
2653.099	6963
2655.014	6963
2656.928	7040
2658.842	6868
2660.755	6967
2662.667	6963
2664.579	6948
2666.491	7021
2668.402	6946
2670.312	6995
2672.222	6883
2674.132	6994
2676.042	6939
2677.951	7050
2679.859	7014
2681.766	6899
2683.674	6936
2685.582	6970
2687.488	6883
2689.392	6943
2691.298	6850
2693.202	6824
2695.107	6897
2697.012	6968
2698.914	6771
2700.817	6855
2702.72	6896
2704.622	6766
2706.524	6909
2708.425	6837
2710.326	6833
2712.225	6907
2714.125	7026
2716.024	6962
2717.923	6877
2719.822	6818
2721.719	6808
2723.616	6922
2725.512	6878
2727.41	6885
2729.305	6870
2731.201	6763
2733.095	6865
2734.99	6897
2736.884	6815
2738.778	6905
2740.67	6843
2742.562	6836
2744.455	6827
2746.346	6847
2748.238	6773
2750.129	6801
2752.018	6786
2753.907	6746
2755.797	6782
2757.687	6776
2759.575	6682
2761.462	6828
2763.349	6832
2765.237	6748
2767.124	6799
2769.009	6703
2770.894	6754
2772.779	6742
2774.663	6787
2776.547	6792
2778.431	6815
2780.314	6733
2782.197	6765
2784.078	6757
2785.96	6779
2787.842	6756
2789.723	6731
2791.603	6666
2793.483	6776
2795.362	6759
2797.241	6725
2799.121	6679
2800.997	6622
2802.874	6662
2804.751	6651
2806.628	6706
2808.506	6814
2810.38	6627
2812.255	6682
2814.13	6675
2816.003	6694
2817.878	6617
2819.752	6671
2821.623	6723
2823.496	6686
2825.368	6626
2827.238	6599
2829.111	6633
2830.98	6770
2832.851	6642
2834.719	6699
2836.589	6671
2838.458	6617
2840.327	6731
2842.193	6762
2844.061	6745
2845.927	6782
2847.794	6689
2849.66	6797
2851.525	6808
2853.39	6860
2855.254	6761
2857.117	6800
2858.983	6826
2860.845	6845
2862.707	6819
2864.569	6954
2866.431	6959
2868.293	6896
2870.154	6890
2872.013	7041
2873.873	6978
2875.733	7075
2877.592	7177
2879.451	7095
2881.309	7238
2883.166	7217
2885.022	7319
2886.879	7270
2888.736	7271
2890.591	7336
2892.446	7291
2894.301	7311
2896.155	7517
2898.009	7366
2899.863	7397
2901.716	7202
2903.568	7322
2905.419	7357
2907.27	7289
2909.123	7298
2910.973	7306
2912.824	7353
2914.673	7375
2916.521	7392
2918.372	7584
2920.22	7594
2922.067	7534
2923.914	7533
2925.761	7579
2927.607	7614
2929.455	7741
2931.301	7735
2933.144	7815
2934.99	7824
2936.833	7726
2938.678	7816
2940.522	8030
2942.364	8023
2944.207	8072
2946.048	8132
2947.891	8215
2949.731	8349
2951.571	8151
2953.412	8137
2955.25	8192
2957.09	8154
2958.93	7933
2960.767	8139
2962.606	7903
2964.443	7810
2966.279	7827
2968.116	7739
2969.953	7614
2971.788	7618
2973.623	7491
2975.457	7507
2977.292	7370
2979.127	7385
2980.959	7362
2982.792	7261
2984.624	7134
2986.455	7196
2988.288	7149
2990.119	7001
2991.949	7062
2993.779	7025
2995.608	6984
2997.439	7053
2999.268	6817
3001.096	6790
3002.923	6774
3004.751	6818
3006.578	6671
3008.406	6638
3010.232	6753
3012.057	6637
3013.883	6556
3015.706	6506
3017.532	6517
3019.356	6542
3021.179	6457
3023.002	6459
3024.823	6456
3026.646	6501
3028.469	6358
3030.289	6352
3032.11	6248
3033.93	6491
3035.749	6393
3037.57	6246
3039.39	6331
3041.207	6249
3043.026	6315
3044.842	6401
3046.661	6331
3048.477	6271
3050.294	6380
3052.109	6328
3053.925	6315
3055.739	6233
3057.555	6239
3059.368	6237
3061.181	6228
3062.995	6251
3064.807	6212
3066.62	6231
3068.433	6211
3070.243	6281
3072.054	6299
3073.865	6184
3075.675	6175
3077.485	6190
3079.293	6031
3081.102	6230
3082.911	6201
3084.719	6047
3086.527	6134
3088.333	6147
3090.139	6178
3091.945	6035
3093.75	6092
3095.557	6117
3097.361	6156
3099.165	6109
3100.969	6069
3102.772	6161
3104.575	6034
3106.379	6043
3108.181	5933
3109.982	6034
3111.783	6051
3113.584	6152
3115.386	5978
3117.186	6116
3118.985	6016
3120.783	6107
3122.582	5999
3124.381	5961
3126.179	5863
3127.975	5910
3129.772	5968
3131.569	5977
3133.365	5877
3135.161	5920
3136.956	5959
3138.751	6005
3140.544	6083
3142.338	5975
3144.132	5906
3145.925	6045
3147.717	5800
3149.509	5952
3151.301	5975
3153.091	5811
3154.884	5898
3156.673	5848
3158.462	5888
3160.252	5879
3162.041	5841
3163.831	5863
3165.618	5869
3167.405	5897
3169.193	5891
3170.979	5870
3172.767	5803
3174.553	5873
3176.338	5809
3178.123	5916
3179.907	5789
3181.692	5892
3183.477	5849
3185.259	5825
3187.042	5751
3188.824	5765
3190.607	5844
3192.389	5807
3194.17	5760
3195.951	5772
3197.73	5812
3199.51	5796
3201.289	5768
3203.07	5844
3204.848	5799
3206.626	5724
3208.403	5877
3210.18	5905
3211.959	5754
3213.735	5851
3215.511	5771
3217.285	5716
3219.06	5771
3220.836	5834
3222.611	5761
3224.384	5828
3226.158	5797
3227.929	5852
3229.702	5774
3231.476	5721
3233.248	5668
3235.018	5807
3236.789	5798
3238.56	5700
3240.33	5694
3242.1	5739
3243.869	5736
3245.637	5666
3247.405	5780
3249.172	5788
3250.941	5711
3252.707	5611
3254.474	5798
3256.24	5750
3258.006	5732
3259.772	5703
3261.537	5811
3263.301	5764
3265.065	5751
3266.828	5763
3268.592	5676
3270.355	5809
3272.117	5686
3273.878	5675
3275.64	5670
3277.401	5717
3279.162	5765
3280.922	5746
3282.682	5751
3284.441	5656
3286.199	5767
3287.959	5681
3289.716	5582
3291.475	5811
3293.232	5666
3294.988	5663
3296.744	5631
3298.501	5712
3300.256	5744
3302.011	5682
3303.766	5667
3305.52	5677
3307.275	5704
3309.028	5614
3310.781	5689
3312.533	5624
3314.285	5720
3316.038	5623
3317.789	5752
3319.54	5618
3321.289	5683
3323.039	5740
3324.789	5644
3326.539	5620
3328.288	5686
3330.035	5729
3331.783	5618
3333.531	5614
3335.28	5588
3337.025	5656
3338.771	5635
3340.518	5608
3342.262	5708
3344.009	5597
3345.753	5618
3347.497	5450
3349.24	5586
3350.983	5591
3352.726	5522
3354.469	5493
3356.212	5495
3357.952	5525
3359.694	5543
3361.434	5602
3363.176	5552
3364.916	5523
3366.654	5392
3368.394	5369
3370.132	5496
3371.871	5436
3373.61	5555
3375.346	5448
3377.083	5499
3378.82	5387
3380.556	5469
3382.292	5409
3384.027	5428
3385.763	5365
3387.497	5423
3389.231	5458
3390.965	5419
3392.698	5384
3394.431	5395
3396.164	5388
3397.896	5415
3399.627	5426
3401.36	5419
3403.09	5436
3404.82	5522
3406.55	5407
3408.279	5356
3410.01	5358
3411.738	5339
3413.467	5435
3415.194	5388
3416.92	5354
3418.647	5368
3420.375	5280
3422.102	5432
3423.827	5269
3425.553	5367
3427.277	5307
3429.003	5252
3430.727	5356
3432.451	5326
3434.173	5305
3435.896	5319
3437.62	5138
3439.343	5300
3441.063	5241
3442.785	5247
3444.505	5206
3446.226	5246
3447.948	5267
3449.666	5285
3451.386	5270
3453.104	5170
3454.823	5256
3456.541	5239
3458.259	5115
3459.976	5117
3461.693	5178
3463.408	5251
3465.125	5294
3466.841	5079
3468.556	5229
3470.271	5197
3471.985	5166
3473.698	5082
3475.414	5159
3477.126	5125
3478.838	5082
3480.55	5123
3482.263	5179
3483.975	5140
3485.686	5088
3487.396	4953
3489.106	5114
3490.817	5166
3492.526	5076
3494.236	5038
3495.944	4995
3497.652	5026
3499.359	5047
3501.066	4983
3502.775	4994
3504.481	4896
3506.187	4961
3507.893	5028
3509.598	5078
3511.304	4970
3513.009	4900
3514.713	4970
3516.417	4977
3518.12	4937
3519.821	4977
3521.525	4884
3523.228	4949
3524.929	4929
3526.631	4874
3528.33	4999
3530.032	4853
3531.733	4983
3533.433	4816
3535.131	4938
3536.83	4935
3538.529	4920
3540.227	4852
3541.925	4888
3543.623	4808
3545.319	4931
3547.016	4852
3548.712	4881
3550.408	4792
3552.103	4875
3553.798	4909
3555.491	4884
3557.188	4792
3558.88	4838
3560.574	4888
3562.266	4866
3563.959	4807
3565.651	4716
3567.343	4787
3569.035	4684
3570.725	4836
3572.415	4788
3574.106	4836
3575.797	4765
3577.485	4833
3579.174	4755
3580.863	4764
3582.551	4802
3584.238	4749
3585.926	4753
3587.613	4704
3589.3	4759
3590.986	4798
3592.671	4725
3594.357	4661
3596.042	4673
3597.726	4644
3599.41	4763
3601.094	4690
3602.778	4575
3604.461	4647
3606.143	4678
3607.825	4654
3609.507	4615
3611.188	4596
3612.87	4549
3614.551	4644
3616.229	4563
3617.909	4661
3619.589	4545
3621.269	4589
3622.948	4537
3624.625	4489
3626.302	4555
3627.98	4537
3629.657	4567
3631.334	4537
3633.01	4658
3634.686	4466
3636.361	4568
3638.036	4511
3639.712	4498
3641.385	4495
3643.06	4466
3644.732	4457
3646.405	4512
3648.08	4439
3649.751	4462
3651.424	4482
3653.094	4470
3654.766	4492
3656.436	4442
3658.106	4449
3659.777	4419
3661.446	4445
3663.115	4386
3664.783	4444
3666.452	4482
3668.121	4385
3669.788	4371
3671.454	4366
3673.121	4379
3674.789	4403
3676.455	4455
3678.12	4357
3679.784	4349
3681.45	4386
3683.114	4426
3684.779	4470
3686.442	4343
3688.105	4378
3689.768	4275
3691.43	4277
3693.093	4306
3694.754	4271
3696.415	4415
3698.076	4318
3699.736	4330
3701.396	4300
3703.057	4308
3704.716	4356
3706.375	4299
3708.034	4324
3709.692	4272
3711.351	4338
3713.008	4322
3714.665	4325
3716.321	4247
3717.977	4260
3719.634	4257
3721.29	4231
3722.945	4273
3724.598	4324
3726.253	4332
3727.907	4296
3729.561	4297
3731.214	4249
3732.867	4255
3734.518	4297
3736.171	4296
3737.824	4271
3739.474	4186
3741.125	4172
3742.775	4220
3744.425	4174
3746.074	4278
3747.725	4167
3749.373	4184
3751.022	4201
3752.669	4201
3754.318	4222
3755.966	4118
3757.612	4160
3759.259	4161
3760.905	4174
3762.55	4158
3764.197	4129
3765.842	4122
3767.486	4147
3769.131	4139
3770.774	4094
3772.417	4168
3774.061	4207
3775.705	4136
3777.347	4244
3778.988	4072
3780.629	4133
3782.271	4065
3783.912	4097
3785.552	4059
3787.192	4093
3788.831	4031
3790.472	4035
3792.112	3993
3793.75	4119
3795.388	4146
3797.024	4055
3798.661	4111
3800.3	4038
3801.936	4088
3803.572	4081
3805.208	4095
3806.844	4053
3808.48	4035
3810.115	4093
3811.748	4074
3813.382	4083
3815.016	3952
3816.649	4020
3818.283	3991
3819.914	3958
3821.547	4029
3823.178	3960
3824.809	3998
3826.441	3982
3828.072	4026
3829.701	4050
3831.331	3940
3832.96	4020
3834.591	4012
3836.219	4035
3837.847	4002
3839.475	3952
3841.102	3881
3842.729	3907
3844.357	3975
3845.984	3896
3847.609	3960
3849.234	3922
3850.86	3960
3852.485	3892
3854.11	3940
3855.734	3979
3857.357	3979
3858.981	3832
3860.603	3984
3862.227	3993
3863.848	3957
3865.471	3885
3867.092	3953
3868.713	3827
3870.334	3913
3871.954	3836
3873.575	3928
3875.194	3899
3876.813	3868
3878.433	3890
3880.051	3922
3881.669	3821
3883.286	3866
3884.904	3819
3886.52	3955
3888.138	3817
3889.754	3878
3891.37	3827
3892.985	3780
3894.6	3838
3896.216	3855
3897.831	3780
3899.444	3827
3901.058	3863
3902.67	3857
3904.283	3789
3905.897	3764
3907.509	3860
3909.121	3895
3910.731	3881
3912.342	3850
3913.954	3836
3915.563	3817
3917.174	3905
3918.783	3867
3920.391	3799
3922.002	3788
3923.611	3830
3925.218	3876
3926.826	3746
3928.432	3749
3930.039	3741
3931.647	3731
3933.253	3774
3934.859	3722
3936.464	3773
3938.068	3761
3939.675	3807
3941.278	3665
3942.883	3813
3944.486	3765
3946.089	3820
3947.692	3743
3949.295	3734
3950.898	3750
3952.499	3710
3954.1	3777
3955.7	3721
3957.303	3720
3958.903	3722
3960.502	3751
3962.101	3742
3963.7	3753
3965.301	3674
3966.899	3681
3968.497	3726
3970.094	3697
3971.691	3694
3973.288	3632
3974.885	3707
3976.481	3683
3978.077	3649
3979.672	3662
3981.267	3702
3982.863	3625
3984.457	3629
3986.051	3615
3987.645	3681
3989.238	3590
3990.831	3671
3992.425	3507
3994.017	3640
3995.607	3621
3997.199	3525
3998.79	3615
4000.382	3562
4001.973	3576
4003.561	3576
4005.151	3574
4006.741	3672
4008.331	3554
4009.918	3597
4011.507	3557
4013.095	3543
4014.681	3594
4016.269	3577
4017.856	3548
4019.443	3523
4021.028	3479
4022.614	3444
4024.199	3513
4025.785	3477
4027.37	3515
4028.953	3599
4030.536	3518
4032.12	3507
4033.704	3498
4035.287	3457
4036.869	3502
4038.45	3444
4040.032	3465
4041.613	3473
4043.195	3452
4044.776	3429
4046.356	3452
4047.935	3431
4049.515	3455
4051.095	3483
4052.674	3493
4054.251	3451
4055.829	3493
4057.406	3429
4058.985	3420
4060.562	3405
4062.139	3399
4063.715	3370
4065.29	3412
4066.865	3471
4068.442	3420
4070.016	3435
4071.59	3433
4073.164	3401
4074.738	3390
4076.312	3561
4077.885	3347
4079.458	3387
4081.03	3393
4082.602	3410
4084.173	3431
4085.745	3408
4087.315	3355
4088.886	3422
4090.456	3322
4092.026	3413
4093.596	3392
4095.165	3388
4096.734	3374
4098.301	3378
4099.869	3364
4101.437	3366
4103.006	3384
4104.572	3298
4106.139	3324
4107.704	3292
4109.27	3287
4110.837	3329
4112.401	3280
4113.966	3302
4115.53	3292
4117.094	3330
4118.659	3292
4120.223	3302
4121.785	3270
4123.347	3277
4124.909	3240
4126.471	3346
4128.034	3280
4129.595	3248
4131.155	3320
4132.716	3246
4134.275	3228
4135.836	3202
4137.395	3210
4138.955	3161
4140.513	3250
4142.071	3261
4143.628	3182
4145.188	3165
4146.745	3227
4148.302	3224
4149.858	3144
4151.414	3216
4152.971	3151
4154.526	3212
4156.081	3277
4157.635	3134
4159.189	3148
4160.745	3148
4162.298	3149
4163.852	3160
4165.405	3224
4166.957	3126
4168.51	3141
4170.063	3085
4171.614	3177
4173.166	3149
4174.717	3133
4176.267	3152
4177.817	3104
4179.368	3089
4180.917	3160
4182.466	3149
4184.016	3168
4185.564	3117
4187.112	3091
4188.66	3079
4190.207	3084
4191.754	3123
4193.301	3124
4194.848	3163
4196.394	3087
4197.94	3087
4199.484	3140
4201.03	3066
4202.575	3069
4204.12	3086
4205.663	3141
4207.207	3069
4208.75	3078
4210.292	3077
4211.836	3088
4213.378	3002
4214.92	3098
4216.46	3052
4218.002	3110
4219.544	3029
4221.083	3042
4222.625	3063
4224.164	2990
4225.703	2997
4227.244	3034
4228.782	3085
4230.32	3004
4231.857	3106
4233.395	3014
4234.933	3014
4236.471	2950
4238.007	3028
4239.542	3070
4241.078	3030
4242.614	3034
4244.15	3026
4245.685	2947
4247.219	2980
4248.753	3018
4250.287	2924
4251.82	3024
4253.354	2944
4254.887	2989
4256.419	2924
4257.951	3024
4259.483	2988
4261.016	2953
4262.547	2966
4264.078	3015
4265.608	2977
4267.137	3015
4268.668	3003
4270.197	2949
4271.727	3037
4273.254	2881
4274.783	2982
4276.311	2919
4277.84	2950
4279.366	2896
4280.894	2993
4282.42	2908
4283.946	2907
4285.473	3007
4286.998	2938
4288.523	2872
4290.047	2945
4291.572	2882
4293.096	2897
4294.622	2889
4296.144	2868
4297.668	2887
4299.19	2976
4300.713	2917
4302.236	2839
4303.758	2900
4305.279	2862
4306.799	2890
4308.321	2836
4309.842	2857
4311.361	2963
4312.882	2902
4314.401	2906
