400.0961	6049
402.6185	6045
405.1424	6094
407.6635	6065
410.1838	6195
412.7035	6124
415.2225	6303
417.7388	6174
420.2585	6225
422.7754	6370
425.2917	6478
427.8072	6439
430.3221	6535
432.8363	6477
435.3498	6606
437.8626	6509
440.3727	6548
442.8841	6416
445.3969	6585
447.907	6428
450.4142	6645
452.9229	6491
455.4289	6523
457.9362	6498
460.4449	6500
462.9488	6541
465.454	6579
467.9566	6550
470.4604	6551
472.9637	6633
475.4662	6517
477.966	6565
480.4671	6611
482.9656	6527
485.4633	6676
487.9645	6524
490.4608	6662
492.9566	6581
495.4536	6624
497.948	6610
500.4437	6603
502.9387	6660
505.431	6767
507.9226	6689
510.4136	6780
512.9079	6626
515.3975	6861
517.8864	6814
520.3746	6687
522.8622	6789
525.3491	6835
527.8394	6794
530.3249	6709
532.8098	6908
535.2939	6704
537.7774	6771
540.2623	6788
542.7444	6760
545.2259	6814
547.7067	6766
550.1868	6863
552.6683	6890
555.147	6773
557.6231	6935
560.1005	7060
562.5773	7039
565.0534	6763
567.5308	6886
570.0056	7030
572.4776	6962
574.951	7048
577.4237	7066
579.8978	7075
582.3671	7253
584.8378	7160
587.3079	7151
589.7773	7122
592.244	7220
594.714	7162
597.1793	7165
599.6461	7080
602.1121	7112
604.5754	7088
607.0421	7062
609.5042	7108
611.9675	6999
614.4282	7154
616.8902	7057
619.3515	7138
621.8122	6987
624.2702	7106
626.7296	7148
629.1863	6962
631.6423	7028
634.1017	7044
636.5563	7021
639.0104	7066
641.4658	7047
643.9185	7055
646.3725	7138
648.8239	7074
651.2766	7137
653.7266	7139
656.176	7178
658.6247	7183
661.0748	7212
663.5242	7217
665.9709	7257
668.417	7183
670.8624	7212
673.3092	7288
675.7533	7185
678.1968	7307
680.6395	7325
683.0817	7277
685.5251	7325
687.9659	7295
690.4061	7431
692.8456	7385
695.2844	7403
697.7226	7357
700.1621	7358
702.599	7276
705.0332	7496
707.4688	7410
709.9036	7361
712.3399	7406
714.7735	7341
717.2044	7491
719.6367	7472
722.0683	7380
724.4993	7540
726.9296	7505
729.3593	7505
731.7883	7544
734.2147	7544
736.6423	7557
739.0714	7605
741.4958	7628
743.9216	7716
746.3447	7659
748.7691	7630
751.1929	7797
753.616	7757
756.0366	7829
758.4584	7801
760.8776	7906
763.2982	7869
765.718	7805
768.1373	7807
770.5539	7907
772.9698	7851
775.3871	7926
777.8038	7767
780.2178	7837
782.6332	7876
785.0459	7951
787.458	7949
789.8714	7870
792.2842	7958
794.6943	7852
797.1038	7870
799.5127	7881
801.9209	7868
804.3324	7922
806.7393	7849
809.1456	7854
811.5513	7906
813.9562	7963
816.3625	8036
818.7663	7922
821.1693	7990
823.5718	8077
825.9735	8056
828.3746	7978
830.7771	7934
833.177	7956
835.5762	8044
837.9747	7996
840.3727	8025
842.772	8109
845.1666	7935
847.5626	8172
849.958	8148
852.3527	8243
854.7488	8220
857.1403	8151
859.5331	8218
861.9253	8182
864.3168	8190
866.7057	8061
869.098	8223
871.4876	8235
873.8746	8239
876.263	8186
878.6487	8176
881.0378	8066
883.4243	8098
885.8081	8081
888.1933	8083
890.5759	8106
892.9598	8103
895.343	8169
897.7256	8099
900.1057	8203
902.4871	8174
904.8659	8202
907.246	8208
909.6254	8343
912.0023	8267
914.3786	8432
916.7562	8345
919.1331	8440
921.5074	8494
923.8831	8452
926.2562	8683
928.6287	8590
931.0005	8512
933.3757	8530
935.7462	8567
938.1162	8688
940.4855	8618
942.8542	8739
945.2242	8839
947.5916	8916
949.9584	9187
952.3266	9496
954.6921	9674
957.0571	10093
959.4233	10350
961.787	10490
964.15	10573
966.5125	10241
968.8742	9860
971.2354	9513
973.5959	9198
975.9559	8943
978.3151	8804
980.6738	8692
983.0338	8511
985.3912	8487
987.7461	8601
990.1022	8405
992.4578	8517
994.8127	8405
997.1689	8356
999.5207	8516
1001.874	8485
1004.226	8577
1006.576	8460
1008.929	8450
1011.28	8463
1013.628	8553
1015.977	8548
1018.324	8420
1020.674	8434
1023.019	8645
1025.366	8488
1027.713	8564
1030.056	8615
1032.399	8657
1034.746	8542
1037.087	8715
1039.431	8726
1041.771	8552
1044.113	8553
1046.454	8678
1048.793	8728
1051.133	8685
1053.471	8772
1055.807	8602
1058.146	8678
1060.483	8630
1062.818	8722
1065.153	8888
1067.489	8750
1069.822	8854
1072.156	8912
1074.488	8846
1076.82	8942
1079.15	8789
1081.48	8825
1083.814	8765
1086.143	8783
1088.471	8750
1090.799	8714
1093.126	8552
1095.452	8758
1097.78	8683
1100.105	8684
1102.43	8681
1104.754	8692
1107.077	8596
1109.4	8695
1111.722	8657
1114.044	8572
1116.365	8688
1118.685	8673
1121.005	8685
1123.324	8769
1125.643	8833
1127.961	8956
1130.278	8618
1132.595	8690
1134.911	8565
1137.226	8621
1139.541	8589
1141.854	8707
1144.167	8648
1146.482	8605
1148.793	8740
1151.105	8563
1153.414	8714
1155.725	8683
1158.033	8682
1160.344	8652
1162.651	8708
1164.959	8632
1167.265	8641
1169.572	8674
1171.878	8641
1174.184	8715
1176.488	8626
1178.79	8701
1181.094	8866
1183.396	8677
1185.699	8863
1188.001	8741
1190.301	8666
1192.6	8636
1194.9	8660
1197.2	8616
1199.497	8679
1201.794	8743
1204.09	8792
1206.387	8744
1208.684	8695
1210.978	8673
1213.272	8738
1215.565	8613
1217.858	8775
1220.15	8732
1222.443	8808
1224.734	8814
1227.024	8858
1229.313	8737
1231.602	8830
1233.892	8952
1236.18	8840
1238.467	8949
1240.754	9032
1243.04	9023
1245.325	9091
1247.612	8991
1249.896	9157
1252.178	8939
1254.461	9012
1256.743	9102
1259.027	8889
1261.308	9058
1263.587	9048
1265.867	9036
1268.146	9146
1270.425	9166
1272.703	9103
1274.981	9168
1277.256	8946
1279.532	9053
1281.808	9098
1284.083	8879
1286.358	8874
1288.63	8903
1290.904	8885
1293.175	8947
1295.449	8859
1297.719	8941
1299.99	8967
1302.259	8915
1304.529	8869
1306.798	8952
1309.065	8965
1311.333	8956
1313.599	8921
1315.866	9001
1318.131	8800
1320.396	9036
1322.66	8916
1324.925	9009
1327.187	8840
1329.448	8961
1331.711	9086
1333.974	8961
1336.234	8959
1338.493	8875
1340.752	9051
1343.01	8935
1345.269	9057
1347.526	8885
1349.784	9053
1352.04	8845
1354.295	8860
1356.552	8919
1358.806	8890
1361.059	8906
1363.312	8998
1365.564	8910
1367.818	8894
1370.069	8970
1372.318	8861
1374.568	8927
1376.817	9117
1379.066	8854
1381.316	8993
1383.564	9009
1385.809	8974
1388.056	9016
1390.301	9063
1392.549	9138
1394.793	9238
1397.036	9140
1399.279	9231
1401.522	9173
1403.763	9154
1406.007	9155
1408.248	9166
1410.487	9241
1412.727	9148
1414.965	9192
1417.205	9245
1419.442	9201
1421.68	9152
1423.915	9107
1426.152	9222
1428.388	9087
1430.623	9185
1432.857	9360
1435.091	9330
1437.323	9335
1439.556	9388
1441.789	9452
1444.019	9454
1446.25	9229
1448.48	9400
1450.708	9431
1452.938	9395
1455.167	9327
1457.394	9511
1459.62	9209
1461.846	9315
1464.073	9111
1466.299	9346
1468.523	9166
1470.746	9342
1472.969	9224
1475.191	9148
1477.415	9050
1479.636	9131
1481.858	9134
1484.078	9089
1486.298	9117
1488.518	9055
1490.736	8996
1492.954	8988
1495.169	8816
1497.386	8948
1499.602	8926
1501.819	8876
1504.034	8867
1506.248	8952
1508.462	8793
1510.675	8940
1512.888	8851
1515.1	8875
1517.311	9015
1519.522	9041
1521.732	8924
1523.942	8953
1526.151	8938
1528.36	8973
1530.566	9010
1532.773	8897
1534.98	8914
1537.187	8943
1539.392	9134
1541.596	8945
1543.801	8932
1546.005	8936
1548.208	8999
1550.411	8968
1552.612	8982
1554.814	9026
1557.013	9059
1559.212	9120
1561.414	9106
1563.612	9200
1565.811	9034
1568.007	9178
1570.203	9158
1572.403	9170
1574.598	9074
1576.792	9218
1578.988	9136
1581.181	9176
1583.376	9046
1585.568	9068
1587.761	9194
1589.952	9237
1592.143	9120
1594.333	9229
1596.524	9264
1598.715	9260
1600.903	9259
1603.091	9329
1605.278	9238
1607.466	9205
1609.652	9169
1611.838	9333
1614.023	9272
1616.207	9135
1618.391	9330
1620.576	9262
1622.759	9167
1624.941	9274
1627.123	9232
1629.304	9265
1631.484	9346
1633.664	9353
1635.844	9243
1638.022	9442
1640.201	9184
1642.38	9251
1644.556	9300
1646.732	9431
1648.908	9152
1651.084	9462
1653.257	9423
1655.433	9354
1657.607	9390
1659.779	9414
1661.951	9349
1664.122	9434
1666.295	9482
1668.467	9382
1670.635	9439
1672.805	9371
1674.973	9418
1677.142	9464
1679.31	9497
1681.478	9288
1683.644	9453
1685.81	9481
1687.975	9286
1690.142	9391
1692.305	9337
1694.468	9372
1696.632	9219
1698.794	9252
1700.957	9274
1703.119	9282
1705.279	9137
1707.439	9203
1709.598	9219
1711.758	9179
1713.917	9182
1716.075	9182
1718.231	9026
1720.388	9157
1722.543	9174
1724.702	9231
1726.856	9158
1729.01	9100
1731.164	9150
1733.317	9307
1735.471	9251
1737.623	9096
1739.774	9157
1741.925	9116
1744.075	9292
1746.225	9245
1748.376	9127
1750.524	9247
1752.672	9107
1754.82	9112
1756.965	9341
1759.113	9192
1761.259	9100
1763.405	9318
1765.549	9197
1767.694	9110
1769.836	9333
1771.981	9308
1774.123	9192
1776.264	9023
1778.405	9288
1780.546	9262
1782.687	9268
1784.827	9258
1786.966	9303
1789.103	9232
1791.242	9332
1793.381	9218
1795.517	9319
1797.653	9366
1799.788	9266
1801.923	9228
1804.057	9246
1806.193	9119
1808.326	9330
1810.457	9353
1812.59	9190
1814.721	9161
1816.855	9203
1818.984	9185
1821.113	9237
1823.244	9183
1825.372	9160
1827.499	9296
1829.63	9160
1831.756	9260
1833.882	9242
1836.007	9220
1838.132	9269
1840.26	9279
1842.384	9176
1844.507	9208
1846.63	9237
1848.752	9180
1850.875	9136
1852.996	9237
1855.118	9180
1857.238	9171
1859.358	9299
1861.477	9144
1863.597	9135
1865.715	9077
1867.832	9084
1869.948	9176
1872.064	9205
1874.181	9274
1876.297	9191
1878.411	9235
1880.526	9182
1882.639	9318
1884.752	9140
1886.865	9184
1888.977	9146
1891.089	9142
1893.2	9275
1895.308	9131
1897.42	9254
1899.53	9104
1901.639	9317
1903.745	9304
1905.853	9180
1907.962	9307
1910.067	9194
1912.174	9187
1914.278	9249
1916.383	9430
1918.486	9216
1920.592	9308
1922.694	9193
1924.797	9141
1926.898	9307
1929	9398
1931.102	9170
1933.203	9263
1935.301	9243
1937.401	9276
1939.499	9424
1941.598	9262
1943.697	9377
1945.793	9185
1947.888	9288
1949.985	9251
1952.08	9265
1954.176	9440
1956.269	9383
1958.364	9190
1960.457	9247
1962.549	9248
1964.642	9216
1966.733	9192
1968.823	9162
1970.913	9208
1973.005	9094
1975.093	9226
1977.184	9156
1979.271	9230
1981.359	9198
1983.446	9240
1985.532	9105
1987.619	9143
1989.705	9073
1991.789	9150
1993.874	9151
1995.956	9161
1998.041	9056
2000.123	9091
2002.206	9250
2004.287	9308
2006.368	9154
2008.449	9062
2010.529	9209
2012.609	9146
2014.688	9270
2016.766	9173
2018.843	9265
2020.922	9134
2022.999	9105
2025.074	9054
2027.15	9278
2029.225	9256
2031.299	9238
2033.375	9062
2035.447	9162
2037.52	9116
2039.592	9112
2041.664	9209
2043.736	9214
2045.807	9173
2047.876	9172
2049.947	9176
2052.015	9114
2054.086	9153
2056.153	9074
2058.221	9111
2060.288	9096
2062.353	9149
2064.42	9210
2066.486	9195
2068.55	9086
2070.614	9223
2072.678	9133
2074.741	9161
2076.805	9222
2078.866	9200
2080.929	9144
2082.99	9188
2085.049	9170
2087.109	9161
2089.17	9068
2091.228	9174
2093.286	9250
2095.344	9135
2097.4	9167
2099.46	9136
2101.516	9035
2103.572	9125
2105.626	9075
2107.679	9217
2109.735	9088
2111.788	9108
2113.841	9001
2115.894	9163
2117.945	9111
2119.997	9118
2122.049	9051
2124.1	9361
2126.148	9074
2128.197	9163
2130.246	9100
2132.296	8995
2134.342	9162
2136.39	9146
2138.437	9155
2140.483	9119
2142.527	9174
2144.574	8993
2146.619	9173
2148.661	9100
2150.705	9182
2152.747	8956
2154.792	8977
2156.832	9041
2158.874	9032
2160.915	9019
2162.954	9032
2164.995	8923
2167.034	9030
2169.072	8919
2171.111	9061
2173.148	9014
2175.186	8922
2177.223	9021
2179.258	9093
2181.294	9110
2183.328	9058
2185.362	8992
2187.398	8882
2189.431	8898
2191.463	8796
2193.495	8949
2195.528	8905
2197.56	9097
2199.59	8880
2201.62	8837
2203.649	8956
2205.678	8729
2207.708	8868
2209.737	8899
2211.764	8917
2213.791	8987
2215.817	8875
2217.843	8793
2219.87	8838
2221.895	8857
2223.919	8872
2225.942	8772
2227.966	8861
2229.988	8823
2232.012	8662
2234.032	8968
2236.054	8664
2238.074	8914
2240.095	8799
2242.116	8751
2244.135	8893
2246.153	8792
2248.171	8807
2250.188	8819
2252.208	8804
2254.223	8752
2256.239	8799
2258.255	8840
2260.269	8729
2262.283	9014
2264.3	8810
2266.312	8851
2268.325	8826
2270.336	8713
2272.349	8834
2274.362	8722
2276.372	8832
2278.383	8728
2280.392	8740
2282.402	8803
2284.409	8811
2286.418	8848
2288.427	8797
2290.433	8721
2292.441	8881
2294.446	8879
2296.453	8766
2298.459	8771
2300.463	8803
2302.466	8786
2304.471	8824
2306.475	8745
2308.477	8815
2310.478	8789
2312.481	8641
2314.481	8688
2316.481	8816
2318.482	8771
2320.482	8725
2322.48	8714
2324.48	8756
2326.478	8685
2328.476	8691
2330.473	8778
2332.469	8639
2334.465	8907
2336.46	8691
2338.454	8694
2340.45	8591
2342.444	8593
2344.437	8492
2346.43	8727
2348.421	8663
2350.414	8731
2352.405	8596
2354.396	8559
2356.386	8624
2358.376	8645
2360.366	8475
2362.355	8438
2364.343	8651
2366.331	8614
2368.317	8650
2370.304	8562
2372.292	8727
2374.278	8486
2376.262	8512
2378.247	8532
2380.23	8528
2382.216	8514
2384.199	8446
2386.181	8483
2388.163	8611
2390.144	8430
2392.127	8578
2394.107	8421
2396.087	8518
2398.066	8474
2400.046	8455
2402.023	8443
2404.004	8513
2405.981	8480
2407.957	8470
2409.934	8427
2411.91	8435
2413.886	8381
2415.862	8399
2417.836	8438
2419.809	8503
2421.784	8389
2423.756	8502
2425.73	8398
2427.701	8457
2429.672	8519
2431.644	8443
2433.615	8374
2435.586	8387
2437.555	8393
2439.523	8451
2441.491	8616
2443.459	8400
2445.428	8451
2447.395	8207
2449.361	8513
2451.327	8427
2453.292	8418
2455.257	8532
2457.223	8298
2459.187	8378
2461.15	8381
2463.113	8353
2465.076	8328
2467.039	8381
2468.999	8393
2470.96	8261
2472.921	8364
2474.881	8442
2476.841	8224
2478.8	8419
2480.759	8158
2482.717	8281
2484.675	8288
2486.63	8316
2488.589	8225
2490.545	8260
2492.5	8244
2494.455	8255
2496.408	8386
2498.364	8154
2500.318	8282
2502.27	8339
2504.223	8153
2506.174	8180
2508.126	8223
2510.078	8121
2512.03	8256
2513.979	8214
2515.927	8193
2517.877	8306
2519.826	8230
2521.775	8166
2523.722	8242
2525.668	8257
2527.616	8123
2529.561	8069
2531.508	8212
2533.452	8142
2535.398	8258
2537.342	8230
2539.284	8220
2541.229	8254
2543.173	8218
2545.114	8197
2547.055	8199
2548.996	8173
2550.938	8210
2552.878	8251
2554.817	8156
2556.756	8073
2558.695	8305
2560.633	8204
2562.572	8072
2564.509	8169
2566.445	8155
2568.382	8198
2570.317	8131
2572.254	8149
2574.189	8312
2576.123	8185
2578.057	8212
2579.99	8123
2581.923	8207
2583.855	8178
2585.788	8208
2587.719	8045
2589.65	8198
2591.579	8022
2593.511	8246
2595.44	8066
2597.37	8208
2599.297	8319
2601.225	8056
2603.153	8156
2605.08	8231
2607.007	8224
2608.932	8175
2610.858	8161
2612.782	8083
2614.709	8195
2616.632	8210
2618.556	8102
2620.478	8104
2622.401	8100
2624.324	8219
2626.247	8119
2628.167	8216
2630.088	8163
2632.008	8182
2633.928	8160
2635.848	8216
2637.766	8182
2639.684	8206
2641.603	8097
2643.519	8084
2645.437	8081
2647.353	8210
2649.27	8174
2651.184	8206
2653.099	8249
2655.014	8223
2656.928	8140
2658.842	8195
2660.755	8152
2662.667	8107
2664.579	8112
2666.491	8125
2668.402	8028
2670.312	8266
2672.222	7966
2674.132	8020
2676.042	8177
2677.951	8063
2679.859	7981
2681.766	8091
2683.674	8051
2685.582	8030
2687.488	7939
2689.392	8002
2691.298	7972
2693.202	7952
2695.107	7955
2697.012	7958
2698.914	8075
2700.817	8084
2702.72	8030
2704.622	7908
2706.524	7989
2708.425	7878
2710.326	7879
2712.225	8010
2714.125	8121
2716.024	7947
2717.923	8015
2719.822	8024
2721.719	8055
2723.616	7990
2725.512	8038
2727.41	7987
2729.305	7954
2731.201	7869
2733.095	8015
2734.99	7800
2736.884	7972
2738.778	7858
2740.67	7967
2742.562	7834
2744.455	7854
2746.346	7958
2748.238	7838
2750.129	7996
2752.018	7900
2753.907	7808
2755.797	7929
2757.687	7889
2759.575	7854
2761.462	7808
2763.349	7946
2765.237	7864
2767.124	7765
2769.009	7886
2770.894	7796
2772.779	7915
2774.663	7784
2776.547	7895
2778.431	7858
2780.314	7789
2782.197	7764
2784.078	7790
2785.96	7808
2787.842	7851
2789.723	7761
2791.603	7755
2793.483	7693
2795.362	7841
2797.241	7811
2799.121	7881
2800.997	7707
2802.874	7841
2804.751	7716
2806.628	7724
2808.506	7772
2810.38	7735
2812.255	7821
2814.13	7807
2816.003	7723
2817.878	7914
2819.752	7638
2821.623	7811
2823.496	7690
2825.368	7712
2827.238	7793
2829.111	7824
2830.98	7802
2832.851	7739
2834.719	7713
2836.589	7829
2838.458	7838
2840.327	7782
2842.193	7754
2844.061	7824
2845.927	7773
2847.794	7755
2849.66	7871
2851.525	7826
2853.39	7735
2855.254	7798
2857.117	7928
2858.983	7912
2860.845	7814
2862.707	7826
2864.569	7984
2866.431	7951
2868.293	8022
2870.154	8078
2872.013	8245
2873.873	8123
2875.733	8292
2877.592	8244
2879.451	8252
2881.309	8367
2883.166	8266
2885.022	8347
2886.879	8413
2888.736	8401
2890.591	8446
2892.446	8435
2894.301	8507
2896.155	8496
2898.009	8533
2899.863	8393
2901.716	8282
2903.568	8451
2905.419	8378
2907.27	8445
2909.123	8322
2910.973	8512
2912.824	8467
2914.673	8560
2916.521	8583
2918.372	8709
2920.22	8673
2922.067	8806
2923.914	8806
2925.761	8957
2927.607	8887
2929.455	8935
2931.301	8997
2933.144	9134
2934.99	9284
2936.833	9091
2938.678	9162
2940.522	9230
2942.364	9356
2944.207	9400
2946.048	9520
2947.891	9531
2949.731	9636
2951.571	9450
2953.412	9552
2955.25	9270
2957.09	9386
2958.93	9127
2960.767	9199
2962.606	9226
2964.443	9021
2966.279	8921
2968.116	8869
2969.953	8781
2971.788	8741
2973.623	8673
2975.457	8642
2977.292	8628
2979.127	8513
2980.959	8527
2982.792	8397
2984.624	8418
2986.455	8409
2988.288	8257
2990.119	8243
2991.949	8082
2993.779	8222
2995.608	8158
2997.439	8055
2999.268	8100
3001.096	7965
3002.923	7898
3004.751	7862
3006.578	7845
3008.406	7939
3010.232	7846
3012.057	7677
3013.883	7557
3015.706	7682
3017.532	7637
3019.356	7471
3021.179	7552
3023.002	7578
3024.823	7406
3026.646	7499
3028.469	7403
3030.289	7390
3032.11	7236
3033.93	7429
3035.749	7465
3037.57	7313
3039.39	7259
3041.207	7330
3043.026	7207
3044.842	7444
3046.661	7319
3048.477	7329
3050.294	7246
3052.109	7283
3053.925	7348
3055.739	7290
3057.555	7398
3059.368	7190
3061.181	7207
3062.995	7218
3064.807	7238
3066.62	7135
3068.433	7301
3070.243	7190
3072.054	7203
3073.865	7322
3075.675	7249
3077.485	7231
3079.293	7188
3081.102	7098
3082.911	7246
3084.719	7142
3086.527	7147
3088.333	7090
3090.139	7185
3091.945	6975
3093.75	7204
3095.557	6967
3097.361	7056
3099.165	7141
3100.969	7101
3102.772	6875
3104.575	7158
3106.379	7038
3108.181	7091
3109.982	7002
3111.783	6793
3113.584	7072
3115.386	6896
3117.186	6969
3118.985	7043
3120.783	6973
3122.582	6989
3124.381	6996
3126.179	6940
3127.975	6949
3129.772	6786
3131.569	6961
3133.365	6878
3135.161	6908
3136.956	6960
3138.751	6940
3140.544	6791
3142.338	6879
3144.132	6866
3145.925	6857
3147.717	6893
3149.509	6916
3151.301	6866
3153.091	6827
3154.884	6882
3156.673	6902
3158.462	6776
3160.252	6749
3162.041	6850
3163.831	6822
3165.618	6693
3167.405	6786
3169.193	6848
3170.979	6752
3172.767	6712
3174.553	6851
3176.338	6868
3178.123	6754
3179.907	6859
3181.692	6750
3183.477	6665
3185.259	6665
3187.042	6729
3188.824	6843
3190.607	6830
3192.389	6662
3194.17	6794
3195.951	6745
3197.73	6634
3199.51	6668
3201.289	6704
3203.07	6852
3204.848	6681
3206.626	6682
3208.403	6684
3210.18	6805
3211.959	6708
3213.735	6749
3215.511	6708
3217.285	6742
3219.06	6589
3220.836	6717
3222.611	6635
3224.384	6753
3226.158	6676
3227.929	6672
3229.702	6729
3231.476	6608
3233.248	6644
3235.018	6633
3236.789	6646
3238.56	6791
3240.33	6632
3242.1	6520
3243.869	6662
3245.637	6682
3247.405	6539
3249.172	6706
3250.941	6659
3252.707	6774
3254.474	6603
3256.24	6588
3258.006	6522
3259.772	6590
3261.537	6627
3263.301	6784
3265.065	6639
3266.828	6690
3268.592	6594
3270.355	6691
3272.117	6636
3273.878	6710
3275.64	6683
3277.401	6588
3279.162	6617
3280.922	6593
3282.682	6533
3284.441	6670
3286.199	6685
3287.959	6758
3289.716	6629
3291.475	6655
3293.232	6698
3294.988	6613
3296.744	6561
3298.501	6612
3300.256	6652
3302.011	6558
3303.766	6480
3305.52	6617
3307.275	6658
3309.028	6589
3310.781	6551
3312.533	6532
3314.285	6539
3316.038	6636
3317.789	6581
3319.54	6562
3321.289	6715
3323.039	6564
3324.789	6566
3326.539	6526
3328.288	6622
3330.035	6584
3331.783	6556
3333.531	6637
3335.28	6563
3337.025	6525
3338.771	6421
3340.518	6560
3342.262	6532
3344.009	6445
3345.753	6498
3347.497	6509
3349.24	6506
3350.983	6523
3352.726	6519
3354.469	6507
3356.212	6433
3357.952	6476
3359.694	6552
3361.434	6392
3363.176	6421
3364.916	6420
3366.654	6334
3368.394	6268
3370.132	6363
3371.871	6506
3373.61	6420
3375.346	6416
3377.083	6448
3378.82	6358
3380.556	6419
3382.292	6367
3384.027	6382
3385.763	6459
3387.497	6323
3389.231	6440
3390.965	6340
3392.698	6320
3394.431	6321
3396.164	6323
3397.896	6362
3399.627	6300
3401.36	6296
3403.09	6279
3404.82	6336
3406.55	6348
3408.279	6279
3410.01	6185
3411.738	6291
3413.467	6266
3415.194	6284
3416.92	6324
3418.647	6193
3420.375	6224
3422.102	6303
3423.827	6195
3425.553	6258
3427.277	6211
3429.003	6226
3430.727	6136
3432.451	6208
3434.173	6140
3435.896	6214
3437.62	6185
3439.343	6188
3441.063	6123
3442.785	6193
3444.505	6101
3446.226	6077
3447.948	6151
3449.666	5996
3451.386	6044
3453.104	6085
3454.823	6138
3456.541	6090
3458.259	6054
3459.976	5999
3461.693	6091
3463.408	6164
3465.125	6077
3466.841	6035
3468.556	6036
3470.271	6039
3471.985	6011
3473.698	6042
3475.414	5945
3477.126	5947
3478.838	5900
3480.55	5913
3482.263	5837
3483.975	5959
3485.686	5868
3487.396	5853
3489.106	5880
3490.817	5789
3492.526	5796
3494.236	5898
3495.944	5894
3497.652	5745
3499.359	5781
3501.066	5841
3502.775	5741
3504.481	5912
3506.187	5786
3507.893	5891
3509.598	5853
3511.304	5868
3513.009	5757
3514.713	5839
3516.417	5694
3518.12	5809
3519.821	5681
3521.525	5712
3523.228	5844
3524.929	5821
3526.631	5779
3528.33	5580
3530.032	5653
3531.733	5703
3533.433	5748
3535.131	5646
3536.83	5587
3538.529	5625
3540.227	5604
3541.925	5679
3543.623	5603
3545.319	5679
3547.016	5617
3548.712	5618
3550.408	5587
3552.103	5569
3553.798	5623
3555.491	5536
3557.188	5624
3558.88	5582
3560.574	5560
3562.266	5470
3563.959	5641
3565.651	5558
3567.343	5607
3569.035	5547
3570.725	5631
3572.415	5502
3574.106	5549
3575.797	5584
3577.485	5669
3579.174	5544
3580.863	5496
3582.551	5559
3584.238	5470
3585.926	5514
3587.613	5528
3589.3	5473
3590.986	5486
3592.671	5374
3594.357	5440
3596.042	5395
3597.726	5344
3599.41	5439
3601.094	5407
3602.778	5285
3604.461	5403
3606.143	5312
3607.825	5436
3609.507	5373
3611.188	5371
3612.87	5314
3614.551	5279
3616.229	5271
3617.909	5243
3619.589	5268
3621.269	5265
3622.948	5193
3624.625	5317
3626.302	5266
3627.98	5252
3629.657	5316
3631.334	5160
3633.01	5115
3634.686	5214
3636.361	5191
3638.036	5292
3639.712	5273
3641.385	5187
3643.06	5207
3644.732	5167
3646.405	5197
3648.08	5092
3649.751	5165
3651.424	5134
3653.094	5118
3654.766	5203
3656.436	5136
3658.106	5085
3659.777	5144
3661.446	5193
3663.115	5078
3664.783	5060
3666.452	5091
3668.121	5186
3669.788	5007
3671.454	5044
3673.121	5090
3674.789	5035
3676.455	5129
3678.12	5053
3679.784	4938
3681.45	5016
3683.114	5001
3684.779	4998
3686.442	5073
3688.105	4864
3689.768	5078
3691.43	5032
3693.093	4958
3694.754	5114
3696.415	4966
3698.076	5020
3699.736	5044
3701.396	4866
3703.057	4970
3704.716	4900
3706.375	5033
3708.034	4934
3709.692	4975
3711.351	4943
3713.008	5028
3714.665	4906
3716.321	5012
3717.977	4865
3719.634	4964
3721.29	5001
3722.945	4954
3724.598	4868
3726.253	4886
3727.907	4939
3729.561	4881
3731.214	4922
3732.867	4859
3734.518	4846
3736.171	4861
3737.824	4864
3739.474	4781
3741.125	4847
3742.775	4864
3744.425	4878
3746.074	4838
3747.725	4878
3749.373	4769
3751.022	4776
3752.669	4856
3754.318	4870
3755.966	4842
3757.612	4770
3759.259	4785
3760.905	4703
3762.55	4810
3764.197	4781
3765.842	4784
3767.486	4784
3769.131	4702
3770.774	4754
3772.417	4765
3774.061	4853
3775.705	4705
3777.347	4822
3778.988	4713
3780.629	4790
3782.271	4673
3783.912	4740
3785.552	4807
3787.192	4778
3788.831	4697
3790.472	4652
3792.112	4747
3793.75	4704
3795.388	4685
3797.024	4666
3798.661	4692
3800.3	4675
3801.936	4681
3803.572	4643
3805.208	4657
3806.844	4659
3808.48	4748
3810.115	4639
3811.748	4609
3813.382	4664
3815.016	4656
3816.649	4579
3818.283	4684
3819.914	4595
3821.547	4637
3823.178	4634
3824.809	4634
3826.441	4632
3828.072	4545
3829.701	4588
3831.331	4474
3832.96	4613
3834.591	4497
3836.219	4597
3837.847	4527
3839.475	4608
3841.102	4472
3842.729	4491
3844.357	4626
3845.984	4520
3847.609	4432
3849.234	4504
3850.86	4572
3852.485	4495
3854.11	4481
3855.734	4544
3857.357	4453
3858.981	4517
3860.603	4564
3862.227	4420
3863.848	4495
3865.471	4504
3867.092	4529
3868.713	4501
3870.334	4475
3871.954	4431
3873.575	4504
3875.194	4496
3876.813	4499
3878.433	4408
3880.051	4489
3881.669	4465
3883.286	4416
3884.904	4381
3886.52	4347
3888.138	4475
3889.754	4366
3891.37	4477
3892.985	4367
3894.6	4411
3896.216	4378
3897.831	4368
3899.444	4414
3901.058	4352
3902.67	4374
3904.283	4335
3905.897	4434
3907.509	4368
3909.121	4366
3910.731	4439
3912.342	4364
3913.954	4404
3915.563	4343
3917.174	4315
3918.783	4396
3920.391	4308
3922.002	4399
3923.611	4359
3925.218	4267
3926.826	4371
3928.432	4421
3930.039	4342
3931.647	4365
3933.253	4361
3934.859	4332
3936.464	4311
3938.068	4269
3939.675	4370
3941.278	4395
3942.883	4284
3944.486	4263
3946.089	4255
3947.692	4327
3949.295	4304
3950.898	4299
3952.499	4329
3954.1	4266
3955.7	4260
3957.303	4225
3958.903	4105
3960.502	4236
3962.101	4172
3963.7	4135
3965.301	4279
3966.899	4255
3968.497	4289
3970.094	4295
3971.691	4218
3973.288	4260
3974.885	4258
3976.481	4219
3978.077	4215
3979.672	4234
3981.267	4184
3982.863	4177
3984.457	4209
3986.051	4174
3987.645	4194
3989.238	4186
3990.831	4218
3992.425	4193
3994.017	4161
3995.607	4197
3997.199	4121
3998.79	4064
4000.382	4094
4001.973	4084
4003.561	4108
4005.151	4041
4006.741	4114
4008.331	4030
4009.918	4104
4011.507	4079
4013.095	4110
4014.681	4093
4016.269	4087
4017.856	3989
4019.443	4097
4021.028	4002
4022.614	4016
4024.199	4032
4025.785	4086
4027.37	3984
4028.953	4148
4030.536	4063
4032.12	4008
4033.704	3972
4035.287	3949
4036.869	3943
4038.45	3965
4040.032	3953
4041.613	4012
4043.195	3995
4044.776	3918
4046.356	4003
4047.935	4009
4049.515	3963
4051.095	3960
4052.674	3916
4054.251	3853
4055.829	3974
4057.406	3911
4058.985	3919
4060.562	3972
4062.139	3959
4063.715	3893
4065.29	3908
4066.865	3854
4068.442	3938
4070.016	3827
4071.59	3908
4073.164	3809
4074.738	3909
4076.312	3892
4077.885	3887
4079.458	3892
4081.03	3851
4082.602	3850
4084.173	3818
4085.745	3871
4087.315	3918
4088.886	3871
4090.456	3888
4092.026	3839
4093.596	3756
4095.165	3829
4096.734	3826
4098.301	3895
4099.869	3885
4101.437	3858
4103.006	3783
4104.572	3814
4106.139	3816
4107.704	3773
4109.27	3736
4110.837	3858
4112.401	3790
4113.966	3818
4115.53	3780
4117.094	3832
4118.659	3706
4120.223	3796
4121.785	3750
4123.347	3766
4124.909	3751
4126.471	3661
4128.034	3647
4129.595	3719
4131.155	3740
4132.716	3750
4134.275	3701
4135.836	3792
4137.395	3702
4138.955	3757
4140.513	3690
4142.071	3702
4143.628	3729
4145.188	3654
4146.745	3698
4148.302	3719
4149.858	3679
4151.414	3607
4152.971	3619
4154.526	3685
4156.081	3690
4157.635	3616
4159.189	3602
4160.745	3654
4162.298	3597
4163.852	3670
4165.405	3573
4166.957	3590
4168.51	3645
4170.063	3581
4171.614	3586
4173.166	3618
4174.717	3569
4176.267	3628
4177.817	3487
4179.368	3638
4180.917	3557
4182.466	3516
4184.016	3562
4185.564	3623
4187.112	3597
4188.66	3516
4190.207	3494
4191.754	3586
4193.301	3560
4194.848	3583
4196.394	3545
4197.94	3613
4199.484	3539
4201.03	3554
4202.575	3476
4204.12	3636
4205.663	3587
4207.207	3442
4208.75	3550
4210.292	3549
4211.836	3535
4213.378	3481
4214.92	3538
4216.46	3541
4218.002	3524
4219.544	3505
4221.083	3447
4222.625	3420
4224.164	3482
4225.703	3456
4227.244	3513
4228.782	3373
4230.32	3490
4231.857	3436
4233.395	3442
4234.933	3447
4236.471	3422
4238.007	3424
4239.542	3509
4241.078	3430
4242.614	3410
4244.15	3387
4245.685	3445
4247.219	3420
4248.753	3402
4250.287	3367
4251.82	3398
4253.354	3357
4254.887	3447
4256.419	3501
4257.951	3403
4259.483	3415
4261.016	3410
4262.547	3428
4264.078	3393
4265.608	3365
4267.137	3477
4268.668	3382
4270.197	3418
4271.727	3315
4273.254	3391
4274.783	3333
4276.311	3407
4277.84	3401
4279.366	3362
4280.894	3346
4282.42	3389
4283.946	3307
4285.473	3303
4286.998	3292
4288.523	3386
4290.047	3295
4291.572	3360
4293.096	3392
4294.622	3328
4296.144	3349
4297.668	3282
4299.19	3335
4300.713	3276
4302.236	3369
4303.758	3191
4305.279	3310
4306.799	3341
4308.321	3328
4309.842	3303
4311.361	3298
4312.882	3256
4314.401	3251
