400.0961	5768
402.6185	5666
405.1424	5698
407.6635	5691
410.1838	5642
412.7035	5695
415.2225	5772
417.7388	5772
420.2585	5806
422.7754	5848
425.2917	5974
427.8072	5821
430.3221	5913
432.8363	5916
435.3498	6095
437.8626	5982
440.3727	6082
442.8841	6061
445.3969	6021
447.907	6105
450.4142	6109
452.9229	5919
455.4289	6083
457.9362	6043
460.4449	6000
462.9488	6035
465.454	5992
467.9566	6013
470.4604	6016
472.9637	6135
475.4662	6138
477.966	6146
480.4671	6011
482.9656	6058
485.4633	6245
487.9645	6148
490.4608	6199
492.9566	6220
495.4536	6298
497.948	6274
500.4437	6200
502.9387	6184
505.431	6225
507.9226	6353
510.4136	6389
512.9079	6272
515.3975	6314
517.8864	6358
520.3746	6320
522.8622	6371
525.3491	6405
527.8394	6404
530.3249	6304
532.8098	6351
535.2939	6331
537.7774	6223
540.2623	6343
542.7444	6486
545.2259	6416
547.7067	6388
550.1868	6351
552.6683	6358
555.147	6402
557.6231	6368
560.1005	6307
562.5773	6433
565.0534	6417
567.5308	6401
570.0056	6460
572.4776	6535
574.951	6519
577.4237	6571
579.8978	6562
582.3671	6575
584.8378	6559
587.3079	6684
589.7773	6638
592.244	6563
594.714	6573
597.1793	6552
599.6461	6524
602.1121	6531
604.5754	6608
607.0421	6643
609.5042	6580
611.9675	6571
614.4282	6635
616.8902	6590
619.3515	6570
621.8122	6476
624.2702	6658
626.7296	6729
629.1863	6494
631.6423	6715
634.1017	6600
636.5563	6575
639.0104	6605
641.4658	6610
643.9185	6576
646.3725	6630
648.8239	6692
651.2766	6598
653.7266	6589
656.176	6814
658.6247	6681
661.0748	6545
663.5242	6554
665.9709	6772
668.417	6751
670.8624	6697
673.3092	6859
675.7533	6757
678.1968	6667
680.6395	6667
683.0817	6924
685.5251	6774
687.9659	6755
690.4061	6802
692.8456	6793
695.2844	6721
697.7226	6883
700.1621	6876
702.599	7007
705.0332	6892
707.4688	6953
709.9036	6927
712.3399	6862
714.7735	7063
717.2044	6872
719.6367	6935
722.0683	6936
724.4993	6930
726.9296	7062
729.3593	6950
731.7883	6960
734.2147	7023
736.6423	6997
739.0714	7118
741.4958	7179
743.9216	7159
746.3447	7176
748.7691	7084
751.1929	7075
753.616	7238
756.0366	7230
758.4584	7232
760.8776	7255
763.2982	7296
765.718	7194
768.1373	7353
770.5539	7351
772.9698	7431
775.3871	7165
777.8038	7343
780.2178	7345
782.6332	7376
785.0459	7324
787.458	7515
789.8714	7336
792.2842	7324
794.6943	7312
797.1038	7327
799.5127	7298
801.9209	7456
804.3324	7463
806.7393	7422
809.1456	7478
811.5513	7381
813.9562	7356
816.3625	7458
818.7663	7439
821.1693	7404
823.5718	7375
825.9735	7345
828.3746	7376
830.7771	7393
833.177	7386
835.5762	7483
837.9747	7388
840.3727	7432
842.772	7453
845.1666	7414
847.5626	7510
849.958	7621
852.3527	7510
854.7488	7603
857.1403	7652
859.5331	7515
861.9253	7600
864.3168	7593
866.7057	7681
869.098	7637
871.4876	7672
873.8746	7478
876.263	7517
878.6487	7567
881.0378	7484
883.4243	7518
885.8081	7593
888.1933	7632
890.5759	7447
892.9598	7614
895.343	7535
897.7256	7756
900.1057	7526
902.4871	7603
904.8659	7609
907.246	7664
909.6254	7588
912.0023	7709
914.3786	7797
916.7562	7957
919.1331	7908
921.5074	7976
923.8831	8095
926.2562	7971
928.6287	8117
931.0005	7999
933.3757	7970
935.7462	7985
938.1162	8010
940.4855	7996
942.8542	7926
945.2242	8160
947.5916	8076
949.9584	8213
952.3266	8492
954.6921	8619
957.0571	8577
959.4233	8896
961.787	9030
964.15	8766
966.5125	8765
968.8742	8682
971.2354	8322
973.5959	8335
975.9559	8184
978.3151	8090
980.6738	8133
983.0338	8060
985.3912	7973
987.7461	7983
990.1022	7905
992.4578	7892
994.8127	7876
997.1689	7875
999.5207	8014
1001.874	7940
1004.226	7892
1006.576	7853
1008.929	7868
1011.28	7862
1013.628	7771
1015.977	7914
1018.324	7883
1020.674	7868
1023.019	7923
1025.366	7853
1027.713	7894
1030.056	7764
1032.399	7947
1034.746	7872
1037.087	8064
1039.431	7973
1041.771	7857
1044.113	8040
1046.454	7943
1048.793	7969
1051.133	8073
1053.471	8172
1055.807	7996
1058.146	7877
1060.483	7966
1062.818	7979
1065.153	8089
1067.489	8122
1069.822	8052
1072.156	8056
1074.488	8059
1076.82	8237
1079.15	8088
1081.48	8096
1083.814	7977
1086.143	8131
1088.471	7952
1090.799	8005
1093.126	7954
1095.452	7899
1097.78	8128
1100.105	7999
1102.43	8095
1104.754	8081
1107.077	8073
1109.4	8084
1111.722	7975
1114.044	8060
1116.365	8069
1118.685	8072
1121.005	7948
1123.324	8168
1125.643	8209
1127.961	8173
1130.278	8154
1132.595	8060
1134.911	8170
1137.226	8018
1139.541	8082
1141.854	8216
1144.167	8045
1146.482	7902
1148.793	8109
1151.105	8186
1153.414	8154
1155.725	8172
1158.033	8032
1160.344	8206
1162.651	8314
1164.959	8182
1167.265	8108
1169.572	8177
1171.878	8250
1174.184	8075
1176.488	8336
1178.79	8187
1181.094	8294
1183.396	8247
1185.699	8090
1188.001	8146
1190.301	8086
1192.6	8164
1194.9	8069
1197.2	8012
1199.497	8185
1201.794	8273
1204.09	8209
1206.387	8088
1208.684	8090
1210.978	8213
1213.272	8183
1215.565	8109
1217.858	8255
1220.15	8247
1222.443	8294
1224.734	8211
1227.024	8314
1229.313	8090
1231.602	8254
1233.892	8276
1236.18	8216
1238.467	8353
1240.754	8343
1243.04	8468
1245.325	8454
1247.612	8401
1249.896	8413
1252.178	8309
1254.461	8361
1256.743	8490
1259.027	8472
1261.308	8512
1263.587	8424
1265.867	8384
1268.146	8419
1270.425	8594
1272.703	8448
1274.981	8600
1277.256	8495
1279.532	8506
1281.808	8472
1284.083	8291
1286.358	8390
1288.63	8369
1290.904	8378
1293.175	8393
1295.449	8403
1297.719	8219
1299.99	8297
1302.259	8335
1304.529	8390
1306.798	8399
1309.065	8529
1311.333	8404
1313.599	8377
1315.866	8414
1318.131	8423
1320.396	8254
1322.66	8273
1324.925	8445
1327.187	8412
1329.448	8488
1331.711	8595
1333.974	8526
1336.234	8317
1338.493	8497
1340.752	8507
1343.01	8282
1345.269	8247
1347.526	8447
1349.784	8349
1352.04	8346
1354.295	8242
1356.552	8376
1358.806	8340
1361.059	8371
1363.312	8341
1365.564	8410
1367.818	8528
1370.069	8493
1372.318	8396
1374.568	8448
1376.817	8503
1379.066	8399
1381.316	8343
1383.564	8484
1385.809	8370
1388.056	8418
1390.301	8562
1392.549	8635
1394.793	8745
1397.036	8727
1399.279	8789
1401.522	8779
1403.763	8850
1406.007	8805
1408.248	8670
1410.487	8714
1412.727	8786
1414.965	8657
1417.205	8681
1419.442	8724
1421.68	8663
1423.915	8727
1426.152	8662
1428.388	8648
1430.623	8658
1432.857	8801
1435.091	8768
1437.323	8729
1439.556	8779
1441.789	8941
1444.019	8674
1446.25	8834
1448.48	8796
1450.708	8760
1452.938	8819
1455.167	8709
1457.394	8781
1459.62	8863
1461.846	8751
1464.073	8784
1466.299	8719
1468.523	8632
1470.746	8647
1472.969	8646
1475.191	8708
1477.415	8574
1479.636	8437
1481.858	8442
1484.078	8617
1486.298	8518
1488.518	8457
1490.736	8537
1492.954	8582
1495.169	8362
1497.386	8381
1499.602	8496
1501.819	8407
1504.034	8441
1506.248	8431
1508.462	8353
1510.675	8410
1512.888	8374
1515.1	8338
1517.311	8400
1519.522	8434
1521.732	8407
1523.942	8396
1526.151	8400
1528.36	8503
1530.566	8495
1532.773	8356
1534.98	8550
1537.187	8542
1539.392	8530
1541.596	8492
1543.801	8420
1546.005	8538
1548.208	8427
1550.411	8486
1552.612	8461
1554.814	8547
1557.013	8508
1559.212	8494
1561.414	8539
1563.612	8572
1565.811	8510
1568.007	8643
1570.203	8620
1572.403	8534
1574.598	8578
1576.792	8485
1578.988	8632
1581.181	8564
1583.376	8722
1585.568	8589
1587.761	8531
1589.952	8650
1592.143	8622
1594.333	8514
1596.524	8618
1598.715	8619
1600.903	8755
1603.091	8725
1605.278	8904
1607.466	8768
1609.652	8653
1611.838	8820
1614.023	8727
1616.207	8750
1618.391	8692
1620.576	8814
1622.759	8671
1624.941	8768
1627.123	8718
1629.304	8800
1631.484	8658
1633.664	8854
1635.844	8862
1638.022	8634
1640.201	8740
1642.38	8676
1644.556	8714
1646.732	8769
1648.908	8713
1651.084	8808
1653.257	8761
1655.433	8789
1657.607	8603
1659.779	8905
1661.951	8680
1664.122	8732
1666.295	8907
1668.467	8924
1670.635	8727
1672.805	8879
1674.973	8861
1677.142	8812
1679.31	8727
1681.478	8765
1683.644	8928
1685.81	8907
1687.975	8816
1690.142	8772
1692.305	8830
1694.468	8652
1696.632	8837
1698.794	8723
1700.957	8694
1703.119	8705
1705.279	8806
1707.439	8740
1709.598	8635
1711.758	8597
1713.917	8704
1716.075	8831
1718.231	8609
1720.388	8754
1722.543	8613
1724.702	8716
1726.856	8619
1729.01	8611
1731.164	8656
1733.317	8745
1735.471	8707
1737.623	8723
1739.774	8655
1741.925	8533
1744.075	8593
1746.225	8733
1748.376	8587
1750.524	8790
1752.672	8690
1754.82	8598
1756.965	8770
1759.113	8613
1761.259	8729
1763.405	8739
1765.549	8782
1767.694	8679
1769.836	8687
1771.981	8756
1774.123	8828
1776.264	8739
1778.405	8742
1780.546	8864
1782.687	8692
1784.827	8828
1786.966	8812
1789.103	8810
1791.242	8860
1793.381	8774
1795.517	8698
1797.653	8880
1799.788	8817
1801.923	8746
1804.057	8836
1806.193	8766
1808.326	8795
1810.457	8832
1812.59	8704
1814.721	8900
1816.855	8683
1818.984	8809
1821.113	8640
1823.244	8731
1825.372	8710
1827.499	8822
1829.63	8647
1831.756	8664
1833.882	8677
1836.007	8608
1838.132	8684
1840.26	8610
1842.384	8650
1844.507	8631
1846.63	8824
1848.752	8684
1850.875	8656
1852.996	8769
1855.118	8708
1857.238	8638
1859.358	8693
1861.477	8598
1863.597	8798
1865.715	8558
1867.832	8570
1869.948	8575
1872.064	8605
1874.181	8619
1876.297	8628
1878.411	8666
1880.526	8681
1882.639	8660
1884.752	8632
1886.865	8742
1888.977	8585
1891.089	8644
1893.2	8684
1895.308	8731
1897.42	8657
1899.53	8764
1901.639	8723
1903.745	8628
1905.853	8861
1907.962	8697
1910.067	8791
1912.174	8671
1914.278	8810
1916.383	8832
1918.486	8789
1920.592	8898
1922.694	8832
1924.797	8744
1926.898	8719
1929	8768
1931.102	8652
1933.203	8726
1935.301	8823
1937.401	8663
1939.499	8760
1941.598	8947
1943.697	8705
1945.793	8840
1947.888	8810
1949.985	8765
1952.08	8763
1954.176	8765
1956.269	8700
1958.364	8760
1960.457	8752
1962.549	8695
1964.642	8783
1966.733	8802
1968.823	8728
1970.913	8740
1973.005	8719
1975.093	8810
1977.184	8787
1979.271	8838
1981.359	8820
1983.446	8712
1985.532	8791
1987.619	8697
1989.705	8654
1991.789	8577
1993.874	8617
1995.956	8646
1998.041	8825
2000.123	8605
2002.206	8767
2004.287	8687
2006.368	8624
2008.449	8755
2010.529	8769
2012.609	8582
2014.688	8599
2016.766	8642
2018.843	8674
2020.922	8602
2022.999	8642
2025.074	8661
2027.15	8768
2029.225	8507
2031.299	8671
2033.375	8743
2035.447	8624
2037.52	8657
2039.592	8592
2041.664	8760
2043.736	8669
2045.807	8752
2047.876	8798
2049.947	8596
2052.015	8587
2054.086	8737
2056.153	8761
2058.221	8592
2060.288	8719
2062.353	8705
2064.42	8624
2066.486	8647
2068.55	8683
2070.614	8676
2072.678	8599
2074.741	8755
2076.805	8613
2078.866	8682
2080.929	8703
2082.99	8516
2085.049	8757
2087.109	8654
2089.17	8701
2091.228	8642
2093.286	8594
2095.344	8700
2097.4	8727
2099.46	8528
2101.516	8569
2103.572	8704
2105.626	8799
2107.679	8632
2109.735	8639
2111.788	8609
2113.841	8569
2115.894	8611
2117.945	8626
2119.997	8572
2122.049	8654
2124.1	8623
2126.148	8692
2128.197	8573
2130.246	8655
2132.296	8571
2134.342	8773
2136.39	8615
2138.437	8560
2140.483	8794
2142.527	8763
2144.574	8516
2146.619	8567
2148.661	8800
2150.705	8523
2152.747	8703
2154.792	8598
2156.832	8643
2158.874	8608
2160.915	8550
2162.954	8639
2164.995	8574
2167.034	8511
2169.072	8573
2171.111	8658
2173.148	8443
2175.186	8430
2177.223	8549
2179.258	8460
2181.294	8566
2183.328	8554
2185.362	8527
2187.398	8533
2189.431	8355
2191.463	8560
2193.495	8404
2195.528	8460
2197.56	8503
2199.59	8464
2201.62	8294
2203.649	8485
2205.678	8547
2207.708	8460
2209.737	8421
2211.764	8547
2213.791	8363
2215.817	8506
2217.843	8370
2219.87	8286
2221.895	8412
2223.919	8397
2225.942	8397
2227.966	8371
2229.988	8323
2232.012	8444
2234.032	8430
2236.054	8436
2238.074	8315
2240.095	8470
2242.116	8283
2244.135	8357
2246.153	8457
2248.171	8342
2250.188	8354
2252.208	8354
2254.223	8464
2256.239	8476
2258.255	8413
2260.269	8216
2262.283	8401
2264.3	8298
2266.312	8327
2268.325	8290
2270.336	8364
2272.349	8377
2274.362	8362
2276.372	8441
2278.383	8354
2280.392	8269
2282.402	8389
2284.409	8439
2286.418	8351
2288.427	8467
2290.433	8106
2292.441	8429
2294.446	8336
2296.453	8387
2298.459	8341
2300.463	8341
2302.466	8404
2304.471	8237
2306.475	8318
2308.477	8346
2310.478	8327
2312.481	8381
2314.481	8212
2316.481	8202
2318.482	8385
2320.482	8425
2322.48	8299
2324.48	8129
2326.478	8425
2328.476	8336
2330.473	8205
2332.469	8188
2334.465	8235
2336.46	8184
2338.454	8277
2340.45	8292
2342.444	8246
2344.437	8112
2346.43	8252
2348.421	8252
2350.414	8282
2352.405	8031
2354.396	8220
2356.386	8185
2358.376	8122
2360.366	8139
2362.355	8202
2364.343	8133
2366.331	8177
2368.317	8140
2370.304	8176
2372.292	8026
2374.278	8059
2376.262	8075
2378.247	8215
2380.23	8152
2382.216	8196
2384.199	8143
2386.181	8123
2388.163	8070
2390.144	8074
2392.127	8188
2394.107	8087
2396.087	7989
2398.066	8055
2400.046	8130
2402.023	8074
2404.004	7949
2405.981	8077
2407.957	8132
2409.934	8062
2411.91	8046
2413.886	8069
2415.862	8082
2417.836	7971
2419.809	8089
2421.784	8058
2423.756	8136
2425.73	7991
2427.701	7927
2429.672	8127
2431.644	8127
2433.615	8019
2435.586	8027
2437.555	8050
2439.523	8040
2441.491	8074
2443.459	8011
2445.428	8046
2447.395	7888
2449.361	8068
2451.327	8092
2453.292	7946
2455.257	7961
2457.223	7926
2459.187	7877
2461.15	8046
2463.113	7938
2465.076	7940
2467.039	7964
2468.999	8049
2470.96	7810
2472.921	7792
2474.881	7911
2476.841	7954
2478.8	7923
2480.759	8010
2482.717	7839
2484.675	7968
2486.63	7802
2488.589	8027
2490.545	7959
2492.5	7849
2494.455	7780
2496.408	7769
2498.364	7990
2500.318	7842
2502.27	7881
2504.223	7877
2506.174	7906
2508.126	7941
2510.078	7819
2512.03	7849
2513.979	7809
2515.927	7911
2517.877	7868
2519.826	7827
2521.775	7799
2523.722	7911
2525.668	7896
2527.616	7766
2529.561	7799
2531.508	7814
2533.452	7813
2535.398	7786
2537.342	7727
2539.284	7736
2541.229	7791
2543.173	7736
2545.114	7806
2547.055	7810
2548.996	7819
2550.938	7809
2552.878	7801
2554.817	7877
2556.756	7848
2558.695	7864
2560.633	7727
2562.572	7789
2564.509	7903
2566.445	7844
2568.382	7777
2570.317	7847
2572.254	7754
2574.189	7888
2576.123	7619
2578.057	7834
2579.99	7728
2581.923	7948
2583.855	7790
2585.788	7836
2587.719	7669
2589.65	7763
2591.579	7755
2593.511	7820
2595.44	7904
2597.37	7834
2599.297	7819
2601.225	7749
2603.153	7806
2605.08	7760
2607.007	7761
2608.932	7885
2610.858	7827
2612.782	7697
2614.709	7729
2616.632	7832
2618.556	7851
2620.478	7664
2622.401	7889
2624.324	7780
2626.247	7721
2628.167	7861
2630.088	7827
2632.008	7788
2633.928	7828
2635.848	7783
2637.766	7818
2639.684	7779
2641.603	7682
2643.519	7751
2645.437	7869
2647.353	7763
2649.27	7734
2651.184	7775
2653.099	7775
2655.014	7928
2656.928	7750
2658.842	7848
2660.755	7827
2662.667	7816
2664.579	7727
2666.491	7822
2668.402	7650
2670.312	7695
2672.222	7810
2674.132	7725
2676.042	7752
2677.951	7681
2679.859	7764
2681.766	7777
2683.674	7724
2685.582	7611
2687.488	7653
2689.392	7692
2691.298	7802
2693.202	7617
2695.107	7697
2697.012	7742
2698.914	7668
2700.817	7781
2702.72	7607
2704.622	7600
2706.524	7617
2708.425	7585
2710.326	7596
2712.225	7588
2714.125	7599
2716.024	7569
2717.923	7605
2719.822	7582
2721.719	7622
2723.616	7728
2725.512	7718
2727.41	7616
2729.305	7609
2731.201	7481
2733.095	7700
2734.99	7568
2736.884	7522
2738.778	7558
2740.67	7608
2742.562	7604
2744.455	7642
2746.346	7509
2748.238	7561
2750.129	7519
2752.018	7525
2753.907	7652
2755.797	7608
2757.687	7481
2759.575	7571
2761.462	7527
2763.349	7588
2765.237	7562
2767.124	7567
2769.009	7552
2770.894	7481
2772.779	7509
2774.663	7688
2776.547	7588
2778.431	7531
2780.314	7457
2782.197	7528
2784.078	7621
2785.96	7404
2787.842	7643
2789.723	7627
2791.603	7459
2793.483	7492
2795.362	7442
2797.241	7530
2799.121	7504
2800.997	7436
2802.874	7481
2804.751	7408
2806.628	7430
2808.506	7489
2810.38	7435
2812.255	7449
2814.13	7460
2816.003	7478
2817.878	7456
2819.752	7581
2821.623	7440
2823.496	7319
2825.368	7526
2827.238	7455
2829.111	7477
2830.98	7451
2832.851	7425
2834.719	7499
2836.589	7531
2838.458	7493
2840.327	7351
2842.193	7396
2844.061	7485
2845.927	7473
2847.794	7585
2849.66	7602
2851.525	7510
2853.39	7672
2855.254	7462
2857.117	7609
2858.983	7730
2860.845	7644
2862.707	7547
2864.569	7753
2866.431	7472
2868.293	7736
2870.154	7670
2872.013	7871
2873.873	7790
2875.733	7963
2877.592	7807
2879.451	7841
2881.309	7980
2883.166	8072
2885.022	8029
2886.879	8047
2888.736	8096
2890.591	8155
2892.446	8231
2894.301	8245
2896.155	8221
2898.009	8281
2899.863	8174
2901.716	8211
2903.568	8088
2905.419	8103
2907.27	8151
2909.123	8123
2910.973	8161
2912.824	8225
2914.673	8179
2916.521	8164
2918.372	8250
2920.22	8191
2922.067	8218
2923.914	8266
2925.761	8495
2927.607	8481
2929.455	8416
2931.301	8456
2933.144	8505
2934.99	8553
2936.833	8504
2938.678	8588
2940.522	8686
2942.364	8811
2944.207	8915
2946.048	8909
2947.891	9094
2949.731	9090
2951.571	9098
2953.412	9058
2955.25	9039
2957.09	8946
2958.93	8872
2960.767	8839
2962.606	8670
2964.443	8843
2966.279	8700
2968.116	8563
2969.953	8535
2971.788	8286
2973.623	8319
2975.457	8177
2977.292	8210
2979.127	8069
2980.959	8045
2982.792	7772
2984.624	7953
2986.455	7895
2988.288	7912
2990.119	7780
2991.949	7900
2993.779	7592
2995.608	7643
2997.439	7736
2999.268	7512
3001.096	7563
3002.923	7496
3004.751	7522
3006.578	7311
3008.406	7420
3010.232	7327
3012.057	7286
3013.883	7320
3015.706	7301
3017.532	7129
3019.356	7252
3021.179	7227
3023.002	7234
3024.823	7158
3026.646	7238
3028.469	7055
3030.289	7010
3032.11	7006
3033.93	7087
3035.749	7056
3037.57	7073
3039.39	7090
3041.207	7034
3043.026	7027
3044.842	6993
3046.661	6951
3048.477	7064
3050.294	6995
3052.109	7064
3053.925	7031
3055.739	6955
3057.555	7086
3059.368	7014
3061.181	6919
3062.995	7002
3064.807	6992
3066.62	6970
3068.433	6994
3070.243	6970
3072.054	7066
3073.865	6932
3075.675	6751
3077.485	6967
3079.293	6983
3081.102	6931
3082.911	6902
3084.719	6854
3086.527	6886
3088.333	6927
3090.139	6824
3091.945	6878
3093.75	6881
3095.557	6746
3097.361	6910
3099.165	6802
3100.969	6828
3102.772	6818
3104.575	6794
3106.379	6770
3108.181	6766
3109.982	6742
3111.783	6697
3113.584	6835
3115.386	6637
3117.186	6681
3118.985	6696
3120.783	6642
3122.582	6678
3124.381	6700
3126.179	6577
3127.975	6681
3129.772	6635
3131.569	6718
3133.365	6621
3135.161	6694
3136.956	6572
3138.751	6473
3140.544	6696
3142.338	6676
3144.132	6594
3145.925	6548
3147.717	6647
3149.509	6490
3151.301	6534
3153.091	6576
3154.884	6711
3156.673	6447
3158.462	6517
3160.252	6675
3162.041	6541
3163.831	6649
3165.618	6483
3167.405	6578
3169.193	6452
3170.979	6598
3172.767	6606
3174.553	6519
3176.338	6474
3178.123	6503
3179.907	6402
3181.692	6500
3183.477	6402
3185.259	6501
3187.042	6472
3188.824	6453
3190.607	6526
3192.389	6405
3194.17	6502
3195.951	6405
3197.73	6532
3199.51	6540
3201.289	6499
3203.07	6321
3204.848	6401
3206.626	6366
3208.403	6477
3210.18	6340
3211.959	6514
3213.735	6448
3215.511	6389
3217.285	6495
3219.06	6384
3220.836	6426
3222.611	6501
3224.384	6378
3226.158	6423
3227.929	6457
3229.702	6463
3231.476	6384
3233.248	6425
3235.018	6430
3236.789	6356
3238.56	6467
3240.33	6348
3242.1	6453
3243.869	6399
3245.637	6534
3247.405	6402
3249.172	6470
3250.941	6411
3252.707	6435
3254.474	6441
3256.24	6375
3258.006	6337
3259.772	6398
3261.537	6382
3263.301	6310
3265.065	6400
3266.828	6514
3268.592	6451
3270.355	6353
3272.117	6318
3273.878	6433
3275.64	6259
3277.401	6334
3279.162	6370
3280.922	6346
3282.682	6336
3284.441	6288
3286.199	6387
3287.959	6364
3289.716	6268
3291.475	6310
3293.232	6434
3294.988	6314
3296.744	6317
3298.501	6386
3300.256	6232
3302.011	6362
3303.766	6384
3305.52	6316
3307.275	6327
3309.028	6308
3310.781	6357
3312.533	6336
3314.285	6278
3316.038	6385
3317.789	6213
3319.54	6123
3321.289	6240
3323.039	6267
3324.789	6268
3326.539	6179
3328.288	6244
3330.035	6300
3331.783	6243
3333.531	6148
3335.28	6216
3337.025	6183
3338.771	6125
3340.518	6249
3342.262	6195
3344.009	6317
3345.753	6207
3347.497	6178
3349.24	6187
3350.983	6188
3352.726	6152
3354.469	6175
3356.212	6205
3357.952	6189
3359.694	6154
3361.434	6233
3363.176	6161
3364.916	6074
3366.654	6142
3368.394	6055
3370.132	6152
3371.871	6057
3373.61	6152
3375.346	6117
3377.083	6031
3378.82	6084
3380.556	6116
3382.292	6080
3384.027	6045
3385.763	6082
3387.497	5952
3389.231	6089
3390.965	6026
3392.698	6138
3394.431	6054
3396.164	5990
3397.896	6030
3399.627	5971
3401.36	6089
3403.09	6043
3404.82	6109
3406.55	6137
3408.279	6000
3410.01	6045
3411.738	5950
3413.467	5889
3415.194	6062
3416.92	6113
3418.647	6057
3420.375	5995
3422.102	5953
3423.827	6062
3425.553	6002
3427.277	5972
3429.003	6083
3430.727	5902
3432.451	5984
3434.173	5927
3435.896	5951
3437.62	6001
3439.343	5897
3441.063	5863
3442.785	5853
3444.505	5871
3446.226	5918
3447.948	5933
3449.666	5867
3451.386	5751
3453.104	5865
3454.823	5791
3456.541	5780
3458.259	5822
3459.976	5798
3461.693	5772
3463.408	5926
3465.125	5761
3466.841	5743
3468.556	5800
3470.271	5679
3471.985	5592
3473.698	5780
3475.414	5796
3477.126	5605
3478.838	5722
3480.55	5675
3482.263	5600
3483.975	5740
3485.686	5691
3487.396	5697
3489.106	5569
3490.817	5587
3492.526	5642
3494.236	5719
3495.944	5596
3497.652	5609
3499.359	5702
3501.066	5526
3502.775	5579
3504.481	5627
3506.187	5614
3507.893	5574
3509.598	5568
3511.304	5581
3513.009	5542
3514.713	5584
3516.417	5475
3518.12	5519
3519.821	5574
3521.525	5505
3523.228	5500
3524.929	5447
3526.631	5547
3528.33	5449
3530.032	5408
3531.733	5494
3533.433	5435
3535.131	5486
3536.83	5486
3538.529	5501
3540.227	5433
3541.925	5410
3543.623	5332
3545.319	5498
3547.016	5427
3548.712	5416
3550.408	5406
3552.103	5388
3553.798	5282
3555.491	5405
3557.188	5311
3558.88	5515
3560.574	5307
3562.266	5480
3563.959	5506
3565.651	5376
3567.343	5398
3569.035	5310
3570.725	5357
3572.415	5399
3574.106	5285
3575.797	5407
3577.485	5284
3579.174	5327
3580.863	5293
3582.551	5412
3584.238	5309
3585.926	5253
3587.613	5302
3589.3	5256
3590.986	5270
3592.671	5315
3594.357	5191
3596.042	5299
3597.726	5238
3599.41	5317
3601.094	5162
3602.778	5188
3604.461	5270
3606.143	5213
3607.825	5231
3609.507	5082
3611.188	5127
3612.87	5174
3614.551	5087
3616.229	5146
3617.909	5173
3619.589	5139
3621.269	5120
3622.948	5052
3624.625	5119
3626.302	5195
3627.98	5099
3629.657	5027
3631.334	5023
3633.01	5020
3634.686	5108
3636.361	5037
3638.036	4959
3639.712	5036
3641.385	5008
3643.06	5070
3644.732	4958
3646.405	5045
3648.08	5027
3649.751	5106
3651.424	4955
3653.094	4918
3654.766	5088
3656.436	4938
3658.106	5043
3659.777	4942
3661.446	4940
3663.115	4928
3664.783	4824
3666.452	4952
3668.121	4884
3669.788	4984
3671.454	4948
3673.121	4882
3674.789	4987
3676.455	4973
3678.12	4930
3679.784	4846
3681.45	4840
3683.114	4915
3684.779	4910
3686.442	4894
3688.105	4910
3689.768	4972
3691.43	4956
3693.093	4843
3694.754	4892
3696.415	4827
3698.076	4861
3699.736	4861
3701.396	4806
3703.057	4864
3704.716	4892
3706.375	4935
3708.034	4855
3709.692	4830
3711.351	4822
3713.008	4797
3714.665	4869
3716.321	4801
3717.977	4880
3719.634	4841
3721.29	4873
3722.945	4891
3724.598	4880
3726.253	4819
3727.907	4791
3729.561	4802
3731.214	4737
3732.867	4713
3734.518	4878
3736.171	4688
3737.824	4709
3739.474	4760
3741.125	4725
3742.775	4746
3744.425	4843
3746.074	4757
3747.725	4697
3749.373	4782
3751.022	4725
3752.669	4660
3754.318	4809
3755.966	4680
3757.612	4640
3759.259	4672
3760.905	4769
3762.55	4649
3764.197	4720
3765.842	4616
3767.486	4800
3769.131	4656
3770.774	4762
3772.417	4573
3774.061	4705
3775.705	4568
3777.347	4657
3778.988	4576
3780.629	4690
3782.271	4730
3783.912	4613
3785.552	4616
3787.192	4567
3788.831	4657
3790.472	4624
3792.112	4637
3793.75	4625
3795.388	4588
3797.024	4630
3798.661	4562
3800.3	4643
3801.936	4544
3803.572	4541
3805.208	4564
3806.844	4523
3808.48	4554
3810.115	4459
3811.748	4519
3813.382	4598
3815.016	4577
3816.649	4493
3818.283	4438
3819.914	4561
3821.547	4476
3823.178	4358
3824.809	4544
3826.441	4530
3828.072	4424
3829.701	4479
3831.331	4537
3832.96	4517
3834.591	4474
3836.219	4402
3837.847	4520
3839.475	4442
3841.102	4419
3842.729	4453
3844.357	4472
3845.984	4417
3847.609	4310
3849.234	4352
3850.86	4406
3852.485	4422
3854.11	4396
3855.734	4451
3857.357	4366
3858.981	4358
3860.603	4452
3862.227	4445
3863.848	4452
3865.471	4402
3867.092	4518
3868.713	4384
3870.334	4377
3871.954	4441
3873.575	4395
3875.194	4339
3876.813	4280
3878.433	4231
3880.051	4366
3881.669	4309
3883.286	4301
3884.904	4305
3886.52	4354
3888.138	4364
3889.754	4388
3891.37	4334
3892.985	4368
3894.6	4314
3896.216	4420
3897.831	4263
3899.444	4321
3901.058	4313
3902.67	4216
3904.283	4272
3905.897	4249
3907.509	4403
3909.121	4262
3910.731	4213
3912.342	4297
3913.954	4282
3915.563	4268
3917.174	4253
3918.783	4240
3920.391	4296
3922.002	4224
3923.611	4222
3925.218	4208
3926.826	4243
3928.432	4221
3930.039	4254
3931.647	4277
3933.253	4297
3934.859	4279
3936.464	4181
3938.068	4202
3939.675	4288
3941.278	4197
3942.883	4228
3944.486	4132
3946.089	4277
3947.692	4276
3949.295	4317
3950.898	4189
3952.499	4235
3954.1	4181
3955.7	4140
3957.303	4128
3958.903	4232
3960.502	4203
3962.101	4162
3963.7	4072
3965.301	4118
3966.899	4172
3968.497	4114
3970.094	4098
3971.691	4109
3973.288	4094
3974.885	4160
3976.481	4148
3978.077	4171
3979.672	4134
3981.267	4157
3982.863	4110
3984.457	4098
3986.051	3966
3987.645	4055
3989.238	4099
3990.831	4107
3992.425	4145
3994.017	4058
3995.607	4104
3997.199	4056
3998.79	4028
4000.382	4014
4001.973	4022
4003.561	4048
4005.151	4045
4006.741	4035
4008.331	4080
4009.918	4036
4011.507	4002
4013.095	3971
4014.681	3978
4016.269	4005
4017.856	4067
4019.443	3978
4021.028	4011
4022.614	3970
4024.199	3960
4025.785	4032
4027.37	3931
4028.953	3935
4030.536	3923
4032.12	3920
4033.704	3971
4035.287	3978
4036.869	3954
4038.45	3877
4040.032	3965
4041.613	3849
4043.195	3845
4044.776	3893
4046.356	3913
4047.935	3857
4049.515	3923
4051.095	3836
4052.674	3887
4054.251	3959
4055.829	3845
4057.406	3860
4058.985	3926
4060.562	3858
4062.139	3801
4063.715	3774
4065.29	3784
4066.865	3862
4068.442	3829
4070.016	3804
4071.59	3868
4073.164	3782
4074.738	3818
4076.312	3776
4077.885	3816
4079.458	3785
4081.03	3846
4082.602	3808
4084.173	3717
4085.745	3839
4087.315	3852
4088.886	3770
4090.456	3742
4092.026	3769
4093.596	3753
4095.165	3768
4096.734	3810
4098.301	3802
4099.869	3723
4101.437	3827
4103.006	3734
4104.572	3737
4106.139	3797
4107.704	3681
4109.27	3743
4110.837	3824
4112.401	3757
4113.966	3784
4115.53	3714
4117.094	3780
4118.659	3719
4120.223	3756
4121.785	3719
4123.347	3771
4124.909	3762
4126.471	3714
4128.034	3657
4129.595	3660
4131.155	3603
4132.716	3641
4134.275	3648
4135.836	3670
4137.395	3693
4138.955	3634
4140.513	3667
4142.071	3679
4143.628	3700
4145.188	3678
4146.745	3654
4148.302	3614
4149.858	3678
4151.414	3608
4152.971	3729
4154.526	3641
4156.081	3582
4157.635	3595
4159.189	3627
4160.745	3572
4162.298	3580
4163.852	3602
4165.405	3584
4166.957	3576
4168.51	3577
4170.063	3575
4171.614	3551
4173.166	3639
4174.717	3564
4176.267	3472
4177.817	3558
4179.368	3565
4180.917	3502
4182.466	3532
4184.016	3530
4185.564	3556
4187.112	3499
4188.66	3503
4190.207	3503
4191.754	3493
4193.301	3486
4194.848	3528
4196.394	3483
4197.94	3535
4199.484	3447
4201.03	3475
4202.575	3497
4204.12	3440
4205.663	3444
4207.207	3520
4208.75	3567
4210.292	3404
4211.836	3502
4213.378	3416
4214.92	3399
4216.46	3459
4218.002	3389
4219.544	3376
4221.083	3516
4222.625	3459
4224.164	3459
4225.703	3424
4227.244	3365
4228.782	3360
4230.32	3434
4231.857	3376
4233.395	3399
4234.933	3441
4236.471	3400
4238.007	3388
4239.542	3442
4241.078	3385
4242.614	3296
4244.15	3394
4245.685	3381
4247.219	3367
4248.753	3402
4250.287	3419
4251.82	3420
4253.354	3328
4254.887	3349
4256.419	3267
4257.951	3349
4259.483	3387
4261.016	3356
4262.547	3295
4264.078	3474
4265.608	3349
4267.137	3340
4268.668	3331
4270.197	3341
4271.727	3305
4273.254	3272
4274.783	3382
4276.311	3280
4277.84	3253
4279.366	3304
4280.894	3284
4282.42	3278
4283.946	3345
4285.473	3360
4286.998	3231
4288.523	3291
4290.047	3304
4291.572	3302
4293.096	3264
4294.622	3374
4296.144	3302
4297.668	3260
4299.19	3231
4300.713	3275
4302.236	3275
4303.758	3236
4305.279	3282
4306.799	3227
4308.321	3236
4309.842	3205
4311.361	3235
4312.882	3221
4314.401	3208
