400.0961	4323
402.6185	4385
405.1424	4440
407.6635	4272
410.1838	4323
412.7035	4362
415.2225	4351
417.7388	4389
420.2585	4478
422.7754	4516
425.2917	4583
427.8072	4526
430.3221	4566
432.8363	4680
435.3498	4636
437.8626	4662
440.3727	4637
442.8841	4682
445.3969	4660
447.907	4653
450.4142	4552
452.9229	4606
455.4289	4678
457.9362	4614
460.4449	4633
462.9488	4642
465.454	4585
467.9566	4492
470.4604	4642
472.9637	4649
475.4662	4632
477.966	4545
480.4671	4583
482.9656	4686
485.4633	4650
487.9645	4571
490.4608	4680
492.9566	4653
495.4536	4520
497.948	4681
500.4437	4702
502.9387	4676
505.431	4696
507.9226	4626
510.4136	4715
512.9079	4692
515.3975	4721
517.8864	4693
520.3746	4672
522.8622	4832
525.3491	4745
527.8394	4785
530.3249	4744
532.8098	4754
535.2939	4722
537.7774	4819
540.2623	4858
542.7444	4790
545.2259	4819
547.7067	4772
550.1868	4812
552.6683	4763
555.147	4738
557.6231	4689
560.1005	4838
562.5773	4800
565.0534	4844
567.5308	4813
570.0056	4875
572.4776	4917
574.951	4872
577.4237	4891
579.8978	4872
582.3671	5011
584.8378	5092
587.3079	5043
589.7773	4932
592.244	4945
594.714	5025
597.1793	5038
599.6461	4893
602.1121	4886
604.5754	4896
607.0421	5018
609.5042	4989
611.9675	4966
614.4282	4806
616.8902	4911
619.3515	4994
621.8122	4854
624.2702	4830
626.7296	4843
629.1863	4993
631.6423	4910
634.1017	4859
636.5563	4881
639.0104	4810
641.4658	4881
643.9185	4941
646.3725	4858
648.8239	4928
651.2766	4942
653.7266	4941
656.176	5070
658.6247	5065
661.0748	4958
663.5242	5045
665.9709	4969
668.417	4963
670.8624	5070
673.3092	5048
675.7533	4925
678.1968	5154
680.6395	5011
683.0817	4957
685.5251	5148
687.9659	5067
690.4061	5087
692.8456	5100
695.2844	5147
697.7226	5056
700.1621	5139
702.599	5101
705.0332	5081
707.4688	5226
709.9036	5254
712.3399	5072
714.7735	5211
717.2044	5123
719.6367	5139
722.0683	5261
724.4993	5187
726.9296	5207
729.3593	5277
731.7883	5231
734.2147	5295
736.6423	5218
739.0714	5362
741.4958	5259
743.9216	5296
746.3447	5343
748.7691	5413
751.1929	5374
753.616	5404
756.0366	5407
758.4584	5490
760.8776	5406
763.2982	5438
765.718	5489
768.1373	5483
770.5539	5435
772.9698	5405
775.3871	5433
777.8038	5513
780.2178	5497
782.6332	5476
785.0459	5509
787.458	5571
789.8714	5452
792.2842	5444
794.6943	5400
797.1038	5545
799.5127	5414
801.9209	5398
804.3324	5485
806.7393	5496
809.1456	5418
811.5513	5503
813.9562	5530
816.3625	5619
818.7663	5508
821.1693	5617
823.5718	5555
825.9735	5601
828.3746	5615
830.7771	5555
833.177	5595
835.5762	5591
837.9747	5696
840.3727	5607
842.772	5695
845.1666	5757
847.5626	5724
849.958	5620
852.3527	5704
854.7488	5695
857.1403	5819
859.5331	5746
861.9253	5701
864.3168	5632
866.7057	5610
869.098	5767
871.4876	5666
873.8746	5709
876.263	5717
878.6487	5659
881.0378	5654
883.4243	5576
885.8081	5721
888.1933	5695
890.5759	5684
892.9598	5612
895.343	5639
897.7256	5619
900.1057	5603
902.4871	5717
904.8659	5685
907.246	5727
909.6254	5729
912.0023	5776
914.3786	5903
916.7562	6033
919.1331	6345
921.5074	6184
923.8831	6153
926.2562	6187
928.6287	6168
931.0005	6177
933.3757	6220
935.7462	6084
938.1162	6089
940.4855	6221
942.8542	6271
945.2242	6190
947.5916	6335
949.9584	6445
952.3266	6569
954.6921	6904
957.0571	7132
959.4233	7356
961.787	7531
964.15	7491
966.5125	7375
968.8742	7027
971.2354	6707
973.5959	6368
975.9559	6373
978.3151	6172
980.6738	6130
983.0338	6009
985.3912	5932
987.7461	5914
990.1022	5952
992.4578	5808
994.8127	5918
997.1689	5901
999.5207	5978
1001.874	5961
1004.226	6052
1006.576	5951
1008.929	5923
1011.28	6008
1013.628	5952
1015.977	5979
1018.324	5984
1020.674	5877
1023.019	5889
1025.366	5940
1027.713	5997
1030.056	5999
1032.399	6117
1034.746	6133
1037.087	6034
1039.431	6081
1041.771	6018
1044.113	6081
1046.454	6099
1048.793	5998
1051.133	6130
1053.471	5995
1055.807	6157
1058.146	5948
1060.483	6017
1062.818	6158
1065.153	6131
1067.489	6075
1069.822	6112
1072.156	6224
1074.488	6179
1076.82	6221
1079.15	6124
1081.48	6155
1083.814	6130
1086.143	6068
1088.471	6081
1090.799	6018
1093.126	6038
1095.452	6094
1097.78	6132
1100.105	6132
1102.43	6015
1104.754	6121
1107.077	6218
1109.4	6120
1111.722	6068
1114.044	6121
1116.365	6114
1118.685	6006
1121.005	6071
1123.324	6029
1125.643	6138
1127.961	6107
1130.278	6184
1132.595	6055
1134.911	6109
1137.226	6104
1139.541	5999
1141.854	6037
1144.167	6023
1146.482	6090
1148.793	6048
1151.105	6014
1153.414	6090
1155.725	6121
1158.033	6090
1160.344	6118
1162.651	6078
1164.959	6011
1167.265	5985
1169.572	6052
1171.878	6021
1174.184	6237
1176.488	6110
1178.79	6185
1181.094	6167
1183.396	6188
1185.699	6057
1188.001	6137
1190.301	6130
1192.6	5931
1194.9	6081
1197.2	6099
1199.497	6108
1201.794	6108
1204.09	6088
1206.387	6066
1208.684	6092
1210.978	6120
1213.272	6139
1215.565	6089
1217.858	6137
1220.15	6256
1222.443	6324
1224.734	6277
1227.024	6282
1229.313	6164
1231.602	6291
1233.892	6268
1236.18	6302
1238.467	6442
1240.754	6327
1243.04	6403
1245.325	6471
1247.612	6384
1249.896	6484
1252.178	6491
1254.461	6473
1256.743	6461
1259.027	6563
1261.308	6472
1263.587	6459
1265.867	6492
1268.146	6440
1270.425	6545
1272.703	6400
1274.981	6478
1277.256	6469
1279.532	6462
1281.808	6513
1284.083	6385
1286.358	6361
1288.63	6434
1290.904	6377
1293.175	6487
1295.449	6291
1297.719	6427
1299.99	6338
1302.259	6294
1304.529	6372
1306.798	6374
1309.065	6404
1311.333	6458
1313.599	6431
1315.866	6296
1318.131	6385
1320.396	6410
1322.66	6349
1324.925	6502
1327.187	6392
1329.448	6575
1331.711	6425
1333.974	6369
1336.234	6387
1338.493	6412
1340.752	6381
1343.01	6330
1345.269	6401
1347.526	6492
1349.784	6383
1352.04	6409
1354.295	6317
1356.552	6312
1358.806	6361
1361.059	6426
1363.312	6374
1365.564	6386
1367.818	6321
1370.069	6435
1372.318	6418
1374.568	6386
1376.817	6434
1379.066	6529
1381.316	6353
1383.564	6510
1385.809	6510
1388.056	6514
1390.301	6539
1392.549	6663
1394.793	6746
1397.036	6810
1399.279	6919
1401.522	6852
1403.763	6761
1406.007	6612
1408.248	6825
1410.487	6833
1412.727	6924
1414.965	6736
1417.205	6861
1419.442	6742
1421.68	6729
1423.915	6659
1426.152	6697
1428.388	6684
1430.623	6712
1432.857	6684
1435.091	6785
1437.323	6742
1439.556	6783
1441.789	6808
1444.019	6672
1446.25	6704
1448.48	6763
1450.708	6864
1452.938	6984
1455.167	6933
1457.394	7025
1459.62	6824
1461.846	6933
1464.073	6754
1466.299	6796
1468.523	6771
1470.746	6596
1472.969	6568
1475.191	6516
1477.415	6583
1479.636	6529
1481.858	6441
1484.078	6413
1486.298	6462
1488.518	6392
1490.736	6299
1492.954	6352
1495.169	6354
1497.386	6479
1499.602	6387
1501.819	6393
1504.034	6243
1506.248	6234
1508.462	6394
1510.675	6348
1512.888	6273
1515.1	6317
1517.311	6353
1519.522	6435
1521.732	6410
1523.942	6447
1526.151	6193
1528.36	6342
1530.566	6371
1532.773	6356
1534.98	6407
1537.187	6360
1539.392	6271
1541.596	6391
1543.801	6403
1546.005	6426
1548.208	6440
1550.411	6501
1552.612	6425
1554.814	6499
1557.013	6446
1559.212	6420
1561.414	6514
1563.612	6477
1565.811	6320
1568.007	6534
1570.203	6448
1572.403	6557
1574.598	6463
1576.792	6503
1578.988	6544
1581.181	6571
1583.376	6544
1585.568	6577
1587.761	6540
1589.952	6584
1592.143	6614
1594.333	6644
1596.524	6601
1598.715	6596
1600.903	6658
1603.091	6488
1605.278	6678
1607.466	6543
1609.652	6577
1611.838	6492
1614.023	6636
1616.207	6545
1618.391	6572
1620.576	6509
1622.759	6641
1624.941	6642
1627.123	6641
1629.304	6686
1631.484	6702
1633.664	6653
1635.844	6622
1638.022	6733
1640.201	6827
1642.38	6625
1644.556	6710
1646.732	6693
1648.908	6802
1651.084	6685
1653.257	6789
1655.433	6805
1657.607	6699
1659.779	6714
1661.951	6781
1664.122	6714
1666.295	6718
1668.467	6884
1670.635	6747
1672.805	6860
1674.973	6786
1677.142	6818
1679.31	6695
1681.478	6696
1683.644	6690
1685.81	6740
1687.975	6704
1690.142	6720
1692.305	6793
1694.468	6673
1696.632	6703
1698.794	6591
1700.957	6614
1703.119	6588
1705.279	6547
1707.439	6636
1709.598	6577
1711.758	6463
1713.917	6531
1716.075	6543
1718.231	6477
1720.388	6518
1722.543	6495
1724.702	6532
1726.856	6535
1729.01	6428
1731.164	6528
1733.317	6438
1735.471	6628
1737.623	6542
1739.774	6462
1741.925	6536
1744.075	6543
1746.225	6498
1748.376	6582
1750.524	6510
1752.672	6538
1754.82	6535
1756.965	6654
1759.113	6638
1761.259	6488
1763.405	6598
1765.549	6544
1767.694	6528
1769.836	6542
1771.981	6641
1774.123	6542
1776.264	6558
1778.405	6612
1780.546	6692
1782.687	6442
1784.827	6557
1786.966	6551
1789.103	6674
1791.242	6628
1793.381	6644
1795.517	6629
1797.653	6533
1799.788	6634
1801.923	6600
1804.057	6538
1806.193	6592
1808.326	6588
1810.457	6553
1812.59	6569
1814.721	6582
1816.855	6558
1818.984	6672
1821.113	6536
1823.244	6623
1825.372	6669
1827.499	6539
1829.63	6631
1831.756	6552
1833.882	6625
1836.007	6502
1838.132	6665
1840.26	6533
1842.384	6455
1844.507	6571
1846.63	6625
1848.752	6579
1850.875	6570
1852.996	6467
1855.118	6518
1857.238	6514
1859.358	6492
1861.477	6388
1863.597	6457
1865.715	6431
1867.832	6576
1869.948	6549
1872.064	6356
1874.181	6541
1876.297	6556
1878.411	6532
1880.526	6537
1882.639	6635
1884.752	6578
1886.865	6603
1888.977	6537
1891.089	6563
1893.2	6485
1895.308	6523
1897.42	6544
1899.53	6527
1901.639	6691
1903.745	6491
1905.853	6554
1907.962	6634
1910.067	6557
1912.174	6569
1914.278	6594
1916.383	6586
1918.486	6634
1920.592	6559
1922.694	6711
1924.797	6691
1926.898	6615
1929	6568
1931.102	6667
1933.203	6723
1935.301	6655
1937.401	6651
1939.499	6685
1941.598	6716
1943.697	6696
1945.793	6533
1947.888	6623
1949.985	6551
1952.08	6619
1954.176	6619
1956.269	6607
1958.364	6663
1960.457	6629
1962.549	6666
1964.642	6630
1966.733	6649
1968.823	6693
1970.913	6541
1973.005	6648
1975.093	6585
1977.184	6566
1979.271	6654
1981.359	6599
1983.446	6538
1985.532	6509
1987.619	6584
1989.705	6554
1991.789	6572
1993.874	6625
1995.956	6609
1998.041	6599
2000.123	6584
2002.206	6658
2004.287	6512
2006.368	6643
2008.449	6560
2010.529	6508
2012.609	6581
2014.688	6598
2016.766	6581
2018.843	6563
2020.922	6531
2022.999	6510
2025.074	6693
2027.15	6650
2029.225	6615
2031.299	6537
2033.375	6578
2035.447	6694
2037.52	6577
2039.592	6647
2041.664	6625
2043.736	6684
2045.807	6627
2047.876	6500
2049.947	6579
2052.015	6450
2054.086	6554
2056.153	6617
2058.221	6637
2060.288	6622
2062.353	6613
2064.42	6636
2066.486	6553
2068.55	6548
2070.614	6494
2072.678	6603
2074.741	6552
2076.805	6583
2078.866	6708
2080.929	6534
2082.99	6572
2085.049	6568
2087.109	6547
2089.17	6538
2091.228	6577
2093.286	6562
2095.344	6569
2097.4	6624
2099.46	6563
2101.516	6438
2103.572	6703
2105.626	6557
2107.679	6539
2109.735	6397
2111.788	6670
2113.841	6496
2115.894	6552
2117.945	6648
2119.997	6484
2122.049	6648
2124.1	6573
2126.148	6707
2128.197	6548
2130.246	6568
2132.296	6674
2134.342	6539
2136.39	6695
2138.437	6560
2140.483	6661
2142.527	6692
2144.574	6510
2146.619	6549
2148.661	6652
2150.705	6448
2152.747	6471
2154.792	6565
2156.832	6563
2158.874	6576
2160.915	6540
2162.954	6547
2164.995	6502
2167.034	6606
2169.072	6406
2171.111	6475
2173.148	6497
2175.186	6524
2177.223	6498
2179.258	6496
2181.294	6503
2183.328	6532
2185.362	6575
2187.398	6422
2189.431	6460
2191.463	6439
2193.495	6537
2195.528	6477
2197.56	6401
2199.59	6473
2201.62	6501
2203.649	6428
2205.678	6468
2207.708	6484
2209.737	6508
2211.764	6452
2213.791	6333
2215.817	6453
2217.843	6394
2219.87	6536
2221.895	6441
2223.919	6583
2225.942	6405
2227.966	6393
2229.988	6393
2232.012	6403
2234.032	6456
2236.054	6390
2238.074	6397
2240.095	6326
2242.116	6414
2244.135	6427
2246.153	6366
2248.171	6262
2250.188	6321
2252.208	6404
2254.223	6431
2256.239	6343
2258.255	6462
2260.269	6399
2262.283	6379
2264.3	6364
2266.312	6397
2268.325	6374
2270.336	6500
2272.349	6394
2274.362	6375
2276.372	6424
2278.383	6281
2280.392	6288
2282.402	6454
2284.409	6442
2286.418	6430
2288.427	6493
2290.433	6291
2292.441	6422
2294.446	6313
2296.453	6234
2298.459	6420
2300.463	6383
2302.466	6399
2304.471	6351
2306.475	6346
2308.477	6371
2310.478	6291
2312.481	6462
2314.481	6372
2316.481	6331
2318.482	6389
2320.482	6258
2322.48	6388
2324.48	6406
2326.478	6321
2328.476	6413
2330.473	6398
2332.469	6318
2334.465	6348
2336.46	6329
2338.454	6305
2340.45	6372
2342.444	6263
2344.437	6374
2346.43	6325
2348.421	6385
2350.414	6298
2352.405	6265
2354.396	6324
2356.386	6290
2358.376	6245
2360.366	6284
2362.355	6226
2364.343	6242
2366.331	6232
2368.317	6282
2370.304	6277
2372.292	6349
2374.278	6201
2376.262	6228
2378.247	6255
2380.23	6214
2382.216	6243
2384.199	6149
2386.181	6218
2388.163	6106
2390.144	6220
2392.127	6231
2394.107	6218
2396.087	6188
2398.066	6262
2400.046	6198
2402.023	6152
2404.004	6229
2405.981	6165
2407.957	6115
2409.934	6133
2411.91	6202
2413.886	6192
2415.862	6140
2417.836	6071
2419.809	6085
2421.784	6214
2423.756	6146
2425.73	6104
2427.701	6072
2429.672	6193
2431.644	6085
2433.615	6135
2435.586	6177
2437.555	6215
2439.523	6234
2441.491	6130
2443.459	6221
2445.428	6176
2447.395	6170
2449.361	6155
2451.327	6175
2453.292	6235
2455.257	6248
2457.223	6150
2459.187	6260
2461.15	6125
2463.113	6069
2465.076	6080
2467.039	6209
2468.999	6131
2470.96	6019
2472.921	6223
2474.881	6162
2476.841	6188
2478.8	6004
2480.759	6197
2482.717	6078
2484.675	6111
2486.63	6028
2488.589	5980
2490.545	6204
2492.5	6084
2494.455	6125
2496.408	6128
2498.364	6198
2500.318	6045
2502.27	6022
2504.223	6074
2506.174	6098
2508.126	6120
2510.078	6023
2512.03	5965
2513.979	6126
2515.927	6004
2517.877	5939
2519.826	6107
2521.775	6173
2523.722	6058
2525.668	6004
2527.616	6049
2529.561	6046
2531.508	5997
2533.452	6016
2535.398	6008
2537.342	6017
2539.284	6144
2541.229	6147
2543.173	6039
2545.114	6045
2547.055	6075
2548.996	6081
2550.938	6116
2552.878	5992
2554.817	6016
2556.756	6042
2558.695	6026
2560.633	5969
2562.572	5900
2564.509	6009
2566.445	6032
2568.382	6017
2570.317	6085
2572.254	5983
2574.189	6072
2576.123	5972
2578.057	6043
2579.99	6022
2581.923	6034
2583.855	5997
2585.788	5964
2587.719	5939
2589.65	6056
2591.579	5985
2593.511	6053
2595.44	5972
2597.37	5996
2599.297	6056
2601.225	6154
2603.153	6144
2605.08	5936
2607.007	6080
2608.932	6087
2610.858	5873
2612.782	6096
2614.709	6049
2616.632	6031
2618.556	6049
2620.478	6048
2622.401	6004
2624.324	6002
2626.247	5968
2628.167	6066
2630.088	6048
2632.008	6117
2633.928	6098
2635.848	6149
2637.766	6052
2639.684	5979
2641.603	6008
2643.519	6040
2645.437	6022
2647.353	6037
2649.27	5915
2651.184	6117
2653.099	6067
2655.014	6118
2656.928	6019
2658.842	6058
2660.755	5934
2662.667	6027
2664.579	6008
2666.491	5991
2668.402	6023
2670.312	5985
2672.222	5998
2674.132	5969
2676.042	5976
2677.951	6015
2679.859	6029
2681.766	5979
2683.674	6089
2685.582	5965
2687.488	6068
2689.392	5957
2691.298	6045
2693.202	6058
2695.107	6044
2697.012	5987
2698.914	6001
2700.817	5978
2702.72	6015
2704.622	6055
2706.524	5999
2708.425	6061
2710.326	5944
2712.225	5883
2714.125	5901
2716.024	5891
2717.923	5919
2719.822	5916
2721.719	5837
2723.616	5855
2725.512	5950
2727.41	5956
2729.305	5984
2731.201	6023
2733.095	5913
2734.99	6076
2736.884	5906
2738.778	5972
2740.67	5940
2742.562	5952
2744.455	5889
2746.346	5995
2748.238	5972
2750.129	5959
2752.018	5937
2753.907	5864
2755.797	5895
2757.687	5915
2759.575	5944
2761.462	5939
2763.349	5905
2765.237	5867
2767.124	5889
2769.009	5819
2770.894	5835
2772.779	5886
2774.663	5854
2776.547	5880
2778.431	5909
2780.314	5913
2782.197	5967
2784.078	5874
2785.96	5843
2787.842	5861
2789.723	5896
2791.603	5932
2793.483	5826
2795.362	5908
2797.241	5820
2799.121	5912
2800.997	5844
2802.874	5939
2804.751	5864
2806.628	5857
2808.506	5897
2810.38	5997
2812.255	5933
2814.13	5789
2816.003	5909
2817.878	5803
2819.752	5888
2821.623	5940
2823.496	5799
2825.368	5947
2827.238	5902
2829.111	5998
2830.98	5941
2832.851	5951
2834.719	5841
2836.589	5935
2838.458	6014
2840.327	5857
2842.193	5892
2844.061	5965
2845.927	6048
2847.794	5873
2849.66	6046
2851.525	6004
2853.39	6033
2855.254	6009
2857.117	6070
2858.983	6157
2860.845	6189
2862.707	6179
2864.569	6130
2866.431	6176
2868.293	6207
2870.154	6180
2872.013	6392
2873.873	6279
2875.733	6499
2877.592	6655
2879.451	6515
2881.309	6632
2883.166	6649
2885.022	6783
2886.879	6920
2888.736	6791
2890.591	6906
2892.446	6780
2894.301	6765
2896.155	6750
2898.009	6911
2899.863	6911
2901.716	6784
2903.568	6844
2905.419	6706
2907.27	6801
2909.123	6861
2910.973	6871
2912.824	6989
2914.673	6893
2916.521	6869
2918.372	7191
2920.22	7165
2922.067	7083
2923.914	7270
2925.761	7334
2927.607	7312
2929.455	7435
2931.301	7428
2933.144	7428
2934.99	7627
2936.833	7652
2938.678	7699
2940.522	7786
2942.364	7891
2944.207	7932
2946.048	8033
2947.891	8241
2949.731	8051
2951.571	8174
2953.412	8110
2955.25	7887
2957.09	7865
2958.93	7722
2960.767	7775
2962.606	7664
2964.443	7553
2966.279	7534
2968.116	7385
2969.953	7256
2971.788	7201
2973.623	7133
2975.457	7012
2977.292	6992
2979.127	6913
2980.959	6878
2982.792	6744
2984.624	6686
2986.455	6732
2988.288	6719
2990.119	6661
2991.949	6495
2993.779	6550
2995.608	6437
2997.439	6446
2999.268	6329
3001.096	6412
3002.923	6368
3004.751	6290
3006.578	6218
3008.406	6187
3010.232	6033
3012.057	6028
3013.883	5990
3015.706	5975
3017.532	5829
3019.356	5957
3021.179	5817
3023.002	5855
3024.823	5758
3026.646	5800
3028.469	5795
3030.289	5736
3032.11	5694
3033.93	5688
3035.749	5720
3037.57	5726
3039.39	5667
3041.207	5683
3043.026	5640
3044.842	5655
3046.661	5654
3048.477	5571
3050.294	5639
3052.109	5576
3053.925	5651
3055.739	5582
3057.555	5632
3059.368	5600
3061.181	5644
3062.995	5681
3064.807	5684
3066.62	5520
3068.433	5576
3070.243	5553
3072.054	5682
3073.865	5640
3075.675	5606
3077.485	5591
3079.293	5623
3081.102	5550
3082.911	5646
3084.719	5492
3086.527	5577
3088.333	5457
3090.139	5490
3091.945	5499
3093.75	5450
3095.557	5489
3097.361	5483
3099.165	5479
3100.969	5434
3102.772	5522
3104.575	5320
3106.379	5484
3108.181	5458
3109.982	5466
3111.783	5269
3113.584	5379
3115.386	5349
3117.186	5445
3118.985	5368
3120.783	5295
3122.582	5311
3124.381	5369
3126.179	5259
3127.975	5349
3129.772	5399
3131.569	5329
3133.365	5336
3135.161	5341
3136.956	5316
3138.751	5320
3140.544	5282
3142.338	5371
3144.132	5323
3145.925	5280
3147.717	5354
3149.509	5258
3151.301	5274
3153.091	5402
3154.884	5237
3156.673	5232
3158.462	5272
3160.252	5277
3162.041	5229
3163.831	5257
3165.618	5272
3167.405	5213
3169.193	5362
3170.979	5282
3172.767	5268
3174.553	5190
3176.338	5274
3178.123	5240
3179.907	5334
3181.692	5261
3183.477	5284
3185.259	5277
3187.042	5218
3188.824	5192
3190.607	5236
3192.389	5191
3194.17	5167
3195.951	5293
3197.73	5218
3199.51	5231
3201.289	5190
3203.07	5235
3204.848	5267
3206.626	5204
3208.403	5217
3210.18	5205
3211.959	5211
3213.735	5239
3215.511	5256
3217.285	5256
3219.06	5226
3220.836	5268
3222.611	5140
3224.384	5200
3226.158	5182
3227.929	5221
3229.702	5266
3231.476	5166
3233.248	5262
3235.018	5216
3236.789	5261
3238.56	5188
3240.33	5182
3242.1	5318
3243.869	5210
3245.637	5172
3247.405	5316
3249.172	5250
3250.941	5179
3252.707	5223
3254.474	5114
3256.24	5181
3258.006	5316
3259.772	5234
3261.537	5262
3263.301	5301
3265.065	5279
3266.828	5263
3268.592	5208
3270.355	5270
3272.117	5205
3273.878	5170
3275.64	5179
3277.401	5188
3279.162	5285
3280.922	5234
3282.682	5214
3284.441	5211
3286.199	5193
3287.959	5350
3289.716	5224
3291.475	5256
3293.232	5252
3294.988	5168
3296.744	5242
3298.501	5242
3300.256	5191
3302.011	5171
3303.766	5174
3305.52	5201
3307.275	5031
3309.028	5198
3310.781	5209
3312.533	5209
3314.285	5132
3316.038	5119
3317.789	5249
3319.54	5213
3321.289	5248
3323.039	5072
3324.789	5303
3326.539	5190
3328.288	5149
3330.035	5248
3331.783	5081
3333.531	5229
3335.28	5124
3337.025	5104
3338.771	5156
3340.518	5151
3342.262	5164
3344.009	5184
3345.753	5145
3347.497	5239
3349.24	5147
3350.983	5194
3352.726	5179
3354.469	5177
3356.212	5162
3357.952	5101
3359.694	5157
3361.434	5059
3363.176	5138
3364.916	5162
3366.654	5129
3368.394	5089
3370.132	5092
3371.871	5057
3373.61	5021
3375.346	5027
3377.083	5069
3378.82	5054
3380.556	5037
3382.292	5020
3384.027	4948
3385.763	5091
3387.497	5076
3389.231	5007
3390.965	5093
3392.698	5083
3394.431	4946
3396.164	5000
3397.896	4984
3399.627	4998
3401.36	4980
3403.09	4992
3404.82	5057
3406.55	4963
3408.279	4946
3410.01	5079
3411.738	5011
3413.467	4972
3415.194	4929
3416.92	4979
3418.647	4925
3420.375	4955
3422.102	4959
3423.827	5002
3425.553	4983
3427.277	4885
3429.003	4924
3430.727	5024
3432.451	4922
3434.173	4979
3435.896	4780
3437.62	4896
3439.343	4912
3441.063	4881
3442.785	4899
3444.505	4945
3446.226	4832
3447.948	4873
3449.666	4745
3451.386	4830
3453.104	4805
3454.823	4902
3456.541	4758
3458.259	4880
3459.976	4683
3461.693	4758
3463.408	4815
3465.125	4712
3466.841	4748
3468.556	4738
3470.271	4729
3471.985	4701
3473.698	4727
3475.414	4725
3477.126	4724
3478.838	4698
3480.55	4685
3482.263	4713
3483.975	4643
3485.686	4653
3487.396	4733
3489.106	4643
3490.817	4614
3492.526	4611
3494.236	4653
3495.944	4683
3497.652	4538
3499.359	4580
3501.066	4661
3502.775	4608
3504.481	4684
3506.187	4546
3507.893	4702
3509.598	4515
3511.304	4637
3513.009	4537
3514.713	4508
3516.417	4549
3518.12	4591
3519.821	4597
3521.525	4524
3523.228	4592
3524.929	4604
3526.631	4494
3528.33	4463
3530.032	4477
3531.733	4488
3533.433	4522
3535.131	4454
3536.83	4504
3538.529	4482
3540.227	4515
3541.925	4386
3543.623	4487
3545.319	4470
3547.016	4469
3548.712	4462
3550.408	4427
3552.103	4418
3553.798	4417
3555.491	4473
3557.188	4409
3558.88	4414
3560.574	4416
3562.266	4497
3563.959	4473
3565.651	4355
3567.343	4487
3569.035	4434
3570.725	4346
3572.415	4416
3574.106	4335
3575.797	4410
3577.485	4384
3579.174	4298
3580.863	4339
3582.551	4369
3584.238	4314
3585.926	4284
3587.613	4332
3589.3	4309
3590.986	4295
3592.671	4262
3594.357	4309
3596.042	4303
3597.726	4288
3599.41	4264
3601.094	4208
3602.778	4256
3604.461	4226
3606.143	4226
3607.825	4284
3609.507	4277
3611.188	4263
3612.87	4203
3614.551	4289
3616.229	4216
3617.909	4136
3619.589	4223
3621.269	4140
3622.948	4135
3624.625	4146
3626.302	4176
3627.98	4211
3629.657	4150
3631.334	4249
3633.01	4090
3634.686	4222
3636.361	4135
3638.036	4074
3639.712	4087
3641.385	4097
3643.06	4108
3644.732	4074
3646.405	4151
3648.08	4102
3649.751	4125
3651.424	4124
3653.094	4081
3654.766	4098
3656.436	4118
3658.106	4061
3659.777	4077
3661.446	4083
3663.115	4038
3664.783	4040
3666.452	4038
3668.121	4028
3669.788	3935
3671.454	3999
3673.121	3916
3674.789	4089
3676.455	4008
3678.12	3993
3679.784	4050
3681.45	3984
3683.114	3981
3684.779	4019
3686.442	3981
3688.105	4035
3689.768	3972
3691.43	4042
3693.093	3979
3694.754	3978
3696.415	3968
3698.076	3974
3699.736	3920
3701.396	3921
3703.057	3930
3704.716	3980
3706.375	3898
3708.034	3946
3709.692	3821
3711.351	3959
3713.008	3927
3714.665	3913
3716.321	3955
3717.977	3903
3719.634	3982
3721.29	3897
3722.945	3817
3724.598	3920
3726.253	3913
3727.907	3827
3729.561	3864
3731.214	3914
3732.867	3906
3734.518	3831
3736.171	3948
3737.824	3828
3739.474	3954
3741.125	3954
3742.775	3925
3744.425	3869
3746.074	3868
3747.725	3862
3749.373	3829
3751.022	3959
3752.669	3876
3754.318	3767
3755.966	3888
3757.612	3875
3759.259	3778
3760.905	3844
3762.55	3869
3764.197	3803
3765.842	3787
3767.486	3767
3769.131	3834
3770.774	3806
3772.417	3756
3774.061	3795
3775.705	3849
3777.347	3771
3778.988	3727
3780.629	3812
3782.271	3760
3783.912	3788
3785.552	3810
3787.192	3826
3788.831	3733
3790.472	3748
3792.112	3780
3793.75	3764
3795.388	3777
3797.024	3718
3798.661	3793
3800.3	3762
3801.936	3748
3803.572	3755
3805.208	3697
3806.844	3750
3808.48	3692
3810.115	3698
3811.748	3709
3813.382	3742
3815.016	3655
3816.649	3673
3818.283	3693
3819.914	3693
3821.547	3669
3823.178	3734
3824.809	3662
3826.441	3677
3828.072	3681
3829.701	3596
3831.331	3648
3832.96	3681
3834.591	3660
3836.219	3650
3837.847	3649
3839.475	3686
3841.102	3673
3842.729	3720
3844.357	3507
3845.984	3618
3847.609	3575
3849.234	3592
3850.86	3661
3852.485	3636
3854.11	3669
3855.734	3643
3857.357	3617
3858.981	3608
3860.603	3681
3862.227	3601
3863.848	3618
3865.471	3573
3867.092	3576
3868.713	3596
3870.334	3656
3871.954	3583
3873.575	3564
3875.194	3560
3876.813	3552
3878.433	3584
3880.051	3568
3881.669	3618
3883.286	3572
3884.904	3519
3886.52	3531
3888.138	3561
3889.754	3591
3891.37	3582
3892.985	3519
3894.6	3582
3896.216	3528
3897.831	3608
3899.444	3525
3901.058	3548
3902.67	3611
3904.283	3537
3905.897	3509
3907.509	3578
3909.121	3510
3910.731	3538
3912.342	3531
3913.954	3559
3915.563	3521
3917.174	3514
3918.783	3562
3920.391	3536
3922.002	3526
3923.611	3519
3925.218	3471
3926.826	3467
3928.432	3527
3930.039	3527
3931.647	3509
3933.253	3507
3934.859	3560
3936.464	3418
3938.068	3472
3939.675	3528
3941.278	3432
3942.883	3470
3944.486	3393
3946.089	3485
3947.692	3453
3949.295	3521
3950.898	3566
3952.499	3456
3954.1	3522
3955.7	3442
3957.303	3370
3958.903	3495
3960.502	3471
3962.101	3369
3963.7	3488
3965.301	3459
3966.899	3434
3968.497	3393
3970.094	3360
3971.691	3498
3973.288	3478
3974.885	3445
3976.481	3358
3978.077	3439
3979.672	3411
3981.267	3458
3982.863	3450
3984.457	3350
3986.051	3320
3987.645	3393
3989.238	3350
3990.831	3354
3992.425	3365
3994.017	3339
3995.607	3387
3997.199	3346
3998.79	3308
4000.382	3377
4001.973	3413
4003.561	3339
4005.151	3321
4006.741	3327
4008.331	3298
4009.918	3362
4011.507	3336
4013.095	3325
4014.681	3343
4016.269	3334
4017.856	3254
4019.443	3327
4021.028	3210
4022.614	3286
4024.199	3238
4025.785	3291
4027.37	3204
4028.953	3293
4030.536	3261
4032.12	3281
4033.704	3328
4035.287	3242
4036.869	3228
4038.45	3282
4040.032	3232
4041.613	3271
4043.195	3219
4044.776	3280
4046.356	3195
4047.935	3234
4049.515	3225
4051.095	3241
4052.674	3199
4054.251	3239
4055.829	3219
4057.406	3174
4058.985	3241
4060.562	3158
4062.139	3206
4063.715	3186
4065.29	3295
4066.865	3209
4068.442	3186
4070.016	3163
4071.59	3184
4073.164	3190
4074.738	3193
4076.312	3146
4077.885	3185
4079.458	3150
4081.03	3225
4082.602	3201
4084.173	3185
4085.745	3158
4087.315	3178
4088.886	3167
4090.456	3179
4092.026	3173
4093.596	3143
4095.165	3228
4096.734	3112
4098.301	3199
4099.869	3156
4101.437	3145
4103.006	3161
4104.572	3085
4106.139	3123
4107.704	3182
4109.27	3172
4110.837	3095
4112.401	3128
4113.966	3097
4115.53	3109
4117.094	3122
4118.659	3092
4120.223	3069
4121.785	3102
4123.347	3043
4124.909	3089
4126.471	3148
4128.034	3098
4129.595	3083
4131.155	3100
4132.716	3049
4134.275	3142
4135.836	3073
4137.395	3064
4138.955	3077
4140.513	2991
4142.071	3030
4143.628	3026
4145.188	2937
4146.745	3070
4148.302	3047
4149.858	3034
4151.414	3095
4152.971	3038
4154.526	3010
4156.081	3079
4157.635	3026
4159.189	2923
4160.745	2956
4162.298	2975
4163.852	3076
4165.405	3016
4166.957	2939
4168.51	2979
4170.063	2997
4171.614	2977
4173.166	2984
4174.717	2966
4176.267	2941
4177.817	3030
4179.368	2988
4180.917	3007
4182.466	2936
4184.016	2938
4185.564	2984
4187.112	2930
4188.66	2970
4190.207	2955
4191.754	2914
4193.301	2865
4194.848	2947
4196.394	2919
4197.94	2861
4199.484	2921
4201.03	2886
4202.575	2962
4204.12	2987
4205.663	2950
4207.207	2886
4208.75	2947
4210.292	2903
4211.836	2922
4213.378	2946
4214.92	2864
4216.46	2843
4218.002	2901
4219.544	2914
4221.083	2919
4222.625	2916
4224.164	2914
4225.703	2866
4227.244	2942
4228.782	2934
4230.32	2986
4231.857	2855
4233.395	2864
4234.933	2886
4236.471	2867
4238.007	2835
4239.542	2841
4241.078	2873
4242.614	2854
4244.15	2878
4245.685	2843
4247.219	2857
4248.753	2869
4250.287	2797
4251.82	2863
4253.354	2791
4254.887	2855
4256.419	2864
4257.951	2814
4259.483	2832
4261.016	2806
4262.547	2771
4264.078	2749
4265.608	2791
4267.137	2820
4268.668	2879
4270.197	2802
4271.727	2868
4273.254	2804
4274.783	2735
4276.311	2820
4277.84	2842
4279.366	2825
4280.894	2776
4282.42	2800
4283.946	2798
4285.473	2776
4286.998	2836
4288.523	2752
4290.047	2786
4291.572	2717
4293.096	2774
4294.622	2805
4296.144	2736
4297.668	2806
4299.19	2684
4300.713	2771
4302.236	2722
4303.758	2768
4305.279	2781
4306.799	2702
4308.321	2766
4309.842	2758
4311.361	2772
4312.882	2818
4314.401	2677
