400.0961	3831
402.6185	3846
405.1424	3841
407.6635	3902
410.1838	3918
412.7035	3867
415.2225	3953
417.7388	3996
420.2585	4036
422.7754	3948
425.2917	3940
427.8072	4121
430.3221	4137
432.8363	4069
435.3498	4183
437.8626	4150
440.3727	4077
442.8841	4194
445.3969	4073
447.907	4059
450.4142	4139
452.9229	4039
455.4289	4144
457.9362	4067
460.4449	3973
462.9488	4186
465.454	4102
467.9566	3976
470.4604	4158
472.9637	4175
475.4662	4036
477.966	4169
480.4671	4084
482.9656	4136
485.4633	4120
487.9645	4148
490.4608	4240
492.9566	4175
495.4536	4154
497.948	4144
500.4437	4210
502.9387	4261
505.431	4248
507.9226	4286
510.4136	4195
512.9079	4298
515.3975	4248
517.8864	4337
520.3746	4196
522.8622	4249
525.3491	4219
527.8394	4282
530.3249	4241
532.8098	4227
535.2939	4266
537.7774	4219
540.2623	4306
542.7444	4360
545.2259	4300
547.7067	4269
550.1868	4349
552.6683	4312
555.147	4362
557.6231	4245
560.1005	4309
562.5773	4367
565.0534	4249
567.5308	4292
570.0056	4387
572.4776	4402
574.951	4467
577.4237	4474
579.8978	4460
582.3671	4414
584.8378	4477
587.3079	4568
589.7773	4421
592.244	4472
594.714	4398
597.1793	4543
599.6461	4346
602.1121	4437
604.5754	4358
607.0421	4369
609.5042	4431
611.9675	4435
614.4282	4375
616.8902	4429
619.3515	4394
621.8122	4463
624.2702	4438
626.7296	4408
629.1863	4356
631.6423	4363
634.1017	4497
636.5563	4394
639.0104	4539
641.4658	4362
643.9185	4422
646.3725	4413
648.8239	4407
651.2766	4390
653.7266	4521
656.176	4524
658.6247	4518
661.0748	4510
663.5242	4466
665.9709	4554
668.417	4558
670.8624	4516
673.3092	4547
675.7533	4537
678.1968	4577
680.6395	4525
683.0817	4515
685.5251	4578
687.9659	4534
690.4061	4669
692.8456	4617
695.2844	4608
697.7226	4594
700.1621	4619
702.599	4626
705.0332	4616
707.4688	4631
709.9036	4716
712.3399	4610
714.7735	4724
717.2044	4715
719.6367	4736
722.0683	4673
724.4993	4752
726.9296	4747
729.3593	4806
731.7883	4711
734.2147	4803
736.6423	4794
739.0714	4831
741.4958	4663
743.9216	4785
746.3447	4844
748.7691	4738
751.1929	4823
753.616	4830
756.0366	4852
758.4584	4899
760.8776	4880
763.2982	4891
765.718	4849
768.1373	4964
770.5539	4909
772.9698	4925
775.3871	4963
777.8038	4964
780.2178	4921
782.6332	4935
785.0459	4857
787.458	4948
789.8714	4874
792.2842	4916
794.6943	4925
797.1038	4982
799.5127	4893
801.9209	4920
804.3324	4911
806.7393	4967
809.1456	5061
811.5513	4953
813.9562	5044
816.3625	5029
818.7663	4964
821.1693	5036
823.5718	5119
825.9735	5056
828.3746	4929
830.7771	5038
833.177	5009
835.5762	5115
837.9747	4937
840.3727	4933
842.772	4948
845.1666	5080
847.5626	5063
849.958	5155
852.3527	5220
854.7488	5203
857.1403	5121
859.5331	5182
861.9253	5100
864.3168	5171
866.7057	5153
869.098	5131
871.4876	5124
873.8746	5046
876.263	5153
878.6487	5155
881.0378	5177
883.4243	5067
885.8081	5167
888.1933	5098
890.5759	5084
892.9598	5102
895.343	5135
897.7256	5085
900.1057	5034
902.4871	5144
904.8659	5113
907.246	5120
909.6254	5225
912.0023	5172
914.3786	5297
916.7562	5343
919.1331	5326
921.5074	5426
923.8831	5510
926.2562	5424
928.6287	5542
931.0005	5463
933.3757	5389
935.7462	5466
938.1162	5424
940.4855	5500
942.8542	5445
945.2242	5575
947.5916	5525
949.9584	5703
952.3266	5698
954.6921	5851
957.0571	6092
959.4233	6248
961.787	6367
964.15	6221
966.5125	6202
968.8742	5831
971.2354	5694
973.5959	5693
975.9559	5626
978.3151	5496
980.6738	5457
983.0338	5352
985.3912	5372
987.7461	5396
990.1022	5347
992.4578	5238
994.8127	5233
997.1689	5303
999.5207	5281
1001.874	5370
1004.226	5379
1006.576	5248
1008.929	5344
1011.28	5286
1013.628	5246
1015.977	5220
1018.324	5252
1020.674	5333
1023.019	5397
1025.366	5386
1027.713	5383
1030.056	5341
1032.399	5318
1034.746	5310
1037.087	5435
1039.431	5414
1041.771	5478
1044.113	5358
1046.454	5433
1048.793	5353
1051.133	5440
1053.471	5345
1055.807	5451
1058.146	5441
1060.483	5354
1062.818	5388
1065.153	5543
1067.489	5462
1069.822	5541
1072.156	5409
1074.488	5545
1076.82	5440
1079.15	5476
1081.48	5417
1083.814	5474
1086.143	5458
1088.471	5481
1090.799	5380
1093.126	5517
1095.452	5359
1097.78	5474
1100.105	5484
1102.43	5451
1104.754	5395
1107.077	5443
1109.4	5512
1111.722	5364
1114.044	5506
1116.365	5462
1118.685	5477
1121.005	5515
1123.324	5531
1125.643	5477
1127.961	5532
1130.278	5546
1132.595	5473
1134.911	5480
1137.226	5533
1139.541	5443
1141.854	5406
1144.167	5468
1146.482	5485
1148.793	5420
1151.105	5399
1153.414	5425
1155.725	5426
1158.033	5591
1160.344	5478
1162.651	5516
1164.959	5467
1167.265	5542
1169.572	5470
1171.878	5545
1174.184	5495
1176.488	5583
1178.79	5516
1181.094	5608
1183.396	5587
1185.699	5571
1188.001	5484
1190.301	5485
1192.6	5488
1194.9	5474
1197.2	5553
1199.497	5531
1201.794	5436
1204.09	5429
1206.387	5513
1208.684	5585
1210.978	5519
1213.272	5588
1215.565	5535
1217.858	5558
1220.15	5526
1222.443	5444
1224.734	5533
1227.024	5602
1229.313	5554
1231.602	5605
1233.892	5617
1236.18	5618
1238.467	5552
1240.754	5808
1243.04	5689
1245.325	5703
1247.612	5726
1249.896	5703
1252.178	5752
1254.461	5872
1256.743	5727
1259.027	5754
1261.308	5691
1263.587	5783
1265.867	5736
1268.146	5816
1270.425	5828
1272.703	5746
1274.981	5851
1277.256	5789
1279.532	5648
1281.808	5666
1284.083	5741
1286.358	5703
1288.63	5700
1290.904	5775
1293.175	5679
1295.449	5662
1297.719	5683
1299.99	5687
1302.259	5607
1304.529	5554
1306.798	5784
1309.065	5603
1311.333	5675
1313.599	5681
1315.866	5730
1318.131	5667
1320.396	5789
1322.66	5679
1324.925	5699
1327.187	5686
1329.448	5675
1331.711	5761
1333.974	5736
1336.234	5673
1338.493	5711
1340.752	5728
1343.01	5570
1345.269	5640
1347.526	5699
1349.784	5645
1352.04	5584
1354.295	5669
1356.552	5697
1358.806	5644
1361.059	5594
1363.312	5650
1365.564	5633
1367.818	5678
1370.069	5686
1372.318	5668
1374.568	5707
1376.817	5757
1379.066	5728
1381.316	5600
1383.564	5689
1385.809	5811
1388.056	5734
1390.301	5810
1392.549	5936
1394.793	5929
1397.036	5904
1399.279	5930
1401.522	5878
1403.763	6092
1406.007	5926
1408.248	6056
1410.487	5987
1412.727	5967
1414.965	5921
1417.205	5940
1419.442	5863
1421.68	5884
1423.915	5981
1426.152	5845
1428.388	5949
1430.623	5978
1432.857	5930
1435.091	5984
1437.323	5968
1439.556	6050
1441.789	5978
1444.019	5959
1446.25	5934
1448.48	5968
1450.708	6101
1452.938	6028
1455.167	6081
1457.394	6087
1459.62	6151
1461.846	6100
1464.073	5981
1466.299	6035
1468.523	6079
1470.746	5957
1472.969	5846
1475.191	5734
1477.415	5852
1479.636	5878
1481.858	5781
1484.078	5811
1486.298	5697
1488.518	5800
1490.736	5793
1492.954	5614
1495.169	5678
1497.386	5742
1499.602	5667
1501.819	5613
1504.034	5714
1506.248	5677
1508.462	5544
1510.675	5641
1512.888	5652
1515.1	5561
1517.311	5585
1519.522	5677
1521.732	5685
1523.942	5651
1526.151	5671
1528.36	5653
1530.566	5623
1532.773	5672
1534.98	5659
1537.187	5616
1539.392	5787
1541.596	5731
1543.801	5670
1546.005	5635
1548.208	5724
1550.411	5632
1552.612	5738
1554.814	5692
1557.013	5765
1559.212	5741
1561.414	5729
1563.612	5753
1565.811	5876
1568.007	5851
1570.203	5927
1572.403	5874
1574.598	5861
1576.792	5764
1578.988	5887
1581.181	5833
1583.376	5842
1585.568	5756
1587.761	5834
1589.952	5752
1592.143	5827
1594.333	5840
1596.524	5782
1598.715	5856
1600.903	5819
1603.091	5913
1605.278	5897
1607.466	5864
1609.652	5934
1611.838	5921
1614.023	5860
1616.207	5697
1618.391	5981
1620.576	5832
1622.759	5893
1624.941	5833
1627.123	5874
1629.304	5996
1631.484	5867
1633.664	5893
1635.844	5908
1638.022	5904
1640.201	5873
1642.38	5978
1644.556	5993
1646.732	6020
1648.908	5857
1651.084	5915
1653.257	5940
1655.433	6068
1657.607	6000
1659.779	5973
1661.951	6006
1664.122	6126
1666.295	6054
1668.467	6089
1670.635	6055
1672.805	6043
1674.973	6027
1677.142	6037
1679.31	5996
1681.478	6085
1683.644	5970
1685.81	6043
1687.975	5949
1690.142	6025
1692.305	5980
1694.468	5962
1696.632	5818
1698.794	5909
1700.957	5856
1703.119	5957
1705.279	5859
1707.439	5862
1709.598	5841
1711.758	5801
1713.917	5877
1716.075	5808
1718.231	5815
1720.388	5842
1722.543	5791
1724.702	5922
1726.856	5809
1729.01	5799
1731.164	5717
1733.317	5765
1735.471	5784
1737.623	5875
1739.774	5925
1741.925	5757
1744.075	5828
1746.225	5871
1748.376	5835
1750.524	5862
1752.672	5916
1754.82	5878
1756.965	5804
1759.113	5832
1761.259	5961
1763.405	5878
1765.549	5867
1767.694	5887
1769.836	5868
1771.981	5922
1774.123	5897
1776.264	5832
1778.405	5938
1780.546	5898
1782.687	5848
1784.827	5934
1786.966	6001
1789.103	5790
1791.242	5959
1793.381	5901
1795.517	5823
1797.653	5874
1799.788	5986
1801.923	5832
1804.057	5955
1806.193	5897
1808.326	5987
1810.457	5901
1812.59	5814
1814.721	6043
1816.855	5813
1818.984	5809
1821.113	5876
1823.244	5824
1825.372	5910
1827.499	5948
1829.63	5875
1831.756	5842
1833.882	5937
1836.007	5853
1838.132	5933
1840.26	5873
1842.384	5905
1844.507	5663
1846.63	5873
1848.752	5897
1850.875	5869
1852.996	6009
1855.118	5839
1857.238	5844
1859.358	5889
1861.477	5901
1863.597	5898
1865.715	5769
1867.832	5875
1869.948	5795
1872.064	5806
1874.181	5794
1876.297	5828
1878.411	5861
1880.526	5822
1882.639	5812
1884.752	5815
1886.865	5885
1888.977	5840
1891.089	5842
1893.2	5878
1895.308	5855
1897.42	6000
1899.53	5894
1901.639	5979
1903.745	5916
1905.853	5934
1907.962	5874
1910.067	5988
1912.174	5895
1914.278	5856
1916.383	5953
1918.486	5844
1920.592	5915
1922.694	6006
1924.797	5829
1926.898	5958
1929	5992
1931.102	5856
1933.203	5936
1935.301	5957
1937.401	5839
1939.499	5949
1941.598	5953
1943.697	5961
1945.793	5989
1947.888	5944
1949.985	6023
1952.08	5932
1954.176	6030
1956.269	5864
1958.364	6020
1960.457	5968
1962.549	5987
1964.642	5937
1966.733	5998
1968.823	6027
1970.913	5938
1973.005	5897
1975.093	5960
1977.184	5917
1979.271	5875
1981.359	5896
1983.446	5871
1985.532	5932
1987.619	5912
1989.705	5920
1991.789	5885
1993.874	5890
1995.956	6032
1998.041	5878
2000.123	5904
2002.206	5863
2004.287	5826
2006.368	5884
2008.449	5937
2010.529	5820
2012.609	5912
2014.688	5826
2016.766	5845
2018.843	5891
2020.922	5966
2022.999	5904
2025.074	5923
2027.15	5891
2029.225	5782
2031.299	5909
2033.375	5962
2035.447	5843
2037.52	5905
2039.592	5919
2041.664	5800
2043.736	5991
2045.807	5918
2047.876	5937
2049.947	5859
2052.015	5846
2054.086	5884
2056.153	5858
2058.221	5932
2060.288	5956
2062.353	5820
2064.42	5830
2066.486	5899
2068.55	5906
2070.614	5974
2072.678	5903
2074.741	5863
2076.805	5889
2078.866	5858
2080.929	5851
2082.99	5788
2085.049	5866
2087.109	5931
2089.17	5891
2091.228	5930
2093.286	5893
2095.344	5822
2097.4	5875
2099.46	5980
2101.516	5899
2103.572	5817
2105.626	5849
2107.679	5891
2109.735	5854
2111.788	5840
2113.841	5853
2115.894	5889
2117.945	5913
2119.997	5925
2122.049	5815
2124.1	5979
2126.148	5963
2128.197	5955
2130.246	5795
2132.296	5928
2134.342	5910
2136.39	5949
2138.437	5928
2140.483	5763
2142.527	5930
2144.574	5844
2146.619	5734
2148.661	5862
2150.705	5818
2152.747	5806
2154.792	5801
2156.832	5806
2158.874	5849
2160.915	5929
2162.954	5815
2164.995	5762
2167.034	5841
2169.072	5804
2171.111	5817
2173.148	5782
2175.186	5794
2177.223	5665
2179.258	5739
2181.294	5827
2183.328	5812
2185.362	5862
2187.398	5737
2189.431	5745
2191.463	5852
2193.495	5758
2195.528	5862
2197.56	5754
2199.59	5803
2201.62	5744
2203.649	5675
2205.678	5782
2207.708	5732
2209.737	5672
2211.764	5775
2213.791	5742
2215.817	5656
2217.843	5630
2219.87	5822
2221.895	5696
2223.919	5724
2225.942	5690
2227.966	5749
2229.988	5760
2232.012	5615
2234.032	5785
2236.054	5701
2238.074	5646
2240.095	5766
2242.116	5673
2244.135	5681
2246.153	5686
2248.171	5653
2250.188	5688
2252.208	5679
2254.223	5838
2256.239	5724
2258.255	5638
2260.269	5652
2262.283	5770
2264.3	5655
2266.312	5683
2268.325	5716
2270.336	5695
2272.349	5655
2274.362	5703
2276.372	5722
2278.383	5690
2280.392	5692
2282.402	5702
2284.409	5661
2286.418	5654
2288.427	5831
2290.433	5664
2292.441	5681
2294.446	5668
2296.453	5711
2298.459	5718
2300.463	5740
2302.466	5749
2304.471	5727
2306.475	5789
2308.477	5669
2310.478	5651
2312.481	5675
2314.481	5634
2316.481	5671
2318.482	5626
2320.482	5637
2322.48	5665
2324.48	5662
2326.478	5664
2328.476	5655
2330.473	5767
2332.469	5681
2334.465	5704
2336.46	5613
2338.454	5636
2340.45	5613
2342.444	5673
2344.437	5742
2346.43	5658
2348.421	5602
2350.414	5659
2352.405	5634
2354.396	5632
2356.386	5590
2358.376	5598
2360.366	5646
2362.355	5529
2364.343	5571
2366.331	5611
2368.317	5566
2370.304	5489
2372.292	5562
2374.278	5508
2376.262	5602
2378.247	5508
2380.23	5484
2382.216	5568
2384.199	5559
2386.181	5518
2388.163	5597
2390.144	5413
2392.127	5552
2394.107	5593
2396.087	5493
2398.066	5502
2400.046	5531
2402.023	5565
2404.004	5478
2405.981	5473
2407.957	5448
2409.934	5531
2411.91	5553
2413.886	5530
2415.862	5508
2417.836	5494
2419.809	5480
2421.784	5486
2423.756	5413
2425.73	5494
2427.701	5541
2429.672	5463
2431.644	5581
2433.615	5417
2435.586	5524
2437.555	5414
2439.523	5495
2441.491	5518
2443.459	5558
2445.428	5499
2447.395	5489
2449.361	5452
2451.327	5416
2453.292	5475
2455.257	5472
2457.223	5505
2459.187	5492
2461.15	5497
2463.113	5396
2465.076	5478
2467.039	5479
2468.999	5515
2470.96	5523
2472.921	5475
2474.881	5415
2476.841	5474
2478.8	5300
2480.759	5357
2482.717	5267
2484.675	5444
2486.63	5431
2488.589	5506
2490.545	5405
2492.5	5388
2494.455	5375
2496.408	5392
2498.364	5491
2500.318	5417
2502.27	5404
2504.223	5400
2506.174	5451
2508.126	5430
2510.078	5362
2512.03	5517
2513.979	5397
2515.927	5335
2517.877	5432
2519.826	5404
2521.775	5389
2523.722	5487
2525.668	5438
2527.616	5250
2529.561	5425
2531.508	5333
2533.452	5338
2535.398	5362
2537.342	5285
2539.284	5435
2541.229	5352
2543.173	5344
2545.114	5285
2547.055	5359
2548.996	5319
2550.938	5404
2552.878	5280
2554.817	5350
2556.756	5441
2558.695	5383
2560.633	5293
2562.572	5339
2564.509	5294
2566.445	5363
2568.382	5332
2570.317	5321
2572.254	5377
2574.189	5381
2576.123	5343
2578.057	5359
2579.99	5279
2581.923	5362
2583.855	5335
2585.788	5374
2587.719	5291
2589.65	5361
2591.579	5360
2593.511	5262
2595.44	5420
2597.37	5401
2599.297	5399
2601.225	5363
2603.153	5397
2605.08	5337
2607.007	5425
2608.932	5317
2610.858	5359
2612.782	5287
2614.709	5396
2616.632	5526
2618.556	5281
2620.478	5310
2622.401	5368
2624.324	5321
2626.247	5306
2628.167	5288
2630.088	5394
2632.008	5395
2633.928	5388
2635.848	5210
2637.766	5324
2639.684	5288
2641.603	5401
2643.519	5355
2645.437	5315
2647.353	5345
2649.27	5411
2651.184	5372
2653.099	5454
2655.014	5313
2656.928	5405
2658.842	5395
2660.755	5358
2662.667	5263
2664.579	5384
2666.491	5370
2668.402	5265
2670.312	5317
2672.222	5285
2674.132	5353
2676.042	5314
2677.951	5300
2679.859	5354
2681.766	5330
2683.674	5423
2685.582	5241
2687.488	5296
2689.392	5265
2691.298	5270
2693.202	5317
2695.107	5360
2697.012	5264
2698.914	5377
2700.817	5231
2702.72	5274
2704.622	5336
2706.524	5274
2708.425	5130
2710.326	5307
2712.225	5269
2714.125	5124
2716.024	5318
2717.923	5215
2719.822	5234
2721.719	5215
2723.616	5242
2725.512	5263
2727.41	5265
2729.305	5269
2731.201	5181
2733.095	5252
2734.99	5299
2736.884	5311
2738.778	5193
2740.67	5251
2742.562	5293
2744.455	5179
2746.346	5285
2748.238	5196
2750.129	5211
2752.018	5283
2753.907	5198
2755.797	5293
2757.687	5213
2759.575	5251
2761.462	5308
2763.349	5234
2765.237	5259
2767.124	5225
2769.009	5134
2770.894	5241
2772.779	5185
2774.663	5146
2776.547	5180
2778.431	5189
2780.314	5182
2782.197	5184
2784.078	5180
2785.96	5169
2787.842	5197
2789.723	5251
2791.603	5079
2793.483	5155
2795.362	5161
2797.241	5208
2799.121	5180
2800.997	5170
2802.874	5246
2804.751	5126
2806.628	5189
2808.506	5138
2810.38	5220
2812.255	5205
2814.13	5213
2816.003	5153
2817.878	5141
2819.752	5162
2821.623	5196
2823.496	5151
2825.368	5188
2827.238	5121
2829.111	5139
2830.98	5054
2832.851	5181
2834.719	5219
2836.589	5153
2838.458	5114
2840.327	5157
2842.193	5161
2844.061	5298
2845.927	5297
2847.794	5212
2849.66	5184
2851.525	5178
2853.39	5236
2855.254	5207
2857.117	5211
2858.983	5331
2860.845	5330
2862.707	5297
2864.569	5387
2866.431	5382
2868.293	5328
2870.154	5544
2872.013	5387
2873.873	5543
2875.733	5502
2877.592	5657
2879.451	5630
2881.309	5594
2883.166	5633
2885.022	5724
2886.879	5853
2888.736	5738
2890.591	5808
2892.446	5827
2894.301	5717
2896.155	5779
2898.009	5766
2899.863	5754
2901.716	5832
2903.568	5709
2905.419	5736
2907.27	5715
2909.123	5686
2910.973	5711
2912.824	5924
2914.673	5832
2916.521	5840
2918.372	5981
2920.22	5969
2922.067	6030
2923.914	6103
2925.761	6015
2927.607	6102
2929.455	6215
2931.301	6077
2933.144	6118
2934.99	6162
2936.833	6244
2938.678	6325
2940.522	6357
2942.364	6462
2944.207	6515
2946.048	6541
2947.891	6710
2949.731	6648
2951.571	6647
2953.412	6665
2955.25	6597
2957.09	6557
2958.93	6541
2960.767	6491
2962.606	6427
2964.443	6261
2966.279	6247
2968.116	6159
2969.953	6167
2971.788	5965
2973.623	5884
2975.457	5955
2977.292	5875
2979.127	5841
2980.959	5831
2982.792	5720
2984.624	5751
2986.455	5769
2988.288	5683
2990.119	5543
2991.949	5653
2993.779	5622
2995.608	5514
2997.439	5487
2999.268	5503
3001.096	5354
3002.923	5474
3004.751	5303
3006.578	5216
3008.406	5219
3010.232	5220
3012.057	5211
3013.883	5142
3015.706	5152
3017.532	5101
3019.356	5052
3021.179	5073
3023.002	5064
3024.823	4939
3026.646	5007
3028.469	4959
3030.289	4956
3032.11	5010
3033.93	5031
3035.749	4881
3037.57	4890
3039.39	4879
3041.207	4936
3043.026	4931
3044.842	4965
3046.661	4930
3048.477	4934
3050.294	4930
3052.109	4949
3053.925	4892
3055.739	4783
3057.555	4933
3059.368	4906
3061.181	4923
3062.995	4804
3064.807	4934
3066.62	4916
3068.433	4869
3070.243	4863
3072.054	4812
3073.865	4809
3075.675	4878
3077.485	4807
3079.293	4777
3081.102	4817
3082.911	4756
3084.719	4717
3086.527	4800
3088.333	4862
3090.139	4713
3091.945	4786
3093.75	4666
3095.557	4760
3097.361	4653
3099.165	4789
3100.969	4698
3102.772	4675
3104.575	4614
3106.379	4641
3108.181	4668
3109.982	4703
3111.783	4644
3113.584	4733
3115.386	4609
3117.186	4695
3118.985	4661
3120.783	4699
3122.582	4684
3124.381	4645
3126.179	4669
3127.975	4553
3129.772	4580
3131.569	4775
3133.365	4596
3135.161	4657
3136.956	4710
3138.751	4619
3140.544	4562
3142.338	4611
3144.132	4607
3145.925	4612
3147.717	4627
3149.509	4636
3151.301	4650
3153.091	4645
3154.884	4620
3156.673	4612
3158.462	4520
3160.252	4575
3162.041	4616
3163.831	4520
3165.618	4556
3167.405	4589
3169.193	4650
3170.979	4571
3172.767	4488
3174.553	4444
3176.338	4507
3178.123	4512
3179.907	4574
3181.692	4599
3183.477	4641
3185.259	4577
3187.042	4565
3188.824	4545
3190.607	4535
3192.389	4497
3194.17	4493
3195.951	4543
3197.73	4503
3199.51	4545
3201.289	4420
3203.07	4569
3204.848	4637
3206.626	4474
3208.403	4584
3210.18	4495
3211.959	4530
3213.735	4607
3215.511	4524
3217.285	4537
3219.06	4511
3220.836	4561
3222.611	4525
3224.384	4535
3226.158	4567
3227.929	4557
3229.702	4541
3231.476	4556
3233.248	4543
3235.018	4527
3236.789	4528
3238.56	4580
3240.33	4482
3242.1	4575
3243.869	4583
3245.637	4600
3247.405	4404
3249.172	4525
3250.941	4529
3252.707	4496
3254.474	4472
3256.24	4534
3258.006	4485
3259.772	4609
3261.537	4529
3263.301	4546
3265.065	4467
3266.828	4445
3268.592	4527
3270.355	4481
3272.117	4528
3273.878	4507
3275.64	4485
3277.401	4501
3279.162	4494
3280.922	4506
3282.682	4563
3284.441	4481
3286.199	4485
3287.959	4492
3289.716	4502
3291.475	4534
3293.232	4589
3294.988	4475
3296.744	4503
3298.501	4468
3300.256	4504
3302.011	4552
3303.766	4552
3305.52	4591
3307.275	4450
3309.028	4501
3310.781	4536
3312.533	4530
3314.285	4519
3316.038	4572
3317.789	4396
3319.54	4425
3321.289	4457
3323.039	4490
3324.789	4482
3326.539	4390
3328.288	4399
3330.035	4495
3331.783	4392
3333.531	4459
3335.28	4506
3337.025	4524
3338.771	4488
3340.518	4575
3342.262	4383
3344.009	4403
3345.753	4406
3347.497	4436
3349.24	4496
3350.983	4412
3352.726	4495
3354.469	4540
3356.212	4384
3357.952	4376
3359.694	4403
3361.434	4337
3363.176	4448
3364.916	4382
3366.654	4404
3368.394	4433
3370.132	4400
3371.871	4316
3373.61	4368
3375.346	4310
3377.083	4316
3378.82	4261
3380.556	4255
3382.292	4299
3384.027	4309
3385.763	4329
3387.497	4320
3389.231	4341
3390.965	4355
3392.698	4303
3394.431	4352
3396.164	4360
3397.896	4243
3399.627	4268
3401.36	4375
3403.09	4341
3404.82	4252
3406.55	4330
3408.279	4313
3410.01	4231
3411.738	4303
3413.467	4211
3415.194	4274
3416.92	4217
3418.647	4210
3420.375	4187
3422.102	4317
3423.827	4249
3425.553	4240
3427.277	4243
3429.003	4263
3430.727	4194
3432.451	4286
3434.173	4126
3435.896	4203
3437.62	4160
3439.343	4148
3441.063	4234
3442.785	4278
3444.505	4120
3446.226	4210
3447.948	4202
3449.666	4027
3451.386	4108
3453.104	4082
3454.823	4197
3456.541	4124
3458.259	4119
3459.976	4089
3461.693	4046
3463.408	4180
3465.125	4072
3466.841	4103
3468.556	4093
3470.271	4098
3471.985	4070
3473.698	4046
3475.414	4063
3477.126	4003
3478.838	4060
3480.55	4104
3482.263	4061
3483.975	4096
3485.686	3993
3487.396	4028
3489.106	4100
3490.817	3998
3492.526	4083
3494.236	3952
3495.944	3976
3497.652	4068
3499.359	3994
3501.066	3884
3502.775	4019
3504.481	3896
3506.187	3979
3507.893	4000
3509.598	3897
3511.304	3979
3513.009	3888
3514.713	3946
3516.417	3877
3518.12	3941
3519.821	3907
3521.525	3932
3523.228	3972
3524.929	3904
3526.631	3939
3528.33	3900
3530.032	3913
3531.733	3948
3533.433	4039
3535.131	3910
3536.83	3908
3538.529	3882
3540.227	3925
3541.925	3872
3543.623	3792
3545.319	3808
3547.016	3852
3548.712	3893
3550.408	3849
3552.103	3872
3553.798	3829
3555.491	3808
3557.188	3793
3558.88	3851
3560.574	3802
3562.266	3818
3563.959	3819
3565.651	3714
3567.343	3806
3569.035	3819
3570.725	3818
3572.415	3821
3574.106	3755
3575.797	3836
3577.485	3775
3579.174	3782
3580.863	3740
3582.551	3770
3584.238	3745
3585.926	3775
3587.613	3761
3589.3	3770
3590.986	3754
3592.671	3700
3594.357	3767
3596.042	3610
3597.726	3700
3599.41	3774
3601.094	3657
3602.778	3704
3604.461	3689
3606.143	3643
3607.825	3682
3609.507	3584
3611.188	3686
3612.87	3644
3614.551	3636
3616.229	3716
3617.909	3661
3619.589	3655
3621.269	3569
3622.948	3674
3624.625	3582
3626.302	3572
3627.98	3666
3629.657	3593
3631.334	3554
3633.01	3564
3634.686	3471
3636.361	3533
3638.036	3561
3639.712	3529
3641.385	3608
3643.06	3564
3644.732	3542
3646.405	3586
3648.08	3551
3649.751	3519
3651.424	3582
3653.094	3500
3654.766	3534
3656.436	3421
3658.106	3486
3659.777	3512
3661.446	3586
3663.115	3498
3664.783	3411
3666.452	3478
3668.121	3564
3669.788	3531
3671.454	3458
3673.121	3539
3674.789	3499
3676.455	3515
3678.12	3494
3679.784	3453
3681.45	3383
3683.114	3483
3684.779	3548
3686.442	3412
3688.105	3557
3689.768	3428
3691.43	3405
3693.093	3405
3694.754	3411
3696.415	3394
3698.076	3467
3699.736	3410
3701.396	3381
3703.057	3431
3704.716	3377
3706.375	3471
3708.034	3418
3709.692	3400
3711.351	3401
3713.008	3439
3714.665	3372
3716.321	3416
3717.977	3490
3719.634	3410
3721.29	3489
3722.945	3344
3724.598	3418
3726.253	3312
3727.907	3322
3729.561	3435
3731.214	3374
3732.867	3351
3734.518	3343
3736.171	3433
3737.824	3320
3739.474	3348
3741.125	3425
3742.775	3278
3744.425	3335
3746.074	3428
3747.725	3333
3749.373	3331
3751.022	3373
3752.669	3294
3754.318	3318
3755.966	3319
3757.612	3296
3759.259	3347
3760.905	3214
3762.55	3301
3764.197	3262
3765.842	3304
3767.486	3228
3769.131	3369
3770.774	3266
3772.417	3272
3774.061	3314
3775.705	3286
3777.347	3346
3778.988	3301
3780.629	3184
3782.271	3243
3783.912	3260
3785.552	3271
3787.192	3296
3788.831	3305
3790.472	3260
3792.112	3279
3793.75	3287
3795.388	3242
3797.024	3340
3798.661	3169
3800.3	3278
3801.936	3237
3803.572	3259
3805.208	3137
3806.844	3302
3808.48	3144
3810.115	3164
3811.748	3235
3813.382	3219
3815.016	3270
3816.649	3222
3818.283	3170
3819.914	3214
3821.547	3207
3823.178	3214
3824.809	3152
3826.441	3260
3828.072	3184
3829.701	3171
3831.331	3220
3832.96	3206
3834.591	3126
3836.219	3147
3837.847	3130
3839.475	3161
3841.102	3172
3842.729	3200
3844.357	3177
3845.984	3151
3847.609	3150
3849.234	3174
3850.86	3123
3852.485	3065
3854.11	3198
3855.734	3109
3857.357	3136
3858.981	3161
3860.603	3039
3862.227	3142
3863.848	3169
3865.471	3136
3867.092	3049
3868.713	3099
3870.334	3067
3871.954	3068
3873.575	3141
3875.194	3125
3876.813	3018
3878.433	3158
3880.051	3122
3881.669	3035
3883.286	3029
3884.904	3066
3886.52	3037
3888.138	3061
3889.754	3046
3891.37	3086
3892.985	3072
3894.6	3073
3896.216	3036
3897.831	3093
3899.444	3029
3901.058	3095
3902.67	3013
3904.283	3031
3905.897	2995
3907.509	3068
3909.121	3092
3910.731	3053
3912.342	3005
3913.954	3027
3915.563	3070
3917.174	3087
3918.783	3043
3920.391	3078
3922.002	2952
3923.611	3053
3925.218	3074
3926.826	3051
3928.432	3068
3930.039	2991
3931.647	3049
3933.253	2976
3934.859	2962
3936.464	3016
3938.068	3094
3939.675	2995
3941.278	3001
3942.883	3006
3944.486	2981
3946.089	2971
3947.692	2983
3949.295	3047
3950.898	3017
3952.499	3044
3954.1	2944
3955.7	2952
3957.303	2940
3958.903	2930
3960.502	2965
3962.101	2955
3963.7	2954
3965.301	2879
3966.899	2974
3968.497	2925
3970.094	2967
3971.691	2890
3973.288	2887
3974.885	2928
3976.481	2929
3978.077	2851
3979.672	2941
3981.267	2908
3982.863	2933
3984.457	2953
3986.051	2883
3987.645	2976
3989.238	2978
3990.831	2957
3992.425	2789
3994.017	2888
3995.607	2928
3997.199	2903
3998.79	2907
4000.382	2884
4001.973	2867
4003.561	2894
4005.151	2830
4006.741	2886
4008.331	2894
4009.918	2871
4011.507	2847
4013.095	2857
4014.681	2947
4016.269	2800
4017.856	2842
4019.443	2850
4021.028	2860
4022.614	2792
4024.199	2828
4025.785	2834
4027.37	2793
4028.953	2810
4030.536	2798
4032.12	2768
4033.704	2814
4035.287	2836
4036.869	2796
4038.45	2815
4040.032	2802
4041.613	2760
4043.195	2775
4044.776	2692
4046.356	2729
4047.935	2789
4049.515	2793
4051.095	2871
4052.674	2748
4054.251	2782
4055.829	2757
4057.406	2790
4058.985	2777
4060.562	2816
4062.139	2769
4063.715	2768
4065.29	2737
4066.865	2715
4068.442	2756
4070.016	2688
4071.59	2754
4073.164	2733
4074.738	2720
4076.312	2719
4077.885	2705
4079.458	2672
4081.03	2719
4082.602	2662
4084.173	2715
4085.745	2672
4087.315	2700
4088.886	2744
4090.456	2724
4092.026	2646
4093.596	2627
4095.165	2726
4096.734	2696
4098.301	2716
4099.869	2691
4101.437	2752
4103.006	2683
4104.572	2724
4106.139	2650
4107.704	2659
4109.27	2638
4110.837	2617
4112.401	2693
4113.966	2615
4115.53	2650
4117.094	2670
4118.659	2633
4120.223	2657
4121.785	2624
4123.347	2648
4124.909	2687
4126.471	2622
4128.034	2682
4129.595	2636
4131.155	2592
4132.716	2613
4134.275	2652
4135.836	2624
4137.395	2606
4138.955	2647
4140.513	2636
4142.071	2608
4143.628	2619
4145.188	2573
4146.745	2580
4148.302	2612
4149.858	2544
4151.414	2612
4152.971	2611
4154.526	2670
4156.081	2631
4157.635	2497
4159.189	2565
4160.745	2580
4162.298	2530
4163.852	2552
4165.405	2525
4166.957	2608
4168.51	2558
4170.063	2551
4171.614	2510
4173.166	2528
4174.717	2585
4176.267	2538
4177.817	2559
4179.368	2583
4180.917	2484
4182.466	2538
4184.016	2532
4185.564	2552
4187.112	2474
4188.66	2552
4190.207	2550
4191.754	2557
4193.301	2487
4194.848	2538
4196.394	2543
4197.94	2483
4199.484	2581
4201.03	2510
4202.575	2484
4204.12	2517
4205.663	2527
4207.207	2527
4208.75	2466
4210.292	2485
4211.836	2469
4213.378	2462
4214.92	2487
4216.46	2438
4218.002	2453
4219.544	2471
4221.083	2454
4222.625	2444
4224.164	2420
4225.703	2467
4227.244	2449
4228.782	2477
4230.32	2466
4231.857	2512
4233.395	2423
4234.933	2464
4236.471	2448
4238.007	2421
4239.542	2379
4241.078	2398
4242.614	2413
4244.15	2394
4245.685	2447
4247.219	2484
4248.753	2445
4250.287	2446
4251.82	2382
4253.354	2474
4254.887	2421
4256.419	2462
4257.951	2378
4259.483	2395
4261.016	2408
4262.547	2434
4264.078	2404
4265.608	2441
4267.137	2385
4268.668	2406
4270.197	2396
4271.727	2390
4273.254	2402
4274.783	2339
4276.311	2435
4277.84	2439
4279.366	2401
4280.894	2394
4282.42	2424
4283.946	2316
4285.473	2358
4286.998	2394
4288.523	2285
4290.047	2455
4291.572	2366
4293.096	2398
4294.622	2303
4296.144	2370
4297.668	2332
4299.19	2373
4300.713	2332
4302.236	2339
4303.758	2360
4305.279	2354
4306.799	2358
4308.321	2330
4309.842	2336
4311.361	2361
4312.882	2306
4314.401	2391
