400.0961	3625
402.6185	3755
405.1424	3699
407.6635	3704
410.1838	3673
412.7035	3686
415.2225	3685
417.7388	3746
420.2585	3692
422.7754	3848
425.2917	3838
427.8072	3885
430.3221	3913
432.8363	3925
435.3498	3982
437.8626	3892
440.3727	3976
442.8841	3874
445.3969	3938
447.907	3892
450.4142	3978
452.9229	3868
455.4289	3857
457.9362	3801
460.4449	3847
462.9488	3888
465.454	3846
467.9566	3865
470.4604	3871
472.9637	3828
475.4662	3914
477.966	3869
480.4671	3923
482.9656	3862
485.4633	3962
487.9645	3964
490.4608	4047
492.9566	3961
495.4536	3986
497.948	3954
500.4437	4006
502.9387	3910
505.431	4009
507.9226	4020
510.4136	4064
512.9079	3961
515.3975	3958
517.8864	3976
520.3746	3964
522.8622	4020
525.3491	3941
527.8394	4082
530.3249	4009
532.8098	3996
535.2939	4030
537.7774	4096
540.2623	4051
542.7444	4079
545.2259	4126
547.7067	4113
550.1868	4048
552.6683	4055
555.147	4142
557.6231	4051
560.1005	3979
562.5773	4034
565.0534	4041
567.5308	4089
570.0056	4089
572.4776	4132
574.951	4111
577.4237	4171
579.8978	4216
582.3671	4164
584.8378	4121
587.3079	4156
589.7773	4197
592.244	4174
594.714	4214
597.1793	4160
599.6461	4171
602.1121	4140
604.5754	4235
607.0421	4173
609.5042	4144
611.9675	4155
614.4282	4195
616.8902	4253
619.3515	4200
621.8122	4234
624.2702	4146
626.7296	4221
629.1863	4208
631.6423	4119
634.1017	4090
636.5563	4114
639.0104	4166
641.4658	4144
643.9185	4213
646.3725	4141
648.8239	4194
651.2766	4267
653.7266	4297
656.176	4262
658.6247	4243
661.0748	4259
663.5242	4302
665.9709	4194
668.417	4214
670.8624	4213
673.3092	4218
675.7533	4200
678.1968	4321
680.6395	4393
683.0817	4211
685.5251	4191
687.9659	4317
690.4061	4349
692.8456	4318
695.2844	4409
697.7226	4292
700.1621	4335
702.599	4374
705.0332	4330
707.4688	4345
709.9036	4395
712.3399	4489
714.7735	4484
717.2044	4377
719.6367	4471
722.0683	4429
724.4993	4460
726.9296	4386
729.3593	4432
731.7883	4549
734.2147	4503
736.6423	4392
739.0714	4512
741.4958	4534
743.9216	4567
746.3447	4569
748.7691	4551
751.1929	4535
753.616	4548
756.0366	4577
758.4584	4573
760.8776	4591
763.2982	4596
765.718	4530
768.1373	4644
770.5539	4681
772.9698	4540
775.3871	4651
777.8038	4622
780.2178	4623
782.6332	4652
785.0459	4633
787.458	4604
789.8714	4756
792.2842	4568
794.6943	4628
797.1038	4634
799.5127	4599
801.9209	4600
804.3324	4599
806.7393	4685
809.1456	4694
811.5513	4711
813.9562	4703
816.3625	4642
818.7663	4747
821.1693	4799
823.5718	4688
825.9735	4677
828.3746	4676
830.7771	4658
833.177	4710
835.5762	4805
837.9747	4738
840.3727	4694
842.772	4637
845.1666	4789
847.5626	4908
849.958	4797
852.3527	4876
854.7488	4939
857.1403	4908
859.5331	4820
861.9253	4840
864.3168	4929
866.7057	4915
869.098	4779
871.4876	4820
873.8746	4808
876.263	4853
878.6487	4823
881.0378	4808
883.4243	4763
885.8081	4805
888.1933	4813
890.5759	4739
892.9598	4707
895.343	4759
897.7256	4745
900.1057	4789
902.4871	4907
904.8659	4826
907.246	4898
909.6254	4884
912.0023	4957
914.3786	5023
916.7562	5181
919.1331	5314
921.5074	5306
923.8831	5361
926.2562	5401
928.6287	5384
931.0005	5298
933.3757	5251
935.7462	5213
938.1162	5108
940.4855	5269
942.8542	5308
945.2242	5222
947.5916	5291
949.9584	5374
952.3266	5406
954.6921	5479
957.0571	5580
959.4233	5786
961.787	5713
964.15	5821
966.5125	5650
968.8742	5547
971.2354	5358
973.5959	5378
975.9559	5306
978.3151	5273
980.6738	5241
983.0338	5090
985.3912	5061
987.7461	5104
990.1022	5049
992.4578	5057
994.8127	4938
997.1689	5071
999.5207	4975
1001.874	5037
1004.226	5030
1006.576	5017
1008.929	5141
1011.28	4941
1013.628	4966
1015.977	5015
1018.324	4917
1020.674	4903
1023.019	4933
1025.366	5073
1027.713	5067
1030.056	5056
1032.399	5031
1034.746	5110
1037.087	5106
1039.431	5016
1041.771	5061
1044.113	5090
1046.454	5047
1048.793	5028
1051.133	5137
1053.471	4956
1055.807	5035
1058.146	5071
1060.483	5037
1062.818	5064
1065.153	5187
1067.489	5014
1069.822	5208
1072.156	5109
1074.488	5029
1076.82	5150
1079.15	5162
1081.48	5014
1083.814	5161
1086.143	5011
1088.471	5093
1090.799	5150
1093.126	5080
1095.452	5134
1097.78	5169
1100.105	5070
1102.43	5063
1104.754	5033
1107.077	5101
1109.4	5104
1111.722	5166
1114.044	5131
1116.365	5174
1118.685	5140
1121.005	5076
1123.324	5249
1125.643	5238
1127.961	5322
1130.278	5221
1132.595	5219
1134.911	5095
1137.226	5175
1139.541	5119
1141.854	5063
1144.167	5112
1146.482	5027
1148.793	5062
1151.105	5085
1153.414	5096
1155.725	5127
1158.033	5036
1160.344	5174
1162.651	5116
1164.959	5078
1167.265	5147
1169.572	5205
1171.878	5113
1174.184	5196
1176.488	5197
1178.79	5217
1181.094	5280
1183.396	5212
1185.699	5140
1188.001	5127
1190.301	5227
1192.6	5124
1194.9	5071
1197.2	5060
1199.497	5078
1201.794	5205
1204.09	5128
1206.387	5151
1208.684	5130
1210.978	5174
1213.272	5156
1215.565	5057
1217.858	5120
1220.15	5188
1222.443	5041
1224.734	5189
1227.024	5215
1229.313	5249
1231.602	5263
1233.892	5327
1236.18	5491
1238.467	5372
1240.754	5359
1243.04	5477
1245.325	5392
1247.612	5501
1249.896	5427
1252.178	5400
1254.461	5427
1256.743	5429
1259.027	5404
1261.308	5336
1263.587	5406
1265.867	5543
1268.146	5594
1270.425	5528
1272.703	5443
1274.981	5508
1277.256	5398
1279.532	5472
1281.808	5452
1284.083	5441
1286.358	5295
1288.63	5324
1290.904	5422
1293.175	5279
1295.449	5277
1297.719	5324
1299.99	5263
1302.259	5305
1304.529	5366
1306.798	5420
1309.065	5368
1311.333	5455
1313.599	5319
1315.866	5347
1318.131	5330
1320.396	5322
1322.66	5358
1324.925	5446
1327.187	5455
1329.448	5514
1331.711	5568
1333.974	5581
1336.234	5441
1338.493	5416
1340.752	5253
1343.01	5328
1345.269	5376
1347.526	5359
1349.784	5309
1352.04	5329
1354.295	5284
1356.552	5295
1358.806	5205
1361.059	5283
1363.312	5281
1365.564	5237
1367.818	5366
1370.069	5323
1372.318	5351
1374.568	5303
1376.817	5366
1379.066	5412
1381.316	5510
1383.564	5452
1385.809	5433
1388.056	5409
1390.301	5566
1392.549	5613
1394.793	5727
1397.036	5753
1399.279	5779
1401.522	5821
1403.763	5802
1406.007	5907
1408.248	5840
1410.487	5731
1412.727	5799
1414.965	5814
1417.205	5803
1419.442	5790
1421.68	5728
1423.915	5662
1426.152	5626
1428.388	5623
1430.623	5634
1432.857	5694
1435.091	5788
1437.323	5711
1439.556	5691
1441.789	5645
1444.019	5831
1446.25	5728
1448.48	5690
1450.708	5760
1452.938	5793
1455.167	5892
1457.394	5869
1459.62	5819
1461.846	5815
1464.073	5777
1466.299	5735
1468.523	5677
1470.746	5642
1472.969	5463
1475.191	5411
1477.415	5488
1479.636	5527
1481.858	5445
1484.078	5424
1486.298	5425
1488.518	5333
1490.736	5277
1492.954	5373
1495.169	5288
1497.386	5247
1499.602	5391
1501.819	5286
1504.034	5191
1506.248	5369
1508.462	5232
1510.675	5221
1512.888	5302
1515.1	5241
1517.311	5263
1519.522	5252
1521.732	5233
1523.942	5241
1526.151	5346
1528.36	5305
1530.566	5305
1532.773	5302
1534.98	5215
1537.187	5336
1539.392	5310
1541.596	5177
1543.801	5294
1546.005	5331
1548.208	5389
1550.411	5298
1552.612	5378
1554.814	5387
1557.013	5353
1559.212	5476
1561.414	5376
1563.612	5400
1565.811	5295
1568.007	5531
1570.203	5477
1572.403	5346
1574.598	5423
1576.792	5476
1578.988	5532
1581.181	5457
1583.376	5511
1585.568	5400
1587.761	5456
1589.952	5447
1592.143	5384
1594.333	5464
1596.524	5472
1598.715	5467
1600.903	5572
1603.091	5500
1605.278	5487
1607.466	5465
1609.652	5557
1611.838	5530
1614.023	5479
1616.207	5481
1618.391	5543
1620.576	5471
1622.759	5525
1624.941	5481
1627.123	5527
1629.304	5582
1631.484	5575
1633.664	5589
1635.844	5545
1638.022	5606
1640.201	5574
1642.38	5637
1644.556	5664
1646.732	5650
1648.908	5547
1651.084	5570
1653.257	5566
1655.433	5647
1657.607	5638
1659.779	5699
1661.951	5543
1664.122	5759
1666.295	5784
1668.467	5741
1670.635	5722
1672.805	5651
1674.973	5653
1677.142	5680
1679.31	5628
1681.478	5667
1683.644	5760
1685.81	5651
1687.975	5567
1690.142	5622
1692.305	5674
1694.468	5563
1696.632	5612
1698.794	5540
1700.957	5500
1703.119	5547
1705.279	5420
1707.439	5521
1709.598	5460
1711.758	5424
1713.917	5491
1716.075	5408
1718.231	5472
1720.388	5460
1722.543	5513
1724.702	5525
1726.856	5354
1729.01	5509
1731.164	5569
1733.317	5467
1735.471	5426
1737.623	5465
1739.774	5467
1741.925	5509
1744.075	5484
1746.225	5501
1748.376	5302
1750.524	5386
1752.672	5490
1754.82	5442
1756.965	5538
1759.113	5400
1761.259	5502
1763.405	5531
1765.549	5548
1767.694	5462
1769.836	5561
1771.981	5489
1774.123	5408
1776.264	5510
1778.405	5392
1780.546	5540
1782.687	5424
1784.827	5594
1786.966	5511
1789.103	5531
1791.242	5454
1793.381	5520
1795.517	5508
1797.653	5473
1799.788	5497
1801.923	5539
1804.057	5516
1806.193	5457
1808.326	5530
1810.457	5417
1812.59	5372
1814.721	5440
1816.855	5357
1818.984	5517
1821.113	5433
1823.244	5515
1825.372	5518
1827.499	5443
1829.63	5534
1831.756	5345
1833.882	5416
1836.007	5532
1838.132	5413
1840.26	5399
1842.384	5503
1844.507	5389
1846.63	5540
1848.752	5492
1850.875	5472
1852.996	5423
1855.118	5500
1857.238	5460
1859.358	5369
1861.477	5414
1863.597	5542
1865.715	5270
1867.832	5403
1869.948	5399
1872.064	5417
1874.181	5426
1876.297	5434
1878.411	5436
1880.526	5371
1882.639	5364
1884.752	5514
1886.865	5420
1888.977	5500
1891.089	5425
1893.2	5491
1895.308	5506
1897.42	5471
1899.53	5441
1901.639	5529
1903.745	5472
1905.853	5539
1907.962	5535
1910.067	5465
1912.174	5497
1914.278	5443
1916.383	5498
1918.486	5568
1920.592	5488
1922.694	5600
1924.797	5645
1926.898	5418
1929	5562
1931.102	5565
1933.203	5473
1935.301	5589
1937.401	5515
1939.499	5534
1941.598	5497
1943.697	5517
1945.793	5551
1947.888	5451
1949.985	5501
1952.08	5619
1954.176	5481
1956.269	5428
1958.364	5434
1960.457	5610
1962.549	5523
1964.642	5502
1966.733	5561
1968.823	5572
1970.913	5507
1973.005	5432
1975.093	5455
1977.184	5485
1979.271	5528
1981.359	5475
1983.446	5423
1985.532	5448
1987.619	5488
1989.705	5382
1991.789	5482
1993.874	5493
1995.956	5509
1998.041	5556
2000.123	5326
2002.206	5556
2004.287	5429
2006.368	5371
2008.449	5403
2010.529	5404
2012.609	5471
2014.688	5461
2016.766	5539
2018.843	5462
2020.922	5468
2022.999	5523
2025.074	5437
2027.15	5489
2029.225	5459
2031.299	5504
2033.375	5452
2035.447	5382
2037.52	5414
2039.592	5387
2041.664	5457
2043.736	5540
2045.807	5459
2047.876	5531
2049.947	5421
2052.015	5573
2054.086	5498
2056.153	5528
2058.221	5417
2060.288	5597
2062.353	5471
2064.42	5529
2066.486	5474
2068.55	5490
2070.614	5422
2072.678	5523
2074.741	5606
2076.805	5442
2078.866	5441
2080.929	5504
2082.99	5545
2085.049	5444
2087.109	5485
2089.17	5394
2091.228	5522
2093.286	5495
2095.344	5566
2097.4	5434
2099.46	5510
2101.516	5509
2103.572	5504
2105.626	5494
2107.679	5449
2109.735	5444
2111.788	5450
2113.841	5533
2115.894	5446
2117.945	5446
2119.997	5463
2122.049	5436
2124.1	5481
2126.148	5502
2128.197	5431
2130.246	5446
2132.296	5380
2134.342	5465
2136.39	5463
2138.437	5550
2140.483	5488
2142.527	5475
2144.574	5520
2146.619	5471
2148.661	5420
2150.705	5401
2152.747	5509
2154.792	5304
2156.832	5517
2158.874	5481
2160.915	5428
2162.954	5381
2164.995	5380
2167.034	5493
2169.072	5404
2171.111	5396
2173.148	5476
2175.186	5407
2177.223	5441
2179.258	5294
2181.294	5493
2183.328	5389
2185.362	5406
2187.398	5340
2189.431	5351
2191.463	5335
2193.495	5416
2195.528	5396
2197.56	5308
2199.59	5363
2201.62	5280
2203.649	5310
2205.678	5310
2207.708	5419
2209.737	5353
2211.764	5275
2213.791	5382
2215.817	5344
2217.843	5319
2219.87	5291
2221.895	5447
2223.919	5362
2225.942	5316
2227.966	5252
2229.988	5279
2232.012	5256
2234.032	5369
2236.054	5320
2238.074	5315
2240.095	5342
2242.116	5311
2244.135	5338
2246.153	5320
2248.171	5372
2250.188	5266
2252.208	5344
2254.223	5421
2256.239	5360
2258.255	5331
2260.269	5369
2262.283	5408
2264.3	5274
2266.312	5284
2268.325	5327
2270.336	5251
2272.349	5317
2274.362	5168
2276.372	5264
2278.383	5273
2280.392	5217
2282.402	5327
2284.409	5337
2286.418	5352
2288.427	5223
2290.433	5384
2292.441	5333
2294.446	5321
2296.453	5296
2298.459	5346
2300.463	5262
2302.466	5363
2304.471	5318
2306.475	5367
2308.477	5432
2310.478	5217
2312.481	5311
2314.481	5188
2316.481	5242
2318.482	5237
2320.482	5325
2322.48	5185
2324.48	5352
2326.478	5230
2328.476	5238
2330.473	5199
2332.469	5324
2334.465	5275
2336.46	5177
2338.454	5130
2340.45	5274
2342.444	5188
2344.437	5100
2346.43	5272
2348.421	5222
2350.414	5206
2352.405	5209
2354.396	5277
2356.386	5218
2358.376	5305
2360.366	5129
2362.355	5218
2364.343	5224
2366.331	5159
2368.317	5357
2370.304	5187
2372.292	5149
2374.278	5059
2376.262	5187
2378.247	5148
2380.23	5155
2382.216	5179
2384.199	5050
2386.181	5076
2388.163	5163
2390.144	5059
2392.127	5043
2394.107	5091
2396.087	5070
2398.066	5104
2400.046	5195
2402.023	5159
2404.004	5086
2405.981	5106
2407.957	5134
2409.934	5142
2411.91	5119
2413.886	5133
2415.862	5151
2417.836	5077
2419.809	5095
2421.784	5123
2423.756	5193
2425.73	5169
2427.701	5088
2429.672	5096
2431.644	5123
2433.615	5126
2435.586	5142
2437.555	5066
2439.523	5172
2441.491	5137
2443.459	5155
2445.428	5132
2447.395	5029
2449.361	5056
2451.327	5067
2453.292	5101
2455.257	5019
2457.223	5249
2459.187	5064
2461.15	5046
2463.113	5038
2465.076	5060
2467.039	5048
2468.999	5060
2470.96	5005
2472.921	5078
2474.881	5031
2476.841	5048
2478.8	5152
2480.759	5088
2482.717	5006
2484.675	5122
2486.63	5007
2488.589	5054
2490.545	4961
2492.5	4972
2494.455	5079
2496.408	5046
2498.364	4981
2500.318	5079
2502.27	5035
2504.223	5062
2506.174	5001
2508.126	5015
2510.078	5049
2512.03	5071
2513.979	5091
2515.927	4986
2517.877	4936
2519.826	4937
2521.775	4924
2523.722	5016
2525.668	5017
2527.616	5086
2529.561	4996
2531.508	4967
2533.452	4916
2535.398	4922
2537.342	5029
2539.284	4984
2541.229	5087
2543.173	5051
2545.114	5063
2547.055	4945
2548.996	5008
2550.938	4913
2552.878	4990
2554.817	4924
2556.756	5014
2558.695	4987
2560.633	5049
2562.572	4947
2564.509	5087
2566.445	4928
2568.382	4940
2570.317	4946
2572.254	4935
2574.189	5038
2576.123	4998
2578.057	4978
2579.99	4989
2581.923	4963
2583.855	4967
2585.788	5036
2587.719	4951
2589.65	4976
2591.579	4940
2593.511	4915
2595.44	5074
2597.37	4905
2599.297	5071
2601.225	4936
2603.153	4927
2605.08	4925
2607.007	5056
2608.932	4982
2610.858	5007
2612.782	5019
2614.709	4971
2616.632	4961
2618.556	5096
2620.478	5062
2622.401	5063
2624.324	4980
2626.247	4971
2628.167	5014
2630.088	5072
2632.008	5141
2633.928	4970
2635.848	5036
2637.766	4900
2639.684	4976
2641.603	5038
2643.519	5022
2645.437	4980
2647.353	4964
2649.27	5010
2651.184	5085
2653.099	5002
2655.014	4990
2656.928	5062
2658.842	5037
2660.755	5030
2662.667	4993
2664.579	4987
2666.491	5055
2668.402	5059
2670.312	5052
2672.222	4957
2674.132	4894
2676.042	4911
2677.951	5059
2679.859	5036
2681.766	4864
2683.674	4886
2685.582	4857
2687.488	4938
2689.392	4926
2691.298	4987
2693.202	4928
2695.107	4898
2697.012	4958
2698.914	4910
2700.817	4843
2702.72	4912
2704.622	4858
2706.524	4982
2708.425	4868
2710.326	4860
2712.225	4877
2714.125	4952
2716.024	4919
2717.923	4927
2719.822	4829
2721.719	4909
2723.616	4956
2725.512	4963
2727.41	4991
2729.305	4851
2731.201	4903
2733.095	4828
2734.99	4875
2736.884	4908
2738.778	4790
2740.67	4927
2742.562	4862
2744.455	4897
2746.346	4916
2748.238	4848
2750.129	4890
2752.018	4892
2753.907	4879
2755.797	4884
2757.687	4944
2759.575	4833
2761.462	4937
2763.349	4830
2765.237	4927
2767.124	4939
2769.009	4840
2770.894	4832
2772.779	4866
2774.663	4889
2776.547	4872
2778.431	4876
2780.314	4972
2782.197	4887
2784.078	4938
2785.96	4987
2787.842	4792
2789.723	4796
2791.603	4900
2793.483	4870
2795.362	4849
2797.241	4846
2799.121	4836
2800.997	4834
2802.874	4895
2804.751	4846
2806.628	4755
2808.506	4854
2810.38	4839
2812.255	4858
2814.13	4847
2816.003	4936
2817.878	4827
2819.752	4869
2821.623	4963
2823.496	4933
2825.368	4861
2827.238	4903
2829.111	4850
2830.98	4866
2832.851	4856
2834.719	4893
2836.589	4882
2838.458	4981
2840.327	4919
2842.193	5052
2844.061	4933
2845.927	5031
2847.794	5002
2849.66	4884
2851.525	5050
2853.39	4965
2855.254	5010
2857.117	5017
2858.983	5109
2860.845	5180
2862.707	5107
2864.569	5182
2866.431	5277
2868.293	5182
2870.154	5305
2872.013	5367
2873.873	5353
2875.733	5382
2877.592	5550
2879.451	5641
2881.309	5599
2883.166	5762
2885.022	5644
2886.879	5665
2888.736	5767
2890.591	5781
2892.446	5855
2894.301	5766
2896.155	5799
2898.009	5897
2899.863	5882
2901.716	5767
2903.568	5939
2905.419	5816
2907.27	5803
2909.123	5788
2910.973	5775
2912.824	5928
2914.673	5816
2916.521	5981
2918.372	5962
2920.22	6081
2922.067	6121
2923.914	6086
2925.761	6251
2927.607	6300
2929.455	6266
2931.301	6332
2933.144	6330
2934.99	6386
2936.833	6378
2938.678	6700
2940.522	6729
2942.364	6750
2944.207	6806
2946.048	7013
2947.891	7108
2949.731	7127
2951.571	6977
2953.412	7171
2955.25	6948
2957.09	7017
2958.93	6864
2960.767	6843
2962.606	6639
2964.443	6736
2966.279	6686
2968.116	6511
2969.953	6276
2971.788	6273
2973.623	6113
2975.457	6022
2977.292	5861
2979.127	5895
2980.959	5887
2982.792	5659
2984.624	5688
2986.455	5696
2988.288	5614
2990.119	5690
2991.949	5423
2993.779	5586
2995.608	5464
2997.439	5389
2999.268	5405
3001.096	5243
3002.923	5369
3004.751	5188
3006.578	5115
3008.406	5136
3010.232	5085
3012.057	4983
3013.883	4992
3015.706	4909
3017.532	4913
3019.356	4935
3021.179	4838
3023.002	4844
3024.823	4737
3026.646	4709
3028.469	4736
3030.289	4636
3032.11	4666
3033.93	4719
3035.749	4675
3037.57	4683
3039.39	4722
3041.207	4687
3043.026	4691
3044.842	4748
3046.661	4704
3048.477	4761
3050.294	4718
3052.109	4684
3053.925	4658
3055.739	4677
3057.555	4741
3059.368	4630
3061.181	4638
3062.995	4764
3064.807	4795
3066.62	4602
3068.433	4710
3070.243	4675
3072.054	4656
3073.865	4628
3075.675	4687
3077.485	4658
3079.293	4662
3081.102	4590
3082.911	4497
3084.719	4533
3086.527	4565
3088.333	4539
3090.139	4537
3091.945	4587
3093.75	4580
3095.557	4531
3097.361	4519
3099.165	4509
3100.969	4497
3102.772	4499
3104.575	4484
3106.379	4454
3108.181	4437
3109.982	4494
3111.783	4432
3113.584	4465
3115.386	4399
3117.186	4526
3118.985	4463
3120.783	4421
3122.582	4443
3124.381	4476
3126.179	4422
3127.975	4473
3129.772	4442
3131.569	4452
3133.365	4396
3135.161	4429
3136.956	4416
3138.751	4382
3140.544	4370
3142.338	4456
3144.132	4344
3145.925	4482
3147.717	4311
3149.509	4383
3151.301	4353
3153.091	4415
3154.884	4342
3156.673	4265
3158.462	4338
3160.252	4391
3162.041	4409
3163.831	4421
3165.618	4327
3167.405	4336
3169.193	4422
3170.979	4317
3172.767	4277
3174.553	4307
3176.338	4349
3178.123	4388
3179.907	4401
3181.692	4347
3183.477	4400
3185.259	4262
3187.042	4300
3188.824	4302
3190.607	4329
3192.389	4341
3194.17	4337
3195.951	4337
3197.73	4310
3199.51	4266
3201.289	4360
3203.07	4417
3204.848	4364
3206.626	4279
3208.403	4355
3210.18	4295
3211.959	4332
3213.735	4290
3215.511	4331
3217.285	4326
3219.06	4354
3220.836	4399
3222.611	4296
3224.384	4400
3226.158	4317
3227.929	4357
3229.702	4311
3231.476	4301
3233.248	4331
3235.018	4268
3236.789	4377
3238.56	4345
3240.33	4388
3242.1	4288
3243.869	4247
3245.637	4399
3247.405	4339
3249.172	4274
3250.941	4340
3252.707	4359
3254.474	4351
3256.24	4409
3258.006	4330
3259.772	4350
3261.537	4382
3263.301	4405
3265.065	4295
3266.828	4347
3268.592	4285
3270.355	4319
3272.117	4265
3273.878	4325
3275.64	4357
3277.401	4339
3279.162	4329
3280.922	4259
3282.682	4328
3284.441	4445
3286.199	4288
3287.959	4283
3289.716	4375
3291.475	4311
3293.232	4364
3294.988	4339
3296.744	4369
3298.501	4236
3300.256	4364
3302.011	4301
3303.766	4310
3305.52	4296
3307.275	4276
3309.028	4302
3310.781	4210
3312.533	4276
3314.285	4202
3316.038	4281
3317.789	4283
3319.54	4210
3321.289	4239
3323.039	4337
3324.789	4270
3326.539	4242
3328.288	4225
3330.035	4343
3331.783	4244
3333.531	4306
3335.28	4244
3337.025	4243
3338.771	4268
3340.518	4113
3342.262	4220
3344.009	4268
3345.753	4128
3347.497	4312
3349.24	4127
3350.983	4280
3352.726	4175
3354.469	4271
3356.212	4176
3357.952	4277
3359.694	4231
3361.434	4153
3363.176	4231
3364.916	4205
3366.654	4135
3368.394	4188
3370.132	4170
3371.871	4191
3373.61	4136
3375.346	4156
3377.083	4152
3378.82	4160
3380.556	4160
3382.292	4199
3384.027	4040
3385.763	4095
3387.497	4150
3389.231	4143
3390.965	4198
3392.698	4084
3394.431	4105
3396.164	3998
3397.896	4106
3399.627	4021
3401.36	4036
3403.09	4135
3404.82	4102
3406.55	4077
3408.279	4080
3410.01	4169
3411.738	4032
3413.467	4013
3415.194	4027
3416.92	4150
3418.647	4033
3420.375	3960
3422.102	4154
3423.827	4023
3425.553	4110
3427.277	4003
3429.003	4075
3430.727	4004
3432.451	4015
3434.173	4048
3435.896	3991
3437.62	3908
3439.343	3990
3441.063	4009
3442.785	4034
3444.505	3938
3446.226	3990
3447.948	4018
3449.666	3945
3451.386	3928
3453.104	3910
3454.823	3902
3456.541	4007
3458.259	3965
3459.976	3892
3461.693	3894
3463.408	3877
3465.125	3847
3466.841	3852
3468.556	3866
3470.271	3869
3471.985	3884
3473.698	3968
3475.414	3746
3477.126	3772
3478.838	3863
3480.55	3826
3482.263	3814
3483.975	3864
3485.686	3865
3487.396	3828
3489.106	3833
3490.817	3805
3492.526	3851
3494.236	3850
3495.944	3853
3497.652	3812
3499.359	3830
3501.066	3774
3502.775	3748
3504.481	3825
3506.187	3721
3507.893	3767
3509.598	3701
3511.304	3759
3513.009	3761
3514.713	3709
3516.417	3775
3518.12	3764
3519.821	3771
3521.525	3726
3523.228	3696
3524.929	3708
3526.631	3695
3528.33	3634
3530.032	3675
3531.733	3740
3533.433	3723
3535.131	3627
3536.83	3635
3538.529	3655
3540.227	3728
3541.925	3682
3543.623	3623
3545.319	3571
3547.016	3676
3548.712	3648
3550.408	3653
3552.103	3638
3553.798	3638
3555.491	3651
3557.188	3608
3558.88	3644
3560.574	3644
3562.266	3547
3563.959	3577
3565.651	3570
3567.343	3603
3569.035	3616
3570.725	3614
3572.415	3567
3574.106	3525
3575.797	3558
3577.485	3595
3579.174	3587
3580.863	3567
3582.551	3509
3584.238	3533
3585.926	3521
3587.613	3509
3589.3	3519
3590.986	3481
3592.671	3478
3594.357	3473
3596.042	3524
3597.726	3496
3599.41	3440
3601.094	3480
3602.778	3439
3604.461	3494
3606.143	3423
3607.825	3458
3609.507	3405
3611.188	3380
3612.87	3441
3614.551	3429
3616.229	3397
3617.909	3473
3619.589	3416
3621.269	3407
3622.948	3416
3624.625	3314
3626.302	3479
3627.98	3315
3629.657	3311
3631.334	3372
3633.01	3314
3634.686	3447
3636.361	3375
3638.036	3362
3639.712	3248
3641.385	3331
3643.06	3394
3644.732	3265
3646.405	3320
3648.08	3333
3649.751	3405
3651.424	3315
3653.094	3273
3654.766	3332
3656.436	3322
3658.106	3332
3659.777	3325
3661.446	3277
3663.115	3209
3664.783	3236
3666.452	3316
3668.121	3264
3669.788	3200
3671.454	3226
3673.121	3301
3674.789	3275
3676.455	3300
3678.12	3239
3679.784	3271
3681.45	3234
3683.114	3216
3684.779	3233
3686.442	3307
3688.105	3188
3689.768	3208
3691.43	3292
3693.093	3163
3694.754	3171
3696.415	3209
3698.076	3246
3699.736	3201
3701.396	3152
3703.057	3226
3704.716	3215
3706.375	3236
3708.034	3203
3709.692	3231
3711.351	3207
3713.008	3194
3714.665	3187
3716.321	3131
3717.977	3178
3719.634	3192
3721.29	3143
3722.945	3207
3724.598	3161
3726.253	3212
3727.907	3204
3729.561	3138
3731.214	3217
3732.867	3150
3734.518	3101
3736.171	3119
3737.824	3215
3739.474	3048
3741.125	3055
3742.775	3132
3744.425	3169
3746.074	3124
3747.725	3094
3749.373	3172
3751.022	3109
3752.669	3124
3754.318	3167
3755.966	3069
3757.612	3160
3759.259	3034
3760.905	3158
3762.55	3053
3764.197	3132
3765.842	3058
3767.486	3126
3769.131	3133
3770.774	3118
3772.417	3037
3774.061	3065
3775.705	3130
3777.347	3031
3778.988	3047
3780.629	3055
3782.271	3067
3783.912	3080
3785.552	3068
3787.192	3095
3788.831	3057
3790.472	3055
3792.112	3130
3793.75	3050
3795.388	3000
3797.024	3068
3798.661	3037
3800.3	3103
3801.936	2979
3803.572	3038
3805.208	3031
3806.844	3087
3808.48	3069
3810.115	3014
3811.748	3027
3813.382	3021
3815.016	3029
3816.649	3086
3818.283	3006
3819.914	3083
3821.547	3085
3823.178	2990
3824.809	2990
3826.441	3013
3828.072	2956
3829.701	3047
3831.331	2967
3832.96	3012
3834.591	2929
3836.219	2961
3837.847	2993
3839.475	2989
3841.102	2973
3842.729	2919
3844.357	2905
3845.984	2932
3847.609	3012
3849.234	2968
3850.86	2901
3852.485	2966
3854.11	2902
3855.734	2916
3857.357	2924
3858.981	2924
3860.603	2892
3862.227	3002
3863.848	2930
3865.471	2886
3867.092	2901
3868.713	2884
3870.334	2870
3871.954	2938
3873.575	2913
3875.194	2943
3876.813	2891
3878.433	2899
3880.051	2856
3881.669	2925
3883.286	2928
3884.904	2905
3886.52	2804
3888.138	2896
3889.754	2839
3891.37	2869
3892.985	2843
3894.6	2790
3896.216	2906
3897.831	2830
3899.444	2846
3901.058	2890
3902.67	2854
3904.283	2819
3905.897	2857
3907.509	2880
3909.121	2862
3910.731	2826
3912.342	2839
3913.954	2852
3915.563	2910
3917.174	2785
3918.783	2865
3920.391	2862
3922.002	2851
3923.611	2827
3925.218	2876
3926.826	2867
3928.432	2887
3930.039	2769
3931.647	2882
3933.253	2852
3934.859	2764
3936.464	2820
3938.068	2779
3939.675	2832
3941.278	2796
3942.883	2830
3944.486	2841
3946.089	2803
3947.692	2710
3949.295	2767
3950.898	2785
3952.499	2780
3954.1	2765
3955.7	2829
3957.303	2848
3958.903	2742
3960.502	2831
3962.101	2782
3963.7	2767
3965.301	2815
3966.899	2782
3968.497	2702
3970.094	2829
3971.691	2823
3973.288	2727
3974.885	2662
3976.481	2759
3978.077	2698
3979.672	2792
3981.267	2702
3982.863	2730
3984.457	2723
3986.051	2709
3987.645	2691
3989.238	2718
3990.831	2734
3992.425	2763
3994.017	2744
3995.607	2708
3997.199	2683
3998.79	2723
4000.382	2634
4001.973	2687
4003.561	2725
4005.151	2728
4006.741	2733
4008.331	2725
4009.918	2747
4011.507	2629
4013.095	2725
4014.681	2630
4016.269	2682
4017.856	2676
4019.443	2726
4021.028	2651
4022.614	2677
4024.199	2622
4025.785	2684
4027.37	2656
4028.953	2696
4030.536	2616
4032.12	2657
4033.704	2677
4035.287	2602
4036.869	2583
4038.45	2635
4040.032	2643
4041.613	2589
4043.195	2644
4044.776	2636
4046.356	2609
4047.935	2609
4049.515	2609
4051.095	2564
4052.674	2595
4054.251	2566
4055.829	2587
4057.406	2665
4058.985	2656
4060.562	2588
4062.139	2599
4063.715	2567
4065.29	2599
4066.865	2566
4068.442	2590
4070.016	2574
4071.59	2539
4073.164	2617
4074.738	2575
4076.312	2569
4077.885	2542
4079.458	2530
4081.03	2633
4082.602	2595
4084.173	2559
4085.745	2550
4087.315	2621
4088.886	2545
4090.456	2565
4092.026	2510
4093.596	2519
4095.165	2596
4096.734	2554
4098.301	2524
4099.869	2503
4101.437	2576
4103.006	2510
4104.572	2558
4106.139	2509
4107.704	2576
4109.27	2505
4110.837	2529
4112.401	2467
4113.966	2535
4115.53	2489
4117.094	2537
4118.659	2566
4120.223	2389
4121.785	2498
4123.347	2497
4124.909	2532
4126.471	2461
4128.034	2476
4129.595	2471
4131.155	2500
4132.716	2508
4134.275	2450
4135.836	2483
4137.395	2431
4138.955	2401
4140.513	2468
4142.071	2478
4143.628	2524
4145.188	2392
4146.745	2474
4148.302	2468
4149.858	2462
4151.414	2521
4152.971	2473
4154.526	2424
4156.081	2521
4157.635	2449
4159.189	2439
4160.745	2438
4162.298	2430
4163.852	2460
4165.405	2438
4166.957	2386
4168.51	2376
4170.063	2447
4171.614	2399
4173.166	2417
4174.717	2421
4176.267	2377
4177.817	2367
4179.368	2419
4180.917	2361
4182.466	2433
4184.016	2361
4185.564	2358
4187.112	2405
4188.66	2386
4190.207	2354
4191.754	2388
4193.301	2334
4194.848	2354
4196.394	2324
4197.94	2362
4199.484	2348
4201.03	2329
4202.575	2366
4204.12	2345
4205.663	2393
4207.207	2341
4208.75	2388
4210.292	2396
4211.836	2345
4213.378	2347
4214.92	2311
4216.46	2315
4218.002	2330
4219.544	2361
4221.083	2360
4222.625	2352
4224.164	2299
4225.703	2329
4227.244	2354
4228.782	2283
4230.32	2331
4231.857	2328
4233.395	2308
4234.933	2302
4236.471	2335
4238.007	2325
4239.542	2255
4241.078	2267
4242.614	2346
4244.15	2329
4245.685	2284
4247.219	2243
4248.753	2304
4250.287	2318
4251.82	2371
4253.354	2326
4254.887	2320
4256.419	2325
4257.951	2371
4259.483	2284
4261.016	2262
4262.547	2319
4264.078	2291
4265.608	2304
4267.137	2262
4268.668	2230
4270.197	2279
4271.727	2270
4273.254	2213
4274.783	2290
4276.311	2253
4277.84	2281
4279.366	2202
4280.894	2222
4282.42	2234
4283.946	2252
4285.473	2272
4286.998	2257
4288.523	2286
4290.047	2319
4291.572	2226
4293.096	2250
4294.622	2202
4296.144	2235
4297.668	2264
4299.19	2206
4300.713	2275
4302.236	2216
4303.758	2199
4305.279	2167
4306.799	2173
4308.321	2223
4309.842	2195
4311.361	2210
4312.882	2188
4314.401	2229
