400.0961	4064
402.6185	4022
405.1424	4078
407.6635	4088
410.1838	4005
412.7035	4079
415.2225	4147
417.7388	4196
420.2585	4091
422.7754	4141
425.2917	4195
427.8072	4223
430.3221	4321
432.8363	4337
435.3498	4208
437.8626	4323
440.3727	4318
442.8841	4330
445.3969	4318
447.907	4397
450.4142	4368
452.9229	4331
455.4289	4322
457.9362	4377
460.4449	4368
462.9488	4342
465.454	4341
467.9566	4280
470.4604	4228
472.9637	4265
475.4662	4333
477.966	4386
480.4671	4261
482.9656	4370
485.4633	4402
487.9645	4318
490.4608	4385
492.9566	4406
495.4536	4376
497.948	4438
500.4437	4406
502.9387	4455
505.431	4529
507.9226	4455
510.4136	4525
512.9079	4487
515.3975	4421
517.8864	4504
520.3746	4404
522.8622	4469
525.3491	4439
527.8394	4450
530.3249	4486
532.8098	4490
535.2939	4550
537.7774	4470
540.2623	4517
542.7444	4472
545.2259	4550
547.7067	4491
550.1868	4475
552.6683	4561
555.147	4572
557.6231	4537
560.1005	4595
562.5773	4615
565.0534	4543
567.5308	4632
570.0056	4591
572.4776	4596
574.951	4663
577.4237	4650
579.8978	4719
582.3671	4689
584.8378	4667
587.3079	4728
589.7773	4659
592.244	4742
594.714	4750
597.1793	4713
599.6461	4747
602.1121	4619
604.5754	4627
607.0421	4661
609.5042	4650
611.9675	4676
614.4282	4717
616.8902	4592
619.3515	4625
621.8122	4610
624.2702	4639
626.7296	4703
629.1863	4599
631.6423	4626
634.1017	4629
636.5563	4561
639.0104	4726
641.4658	4657
643.9185	4674
646.3725	4616
648.8239	4675
651.2766	4753
653.7266	4827
656.176	4716
658.6247	4727
661.0748	4699
663.5242	4800
665.9709	4789
668.417	4751
670.8624	4765
673.3092	4771
675.7533	4823
678.1968	4837
680.6395	4819
683.0817	4759
685.5251	4821
687.9659	4856
690.4061	4867
692.8456	4901
695.2844	4742
697.7226	4934
700.1621	4851
702.599	4902
705.0332	4869
707.4688	4840
709.9036	5006
712.3399	4823
714.7735	4880
717.2044	4940
719.6367	4977
722.0683	4842
724.4993	4974
726.9296	4911
729.3593	4978
731.7883	5070
734.2147	5020
736.6423	4972
739.0714	4923
741.4958	5108
743.9216	5068
746.3447	5029
748.7691	5050
751.1929	5152
753.616	5158
756.0366	5025
758.4584	5106
760.8776	5193
763.2982	5059
765.718	5193
768.1373	5258
770.5539	5175
772.9698	5140
775.3871	5190
777.8038	5151
780.2178	5114
782.6332	5120
785.0459	5309
787.458	5218
789.8714	5142
792.2842	5172
794.6943	5181
797.1038	5270
799.5127	5109
801.9209	5232
804.3324	5212
806.7393	5231
809.1456	5249
811.5513	5210
813.9562	5194
816.3625	5200
818.7663	5235
821.1693	5331
823.5718	5288
825.9735	5243
828.3746	5269
830.7771	5203
833.177	5234
835.5762	5168
837.9747	5336
840.3727	5292
842.772	5270
845.1666	5400
847.5626	5388
849.958	5418
852.3527	5377
854.7488	5369
857.1403	5313
859.5331	5519
861.9253	5440
864.3168	5369
866.7057	5365
869.098	5442
871.4876	5332
873.8746	5237
876.263	5355
878.6487	5401
881.0378	5414
883.4243	5368
885.8081	5376
888.1933	5339
890.5759	5416
892.9598	5415
895.343	5432
897.7256	5376
900.1057	5405
902.4871	5311
904.8659	5386
907.246	5461
909.6254	5505
912.0023	5415
914.3786	5577
916.7562	5586
919.1331	5615
921.5074	5737
923.8831	5789
926.2562	5754
928.6287	5692
931.0005	5731
933.3757	5768
935.7462	5740
938.1162	5640
940.4855	5735
942.8542	5855
945.2242	5834
947.5916	5812
949.9584	5988
952.3266	6079
954.6921	6325
957.0571	6462
959.4233	6580
961.787	6695
964.15	6623
966.5125	6561
968.8742	6347
971.2354	6107
973.5959	6004
975.9559	5818
978.3151	5822
980.6738	5730
983.0338	5645
985.3912	5580
987.7461	5582
990.1022	5563
992.4578	5566
994.8127	5651
997.1689	5466
999.5207	5598
1001.874	5684
1004.226	5664
1006.576	5581
1008.929	5631
1011.28	5627
1013.628	5604
1015.977	5587
1018.324	5512
1020.674	5663
1023.019	5676
1025.366	5616
1027.713	5658
1030.056	5618
1032.399	5648
1034.746	5652
1037.087	5686
1039.431	5675
1041.771	5641
1044.113	5645
1046.454	5691
1048.793	5715
1051.133	5578
1053.471	5663
1055.807	5681
1058.146	5668
1060.483	5728
1062.818	5846
1065.153	5765
1067.489	5826
1069.822	5697
1072.156	5832
1074.488	5717
1076.82	5734
1079.15	5805
1081.48	5723
1083.814	5655
1086.143	5703
1088.471	5784
1090.799	5721
1093.126	5669
1095.452	5745
1097.78	5738
1100.105	5637
1102.43	5769
1104.754	5731
1107.077	5692
1109.4	5683
1111.722	5775
1114.044	5690
1116.365	5686
1118.685	5646
1121.005	5804
1123.324	5787
1125.643	5803
1127.961	5857
1130.278	5868
1132.595	5809
1134.911	5773
1137.226	5677
1139.541	5732
1141.854	5676
1144.167	5773
1146.482	5712
1148.793	5706
1151.105	5726
1153.414	5731
1155.725	5749
1158.033	5838
1160.344	5670
1162.651	5860
1164.959	5663
1167.265	5818
1169.572	5711
1171.878	5741
1174.184	5781
1176.488	5764
1178.79	5847
1181.094	5856
1183.396	5684
1185.699	5799
1188.001	5825
1190.301	5746
1192.6	5743
1194.9	5758
1197.2	5852
1199.497	5750
1201.794	5799
1204.09	5804
1206.387	5749
1208.684	5751
1210.978	5914
1213.272	5863
1215.565	5723
1217.858	5729
1220.15	5875
1222.443	5799
1224.734	5782
1227.024	5823
1229.313	5810
1231.602	5902
1233.892	5912
1236.18	5884
1238.467	5904
1240.754	5983
1243.04	5872
1245.325	6066
1247.612	5945
1249.896	6075
1252.178	6067
1254.461	6032
1256.743	5974
1259.027	5908
1261.308	5947
1263.587	6039
1265.867	6043
1268.146	5911
1270.425	5999
1272.703	6029
1274.981	6094
1277.256	5962
1279.532	5977
1281.808	6010
1284.083	5882
1286.358	5963
1288.63	5971
1290.904	5923
1293.175	5904
1295.449	6008
1297.719	5921
1299.99	5863
1302.259	5894
1304.529	5813
1306.798	5901
1309.065	5897
1311.333	5873
1313.599	5961
1315.866	5901
1318.131	5996
1320.396	5910
1322.66	5983
1324.925	5987
1327.187	6023
1329.448	6025
1331.711	6046
1333.974	6144
1336.234	5953
1338.493	6024
1340.752	5901
1343.01	5972
1345.269	5893
1347.526	6017
1349.784	5994
1352.04	5925
1354.295	5869
1356.552	5902
1358.806	5853
1361.059	5912
1363.312	5847
1365.564	5941
1367.818	5973
1370.069	5919
1372.318	5907
1374.568	5928
1376.817	5939
1379.066	6024
1381.316	5972
1383.564	5980
1385.809	6051
1388.056	5952
1390.301	5994
1392.549	6113
1394.793	6224
1397.036	6322
1399.279	6200
1401.522	6278
1403.763	6270
1406.007	6230
1408.248	6103
1410.487	6125
1412.727	6287
1414.965	6244
1417.205	6197
1419.442	6190
1421.68	6127
1423.915	6182
1426.152	6157
1428.388	6227
1430.623	6176
1432.857	6107
1435.091	6179
1437.323	6198
1439.556	6238
1441.789	6262
1444.019	6195
1446.25	6126
1448.48	6272
1450.708	6349
1452.938	6371
1455.167	6181
1457.394	6337
1459.62	6267
1461.846	6295
1464.073	6313
1466.299	6137
1468.523	6290
1470.746	6175
1472.969	6131
1475.191	6078
1477.415	6164
1479.636	5920
1481.858	5996
1484.078	6081
1486.298	5992
1488.518	6112
1490.736	6026
1492.954	5899
1495.169	5899
1497.386	5906
1499.602	5971
1501.819	5869
1504.034	6017
1506.248	5897
1508.462	5954
1510.675	5963
1512.888	5943
1515.1	5853
1517.311	5976
1519.522	5966
1521.732	5863
1523.942	5980
1526.151	5908
1528.36	5975
1530.566	5967
1532.773	5904
1534.98	5844
1537.187	5955
1539.392	5926
1541.596	5982
1543.801	5949
1546.005	5868
1548.208	5992
1550.411	5978
1552.612	5939
1554.814	6074
1557.013	6004
1559.212	6105
1561.414	6066
1563.612	5992
1565.811	6096
1568.007	6050
1570.203	6037
1572.403	6185
1574.598	6098
1576.792	6085
1578.988	6156
1581.181	6141
1583.376	6185
1585.568	6105
1587.761	6122
1589.952	6175
1592.143	6073
1594.333	6119
1596.524	6157
1598.715	6084
1600.903	6207
1603.091	6204
1605.278	5919
1607.466	6078
1609.652	6176
1611.838	6216
1614.023	6169
1616.207	6194
1618.391	6208
1620.576	6275
1622.759	6184
1624.941	6239
1627.123	6172
1629.304	6178
1631.484	6244
1633.664	6223
1635.844	6075
1638.022	6291
1640.201	6305
1642.38	6174
1644.556	6273
1646.732	6149
1648.908	6196
1651.084	6288
1653.257	6258
1655.433	6231
1657.607	6208
1659.779	6333
1661.951	6164
1664.122	6199
1666.295	6235
1668.467	6283
1670.635	6263
1672.805	6197
1674.973	6260
1677.142	6328
1679.31	6218
1681.478	6288
1683.644	6274
1685.81	6267
1687.975	6189
1690.142	6227
1692.305	6225
1694.468	6269
1696.632	6162
1698.794	6245
1700.957	6134
1703.119	6172
1705.279	6087
1707.439	6167
1709.598	6215
1711.758	6171
1713.917	6103
1716.075	6101
1718.231	6113
1720.388	6129
1722.543	5989
1724.702	6134
1726.856	6018
1729.01	6076
1731.164	6140
1733.317	6125
1735.471	6097
1737.623	6030
1739.774	6133
1741.925	6095
1744.075	6089
1746.225	6203
1748.376	6139
1750.524	6183
1752.672	6112
1754.82	6140
1756.965	6216
1759.113	6006
1761.259	6114
1763.405	6241
1765.549	6248
1767.694	6074
1769.836	6200
1771.981	6131
1774.123	6119
1776.264	6000
1778.405	6290
1780.546	6141
1782.687	6253
1784.827	6089
1786.966	6272
1789.103	6102
1791.242	6254
1793.381	6223
1795.517	6154
1797.653	6123
1799.788	6122
1801.923	6256
1804.057	6128
1806.193	6217
1808.326	6296
1810.457	6222
1812.59	6006
1814.721	6288
1816.855	6148
1818.984	6137
1821.113	6240
1823.244	6085
1825.372	6235
1827.499	6194
1829.63	6123
1831.756	6130
1833.882	6172
1836.007	6151
1838.132	6129
1840.26	6130
1842.384	6180
1844.507	6107
1846.63	6195
1848.752	6137
1850.875	6159
1852.996	6079
1855.118	6147
1857.238	6119
1859.358	6077
1861.477	6149
1863.597	6128
1865.715	6047
1867.832	6152
1869.948	6115
1872.064	6034
1874.181	6042
1876.297	6144
1878.411	6086
1880.526	6196
1882.639	6133
1884.752	6058
1886.865	6136
1888.977	6178
1891.089	6115
1893.2	6158
1895.308	6086
1897.42	6142
1899.53	6144
1901.639	6090
1903.745	6146
1905.853	6139
1907.962	6252
1910.067	6229
1912.174	6344
1914.278	6254
1916.383	6118
1918.486	6201
1920.592	6206
1922.694	6151
1924.797	6167
1926.898	6258
1929	6154
1931.102	6245
1933.203	6252
1935.301	6238
1937.401	6130
1939.499	6282
1941.598	6267
1943.697	6345
1945.793	6126
1947.888	6237
1949.985	6202
1952.08	6240
1954.176	6171
1956.269	6224
1958.364	6220
1960.457	6231
1962.549	6184
1964.642	6138
1966.733	6184
1968.823	6229
1970.913	6182
1973.005	6273
1975.093	6135
1977.184	6204
1979.271	6181
1981.359	6220
1983.446	6145
1985.532	6240
1987.619	6200
1989.705	6161
1991.789	6133
1993.874	6223
1995.956	6196
1998.041	6110
2000.123	6115
2002.206	6216
2004.287	6194
2006.368	6111
2008.449	6230
2010.529	6091
2012.609	6145
2014.688	6126
2016.766	6179
2018.843	6067
2020.922	6135
2022.999	6108
2025.074	6144
2027.15	6178
2029.225	6122
2031.299	6166
2033.375	6061
2035.447	6153
2037.52	6080
2039.592	6148
2041.664	6177
2043.736	6146
2045.807	6104
2047.876	5981
2049.947	6175
2052.015	6058
2054.086	6183
2056.153	6111
2058.221	6134
2060.288	6265
2062.353	6215
2064.42	6215
2066.486	6150
2068.55	6162
2070.614	6155
2072.678	6168
2074.741	6079
2076.805	6181
2078.866	6186
2080.929	6130
2082.99	6165
2085.049	6160
2087.109	6175
2089.17	6040
2091.228	6147
2093.286	6117
2095.344	6200
2097.4	6197
2099.46	6127
2101.516	6137
2103.572	6150
2105.626	6145
2107.679	6145
2109.735	6143
2111.788	6037
2113.841	6263
2115.894	6048
2117.945	6130
2119.997	6120
2122.049	6054
2124.1	6060
2126.148	6196
2128.197	6161
2130.246	6143
2132.296	6062
2134.342	6182
2136.39	6080
2138.437	6123
2140.483	6120
2142.527	6027
2144.574	6102
2146.619	6043
2148.661	6143
2150.705	6084
2152.747	6029
2154.792	5984
2156.832	6006
2158.874	6083
2160.915	6053
2162.954	6051
2164.995	6049
2167.034	6145
2169.072	6037
2171.111	5925
2173.148	5907
2175.186	6127
2177.223	6153
2179.258	6025
2181.294	5945
2183.328	6097
2185.362	6041
2187.398	5979
2189.431	6053
2191.463	6004
2193.495	6079
2195.528	6022
2197.56	5961
2199.59	5864
2201.62	5877
2203.649	5918
2205.678	6030
2207.708	6002
2209.737	5871
2211.764	5924
2213.791	5881
2215.817	5951
2217.843	5976
2219.87	5950
2221.895	5914
2223.919	5908
2225.942	5897
2227.966	6042
2229.988	5989
2232.012	5882
2234.032	5974
2236.054	5831
2238.074	5946
2240.095	5921
2242.116	5953
2244.135	6033
2246.153	6063
2248.171	5912
2250.188	5903
2252.208	5869
2254.223	6001
2256.239	5970
2258.255	6025
2260.269	5988
2262.283	6050
2264.3	5900
2266.312	5875
2268.325	5867
2270.336	6013
2272.349	5878
2274.362	5932
2276.372	5794
2278.383	5952
2280.392	5880
2282.402	5933
2284.409	5930
2286.418	5953
2288.427	5933
2290.433	5815
2292.441	5910
2294.446	5894
2296.453	5884
2298.459	5937
2300.463	5885
2302.466	5824
2304.471	5848
2306.475	5919
2308.477	5902
2310.478	5953
2312.481	5918
2314.481	5930
2316.481	5875
2318.482	5814
2320.482	5746
2322.48	5828
2324.48	5806
2326.478	5729
2328.476	5811
2330.473	5853
2332.469	5871
2334.465	5838
2336.46	5788
2338.454	5901
2340.45	5813
2342.444	5809
2344.437	5809
2346.43	5887
2348.421	5665
2350.414	5768
2352.405	5726
2354.396	5703
2356.386	5854
2358.376	5823
2360.366	5866
2362.355	5891
2364.343	5790
2366.331	5782
2368.317	5713
2370.304	5670
2372.292	5719
2374.278	5767
2376.262	5742
2378.247	5633
2380.23	5725
2382.216	5787
2384.199	5653
2386.181	5767
2388.163	5800
2390.144	5774
2392.127	5694
2394.107	5731
2396.087	5719
2398.066	5770
2400.046	5673
2402.023	5635
2404.004	5744
2405.981	5739
2407.957	5743
2409.934	5674
2411.91	5679
2413.886	5650
2415.862	5682
2417.836	5730
2419.809	5583
2421.784	5640
2423.756	5636
2425.73	5728
2427.701	5744
2429.672	5729
2431.644	5627
2433.615	5721
2435.586	5698
2437.555	5670
2439.523	5738
2441.491	5673
2443.459	5763
2445.428	5672
2447.395	5613
2449.361	5859
2451.327	5715
2453.292	5570
2455.257	5728
2457.223	5627
2459.187	5696
2461.15	5624
2463.113	5591
2465.076	5758
2467.039	5609
2468.999	5641
2470.96	5553
2472.921	5705
2474.881	5751
2476.841	5607
2478.8	5549
2480.759	5555
2482.717	5620
2484.675	5677
2486.63	5526
2488.589	5596
2490.545	5585
2492.5	5647
2494.455	5574
2496.408	5578
2498.364	5684
2500.318	5496
2502.27	5573
2504.223	5585
2506.174	5640
2508.126	5619
2510.078	5594
2512.03	5574
2513.979	5470
2515.927	5464
2517.877	5507
2519.826	5494
2521.775	5608
2523.722	5593
2525.668	5549
2527.616	5530
2529.561	5558
2531.508	5518
2533.452	5616
2535.398	5582
2537.342	5454
2539.284	5489
2541.229	5514
2543.173	5501
2545.114	5435
2547.055	5634
2548.996	5453
2550.938	5511
2552.878	5484
2554.817	5521
2556.756	5533
2558.695	5492
2560.633	5496
2562.572	5534
2564.509	5510
2566.445	5610
2568.382	5559
2570.317	5580
2572.254	5482
2574.189	5637
2576.123	5538
2578.057	5452
2579.99	5582
2581.923	5411
2583.855	5606
2585.788	5576
2587.719	5519
2589.65	5592
2591.579	5484
2593.511	5535
2595.44	5676
2597.37	5592
2599.297	5587
2601.225	5479
2603.153	5491
2605.08	5553
2607.007	5531
2608.932	5669
2610.858	5481
2612.782	5594
2614.709	5468
2616.632	5584
2618.556	5487
2620.478	5517
2622.401	5569
2624.324	5443
2626.247	5597
2628.167	5559
2630.088	5515
2632.008	5465
2633.928	5430
2635.848	5642
2637.766	5581
2639.684	5613
2641.603	5553
2643.519	5527
2645.437	5599
2647.353	5535
2649.27	5489
2651.184	5505
2653.099	5469
2655.014	5572
2656.928	5538
2658.842	5492
2660.755	5391
2662.667	5491
2664.579	5572
2666.491	5426
2668.402	5479
2670.312	5559
2672.222	5460
2674.132	5531
2676.042	5511
2677.951	5490
2679.859	5522
2681.766	5540
2683.674	5389
2685.582	5562
2687.488	5427
2689.392	5513
2691.298	5509
2693.202	5411
2695.107	5490
2697.012	5409
2698.914	5415
2700.817	5522
2702.72	5386
2704.622	5431
2706.524	5447
2708.425	5401
2710.326	5371
2712.225	5445
2714.125	5396
2716.024	5438
2717.923	5412
2719.822	5405
2721.719	5383
2723.616	5343
2725.512	5314
2727.41	5459
2729.305	5396
2731.201	5340
2733.095	5376
2734.99	5462
2736.884	5453
2738.778	5441
2740.67	5456
2742.562	5294
2744.455	5331
2746.346	5456
2748.238	5263
2750.129	5327
2752.018	5392
2753.907	5336
2755.797	5310
2757.687	5358
2759.575	5373
2761.462	5358
2763.349	5387
2765.237	5474
2767.124	5304
2769.009	5365
2770.894	5322
2772.779	5336
2774.663	5357
2776.547	5295
2778.431	5265
2780.314	5372
2782.197	5324
2784.078	5319
2785.96	5378
2787.842	5312
2789.723	5318
2791.603	5343
2793.483	5301
2795.362	5308
2797.241	5269
2799.121	5302
2800.997	5347
2802.874	5292
2804.751	5308
2806.628	5262
2808.506	5287
2810.38	5238
2812.255	5198
2814.13	5267
2816.003	5387
2817.878	5332
2819.752	5250
2821.623	5291
2823.496	5249
2825.368	5285
2827.238	5273
2829.111	5353
2830.98	5380
2832.851	5351
2834.719	5271
2836.589	5315
2838.458	5333
2840.327	5353
2842.193	5351
2844.061	5357
2845.927	5329
2847.794	5278
2849.66	5276
2851.525	5355
2853.39	5359
2855.254	5453
2857.117	5374
2858.983	5399
2860.845	5407
2862.707	5470
2864.569	5407
2866.431	5483
2868.293	5425
2870.154	5449
2872.013	5624
2873.873	5598
2875.733	5674
2877.592	5729
2879.451	5746
2881.309	5760
2883.166	5771
2885.022	5798
2886.879	5821
2888.736	5798
2890.591	5855
2892.446	5933
2894.301	5948
2896.155	5852
2898.009	5840
2899.863	5970
2901.716	5810
2903.568	5866
2905.419	5768
2907.27	5824
2909.123	5809
2910.973	5840
2912.824	5899
2914.673	5957
2916.521	5874
2918.372	6007
2920.22	6075
2922.067	5863
2923.914	6177
2925.761	6177
2927.607	6135
2929.455	6199
2931.301	6268
2933.144	6277
2934.99	6276
2936.833	6247
2938.678	6373
2940.522	6327
2942.364	6499
2944.207	6449
2946.048	6594
2947.891	6867
2949.731	6662
2951.571	6712
2953.412	6579
2955.25	6597
2957.09	6497
2958.93	6477
2960.767	6533
2962.606	6426
2964.443	6425
2966.279	6346
2968.116	6237
2969.953	6187
2971.788	6072
2973.623	6089
2975.457	6026
2977.292	5972
2979.127	5908
2980.959	5843
2982.792	5889
2984.624	5771
2986.455	5729
2988.288	5714
2990.119	5590
2991.949	5538
2993.779	5602
2995.608	5633
2997.439	5517
2999.268	5527
3001.096	5515
3002.923	5425
3004.751	5420
3006.578	5430
3008.406	5372
3010.232	5457
3012.057	5300
3013.883	5274
3015.706	5233
3017.532	5141
3019.356	5131
3021.179	5113
3023.002	5119
3024.823	5131
3026.646	5114
3028.469	5022
3030.289	5062
3032.11	5036
3033.93	5067
3035.749	5060
3037.57	5063
3039.39	5038
3041.207	4989
3043.026	5075
3044.842	5053
3046.661	5022
3048.477	4982
3050.294	5022
3052.109	4993
3053.925	4992
3055.739	4965
3057.555	5071
3059.368	4980
3061.181	4900
3062.995	4905
3064.807	5031
3066.62	4869
3068.433	5043
3070.243	5027
3072.054	4943
3073.865	4887
3075.675	4955
3077.485	4927
3079.293	4972
3081.102	4900
3082.911	4952
3084.719	4907
3086.527	4896
3088.333	4868
3090.139	4944
3091.945	4885
3093.75	4856
3095.557	4875
3097.361	4859
3099.165	4803
3100.969	4769
3102.772	4849
3104.575	4814
3106.379	4797
3108.181	4816
3109.982	4881
3111.783	4856
3113.584	4811
3115.386	4765
3117.186	4695
3118.985	4839
3120.783	4731
3122.582	4810
3124.381	4698
3126.179	4667
3127.975	4811
3129.772	4637
3131.569	4724
3133.365	4697
3135.161	4753
3136.956	4682
3138.751	4628
3140.544	4786
3142.338	4655
3144.132	4650
3145.925	4661
3147.717	4687
3149.509	4786
3151.301	4738
3153.091	4652
3154.884	4564
3156.673	4715
3158.462	4692
3160.252	4745
3162.041	4591
3163.831	4585
3165.618	4609
3167.405	4705
3169.193	4687
3170.979	4628
3172.767	4703
3174.553	4588
3176.338	4699
3178.123	4720
3179.907	4572
3181.692	4635
3183.477	4617
3185.259	4620
3187.042	4684
3188.824	4633
3190.607	4671
3192.389	4590
3194.17	4696
3195.951	4745
3197.73	4584
3199.51	4579
3201.289	4658
3203.07	4652
3204.848	4653
3206.626	4635
3208.403	4609
3210.18	4598
3211.959	4538
3213.735	4592
3215.511	4600
3217.285	4606
3219.06	4634
3220.836	4588
3222.611	4535
3224.384	4701
3226.158	4601
3227.929	4528
3229.702	4541
3231.476	4584
3233.248	4587
3235.018	4605
3236.789	4580
3238.56	4637
3240.33	4576
3242.1	4586
3243.869	4660
3245.637	4631
3247.405	4531
3249.172	4677
3250.941	4551
3252.707	4617
3254.474	4545
3256.24	4562
3258.006	4586
3259.772	4623
3261.537	4576
3263.301	4590
3265.065	4576
3266.828	4564
3268.592	4631
3270.355	4662
3272.117	4591
3273.878	4493
3275.64	4482
3277.401	4528
3279.162	4524
3280.922	4632
3282.682	4600
3284.441	4587
3286.199	4478
3287.959	4578
3289.716	4559
3291.475	4471
3293.232	4553
3294.988	4669
3296.744	4589
3298.501	4535
3300.256	4575
3302.011	4528
3303.766	4565
3305.52	4671
3307.275	4517
3309.028	4563
3310.781	4528
3312.533	4498
3314.285	4570
3316.038	4480
3317.789	4527
3319.54	4568
3321.289	4546
3323.039	4588
3324.789	4519
3326.539	4516
3328.288	4570
3330.035	4521
3331.783	4449
3333.531	4558
3335.28	4467
3337.025	4577
3338.771	4534
3340.518	4489
3342.262	4539
3344.009	4507
3345.753	4514
3347.497	4455
3349.24	4479
3350.983	4466
3352.726	4471
3354.469	4445
3356.212	4458
3357.952	4522
3359.694	4448
3361.434	4474
3363.176	4455
3364.916	4388
3366.654	4369
3368.394	4477
3370.132	4428
3371.871	4491
3373.61	4408
3375.346	4385
3377.083	4354
3378.82	4430
3380.556	4438
3382.292	4381
3384.027	4381
3385.763	4384
3387.497	4440
3389.231	4343
3390.965	4349
3392.698	4363
3394.431	4356
3396.164	4257
3397.896	4369
3399.627	4355
3401.36	4314
3403.09	4252
3404.82	4417
3406.55	4384
3408.279	4296
3410.01	4294
3411.738	4332
3413.467	4356
3415.194	4255
3416.92	4370
3418.647	4360
3420.375	4237
3422.102	4343
3423.827	4374
3425.553	4246
3427.277	4353
3429.003	4334
3430.727	4303
3432.451	4312
3434.173	4285
3435.896	4209
3437.62	4274
3439.343	4224
3441.063	4212
3442.785	4273
3444.505	4272
3446.226	4276
3447.948	4219
3449.666	4229
3451.386	4172
3453.104	4237
3454.823	4160
3456.541	4235
3458.259	4254
3459.976	4121
3461.693	4121
3463.408	4161
3465.125	4106
3466.841	4130
3468.556	4163
3470.271	4127
3471.985	4144
3473.698	4095
3475.414	4190
3477.126	4152
3478.838	4222
3480.55	4052
3482.263	4064
3483.975	4162
3485.686	4101
3487.396	4122
3489.106	4138
3490.817	4122
3492.526	4183
3494.236	4125
3495.944	4097
3497.652	3932
3499.359	4098
3501.066	4119
3502.775	3990
3504.481	4132
3506.187	4040
3507.893	4002
3509.598	4009
3511.304	3956
3513.009	3993
3514.713	4005
3516.417	4026
3518.12	4007
3519.821	3983
3521.525	3982
3523.228	3947
3524.929	3996
3526.631	3939
3528.33	3970
3530.032	3959
3531.733	3950
3533.433	3986
3535.131	3896
3536.83	3957
3538.529	3883
3540.227	3970
3541.925	3969
3543.623	3886
3545.319	3927
3547.016	3915
3548.712	3868
3550.408	3904
3552.103	3906
3553.798	3893
3555.491	3954
3557.188	3888
3558.88	3974
3560.574	3910
3562.266	3854
3563.959	3847
3565.651	3917
3567.343	3872
3569.035	3867
3570.725	3847
3572.415	3759
3574.106	3864
3575.797	3848
3577.485	3763
3579.174	3872
3580.863	3827
3582.551	3737
3584.238	3839
3585.926	3736
3587.613	3876
3589.3	3745
3590.986	3787
3592.671	3706
3594.357	3764
3596.042	3819
3597.726	3735
3599.41	3729
3601.094	3724
3602.778	3709
3604.461	3758
3606.143	3677
3607.825	3733
3609.507	3706
3611.188	3597
3612.87	3692
3614.551	3705
3616.229	3737
3617.909	3628
3619.589	3665
3621.269	3696
3622.948	3668
3624.625	3643
3626.302	3697
3627.98	3717
3629.657	3619
3631.334	3667
3633.01	3541
3634.686	3646
3636.361	3585
3638.036	3604
3639.712	3667
3641.385	3547
3643.06	3624
3644.732	3564
3646.405	3598
3648.08	3612
3649.751	3626
3651.424	3578
3653.094	3577
3654.766	3575
3656.436	3607
3658.106	3538
3659.777	3577
3661.446	3532
3663.115	3565
3664.783	3487
3666.452	3541
3668.121	3565
3669.788	3472
3671.454	3505
3673.121	3523
3674.789	3549
3676.455	3451
3678.12	3539
3679.784	3560
3681.45	3474
3683.114	3527
3684.779	3497
3686.442	3501
3688.105	3479
3689.768	3515
3691.43	3522
3693.093	3448
3694.754	3527
3696.415	3411
3698.076	3519
3699.736	3504
3701.396	3569
3703.057	3462
3704.716	3460
3706.375	3461
3708.034	3460
3709.692	3442
3711.351	3449
3713.008	3448
3714.665	3456
3716.321	3424
3717.977	3460
3719.634	3467
3721.29	3394
3722.945	3463
3724.598	3416
3726.253	3438
3727.907	3490
3729.561	3421
3731.214	3393
3732.867	3431
3734.518	3438
3736.171	3416
3737.824	3422
3739.474	3425
3741.125	3425
3742.775	3460
3744.425	3476
3746.074	3449
3747.725	3443
3749.373	3445
3751.022	3376
3752.669	3384
3754.318	3306
3755.966	3409
3757.612	3409
3759.259	3380
3760.905	3261
3762.55	3314
3764.197	3338
3765.842	3423
3767.486	3314
3769.131	3381
3770.774	3355
3772.417	3343
3774.061	3340
3775.705	3356
3777.347	3330
3778.988	3347
3780.629	3277
3782.271	3281
3783.912	3312
3785.552	3379
3787.192	3339
3788.831	3230
3790.472	3353
3792.112	3310
3793.75	3290
3795.388	3373
3797.024	3244
3798.661	3241
3800.3	3322
3801.936	3287
3803.572	3202
3805.208	3260
3806.844	3321
3808.48	3222
3810.115	3361
3811.748	3295
3813.382	3285
3815.016	3209
3816.649	3244
3818.283	3327
3819.914	3253
3821.547	3276
3823.178	3254
3824.809	3268
3826.441	3255
3828.072	3237
3829.701	3169
3831.331	3182
3832.96	3196
3834.591	3243
3836.219	3228
3837.847	3164
3839.475	3150
3841.102	3198
3842.729	3183
3844.357	3245
3845.984	3185
3847.609	3189
3849.234	3146
3850.86	3175
3852.485	3209
3854.11	3127
3855.734	3144
3857.357	3169
3858.981	3146
3860.603	3007
3862.227	3186
3863.848	3212
3865.471	3178
3867.092	3104
3868.713	3195
3870.334	3175
3871.954	3146
3873.575	3149
3875.194	3143
3876.813	3145
3878.433	3171
3880.051	3143
3881.669	3164
3883.286	3158
3884.904	3120
3886.52	3073
3888.138	3195
3889.754	3131
3891.37	3120
3892.985	3084
3894.6	3067
3896.216	3045
3897.831	3076
3899.444	3035
3901.058	3068
3902.67	3114
3904.283	3138
3905.897	3119
3907.509	3044
3909.121	3097
3910.731	3129
3912.342	3068
3913.954	3032
3915.563	3114
3917.174	3032
3918.783	3050
3920.391	3128
3922.002	3122
3923.611	3069
3925.218	3112
3926.826	3043
3928.432	3056
3930.039	3028
3931.647	3064
3933.253	3062
3934.859	3069
3936.464	3104
3938.068	3029
3939.675	3072
3941.278	3059
3942.883	3046
3944.486	3016
3946.089	3041
3947.692	3010
3949.295	3038
3950.898	2964
3952.499	3048
3954.1	2964
3955.7	2998
3957.303	3017
3958.903	3050
3960.502	3016
3962.101	3031
3963.7	3038
3965.301	3051
3966.899	3006
3968.497	3000
3970.094	2998
3971.691	2977
3973.288	2929
3974.885	2981
3976.481	2956
3978.077	2964
3979.672	2939
3981.267	2938
3982.863	2981
3984.457	2971
3986.051	2931
3987.645	2981
3989.238	2953
3990.831	2878
3992.425	2930
3994.017	2891
3995.607	2947
3997.199	2938
3998.79	2937
4000.382	2936
4001.973	2848
4003.561	2890
4005.151	2962
4006.741	2887
4008.331	2869
4009.918	2848
4011.507	2892
4013.095	2889
4014.681	2795
4016.269	2877
4017.856	2914
4019.443	2815
4021.028	2937
4022.614	2915
4024.199	2848
4025.785	2912
4027.37	2850
4028.953	2876
4030.536	2846
4032.12	2898
4033.704	2855
4035.287	2785
4036.869	2809
4038.45	2833
4040.032	2850
4041.613	2744
4043.195	2755
4044.776	2814
4046.356	2815
4047.935	2761
4049.515	2879
4051.095	2738
4052.674	2757
4054.251	2829
4055.829	2763
4057.406	2869
4058.985	2782
4060.562	2813
4062.139	2861
4063.715	2815
4065.29	2766
4066.865	2740
4068.442	2793
4070.016	2887
4071.59	2798
4073.164	2770
4074.738	2756
4076.312	2749
4077.885	2739
4079.458	2795
4081.03	2759
4082.602	2755
4084.173	2733
4085.745	2758
4087.315	2815
4088.886	2707
4090.456	2694
4092.026	2744
4093.596	2679
4095.165	2773
4096.734	2729
4098.301	2718
4099.869	2790
4101.437	2758
4103.006	2710
4104.572	2744
4106.139	2714
4107.704	2706
4109.27	2691
4110.837	2670
4112.401	2695
4113.966	2708
4115.53	2686
4117.094	2699
4118.659	2702
4120.223	2690
4121.785	2647
4123.347	2722
4124.909	2691
4126.471	2665
4128.034	2666
4129.595	2667
4131.155	2551
4132.716	2625
4134.275	2674
4135.836	2608
4137.395	2673
4138.955	2687
4140.513	2622
4142.071	2688
4143.628	2630
4145.188	2577
4146.745	2638
4148.302	2589
4149.858	2636
4151.414	2600
4152.971	2596
4154.526	2608
4156.081	2645
4157.635	2637
4159.189	2571
4160.745	2607
4162.298	2545
4163.852	2621
4165.405	2580
4166.957	2611
4168.51	2580
4170.063	2583
4171.614	2607
4173.166	2494
4174.717	2564
4176.267	2575
4177.817	2566
4179.368	2680
4180.917	2553
4182.466	2560
4184.016	2578
4185.564	2583
4187.112	2506
4188.66	2545
4190.207	2576
4191.754	2578
4193.301	2518
4194.848	2555
4196.394	2559
4197.94	2466
4199.484	2539
4201.03	2500
4202.575	2500
4204.12	2498
4205.663	2468
4207.207	2483
4208.75	2551
4210.292	2510
4211.836	2566
4213.378	2507
4214.92	2428
4216.46	2519
4218.002	2492
4219.544	2522
4221.083	2528
4222.625	2589
4224.164	2507
4225.703	2503
4227.244	2488
4228.782	2497
4230.32	2511
4231.857	2459
4233.395	2499
4234.933	2429
4236.471	2516
4238.007	2445
4239.542	2511
4241.078	2411
4242.614	2489
4244.15	2464
4245.685	2493
4247.219	2451
4248.753	2453
4250.287	2400
4251.82	2446
4253.354	2462
4254.887	2488
4256.419	2469
4257.951	2476
4259.483	2440
4261.016	2460
4262.547	2412
4264.078	2387
4265.608	2409
4267.137	2439
4268.668	2415
4270.197	2411
4271.727	2385
4273.254	2424
4274.783	2410
4276.311	2333
4277.84	2364
4279.366	2444
4280.894	2440
4282.42	2394
4283.946	2401
4285.473	2385
4286.998	2428
4288.523	2387
4290.047	2380
4291.572	2377
4293.096	2404
4294.622	2374
4296.144	2440
4297.668	2266
4299.19	2400
4300.713	2365
4302.236	2402
4303.758	2310
4305.279	2334
4306.799	2360
4308.321	2365
4309.842	2360
4311.361	2354
4312.882	2314
4314.401	2328
