400.0961	5205
402.6185	5174
405.1424	5231
407.6635	5284
410.1838	5212
412.7035	5331
415.2225	5322
417.7388	5388
420.2585	5358
422.7754	5473
425.2917	5491
427.8072	5491
430.3221	5446
432.8363	5619
435.3498	5531
437.8626	5571
440.3727	5536
442.8841	5438
445.3969	5528
447.907	5535
450.4142	5532
452.9229	5578
455.4289	5590
457.9362	5608
460.4449	5605
462.9488	5612
465.454	5521
467.9566	5486
470.4604	5645
472.9637	5600
475.4662	5579
477.966	5581
480.4671	5781
482.9656	5634
485.4633	5654
487.9645	5638
490.4608	5646
492.9566	5590
495.4536	5703
497.948	5666
500.4437	5696
502.9387	5740
505.431	5788
507.9226	5745
510.4136	5747
512.9079	5668
515.3975	5856
517.8864	5775
520.3746	5723
522.8622	5754
525.3491	5778
527.8394	5712
530.3249	5800
532.8098	5857
535.2939	5818
537.7774	5858
540.2623	5916
542.7444	5683
545.2259	5751
547.7067	5903
550.1868	5835
552.6683	5949
555.147	5919
557.6231	5855
560.1005	5937
562.5773	5880
565.0534	5901
567.5308	5998
570.0056	5931
572.4776	6001
574.951	5889
577.4237	6089
579.8978	5967
582.3671	6104
584.8378	6156
587.3079	6117
589.7773	6062
592.244	6105
594.714	5984
597.1793	6057
599.6461	6050
602.1121	6108
604.5754	6151
607.0421	6082
609.5042	5995
611.9675	6001
614.4282	6120
616.8902	6071
619.3515	6039
621.8122	6152
624.2702	6143
626.7296	6015
629.1863	6072
631.6423	6127
634.1017	6114
636.5563	6041
639.0104	5987
641.4658	6067
643.9185	5902
646.3725	6129
648.8239	6037
651.2766	6117
653.7266	6069
656.176	6103
658.6247	6205
661.0748	6226
663.5242	6083
665.9709	6169
668.417	6225
670.8624	6136
673.3092	6312
675.7533	6147
678.1968	6264
680.6395	6246
683.0817	6330
685.5251	6305
687.9659	6350
690.4061	6204
692.8456	6443
695.2844	6282
697.7226	6343
700.1621	6355
702.599	6343
705.0332	6371
707.4688	6406
709.9036	6452
712.3399	6429
714.7735	6435
717.2044	6413
719.6367	6382
722.0683	6496
724.4993	6569
726.9296	6564
729.3593	6402
731.7883	6530
734.2147	6570
736.6423	6632
739.0714	6546
741.4958	6593
743.9216	6732
746.3447	6521
748.7691	6674
751.1929	6767
753.616	6613
756.0366	6693
758.4584	6744
760.8776	6667
763.2982	6808
765.718	6626
768.1373	6810
770.5539	6757
772.9698	6669
775.3871	6690
777.8038	6841
780.2178	6775
782.6332	6742
785.0459	6755
787.458	6879
789.8714	6791
792.2842	6800
794.6943	6749
797.1038	6816
799.5127	6751
801.9209	6845
804.3324	6870
806.7393	6796
809.1456	6767
811.5513	6868
813.9562	6859
816.3625	6887
818.7663	6870
821.1693	6743
823.5718	6887
825.9735	6877
828.3746	6846
830.7771	6904
833.177	6821
835.5762	6879
837.9747	6893
840.3727	7008
842.772	6920
845.1666	6906
847.5626	6927
849.958	6939
852.3527	7104
854.7488	7090
857.1403	6944
859.5331	7002
861.9253	6993
864.3168	7024
866.7057	6929
869.098	6890
871.4876	7055
873.8746	6948
876.263	7025
878.6487	6986
881.0378	6863
883.4243	7051
885.8081	6903
888.1933	7050
890.5759	7000
892.9598	6935
895.343	6956
897.7256	6975
900.1057	7003
902.4871	6984
904.8659	7022
907.246	7016
909.6254	7072
912.0023	7084
914.3786	7193
916.7562	7230
919.1331	7265
921.5074	7360
923.8831	7491
926.2562	7370
928.6287	7448
931.0005	7434
933.3757	7381
935.7462	7508
938.1162	7358
940.4855	7367
942.8542	7454
945.2242	7412
947.5916	7598
949.9584	7701
952.3266	7848
954.6921	7968
957.0571	8353
959.4233	8279
961.787	8399
964.15	8572
966.5125	8234
968.8742	8106
971.2354	7897
973.5959	7690
975.9559	7537
978.3151	7383
980.6738	7301
983.0338	7317
985.3912	7416
987.7461	7229
990.1022	7260
992.4578	7204
994.8127	7332
997.1689	7285
999.5207	7274
1001.874	7438
1004.226	7292
1006.576	7337
1008.929	7288
1011.28	7351
1013.628	7212
1015.977	7368
1018.324	7355
1020.674	7410
1023.019	7326
1025.366	7253
1027.713	7371
1030.056	7395
1032.399	7298
1034.746	7417
1037.087	7316
1039.431	7382
1041.771	7485
1044.113	7444
1046.454	7297
1048.793	7410
1051.133	7442
1053.471	7282
1055.807	7387
1058.146	7429
1060.483	7351
1062.818	7449
1065.153	7377
1067.489	7477
1069.822	7551
1072.156	7422
1074.488	7485
1076.82	7662
1079.15	7434
1081.48	7459
1083.814	7374
1086.143	7491
1088.471	7500
1090.799	7369
1093.126	7438
1095.452	7424
1097.78	7411
1100.105	7382
1102.43	7537
1104.754	7353
1107.077	7429
1109.4	7439
1111.722	7540
1114.044	7491
1116.365	7521
1118.685	7395
1121.005	7473
1123.324	7401
1125.643	7472
1127.961	7437
1130.278	7553
1132.595	7460
1134.911	7459
1137.226	7665
1139.541	7475
1141.854	7667
1144.167	7548
1146.482	7520
1148.793	7437
1151.105	7508
1153.414	7485
1155.725	7560
1158.033	7502
1160.344	7556
1162.651	7523
1164.959	7515
1167.265	7580
1169.572	7504
1171.878	7484
1174.184	7521
1176.488	7589
1178.79	7617
1181.094	7607
1183.396	7608
1185.699	7638
1188.001	7554
1190.301	7565
1192.6	7447
1194.9	7497
1197.2	7583
1199.497	7660
1201.794	7500
1204.09	7499
1206.387	7557
1208.684	7540
1210.978	7431
1213.272	7522
1215.565	7505
1217.858	7517
1220.15	7505
1222.443	7518
1224.734	7627
1227.024	7646
1229.313	7608
1231.602	7716
1233.892	7695
1236.18	7648
1238.467	7595
1240.754	7777
1243.04	7866
1245.325	7768
1247.612	7748
1249.896	7793
1252.178	7717
1254.461	7837
1256.743	7910
1259.027	7802
1261.308	7780
1263.587	7863
1265.867	7830
1268.146	7853
1270.425	7902
1272.703	7827
1274.981	7785
1277.256	7896
1279.532	7849
1281.808	7803
1284.083	7796
1286.358	7821
1288.63	7683
1290.904	7769
1293.175	7651
1295.449	7710
1297.719	7578
1299.99	7691
1302.259	7780
1304.529	7781
1306.798	7702
1309.065	7761
1311.333	7767
1313.599	7654
1315.866	7707
1318.131	7738
1320.396	7824
1322.66	7734
1324.925	7832
1327.187	7701
1329.448	7761
1331.711	7684
1333.974	7809
1336.234	7816
1338.493	7682
1340.752	7744
1343.01	7699
1345.269	7640
1347.526	7787
1349.784	7739
1352.04	7773
1354.295	7849
1356.552	7722
1358.806	7619
1361.059	7720
1363.312	7636
1365.564	7749
1367.818	7690
1370.069	7801
1372.318	7767
1374.568	7747
1376.817	7838
1379.066	7816
1381.316	7802
1383.564	7811
1385.809	7877
1388.056	7834
1390.301	7819
1392.549	7964
1394.793	7968
1397.036	7986
1399.279	7945
1401.522	8023
1403.763	8034
1406.007	7895
1408.248	7986
1410.487	7953
1412.727	8084
1414.965	7977
1417.205	8058
1419.442	7925
1421.68	8063
1423.915	7976
1426.152	8052
1428.388	7970
1430.623	8036
1432.857	7946
1435.091	7908
1437.323	8052
1439.556	8046
1441.789	8143
1444.019	8070
1446.25	8083
1448.48	8062
1450.708	8049
1452.938	8299
1455.167	8205
1457.394	8213
1459.62	8007
1461.846	8157
1464.073	8226
1466.299	8070
1468.523	8083
1470.746	8096
1472.969	7910
1475.191	7908
1477.415	7910
1479.636	7934
1481.858	7819
1484.078	7830
1486.298	7834
1488.518	7717
1490.736	7887
1492.954	7819
1495.169	7679
1497.386	7769
1499.602	7650
1501.819	7768
1504.034	7663
1506.248	7750
1508.462	7694
1510.675	7839
1512.888	7733
1515.1	7741
1517.311	7789
1519.522	7802
1521.732	7759
1523.942	7644
1526.151	7756
1528.36	7633
1530.566	7612
1532.773	7748
1534.98	7759
1537.187	7735
1539.392	7853
1541.596	7805
1543.801	7878
1546.005	7843
1548.208	7883
1550.411	7842
1552.612	7727
1554.814	7760
1557.013	7858
1559.212	7908
1561.414	8094
1563.612	7883
1565.811	7712
1568.007	7876
1570.203	7980
1572.403	7934
1574.598	7925
1576.792	7829
1578.988	8075
1581.181	8027
1583.376	7985
1585.568	7914
1587.761	8022
1589.952	7993
1592.143	7893
1594.333	7916
1596.524	7972
1598.715	7988
1600.903	7907
1603.091	8124
1605.278	8008
1607.466	8037
1609.652	7930
1611.838	8005
1614.023	8096
1616.207	7964
1618.391	7860
1620.576	8014
1622.759	8072
1624.941	8106
1627.123	8096
1629.304	8124
1631.484	8007
1633.664	8012
1635.844	8153
1638.022	8023
1640.201	8090
1642.38	8102
1644.556	8136
1646.732	7983
1648.908	8070
1651.084	8203
1653.257	8151
1655.433	8178
1657.607	8000
1659.779	8266
1661.951	8051
1664.122	8238
1666.295	8144
1668.467	8188
1670.635	8204
1672.805	7984
1674.973	8140
1677.142	8198
1679.31	8114
1681.478	8161
1683.644	8284
1685.81	8119
1687.975	8145
1690.142	8083
1692.305	8059
1694.468	8140
1696.632	8075
1698.794	8051
1700.957	7978
1703.119	8030
1705.279	7990
1707.439	8001
1709.598	8163
1711.758	7888
1713.917	8035
1716.075	7951
1718.231	7835
1720.388	8102
1722.543	7862
1724.702	7962
1726.856	7950
1729.01	7979
1731.164	7902
1733.317	7929
1735.471	8003
1737.623	7995
1739.774	8068
1741.925	8012
1744.075	7950
1746.225	8017
1748.376	7949
1750.524	8075
1752.672	8020
1754.82	7982
1756.965	8069
1759.113	7923
1761.259	7989
1763.405	8055
1765.549	8007
1767.694	8060
1769.836	8097
1771.981	8014
1774.123	7977
1776.264	8147
1778.405	8118
1780.546	8119
1782.687	8104
1784.827	8020
1786.966	8106
1789.103	8012
1791.242	8135
1793.381	8143
1795.517	8192
1797.653	8053
1799.788	8170
1801.923	8138
1804.057	8094
1806.193	8004
1808.326	8030
1810.457	8003
1812.59	8039
1814.721	8139
1816.855	8125
1818.984	8027
1821.113	8126
1823.244	7889
1825.372	8076
1827.499	8042
1829.63	8011
1831.756	8014
1833.882	8081
1836.007	8052
1838.132	8035
1840.26	7990
1842.384	8006
1844.507	7884
1846.63	8038
1848.752	8063
1850.875	8000
1852.996	8106
1855.118	8016
1857.238	7988
1859.358	8103
1861.477	7908
1863.597	7914
1865.715	8065
1867.832	7975
1869.948	7943
1872.064	8013
1874.181	8084
1876.297	7983
1878.411	8090
1880.526	7987
1882.639	8069
1884.752	7979
1886.865	8048
1888.977	8018
1891.089	8152
1893.2	8078
1895.308	8127
1897.42	7880
1899.53	8007
1901.639	7965
1903.745	8039
1905.853	8089
1907.962	7976
1910.067	8056
1912.174	8013
1914.278	8164
1916.383	8093
1918.486	8200
1920.592	8080
1922.694	8023
1924.797	8173
1926.898	8263
1929	8138
1931.102	8198
1933.203	8096
1935.301	8219
1937.401	8072
1939.499	8045
1941.598	8072
1943.697	8170
1945.793	8093
1947.888	8119
1949.985	8084
1952.08	7932
1954.176	8211
1956.269	8251
1958.364	8060
1960.457	8075
1962.549	8257
1964.642	8092
1966.733	8063
1968.823	8053
1970.913	8077
1973.005	8175
1975.093	8090
1977.184	7894
1979.271	8123
1981.359	8019
1983.446	8006
1985.532	8076
1987.619	8053
1989.705	7989
1991.789	7985
1993.874	8073
1995.956	7984
1998.041	8178
2000.123	8040
2002.206	8002
2004.287	8054
2006.368	7875
2008.449	7941
2010.529	8113
2012.609	8124
2014.688	7968
2016.766	7922
2018.843	8041
2020.922	7902
2022.999	7941
2025.074	7901
2027.15	8006
2029.225	8009
2031.299	8057
2033.375	7935
2035.447	8037
2037.52	7941
2039.592	7986
2041.664	7954
2043.736	7875
2045.807	7958
2047.876	8017
2049.947	7974
2052.015	7923
2054.086	7995
2056.153	7984
2058.221	7903
2060.288	8119
2062.353	8048
2064.42	8007
2066.486	7988
2068.55	7867
2070.614	8089
2072.678	7895
2074.741	7993
2076.805	7921
2078.866	8035
2080.929	8008
2082.99	8066
2085.049	7875
2087.109	7974
2089.17	8082
2091.228	7973
2093.286	8089
2095.344	8158
2097.4	7952
2099.46	8003
2101.516	7974
2103.572	7943
2105.626	7998
2107.679	7952
2109.735	8056
2111.788	8017
2113.841	8068
2115.894	8029
2117.945	7967
2119.997	8022
2122.049	8061
2124.1	8008
2126.148	8021
2128.197	7998
2130.246	7967
2132.296	7937
2134.342	7983
2136.39	7922
2138.437	7941
2140.483	8038
2142.527	7978
2144.574	8009
2146.619	7811
2148.661	7791
2150.705	7906
2152.747	7859
2154.792	7899
2156.832	7911
2158.874	7868
2160.915	7780
2162.954	7923
2164.995	7922
2167.034	7823
2169.072	7889
2171.111	7917
2173.148	7809
2175.186	7793
2177.223	7947
2179.258	7836
2181.294	7924
2183.328	7898
2185.362	7700
2187.398	7776
2189.431	7825
2191.463	7863
2193.495	7876
2195.528	7850
2197.56	7724
2199.59	7859
2201.62	7802
2203.649	7771
2205.678	7803
2207.708	7754
2209.737	7781
2211.764	7844
2213.791	7663
2215.817	7765
2217.843	7636
2219.87	7691
2221.895	7661
2223.919	7730
2225.942	7800
2227.966	7710
2229.988	7782
2232.012	7715
2234.032	7711
2236.054	7729
2238.074	7638
2240.095	7689
2242.116	7796
2244.135	7684
2246.153	7812
2248.171	7650
2250.188	7876
2252.208	7813
2254.223	7783
2256.239	7826
2258.255	7566
2260.269	7758
2262.283	7712
2264.3	7609
2266.312	7622
2268.325	7621
2270.336	7731
2272.349	7731
2274.362	7709
2276.372	7754
2278.383	7731
2280.392	7760
2282.402	7738
2284.409	7752
2286.418	7706
2288.427	7739
2290.433	7752
2292.441	7710
2294.446	7644
2296.453	7722
2298.459	7770
2300.463	7759
2302.466	7618
2304.471	7735
2306.475	7713
2308.477	7693
2310.478	7635
2312.481	7735
2314.481	7649
2316.481	7559
2318.482	7585
2320.482	7586
2322.48	7679
2324.48	7673
2326.478	7556
2328.476	7596
2330.473	7726
2332.469	7560
2334.465	7655
2336.46	7515
2338.454	7649
2340.45	7552
2342.444	7543
2344.437	7621
2346.43	7354
2348.421	7588
2350.414	7580
2352.405	7536
2354.396	7566
2356.386	7511
2358.376	7471
2360.366	7586
2362.355	7605
2364.343	7531
2366.331	7474
2368.317	7420
2370.304	7429
2372.292	7465
2374.278	7473
2376.262	7550
2378.247	7496
2380.23	7548
2382.216	7516
2384.199	7433
2386.181	7577
2388.163	7439
2390.144	7431
2392.127	7363
2394.107	7389
2396.087	7445
2398.066	7284
2400.046	7566
2402.023	7500
2404.004	7459
2405.981	7389
2407.957	7406
2409.934	7461
2411.91	7306
2413.886	7378
2415.862	7330
2417.836	7371
2419.809	7331
2421.784	7385
2423.756	7416
2425.73	7363
2427.701	7369
2429.672	7413
2431.644	7350
2433.615	7434
2435.586	7513
2437.555	7411
2439.523	7500
2441.491	7430
2443.459	7334
2445.428	7426
2447.395	7276
2449.361	7395
2451.327	7363
2453.292	7264
2455.257	7301
2457.223	7303
2459.187	7399
2461.15	7319
2463.113	7422
2465.076	7350
2467.039	7362
2468.999	7304
2470.96	7315
2472.921	7300
2474.881	7486
2476.841	7249
2478.8	7288
2480.759	7282
2482.717	7338
2484.675	7228
2486.63	7288
2488.589	7290
2490.545	7237
2492.5	7336
2494.455	7184
2496.408	7189
2498.364	7279
2500.318	7293
2502.27	7263
2504.223	7256
2506.174	7314
2508.126	7231
2510.078	7230
2512.03	7229
2513.979	7247
2515.927	7289
2517.877	7330
2519.826	7240
2521.775	7145
2523.722	7126
2525.668	7197
2527.616	7306
2529.561	7336
2531.508	7132
2533.452	7265
2535.398	7250
2537.342	7218
2539.284	7249
2541.229	7218
2543.173	7287
2545.114	7152
2547.055	7142
2548.996	7152
2550.938	7209
2552.878	7190
2554.817	7052
2556.756	7129
2558.695	7123
2560.633	7057
2562.572	7190
2564.509	7223
2566.445	7157
2568.382	7131
2570.317	7186
2572.254	7067
2574.189	7192
2576.123	7133
2578.057	7203
2579.99	7131
2581.923	7229
2583.855	7235
2585.788	7281
2587.719	7175
2589.65	7208
2591.579	7182
2593.511	7185
2595.44	7288
2597.37	7255
2599.297	7288
2601.225	7202
2603.153	7166
2605.08	7191
2607.007	7166
2608.932	7298
2610.858	7154
2612.782	7050
2614.709	7289
2616.632	7263
2618.556	7145
2620.478	7216
2622.401	7084
2624.324	7132
2626.247	7264
2628.167	7110
2630.088	7312
2632.008	7170
2633.928	7234
2635.848	7152
2637.766	7044
2639.684	7323
2641.603	7234
2643.519	7184
2645.437	7194
2647.353	7209
2649.27	7093
2651.184	7177
2653.099	7164
2655.014	7229
2656.928	7184
2658.842	7245
2660.755	7167
2662.667	7198
2664.579	7141
2666.491	7127
2668.402	7079
2670.312	7294
2672.222	7189
2674.132	7056
2676.042	7161
2677.951	7206
2679.859	7123
2681.766	7027
2683.674	7121
2685.582	6941
2687.488	7074
2689.392	7060
2691.298	7042
2693.202	7097
2695.107	6936
2697.012	7130
2698.914	7060
2700.817	7012
2702.72	7106
2704.622	7020
2706.524	7021
2708.425	6949
2710.326	7059
2712.225	7020
2714.125	6919
2716.024	7033
2717.923	6954
2719.822	6962
2721.719	6893
2723.616	7084
2725.512	7022
2727.41	6953
2729.305	6982
2731.201	7003
2733.095	6967
2734.99	6901
2736.884	6933
2738.778	6987
2740.67	6958
2742.562	6844
2744.455	7092
2746.346	6902
2748.238	6944
2750.129	6939
2752.018	6972
2753.907	6835
2755.797	7083
2757.687	6967
2759.575	6993
2761.462	6974
2763.349	6932
2765.237	6849
2767.124	6932
2769.009	6935
2770.894	6956
2772.779	6880
2774.663	6939
2776.547	6954
2778.431	6836
2780.314	6781
2782.197	6867
2784.078	6886
2785.96	6927
2787.842	6887
2789.723	6947
2791.603	6929
2793.483	6861
2795.362	6833
2797.241	6918
2799.121	6799
2800.997	6766
2802.874	6785
2804.751	6774
2806.628	6772
2808.506	6969
2810.38	6778
2812.255	6874
2814.13	6823
2816.003	6885
2817.878	6828
2819.752	6740
2821.623	6913
2823.496	6752
2825.368	6901
2827.238	6874
2829.111	6921
2830.98	6891
2832.851	6891
2834.719	6855
2836.589	6804
2838.458	6852
2840.327	6814
2842.193	6922
2844.061	6819
2845.927	6742
2847.794	6864
2849.66	6953
2851.525	6865
2853.39	6831
2855.254	7047
2857.117	7043
2858.983	6921
2860.845	6912
2862.707	7115
2864.569	6964
2866.431	7015
2868.293	7041
2870.154	7035
2872.013	7063
2873.873	7126
2875.733	7254
2877.592	7221
2879.451	7292
2881.309	7339
2883.166	7331
2885.022	7374
2886.879	7456
2888.736	7502
2890.591	7395
2892.446	7417
2894.301	7458
2896.155	7435
2898.009	7504
2899.863	7394
2901.716	7428
2903.568	7411
2905.419	7360
2907.27	7270
2909.123	7330
2910.973	7415
2912.824	7549
2914.673	7577
2916.521	7451
2918.372	7575
2920.22	7589
2922.067	7643
2923.914	7649
2925.761	7779
2927.607	7783
2929.455	7746
2931.301	7721
2933.144	7943
2934.99	8045
2936.833	7845
2938.678	7974
2940.522	8084
2942.364	8208
2944.207	8224
2946.048	8196
2947.891	8379
2949.731	8274
2951.571	8183
2953.412	8248
2955.25	8266
2957.09	8149
2958.93	8169
2960.767	8070
2962.606	8012
2964.443	7997
2966.279	7922
2968.116	7951
2969.953	7749
2971.788	7704
2973.623	7492
2975.457	7607
2977.292	7491
2979.127	7528
2980.959	7484
2982.792	7382
2984.624	7356
2986.455	7302
2988.288	7349
2990.119	7169
2991.949	7097
2993.779	7190
2995.608	7050
2997.439	7040
2999.268	7100
3001.096	7024
3002.923	7053
3004.751	6856
3006.578	6872
3008.406	6839
3010.232	6763
3012.057	6849
3013.883	6681
3015.706	6731
3017.532	6773
3019.356	6710
3021.179	6594
3023.002	6553
3024.823	6501
3026.646	6601
3028.469	6572
3030.289	6514
3032.11	6622
3033.93	6454
3035.749	6486
3037.57	6476
3039.39	6467
3041.207	6515
3043.026	6507
3044.842	6463
3046.661	6466
3048.477	6465
3050.294	6342
3052.109	6452
3053.925	6522
3055.739	6333
3057.555	6485
3059.368	6389
3061.181	6283
3062.995	6330
3064.807	6454
3066.62	6352
3068.433	6461
3070.243	6485
3072.054	6420
3073.865	6369
3075.675	6390
3077.485	6326
3079.293	6342
3081.102	6311
3082.911	6439
3084.719	6345
3086.527	6237
3088.333	6290
3090.139	6397
3091.945	6286
3093.75	6247
3095.557	6304
3097.361	6120
3099.165	6245
3100.969	6193
3102.772	6128
3104.575	6157
3106.379	6247
3108.181	6201
3109.982	6283
3111.783	6156
3113.584	6110
3115.386	6098
3117.186	6166
3118.985	6141
3120.783	6198
3122.582	6101
3124.381	6022
3126.179	6073
3127.975	6136
3129.772	6065
3131.569	6252
3133.365	6071
3135.161	6016
3136.956	6015
3138.751	6029
3140.544	6033
3142.338	5999
3144.132	6065
3145.925	6103
3147.717	5980
3149.509	6042
3151.301	6089
3153.091	6036
3154.884	6055
3156.673	6069
3158.462	6028
3160.252	6024
3162.041	6026
3163.831	5996
3165.618	6095
3167.405	5934
3169.193	6003
3170.979	5999
3172.767	5913
3174.553	6026
3176.338	5926
3178.123	6010
3179.907	5991
3181.692	5904
3183.477	5965
3185.259	5918
3187.042	5948
3188.824	6070
3190.607	6011
3192.389	6061
3194.17	5892
3195.951	5979
3197.73	5833
3199.51	5906
3201.289	5931
3203.07	5945
3204.848	5946
3206.626	5786
3208.403	5794
3210.18	5844
3211.959	5936
3213.735	5816
3215.511	5862
3217.285	5819
3219.06	5981
3220.836	5948
3222.611	5899
3224.384	5920
3226.158	5929
3227.929	5974
3229.702	5952
3231.476	5823
3233.248	5901
3235.018	5828
3236.789	5821
3238.56	5989
3240.33	5881
3242.1	5864
3243.869	5906
3245.637	5879
3247.405	5922
3249.172	5970
3250.941	5840
3252.707	5863
3254.474	5859
3256.24	5844
3258.006	5896
3259.772	5861
3261.537	5741
3263.301	5832
3265.065	5876
3266.828	5839
3268.592	5925
3270.355	5847
3272.117	5927
3273.878	5861
3275.64	5843
3277.401	5940
3279.162	5847
3280.922	5914
3282.682	5829
3284.441	5774
3286.199	5871
3287.959	5892
3289.716	5912
3291.475	5909
3293.232	5792
3294.988	5843
3296.744	5792
3298.501	5893
3300.256	5863
3302.011	5928
3303.766	5828
3305.52	5727
3307.275	5888
3309.028	5790
3310.781	5889
3312.533	5890
3314.285	5840
3316.038	5849
3317.789	5802
3319.54	5777
3321.289	5782
3323.039	5823
3324.789	5780
3326.539	5845
3328.288	5792
3330.035	5774
3331.783	5778
3333.531	5735
3335.28	5712
3337.025	5838
3338.771	5751
3340.518	5802
3342.262	5768
3344.009	5687
3345.753	5731
3347.497	5707
3349.24	5638
3350.983	5762
3352.726	5654
3354.469	5761
3356.212	5748
3357.952	5636
3359.694	5692
3361.434	5674
3363.176	5636
3364.916	5662
3366.654	5625
3368.394	5673
3370.132	5688
3371.871	5547
3373.61	5721
3375.346	5710
3377.083	5614
3378.82	5493
3380.556	5672
3382.292	5567
3384.027	5612
3385.763	5500
3387.497	5616
3389.231	5555
3390.965	5585
3392.698	5619
3394.431	5601
3396.164	5666
3397.896	5622
3399.627	5508
3401.36	5598
3403.09	5457
3404.82	5513
3406.55	5647
3408.279	5548
3410.01	5639
3411.738	5429
3413.467	5536
3415.194	5503
3416.92	5547
3418.647	5442
3420.375	5443
3422.102	5484
3423.827	5449
3425.553	5558
3427.277	5477
3429.003	5515
3430.727	5372
3432.451	5385
3434.173	5412
3435.896	5493
3437.62	5503
3439.343	5420
3441.063	5380
3442.785	5503
3444.505	5374
3446.226	5357
3447.948	5363
3449.666	5386
3451.386	5441
3453.104	5297
3454.823	5474
3456.541	5275
3458.259	5218
3459.976	5249
3461.693	5347
3463.408	5231
3465.125	5297
3466.841	5203
3468.556	5230
3470.271	5350
3471.985	5362
3473.698	5336
3475.414	5282
3477.126	5309
3478.838	5279
3480.55	5332
3482.263	5191
3483.975	5243
3485.686	5212
3487.396	5098
3489.106	5185
3490.817	5231
3492.526	5254
3494.236	5189
3495.944	5136
3497.652	5235
3499.359	5244
3501.066	5093
3502.775	5133
3504.481	5093
3506.187	5169
3507.893	5216
3509.598	5162
3511.304	5078
3513.009	5134
3514.713	5157
3516.417	5017
3518.12	5137
3519.821	5194
3521.525	5103
3523.228	5053
3524.929	5061
3526.631	5012
3528.33	5104
3530.032	4990
3531.733	5016
3533.433	5077
3535.131	5063
3536.83	4963
3538.529	5028
3540.227	5021
3541.925	4956
3543.623	4905
3545.319	5034
3547.016	5039
3548.712	4997
3550.408	4994
3552.103	4943
3553.798	5003
3555.491	4985
3557.188	4875
3558.88	4903
3560.574	4826
3562.266	4900
3563.959	4995
3565.651	5011
3567.343	4931
3569.035	4962
3570.725	4920
3572.415	4854
3574.106	4847
3575.797	4944
3577.485	4947
3579.174	4982
3580.863	4843
3582.551	4876
3584.238	4831
3585.926	4955
3587.613	4804
3589.3	4828
3590.986	4829
3592.671	4757
3594.357	4859
3596.042	4783
3597.726	4878
3599.41	4775
3601.094	4755
3602.778	4830
3604.461	4732
3606.143	4836
3607.825	4848
3609.507	4726
3611.188	4791
3612.87	4748
3614.551	4771
3616.229	4658
3617.909	4752
3619.589	4771
3621.269	4667
3622.948	4657
3624.625	4732
3626.302	4675
3627.98	4676
3629.657	4586
3631.334	4667
3633.01	4643
3634.686	4652
3636.361	4644
3638.036	4563
3639.712	4663
3641.385	4615
3643.06	4542
3644.732	4668
3646.405	4665
3648.08	4584
3649.751	4608
3651.424	4618
3653.094	4509
3654.766	4675
3656.436	4575
3658.106	4620
3659.777	4583
3661.446	4584
3663.115	4530
3664.783	4566
3666.452	4615
3668.121	4533
3669.788	4454
3671.454	4538
3673.121	4590
3674.789	4486
3676.455	4521
3678.12	4568
3679.784	4529
3681.45	4425
3683.114	4452
3684.779	4497
3686.442	4406
3688.105	4501
3689.768	4431
3691.43	4430
3693.093	4470
3694.754	4442
3696.415	4418
3698.076	4520
3699.736	4486
3701.396	4417
3703.057	4519
3704.716	4393
3706.375	4445
3708.034	4416
3709.692	4441
3711.351	4420
3713.008	4468
3714.665	4435
3716.321	4309
3717.977	4425
3719.634	4469
3721.29	4364
3722.945	4357
3724.598	4461
3726.253	4406
3727.907	4367
3729.561	4301
3731.214	4438
3732.867	4440
3734.518	4403
3736.171	4327
3737.824	4394
3739.474	4417
3741.125	4315
3742.775	4394
3744.425	4372
3746.074	4296
3747.725	4291
3749.373	4386
3751.022	4406
3752.669	4329
3754.318	4380
3755.966	4327
3757.612	4311
3759.259	4324
3760.905	4331
3762.55	4279
3764.197	4227
3765.842	4262
3767.486	4296
3769.131	4251
3770.774	4326
3772.417	4291
3774.061	4219
3775.705	4264
3777.347	4192
3778.988	4254
3780.629	4247
3782.271	4224
3783.912	4250
3785.552	4212
3787.192	4184
3788.831	4254
3790.472	4217
3792.112	4189
3793.75	4204
3795.388	4211
3797.024	4255
3798.661	4137
3800.3	4122
3801.936	4146
3803.572	4156
3805.208	4158
3806.844	4161
3808.48	4145
3810.115	4221
3811.748	4131
3813.382	4114
3815.016	4152
3816.649	4184
3818.283	4155
3819.914	4073
3821.547	4107
3823.178	4062
3824.809	4088
3826.441	4129
3828.072	4165
3829.701	4174
3831.331	4026
3832.96	4059
3834.591	4053
3836.219	4029
3837.847	4074
3839.475	4143
3841.102	4036
3842.729	4033
3844.357	4116
3845.984	4051
3847.609	4113
3849.234	4079
3850.86	4003
3852.485	4082
3854.11	4087
3855.734	4052
3857.357	4077
3858.981	3954
3860.603	3940
3862.227	3985
3863.848	4056
3865.471	4025
3867.092	4017
3868.713	4038
3870.334	4072
3871.954	4016
3873.575	4031
3875.194	4038
3876.813	4064
3878.433	3979
3880.051	4002
3881.669	3974
3883.286	3998
3884.904	4058
3886.52	3915
3888.138	3932
3889.754	3996
3891.37	3869
3892.985	3990
3894.6	3899
3896.216	3832
3897.831	3881
3899.444	3915
3901.058	3975
3902.67	3930
3904.283	3956
3905.897	3939
3907.509	3920
3909.121	4007
3910.731	3905
3912.342	3970
3913.954	3933
3915.563	3959
3917.174	3821
3918.783	3989
3920.391	3907
3922.002	3831
3923.611	3928
3925.218	3953
3926.826	3893
3928.432	3817
3930.039	3883
3931.647	3823
3933.253	3936
3934.859	3909
3936.464	3846
3938.068	3862
3939.675	3852
3941.278	3893
3942.883	3961
3944.486	3905
3946.089	3889
3947.692	3914
3949.295	3892
3950.898	3874
3952.499	3834
3954.1	3803
3955.7	3880
3957.303	3842
3958.903	3823
3960.502	3809
3962.101	3815
3963.7	3850
3965.301	3794
3966.899	3817
3968.497	3786
3970.094	3742
3971.691	3791
3973.288	3754
3974.885	3810
3976.481	3722
3978.077	3734
3979.672	3851
3981.267	3729
3982.863	3787
3984.457	3830
3986.051	3739
3987.645	3744
3989.238	3689
3990.831	3685
3992.425	3650
3994.017	3735
3995.607	3728
3997.199	3723
3998.79	3723
4000.382	3616
4001.973	3695
4003.561	3699
4005.151	3647
4006.741	3643
4008.331	3697
4009.918	3738
4011.507	3699
4013.095	3699
4014.681	3615
4016.269	3666
4017.856	3611
4019.443	3651
4021.028	3592
4022.614	3624
4024.199	3658
4025.785	3645
4027.37	3638
4028.953	3612
4030.536	3628
4032.12	3594
4033.704	3629
4035.287	3620
4036.869	3619
4038.45	3592
4040.032	3546
4041.613	3600
4043.195	3602
4044.776	3526
4046.356	3554
4047.935	3552
4049.515	3567
4051.095	3543
4052.674	3562
4054.251	3530
4055.829	3496
4057.406	3450
4058.985	3476
4060.562	3537
4062.139	3590
4063.715	3597
4065.29	3602
4066.865	3492
4068.442	3436
4070.016	3569
4071.59	3479
4073.164	3532
4074.738	3507
4076.312	3446
4077.885	3504
4079.458	3515
4081.03	3450
4082.602	3523
4084.173	3438
4085.745	3497
4087.315	3557
4088.886	3479
4090.456	3462
4092.026	3482
4093.596	3454
4095.165	3531
4096.734	3478
4098.301	3396
4099.869	3404
4101.437	3442
4103.006	3448
4104.572	3463
4106.139	3408
4107.704	3403
4109.27	3387
4110.837	3427
4112.401	3413
4113.966	3478
4115.53	3388
4117.094	3388
4118.659	3382
4120.223	3371
4121.785	3364
4123.347	3411
4124.909	3335
4126.471	3398
4128.034	3380
4129.595	3354
4131.155	3318
4132.716	3321
4134.275	3362
4135.836	3313
4137.395	3403
4138.955	3331
4140.513	3363
4142.071	3354
4143.628	3296
4145.188	3344
4146.745	3326
4148.302	3377
4149.858	3339
4151.414	3328
4152.971	3357
4154.526	3268
4156.081	3274
4157.635	3263
4159.189	3295
4160.745	3347
4162.298	3343
4163.852	3245
4165.405	3170
4166.957	3328
4168.51	3236
4170.063	3278
4171.614	3261
4173.166	3235
4174.717	3224
4176.267	3263
4177.817	3192
4179.368	3185
4180.917	3244
4182.466	3222
4184.016	3237
4185.564	3260
4187.112	3188
4188.66	3196
4190.207	3176
4191.754	3207
4193.301	3209
4194.848	3198
4196.394	3142
4197.94	3184
4199.484	3125
4201.03	3176
4202.575	3154
4204.12	3111
4205.663	3204
4207.207	3131
4208.75	3237
4210.292	3198
4211.836	3171
4213.378	3061
4214.92	3141
4216.46	3160
4218.002	3202
4219.544	3199
4221.083	3066
4222.625	3109
4224.164	3212
4225.703	3141
4227.244	3119
4228.782	3103
4230.32	3214
4231.857	3110
4233.395	3156
4234.933	3067
4236.471	3130
4238.007	3053
4239.542	3021
4241.078	3172
4242.614	3100
4244.15	3066
4245.685	3109
4247.219	3060
4248.753	3060
4250.287	3065
4251.82	3118
4253.354	3118
4254.887	3108
4256.419	2965
4257.951	3074
4259.483	3058
4261.016	3046
4262.547	3132
4264.078	3023
4265.608	3062
4267.137	3020
4268.668	3057
4270.197	3052
4271.727	3039
4273.254	3036
4274.783	3092
4276.311	3030
4277.84	3085
4279.366	3078
4280.894	3042
4282.42	3046
4283.946	3055
4285.473	3040
4286.998	2982
4288.523	2898
4290.047	2998
4291.572	2997
4293.096	2952
4294.622	3029
4296.144	2985
4297.668	2964
4299.19	3027
4300.713	3027
4302.236	2888
4303.758	2961
4305.279	3007
4306.799	2960
4308.321	2922
4309.842	3003
4311.361	2949
4312.882	2962
4314.401	2918
