400.0961	4607
402.6185	4699
405.1424	4676
407.6635	4679
410.1838	4649
412.7035	4879
415.2225	4845
417.7388	4748
420.2585	4841
422.7754	4859
425.2917	4943
427.8072	5043
430.3221	5077
432.8363	4922
435.3498	5119
437.8626	5054
440.3727	4984
442.8841	5222
445.3969	5014
447.907	5102
450.4142	4980
452.9229	5054
455.4289	5038
457.9362	4963
460.4449	5022
462.9488	4900
465.454	5001
467.9566	4986
470.4604	5048
472.9637	5050
475.4662	4981
477.966	5065
480.4671	5057
482.9656	4971
485.4633	5010
487.9645	5011
490.4608	5087
492.9566	5088
495.4536	5057
497.948	5153
500.4437	5057
502.9387	5048
505.431	5084
507.9226	5012
510.4136	5137
512.9079	5102
515.3975	5141
517.8864	5147
520.3746	5214
522.8622	5217
525.3491	5158
527.8394	5212
530.3249	5148
532.8098	5176
535.2939	5103
537.7774	5153
540.2623	5215
542.7444	5230
545.2259	5154
547.7067	5292
550.1868	5199
552.6683	5106
555.147	5149
557.6231	5286
560.1005	5199
562.5773	5271
565.0534	5230
567.5308	5306
570.0056	5296
572.4776	5301
574.951	5274
577.4237	5471
579.8978	5407
582.3671	5453
584.8378	5515
587.3079	5396
589.7773	5475
592.244	5411
594.714	5502
597.1793	5447
599.6461	5514
602.1121	5375
604.5754	5393
607.0421	5331
609.5042	5493
611.9675	5471
614.4282	5378
616.8902	5445
619.3515	5397
621.8122	5273
624.2702	5444
626.7296	5389
629.1863	5335
631.6423	5268
634.1017	5316
636.5563	5396
639.0104	5355
641.4658	5387
643.9185	5386
646.3725	5330
648.8239	5370
651.2766	5447
653.7266	5304
656.176	5388
658.6247	5478
661.0748	5399
663.5242	5486
665.9709	5496
668.417	5581
670.8624	5538
673.3092	5451
675.7533	5498
678.1968	5455
680.6395	5508
683.0817	5621
685.5251	5568
687.9659	5579
690.4061	5589
692.8456	5485
695.2844	5625
697.7226	5731
700.1621	5646
702.599	5531
705.0332	5672
707.4688	5566
709.9036	5729
712.3399	5719
714.7735	5547
717.2044	5691
719.6367	5722
722.0683	5670
724.4993	5744
726.9296	5627
729.3593	5753
731.7883	5790
734.2147	5743
736.6423	5659
739.0714	5698
741.4958	5772
743.9216	5916
746.3447	5849
748.7691	5853
751.1929	5949
753.616	6028
756.0366	5990
758.4584	5911
760.8776	5923
763.2982	5949
765.718	5918
768.1373	5953
770.5539	5896
772.9698	6022
775.3871	6007
777.8038	5990
780.2178	5988
782.6332	5901
785.0459	5965
787.458	5978
789.8714	6002
792.2842	5964
794.6943	5884
797.1038	6037
799.5127	5875
801.9209	5929
804.3324	5899
806.7393	5956
809.1456	5940
811.5513	6036
813.9562	6063
816.3625	6037
818.7663	5992
821.1693	6065
823.5718	6092
825.9735	6140
828.3746	6019
830.7771	5929
833.177	6069
835.5762	6099
837.9747	6172
840.3727	6082
842.772	6138
845.1666	6263
847.5626	6222
849.958	6268
852.3527	6228
854.7488	6221
857.1403	6288
859.5331	6289
861.9253	6306
864.3168	6205
866.7057	6216
869.098	6223
871.4876	6291
873.8746	6213
876.263	6260
878.6487	6283
881.0378	6200
883.4243	6283
885.8081	6196
888.1933	6203
890.5759	6168
892.9598	6287
895.343	6215
897.7256	6205
900.1057	6141
902.4871	6349
904.8659	6320
907.246	6084
909.6254	6378
912.0023	6317
914.3786	6436
916.7562	6551
919.1331	6556
921.5074	6725
923.8831	6663
926.2562	6626
928.6287	6759
931.0005	6646
933.3757	6639
935.7462	6598
938.1162	6709
940.4855	6789
942.8542	6756
945.2242	6942
947.5916	6937
949.9584	7128
952.3266	7363
954.6921	7579
957.0571	7970
959.4233	8278
961.787	8330
964.15	8215
966.5125	8077
968.8742	7645
971.2354	7368
973.5959	7015
975.9559	6948
978.3151	6709
980.6738	6603
983.0338	6772
985.3912	6609
987.7461	6549
990.1022	6383
992.4578	6500
994.8127	6427
997.1689	6418
999.5207	6507
1001.874	6522
1004.226	6501
1006.576	6482
1008.929	6481
1011.28	6511
1013.628	6312
1015.977	6489
1018.324	6458
1020.674	6498
1023.019	6499
1025.366	6508
1027.713	6617
1030.056	6563
1032.399	6618
1034.746	6597
1037.087	6632
1039.431	6563
1041.771	6449
1044.113	6608
1046.454	6601
1048.793	6521
1051.133	6571
1053.471	6603
1055.807	6575
1058.146	6678
1060.483	6636
1062.818	6538
1065.153	6690
1067.489	6783
1069.822	6844
1072.156	6691
1074.488	6769
1076.82	6788
1079.15	6790
1081.48	6755
1083.814	6830
1086.143	6659
1088.471	6649
1090.799	6659
1093.126	6567
1095.452	6717
1097.78	6540
1100.105	6635
1102.43	6695
1104.754	6655
1107.077	6614
1109.4	6572
1111.722	6627
1114.044	6643
1116.365	6708
1118.685	6647
1121.005	6700
1123.324	6701
1125.643	6861
1127.961	6609
1130.278	6702
1132.595	6606
1134.911	6611
1137.226	6634
1139.541	6572
1141.854	6583
1144.167	6553
1146.482	6576
1148.793	6613
1151.105	6594
1153.414	6570
1155.725	6533
1158.033	6704
1160.344	6636
1162.651	6675
1164.959	6647
1167.265	6684
1169.572	6671
1171.878	6573
1174.184	6675
1176.488	6610
1178.79	6779
1181.094	6632
1183.396	6769
1185.699	6628
1188.001	6698
1190.301	6662
1192.6	6597
1194.9	6820
1197.2	6618
1199.497	6681
1201.794	6690
1204.09	6649
1206.387	6720
1208.684	6686
1210.978	6670
1213.272	6658
1215.565	6667
1217.858	6649
1220.15	6732
1222.443	6671
1224.734	6686
1227.024	6860
1229.313	6801
1231.602	6877
1233.892	6825
1236.18	6834
1238.467	6703
1240.754	6892
1243.04	7036
1245.325	6940
1247.612	6977
1249.896	6933
1252.178	7092
1254.461	7111
1256.743	6934
1259.027	7027
1261.308	7001
1263.587	6935
1265.867	7037
1268.146	7023
1270.425	6971
1272.703	7066
1274.981	7067
1277.256	7030
1279.532	6841
1281.808	6832
1284.083	6926
1286.358	7061
1288.63	6922
1290.904	6784
1293.175	6777
1295.449	6774
1297.719	6916
1299.99	6847
1302.259	6952
1304.529	6743
1306.798	6925
1309.065	6827
1311.333	6903
1313.599	6849
1315.866	6950
1318.131	6860
1320.396	6833
1322.66	6714
1324.925	6969
1327.187	6916
1329.448	6914
1331.711	7010
1333.974	6917
1336.234	6835
1338.493	6878
1340.752	6766
1343.01	6900
1345.269	6870
1347.526	6864
1349.784	6779
1352.04	6811
1354.295	6708
1356.552	6943
1358.806	6871
1361.059	6885
1363.312	6873
1365.564	6821
1367.818	6795
1370.069	6874
1372.318	6856
1374.568	6844
1376.817	6884
1379.066	7014
1381.316	6897
1383.564	6953
1385.809	7043
1388.056	7030
1390.301	7001
1392.549	7122
1394.793	7179
1397.036	7251
1399.279	7236
1401.522	7189
1403.763	7222
1406.007	7258
1408.248	7213
1410.487	7248
1412.727	7250
1414.965	7263
1417.205	7182
1419.442	7310
1421.68	7084
1423.915	7107
1426.152	7155
1428.388	7305
1430.623	7108
1432.857	7099
1435.091	7322
1437.323	7234
1439.556	7339
1441.789	7293
1444.019	7333
1446.25	7309
1448.48	7284
1450.708	7293
1452.938	7381
1455.167	7266
1457.394	7327
1459.62	7365
1461.846	7262
1464.073	7228
1466.299	7331
1468.523	7168
1470.746	7160
1472.969	7173
1475.191	7017
1477.415	7225
1479.636	6934
1481.858	7003
1484.078	6940
1486.298	6937
1488.518	6942
1490.736	6939
1492.954	6828
1495.169	6887
1497.386	6932
1499.602	6863
1501.819	6924
1504.034	6845
1506.248	6848
1508.462	6833
1510.675	6889
1512.888	6886
1515.1	6898
1517.311	6758
1519.522	6851
1521.732	6879
1523.942	6817
1526.151	6884
1528.36	6899
1530.566	6773
1532.773	6824
1534.98	6805
1537.187	6805
1539.392	6884
1541.596	6831
1543.801	6953
1546.005	6817
1548.208	6924
1550.411	6999
1552.612	6920
1554.814	6977
1557.013	6919
1559.212	7038
1561.414	6979
1563.612	6903
1565.811	6957
1568.007	7014
1570.203	7061
1572.403	6872
1574.598	7067
1576.792	7058
1578.988	7044
1581.181	6990
1583.376	7038
1585.568	6985
1587.761	7107
1589.952	7020
1592.143	7110
1594.333	7090
1596.524	7089
1598.715	7038
1600.903	7069
1603.091	6983
1605.278	7111
1607.466	7238
1609.652	7022
1611.838	7114
1614.023	7275
1616.207	7205
1618.391	7125
1620.576	7064
1622.759	7193
1624.941	7077
1627.123	7150
1629.304	7110
1631.484	7077
1633.664	7177
1635.844	7203
1638.022	7271
1640.201	7253
1642.38	7201
1644.556	7279
1646.732	7162
1648.908	7135
1651.084	7219
1653.257	7373
1655.433	7216
1657.607	7192
1659.779	7404
1661.951	7122
1664.122	7345
1666.295	7206
1668.467	7395
1670.635	7373
1672.805	7376
1674.973	7309
1677.142	7283
1679.31	7371
1681.478	7234
1683.644	7389
1685.81	7330
1687.975	7274
1690.142	7273
1692.305	7241
1694.468	7219
1696.632	7089
1698.794	7171
1700.957	7175
1703.119	7160
1705.279	7096
1707.439	7122
1709.598	7017
1711.758	7006
1713.917	6947
1716.075	7085
1718.231	6966
1720.388	7053
1722.543	7060
1724.702	7045
1726.856	6980
1729.01	7019
1731.164	7024
1733.317	7102
1735.471	7064
1737.623	6934
1739.774	7036
1741.925	7124
1744.075	6946
1746.225	6996
1748.376	7027
1750.524	7157
1752.672	7047
1754.82	7002
1756.965	7142
1759.113	7134
1761.259	7138
1763.405	7100
1765.549	7144
1767.694	7001
1769.836	7200
1771.981	7132
1774.123	7154
1776.264	7058
1778.405	7060
1780.546	7182
1782.687	7049
1784.827	7139
1786.966	7152
1789.103	7157
1791.242	7098
1793.381	7166
1795.517	7122
1797.653	7068
1799.788	7120
1801.923	7221
1804.057	7068
1806.193	7124
1808.326	7132
1810.457	7031
1812.59	7225
1814.721	7149
1816.855	7062
1818.984	7224
1821.113	7209
1823.244	7132
1825.372	7143
1827.499	7186
1829.63	7089
1831.756	7122
1833.882	7066
1836.007	7003
1838.132	7163
1840.26	7076
1842.384	7020
1844.507	6987
1846.63	7125
1848.752	7073
1850.875	7110
1852.996	7048
1855.118	7050
1857.238	6978
1859.358	7030
1861.477	7043
1863.597	7137
1865.715	7054
1867.832	7039
1869.948	7138
1872.064	7017
1874.181	7093
1876.297	7060
1878.411	7037
1880.526	6986
1882.639	7072
1884.752	6941
1886.865	7108
1888.977	7085
1891.089	7056
1893.2	7128
1895.308	7080
1897.42	7075
1899.53	7188
1901.639	7130
1903.745	7066
1905.853	7140
1907.962	7031
1910.067	7102
1912.174	7269
1914.278	7113
1916.383	7128
1918.486	7170
1920.592	7139
1922.694	7196
1924.797	7235
1926.898	7108
1929	7286
1931.102	7127
1933.203	7199
1935.301	7205
1937.401	7063
1939.499	7064
1941.598	7108
1943.697	7191
1945.793	7124
1947.888	7255
1949.985	7081
1952.08	7035
1954.176	7173
1956.269	7044
1958.364	7208
1960.457	7156
1962.549	7120
1964.642	7161
1966.733	7015
1968.823	7133
1970.913	7187
1973.005	7141
1975.093	7063
1977.184	7124
1979.271	7144
1981.359	7077
1983.446	7197
1985.532	7046
1987.619	7108
1989.705	7119
1991.789	7165
1993.874	6971
1995.956	7169
1998.041	7092
2000.123	7059
2002.206	7048
2004.287	7162
2006.368	7086
2008.449	6998
2010.529	7120
2012.609	7024
2014.688	7089
2016.766	7026
2018.843	7060
2020.922	7088
2022.999	7014
2025.074	7012
2027.15	7127
2029.225	7047
2031.299	7138
2033.375	7123
2035.447	7061
2037.52	7085
2039.592	7028
2041.664	7071
2043.736	7120
2045.807	7151
2047.876	7049
2049.947	7156
2052.015	7041
2054.086	7100
2056.153	7059
2058.221	7073
2060.288	7029
2062.353	6941
2064.42	7101
2066.486	7264
2068.55	7077
2070.614	7072
2072.678	7113
2074.741	7159
2076.805	7171
2078.866	7101
2080.929	7064
2082.99	7148
2085.049	7128
2087.109	7091
2089.17	7138
2091.228	7149
2093.286	7183
2095.344	7107
2097.4	7124
2099.46	7096
2101.516	7052
2103.572	7178
2105.626	7087
2107.679	7133
2109.735	7028
2111.788	7242
2113.841	7103
2115.894	7008
2117.945	7082
2119.997	7003
2122.049	7097
2124.1	7067
2126.148	7108
2128.197	7053
2130.246	7057
2132.296	7116
2134.342	7193
2136.39	7042
2138.437	7099
2140.483	6994
2142.527	6970
2144.574	7076
2146.619	6974
2148.661	7070
2150.705	7191
2152.747	7047
2154.792	7041
2156.832	7145
2158.874	6936
2160.915	6980
2162.954	7095
2164.995	7054
2167.034	7022
2169.072	6973
2171.111	7052
2173.148	6905
2175.186	6988
2177.223	6961
2179.258	6965
2181.294	7024
2183.328	7091
2185.362	6999
2187.398	7088
2189.431	7031
2191.463	6932
2193.495	6907
2195.528	6944
2197.56	6918
2199.59	7031
2201.62	6949
2203.649	6837
2205.678	6898
2207.708	6904
2209.737	6953
2211.764	6937
2213.791	6850
2215.817	6946
2217.843	6997
2219.87	6850
2221.895	6975
2223.919	6923
2225.942	6762
2227.966	6910
2229.988	6855
2232.012	6926
2234.032	7021
2236.054	6819
2238.074	6701
2240.095	6876
2242.116	6854
2244.135	6973
2246.153	6882
2248.171	6937
2250.188	6872
2252.208	6830
2254.223	6878
2256.239	6916
2258.255	6903
2260.269	6761
2262.283	6851
2264.3	6923
2266.312	6871
2268.325	6950
2270.336	6852
2272.349	6966
2274.362	6871
2276.372	6903
2278.383	6907
2280.392	6788
2282.402	6919
2284.409	6835
2286.418	6839
2288.427	6910
2290.433	6877
2292.441	7003
2294.446	6955
2296.453	6798
2298.459	6811
2300.463	6794
2302.466	6896
2304.471	6924
2306.475	6891
2308.477	6909
2310.478	6859
2312.481	6831
2314.481	6826
2316.481	6762
2318.482	6862
2320.482	6919
2322.48	6786
2324.48	6770
2326.478	6727
2328.476	6884
2330.473	6798
2332.469	6822
2334.465	6845
2336.46	6664
2338.454	6875
2340.45	6704
2342.444	6708
2344.437	6665
2346.43	6718
2348.421	6850
2350.414	6705
2352.405	6810
2354.396	6775
2356.386	6753
2358.376	6729
2360.366	6737
2362.355	6619
2364.343	6715
2366.331	6740
2368.317	6702
2370.304	6659
2372.292	6697
2374.278	6737
2376.262	6690
2378.247	6672
2380.23	6657
2382.216	6710
2384.199	6760
2386.181	6692
2388.163	6675
2390.144	6550
2392.127	6749
2394.107	6550
2396.087	6591
2398.066	6578
2400.046	6623
2402.023	6699
2404.004	6525
2405.981	6634
2407.957	6590
2409.934	6667
2411.91	6591
2413.886	6752
2415.862	6645
2417.836	6536
2419.809	6602
2421.784	6601
2423.756	6507
2425.73	6664
2427.701	6576
2429.672	6567
2431.644	6607
2433.615	6604
2435.586	6691
2437.555	6629
2439.523	6646
2441.491	6546
2443.459	6654
2445.428	6657
2447.395	6561
2449.361	6607
2451.327	6602
2453.292	6582
2455.257	6597
2457.223	6589
2459.187	6557
2461.15	6533
2463.113	6712
2465.076	6696
2467.039	6596
2468.999	6569
2470.96	6515
2472.921	6542
2474.881	6650
2476.841	6565
2478.8	6579
2480.759	6527
2482.717	6572
2484.675	6520
2486.63	6497
2488.589	6424
2490.545	6449
2492.5	6537
2494.455	6402
2496.408	6567
2498.364	6396
2500.318	6547
2502.27	6509
2504.223	6511
2506.174	6457
2508.126	6450
2510.078	6395
2512.03	6531
2513.979	6494
2515.927	6440
2517.877	6553
2519.826	6580
2521.775	6446
2523.722	6538
2525.668	6457
2527.616	6561
2529.561	6405
2531.508	6429
2533.452	6546
2535.398	6533
2537.342	6469
2539.284	6460
2541.229	6465
2543.173	6516
2545.114	6448
2547.055	6447
2548.996	6483
2550.938	6493
2552.878	6392
2554.817	6401
2556.756	6485
2558.695	6458
2560.633	6372
2562.572	6356
2564.509	6419
2566.445	6368
2568.382	6523
2570.317	6390
2572.254	6396
2574.189	6426
2576.123	6263
2578.057	6450
2579.99	6436
2581.923	6475
2583.855	6442
2585.788	6436
2587.719	6451
2589.65	6533
2591.579	6381
2593.511	6586
2595.44	6480
2597.37	6323
2599.297	6584
2601.225	6389
2603.153	6436
2605.08	6539
2607.007	6477
2608.932	6360
2610.858	6508
2612.782	6410
2614.709	6556
2616.632	6425
2618.556	6455
2620.478	6454
2622.401	6423
2624.324	6428
2626.247	6515
2628.167	6435
2630.088	6491
2632.008	6449
2633.928	6492
2635.848	6403
2637.766	6504
2639.684	6502
2641.603	6336
2643.519	6537
2645.437	6431
2647.353	6463
2649.27	6477
2651.184	6478
2653.099	6399
2655.014	6432
2656.928	6567
2658.842	6492
2660.755	6437
2662.667	6273
2664.579	6410
2666.491	6409
2668.402	6407
2670.312	6422
2672.222	6410
2674.132	6381
2676.042	6317
2677.951	6332
2679.859	6294
2681.766	6303
2683.674	6476
2685.582	6395
2687.488	6354
2689.392	6381
2691.298	6430
2693.202	6403
2695.107	6363
2697.012	6221
2698.914	6324
2700.817	6348
2702.72	6431
2704.622	6379
2706.524	6403
2708.425	6336
2710.326	6327
2712.225	6331
2714.125	6228
2716.024	6483
2717.923	6361
2719.822	6340
2721.719	6258
2723.616	6323
2725.512	6348
2727.41	6285
2729.305	6360
2731.201	6215
2733.095	6359
2734.99	6349
2736.884	6286
2738.778	6348
2740.67	6395
2742.562	6301
2744.455	6302
2746.346	6180
2748.238	6181
2750.129	6291
2752.018	6304
2753.907	6178
2755.797	6122
2757.687	6300
2759.575	6261
2761.462	6175
2763.349	6248
2765.237	6272
2767.124	6182
2769.009	6207
2770.894	6311
2772.779	6177
2774.663	6301
2776.547	6177
2778.431	6265
2780.314	6219
2782.197	6316
2784.078	6288
2785.96	6283
2787.842	6307
2789.723	6316
2791.603	6170
2793.483	6145
2795.362	6216
2797.241	6221
2799.121	6316
2800.997	6231
2802.874	6294
2804.751	6208
2806.628	6246
2808.506	6167
2810.38	6221
2812.255	6171
2814.13	6144
2816.003	6291
2817.878	6087
2819.752	6202
2821.623	6173
2823.496	6309
2825.368	6244
2827.238	6225
2829.111	6203
2830.98	6226
2832.851	6286
2834.719	6202
2836.589	6331
2838.458	6311
2840.327	6240
2842.193	6341
2844.061	6290
2845.927	6271
2847.794	6304
2849.66	6322
2851.525	6167
2853.39	6373
2855.254	6328
2857.117	6273
2858.983	6372
2860.845	6379
2862.707	6459
2864.569	6419
2866.431	6421
2868.293	6561
2870.154	6520
2872.013	6493
2873.873	6548
2875.733	6853
2877.592	6802
2879.451	6823
2881.309	6943
2883.166	6836
2885.022	6890
2886.879	7030
2888.736	6980
2890.591	7056
2892.446	7088
2894.301	7084
2896.155	7010
2898.009	7026
2899.863	7027
2901.716	7019
2903.568	7061
2905.419	7012
2907.27	7091
2909.123	6957
2910.973	6907
2912.824	7102
2914.673	7099
2916.521	7185
2918.372	7264
2920.22	7293
2922.067	7387
2923.914	7473
2925.761	7529
2927.607	7582
2929.455	7638
2931.301	7642
2933.144	7860
2934.99	7782
2936.833	7780
2938.678	7904
2940.522	7848
2942.364	8207
2944.207	8248
2946.048	8189
2947.891	8224
2949.731	8292
2951.571	8311
2953.412	8265
2955.25	8179
2957.09	8004
2958.93	7968
2960.767	7933
2962.606	7772
2964.443	7819
2966.279	7739
2968.116	7449
2969.953	7498
2971.788	7413
2973.623	7389
2975.457	7143
2977.292	7202
2979.127	7191
2980.959	7090
2982.792	7029
2984.624	6972
2986.455	6948
2988.288	6935
2990.119	6937
2991.949	6817
2993.779	6832
2995.608	6786
2997.439	6676
2999.268	6748
3001.096	6563
3002.923	6632
3004.751	6554
3006.578	6482
3008.406	6437
3010.232	6382
3012.057	6212
3013.883	6307
3015.706	6211
3017.532	6172
3019.356	6167
3021.179	6182
3023.002	6075
3024.823	6014
3026.646	6049
3028.469	6054
3030.289	5969
3032.11	6015
3033.93	6097
3035.749	6003
3037.57	5976
3039.39	5969
3041.207	5944
3043.026	6046
3044.842	5951
3046.661	5802
3048.477	5902
3050.294	5970
3052.109	5866
3053.925	5996
3055.739	5991
3057.555	5901
3059.368	5765
3061.181	6014
3062.995	5841
3064.807	5800
3066.62	5799
3068.433	5898
3070.243	5846
3072.054	5871
3073.865	5922
3075.675	5856
3077.485	5917
3079.293	5776
3081.102	5828
3082.911	5796
3084.719	5727
3086.527	5839
3088.333	5862
3090.139	5854
3091.945	5724
3093.75	5779
3095.557	5704
3097.361	5748
3099.165	5649
3100.969	5765
3102.772	5737
3104.575	5733
3106.379	5719
3108.181	5657
3109.982	5703
3111.783	5601
3113.584	5743
3115.386	5645
3117.186	5583
3118.985	5691
3120.783	5678
3122.582	5593
3124.381	5380
3126.179	5591
3127.975	5708
3129.772	5644
3131.569	5518
3133.365	5656
3135.161	5634
3136.956	5583
3138.751	5588
3140.544	5625
3142.338	5568
3144.132	5678
3145.925	5518
3147.717	5541
3149.509	5545
3151.301	5534
3153.091	5542
3154.884	5507
3156.673	5553
3158.462	5560
3160.252	5504
3162.041	5496
3163.831	5587
3165.618	5542
3167.405	5499
3169.193	5470
3170.979	5427
3172.767	5594
3174.553	5520
3176.338	5548
3178.123	5546
3179.907	5483
3181.692	5559
3183.477	5564
3185.259	5508
3187.042	5529
3188.824	5591
3190.607	5625
3192.389	5515
3194.17	5482
3195.951	5478
3197.73	5477
3199.51	5455
3201.289	5495
3203.07	5423
3204.848	5548
3206.626	5542
3208.403	5554
3210.18	5422
3211.959	5483
3213.735	5452
3215.511	5539
3217.285	5523
3219.06	5488
3220.836	5498
3222.611	5397
3224.384	5514
3226.158	5533
3227.929	5424
3229.702	5505
3231.476	5413
3233.248	5365
3235.018	5453
3236.789	5454
3238.56	5479
3240.33	5414
3242.1	5600
3243.869	5501
3245.637	5348
3247.405	5465
3249.172	5411
3250.941	5504
3252.707	5451
3254.474	5452
3256.24	5515
3258.006	5472
3259.772	5442
3261.537	5461
3263.301	5561
3265.065	5480
3266.828	5479
3268.592	5520
3270.355	5422
3272.117	5453
3273.878	5445
3275.64	5397
3277.401	5493
3279.162	5430
3280.922	5490
3282.682	5446
3284.441	5457
3286.199	5531
3287.959	5353
3289.716	5432
3291.475	5476
3293.232	5471
3294.988	5522
3296.744	5450
3298.501	5435
3300.256	5474
3302.011	5503
3303.766	5403
3305.52	5401
3307.275	5379
3309.028	5390
3310.781	5402
3312.533	5500
3314.285	5527
3316.038	5446
3317.789	5401
3319.54	5445
3321.289	5452
3323.039	5452
3324.789	5472
3326.539	5534
3328.288	5438
3330.035	5443
3331.783	5387
3333.531	5439
3335.28	5383
3337.025	5343
3338.771	5355
3340.518	5375
3342.262	5342
3344.009	5429
3345.753	5404
3347.497	5262
3349.24	5316
3350.983	5372
3352.726	5408
3354.469	5406
3356.212	5422
3357.952	5406
3359.694	5280
3361.434	5267
3363.176	5226
3364.916	5252
3366.654	5301
3368.394	5356
3370.132	5244
3371.871	5315
3373.61	5337
3375.346	5232
3377.083	5270
3378.82	5269
3380.556	5276
3382.292	5209
3384.027	5231
3385.763	5256
3387.497	5229
3389.231	5253
3390.965	5142
3392.698	5164
3394.431	5205
3396.164	5164
3397.896	5087
3399.627	5240
3401.36	5198
3403.09	5205
3404.82	5219
3406.55	5134
3408.279	5120
3410.01	5183
3411.738	5241
3413.467	5045
3415.194	5067
3416.92	5130
3418.647	5189
3420.375	5136
3422.102	5083
3423.827	5156
3425.553	5113
3427.277	5091
3429.003	5182
3430.727	5045
3432.451	5185
3434.173	5182
3435.896	5107
3437.62	5155
3439.343	5058
3441.063	5125
3442.785	5119
3444.505	5040
3446.226	5038
3447.948	5140
3449.666	5061
3451.386	5123
3453.104	5143
3454.823	5041
3456.541	5005
3458.259	5004
3459.976	5005
3461.693	4951
3463.408	4985
3465.125	4992
3466.841	4950
3468.556	4898
3470.271	4933
3471.985	4935
3473.698	5014
3475.414	4938
3477.126	4963
3478.838	4861
3480.55	4896
3482.263	4843
3483.975	4942
3485.686	4916
3487.396	4906
3489.106	4875
3490.817	4886
3492.526	4955
3494.236	4764
3495.944	4886
3497.652	4840
3499.359	4765
3501.066	4790
3502.775	4866
3504.481	4838
3506.187	4860
3507.893	4776
3509.598	4701
3511.304	4746
3513.009	4684
3514.713	4774
3516.417	4727
3518.12	4801
3519.821	4763
3521.525	4644
3523.228	4715
3524.929	4612
3526.631	4820
3528.33	4645
3530.032	4683
3531.733	4740
3533.433	4622
3535.131	4638
3536.83	4553
3538.529	4652
3540.227	4575
3541.925	4597
3543.623	4610
3545.319	4636
3547.016	4582
3548.712	4568
3550.408	4596
3552.103	4705
3553.798	4601
3555.491	4669
3557.188	4638
3558.88	4632
3560.574	4542
3562.266	4609
3563.959	4596
3565.651	4555
3567.343	4586
3569.035	4538
3570.725	4602
3572.415	4503
3574.106	4520
3575.797	4452
3577.485	4553
3579.174	4523
3580.863	4524
3582.551	4568
3584.238	4482
3585.926	4554
3587.613	4650
3589.3	4557
3590.986	4513
3592.671	4432
3594.357	4477
3596.042	4391
3597.726	4484
3599.41	4448
3601.094	4496
3602.778	4420
3604.461	4479
3606.143	4437
3607.825	4405
3609.507	4381
3611.188	4298
3612.87	4353
3614.551	4425
3616.229	4400
3617.909	4330
3619.589	4306
3621.269	4386
3622.948	4414
3624.625	4378
3626.302	4412
3627.98	4321
3629.657	4336
3631.334	4304
3633.01	4252
3634.686	4295
3636.361	4346
3638.036	4245
3639.712	4301
3641.385	4252
3643.06	4193
3644.732	4269
3646.405	4249
3648.08	4301
3649.751	4331
3651.424	4191
3653.094	4263
3654.766	4287
3656.436	4303
3658.106	4212
3659.777	4240
3661.446	4170
3663.115	4061
3664.783	4213
3666.452	4197
3668.121	4114
3669.788	4105
3671.454	4153
3673.121	4146
3674.789	4169
3676.455	4062
3678.12	4219
3679.784	4116
3681.45	4139
3683.114	4052
3684.779	4165
3686.442	4064
3688.105	4100
3689.768	4054
3691.43	4170
3693.093	4057
3694.754	4047
3696.415	4098
3698.076	4086
3699.736	4170
3701.396	4061
3703.057	4112
3704.716	4057
3706.375	4034
3708.034	4061
3709.692	4059
3711.351	4134
3713.008	3956
3714.665	4093
3716.321	4034
3717.977	3963
3719.634	4111
3721.29	3969
3722.945	4050
3724.598	4038
3726.253	4050
3727.907	4086
3729.561	4044
3731.214	4036
3732.867	4024
3734.518	4069
3736.171	4045
3737.824	4025
3739.474	4016
3741.125	3897
3742.775	3965
3744.425	4060
3746.074	4035
3747.725	3912
3749.373	3934
3751.022	3991
3752.669	3891
3754.318	3914
3755.966	3902
3757.612	4009
3759.259	3988
3760.905	4020
3762.55	4014
3764.197	3921
3765.842	3873
3767.486	3969
3769.131	3818
3770.774	3978
3772.417	3961
3774.061	3988
3775.705	3940
3777.347	4008
3778.988	3899
3780.629	3915
3782.271	3888
3783.912	3963
3785.552	3904
3787.192	3835
3788.831	3915
3790.472	3901
3792.112	3881
3793.75	3865
3795.388	3849
3797.024	3877
3798.661	3808
3800.3	3812
3801.936	3782
3803.572	3843
3805.208	3816
3806.844	3877
3808.48	3842
3810.115	3784
3811.748	3832
3813.382	3808
3815.016	3786
3816.649	3786
3818.283	3883
3819.914	3797
3821.547	3775
3823.178	3906
3824.809	3794
3826.441	3830
3828.072	3834
3829.701	3776
3831.331	3793
3832.96	3740
3834.591	3827
3836.219	3727
3837.847	3788
3839.475	3754
3841.102	3775
3842.729	3755
3844.357	3715
3845.984	3689
3847.609	3803
3849.234	3723
3850.86	3787
3852.485	3722
3854.11	3762
3855.734	3778
3857.357	3758
3858.981	3705
3860.603	3712
3862.227	3703
3863.848	3697
3865.471	3734
3867.092	3689
3868.713	3639
3870.334	3664
3871.954	3732
3873.575	3643
3875.194	3636
3876.813	3612
3878.433	3653
3880.051	3664
3881.669	3636
3883.286	3640
3884.904	3582
3886.52	3693
3888.138	3669
3889.754	3653
3891.37	3684
3892.985	3610
3894.6	3683
3896.216	3656
3897.831	3616
3899.444	3714
3901.058	3626
3902.67	3593
3904.283	3775
3905.897	3628
3907.509	3586
3909.121	3650
3910.731	3660
3912.342	3587
3913.954	3576
3915.563	3537
3917.174	3649
3918.783	3622
3920.391	3603
3922.002	3531
3923.611	3622
3925.218	3590
3926.826	3532
3928.432	3627
3930.039	3605
3931.647	3559
3933.253	3575
3934.859	3558
3936.464	3591
3938.068	3507
3939.675	3568
3941.278	3569
3942.883	3645
3944.486	3574
3946.089	3541
3947.692	3525
3949.295	3532
3950.898	3512
3952.499	3596
3954.1	3567
3955.7	3520
3957.303	3528
3958.903	3531
3960.502	3484
3962.101	3496
3963.7	3475
3965.301	3564
3966.899	3595
3968.497	3491
3970.094	3542
3971.691	3513
3973.288	3485
3974.885	3470
3976.481	3493
3978.077	3531
3979.672	3476
3981.267	3406
3982.863	3473
3984.457	3441
3986.051	3373
3987.645	3450
3989.238	3443
3990.831	3505
3992.425	3465
3994.017	3472
3995.607	3382
3997.199	3376
3998.79	3414
4000.382	3471
4001.973	3441
4003.561	3373
4005.151	3381
4006.741	3357
4008.331	3420
4009.918	3298
4011.507	3416
4013.095	3383
4014.681	3416
4016.269	3455
4017.856	3398
4019.443	3388
4021.028	3343
4022.614	3313
4024.199	3370
4025.785	3305
4027.37	3369
4028.953	3317
4030.536	3324
4032.12	3287
4033.704	3282
4035.287	3299
4036.869	3364
4038.45	3328
4040.032	3292
4041.613	3370
4043.195	3276
4044.776	3305
4046.356	3264
4047.935	3273
4049.515	3326
4051.095	3285
4052.674	3340
4054.251	3276
4055.829	3246
4057.406	3280
4058.985	3246
4060.562	3263
4062.139	3253
4063.715	3206
4065.29	3289
4066.865	3231
4068.442	3166
4070.016	3277
4071.59	3233
4073.164	3236
4074.738	3273
4076.312	3268
4077.885	3258
4079.458	3205
4081.03	3264
4082.602	3206
4084.173	3257
4085.745	3263
4087.315	3148
4088.886	3235
4090.456	3151
4092.026	3268
4093.596	3160
4095.165	3154
4096.734	3212
4098.301	3196
4099.869	3198
4101.437	3228
4103.006	3226
4104.572	3129
4106.139	3189
4107.704	3222
4109.27	3107
4110.837	3085
4112.401	3143
4113.966	3121
4115.53	3211
4117.094	3169
4118.659	3185
4120.223	3165
4121.785	3122
4123.347	3198
4124.909	3109
4126.471	3190
4128.034	3142
4129.595	3173
4131.155	3173
4132.716	3199
4134.275	3087
4135.836	3092
4137.395	3125
4138.955	3219
4140.513	3018
4142.071	3068
4143.628	3133
4145.188	3011
4146.745	3086
4148.302	3098
4149.858	3162
4151.414	3129
4152.971	3067
4154.526	2993
4156.081	3028
4157.635	3020
4159.189	3030
4160.745	3010
4162.298	3017
4163.852	3037
4165.405	3004
4166.957	3005
4168.51	2985
4170.063	3048
4171.614	2995
4173.166	2941
4174.717	3009
4176.267	3032
4177.817	2981
4179.368	2959
4180.917	3012
4182.466	3027
4184.016	2948
4185.564	2922
4187.112	2957
4188.66	2933
4190.207	2979
4191.754	3051
4193.301	2926
4194.848	2971
4196.394	3016
4197.94	2986
4199.484	2932
4201.03	2883
4202.575	2911
4204.12	2948
4205.663	2912
4207.207	2971
4208.75	2956
4210.292	2969
4211.836	3024
4213.378	2958
4214.92	2902
4216.46	2923
4218.002	2916
4219.544	2941
4221.083	2836
4222.625	2864
4224.164	2927
4225.703	2895
4227.244	2860
4228.782	2910
4230.32	2925
4231.857	2873
4233.395	2874
4234.933	2912
4236.471	2909
4238.007	2880
4239.542	2865
4241.078	2897
4242.614	2878
4244.15	2865
4245.685	2839
4247.219	2867
4248.753	2809
4250.287	2875
4251.82	2849
4253.354	2808
4254.887	2831
4256.419	2821
4257.951	2878
4259.483	2924
4261.016	2830
4262.547	2838
4264.078	2899
4265.608	2845
4267.137	2787
4268.668	2866
4270.197	2829
4271.727	2838
4273.254	2853
4274.783	2787
4276.311	2826
4277.84	2816
4279.366	2831
4280.894	2785
4282.42	2805
4283.946	2802
4285.473	2750
4286.998	2832
4288.523	2826
4290.047	2807
4291.572	2806
4293.096	2743
4294.622	2818
4296.144	2829
4297.668	2736
4299.19	2795
4300.713	2764
4302.236	2733
4303.758	2758
4305.279	2758
4306.799	2829
4308.321	2761
4309.842	2756
4311.361	2776
4312.882	2676
4314.401	2768
