400.0961	4066
402.6185	4094
405.1424	4103
407.6635	4068
410.1838	4141
412.7035	4131
415.2225	4094
417.7388	4186
420.2585	4254
422.7754	4270
425.2917	4238
427.8072	4243
430.3221	4376
432.8363	4398
435.3498	4388
437.8626	4433
440.3727	4404
442.8841	4334
445.3969	4324
447.907	4387
450.4142	4306
452.9229	4364
455.4289	4261
457.9362	4370
460.4449	4334
462.9488	4149
465.454	4302
467.9566	4266
470.4604	4252
472.9637	4334
475.4662	4275
477.966	4262
480.4671	4270
482.9656	4411
485.4633	4330
487.9645	4407
490.4608	4370
492.9566	4346
495.4536	4362
497.948	4273
500.4437	4346
502.9387	4408
505.431	4394
507.9226	4345
510.4136	4408
512.9079	4401
515.3975	4320
517.8864	4418
520.3746	4314
522.8622	4367
525.3491	4437
527.8394	4451
530.3249	4450
532.8098	4436
535.2939	4460
537.7774	4434
540.2623	4480
542.7444	4550
545.2259	4403
547.7067	4444
550.1868	4509
552.6683	4509
555.147	4560
557.6231	4512
560.1005	4526
562.5773	4462
565.0534	4527
567.5308	4534
570.0056	4581
572.4776	4585
574.951	4550
577.4237	4651
579.8978	4631
582.3671	4590
584.8378	4638
587.3079	4600
589.7773	4619
592.244	4773
594.714	4653
597.1793	4699
599.6461	4653
602.1121	4613
604.5754	4552
607.0421	4592
609.5042	4627
611.9675	4716
614.4282	4586
616.8902	4709
619.3515	4606
621.8122	4608
624.2702	4542
626.7296	4590
629.1863	4562
631.6423	4571
634.1017	4613
636.5563	4579
639.0104	4453
641.4658	4581
643.9185	4623
646.3725	4568
648.8239	4634
651.2766	4698
653.7266	4620
656.176	4698
658.6247	4642
661.0748	4632
663.5242	4604
665.9709	4630
668.417	4659
670.8624	4669
673.3092	4608
675.7533	4679
678.1968	4634
680.6395	4743
683.0817	4780
685.5251	4774
687.9659	4852
690.4061	4676
692.8456	4718
695.2844	4793
697.7226	4781
700.1621	4819
702.599	4722
705.0332	4737
707.4688	4812
709.9036	4821
712.3399	4910
714.7735	4813
717.2044	4882
719.6367	4838
722.0683	4976
724.4993	4913
726.9296	4855
729.3593	4861
731.7883	4971
734.2147	4969
736.6423	4975
739.0714	4994
741.4958	4835
743.9216	4996
746.3447	4914
748.7691	4952
751.1929	5007
753.616	4903
756.0366	5036
758.4584	5037
760.8776	5046
763.2982	5068
765.718	5050
768.1373	5099
770.5539	5184
772.9698	5070
775.3871	5022
777.8038	5045
780.2178	5049
782.6332	5160
785.0459	5026
787.458	5038
789.8714	5028
792.2842	5181
794.6943	5145
797.1038	5056
799.5127	5039
801.9209	5128
804.3324	5154
806.7393	5038
809.1456	5122
811.5513	5140
813.9562	5154
816.3625	5274
818.7663	5210
821.1693	5139
823.5718	5200
825.9735	5195
828.3746	5170
830.7771	5159
833.177	5163
835.5762	5172
837.9747	5255
840.3727	5235
842.772	5294
845.1666	5286
847.5626	5317
849.958	5342
852.3527	5334
854.7488	5464
857.1403	5307
859.5331	5424
861.9253	5382
864.3168	5436
866.7057	5367
869.098	5349
871.4876	5312
873.8746	5364
876.263	5348
878.6487	5352
881.0378	5318
883.4243	5317
885.8081	5266
888.1933	5290
890.5759	5356
892.9598	5354
895.343	5284
897.7256	5328
900.1057	5308
902.4871	5397
904.8659	5252
907.246	5463
909.6254	5317
912.0023	5450
914.3786	5464
916.7562	5656
919.1331	5702
921.5074	5760
923.8831	5762
926.2562	5851
928.6287	5755
931.0005	5762
933.3757	5747
935.7462	5810
938.1162	5858
940.4855	5832
942.8542	5855
945.2242	5806
947.5916	5978
949.9584	6078
952.3266	6219
954.6921	6421
957.0571	6580
959.4233	6900
961.787	7058
964.15	6952
966.5125	6905
968.8742	6553
971.2354	6362
973.5959	6044
975.9559	5984
978.3151	5712
980.6738	5685
983.0338	5692
985.3912	5524
987.7461	5631
990.1022	5550
992.4578	5607
994.8127	5536
997.1689	5504
999.5207	5632
1001.874	5507
1004.226	5648
1006.576	5581
1008.929	5555
1011.28	5509
1013.628	5563
1015.977	5471
1018.324	5487
1020.674	5524
1023.019	5531
1025.366	5593
1027.713	5683
1030.056	5617
1032.399	5648
1034.746	5573
1037.087	5613
1039.431	5670
1041.771	5757
1044.113	5564
1046.454	5708
1048.793	5609
1051.133	5714
1053.471	5483
1055.807	5591
1058.146	5679
1060.483	5670
1062.818	5583
1065.153	5733
1067.489	5734
1069.822	5794
1072.156	5680
1074.488	5727
1076.82	5635
1079.15	5716
1081.48	5815
1083.814	5690
1086.143	5736
1088.471	5643
1090.799	5578
1093.126	5688
1095.452	5717
1097.78	5684
1100.105	5607
1102.43	5760
1104.754	5638
1107.077	5744
1109.4	5737
1111.722	5567
1114.044	5662
1116.365	5652
1118.685	5607
1121.005	5611
1123.324	5699
1125.643	5763
1127.961	5721
1130.278	5625
1132.595	5627
1134.911	5579
1137.226	5717
1139.541	5598
1141.854	5598
1144.167	5569
1146.482	5605
1148.793	5695
1151.105	5622
1153.414	5656
1155.725	5567
1158.033	5593
1160.344	5608
1162.651	5659
1164.959	5693
1167.265	5822
1169.572	5708
1171.878	5603
1174.184	5808
1176.488	5688
1178.79	5742
1181.094	5807
1183.396	5810
1185.699	5728
1188.001	5691
1190.301	5726
1192.6	5663
1194.9	5734
1197.2	5753
1199.497	5733
1201.794	5683
1204.09	5613
1206.387	5736
1208.684	5636
1210.978	5774
1213.272	5672
1215.565	5665
1217.858	5625
1220.15	5815
1222.443	5688
1224.734	5701
1227.024	5795
1229.313	5750
1231.602	5822
1233.892	5927
1236.18	5788
1238.467	5803
1240.754	5921
1243.04	5968
1245.325	6058
1247.612	5964
1249.896	5995
1252.178	6062
1254.461	5984
1256.743	5890
1259.027	5916
1261.308	5970
1263.587	5970
1265.867	6038
1268.146	6026
1270.425	6040
1272.703	5886
1274.981	6030
1277.256	6021
1279.532	6001
1281.808	6020
1284.083	5877
1286.358	5944
1288.63	5958
1290.904	5931
1293.175	5871
1295.449	6005
1297.719	5820
1299.99	5821
1302.259	5820
1304.529	5899
1306.798	5905
1309.065	5819
1311.333	5906
1313.599	5822
1315.866	5850
1318.131	5989
1320.396	5918
1322.66	6001
1324.925	5919
1327.187	5931
1329.448	5987
1331.711	5945
1333.974	5898
1336.234	5934
1338.493	5965
1340.752	5861
1343.01	5876
1345.269	5753
1347.526	5922
1349.784	5933
1352.04	5873
1354.295	5843
1356.552	5849
1358.806	5855
1361.059	5828
1363.312	5885
1365.564	5835
1367.818	5817
1370.069	5956
1372.318	5883
1374.568	5880
1376.817	5909
1379.066	5895
1381.316	5966
1383.564	5961
1385.809	6017
1388.056	5939
1390.301	6059
1392.549	6200
1394.793	6227
1397.036	6249
1399.279	6349
1401.522	6259
1403.763	6319
1406.007	6221
1408.248	6286
1410.487	6197
1412.727	6271
1414.965	6267
1417.205	6164
1419.442	6232
1421.68	6235
1423.915	6190
1426.152	6094
1428.388	6144
1430.623	6147
1432.857	6161
1435.091	6282
1437.323	6269
1439.556	6404
1441.789	6228
1444.019	6263
1446.25	6374
1448.48	6221
1450.708	6368
1452.938	6329
1455.167	6364
1457.394	6437
1459.62	6351
1461.846	6328
1464.073	6283
1466.299	6310
1468.523	6114
1470.746	6192
1472.969	6088
1475.191	6203
1477.415	6139
1479.636	5995
1481.858	5940
1484.078	5917
1486.298	6024
1488.518	5966
1490.736	5982
1492.954	5821
1495.169	5813
1497.386	5841
1499.602	5912
1501.819	5837
1504.034	5848
1506.248	5836
1508.462	5852
1510.675	5782
1512.888	5905
1515.1	5829
1517.311	5745
1519.522	5740
1521.732	5755
1523.942	5868
1526.151	5742
1528.36	5961
1530.566	5773
1532.773	5875
1534.98	5769
1537.187	5811
1539.392	5908
1541.596	5892
1543.801	5880
1546.005	5858
1548.208	5849
1550.411	5951
1552.612	5888
1554.814	5992
1557.013	5954
1559.212	5942
1561.414	6005
1563.612	6052
1565.811	5901
1568.007	5866
1570.203	6072
1572.403	5976
1574.598	5967
1576.792	5990
1578.988	6054
1581.181	6045
1583.376	6056
1585.568	6101
1587.761	5997
1589.952	5925
1592.143	6034
1594.333	6022
1596.524	6123
1598.715	6058
1600.903	6078
1603.091	6022
1605.278	6172
1607.466	6081
1609.652	6154
1611.838	6062
1614.023	6079
1616.207	6146
1618.391	6080
1620.576	6081
1622.759	6113
1624.941	6149
1627.123	6102
1629.304	6215
1631.484	6177
1633.664	6188
1635.844	6108
1638.022	6148
1640.201	6145
1642.38	6133
1644.556	6256
1646.732	6184
1648.908	6178
1651.084	6237
1653.257	6362
1655.433	6390
1657.607	6216
1659.779	6328
1661.951	6196
1664.122	6298
1666.295	6288
1668.467	6386
1670.635	6262
1672.805	6246
1674.973	6408
1677.142	6283
1679.31	6265
1681.478	6175
1683.644	6317
1685.81	6298
1687.975	6232
1690.142	6195
1692.305	6191
1694.468	6266
1696.632	6171
1698.794	6227
1700.957	6080
1703.119	6141
1705.279	6035
1707.439	6143
1709.598	6125
1711.758	6041
1713.917	6090
1716.075	6053
1718.231	6043
1720.388	6017
1722.543	6079
1724.702	6131
1726.856	5950
1729.01	6099
1731.164	5969
1733.317	6021
1735.471	6098
1737.623	6095
1739.774	5996
1741.925	6018
1744.075	5917
1746.225	5970
1748.376	6052
1750.524	6091
1752.672	6005
1754.82	5965
1756.965	6036
1759.113	6007
1761.259	6005
1763.405	6060
1765.549	6136
1767.694	6045
1769.836	5937
1771.981	6104
1774.123	6032
1776.264	6128
1778.405	5997
1780.546	6070
1782.687	6049
1784.827	6051
1786.966	6021
1789.103	6040
1791.242	6014
1793.381	6035
1795.517	6016
1797.653	6187
1799.788	6096
1801.923	6010
1804.057	6154
1806.193	6061
1808.326	6141
1810.457	6150
1812.59	6069
1814.721	6067
1816.855	6100
1818.984	6098
1821.113	6092
1823.244	5991
1825.372	6105
1827.499	6115
1829.63	6013
1831.756	5970
1833.882	6062
1836.007	6058
1838.132	6056
1840.26	6075
1842.384	5958
1844.507	6044
1846.63	6032
1848.752	6000
1850.875	6058
1852.996	6006
1855.118	6084
1857.238	6049
1859.358	5970
1861.477	6012
1863.597	5996
1865.715	6002
1867.832	5914
1869.948	6113
1872.064	5887
1874.181	5999
1876.297	5937
1878.411	6109
1880.526	5992
1882.639	6010
1884.752	6064
1886.865	6010
1888.977	5937
1891.089	5986
1893.2	6069
1895.308	6061
1897.42	6148
1899.53	6050
1901.639	6068
1903.745	6119
1905.853	6095
1907.962	6126
1910.067	6108
1912.174	6153
1914.278	6059
1916.383	6071
1918.486	6153
1920.592	6179
1922.694	6097
1924.797	6053
1926.898	6068
1929	6095
1931.102	6122
1933.203	6125
1935.301	6142
1937.401	6147
1939.499	6230
1941.598	6063
1943.697	6135
1945.793	6112
1947.888	6057
1949.985	6144
1952.08	6112
1954.176	6175
1956.269	6051
1958.364	6126
1960.457	6162
1962.549	6260
1964.642	6091
1966.733	6061
1968.823	6155
1970.913	6146
1973.005	6054
1975.093	6177
1977.184	5992
1979.271	6165
1981.359	6117
1983.446	6075
1985.532	6045
1987.619	6148
1989.705	6104
1991.789	6070
1993.874	5912
1995.956	6178
1998.041	6129
2000.123	6015
2002.206	6028
2004.287	5991
2006.368	6099
2008.449	5962
2010.529	6104
2012.609	6153
2014.688	6067
2016.766	6015
2018.843	6103
2020.922	6045
2022.999	6190
2025.074	5958
2027.15	6062
2029.225	6019
2031.299	6087
2033.375	5909
2035.447	6011
2037.52	5978
2039.592	6043
2041.664	6039
2043.736	5980
2045.807	6078
2047.876	6090
2049.947	6051
2052.015	5958
2054.086	6031
2056.153	5951
2058.221	6096
2060.288	5930
2062.353	6013
2064.42	6091
2066.486	6022
2068.55	6081
2070.614	6017
2072.678	6108
2074.741	6024
2076.805	6026
2078.866	6038
2080.929	6127
2082.99	6075
2085.049	6152
2087.109	6120
2089.17	6053
2091.228	6161
2093.286	6081
2095.344	6117
2097.4	6066
2099.46	6079
2101.516	6040
2103.572	5997
2105.626	5907
2107.679	5915
2109.735	6035
2111.788	5992
2113.841	6009
2115.894	5955
2117.945	6092
2119.997	6082
2122.049	6060
2124.1	6079
2126.148	6087
2128.197	6031
2130.246	6091
2132.296	5955
2134.342	6072
2136.39	6072
2138.437	6099
2140.483	6031
2142.527	6062
2144.574	5987
2146.619	5959
2148.661	6085
2150.705	5916
2152.747	6056
2154.792	5879
2156.832	5923
2158.874	6038
2160.915	5954
2162.954	5968
2164.995	6014
2167.034	6058
2169.072	5881
2171.111	5982
2173.148	5906
2175.186	5986
2177.223	5951
2179.258	5944
2181.294	6027
2183.328	5946
2185.362	5963
2187.398	5939
2189.431	5976
2191.463	5990
2193.495	5978
2195.528	6035
2197.56	5973
2199.59	5837
2201.62	5875
2203.649	6000
2205.678	5817
2207.708	5838
2209.737	5877
2211.764	5940
2213.791	5907
2215.817	6013
2217.843	5941
2219.87	5916
2221.895	5994
2223.919	5844
2225.942	5857
2227.966	6031
2229.988	5749
2232.012	5945
2234.032	5888
2236.054	5963
2238.074	5865
2240.095	5889
2242.116	5906
2244.135	5878
2246.153	5869
2248.171	5984
2250.188	5863
2252.208	5890
2254.223	5917
2256.239	5875
2258.255	5792
2260.269	5933
2262.283	5784
2264.3	5810
2266.312	5899
2268.325	5943
2270.336	5789
2272.349	5945
2274.362	5916
2276.372	5971
2278.383	5762
2280.392	5786
2282.402	5930
2284.409	5838
2286.418	5832
2288.427	5871
2290.433	5788
2292.441	5903
2294.446	5787
2296.453	5838
2298.459	5865
2300.463	5891
2302.466	5897
2304.471	5757
2306.475	5947
2308.477	5833
2310.478	5801
2312.481	5856
2314.481	5994
2316.481	5789
2318.482	5861
2320.482	5834
2322.48	5800
2324.48	5878
2326.478	5775
2328.476	5877
2330.473	5802
2332.469	5841
2334.465	5863
2336.46	5775
2338.454	5775
2340.45	5841
2342.444	5807
2344.437	5734
2346.43	5747
2348.421	5763
2350.414	5753
2352.405	5825
2354.396	5778
2356.386	5733
2358.376	5685
2360.366	5859
2362.355	5738
2364.343	5840
2366.331	5761
2368.317	5810
2370.304	5745
2372.292	5803
2374.278	5606
2376.262	5814
2378.247	5704
2380.23	5699
2382.216	5750
2384.199	5701
2386.181	5752
2388.163	5761
2390.144	5585
2392.127	5745
2394.107	5695
2396.087	5652
2398.066	5629
2400.046	5691
2402.023	5713
2404.004	5601
2405.981	5723
2407.957	5665
2409.934	5624
2411.91	5759
2413.886	5671
2415.862	5713
2417.836	5672
2419.809	5682
2421.784	5642
2423.756	5698
2425.73	5623
2427.701	5616
2429.672	5759
2431.644	5693
2433.615	5630
2435.586	5751
2437.555	5639
2439.523	5688
2441.491	5583
2443.459	5730
2445.428	5576
2447.395	5585
2449.361	5786
2451.327	5703
2453.292	5625
2455.257	5550
2457.223	5638
2459.187	5581
2461.15	5640
2463.113	5682
2465.076	5638
2467.039	5686
2468.999	5634
2470.96	5597
2472.921	5551
2474.881	5599
2476.841	5606
2478.8	5641
2480.759	5583
2482.717	5578
2484.675	5562
2486.63	5614
2488.589	5638
2490.545	5557
2492.5	5578
2494.455	5536
2496.408	5650
2498.364	5605
2500.318	5535
2502.27	5509
2504.223	5576
2506.174	5664
2508.126	5662
2510.078	5609
2512.03	5591
2513.979	5595
2515.927	5454
2517.877	5676
2519.826	5472
2521.775	5501
2523.722	5463
2525.668	5744
2527.616	5636
2529.561	5578
2531.508	5616
2533.452	5555
2535.398	5559
2537.342	5553
2539.284	5464
2541.229	5586
2543.173	5591
2545.114	5564
2547.055	5515
2548.996	5577
2550.938	5511
2552.878	5498
2554.817	5534
2556.756	5493
2558.695	5531
2560.633	5529
2562.572	5569
2564.509	5542
2566.445	5514
2568.382	5504
2570.317	5519
2572.254	5557
2574.189	5616
2576.123	5523
2578.057	5531
2579.99	5510
2581.923	5514
2583.855	5536
2585.788	5506
2587.719	5476
2589.65	5577
2591.579	5495
2593.511	5543
2595.44	5551
2597.37	5469
2599.297	5583
2601.225	5474
2603.153	5411
2605.08	5416
2607.007	5501
2608.932	5427
2610.858	5590
2612.782	5617
2614.709	5489
2616.632	5551
2618.556	5594
2620.478	5410
2622.401	5641
2624.324	5608
2626.247	5545
2628.167	5597
2630.088	5574
2632.008	5554
2633.928	5672
2635.848	5585
2637.766	5578
2639.684	5439
2641.603	5630
2643.519	5681
2645.437	5627
2647.353	5638
2649.27	5471
2651.184	5553
2653.099	5580
2655.014	5559
2656.928	5564
2658.842	5648
2660.755	5473
2662.667	5522
2664.579	5599
2666.491	5571
2668.402	5511
2670.312	5544
2672.222	5533
2674.132	5527
2676.042	5552
2677.951	5559
2679.859	5551
2681.766	5513
2683.674	5535
2685.582	5426
2687.488	5526
2689.392	5604
2691.298	5528
2693.202	5462
2695.107	5369
2697.012	5492
2698.914	5361
2700.817	5520
2702.72	5506
2704.622	5453
2706.524	5383
2708.425	5451
2710.326	5322
2712.225	5384
2714.125	5406
2716.024	5349
2717.923	5506
2719.822	5318
2721.719	5433
2723.616	5513
2725.512	5423
2727.41	5436
2729.305	5465
2731.201	5299
2733.095	5491
2734.99	5430
2736.884	5419
2738.778	5408
2740.67	5510
2742.562	5445
2744.455	5437
2746.346	5427
2748.238	5473
2750.129	5413
2752.018	5452
2753.907	5383
2755.797	5380
2757.687	5349
2759.575	5368
2761.462	5431
2763.349	5435
2765.237	5443
2767.124	5297
2769.009	5537
2770.894	5433
2772.779	5471
2774.663	5494
2776.547	5476
2778.431	5419
2780.314	5430
2782.197	5428
2784.078	5496
2785.96	5253
2787.842	5394
2789.723	5475
2791.603	5341
2793.483	5310
2795.362	5415
2797.241	5505
2799.121	5388
2800.997	5387
2802.874	5358
2804.751	5419
2806.628	5366
2808.506	5363
2810.38	5451
2812.255	5375
2814.13	5236
2816.003	5349
2817.878	5419
2819.752	5322
2821.623	5287
2823.496	5301
2825.368	5394
2827.238	5341
2829.111	5364
2830.98	5370
2832.851	5501
2834.719	5528
2836.589	5368
2838.458	5431
2840.327	5496
2842.193	5366
2844.061	5445
2845.927	5374
2847.794	5476
2849.66	5609
2851.525	5485
2853.39	5507
2855.254	5598
2857.117	5544
2858.983	5702
2860.845	5748
2862.707	5715
2864.569	5685
2866.431	5708
2868.293	5742
2870.154	5899
2872.013	5859
2873.873	5855
2875.733	6019
2877.592	5951
2879.451	6152
2881.309	6191
2883.166	6199
2885.022	6264
2886.879	6309
2888.736	6273
2890.591	6391
2892.446	6449
2894.301	6444
2896.155	6406
2898.009	6410
2899.863	6352
2901.716	6340
2903.568	6200
2905.419	6216
2907.27	6289
2909.123	6188
2910.973	6301
2912.824	6410
2914.673	6488
2916.521	6415
2918.372	6641
2920.22	6655
2922.067	6739
2923.914	6763
2925.761	6710
2927.607	6831
2929.455	6856
2931.301	6999
2933.144	6970
2934.99	7073
2936.833	7041
2938.678	7220
2940.522	7163
2942.364	7248
2944.207	7490
2946.048	7584
2947.891	7672
2949.731	7623
2951.571	7696
2953.412	7621
2955.25	7630
2957.09	7391
2958.93	7435
2960.767	7396
2962.606	7218
2964.443	7336
2966.279	7051
2968.116	6896
2969.953	6784
2971.788	6881
2973.623	6553
2975.457	6554
2977.292	6602
2979.127	6438
2980.959	6363
2982.792	6382
2984.624	6245
2986.455	6307
2988.288	6168
2990.119	6183
2991.949	6170
2993.779	6108
2995.608	5922
2997.439	6003
2999.268	5912
3001.096	5914
3002.923	5871
3004.751	5815
3006.578	5761
3008.406	5671
3010.232	5537
3012.057	5541
3013.883	5532
3015.706	5466
3017.532	5370
3019.356	5424
3021.179	5444
3023.002	5396
3024.823	5249
3026.646	5345
3028.469	5299
3030.289	5319
3032.11	5244
3033.93	5303
3035.749	5199
3037.57	5170
3039.39	5241
3041.207	5199
3043.026	5092
3044.842	5315
3046.661	5108
3048.477	5163
3050.294	5169
3052.109	5223
3053.925	5202
3055.739	5155
3057.555	5214
3059.368	5173
3061.181	5238
3062.995	5137
3064.807	5146
3066.62	5143
3068.433	5246
3070.243	5181
3072.054	5247
3073.865	5119
3075.675	5201
3077.485	5075
3079.293	5067
3081.102	5169
3082.911	5122
3084.719	5037
3086.527	5145
3088.333	5133
3090.139	5098
3091.945	5093
3093.75	5123
3095.557	5011
3097.361	4928
3099.165	5056
3100.969	5102
3102.772	4998
3104.575	5010
3106.379	4908
3108.181	4972
3109.982	4993
3111.783	4947
3113.584	4953
3115.386	4909
3117.186	4932
3118.985	4961
3120.783	4861
3122.582	4967
3124.381	4946
3126.179	4929
3127.975	4895
3129.772	5008
3131.569	4919
3133.365	4934
3135.161	4961
3136.956	4898
3138.751	4967
3140.544	4966
3142.338	4873
3144.132	4957
3145.925	4769
3147.717	4811
3149.509	4810
3151.301	4934
3153.091	4836
3154.884	4817
3156.673	4739
3158.462	4770
3160.252	4835
3162.041	4800
3163.831	4798
3165.618	4832
3167.405	4821
3169.193	4922
3170.979	4799
3172.767	4852
3174.553	4928
3176.338	4894
3178.123	4857
3179.907	4784
3181.692	4893
3183.477	4772
3185.259	4927
3187.042	4726
3188.824	4759
3190.607	4861
3192.389	4848
3194.17	4788
3195.951	4801
3197.73	4792
3199.51	4782
3201.289	4899
3203.07	4902
3204.848	4767
3206.626	4879
3208.403	4835
3210.18	4786
3211.959	4767
3213.735	4815
3215.511	4796
3217.285	4966
3219.06	4852
3220.836	4843
3222.611	4789
3224.384	4821
3226.158	4864
3227.929	4709
3229.702	4873
3231.476	4743
3233.248	4739
3235.018	4869
3236.789	4713
3238.56	4780
3240.33	4895
3242.1	4753
3243.869	4820
3245.637	4842
3247.405	4777
3249.172	4808
3250.941	4810
3252.707	4842
3254.474	4914
3256.24	4875
3258.006	4788
3259.772	4823
3261.537	4842
3263.301	4856
3265.065	4819
3266.828	4839
3268.592	4876
3270.355	4769
3272.117	4785
3273.878	4784
3275.64	4921
3277.401	4838
3279.162	4882
3280.922	4759
3282.682	4782
3284.441	4865
3286.199	4869
3287.959	4819
3289.716	4789
3291.475	4845
3293.232	4793
3294.988	4798
3296.744	4947
3298.501	4930
3300.256	4761
3302.011	4790
3303.766	4751
3305.52	4832
3307.275	4795
3309.028	4774
3310.781	4694
3312.533	4844
3314.285	4789
3316.038	4878
3317.789	4828
3319.54	4778
3321.289	4781
3323.039	4860
3324.789	4804
3326.539	4833
3328.288	4791
3330.035	4773
3331.783	4781
3333.531	4810
3335.28	4803
3337.025	4721
3338.771	4779
3340.518	4707
3342.262	4779
3344.009	4754
3345.753	4724
3347.497	4736
3349.24	4745
3350.983	4768
3352.726	4760
3354.469	4750
3356.212	4712
3357.952	4693
3359.694	4667
3361.434	4676
3363.176	4758
3364.916	4721
3366.654	4680
3368.394	4623
3370.132	4755
3371.871	4722
3373.61	4689
3375.346	4727
3377.083	4674
3378.82	4617
3380.556	4664
3382.292	4635
3384.027	4618
3385.763	4676
3387.497	4551
3389.231	4654
3390.965	4585
3392.698	4558
3394.431	4552
3396.164	4593
3397.896	4615
3399.627	4577
3401.36	4639
3403.09	4657
3404.82	4465
3406.55	4538
3408.279	4530
3410.01	4571
3411.738	4551
3413.467	4609
3415.194	4528
3416.92	4537
3418.647	4588
3420.375	4489
3422.102	4574
3423.827	4525
3425.553	4606
3427.277	4538
3429.003	4560
3430.727	4534
3432.451	4523
3434.173	4434
3435.896	4451
3437.62	4422
3439.343	4462
3441.063	4550
3442.785	4550
3444.505	4469
3446.226	4342
3447.948	4466
3449.666	4448
3451.386	4502
3453.104	4355
3454.823	4423
3456.541	4295
3458.259	4377
3459.976	4415
3461.693	4332
3463.408	4290
3465.125	4385
3466.841	4428
3468.556	4354
3470.271	4307
3471.985	4377
3473.698	4298
3475.414	4296
3477.126	4357
3478.838	4317
3480.55	4251
3482.263	4356
3483.975	4326
3485.686	4316
3487.396	4307
3489.106	4241
3490.817	4194
3492.526	4268
3494.236	4307
3495.944	4211
3497.652	4245
3499.359	4313
3501.066	4222
3502.775	4272
3504.481	4204
3506.187	4202
3507.893	4291
3509.598	4139
3511.304	4166
3513.009	4238
3514.713	4210
3516.417	4147
3518.12	4152
3519.821	4206
3521.525	4145
3523.228	4172
3524.929	4194
3526.631	4115
3528.33	4114
3530.032	4172
3531.733	4157
3533.433	4073
3535.131	4022
3536.83	4120
3538.529	4136
3540.227	4070
3541.925	4200
3543.623	4071
3545.319	4093
3547.016	4040
3548.712	3998
3550.408	4075
3552.103	4119
3553.798	4038
3555.491	3970
3557.188	4048
3558.88	4038
3560.574	4041
3562.266	4021
3563.959	4045
3565.651	4082
3567.343	3974
3569.035	3990
3570.725	4012
3572.415	4031
3574.106	4001
3575.797	4029
3577.485	3894
3579.174	3938
3580.863	3967
3582.551	3947
3584.238	3905
3585.926	3929
3587.613	3946
3589.3	3870
3590.986	3947
3592.671	3910
3594.357	3890
3596.042	3899
3597.726	3861
3599.41	3810
3601.094	3885
3602.778	3998
3604.461	3848
3606.143	3768
3607.825	3891
3609.507	3831
3611.188	3840
3612.87	3886
3614.551	3868
3616.229	3831
3617.909	3832
3619.589	3788
3621.269	3838
3622.948	3775
3624.625	3762
3626.302	3769
3627.98	3719
3629.657	3718
3631.334	3733
3633.01	3745
3634.686	3798
3636.361	3669
3638.036	3712
3639.712	3650
3641.385	3735
3643.06	3712
3644.732	3749
3646.405	3748
3648.08	3732
3649.751	3801
3651.424	3622
3653.094	3646
3654.766	3695
3656.436	3743
3658.106	3677
3659.777	3614
3661.446	3632
3663.115	3562
3664.783	3566
3666.452	3688
3668.121	3578
3669.788	3617
3671.454	3605
3673.121	3696
3674.789	3722
3676.455	3585
3678.12	3597
3679.784	3652
3681.45	3576
3683.114	3645
3684.779	3678
3686.442	3513
3688.105	3656
3689.768	3650
3691.43	3633
3693.093	3541
3694.754	3662
3696.415	3562
3698.076	3668
3699.736	3441
3701.396	3571
3703.057	3596
3704.716	3491
3706.375	3610
3708.034	3562
3709.692	3512
3711.351	3569
3713.008	3555
3714.665	3525
3716.321	3564
3717.977	3515
3719.634	3529
3721.29	3558
3722.945	3524
3724.598	3465
3726.253	3541
3727.907	3449
3729.561	3485
3731.214	3585
3732.867	3427
3734.518	3506
3736.171	3560
3737.824	3458
3739.474	3527
3741.125	3473
3742.775	3385
3744.425	3489
3746.074	3596
3747.725	3445
3749.373	3401
3751.022	3561
3752.669	3495
3754.318	3450
3755.966	3480
3757.612	3407
3759.259	3448
3760.905	3443
3762.55	3447
3764.197	3501
3765.842	3404
3767.486	3524
3769.131	3543
3770.774	3412
3772.417	3432
3774.061	3465
3775.705	3399
3777.347	3505
3778.988	3343
3780.629	3476
3782.271	3410
3783.912	3420
3785.552	3442
3787.192	3417
3788.831	3398
3790.472	3400
3792.112	3424
3793.75	3403
3795.388	3357
3797.024	3492
3798.661	3274
3800.3	3373
3801.936	3376
3803.572	3355
3805.208	3379
3806.844	3383
3808.48	3381
3810.115	3367
3811.748	3314
3813.382	3353
3815.016	3299
3816.649	3432
3818.283	3307
3819.914	3273
3821.547	3274
3823.178	3319
3824.809	3377
3826.441	3253
3828.072	3356
3829.701	3336
3831.331	3282
3832.96	3318
3834.591	3355
3836.219	3295
3837.847	3395
3839.475	3316
3841.102	3295
3842.729	3268
3844.357	3322
3845.984	3302
3847.609	3270
3849.234	3271
3850.86	3328
3852.485	3247
3854.11	3252
3855.734	3301
3857.357	3213
3858.981	3274
3860.603	3216
3862.227	3199
3863.848	3252
3865.471	3190
3867.092	3282
3868.713	3253
3870.334	3207
3871.954	3273
3873.575	3200
3875.194	3232
3876.813	3224
3878.433	3142
3880.051	3242
3881.669	3150
3883.286	3269
3884.904	3286
3886.52	3148
3888.138	3173
3889.754	3212
3891.37	3203
3892.985	3200
3894.6	3235
3896.216	3196
3897.831	3228
3899.444	3202
3901.058	3131
3902.67	3179
3904.283	3141
3905.897	3163
3907.509	3182
3909.121	3229
3910.731	3221
3912.342	3128
3913.954	3237
3915.563	3164
3917.174	3191
3918.783	3116
3920.391	3087
3922.002	3121
3923.611	3173
3925.218	3148
3926.826	3177
3928.432	3198
3930.039	3149
3931.647	3223
3933.253	3132
3934.859	3212
3936.464	3149
3938.068	3156
3939.675	3113
3941.278	3145
3942.883	3195
3944.486	3139
3946.089	3166
3947.692	3114
3949.295	3188
3950.898	3121
3952.499	3056
3954.1	3122
3955.7	3092
3957.303	3104
3958.903	3105
3960.502	3085
3962.101	3090
3963.7	3120
3965.301	3143
3966.899	3073
3968.497	3126
3970.094	3130
3971.691	3112
3973.288	3135
3974.885	3051
3976.481	3018
3978.077	3080
3979.672	3069
3981.267	3078
3982.863	2989
3984.457	3019
3986.051	2997
3987.645	3008
3989.238	3011
3990.831	3015
3992.425	3046
3994.017	3009
3995.607	2993
3997.199	3027
3998.79	3047
4000.382	2999
4001.973	2980
4003.561	3057
4005.151	2958
4006.741	2984
4008.331	3015
4009.918	2983
4011.507	3032
4013.095	2980
4014.681	2962
4016.269	2943
4017.856	2979
4019.443	2925
4021.028	2975
4022.614	2909
4024.199	3024
4025.785	2944
4027.37	2961
4028.953	2925
4030.536	2869
4032.12	2828
4033.704	2833
4035.287	2932
4036.869	2943
4038.45	2950
4040.032	2974
4041.613	2906
4043.195	2927
4044.776	2945
4046.356	2886
4047.935	2877
4049.515	2874
4051.095	2887
4052.674	2919
4054.251	2893
4055.829	2858
4057.406	2851
4058.985	2817
4060.562	2866
4062.139	2797
4063.715	2864
4065.29	2900
4066.865	2930
4068.442	2771
4070.016	2875
4071.59	2872
4073.164	2883
4074.738	2803
4076.312	2877
4077.885	2787
4079.458	2787
4081.03	2806
4082.602	2832
4084.173	2843
4085.745	2802
4087.315	2839
4088.886	2828
4090.456	2852
4092.026	2853
4093.596	2888
4095.165	2906
4096.734	2753
4098.301	2796
4099.869	2834
4101.437	2753
4103.006	2865
4104.572	2754
4106.139	2701
4107.704	2778
4109.27	2863
4110.837	2771
4112.401	2813
4113.966	2721
4115.53	2746
4117.094	2818
4118.659	2790
4120.223	2808
4121.785	2769
4123.347	2747
4124.909	2736
4126.471	2727
4128.034	2783
4129.595	2802
4131.155	2684
4132.716	2722
4134.275	2690
4135.836	2750
4137.395	2665
4138.955	2796
4140.513	2715
4142.071	2702
4143.628	2665
4145.188	2743
4146.745	2658
4148.302	2661
4149.858	2721
4151.414	2694
4152.971	2669
4154.526	2702
4156.081	2674
4157.635	2697
4159.189	2666
4160.745	2697
4162.298	2646
4163.852	2650
4165.405	2676
4166.957	2667
4168.51	2726
4170.063	2661
4171.614	2713
4173.166	2609
4174.717	2656
4176.267	2701
4177.817	2615
4179.368	2638
4180.917	2593
4182.466	2638
4184.016	2603
4185.564	2688
4187.112	2635
4188.66	2654
4190.207	2581
4191.754	2604
4193.301	2628
4194.848	2587
4196.394	2612
4197.94	2601
4199.484	2553
4201.03	2585
4202.575	2559
4204.12	2633
4205.663	2666
4207.207	2581
4208.75	2589
4210.292	2622
4211.836	2609
4213.378	2587
4214.92	2636
4216.46	2572
4218.002	2603
4219.544	2543
4221.083	2543
4222.625	2591
4224.164	2656
4225.703	2526
4227.244	2588
4228.782	2571
4230.32	2551
4231.857	2524
4233.395	2566
4234.933	2560
4236.471	2619
4238.007	2557
4239.542	2531
4241.078	2487
4242.614	2575
4244.15	2492
4245.685	2517
4247.219	2555
4248.753	2494
4250.287	2538
4251.82	2574
4253.354	2469
4254.887	2494
4256.419	2559
4257.951	2552
4259.483	2557
4261.016	2484
4262.547	2549
4264.078	2526
4265.608	2512
4267.137	2447
4268.668	2515
4270.197	2499
4271.727	2419
4273.254	2525
4274.783	2477
4276.311	2490
4277.84	2499
4279.366	2522
4280.894	2474
4282.42	2505
4283.946	2520
4285.473	2470
4286.998	2476
4288.523	2470
4290.047	2447
4291.572	2456
4293.096	2479
4294.622	2478
4296.144	2488
4297.668	2479
4299.19	2471
4300.713	2460
4302.236	2410
4303.758	2448
4305.279	2459
4306.799	2395
4308.321	2441
4309.842	2400
4311.361	2469
4312.882	2495
4314.401	2453
