400.0961	4195
402.6185	4249
405.1424	4268
407.6635	4353
410.1838	4282
412.7035	4257
415.2225	4299
417.7388	4284
420.2585	4248
422.7754	4397
425.2917	4383
427.8072	4545
430.3221	4522
432.8363	4518
435.3498	4468
437.8626	4531
440.3727	4647
442.8841	4502
445.3969	4582
447.907	4587
450.4142	4603
452.9229	4504
455.4289	4601
457.9362	4540
460.4449	4471
462.9488	4489
465.454	4518
467.9566	4536
470.4604	4504
472.9637	4623
475.4662	4563
477.966	4574
480.4671	4538
482.9656	4542
485.4633	4523
487.9645	4462
490.4608	4599
492.9566	4592
495.4536	4637
497.948	4761
500.4437	4700
502.9387	4605
505.431	4644
507.9226	4666
510.4136	4648
512.9079	4684
515.3975	4667
517.8864	4687
520.3746	4672
522.8622	4677
525.3491	4727
527.8394	4750
530.3249	4780
532.8098	4802
535.2939	4716
537.7774	4703
540.2623	4722
542.7444	4669
545.2259	4783
547.7067	4686
550.1868	4739
552.6683	4765
555.147	4752
557.6231	4802
560.1005	4770
562.5773	4892
565.0534	4739
567.5308	4797
570.0056	4799
572.4776	4840
574.951	4879
577.4237	4861
579.8978	4946
582.3671	4886
584.8378	4945
587.3079	5052
589.7773	4930
592.244	4966
594.714	4906
597.1793	4881
599.6461	4962
602.1121	4874
604.5754	4896
607.0421	4911
609.5042	4880
611.9675	4895
614.4282	4998
616.8902	4857
619.3515	4958
621.8122	4852
624.2702	4828
626.7296	4886
629.1863	4862
631.6423	4860
634.1017	4841
636.5563	4835
639.0104	4884
641.4658	4866
643.9185	4911
646.3725	4835
648.8239	5023
651.2766	4909
653.7266	4874
656.176	4958
658.6247	4969
661.0748	5005
663.5242	4975
665.9709	4911
668.417	5026
670.8624	4958
673.3092	4990
675.7533	5048
678.1968	5018
680.6395	5032
683.0817	5063
685.5251	4927
687.9659	5036
690.4061	5040
692.8456	5069
695.2844	5105
697.7226	5072
700.1621	5064
702.599	5069
705.0332	5079
707.4688	5155
709.9036	5077
712.3399	5097
714.7735	5083
717.2044	5116
719.6367	5189
722.0683	5196
724.4993	5250
726.9296	5285
729.3593	5163
731.7883	5185
734.2147	5239
736.6423	5233
739.0714	5254
741.4958	5293
743.9216	5253
746.3447	5375
748.7691	5338
751.1929	5298
753.616	5326
756.0366	5383
758.4584	5416
760.8776	5486
763.2982	5390
765.718	5493
768.1373	5474
770.5539	5358
772.9698	5453
775.3871	5432
777.8038	5358
780.2178	5436
782.6332	5358
785.0459	5478
787.458	5407
789.8714	5451
792.2842	5488
794.6943	5445
797.1038	5378
799.5127	5378
801.9209	5440
804.3324	5437
806.7393	5470
809.1456	5505
811.5513	5428
813.9562	5517
816.3625	5550
818.7663	5468
821.1693	5574
823.5718	5493
825.9735	5497
828.3746	5484
830.7771	5392
833.177	5612
835.5762	5557
837.9747	5535
840.3727	5639
842.772	5541
845.1666	5656
847.5626	5552
849.958	5739
852.3527	5738
854.7488	5658
857.1403	5670
859.5331	5595
861.9253	5599
864.3168	5640
866.7057	5650
869.098	5649
871.4876	5612
873.8746	5579
876.263	5700
878.6487	5666
881.0378	5540
883.4243	5665
885.8081	5571
888.1933	5662
890.5759	5629
892.9598	5686
895.343	5718
897.7256	5620
900.1057	5602
902.4871	5688
904.8659	5688
907.246	5628
909.6254	5700
912.0023	5703
914.3786	5754
916.7562	5836
919.1331	5920
921.5074	5944
923.8831	6105
926.2562	5899
928.6287	5935
931.0005	5917
933.3757	5961
935.7462	5995
938.1162	6108
940.4855	6049
942.8542	5957
945.2242	6117
947.5916	6051
949.9584	6172
952.3266	6350
954.6921	6422
957.0571	6745
959.4233	6955
961.787	7017
964.15	7020
966.5125	6750
968.8742	6610
971.2354	6399
973.5959	6263
975.9559	6083
978.3151	5978
980.6738	5893
983.0338	5885
985.3912	5919
987.7461	5924
990.1022	5907
992.4578	5810
994.8127	5872
997.1689	5779
999.5207	5822
1001.874	5966
1004.226	5909
1006.576	5915
1008.929	5871
1011.28	5841
1013.628	5885
1015.977	5897
1018.324	5821
1020.674	5851
1023.019	5839
1025.366	6011
1027.713	5882
1030.056	5957
1032.399	5922
1034.746	5898
1037.087	5938
1039.431	5983
1041.771	5866
1044.113	5912
1046.454	5879
1048.793	5965
1051.133	5881
1053.471	5881
1055.807	5941
1058.146	5991
1060.483	6015
1062.818	6012
1065.153	6077
1067.489	6072
1069.822	6019
1072.156	6163
1074.488	6006
1076.82	6159
1079.15	6039
1081.48	5973
1083.814	6097
1086.143	6029
1088.471	6016
1090.799	5907
1093.126	5927
1095.452	6016
1097.78	5960
1100.105	6054
1102.43	5966
1104.754	6085
1107.077	5945
1109.4	6026
1111.722	5956
1114.044	6094
1116.365	5974
1118.685	5965
1121.005	6083
1123.324	6037
1125.643	6113
1127.961	6034
1130.278	6012
1132.595	6008
1134.911	6055
1137.226	6122
1139.541	6178
1141.854	6031
1144.167	5983
1146.482	5938
1148.793	5942
1151.105	6022
1153.414	5956
1155.725	6135
1158.033	5979
1160.344	5931
1162.651	6040
1164.959	6070
1167.265	5954
1169.572	5926
1171.878	5891
1174.184	6063
1176.488	6040
1178.79	6099
1181.094	6174
1183.396	6139
1185.699	6002
1188.001	6086
1190.301	6007
1192.6	6097
1194.9	6050
1197.2	6025
1199.497	6064
1201.794	6098
1204.09	6019
1206.387	6128
1208.684	6121
1210.978	6051
1213.272	5987
1215.565	6059
1217.858	6058
1220.15	6144
1222.443	6039
1224.734	6022
1227.024	6074
1229.313	6017
1231.602	6173
1233.892	6149
1236.18	6237
1238.467	6176
1240.754	6261
1243.04	6289
1245.325	6294
1247.612	6349
1249.896	6256
1252.178	6378
1254.461	6400
1256.743	6219
1259.027	6344
1261.308	6234
1263.587	6405
1265.867	6345
1268.146	6264
1270.425	6402
1272.703	6319
1274.981	6280
1277.256	6324
1279.532	6383
1281.808	6278
1284.083	6310
1286.358	6243
1288.63	6274
1290.904	6272
1293.175	6174
1295.449	6173
1297.719	6264
1299.99	6314
1302.259	6225
1304.529	6284
1306.798	6228
1309.065	6265
1311.333	6174
1313.599	6175
1315.866	6124
1318.131	6312
1320.396	6210
1322.66	6166
1324.925	6230
1327.187	6134
1329.448	6222
1331.711	6367
1333.974	6260
1336.234	6211
1338.493	6304
1340.752	6201
1343.01	6273
1345.269	6282
1347.526	6221
1349.784	6202
1352.04	6240
1354.295	6203
1356.552	6193
1358.806	6193
1361.059	6105
1363.312	6313
1365.564	6138
1367.818	6359
1370.069	6323
1372.318	6191
1374.568	6133
1376.817	6299
1379.066	6229
1381.316	6164
1383.564	6327
1385.809	6364
1388.056	6324
1390.301	6344
1392.549	6401
1394.793	6416
1397.036	6444
1399.279	6543
1401.522	6550
1403.763	6547
1406.007	6498
1408.248	6532
1410.487	6395
1412.727	6453
1414.965	6588
1417.205	6427
1419.442	6505
1421.68	6444
1423.915	6411
1426.152	6426
1428.388	6355
1430.623	6498
1432.857	6585
1435.091	6401
1437.323	6444
1439.556	6503
1441.789	6517
1444.019	6612
1446.25	6468
1448.48	6676
1450.708	6553
1452.938	6643
1455.167	6589
1457.394	6701
1459.62	6640
1461.846	6572
1464.073	6644
1466.299	6532
1468.523	6471
1470.746	6492
1472.969	6410
1475.191	6474
1477.415	6414
1479.636	6334
1481.858	6308
1484.078	6323
1486.298	6256
1488.518	6401
1490.736	6383
1492.954	6189
1495.169	6227
1497.386	6177
1499.602	6236
1501.819	6324
1504.034	6376
1506.248	6221
1508.462	6233
1510.675	6259
1512.888	6215
1515.1	6247
1517.311	6183
1519.522	6311
1521.732	6172
1523.942	6209
1526.151	6268
1528.36	6193
1530.566	6241
1532.773	6240
1534.98	6235
1537.187	6236
1539.392	6307
1541.596	6234
1543.801	6146
1546.005	6226
1548.208	6269
1550.411	6264
1552.612	6180
1554.814	6231
1557.013	6202
1559.212	6257
1561.414	6235
1563.612	6373
1565.811	6268
1568.007	6346
1570.203	6344
1572.403	6359
1574.598	6412
1576.792	6374
1578.988	6495
1581.181	6461
1583.376	6450
1585.568	6324
1587.761	6436
1589.952	6464
1592.143	6440
1594.333	6404
1596.524	6493
1598.715	6438
1600.903	6526
1603.091	6408
1605.278	6424
1607.466	6426
1609.652	6380
1611.838	6516
1614.023	6477
1616.207	6428
1618.391	6523
1620.576	6420
1622.759	6402
1624.941	6449
1627.123	6403
1629.304	6559
1631.484	6493
1633.664	6512
1635.844	6527
1638.022	6491
1640.201	6520
1642.38	6536
1644.556	6661
1646.732	6550
1648.908	6486
1651.084	6638
1653.257	6649
1655.433	6548
1657.607	6542
1659.779	6617
1661.951	6622
1664.122	6601
1666.295	6643
1668.467	6686
1670.635	6619
1672.805	6515
1674.973	6635
1677.142	6537
1679.31	6589
1681.478	6596
1683.644	6654
1685.81	6525
1687.975	6582
1690.142	6612
1692.305	6422
1694.468	6546
1696.632	6523
1698.794	6510
1700.957	6451
1703.119	6484
1705.279	6446
1707.439	6437
1709.598	6583
1711.758	6381
1713.917	6389
1716.075	6370
1718.231	6506
1720.388	6332
1722.543	6518
1724.702	6492
1726.856	6421
1729.01	6357
1731.164	6464
1733.317	6401
1735.471	6334
1737.623	6406
1739.774	6432
1741.925	6507
1744.075	6450
1746.225	6443
1748.376	6522
1750.524	6373
1752.672	6390
1754.82	6284
1756.965	6491
1759.113	6437
1761.259	6491
1763.405	6459
1765.549	6484
1767.694	6418
1769.836	6507
1771.981	6429
1774.123	6418
1776.264	6418
1778.405	6483
1780.546	6522
1782.687	6539
1784.827	6456
1786.966	6551
1789.103	6438
1791.242	6538
1793.381	6479
1795.517	6425
1797.653	6622
1799.788	6534
1801.923	6454
1804.057	6461
1806.193	6463
1808.326	6473
1810.457	6409
1812.59	6425
1814.721	6569
1816.855	6591
1818.984	6570
1821.113	6360
1823.244	6399
1825.372	6423
1827.499	6416
1829.63	6339
1831.756	6490
1833.882	6463
1836.007	6351
1838.132	6489
1840.26	6369
1842.384	6331
1844.507	6428
1846.63	6513
1848.752	6428
1850.875	6350
1852.996	6370
1855.118	6464
1857.238	6373
1859.358	6440
1861.477	6439
1863.597	6440
1865.715	6393
1867.832	6377
1869.948	6377
1872.064	6449
1874.181	6408
1876.297	6232
1878.411	6417
1880.526	6313
1882.639	6428
1884.752	6394
1886.865	6545
1888.977	6405
1891.089	6460
1893.2	6405
1895.308	6530
1897.42	6414
1899.53	6334
1901.639	6420
1903.745	6383
1905.853	6465
1907.962	6361
1910.067	6483
1912.174	6391
1914.278	6568
1916.383	6417
1918.486	6487
1920.592	6589
1922.694	6539
1924.797	6605
1926.898	6497
1929	6524
1931.102	6385
1933.203	6617
1935.301	6661
1937.401	6465
1939.499	6466
1941.598	6399
1943.697	6559
1945.793	6511
1947.888	6458
1949.985	6512
1952.08	6471
1954.176	6639
1956.269	6446
1958.364	6465
1960.457	6523
1962.549	6471
1964.642	6582
1966.733	6493
1968.823	6532
1970.913	6393
1973.005	6558
1975.093	6529
1977.184	6489
1979.271	6548
1981.359	6546
1983.446	6488
1985.532	6548
1987.619	6441
1989.705	6448
1991.789	6492
1993.874	6430
1995.956	6455
1998.041	6470
2000.123	6400
2002.206	6476
2004.287	6364
2006.368	6461
2008.449	6362
2010.529	6374
2012.609	6576
2014.688	6416
2016.766	6459
2018.843	6391
2020.922	6340
2022.999	6514
2025.074	6444
2027.15	6471
2029.225	6457
2031.299	6312
2033.375	6428
2035.447	6377
2037.52	6241
2039.592	6369
2041.664	6392
2043.736	6409
2045.807	6451
2047.876	6483
2049.947	6475
2052.015	6415
2054.086	6479
2056.153	6473
2058.221	6506
2060.288	6418
2062.353	6603
2064.42	6334
2066.486	6354
2068.55	6496
2070.614	6306
2072.678	6388
2074.741	6436
2076.805	6431
2078.866	6475
2080.929	6490
2082.99	6373
2085.049	6494
2087.109	6475
2089.17	6447
2091.228	6359
2093.286	6381
2095.344	6462
2097.4	6387
2099.46	6484
2101.516	6490
2103.572	6467
2105.626	6493
2107.679	6437
2109.735	6521
2111.788	6586
2113.841	6327
2115.894	6488
2117.945	6454
2119.997	6520
2122.049	6421
2124.1	6557
2126.148	6535
2128.197	6483
2130.246	6352
2132.296	6454
2134.342	6468
2136.39	6355
2138.437	6289
2140.483	6423
2142.527	6409
2144.574	6386
2146.619	6330
2148.661	6340
2150.705	6290
2152.747	6295
2154.792	6375
2156.832	6414
2158.874	6396
2160.915	6339
2162.954	6357
2164.995	6401
2167.034	6382
2169.072	6447
2171.111	6435
2173.148	6319
2175.186	6333
2177.223	6373
2179.258	6242
2181.294	6316
2183.328	6381
2185.362	6330
2187.398	6291
2189.431	6321
2191.463	6199
2193.495	6287
2195.528	6218
2197.56	6276
2199.59	6377
2201.62	6281
2203.649	6197
2205.678	6253
2207.708	6411
2209.737	6277
2211.764	6300
2213.791	6402
2215.817	6199
2217.843	6288
2219.87	6143
2221.895	6324
2223.919	6138
2225.942	6329
2227.966	6317
2229.988	6162
2232.012	6214
2234.032	6255
2236.054	6127
2238.074	6227
2240.095	6198
2242.116	6242
2244.135	6300
2246.153	6211
2248.171	6297
2250.188	6285
2252.208	6189
2254.223	6074
2256.239	6216
2258.255	6263
2260.269	6178
2262.283	6160
2264.3	6162
2266.312	6099
2268.325	6113
2270.336	6128
2272.349	6262
2274.362	6087
2276.372	6224
2278.383	6226
2280.392	6233
2282.402	6162
2284.409	6192
2286.418	6314
2288.427	6164
2290.433	6225
2292.441	6321
2294.446	6165
2296.453	6177
2298.459	6248
2300.463	6310
2302.466	6170
2304.471	6179
2306.475	6197
2308.477	6315
2310.478	6205
2312.481	6249
2314.481	6217
2316.481	6251
2318.482	6193
2320.482	6124
2322.48	6242
2324.48	6058
2326.478	6111
2328.476	6081
2330.473	6072
2332.469	6132
2334.465	6190
2336.46	6148
2338.454	6175
2340.45	6161
2342.444	6101
2344.437	6134
2346.43	6096
2348.421	6059
2350.414	6256
2352.405	6102
2354.396	6216
2356.386	6094
2358.376	6068
2360.366	6113
2362.355	6061
2364.343	6046
2366.331	6048
2368.317	5949
2370.304	6184
2372.292	6113
2374.278	5928
2376.262	6054
2378.247	6170
2380.23	6009
2382.216	6096
2384.199	6068
2386.181	6040
2388.163	6110
2390.144	5951
2392.127	6008
2394.107	6000
2396.087	5981
2398.066	6004
2400.046	6061
2402.023	6072
2404.004	6051
2405.981	5998
2407.957	6085
2409.934	5837
2411.91	5897
2413.886	5947
2415.862	5961
2417.836	6048
2419.809	5974
2421.784	5963
2423.756	6032
2425.73	5920
2427.701	6014
2429.672	6047
2431.644	6050
2433.615	6046
2435.586	5912
2437.555	6023
2439.523	5990
2441.491	5879
2443.459	5990
2445.428	6023
2447.395	6011
2449.361	5967
2451.327	5894
2453.292	5866
2455.257	5970
2457.223	5979
2459.187	5897
2461.15	6000
2463.113	5896
2465.076	5910
2467.039	5914
2468.999	6074
2470.96	5845
2472.921	5980
2474.881	5888
2476.841	5924
2478.8	5899
2480.759	5973
2482.717	5941
2484.675	5992
2486.63	5927
2488.589	5925
2490.545	5802
2492.5	5797
2494.455	5831
2496.408	5865
2498.364	5792
2500.318	5850
2502.27	5875
2504.223	5917
2506.174	6001
2508.126	5870
2510.078	5753
2512.03	5830
2513.979	5954
2515.927	5741
2517.877	5867
2519.826	5860
2521.775	6017
2523.722	5875
2525.668	5812
2527.616	5842
2529.561	5937
2531.508	5766
2533.452	5789
2535.398	5818
2537.342	5855
2539.284	5754
2541.229	5828
2543.173	5772
2545.114	5710
2547.055	5750
2548.996	5813
2550.938	5794
2552.878	5867
2554.817	5720
2556.756	5807
2558.695	5885
2560.633	5908
2562.572	5847
2564.509	5758
2566.445	5827
2568.382	5762
2570.317	5821
2572.254	5758
2574.189	5974
2576.123	5835
2578.057	5823
2579.99	5766
2581.923	5780
2583.855	5857
2585.788	5859
2587.719	5798
2589.65	5904
2591.579	5748
2593.511	5843
2595.44	5773
2597.37	5733
2599.297	5825
2601.225	5717
2603.153	5790
2605.08	5884
2607.007	5705
2608.932	5739
2610.858	5855
2612.782	5826
2614.709	5830
2616.632	5753
2618.556	5729
2620.478	5758
2622.401	5832
2624.324	5806
2626.247	5790
2628.167	5860
2630.088	5743
2632.008	5841
2633.928	5811
2635.848	5811
2637.766	5780
2639.684	5900
2641.603	5858
2643.519	5840
2645.437	5867
2647.353	5795
2649.27	5752
2651.184	5772
2653.099	5823
2655.014	5841
2656.928	5756
2658.842	5756
2660.755	5820
2662.667	5770
2664.579	5761
2666.491	5835
2668.402	5830
2670.312	5731
2672.222	5777
2674.132	5910
2676.042	5668
2677.951	5690
2679.859	5767
2681.766	5820
2683.674	5734
2685.582	5786
2687.488	5649
2689.392	5761
2691.298	5729
2693.202	5692
2695.107	5813
2697.012	5849
2698.914	5698
2700.817	5636
2702.72	5617
2704.622	5734
2706.524	5697
2708.425	5680
2710.326	5693
2712.225	5664
2714.125	5695
2716.024	5763
2717.923	5678
2719.822	5736
2721.719	5727
2723.616	5687
2725.512	5643
2727.41	5675
2729.305	5660
2731.201	5572
2733.095	5674
2734.99	5635
2736.884	5776
2738.778	5713
2740.67	5663
2742.562	5601
2744.455	5702
2746.346	5618
2748.238	5590
2750.129	5697
2752.018	5684
2753.907	5664
2755.797	5619
2757.687	5716
2759.575	5658
2761.462	5733
2763.349	5492
2765.237	5585
2767.124	5583
2769.009	5596
2770.894	5665
2772.779	5636
2774.663	5679
2776.547	5676
2778.431	5485
2780.314	5661
2782.197	5683
2784.078	5670
2785.96	5564
2787.842	5608
2789.723	5667
2791.603	5552
2793.483	5558
2795.362	5656
2797.241	5669
2799.121	5515
2800.997	5492
2802.874	5563
2804.751	5588
2806.628	5632
2808.506	5709
2810.38	5563
2812.255	5615
2814.13	5556
2816.003	5533
2817.878	5477
2819.752	5553
2821.623	5529
2823.496	5606
2825.368	5503
2827.238	5616
2829.111	5539
2830.98	5594
2832.851	5604
2834.719	5530
2836.589	5660
2838.458	5563
2840.327	5558
2842.193	5551
2844.061	5650
2845.927	5695
2847.794	5498
2849.66	5577
2851.525	5604
2853.39	5632
2855.254	5761
2857.117	5607
2858.983	5773
2860.845	5718
2862.707	5711
2864.569	5695
2866.431	5843
2868.293	5710
2870.154	5778
2872.013	5824
2873.873	5911
2875.733	5917
2877.592	6051
2879.451	5989
2881.309	6019
2883.166	5999
2885.022	6051
2886.879	6028
2888.736	5964
2890.591	6030
2892.446	6225
2894.301	6121
2896.155	6087
2898.009	6183
2899.863	6147
2901.716	6084
2903.568	6115
2905.419	5959
2907.27	6160
2909.123	6155
2910.973	6190
2912.824	6147
2914.673	6213
2916.521	6221
2918.372	6342
2920.22	6346
2922.067	6207
2923.914	6419
2925.761	6376
2927.607	6441
2929.455	6400
2931.301	6377
2933.144	6541
2934.99	6660
2936.833	6753
2938.678	6599
2940.522	6552
2942.364	6841
2944.207	6818
2946.048	6809
2947.891	6967
2949.731	6888
2951.571	6896
2953.412	6995
2955.25	6828
2957.09	6987
2958.93	6885
2960.767	6780
2962.606	6644
2964.443	6682
2966.279	6711
2968.116	6624
2969.953	6344
2971.788	6383
2973.623	6375
2975.457	6358
2977.292	6338
2979.127	6190
2980.959	6222
2982.792	6102
2984.624	6197
2986.455	6043
2988.288	5976
2990.119	5891
2991.949	5979
2993.779	5912
2995.608	5896
2997.439	5773
2999.268	5795
3001.096	5788
3002.923	5774
3004.751	5668
3006.578	5695
3008.406	5646
3010.232	5628
3012.057	5588
3013.883	5410
3015.706	5583
3017.532	5573
3019.356	5473
3021.179	5389
3023.002	5484
3024.823	5433
3026.646	5308
3028.469	5407
3030.289	5420
3032.11	5342
3033.93	5327
3035.749	5264
3037.57	5289
3039.39	5334
3041.207	5209
3043.026	5271
3044.842	5300
3046.661	5292
3048.477	5280
3050.294	5169
3052.109	5185
3053.925	5196
3055.739	5205
3057.555	5245
3059.368	5226
3061.181	5169
3062.995	5213
3064.807	5222
3066.62	5245
3068.433	5195
3070.243	5215
3072.054	5240
3073.865	5149
3075.675	5169
3077.485	5110
3079.293	5246
3081.102	5152
3082.911	5151
3084.719	5174
3086.527	5111
3088.333	5097
3090.139	5115
3091.945	5082
3093.75	5107
3095.557	5131
3097.361	5045
3099.165	5073
3100.969	5083
3102.772	5126
3104.575	5072
3106.379	5055
3108.181	4968
3109.982	5070
3111.783	5029
3113.584	5062
3115.386	5115
3117.186	5028
3118.985	4941
3120.783	5049
3122.582	5020
3124.381	5106
3126.179	4923
3127.975	4963
3129.772	4992
3131.569	5052
3133.365	4921
3135.161	4990
3136.956	4954
3138.751	4924
3140.544	4950
3142.338	4937
3144.132	4946
3145.925	5067
3147.717	4925
3149.509	4956
3151.301	5003
3153.091	4959
3154.884	4928
3156.673	4990
3158.462	4974
3160.252	4938
3162.041	4849
3163.831	4842
3165.618	4910
3167.405	4896
3169.193	4892
3170.979	4894
3172.767	4941
3174.553	4914
3176.338	4941
3178.123	4859
3179.907	4861
3181.692	4892
3183.477	4836
3185.259	4832
3187.042	4933
3188.824	4948
3190.607	4815
3192.389	4903
3194.17	4885
3195.951	4929
3197.73	4945
3199.51	4942
3201.289	4916
3203.07	4809
3204.848	4914
3206.626	4911
3208.403	4875
3210.18	4802
3211.959	4851
3213.735	4814
3215.511	4858
3217.285	4861
3219.06	4825
3220.836	4883
3222.611	4837
3224.384	4727
3226.158	4842
3227.929	4837
3229.702	4832
3231.476	4829
3233.248	4841
3235.018	4891
3236.789	4857
3238.56	4813
3240.33	4827
3242.1	4792
3243.869	4811
3245.637	4787
3247.405	4812
3249.172	4829
3250.941	4767
3252.707	4858
3254.474	4822
3256.24	4857
3258.006	4775
3259.772	4778
3261.537	4734
3263.301	4954
3265.065	4821
3266.828	4843
3268.592	4795
3270.355	4812
3272.117	4799
3273.878	4861
3275.64	4773
3277.401	4796
3279.162	4872
3280.922	4796
3282.682	4857
3284.441	4867
3286.199	4818
3287.959	4718
3289.716	4788
3291.475	4857
3293.232	4878
3294.988	4779
3296.744	4812
3298.501	4781
3300.256	4781
3302.011	4818
3303.766	4879
3305.52	4791
3307.275	4797
3309.028	4843
3310.781	4787
3312.533	4804
3314.285	4722
3316.038	4814
3317.789	4726
3319.54	4722
3321.289	4762
3323.039	4847
3324.789	4714
3326.539	4787
3328.288	4727
3330.035	4765
3331.783	4672
3333.531	4766
3335.28	4766
3337.025	4651
3338.771	4784
3340.518	4763
3342.262	4710
3344.009	4724
3345.753	4760
3347.497	4658
3349.24	4725
3350.983	4779
3352.726	4749
3354.469	4783
3356.212	4628
3357.952	4759
3359.694	4708
3361.434	4642
3363.176	4674
3364.916	4633
3366.654	4688
3368.394	4712
3370.132	4756
3371.871	4675
3373.61	4712
3375.346	4698
3377.083	4648
3378.82	4565
3380.556	4694
3382.292	4652
3384.027	4586
3385.763	4611
3387.497	4609
3389.231	4624
3390.965	4565
3392.698	4555
3394.431	4479
3396.164	4519
3397.896	4603
3399.627	4560
3401.36	4603
3403.09	4651
3404.82	4623
3406.55	4630
3408.279	4527
3410.01	4682
3411.738	4601
3413.467	4582
3415.194	4560
3416.92	4592
3418.647	4569
3420.375	4606
3422.102	4551
3423.827	4636
3425.553	4455
3427.277	4476
3429.003	4543
3430.727	4467
3432.451	4576
3434.173	4456
3435.896	4503
3437.62	4539
3439.343	4468
3441.063	4496
3442.785	4467
3444.505	4437
3446.226	4491
3447.948	4483
3449.666	4371
3451.386	4396
3453.104	4421
3454.823	4497
3456.541	4466
3458.259	4465
3459.976	4453
3461.693	4457
3463.408	4465
3465.125	4434
3466.841	4429
3468.556	4364
3470.271	4392
3471.985	4359
3473.698	4410
3475.414	4404
3477.126	4445
3478.838	4323
3480.55	4284
3482.263	4310
3483.975	4256
3485.686	4238
3487.396	4325
3489.106	4298
3490.817	4333
3492.526	4319
3494.236	4292
3495.944	4282
3497.652	4240
3499.359	4285
3501.066	4282
3502.775	4296
3504.481	4266
3506.187	4272
3507.893	4169
3509.598	4142
3511.304	4212
3513.009	4250
3514.713	4150
3516.417	4105
3518.12	4227
3519.821	4187
3521.525	4244
3523.228	4185
3524.929	4210
3526.631	4206
3528.33	4141
3530.032	4213
3531.733	4144
3533.433	4243
3535.131	4088
3536.83	4168
3538.529	4182
3540.227	4243
3541.925	4164
3543.623	4134
3545.319	4104
3547.016	4061
3548.712	4113
3550.408	4056
3552.103	4118
3553.798	4141
3555.491	4081
3557.188	4084
3558.88	4088
3560.574	4032
3562.266	4031
3563.959	4091
3565.651	4044
3567.343	4093
3569.035	4084
3570.725	4028
3572.415	4106
3574.106	4041
3575.797	3976
3577.485	4076
3579.174	4126
3580.863	4034
3582.551	4049
3584.238	3994
3585.926	4022
3587.613	4034
3589.3	3997
3590.986	4017
3592.671	3981
3594.357	4014
3596.042	3960
3597.726	3910
3599.41	4017
3601.094	3891
3602.778	3933
3604.461	3875
3606.143	3888
3607.825	3960
3609.507	3884
3611.188	3924
3612.87	3936
3614.551	3845
3616.229	3872
3617.909	3948
3619.589	3951
3621.269	3894
3622.948	3839
3624.625	3861
3626.302	3852
3627.98	3839
3629.657	3849
3631.334	3924
3633.01	3834
3634.686	3893
3636.361	3852
3638.036	3772
3639.712	3799
3641.385	3757
3643.06	3852
3644.732	3720
3646.405	3819
3648.08	3836
3649.751	3782
3651.424	3785
3653.094	3776
3654.766	3772
3656.436	3660
3658.106	3786
3659.777	3741
3661.446	3712
3663.115	3631
3664.783	3666
3666.452	3727
3668.121	3706
3669.788	3761
3671.454	3659
3673.121	3744
3674.789	3711
3676.455	3758
3678.12	3695
3679.784	3710
3681.45	3630
3683.114	3711
3684.779	3698
3686.442	3765
3688.105	3627
3689.768	3694
3691.43	3717
3693.093	3626
3694.754	3686
3696.415	3703
3698.076	3760
3699.736	3619
3701.396	3682
3703.057	3677
3704.716	3595
3706.375	3648
3708.034	3677
3709.692	3675
3711.351	3628
3713.008	3543
3714.665	3690
3716.321	3679
3717.977	3674
3719.634	3679
3721.29	3632
3722.945	3714
3724.598	3699
3726.253	3681
3727.907	3599
3729.561	3700
3731.214	3599
3732.867	3554
3734.518	3635
3736.171	3481
3737.824	3581
3739.474	3565
3741.125	3507
3742.775	3572
3744.425	3569
3746.074	3659
3747.725	3559
3749.373	3494
3751.022	3509
3752.669	3569
3754.318	3564
3755.966	3622
3757.612	3583
3759.259	3557
3760.905	3539
3762.55	3559
3764.197	3575
3765.842	3546
3767.486	3535
3769.131	3583
3770.774	3580
3772.417	3496
3774.061	3576
3775.705	3519
3777.347	3640
3778.988	3485
3780.629	3482
3782.271	3459
3783.912	3452
3785.552	3408
3787.192	3504
3788.831	3488
3790.472	3554
3792.112	3451
3793.75	3494
3795.388	3433
3797.024	3442
3798.661	3448
3800.3	3500
3801.936	3533
3803.572	3474
3805.208	3509
3806.844	3407
3808.48	3514
3810.115	3459
3811.748	3408
3813.382	3413
3815.016	3454
3816.649	3335
3818.283	3391
3819.914	3502
3821.547	3316
3823.178	3390
3824.809	3407
3826.441	3388
3828.072	3367
3829.701	3426
3831.331	3433
3832.96	3432
3834.591	3472
3836.219	3344
3837.847	3338
3839.475	3390
3841.102	3340
3842.729	3325
3844.357	3321
3845.984	3351
3847.609	3403
3849.234	3341
3850.86	3298
3852.485	3400
3854.11	3335
3855.734	3379
3857.357	3291
3858.981	3344
3860.603	3321
3862.227	3270
3863.848	3297
3865.471	3357
3867.092	3311
3868.713	3311
3870.334	3347
3871.954	3280
3873.575	3359
3875.194	3330
3876.813	3333
3878.433	3289
3880.051	3278
3881.669	3279
3883.286	3298
3884.904	3258
3886.52	3242
3888.138	3266
3889.754	3279
3891.37	3289
3892.985	3307
3894.6	3242
3896.216	3357
3897.831	3321
3899.444	3244
3901.058	3280
3902.67	3321
3904.283	3212
3905.897	3338
3907.509	3206
3909.121	3244
3910.731	3233
3912.342	3223
3913.954	3260
3915.563	3239
3917.174	3260
3918.783	3255
3920.391	3282
3922.002	3183
3923.611	3216
3925.218	3254
3926.826	3318
3928.432	3301
3930.039	3206
3931.647	3179
3933.253	3182
3934.859	3111
3936.464	3226
3938.068	3166
3939.675	3185
3941.278	3212
3942.883	3248
3944.486	3167
3946.089	3188
3947.692	3161
3949.295	3217
3950.898	3177
3952.499	3254
3954.1	3238
3955.7	3156
3957.303	3198
3958.903	3143
3960.502	3126
3962.101	3185
3963.7	3120
3965.301	3207
3966.899	3098
3968.497	3040
3970.094	3189
3971.691	3177
3973.288	3175
3974.885	3117
3976.481	3192
3978.077	3092
3979.672	3147
3981.267	3051
3982.863	3102
3984.457	3168
3986.051	3107
3987.645	3109
3989.238	3059
3990.831	3099
3992.425	3030
3994.017	3154
3995.607	3057
3997.199	3063
3998.79	3103
4000.382	3137
4001.973	3139
4003.561	3117
4005.151	3018
4006.741	3115
4008.331	3061
4009.918	3071
4011.507	3123
4013.095	3087
4014.681	3045
4016.269	3110
4017.856	3001
4019.443	3010
4021.028	3022
4022.614	2988
4024.199	2976
4025.785	2971
4027.37	3075
4028.953	3012
4030.536	3038
4032.12	2960
4033.704	2954
4035.287	2984
4036.869	3036
4038.45	2943
4040.032	2941
4041.613	2980
4043.195	2939
4044.776	3008
4046.356	3002
4047.935	3003
4049.515	2926
4051.095	2896
4052.674	3001
4054.251	2988
4055.829	2941
4057.406	2938
4058.985	2892
4060.562	3001
4062.139	2903
4063.715	2921
4065.29	2920
4066.865	2862
4068.442	2910
4070.016	2903
4071.59	2859
4073.164	2968
4074.738	2894
4076.312	2918
4077.885	2879
4079.458	2905
4081.03	2866
4082.602	2891
4084.173	2860
4085.745	2872
4087.315	2867
4088.886	2930
4090.456	2883
4092.026	2855
4093.596	2908
4095.165	2936
4096.734	2880
4098.301	2901
4099.869	2836
4101.437	2867
4103.006	2889
4104.572	2800
4106.139	2916
4107.704	2815
4109.27	2876
4110.837	2846
4112.401	2798
4113.966	2773
4115.53	2804
4117.094	2834
4118.659	2897
4120.223	2817
4121.785	2841
4123.347	2836
4124.909	2907
4126.471	2769
4128.034	2812
4129.595	2827
4131.155	2830
4132.716	2909
4134.275	2662
4135.836	2736
4137.395	2793
4138.955	2759
4140.513	2807
4142.071	2722
4143.628	2732
4145.188	2704
4146.745	2749
4148.302	2750
4149.858	2728
4151.414	2761
4152.971	2780
4154.526	2748
4156.081	2720
4157.635	2711
4159.189	2730
4160.745	2755
4162.298	2795
4163.852	2669
4165.405	2752
4166.957	2729
4168.51	2758
4170.063	2719
4171.614	2707
4173.166	2721
4174.717	2702
4176.267	2627
4177.817	2675
4179.368	2678
4180.917	2663
4182.466	2673
4184.016	2714
4185.564	2736
4187.112	2715
4188.66	2678
4190.207	2648
4191.754	2642
4193.301	2725
4194.848	2670
4196.394	2614
4197.94	2700
4199.484	2692
4201.03	2679
4202.575	2607
4204.12	2657
4205.663	2617
4207.207	2595
4208.75	2596
4210.292	2603
4211.836	2606
4213.378	2637
4214.92	2652
4216.46	2600
4218.002	2530
4219.544	2574
4221.083	2659
4222.625	2638
4224.164	2667
4225.703	2643
4227.244	2604
4228.782	2578
4230.32	2641
4231.857	2612
4233.395	2589
4234.933	2659
4236.471	2579
4238.007	2651
4239.542	2538
4241.078	2572
4242.614	2560
4244.15	2594
4245.685	2556
4247.219	2571
4248.753	2571
4250.287	2634
4251.82	2591
4253.354	2495
4254.887	2539
4256.419	2626
4257.951	2581
4259.483	2581
4261.016	2598
4262.547	2512
4264.078	2621
4265.608	2510
4267.137	2527
4268.668	2562
4270.197	2547
4271.727	2598
4273.254	2521
4274.783	2572
4276.311	2484
4277.84	2537
4279.366	2526
4280.894	2563
4282.42	2493
4283.946	2552
4285.473	2530
4286.998	2528
4288.523	2448
4290.047	2500
4291.572	2444
4293.096	2450
4294.622	2482
4296.144	2501
4297.668	2477
4299.19	2496
4300.713	2503
4302.236	2537
4303.758	2512
4305.279	2450
4306.799	2524
4308.321	2505
4309.842	2474
4311.361	2486
4312.882	2446
4314.401	2475
