400.0961	5116
402.6185	5123
405.1424	5119
407.6635	5234
410.1838	5231
412.7035	5198
415.2225	5272
417.7388	5277
420.2585	5353
422.7754	5378
425.2917	5412
427.8072	5396
430.3221	5439
432.8363	5515
435.3498	5535
437.8626	5434
440.3727	5472
442.8841	5560
445.3969	5544
447.907	5496
450.4142	5560
452.9229	5411
455.4289	5511
457.9362	5606
460.4449	5483
462.9488	5539
465.454	5452
467.9566	5523
470.4604	5426
472.9637	5541
475.4662	5501
477.966	5404
480.4671	5688
482.9656	5549
485.4633	5539
487.9645	5579
490.4608	5638
492.9566	5670
495.4536	5665
497.948	5588
500.4437	5714
502.9387	5562
505.431	5634
507.9226	5624
510.4136	5756
512.9079	5614
515.3975	5656
517.8864	5718
520.3746	5627
522.8622	5806
525.3491	5663
527.8394	5666
530.3249	5748
532.8098	5705
535.2939	5675
537.7774	5747
540.2623	5701
542.7444	5854
545.2259	5706
547.7067	5690
550.1868	5759
552.6683	5843
555.147	5791
557.6231	5792
560.1005	5806
562.5773	5855
565.0534	5708
567.5308	5812
570.0056	5923
572.4776	5917
574.951	5943
577.4237	5915
579.8978	5899
582.3671	5984
584.8378	6068
587.3079	6006
589.7773	5853
592.244	5983
594.714	5958
597.1793	6112
599.6461	5989
602.1121	6010
604.5754	5921
607.0421	5908
609.5042	5973
611.9675	6001
614.4282	6006
616.8902	5938
619.3515	5922
621.8122	5967
624.2702	5841
626.7296	5911
629.1863	5918
631.6423	5973
634.1017	5878
636.5563	5851
639.0104	5894
641.4658	5955
643.9185	5925
646.3725	5907
648.8239	5935
651.2766	6097
653.7266	5885
656.176	5966
658.6247	6009
661.0748	5985
663.5242	6121
665.9709	6061
668.417	6055
670.8624	6066
673.3092	6039
675.7533	6121
678.1968	6159
680.6395	6087
683.0817	6113
685.5251	6147
687.9659	6146
690.4061	6221
692.8456	6216
695.2844	6173
697.7226	6154
700.1621	6009
702.599	6209
705.0332	6184
707.4688	6185
709.9036	6174
712.3399	6264
714.7735	6297
717.2044	6235
719.6367	6473
722.0683	6259
724.4993	6308
726.9296	6347
729.3593	6394
731.7883	6387
734.2147	6365
736.6423	6507
739.0714	6431
741.4958	6529
743.9216	6468
746.3447	6495
748.7691	6509
751.1929	6496
753.616	6575
756.0366	6546
758.4584	6437
760.8776	6589
763.2982	6538
765.718	6534
768.1373	6638
770.5539	6543
772.9698	6618
775.3871	6621
777.8038	6587
780.2178	6558
782.6332	6656
785.0459	6761
787.458	6659
789.8714	6665
792.2842	6606
794.6943	6694
797.1038	6679
799.5127	6772
801.9209	6610
804.3324	6493
806.7393	6804
809.1456	6639
811.5513	6728
813.9562	6682
816.3625	6754
818.7663	6777
821.1693	6637
823.5718	6766
825.9735	6731
828.3746	6802
830.7771	6680
833.177	6702
835.5762	6707
837.9747	6807
840.3727	6722
842.772	6820
845.1666	6815
847.5626	6753
849.958	6862
852.3527	6823
854.7488	6885
857.1403	6913
859.5331	7014
861.9253	6954
864.3168	6836
866.7057	6873
869.098	6864
871.4876	6916
873.8746	6822
876.263	6903
878.6487	6750
881.0378	6668
883.4243	6808
885.8081	6808
888.1933	6915
890.5759	6724
892.9598	6885
895.343	6908
897.7256	6922
900.1057	6881
902.4871	6869
904.8659	6755
907.246	6942
909.6254	6931
912.0023	6797
914.3786	7005
916.7562	7158
919.1331	7155
921.5074	7310
923.8831	7264
926.2562	7253
928.6287	7251
931.0005	7269
933.3757	7196
935.7462	7231
938.1162	7284
940.4855	7418
942.8542	7394
945.2242	7558
947.5916	7557
949.9584	7875
952.3266	7931
954.6921	8317
957.0571	8581
959.4233	8767
961.787	8991
964.15	8899
966.5125	8606
968.8742	8298
971.2354	7993
973.5959	7782
975.9559	7560
978.3151	7455
980.6738	7286
983.0338	7240
985.3912	7187
987.7461	7198
990.1022	7110
992.4578	7170
994.8127	7081
997.1689	7137
999.5207	7090
1001.874	7115
1004.226	7320
1006.576	7101
1008.929	7350
1011.28	7186
1013.628	7144
1015.977	7116
1018.324	7057
1020.674	7213
1023.019	7158
1025.366	7321
1027.713	7160
1030.056	7261
1032.399	7217
1034.746	7235
1037.087	7325
1039.431	7284
1041.771	7233
1044.113	7329
1046.454	7405
1048.793	7304
1051.133	7263
1053.471	7249
1055.807	7271
1058.146	7288
1060.483	7402
1062.818	7449
1065.153	7418
1067.489	7453
1069.822	7311
1072.156	7433
1074.488	7492
1076.82	7434
1079.15	7486
1081.48	7363
1083.814	7399
1086.143	7426
1088.471	7468
1090.799	7409
1093.126	7315
1095.452	7182
1097.78	7316
1100.105	7351
1102.43	7223
1104.754	7345
1107.077	7307
1109.4	7326
1111.722	7293
1114.044	7242
1116.365	7341
1118.685	7288
1121.005	7302
1123.324	7353
1125.643	7345
1127.961	7347
1130.278	7387
1132.595	7285
1134.911	7317
1137.226	7285
1139.541	7384
1141.854	7294
1144.167	7402
1146.482	7281
1148.793	7351
1151.105	7237
1153.414	7448
1155.725	7324
1158.033	7437
1160.344	7294
1162.651	7442
1164.959	7444
1167.265	7462
1169.572	7389
1171.878	7295
1174.184	7299
1176.488	7398
1178.79	7427
1181.094	7400
1183.396	7366
1185.699	7349
1188.001	7236
1190.301	7391
1192.6	7401
1194.9	7443
1197.2	7253
1199.497	7336
1201.794	7313
1204.09	7394
1206.387	7425
1208.684	7382
1210.978	7267
1213.272	7417
1215.565	7300
1217.858	7418
1220.15	7526
1222.443	7444
1224.734	7330
1227.024	7368
1229.313	7446
1231.602	7599
1233.892	7470
1236.18	7607
1238.467	7547
1240.754	7582
1243.04	7591
1245.325	7786
1247.612	7625
1249.896	7744
1252.178	7661
1254.461	7620
1256.743	7702
1259.027	7572
1261.308	7751
1263.587	7661
1265.867	7698
1268.146	7688
1270.425	7645
1272.703	7660
1274.981	7653
1277.256	7577
1279.532	7687
1281.808	7583
1284.083	7507
1286.358	7654
1288.63	7654
1290.904	7511
1293.175	7521
1295.449	7605
1297.719	7579
1299.99	7462
1302.259	7533
1304.529	7415
1306.798	7644
1309.065	7489
1311.333	7561
1313.599	7529
1315.866	7513
1318.131	7479
1320.396	7675
1322.66	7600
1324.925	7651
1327.187	7634
1329.448	7535
1331.711	7562
1333.974	7684
1336.234	7492
1338.493	7653
1340.752	7675
1343.01	7543
1345.269	7551
1347.526	7744
1349.784	7521
1352.04	7577
1354.295	7541
1356.552	7495
1358.806	7501
1361.059	7604
1363.312	7611
1365.564	7512
1367.818	7641
1370.069	7551
1372.318	7663
1374.568	7574
1376.817	7564
1379.066	7617
1381.316	7712
1383.564	7624
1385.809	7602
1388.056	7611
1390.301	7642
1392.549	7673
1394.793	7860
1397.036	7656
1399.279	7737
1401.522	7743
1403.763	7706
1406.007	7760
1408.248	7826
1410.487	7846
1412.727	7839
1414.965	7744
1417.205	7841
1419.442	7801
1421.68	7766
1423.915	7851
1426.152	7877
1428.388	7749
1430.623	7893
1432.857	7897
1435.091	7822
1437.323	7809
1439.556	7889
1441.789	7980
1444.019	7905
1446.25	7974
1448.48	7995
1450.708	7941
1452.938	8064
1455.167	7894
1457.394	7899
1459.62	8091
1461.846	7866
1464.073	7858
1466.299	7935
1468.523	8005
1470.746	7704
1472.969	7789
1475.191	7770
1477.415	7789
1479.636	7776
1481.858	7801
1484.078	7811
1486.298	7807
1488.518	7688
1490.736	7593
1492.954	7613
1495.169	7575
1497.386	7658
1499.602	7513
1501.819	7587
1504.034	7635
1506.248	7679
1508.462	7630
1510.675	7672
1512.888	7561
1515.1	7662
1517.311	7635
1519.522	7587
1521.732	7496
1523.942	7729
1526.151	7526
1528.36	7551
1530.566	7640
1532.773	7521
1534.98	7487
1537.187	7623
1539.392	7667
1541.596	7649
1543.801	7572
1546.005	7749
1548.208	7752
1550.411	7644
1552.612	7632
1554.814	7654
1557.013	7567
1559.212	7864
1561.414	7781
1563.612	7784
1565.811	7780
1568.007	7836
1570.203	7783
1572.403	7784
1574.598	7992
1576.792	7767
1578.988	7758
1581.181	7771
1583.376	7802
1585.568	7693
1587.761	7726
1589.952	7819
1592.143	7801
1594.333	7816
1596.524	7846
1598.715	7886
1600.903	7923
1603.091	7883
1605.278	7808
1607.466	7850
1609.652	7802
1611.838	7931
1614.023	8019
1616.207	8017
1618.391	7822
1620.576	7994
1622.759	7973
1624.941	7862
1627.123	7844
1629.304	7989
1631.484	7913
1633.664	7921
1635.844	7974
1638.022	7997
1640.201	8001
1642.38	7981
1644.556	8064
1646.732	7898
1648.908	8006
1651.084	8036
1653.257	7899
1655.433	7890
1657.607	8042
1659.779	8063
1661.951	8045
1664.122	7907
1666.295	8002
1668.467	8062
1670.635	8098
1672.805	7966
1674.973	7994
1677.142	8163
1679.31	8128
1681.478	7938
1683.644	8027
1685.81	8068
1687.975	8002
1690.142	8082
1692.305	8085
1694.468	7889
1696.632	7894
1698.794	7959
1700.957	7805
1703.119	7963
1705.279	7843
1707.439	7847
1709.598	7960
1711.758	7836
1713.917	7825
1716.075	7923
1718.231	7722
1720.388	7764
1722.543	7669
1724.702	7834
1726.856	7696
1729.01	7827
1731.164	7808
1733.317	7776
1735.471	7874
1737.623	7854
1739.774	7760
1741.925	7813
1744.075	7931
1746.225	7910
1748.376	7750
1750.524	7808
1752.672	7854
1754.82	7893
1756.965	7837
1759.113	7833
1761.259	7934
1763.405	7774
1765.549	7880
1767.694	7836
1769.836	7918
1771.981	7868
1774.123	7810
1776.264	7814
1778.405	7968
1780.546	7883
1782.687	7876
1784.827	8021
1786.966	7898
1789.103	7926
1791.242	7923
1793.381	7894
1795.517	7963
1797.653	7851
1799.788	7894
1801.923	7948
1804.057	7928
1806.193	7813
1808.326	7835
1810.457	7857
1812.59	7910
1814.721	7876
1816.855	7837
1818.984	7882
1821.113	7814
1823.244	7737
1825.372	7972
1827.499	7871
1829.63	7897
1831.756	7745
1833.882	7872
1836.007	7803
1838.132	7797
1840.26	7949
1842.384	7900
1844.507	7853
1846.63	7846
1848.752	7850
1850.875	7751
1852.996	7902
1855.118	7885
1857.238	7689
1859.358	7815
1861.477	7715
1863.597	7825
1865.715	7924
1867.832	7805
1869.948	7875
1872.064	7798
1874.181	7829
1876.297	7878
1878.411	7833
1880.526	7886
1882.639	7677
1884.752	7701
1886.865	7824
1888.977	7827
1891.089	7878
1893.2	7833
1895.308	7873
1897.42	7938
1899.53	7952
1901.639	7902
1903.745	7818
1905.853	7993
1907.962	7938
1910.067	7929
1912.174	7816
1914.278	7902
1916.383	7850
1918.486	7949
1920.592	8048
1922.694	7889
1924.797	7986
1926.898	7976
1929	7955
1931.102	7917
1933.203	7933
1935.301	8014
1937.401	7983
1939.499	7959
1941.598	7853
1943.697	7871
1945.793	7919
1947.888	7908
1949.985	7950
1952.08	7955
1954.176	7940
1956.269	7926
1958.364	8025
1960.457	7929
1962.549	8038
1964.642	7914
1966.733	8024
1968.823	7895
1970.913	7976
1973.005	7696
1975.093	7918
1977.184	8042
1979.271	7956
1981.359	7861
1983.446	7962
1985.532	7866
1987.619	7985
1989.705	7796
1991.789	8022
1993.874	7893
1995.956	7811
1998.041	7932
2000.123	7814
2002.206	7830
2004.287	7966
2006.368	7792
2008.449	7802
2010.529	7749
2012.609	7765
2014.688	7830
2016.766	7877
2018.843	7856
2020.922	7901
2022.999	7704
2025.074	7814
2027.15	7887
2029.225	7807
2031.299	7888
2033.375	7789
2035.447	7899
2037.52	7728
2039.592	7804
2041.664	7801
2043.736	7783
2045.807	7955
2047.876	7760
2049.947	7883
2052.015	7867
2054.086	7804
2056.153	7770
2058.221	7919
2060.288	7742
2062.353	7861
2064.42	7874
2066.486	7687
2068.55	7951
2070.614	7761
2072.678	7777
2074.741	7811
2076.805	7861
2078.866	7807
2080.929	7917
2082.99	7766
2085.049	7889
2087.109	7847
2089.17	7806
2091.228	7940
2093.286	7836
2095.344	7803
2097.4	7866
2099.46	7971
2101.516	7683
2103.572	7726
2105.626	7807
2107.679	7816
2109.735	7884
2111.788	7757
2113.841	7792
2115.894	7813
2117.945	7887
2119.997	7809
2122.049	7980
2124.1	7922
2126.148	7849
2128.197	7778
2130.246	7788
2132.296	7989
2134.342	7872
2136.39	7686
2138.437	7836
2140.483	7762
2142.527	7725
2144.574	7837
2146.619	7769
2148.661	7796
2150.705	7786
2152.747	7699
2154.792	7703
2156.832	7828
2158.874	7839
2160.915	7760
2162.954	7620
2164.995	7704
2167.034	7802
2169.072	7705
2171.111	7723
2173.148	7822
2175.186	7765
2177.223	7701
2179.258	7684
2181.294	7769
2183.328	7638
2185.362	7736
2187.398	7621
2189.431	7642
2191.463	7699
2193.495	7706
2195.528	7634
2197.56	7660
2199.59	7673
2201.62	7508
2203.649	7631
2205.678	7597
2207.708	7638
2209.737	7581
2211.764	7658
2213.791	7681
2215.817	7568
2217.843	7671
2219.87	7621
2221.895	7613
2223.919	7557
2225.942	7723
2227.966	7654
2229.988	7625
2232.012	7536
2234.032	7668
2236.054	7598
2238.074	7567
2240.095	7582
2242.116	7678
2244.135	7569
2246.153	7459
2248.171	7625
2250.188	7583
2252.208	7533
2254.223	7742
2256.239	7586
2258.255	7646
2260.269	7564
2262.283	7529
2264.3	7579
2266.312	7509
2268.325	7497
2270.336	7615
2272.349	7622
2274.362	7564
2276.372	7532
2278.383	7536
2280.392	7539
2282.402	7654
2284.409	7565
2286.418	7498
2288.427	7541
2290.433	7571
2292.441	7479
2294.446	7531
2296.453	7612
2298.459	7483
2300.463	7501
2302.466	7569
2304.471	7724
2306.475	7631
2308.477	7588
2310.478	7523
2312.481	7486
2314.481	7448
2316.481	7494
2318.482	7417
2320.482	7431
2322.48	7503
2324.48	7531
2326.478	7582
2328.476	7464
2330.473	7378
2332.469	7286
2334.465	7499
2336.46	7474
2338.454	7433
2340.45	7409
2342.444	7347
2344.437	7463
2346.43	7451
2348.421	7440
2350.414	7482
2352.405	7597
2354.396	7456
2356.386	7341
2358.376	7410
2360.366	7361
2362.355	7365
2364.343	7372
2366.331	7416
2368.317	7327
2370.304	7281
2372.292	7481
2374.278	7318
2376.262	7390
2378.247	7311
2380.23	7346
2382.216	7349
2384.199	7268
2386.181	7275
2388.163	7300
2390.144	7230
2392.127	7397
2394.107	7302
2396.087	7266
2398.066	7289
2400.046	7388
2402.023	7186
2404.004	7336
2405.981	7275
2407.957	7263
2409.934	7325
2411.91	7378
2413.886	7401
2415.862	7287
2417.836	7205
2419.809	7310
2421.784	7176
2423.756	7195
2425.73	7190
2427.701	7335
2429.672	7274
2431.644	7307
2433.615	7381
2435.586	7309
2437.555	7276
2439.523	7089
2441.491	7316
2443.459	7359
2445.428	7313
2447.395	7185
2449.361	7265
2451.327	7144
2453.292	7264
2455.257	7275
2457.223	7351
2459.187	7211
2461.15	7283
2463.113	7179
2465.076	7217
2467.039	7243
2468.999	7200
2470.96	7119
2472.921	7190
2474.881	7227
2476.841	7200
2478.8	7164
2480.759	7237
2482.717	7031
2484.675	7256
2486.63	7100
2488.589	7091
2490.545	7254
2492.5	7098
2494.455	7181
2496.408	7169
2498.364	7092
2500.318	7130
2502.27	7245
2504.223	7068
2506.174	7170
2508.126	7153
2510.078	7135
2512.03	7155
2513.979	7138
2515.927	7102
2517.877	7065
2519.826	7177
2521.775	7142
2523.722	7084
2525.668	7005
2527.616	7031
2529.561	7129
2531.508	7026
2533.452	7192
2535.398	7133
2537.342	6898
2539.284	7073
2541.229	7119
2543.173	7067
2545.114	7034
2547.055	7143
2548.996	7121
2550.938	7133
2552.878	7069
2554.817	6950
2556.756	7187
2558.695	6978
2560.633	7041
2562.572	7055
2564.509	7143
2566.445	7116
2568.382	7126
2570.317	7076
2572.254	7032
2574.189	7138
2576.123	7118
2578.057	7069
2579.99	7040
2581.923	6952
2583.855	7019
2585.788	6971
2587.719	6985
2589.65	6976
2591.579	7163
2593.511	6941
2595.44	7146
2597.37	6998
2599.297	7212
2601.225	7048
2603.153	7071
2605.08	7056
2607.007	7116
2608.932	6986
2610.858	7057
2612.782	7083
2614.709	7097
2616.632	7091
2618.556	7116
2620.478	7120
2622.401	7015
2624.324	7030
2626.247	7030
2628.167	7121
2630.088	7109
2632.008	7046
2633.928	7143
2635.848	6970
2637.766	6936
2639.684	7017
2641.603	7114
2643.519	7111
2645.437	7058
2647.353	7084
2649.27	7041
2651.184	7004
2653.099	7160
2655.014	6975
2656.928	7118
2658.842	6972
2660.755	7027
2662.667	7161
2664.579	7136
2666.491	7035
2668.402	7063
2670.312	6943
2672.222	6975
2674.132	7058
2676.042	7047
2677.951	7006
2679.859	6991
2681.766	6996
2683.674	6942
2685.582	7019
2687.488	6943
2689.392	7090
2691.298	6968
2693.202	6980
2695.107	6895
2697.012	6873
2698.914	6977
2700.817	6861
2702.72	6866
2704.622	6911
2706.524	6892
2708.425	6897
2710.326	6993
2712.225	6932
2714.125	6874
2716.024	6944
2717.923	6980
2719.822	6962
2721.719	6886
2723.616	6902
2725.512	6903
2727.41	6929
2729.305	7008
2731.201	6825
2733.095	6846
2734.99	6959
2736.884	6970
2738.778	6949
2740.67	6884
2742.562	6869
2744.455	6907
2746.346	6951
2748.238	6847
2750.129	6840
2752.018	6830
2753.907	6906
2755.797	6795
2757.687	6873
2759.575	6799
2761.462	6811
2763.349	6714
2765.237	6742
2767.124	6866
2769.009	6783
2770.894	6723
2772.779	6821
2774.663	6864
2776.547	6812
2778.431	6910
2780.314	6745
2782.197	6895
2784.078	6907
2785.96	6856
2787.842	6826
2789.723	6867
2791.603	6888
2793.483	6679
2795.362	6805
2797.241	6809
2799.121	6700
2800.997	6805
2802.874	6750
2804.751	6742
2806.628	6770
2808.506	6790
2810.38	6786
2812.255	6744
2814.13	6698
2816.003	6709
2817.878	6669
2819.752	6907
2821.623	6703
2823.496	6740
2825.368	6780
2827.238	6663
2829.111	6754
2830.98	6610
2832.851	6853
2834.719	6762
2836.589	6776
2838.458	6716
2840.327	6701
2842.193	6811
2844.061	6691
2845.927	6850
2847.794	6735
2849.66	6864
2851.525	6812
2853.39	6706
2855.254	6846
2857.117	6836
2858.983	6850
2860.845	6847
2862.707	6824
2864.569	6888
2866.431	6883
2868.293	6971
2870.154	6944
2872.013	7014
2873.873	7007
2875.733	7116
2877.592	7115
2879.451	7079
2881.309	7174
2883.166	7306
2885.022	7423
2886.879	7271
2888.736	7247
2890.591	7321
2892.446	7485
2894.301	7309
2896.155	7233
2898.009	7388
2899.863	7228
2901.716	7366
2903.568	7255
2905.419	7277
2907.27	7308
2909.123	7174
2910.973	7330
2912.824	7312
2914.673	7280
2916.521	7372
2918.372	7537
2920.22	7579
2922.067	7469
2923.914	7658
2925.761	7655
2927.607	7619
2929.455	7814
2931.301	7915
2933.144	7935
2934.99	7730
2936.833	7973
2938.678	7945
2940.522	7843
2942.364	8057
2944.207	8162
2946.048	8273
2947.891	8256
2949.731	8079
2951.571	8193
2953.412	8075
2955.25	8160
2957.09	8100
2958.93	7889
2960.767	7930
2962.606	7855
2964.443	7848
2966.279	7781
2968.116	7695
2969.953	7615
2971.788	7597
2973.623	7431
2975.457	7502
2977.292	7427
2979.127	7381
2980.959	7396
2982.792	7238
2984.624	7259
2986.455	7138
2988.288	7213
2990.119	7301
2991.949	7252
2993.779	7167
2995.608	7123
2997.439	7070
2999.268	7056
3001.096	6880
3002.923	6929
3004.751	6832
3006.578	6956
3008.406	6784
3010.232	6702
3012.057	6697
3013.883	6693
3015.706	6703
3017.532	6458
3019.356	6642
3021.179	6648
3023.002	6493
3024.823	6606
3026.646	6453
3028.469	6435
3030.289	6534
3032.11	6453
3033.93	6448
3035.749	6553
3037.57	6318
3039.39	6365
3041.207	6417
3043.026	6393
3044.842	6407
3046.661	6251
3048.477	6374
3050.294	6362
3052.109	6408
3053.925	6318
3055.739	6272
3057.555	6456
3059.368	6279
3061.181	6396
3062.995	6332
3064.807	6378
3066.62	6314
3068.433	6404
3070.243	6257
3072.054	6326
3073.865	6246
3075.675	6319
3077.485	6354
3079.293	6349
3081.102	6243
3082.911	6233
3084.719	6230
3086.527	6343
3088.333	6177
3090.139	6164
3091.945	6215
3093.75	6188
3095.557	6097
3097.361	6117
3099.165	6164
3100.969	6085
3102.772	6138
3104.575	6195
3106.379	6101
3108.181	6111
3109.982	6170
3111.783	6097
3113.584	6005
3115.386	5999
3117.186	5981
3118.985	6016
3120.783	6013
3122.582	5994
3124.381	6094
3126.179	6050
3127.975	6164
3129.772	6098
3131.569	6026
3133.365	6080
3135.161	5991
3136.956	5946
3138.751	6090
3140.544	6061
3142.338	6030
3144.132	5962
3145.925	5987
3147.717	5910
3149.509	6049
3151.301	5987
3153.091	5959
3154.884	5938
3156.673	6014
3158.462	5972
3160.252	6062
3162.041	5923
3163.831	5942
3165.618	5971
3167.405	6024
3169.193	5970
3170.979	5975
3172.767	5851
3174.553	5860
3176.338	5910
3178.123	5872
3179.907	6042
3181.692	5867
3183.477	5956
3185.259	5879
3187.042	5949
3188.824	5899
3190.607	5920
3192.389	5777
3194.17	5818
3195.951	5907
3197.73	5873
3199.51	5878
3201.289	5806
3203.07	5926
3204.848	5980
3206.626	5854
3208.403	5963
3210.18	5799
3211.959	5917
3213.735	5900
3215.511	5937
3217.285	5942
3219.06	5750
3220.836	5918
3222.611	5817
3224.384	5897
3226.158	5795
3227.929	5864
3229.702	5976
3231.476	5773
3233.248	5842
3235.018	5889
3236.789	5895
3238.56	5845
3240.33	5879
3242.1	5827
3243.869	5853
3245.637	5919
3247.405	5832
3249.172	5904
3250.941	5839
3252.707	5922
3254.474	5855
3256.24	5754
3258.006	5745
3259.772	5790
3261.537	5872
3263.301	5742
3265.065	5874
3266.828	5817
3268.592	5811
3270.355	5933
3272.117	5762
3273.878	5742
3275.64	5824
3277.401	5762
3279.162	5729
3280.922	5907
3282.682	5892
3284.441	5796
3286.199	5835
3287.959	5833
3289.716	5812
3291.475	5857
3293.232	5825
3294.988	5806
3296.744	5782
3298.501	5844
3300.256	5885
3302.011	5755
3303.766	5776
3305.52	5687
3307.275	5703
3309.028	5816
3310.781	5829
3312.533	5798
3314.285	5917
3316.038	5722
3317.789	5856
3319.54	5759
3321.289	5910
3323.039	5728
3324.789	5856
3326.539	5737
3328.288	5757
3330.035	5861
3331.783	5742
3333.531	5807
3335.28	5762
3337.025	5656
3338.771	5747
3340.518	5776
3342.262	5596
3344.009	5752
3345.753	5733
3347.497	5690
3349.24	5641
3350.983	5763
3352.726	5716
3354.469	5720
3356.212	5709
3357.952	5679
3359.694	5660
3361.434	5762
3363.176	5645
3364.916	5631
3366.654	5614
3368.394	5650
3370.132	5716
3371.871	5675
3373.61	5689
3375.346	5547
3377.083	5596
3378.82	5606
3380.556	5583
3382.292	5518
3384.027	5652
3385.763	5632
3387.497	5561
3389.231	5586
3390.965	5506
3392.698	5548
3394.431	5583
3396.164	5483
3397.896	5573
3399.627	5537
3401.36	5542
3403.09	5591
3404.82	5447
3406.55	5590
3408.279	5567
3410.01	5438
3411.738	5572
3413.467	5539
3415.194	5643
3416.92	5460
3418.647	5513
3420.375	5448
3422.102	5527
3423.827	5526
3425.553	5481
3427.277	5511
3429.003	5509
3430.727	5480
3432.451	5430
3434.173	5495
3435.896	5418
3437.62	5442
3439.343	5444
3441.063	5518
3442.785	5333
3444.505	5487
3446.226	5438
3447.948	5343
3449.666	5326
3451.386	5362
3453.104	5403
3454.823	5458
3456.541	5442
3458.259	5352
3459.976	5289
3461.693	5331
3463.408	5277
3465.125	5341
3466.841	5283
3468.556	5235
3470.271	5211
3471.985	5213
3473.698	5257
3475.414	5353
3477.126	5288
3478.838	5164
3480.55	5268
3482.263	5303
3483.975	5243
3485.686	5258
3487.396	5173
3489.106	5132
3490.817	5189
3492.526	5172
3494.236	5271
3495.944	5244
3497.652	5179
3499.359	5171
3501.066	5089
3502.775	5223
3504.481	5072
3506.187	5200
3507.893	5233
3509.598	5068
3511.304	5104
3513.009	5172
3514.713	5015
3516.417	5114
3518.12	5064
3519.821	5079
3521.525	5037
3523.228	5108
3524.929	5009
3526.631	5014
3528.33	5019
3530.032	4996
3531.733	5058
3533.433	5047
3535.131	5114
3536.83	5008
3538.529	5059
3540.227	4966
3541.925	4946
3543.623	5008
3545.319	5048
3547.016	4924
3548.712	5001
3550.408	5003
3552.103	4911
3553.798	5083
3555.491	4899
3557.188	4966
3558.88	4977
3560.574	4880
3562.266	4918
3563.959	4953
3565.651	4864
3567.343	4971
3569.035	4930
3570.725	4962
3572.415	4941
3574.106	4886
3575.797	4840
3577.485	4844
3579.174	4889
3580.863	4896
3582.551	4805
3584.238	4846
3585.926	5005
3587.613	4872
3589.3	4874
3590.986	4860
3592.671	4750
3594.357	4792
3596.042	4809
3597.726	4799
3599.41	4876
3601.094	4829
3602.778	4812
3604.461	4678
3606.143	4799
3607.825	4738
3609.507	4790
3611.188	4693
3612.87	4731
3614.551	4749
3616.229	4707
3617.909	4698
3619.589	4654
3621.269	4742
3622.948	4650
3624.625	4678
3626.302	4606
3627.98	4648
3629.657	4775
3631.334	4584
3633.01	4717
3634.686	4621
3636.361	4618
3638.036	4572
3639.712	4608
3641.385	4613
3643.06	4654
3644.732	4624
3646.405	4685
3648.08	4549
3649.751	4612
3651.424	4603
3653.094	4569
3654.766	4511
3656.436	4497
3658.106	4541
3659.777	4515
3661.446	4575
3663.115	4478
3664.783	4496
3666.452	4520
3668.121	4549
3669.788	4443
3671.454	4557
3673.121	4550
3674.789	4458
3676.455	4537
3678.12	4510
3679.784	4411
3681.45	4461
3683.114	4528
3684.779	4471
3686.442	4506
3688.105	4457
3689.768	4438
3691.43	4590
3693.093	4451
3694.754	4509
3696.415	4468
3698.076	4524
3699.736	4486
3701.396	4430
3703.057	4453
3704.716	4430
3706.375	4458
3708.034	4501
3709.692	4373
3711.351	4449
3713.008	4416
3714.665	4573
3716.321	4364
3717.977	4415
3719.634	4418
3721.29	4403
3722.945	4381
3724.598	4320
3726.253	4445
3727.907	4378
3729.561	4419
3731.214	4420
3732.867	4370
3734.518	4301
3736.171	4315
3737.824	4386
3739.474	4271
3741.125	4307
3742.775	4323
3744.425	4334
3746.074	4312
3747.725	4408
3749.373	4334
3751.022	4368
3752.669	4373
3754.318	4285
3755.966	4346
3757.612	4352
3759.259	4215
3760.905	4394
3762.55	4318
3764.197	4361
3765.842	4364
3767.486	4335
3769.131	4232
3770.774	4231
3772.417	4212
3774.061	4308
3775.705	4247
3777.347	4274
3778.988	4252
3780.629	4191
3782.271	4243
3783.912	4248
3785.552	4205
3787.192	4230
3788.831	4162
3790.472	4134
3792.112	4285
3793.75	4253
3795.388	4182
3797.024	4168
3798.661	4207
3800.3	4220
3801.936	4135
3803.572	4182
3805.208	4159
3806.844	4215
3808.48	4205
3810.115	4183
3811.748	4137
3813.382	4139
3815.016	4135
3816.649	4224
3818.283	4158
3819.914	3987
3821.547	4131
3823.178	4154
3824.809	4138
3826.441	4130
3828.072	4121
3829.701	4076
3831.331	4128
3832.96	4101
3834.591	4156
3836.219	4173
3837.847	4033
3839.475	4147
3841.102	4046
3842.729	4128
3844.357	4100
3845.984	4110
3847.609	4136
3849.234	4003
3850.86	4079
3852.485	4012
3854.11	4096
3855.734	4051
3857.357	4020
3858.981	4075
3860.603	4070
3862.227	4052
3863.848	4070
3865.471	4083
3867.092	4067
3868.713	4007
3870.334	4035
3871.954	4041
3873.575	3964
3875.194	4016
3876.813	3994
3878.433	3924
3880.051	3986
3881.669	4023
3883.286	3990
3884.904	4005
3886.52	4002
3888.138	3895
3889.754	4010
3891.37	4025
3892.985	3912
3894.6	3926
3896.216	3947
3897.831	3917
3899.444	3993
3901.058	3900
3902.67	3972
3904.283	3882
3905.897	3965
3907.509	3950
3909.121	3889
3910.731	3977
3912.342	3865
3913.954	3970
3915.563	3957
3917.174	3908
3918.783	3986
3920.391	3871
3922.002	3934
3923.611	4052
3925.218	3912
3926.826	3901
3928.432	3968
3930.039	3850
3931.647	3967
3933.253	3887
3934.859	3929
3936.464	3839
3938.068	3850
3939.675	3943
3941.278	3875
3942.883	3951
3944.486	3909
3946.089	3912
3947.692	3809
3949.295	3824
3950.898	3911
3952.499	3852
3954.1	3839
3955.7	3788
3957.303	3839
3958.903	3780
3960.502	3858
3962.101	3784
3963.7	3761
3965.301	3812
3966.899	3835
3968.497	3867
3970.094	3812
3971.691	3835
3973.288	3839
3974.885	3836
3976.481	3836
3978.077	3737
3979.672	3799
3981.267	3787
3982.863	3825
3984.457	3774
3986.051	3734
3987.645	3811
3989.238	3785
3990.831	3815
3992.425	3732
3994.017	3791
3995.607	3706
3997.199	3709
3998.79	3692
4000.382	3775
4001.973	3721
4003.561	3751
4005.151	3703
4006.741	3711
4008.331	3710
4009.918	3615
4011.507	3629
4013.095	3665
4014.681	3677
4016.269	3588
4017.856	3591
4019.443	3667
4021.028	3779
4022.614	3681
4024.199	3684
4025.785	3651
4027.37	3600
4028.953	3587
4030.536	3611
4032.12	3593
4033.704	3616
4035.287	3590
4036.869	3639
4038.45	3606
4040.032	3546
4041.613	3565
4043.195	3660
4044.776	3556
4046.356	3569
4047.935	3543
4049.515	3602
4051.095	3586
4052.674	3628
4054.251	3538
4055.829	3580
4057.406	3530
4058.985	3582
4060.562	3565
4062.139	3532
4063.715	3617
4065.29	3594
4066.865	3525
4068.442	3545
4070.016	3592
4071.59	3581
4073.164	3551
4074.738	3593
4076.312	3522
4077.885	3434
4079.458	3510
4081.03	3570
4082.602	3494
4084.173	3529
4085.745	3569
4087.315	3600
4088.886	3419
4090.456	3439
4092.026	3445
4093.596	3452
4095.165	3440
4096.734	3489
4098.301	3491
4099.869	3552
4101.437	3358
4103.006	3488
4104.572	3417
4106.139	3447
4107.704	3421
4109.27	3407
4110.837	3427
4112.401	3406
4113.966	3462
4115.53	3439
4117.094	3466
4118.659	3419
4120.223	3413
4121.785	3392
4123.347	3473
4124.909	3323
4126.471	3361
4128.034	3432
4129.595	3371
4131.155	3334
4132.716	3349
4134.275	3339
4135.836	3478
4137.395	3363
4138.955	3423
4140.513	3323
4142.071	3361
4143.628	3430
4145.188	3322
4146.745	3350
4148.302	3414
4149.858	3365
4151.414	3361
4152.971	3242
4154.526	3295
4156.081	3282
4157.635	3290
4159.189	3325
4160.745	3269
4162.298	3323
4163.852	3300
4165.405	3307
4166.957	3218
4168.51	3227
4170.063	3263
4171.614	3297
4173.166	3297
4174.717	3308
4176.267	3312
4177.817	3239
4179.368	3246
4180.917	3341
4182.466	3249
4184.016	3289
4185.564	3286
4187.112	3202
4188.66	3270
4190.207	3214
4191.754	3268
4193.301	3132
4194.848	3276
4196.394	3185
4197.94	3285
4199.484	3209
4201.03	3169
4202.575	3225
4204.12	3240
4205.663	3227
4207.207	3170
4208.75	3180
4210.292	3196
4211.836	3188
4213.378	3157
4214.92	3162
4216.46	3171
4218.002	3215
4219.544	3109
4221.083	3172
4222.625	3148
4224.164	3206
4225.703	3176
4227.244	3171
4228.782	3106
4230.32	3181
4231.857	3176
4233.395	3191
4234.933	3189
4236.471	3100
4238.007	3156
4239.542	3169
4241.078	3185
4242.614	3104
4244.15	3087
4245.685	3106
4247.219	3058
4248.753	3126
4250.287	3163
4251.82	3061
4253.354	3108
4254.887	3077
4256.419	3160
4257.951	3040
4259.483	3144
4261.016	3105
4262.547	3155
4264.078	3134
4265.608	3178
4267.137	3091
4268.668	3130
4270.197	3041
4271.727	3077
4273.254	3077
4274.783	3064
4276.311	3099
4277.84	3073
4279.366	3110
4280.894	3017
4282.42	3112
4283.946	3071
4285.473	3038
4286.998	3100
4288.523	3049
4290.047	3035
4291.572	3033
4293.096	3066
4294.622	2992
4296.144	3135
4297.668	2956
4299.19	3019
4300.713	3017
4302.236	3074
4303.758	3012
4305.279	3032
4306.799	3040
4308.321	3071
4309.842	3038
4311.361	2980
4312.882	3000
4314.401	2980
