400.0961	4171
402.6185	4274
405.1424	4288
407.6635	4202
410.1838	4345
412.7035	4257
415.2225	4221
417.7388	4287
420.2585	4360
422.7754	4433
425.2917	4407
427.8072	4385
430.3221	4448
432.8363	4461
435.3498	4497
437.8626	4445
440.3727	4477
442.8841	4477
445.3969	4513
447.907	4484
450.4142	4484
452.9229	4528
455.4289	4500
457.9362	4415
460.4449	4514
462.9488	4490
465.454	4501
467.9566	4533
470.4604	4478
472.9637	4489
475.4662	4555
477.966	4562
480.4671	4571
482.9656	4607
485.4633	4627
487.9645	4656
490.4608	4602
492.9566	4619
495.4536	4619
497.948	4564
500.4437	4652
502.9387	4598
505.431	4631
507.9226	4607
510.4136	4633
512.9079	4615
515.3975	4662
517.8864	4596
520.3746	4672
522.8622	4726
525.3491	4650
527.8394	4789
530.3249	4621
532.8098	4630
535.2939	4722
537.7774	4661
540.2623	4722
542.7444	4793
545.2259	4631
547.7067	4737
550.1868	4773
552.6683	4833
555.147	4712
557.6231	4744
560.1005	4748
562.5773	4801
565.0534	4856
567.5308	4812
570.0056	4816
572.4776	4795
574.951	4811
577.4237	4867
579.8978	4964
582.3671	4893
584.8378	4871
587.3079	4877
589.7773	4935
592.244	4937
594.714	4859
597.1793	4931
599.6461	4969
602.1121	4967
604.5754	4875
607.0421	4943
609.5042	4916
611.9675	4912
614.4282	5003
616.8902	4916
619.3515	5017
621.8122	4924
624.2702	4927
626.7296	4937
629.1863	4839
631.6423	4916
634.1017	4865
636.5563	4906
639.0104	4847
641.4658	4967
643.9185	4868
646.3725	4930
648.8239	4870
651.2766	4975
653.7266	4917
656.176	4951
658.6247	4984
661.0748	4922
663.5242	4966
665.9709	5009
668.417	5074
670.8624	5030
673.3092	4990
675.7533	5007
678.1968	5061
680.6395	5073
683.0817	5088
685.5251	5117
687.9659	5015
690.4061	5091
692.8456	4990
695.2844	5085
697.7226	5036
700.1621	5179
702.599	5103
705.0332	5141
707.4688	5182
709.9036	5154
712.3399	5190
714.7735	5192
717.2044	5231
719.6367	5114
722.0683	5125
724.4993	5225
726.9296	5355
729.3593	5246
731.7883	5240
734.2147	5367
736.6423	5242
739.0714	5366
741.4958	5347
743.9216	5352
746.3447	5277
748.7691	5282
751.1929	5371
753.616	5373
756.0366	5340
758.4584	5422
760.8776	5358
763.2982	5454
765.718	5495
768.1373	5473
770.5539	5438
772.9698	5530
775.3871	5376
777.8038	5451
780.2178	5490
782.6332	5481
785.0459	5454
787.458	5494
789.8714	5489
792.2842	5517
794.6943	5528
797.1038	5455
799.5127	5357
801.9209	5375
804.3324	5493
806.7393	5478
809.1456	5458
811.5513	5517
813.9562	5474
816.3625	5573
818.7663	5508
821.1693	5593
823.5718	5480
825.9735	5522
828.3746	5395
830.7771	5475
833.177	5531
835.5762	5473
837.9747	5585
840.3727	5564
842.772	5614
845.1666	5710
847.5626	5601
849.958	5604
852.3527	5621
854.7488	5514
857.1403	5639
859.5331	5645
861.9253	5727
864.3168	5661
866.7057	5627
869.098	5579
871.4876	5631
873.8746	5615
876.263	5685
878.6487	5649
881.0378	5698
883.4243	5694
885.8081	5602
888.1933	5619
890.5759	5591
892.9598	5607
895.343	5650
897.7256	5615
900.1057	5567
902.4871	5694
904.8659	5611
907.246	5715
909.6254	5679
912.0023	5647
914.3786	5755
916.7562	5880
919.1331	5768
921.5074	5845
923.8831	5801
926.2562	5910
928.6287	5875
931.0005	5854
933.3757	5892
935.7462	5868
938.1162	5780
940.4855	5925
942.8542	6039
945.2242	6083
947.5916	6068
949.9584	6243
952.3266	6318
954.6921	6371
957.0571	6566
959.4233	6805
961.787	6951
964.15	6894
966.5125	6852
968.8742	6652
971.2354	6476
973.5959	6348
975.9559	6078
978.3151	6088
980.6738	5966
983.0338	5933
985.3912	5891
987.7461	5768
990.1022	5811
992.4578	5824
994.8127	5852
997.1689	5862
999.5207	5877
1001.874	5817
1004.226	5853
1006.576	5896
1008.929	5846
1011.28	5882
1013.628	5872
1015.977	5926
1018.324	5911
1020.674	5845
1023.019	5977
1025.366	5957
1027.713	5856
1030.056	5967
1032.399	5937
1034.746	5910
1037.087	5934
1039.431	5926
1041.771	5988
1044.113	5958
1046.454	6110
1048.793	6042
1051.133	6051
1053.471	5987
1055.807	5982
1058.146	5959
1060.483	6041
1062.818	6060
1065.153	6125
1067.489	6014
1069.822	6083
1072.156	6094
1074.488	6037
1076.82	6089
1079.15	5999
1081.48	6125
1083.814	5992
1086.143	6042
1088.471	5969
1090.799	5911
1093.126	6126
1095.452	6039
1097.78	6029
1100.105	6034
1102.43	6022
1104.754	5977
1107.077	6128
1109.4	5890
1111.722	6095
1114.044	5895
1116.365	6025
1118.685	6093
1121.005	6018
1123.324	6083
1125.643	6037
1127.961	6092
1130.278	5901
1132.595	6080
1134.911	6034
1137.226	6051
1139.541	6044
1141.854	6050
1144.167	6048
1146.482	6031
1148.793	6039
1151.105	5936
1153.414	6083
1155.725	6042
1158.033	5982
1160.344	5954
1162.651	6164
1164.959	6009
1167.265	6107
1169.572	6109
1171.878	6111
1174.184	6027
1176.488	6100
1178.79	6218
1181.094	5966
1183.396	6125
1185.699	5994
1188.001	6061
1190.301	6127
1192.6	6030
1194.9	6094
1197.2	5969
1199.497	6064
1201.794	6027
1204.09	6001
1206.387	6179
1208.684	6022
1210.978	6014
1213.272	6173
1215.565	6041
1217.858	6049
1220.15	6161
1222.443	6043
1224.734	6135
1227.024	6072
1229.313	5981
1231.602	6221
1233.892	6289
1236.18	6176
1238.467	6205
1240.754	6185
1243.04	6246
1245.325	6295
1247.612	6235
1249.896	6328
1252.178	6331
1254.461	6310
1256.743	6383
1259.027	6332
1261.308	6278
1263.587	6275
1265.867	6213
1268.146	6275
1270.425	6381
1272.703	6367
1274.981	6344
1277.256	6341
1279.532	6259
1281.808	6248
1284.083	6259
1286.358	6392
1288.63	6111
1290.904	6247
1293.175	6233
1295.449	6263
1297.719	6245
1299.99	6216
1302.259	6207
1304.529	6132
1306.798	6309
1309.065	6205
1311.333	6146
1313.599	6212
1315.866	6272
1318.131	6223
1320.396	6355
1322.66	6137
1324.925	6276
1327.187	6240
1329.448	6223
1331.711	6195
1333.974	6261
1336.234	6190
1338.493	6260
1340.752	6210
1343.01	6212
1345.269	6249
1347.526	6344
1349.784	6235
1352.04	6217
1354.295	6247
1356.552	6163
1358.806	6100
1361.059	6218
1363.312	6315
1365.564	6224
1367.818	6278
1370.069	6368
1372.318	6198
1374.568	6284
1376.817	6297
1379.066	6255
1381.316	6289
1383.564	6282
1385.809	6268
1388.056	6319
1390.301	6289
1392.549	6376
1394.793	6386
1397.036	6407
1399.279	6366
1401.522	6367
1403.763	6390
1406.007	6374
1408.248	6361
1410.487	6322
1412.727	6513
1414.965	6378
1417.205	6385
1419.442	6351
1421.68	6401
1423.915	6340
1426.152	6482
1428.388	6430
1430.623	6421
1432.857	6383
1435.091	6304
1437.323	6667
1439.556	6430
1441.789	6589
1444.019	6351
1446.25	6464
1448.48	6446
1450.708	6461
1452.938	6456
1455.167	6453
1457.394	6457
1459.62	6512
1461.846	6521
1464.073	6483
1466.299	6418
1468.523	6478
1470.746	6355
1472.969	6485
1475.191	6350
1477.415	6464
1479.636	6405
1481.858	6442
1484.078	6348
1486.298	6349
1488.518	6391
1490.736	6280
1492.954	6294
1495.169	6279
1497.386	6307
1499.602	6355
1501.819	6177
1504.034	6264
1506.248	6312
1508.462	6321
1510.675	6295
1512.888	6299
1515.1	6256
1517.311	6235
1519.522	6163
1521.732	6324
1523.942	6271
1526.151	6235
1528.36	6232
1530.566	6198
1532.773	6223
1534.98	6311
1537.187	6214
1539.392	6221
1541.596	6298
1543.801	6296
1546.005	6263
1548.208	6352
1550.411	6334
1552.612	6362
1554.814	6412
1557.013	6263
1559.212	6408
1561.414	6393
1563.612	6321
1565.811	6373
1568.007	6338
1570.203	6395
1572.403	6397
1574.598	6487
1576.792	6416
1578.988	6431
1581.181	6403
1583.376	6478
1585.568	6364
1587.761	6407
1589.952	6546
1592.143	6442
1594.333	6424
1596.524	6526
1598.715	6555
1600.903	6553
1603.091	6469
1605.278	6538
1607.466	6467
1609.652	6459
1611.838	6490
1614.023	6528
1616.207	6548
1618.391	6451
1620.576	6545
1622.759	6473
1624.941	6508
1627.123	6428
1629.304	6431
1631.484	6353
1633.664	6616
1635.844	6563
1638.022	6430
1640.201	6603
1642.38	6468
1644.556	6549
1646.732	6560
1648.908	6458
1651.084	6497
1653.257	6676
1655.433	6637
1657.607	6527
1659.779	6685
1661.951	6581
1664.122	6578
1666.295	6531
1668.467	6601
1670.635	6486
1672.805	6494
1674.973	6549
1677.142	6548
1679.31	6595
1681.478	6478
1683.644	6590
1685.81	6492
1687.975	6599
1690.142	6472
1692.305	6563
1694.468	6474
1696.632	6512
1698.794	6597
1700.957	6604
1703.119	6512
1705.279	6454
1707.439	6514
1709.598	6472
1711.758	6480
1713.917	6513
1716.075	6393
1718.231	6490
1720.388	6485
1722.543	6470
1724.702	6483
1726.856	6338
1729.01	6493
1731.164	6325
1733.317	6398
1735.471	6522
1737.623	6498
1739.774	6479
1741.925	6502
1744.075	6444
1746.225	6430
1748.376	6449
1750.524	6468
1752.672	6437
1754.82	6622
1756.965	6565
1759.113	6477
1761.259	6548
1763.405	6564
1765.549	6582
1767.694	6529
1769.836	6554
1771.981	6498
1774.123	6504
1776.264	6544
1778.405	6533
1780.546	6496
1782.687	6649
1784.827	6490
1786.966	6571
1789.103	6497
1791.242	6491
1793.381	6530
1795.517	6550
1797.653	6623
1799.788	6446
1801.923	6505
1804.057	6696
1806.193	6569
1808.326	6455
1810.457	6575
1812.59	6534
1814.721	6538
1816.855	6500
1818.984	6594
1821.113	6516
1823.244	6593
1825.372	6486
1827.499	6494
1829.63	6403
1831.756	6523
1833.882	6618
1836.007	6475
1838.132	6553
1840.26	6486
1842.384	6467
1844.507	6427
1846.63	6343
1848.752	6536
1850.875	6552
1852.996	6511
1855.118	6429
1857.238	6462
1859.358	6501
1861.477	6461
1863.597	6471
1865.715	6510
1867.832	6446
1869.948	6456
1872.064	6497
1874.181	6463
1876.297	6365
1878.411	6436
1880.526	6385
1882.639	6486
1884.752	6370
1886.865	6519
1888.977	6484
1891.089	6708
1893.2	6482
1895.308	6487
1897.42	6430
1899.53	6523
1901.639	6505
1903.745	6439
1905.853	6524
1907.962	6485
1910.067	6521
1912.174	6561
1914.278	6582
1916.383	6606
1918.486	6546
1920.592	6470
1922.694	6463
1924.797	6629
1926.898	6464
1929	6499
1931.102	6641
1933.203	6451
1935.301	6566
1937.401	6567
1939.499	6496
1941.598	6609
1943.697	6492
1945.793	6491
1947.888	6665
1949.985	6646
1952.08	6558
1954.176	6581
1956.269	6470
1958.364	6516
1960.457	6575
1962.549	6621
1964.642	6470
1966.733	6563
1968.823	6680
1970.913	6670
1973.005	6571
1975.093	6557
1977.184	6520
1979.271	6536
1981.359	6464
1983.446	6531
1985.532	6518
1987.619	6492
1989.705	6498
1991.789	6532
1993.874	6423
1995.956	6443
1998.041	6525
2000.123	6518
2002.206	6626
2004.287	6470
2006.368	6414
2008.449	6505
2010.529	6433
2012.609	6397
2014.688	6583
2016.766	6431
2018.843	6577
2020.922	6420
2022.999	6530
2025.074	6434
2027.15	6458
2029.225	6375
2031.299	6446
2033.375	6522
2035.447	6386
2037.52	6529
2039.592	6586
2041.664	6447
2043.736	6414
2045.807	6430
2047.876	6488
2049.947	6450
2052.015	6447
2054.086	6385
2056.153	6509
2058.221	6418
2060.288	6412
2062.353	6385
2064.42	6392
2066.486	6439
2068.55	6522
2070.614	6547
2072.678	6452
2074.741	6452
2076.805	6380
2078.866	6496
2080.929	6508
2082.99	6438
2085.049	6441
2087.109	6506
2089.17	6486
2091.228	6417
2093.286	6451
2095.344	6563
2097.4	6487
2099.46	6467
2101.516	6534
2103.572	6516
2105.626	6458
2107.679	6556
2109.735	6542
2111.788	6467
2113.841	6425
2115.894	6522
2117.945	6451
2119.997	6422
2122.049	6435
2124.1	6377
2126.148	6404
2128.197	6439
2130.246	6400
2132.296	6367
2134.342	6462
2136.39	6481
2138.437	6401
2140.483	6321
2142.527	6496
2144.574	6345
2146.619	6453
2148.661	6318
2150.705	6431
2152.747	6480
2154.792	6472
2156.832	6401
2158.874	6426
2160.915	6375
2162.954	6348
2164.995	6490
2167.034	6409
2169.072	6365
2171.111	6421
2173.148	6415
2175.186	6382
2177.223	6248
2179.258	6385
2181.294	6354
2183.328	6463
2185.362	6309
2187.398	6243
2189.431	6314
2191.463	6371
2193.495	6396
2195.528	6287
2197.56	6276
2199.59	6344
2201.62	6366
2203.649	6176
2205.678	6252
2207.708	6357
2209.737	6264
2211.764	6334
2213.791	6316
2215.817	6340
2217.843	6371
2219.87	6386
2221.895	6271
2223.919	6349
2225.942	6312
2227.966	6345
2229.988	6335
2232.012	6241
2234.032	6333
2236.054	6240
2238.074	6248
2240.095	6293
2242.116	6333
2244.135	6185
2246.153	6162
2248.171	6277
2250.188	6378
2252.208	6284
2254.223	6204
2256.239	6341
2258.255	6347
2260.269	6163
2262.283	6229
2264.3	6209
2266.312	6178
2268.325	6179
2270.336	6171
2272.349	6358
2274.362	6185
2276.372	6321
2278.383	6223
2280.392	6214
2282.402	6301
2284.409	6265
2286.418	6351
2288.427	6269
2290.433	6184
2292.441	6143
2294.446	6286
2296.453	6215
2298.459	6324
2300.463	6170
2302.466	6247
2304.471	6333
2306.475	6178
2308.477	6174
2310.478	6187
2312.481	6215
2314.481	6126
2316.481	6161
2318.482	6214
2320.482	6119
2322.48	6274
2324.48	6170
2326.478	6216
2328.476	6165
2330.473	6189
2332.469	6078
2334.465	6173
2336.46	6111
2338.454	6156
2340.45	6175
2342.444	6275
2344.437	6180
2346.43	6107
2348.421	6150
2350.414	5998
2352.405	6210
2354.396	6227
2356.386	6147
2358.376	6086
2360.366	6120
2362.355	6090
2364.343	6090
2366.331	6162
2368.317	6033
2370.304	6031
2372.292	6168
2374.278	6083
2376.262	6065
2378.247	6062
2380.23	5925
2382.216	6014
2384.199	5989
2386.181	5999
2388.163	5936
2390.144	6107
2392.127	6114
2394.107	6008
2396.087	5924
2398.066	6014
2400.046	6152
2402.023	5947
2404.004	5971
2405.981	6087
2407.957	5963
2409.934	5974
2411.91	6018
2413.886	5902
2415.862	6086
2417.836	5989
2419.809	5999
2421.784	5969
2423.756	5951
2425.73	6041
2427.701	5893
2429.672	6007
2431.644	6018
2433.615	5983
2435.586	5969
2437.555	6029
2439.523	6037
2441.491	6041
2443.459	6047
2445.428	6068
2447.395	5907
2449.361	5935
2451.327	5901
2453.292	5885
2455.257	5977
2457.223	6027
2459.187	6014
2461.15	5936
2463.113	5922
2465.076	5941
2467.039	5881
2468.999	5979
2470.96	5898
2472.921	5904
2474.881	5904
2476.841	5862
2478.8	5867
2480.759	5877
2482.717	5913
2484.675	6012
2486.63	5854
2488.589	5886
2490.545	5897
2492.5	5905
2494.455	5990
2496.408	5894
2498.364	5925
2500.318	5890
2502.27	5875
2504.223	5897
2506.174	5906
2508.126	5943
2510.078	5857
2512.03	5841
2513.979	5959
2515.927	5763
2517.877	5909
2519.826	5780
2521.775	5932
2523.722	5849
2525.668	5760
2527.616	5838
2529.561	5940
2531.508	5827
2533.452	5954
2535.398	5954
2537.342	5798
2539.284	5793
2541.229	5866
2543.173	5905
2545.114	5774
2547.055	5814
2548.996	5985
2550.938	5802
2552.878	5860
2554.817	5830
2556.756	5802
2558.695	5812
2560.633	5842
2562.572	5816
2564.509	5828
2566.445	5837
2568.382	5893
2570.317	5735
2572.254	5871
2574.189	5864
2576.123	5768
2578.057	5804
2579.99	5776
2581.923	5842
2583.855	5827
2585.788	5815
2587.719	5700
2589.65	5766
2591.579	5732
2593.511	5626
2595.44	5802
2597.37	5708
2599.297	5699
2601.225	5815
2603.153	5865
2605.08	5832
2607.007	5848
2608.932	5818
2610.858	5826
2612.782	5821
2614.709	5831
2616.632	5784
2618.556	5853
2620.478	5896
2622.401	5763
2624.324	5775
2626.247	5771
2628.167	5785
2630.088	5899
2632.008	5786
2633.928	5880
2635.848	5812
2637.766	5732
2639.684	5754
2641.603	5816
2643.519	5855
2645.437	5820
2647.353	5844
2649.27	5846
2651.184	5817
2653.099	5794
2655.014	5793
2656.928	5780
2658.842	5832
2660.755	5849
2662.667	5835
2664.579	5825
2666.491	5869
2668.402	5840
2670.312	5740
2672.222	5757
2674.132	5824
2676.042	5704
2677.951	5782
2679.859	5788
2681.766	5792
2683.674	5777
2685.582	5608
2687.488	5742
2689.392	5729
2691.298	5747
2693.202	5753
2695.107	5690
2697.012	5746
2698.914	5637
2700.817	5733
2702.72	5818
2704.622	5689
2706.524	5765
2708.425	5652
2710.326	5663
2712.225	5722
2714.125	5648
2716.024	5790
2717.923	5703
2719.822	5586
2721.719	5741
2723.616	5715
2725.512	5583
2727.41	5521
2729.305	5682
2731.201	5643
2733.095	5590
2734.99	5598
2736.884	5617
2738.778	5581
2740.67	5587
2742.562	5787
2744.455	5568
2746.346	5680
2748.238	5608
2750.129	5652
2752.018	5676
2753.907	5597
2755.797	5637
2757.687	5573
2759.575	5671
2761.462	5552
2763.349	5646
2765.237	5523
2767.124	5507
2769.009	5513
2770.894	5652
2772.779	5585
2774.663	5528
2776.547	5656
2778.431	5480
2780.314	5499
2782.197	5559
2784.078	5656
2785.96	5541
2787.842	5552
2789.723	5562
2791.603	5579
2793.483	5605
2795.362	5548
2797.241	5500
2799.121	5520
2800.997	5597
2802.874	5577
2804.751	5424
2806.628	5549
2808.506	5564
2810.38	5515
2812.255	5653
2814.13	5485
2816.003	5516
2817.878	5509
2819.752	5563
2821.623	5584
2823.496	5501
2825.368	5497
2827.238	5436
2829.111	5507
2830.98	5519
2832.851	5404
2834.719	5507
2836.589	5542
2838.458	5501
2840.327	5508
2842.193	5491
2844.061	5540
2845.927	5391
2847.794	5528
2849.66	5561
2851.525	5536
2853.39	5526
2855.254	5551
2857.117	5585
2858.983	5621
2860.845	5654
2862.707	5555
2864.569	5660
2866.431	5542
2868.293	5692
2870.154	5579
2872.013	5720
2873.873	5693
2875.733	5587
2877.592	5612
2879.451	5753
2881.309	5784
2883.166	5851
2885.022	5799
2886.879	5775
2888.736	5839
2890.591	5808
2892.446	5834
2894.301	5852
2896.155	5837
2898.009	5846
2899.863	5886
2901.716	5821
2903.568	5855
2905.419	5847
2907.27	5871
2909.123	5801
2910.973	5748
2912.824	5994
2914.673	5854
2916.521	5935
2918.372	5804
2920.22	5944
2922.067	5839
2923.914	5967
2925.761	5955
2927.607	5962
2929.455	5953
2931.301	6071
2933.144	6017
2934.99	6051
2936.833	6074
2938.678	6231
2940.522	6097
2942.364	6279
2944.207	6281
2946.048	6289
2947.891	6440
2949.731	6245
2951.571	6418
2953.412	6337
2955.25	6176
2957.09	6305
2958.93	6251
2960.767	6199
2962.606	6082
2964.443	6134
2966.279	6087
2968.116	5941
2969.953	5937
2971.788	5947
2973.623	5850
2975.457	5747
2977.292	5818
2979.127	5841
2980.959	5788
2982.792	5771
2984.624	5618
2986.455	5854
2988.288	5729
2990.119	5701
2991.949	5624
2993.779	5634
2995.608	5684
2997.439	5624
2999.268	5655
3001.096	5595
3002.923	5505
3004.751	5406
3006.578	5467
3008.406	5480
3010.232	5462
3012.057	5435
3013.883	5303
3015.706	5314
3017.532	5383
3019.356	5331
3021.179	5233
3023.002	5345
3024.823	5257
3026.646	5221
3028.469	5206
3030.289	5246
3032.11	5219
3033.93	5283
3035.749	5220
3037.57	5212
3039.39	5118
3041.207	5181
3043.026	5192
3044.842	5183
3046.661	5161
3048.477	5137
3050.294	5165
3052.109	5101
3053.925	5169
3055.739	5140
3057.555	5022
3059.368	5139
3061.181	5080
3062.995	5134
3064.807	5209
3066.62	5020
3068.433	5205
3070.243	5223
3072.054	5114
3073.865	5125
3075.675	5134
3077.485	5084
3079.293	5105
3081.102	5133
3082.911	5102
3084.719	5010
3086.527	5078
3088.333	5091
3090.139	5108
3091.945	4921
3093.75	5011
3095.557	4946
3097.361	5047
3099.165	4913
3100.969	4998
3102.772	4909
3104.575	4876
3106.379	4906
3108.181	4997
3109.982	5010
3111.783	4998
3113.584	5049
3115.386	4881
3117.186	4903
3118.985	4921
3120.783	4903
3122.582	4945
3124.381	4915
3126.179	4884
3127.975	4929
3129.772	4909
3131.569	4932
3133.365	4943
3135.161	4910
3136.956	4923
3138.751	4901
3140.544	4860
3142.338	4825
3144.132	4868
3145.925	4854
3147.717	4848
3149.509	4924
3151.301	4932
3153.091	4904
3154.884	4756
3156.673	4847
3158.462	4817
3160.252	4903
3162.041	4868
3163.831	4892
3165.618	4677
3167.405	4828
3169.193	4844
3170.979	4736
3172.767	4895
3174.553	4827
3176.338	4827
3178.123	4880
3179.907	4716
3181.692	4842
3183.477	4785
3185.259	4805
3187.042	4794
3188.824	4673
3190.607	4715
3192.389	4750
3194.17	4787
3195.951	4816
3197.73	4743
3199.51	4827
3201.289	4724
3203.07	4756
3204.848	4804
3206.626	4765
3208.403	4747
3210.18	4780
3211.959	4702
3213.735	4738
3215.511	4778
3217.285	4679
3219.06	4757
3220.836	4724
3222.611	4767
3224.384	4797
3226.158	4673
3227.929	4761
3229.702	4756
3231.476	4729
3233.248	4677
3235.018	4775
3236.789	4730
3238.56	4681
3240.33	4675
3242.1	4660
3243.869	4717
3245.637	4729
3247.405	4701
3249.172	4737
3250.941	4706
3252.707	4644
3254.474	4664
3256.24	4678
3258.006	4697
3259.772	4719
3261.537	4724
3263.301	4712
3265.065	4790
3266.828	4789
3268.592	4653
3270.355	4723
3272.117	4611
3273.878	4727
3275.64	4674
3277.401	4647
3279.162	4596
3280.922	4749
3282.682	4687
3284.441	4649
3286.199	4634
3287.959	4736
3289.716	4591
3291.475	4684
3293.232	4681
3294.988	4738
3296.744	4578
3298.501	4651
3300.256	4625
3302.011	4634
3303.766	4575
3305.52	4711
3307.275	4706
3309.028	4663
3310.781	4651
3312.533	4691
3314.285	4779
3316.038	4619
3317.789	4748
3319.54	4727
3321.289	4694
3323.039	4529
3324.789	4689
3326.539	4705
3328.288	4501
3330.035	4554
3331.783	4576
3333.531	4557
3335.28	4601
3337.025	4588
3338.771	4620
3340.518	4575
3342.262	4647
3344.009	4660
3345.753	4609
3347.497	4695
3349.24	4557
3350.983	4578
3352.726	4518
3354.469	4457
3356.212	4509
3357.952	4536
3359.694	4476
3361.434	4464
3363.176	4601
3364.916	4507
3366.654	4575
3368.394	4530
3370.132	4514
3371.871	4526
3373.61	4526
3375.346	4465
3377.083	4572
3378.82	4469
3380.556	4393
3382.292	4471
3384.027	4444
3385.763	4577
3387.497	4462
3389.231	4563
3390.965	4369
3392.698	4468
3394.431	4413
3396.164	4450
3397.896	4462
3399.627	4437
3401.36	4444
3403.09	4504
3404.82	4458
3406.55	4414
3408.279	4436
3410.01	4451
3411.738	4466
3413.467	4377
3415.194	4498
3416.92	4384
3418.647	4442
3420.375	4419
3422.102	4365
3423.827	4420
3425.553	4376
3427.277	4313
3429.003	4448
3430.727	4388
3432.451	4341
3434.173	4431
3435.896	4424
3437.62	4413
3439.343	4419
3441.063	4287
3442.785	4418
3444.505	4434
3446.226	4335
3447.948	4324
3449.666	4374
3451.386	4332
3453.104	4316
3454.823	4271
3456.541	4248
3458.259	4285
3459.976	4232
3461.693	4297
3463.408	4434
3465.125	4313
3466.841	4237
3468.556	4237
3470.271	4312
3471.985	4228
3473.698	4275
3475.414	4282
3477.126	4274
3478.838	4267
3480.55	4095
3482.263	4271
3483.975	4190
3485.686	4203
3487.396	4116
3489.106	4217
3490.817	4151
3492.526	4174
3494.236	4132
3495.944	4166
3497.652	4170
3499.359	4138
3501.066	4104
3502.775	4187
3504.481	4075
3506.187	4077
3507.893	4220
3509.598	4134
3511.304	4169
3513.009	4158
3514.713	4132
3516.417	4153
3518.12	4077
3519.821	4115
3521.525	4107
3523.228	4092
3524.929	4101
3526.631	4042
3528.33	4073
3530.032	4098
3531.733	4008
3533.433	4085
3535.131	4013
3536.83	4031
3538.529	4068
3540.227	3959
3541.925	3938
3543.623	3995
3545.319	4006
3547.016	4027
3548.712	3981
3550.408	4028
3552.103	3963
3553.798	4085
3555.491	4043
3557.188	4084
3558.88	4031
3560.574	3966
3562.266	4083
3563.959	3984
3565.651	4013
3567.343	3940
3569.035	3971
3570.725	4052
3572.415	4021
3574.106	3983
3575.797	3942
3577.485	3911
3579.174	3949
3580.863	3952
3582.551	3958
3584.238	4025
3585.926	3880
3587.613	3921
3589.3	3922
3590.986	3921
3592.671	3896
3594.357	3950
3596.042	4034
3597.726	3832
3599.41	3920
3601.094	3932
3602.778	3890
3604.461	3832
3606.143	3939
3607.825	3924
3609.507	3870
3611.188	3923
3612.87	3860
3614.551	3878
3616.229	3856
3617.909	3848
3619.589	3757
3621.269	3846
3622.948	3771
3624.625	3803
3626.302	3880
3627.98	3801
3629.657	3943
3631.334	3821
3633.01	3824
3634.686	3769
3636.361	3777
3638.036	3798
3639.712	3742
3641.385	3837
3643.06	3743
3644.732	3800
3646.405	3698
3648.08	3755
3649.751	3705
3651.424	3782
3653.094	3773
3654.766	3704
3656.436	3728
3658.106	3745
3659.777	3691
3661.446	3746
3663.115	3791
3664.783	3600
3666.452	3665
3668.121	3739
3669.788	3632
3671.454	3754
3673.121	3649
3674.789	3661
3676.455	3665
3678.12	3635
3679.784	3713
3681.45	3673
3683.114	3715
3684.779	3689
3686.442	3742
3688.105	3645
3689.768	3606
3691.43	3722
3693.093	3660
3694.754	3675
3696.415	3629
3698.076	3651
3699.736	3614
3701.396	3690
3703.057	3670
3704.716	3570
3706.375	3716
3708.034	3622
3709.692	3502
3711.351	3639
3713.008	3592
3714.665	3630
3716.321	3594
3717.977	3617
3719.634	3620
3721.29	3589
3722.945	3610
3724.598	3604
3726.253	3642
3727.907	3543
3729.561	3618
3731.214	3546
3732.867	3617
3734.518	3636
3736.171	3542
3737.824	3576
3739.474	3644
3741.125	3656
3742.775	3641
3744.425	3537
3746.074	3574
3747.725	3522
3749.373	3511
3751.022	3491
3752.669	3474
3754.318	3550
3755.966	3481
3757.612	3587
3759.259	3500
3760.905	3527
3762.55	3497
3764.197	3567
3765.842	3556
3767.486	3509
3769.131	3511
3770.774	3434
3772.417	3400
3774.061	3525
3775.705	3544
3777.347	3504
3778.988	3454
3780.629	3468
3782.271	3427
3783.912	3457
3785.552	3425
3787.192	3418
3788.831	3427
3790.472	3512
3792.112	3479
3793.75	3464
3795.388	3571
3797.024	3443
3798.661	3339
3800.3	3433
3801.936	3441
3803.572	3397
3805.208	3439
3806.844	3439
3808.48	3395
3810.115	3379
3811.748	3374
3813.382	3352
3815.016	3427
3816.649	3431
3818.283	3332
3819.914	3320
3821.547	3296
3823.178	3425
3824.809	3361
3826.441	3470
3828.072	3378
3829.701	3378
3831.331	3346
3832.96	3375
3834.591	3295
3836.219	3290
3837.847	3372
3839.475	3315
3841.102	3327
3842.729	3294
3844.357	3411
3845.984	3318
3847.609	3297
3849.234	3301
3850.86	3289
3852.485	3361
3854.11	3332
3855.734	3318
3857.357	3314
3858.981	3347
3860.603	3277
3862.227	3254
3863.848	3281
3865.471	3214
3867.092	3302
3868.713	3250
3870.334	3316
3871.954	3273
3873.575	3360
3875.194	3246
3876.813	3354
3878.433	3263
3880.051	3216
3881.669	3279
3883.286	3240
3884.904	3259
3886.52	3197
3888.138	3299
3889.754	3294
3891.37	3286
3892.985	3281
3894.6	3228
3896.216	3247
3897.831	3211
3899.444	3310
3901.058	3225
3902.67	3254
3904.283	3204
3905.897	3224
3907.509	3203
3909.121	3258
3910.731	3162
3912.342	3194
3913.954	3202
3915.563	3250
3917.174	3186
3918.783	3205
3920.391	3224
3922.002	3242
3923.611	3197
3925.218	3155
3926.826	3196
3928.432	3193
3930.039	3099
3931.647	3256
3933.253	3172
3934.859	3123
3936.464	3150
3938.068	3195
3939.675	3196
3941.278	3130
3942.883	3242
3944.486	3148
3946.089	3200
3947.692	3120
3949.295	3168
3950.898	3135
3952.499	3104
3954.1	3171
3955.7	3109
3957.303	3151
3958.903	3200
3960.502	3077
3962.101	3183
3963.7	3101
3965.301	3143
3966.899	3153
3968.497	3122
3970.094	3104
3971.691	3085
3973.288	3142
3974.885	3140
3976.481	3143
3978.077	3074
3979.672	3091
3981.267	3102
3982.863	3035
3984.457	3086
3986.051	2971
3987.645	3037
3989.238	3076
3990.831	3150
3992.425	3070
3994.017	3025
3995.607	2984
3997.199	3034
3998.79	2899
4000.382	3006
4001.973	3032
4003.561	3064
4005.151	2978
4006.741	3030
4008.331	3020
4009.918	3016
4011.507	3046
4013.095	3046
4014.681	2992
4016.269	2916
4017.856	3013
4019.443	2905
4021.028	3038
4022.614	3031
4024.199	2998
4025.785	2950
4027.37	2886
4028.953	2984
4030.536	2986
4032.12	2942
4033.704	2990
4035.287	2983
4036.869	2981
4038.45	2949
4040.032	2972
4041.613	2877
4043.195	2983
4044.776	2960
4046.356	2966
4047.935	2924
4049.515	2869
4051.095	2978
4052.674	2930
4054.251	2881
4055.829	2952
4057.406	2975
4058.985	2867
4060.562	2960
4062.139	2897
4063.715	2888
4065.29	2931
4066.865	2944
4068.442	2968
4070.016	2898
4071.59	2863
4073.164	2791
4074.738	2900
4076.312	2895
4077.885	2849
4079.458	2914
4081.03	2887
4082.602	2947
4084.173	2842
4085.745	2891
4087.315	2929
4088.886	2839
4090.456	2883
4092.026	2913
4093.596	2915
4095.165	2854
4096.734	2902
4098.301	2822
4099.869	2858
4101.437	2813
4103.006	2890
4104.572	2843
4106.139	2811
4107.704	2917
4109.27	2818
4110.837	2822
4112.401	2802
4113.966	2741
4115.53	2718
4117.094	2764
4118.659	2777
4120.223	2775
4121.785	2840
4123.347	2808
4124.909	2860
4126.471	2758
4128.034	2788
4129.595	2754
4131.155	2833
4132.716	2755
4134.275	2775
4135.836	2819
4137.395	2755
4138.955	2795
4140.513	2760
4142.071	2751
4143.628	2827
4145.188	2727
4146.745	2717
4148.302	2700
4149.858	2784
4151.414	2748
4152.971	2705
4154.526	2753
4156.081	2744
4157.635	2743
4159.189	2723
4160.745	2656
4162.298	2703
4163.852	2738
4165.405	2643
4166.957	2682
4168.51	2613
4170.063	2724
4171.614	2656
4173.166	2731
4174.717	2650
4176.267	2678
4177.817	2688
4179.368	2697
4180.917	2681
4182.466	2642
4184.016	2681
4185.564	2651
4187.112	2634
4188.66	2684
4190.207	2615
4191.754	2594
4193.301	2628
4194.848	2684
4196.394	2627
4197.94	2614
4199.484	2658
4201.03	2591
4202.575	2556
4204.12	2651
4205.663	2611
4207.207	2584
4208.75	2638
4210.292	2587
4211.836	2614
4213.378	2622
4214.92	2603
4216.46	2568
4218.002	2580
4219.544	2584
4221.083	2596
4222.625	2609
4224.164	2629
4225.703	2599
4227.244	2590
4228.782	2565
4230.32	2622
4231.857	2582
4233.395	2542
4234.933	2576
4236.471	2506
4238.007	2574
4239.542	2544
4241.078	2529
4242.614	2524
4244.15	2530
4245.685	2525
4247.219	2520
4248.753	2554
4250.287	2577
4251.82	2564
4253.354	2505
4254.887	2536
4256.419	2544
4257.951	2568
4259.483	2588
4261.016	2552
4262.547	2519
4264.078	2527
4265.608	2527
4267.137	2491
4268.668	2513
4270.197	2490
4271.727	2532
4273.254	2554
4274.783	2530
4276.311	2533
4277.84	2530
4279.366	2499
4280.894	2516
4282.42	2520
4283.946	2443
4285.473	2497
4286.998	2531
4288.523	2476
4290.047	2516
4291.572	2514
4293.096	2451
4294.622	2485
4296.144	2437
4297.668	2501
4299.19	2472
4300.713	2552
4302.236	2465
4303.758	2465
4305.279	2443
4306.799	2441
4308.321	2522
4309.842	2415
4311.361	2421
4312.882	2388
4314.401	2460
