400.0961	6513
402.6185	6566
405.1424	6507
407.6635	6609
410.1838	6512
412.7035	6540
415.2225	6636
417.7388	6616
420.2585	6748
422.7754	6782
425.2917	6808
427.8072	6923
430.3221	6714
432.8363	6940
435.3498	6929
437.8626	6893
440.3727	6878
442.8841	7002
445.3969	6970
447.907	6864
450.4142	6899
452.9229	6915
455.4289	6907
457.9362	7089
460.4449	6929
462.9488	7002
465.454	7077
467.9566	6931
470.4604	7009
472.9637	6967
475.4662	6960
477.966	7051
480.4671	7088
482.9656	7138
485.4633	6980
487.9645	7173
490.4608	6977
492.9566	7060
495.4536	7176
497.948	7146
500.4437	7340
502.9387	7158
505.431	7273
507.9226	7237
510.4136	7237
512.9079	7249
515.3975	7320
517.8864	7304
520.3746	7347
522.8622	7285
525.3491	7261
527.8394	7174
530.3249	7129
532.8098	7212
535.2939	7266
537.7774	7408
540.2623	7231
542.7444	7394
545.2259	7278
547.7067	7430
550.1868	7241
552.6683	7320
555.147	7392
557.6231	7252
560.1005	7246
562.5773	7306
565.0534	7372
567.5308	7355
570.0056	7445
572.4776	7485
574.951	7447
577.4237	7423
579.8978	7659
582.3671	7592
584.8378	7502
587.3079	7696
589.7773	7485
592.244	7639
594.714	7569
597.1793	7567
599.6461	7383
602.1121	7530
604.5754	7659
607.0421	7450
609.5042	7563
611.9675	7511
614.4282	7475
616.8902	7621
619.3515	7642
621.8122	7627
624.2702	7690
626.7296	7621
629.1863	7471
631.6423	7591
634.1017	7596
636.5563	7569
639.0104	7547
641.4658	7672
643.9185	7618
646.3725	7738
648.8239	7762
651.2766	7737
653.7266	7714
656.176	7672
658.6247	7709
661.0748	7721
663.5242	7722
665.9709	7724
668.417	7777
670.8624	7870
673.3092	7738
675.7533	7899
678.1968	7790
680.6395	7907
683.0817	7836
685.5251	7804
687.9659	7939
690.4061	7990
692.8456	7958
695.2844	7949
697.7226	8034
700.1621	8063
702.599	8025
705.0332	8094
707.4688	8039
709.9036	7793
712.3399	8038
714.7735	8010
717.2044	8150
719.6367	7949
722.0683	7968
724.4993	8149
726.9296	8202
729.3593	8191
731.7883	8128
734.2147	8209
736.6423	8160
739.0714	8207
741.4958	8238
743.9216	8244
746.3447	8273
748.7691	8286
751.1929	8301
753.616	8349
756.0366	8480
758.4584	8333
760.8776	8422
763.2982	8395
765.718	8417
768.1373	8416
770.5539	8516
772.9698	8372
775.3871	8531
777.8038	8535
780.2178	8401
782.6332	8600
785.0459	8400
787.458	8474
789.8714	8397
792.2842	8415
794.6943	8461
797.1038	8543
799.5127	8527
801.9209	8574
804.3324	8417
806.7393	8477
809.1456	8622
811.5513	8550
813.9562	8522
816.3625	8638
818.7663	8597
821.1693	8599
823.5718	8673
825.9735	8562
828.3746	8660
830.7771	8589
833.177	8685
835.5762	8567
837.9747	8648
840.3727	8668
842.772	8640
845.1666	8689
847.5626	8642
849.958	8672
852.3527	8736
854.7488	8737
857.1403	8757
859.5331	8836
861.9253	8908
864.3168	8689
866.7057	8730
869.098	8716
871.4876	8736
873.8746	8667
876.263	8732
878.6487	8749
881.0378	8643
883.4243	8763
885.8081	8830
888.1933	8771
890.5759	8676
892.9598	8710
895.343	8746
897.7256	8789
900.1057	8757
902.4871	8799
904.8659	8811
907.246	8830
909.6254	8800
912.0023	8857
914.3786	8847
916.7562	9012
919.1331	9080
921.5074	9167
923.8831	9223
926.2562	9191
928.6287	9157
931.0005	9287
933.3757	9163
935.7462	9157
938.1162	9122
940.4855	9326
942.8542	9224
945.2242	9391
947.5916	9545
949.9584	9616
952.3266	9711
954.6921	9919
957.0571	10003
959.4233	10264
961.787	10297
964.15	10264
966.5125	10173
968.8742	9952
971.2354	9616
973.5959	9517
975.9559	9368
978.3151	9222
980.6738	9315
983.0338	9249
985.3912	9190
987.7461	9227
990.1022	8994
992.4578	9195
994.8127	9101
997.1689	8982
999.5207	8938
1001.874	9148
1004.226	9054
1006.576	9124
1008.929	9128
1011.28	9041
1013.628	8976
1015.977	9122
1018.324	9062
1020.674	9127
1023.019	9079
1025.366	9127
1027.713	9181
1030.056	9190
1032.399	9180
1034.746	9176
1037.087	9256
1039.431	9149
1041.771	9237
1044.113	9397
1046.454	9164
1048.793	9206
1051.133	9246
1053.471	9188
1055.807	9178
1058.146	9259
1060.483	9283
1062.818	9398
1065.153	9276
1067.489	9268
1069.822	9357
1072.156	9291
1074.488	9359
1076.82	9398
1079.15	9528
1081.48	9267
1083.814	9139
1086.143	9157
1088.471	9206
1090.799	9134
1093.126	9078
1095.452	9266
1097.78	9375
1100.105	9181
1102.43	9288
1104.754	9296
1107.077	9343
1109.4	9175
1111.722	9272
1114.044	9358
1116.365	9344
1118.685	9259
1121.005	9338
1123.324	9243
1125.643	9403
1127.961	9329
1130.278	9472
1132.595	9333
1134.911	9357
1137.226	9328
1139.541	9302
1141.854	9390
1144.167	9201
1146.482	9324
1148.793	9466
1151.105	9453
1153.414	9264
1155.725	9406
1158.033	9273
1160.344	9453
1162.651	9499
1164.959	9305
1167.265	9336
1169.572	9504
1171.878	9342
1174.184	9473
1176.488	9473
1178.79	9442
1181.094	9527
1183.396	9428
1185.699	9429
1188.001	9359
1190.301	9282
1192.6	9362
1194.9	9293
1197.2	9369
1199.497	9319
1201.794	9448
1204.09	9340
1206.387	9289
1208.684	9453
1210.978	9340
1213.272	9424
1215.565	9445
1217.858	9372
1220.15	9320
1222.443	9401
1224.734	9491
1227.024	9609
1229.313	9486
1231.602	9582
1233.892	9515
1236.18	9600
1238.467	9500
1240.754	9702
1243.04	9734
1245.325	9710
1247.612	9683
1249.896	9738
1252.178	9649
1254.461	9682
1256.743	9631
1259.027	9758
1261.308	9679
1263.587	9726
1265.867	9763
1268.146	9868
1270.425	9686
1272.703	9785
1274.981	9779
1277.256	9846
1279.532	9805
1281.808	9627
1284.083	9642
1286.358	9612
1288.63	9679
1290.904	9599
1293.175	9635
1295.449	9626
1297.719	9789
1299.99	9619
1302.259	9635
1304.529	9548
1306.798	9639
1309.065	9721
1311.333	9766
1313.599	9674
1315.866	9743
1318.131	9670
1320.396	9790
1322.66	9641
1324.925	9532
1327.187	9644
1329.448	9652
1331.711	9686
1333.974	9761
1336.234	9642
1338.493	9765
1340.752	9690
1343.01	9659
1345.269	9454
1347.526	9564
1349.784	9821
1352.04	9546
1354.295	9573
1356.552	9558
1358.806	9510
1361.059	9579
1363.312	9672
1365.564	9700
1367.818	9728
1370.069	9644
1372.318	9710
1374.568	9609
1376.817	9631
1379.066	9606
1381.316	9716
1383.564	9808
1385.809	9886
1388.056	9947
1390.301	9943
1392.549	9860
1394.793	9947
1397.036	9992
1399.279	9998
1401.522	10101
1403.763	10129
1406.007	10161
1408.248	10022
1410.487	10061
1412.727	10131
1414.965	10045
1417.205	9983
1419.442	10006
1421.68	10062
1423.915	10021
1426.152	9925
1428.388	9861
1430.623	9928
1432.857	10055
1435.091	10007
1437.323	10102
1439.556	9981
1441.789	10162
1444.019	10203
1446.25	10037
1448.48	10094
1450.708	9963
1452.938	10022
1455.167	10126
1457.394	10216
1459.62	10274
1461.846	10011
1464.073	10090
1466.299	10159
1468.523	9966
1470.746	10042
1472.969	9998
1475.191	9784
1477.415	9880
1479.636	9912
1481.858	9807
1484.078	9897
1486.298	9892
1488.518	9800
1490.736	9633
1492.954	9649
1495.169	9704
1497.386	9709
1499.602	9727
1501.819	9657
1504.034	9648
1506.248	9696
1508.462	9679
1510.675	9616
1512.888	9624
1515.1	9606
1517.311	9667
1519.522	9700
1521.732	9682
1523.942	9523
1526.151	9657
1528.36	9663
1530.566	9625
1532.773	9706
1534.98	9654
1537.187	9632
1539.392	9563
1541.596	9721
1543.801	9736
1546.005	9697
1548.208	9698
1550.411	9567
1552.612	9784
1554.814	9818
1557.013	9800
1559.212	9816
1561.414	9828
1563.612	9813
1565.811	9922
1568.007	9763
1570.203	9941
1572.403	9885
1574.598	9956
1576.792	9792
1578.988	9990
1581.181	9898
1583.376	9983
1585.568	10050
1587.761	9891
1589.952	10006
1592.143	9995
1594.333	9950
1596.524	9929
1598.715	10032
1600.903	9898
1603.091	10061
1605.278	9950
1607.466	10099
1609.652	9871
1611.838	9879
1614.023	9929
1616.207	9922
1618.391	10079
1620.576	9904
1622.759	10002
1624.941	10136
1627.123	9945
1629.304	9972
1631.484	10180
1633.664	10025
1635.844	10085
1638.022	10084
1640.201	10136
1642.38	10171
1644.556	10148
1646.732	10002
1648.908	10017
1651.084	10104
1653.257	10157
1655.433	10058
1657.607	10016
1659.779	10185
1661.951	10152
1664.122	10092
1666.295	10056
1668.467	10052
1670.635	10226
1672.805	10236
1674.973	10105
1677.142	9952
1679.31	10143
1681.478	9954
1683.644	10154
1685.81	9930
1687.975	10141
1690.142	10021
1692.305	9940
1694.468	10011
1696.632	10044
1698.794	10058
1700.957	10024
1703.119	10034
1705.279	9908
1707.439	9906
1709.598	9974
1711.758	9929
1713.917	9970
1716.075	9953
1718.231	9850
1720.388	10050
1722.543	9956
1724.702	9940
1726.856	9879
1729.01	9923
1731.164	9867
1733.317	9838
1735.471	9994
1737.623	9932
1739.774	10006
1741.925	9868
1744.075	9857
1746.225	9848
1748.376	9837
1750.524	9843
1752.672	9908
1754.82	9885
1756.965	9968
1759.113	10065
1761.259	10041
1763.405	9796
1765.549	10133
1767.694	10033
1769.836	10014
1771.981	9891
1774.123	9992
1776.264	10041
1778.405	10010
1780.546	10117
1782.687	10008
1784.827	9989
1786.966	10129
1789.103	9975
1791.242	10058
1793.381	10186
1795.517	10059
1797.653	10042
1799.788	9982
1801.923	10029
1804.057	10130
1806.193	10081
1808.326	10052
1810.457	10066
1812.59	10138
1814.721	10075
1816.855	9928
1818.984	10008
1821.113	10022
1823.244	10064
1825.372	9981
1827.499	9985
1829.63	9984
1831.756	9925
1833.882	9898
1836.007	9980
1838.132	10081
1840.26	9902
1842.384	10007
1844.507	9840
1846.63	9955
1848.752	9981
1850.875	9807
1852.996	10017
1855.118	9888
1857.238	10037
1859.358	9935
1861.477	9954
1863.597	10088
1865.715	9882
1867.832	9819
1869.948	9946
1872.064	9798
1874.181	9899
1876.297	9837
1878.411	9900
1880.526	9974
1882.639	9860
1884.752	9920
1886.865	9917
1888.977	10019
1891.089	9891
1893.2	9933
1895.308	9811
1897.42	9837
1899.53	10027
1901.639	9943
1903.745	9883
1905.853	10135
1907.962	9955
1910.067	9986
1912.174	10011
1914.278	10047
1916.383	10026
1918.486	10013
1920.592	10022
1922.694	10017
1924.797	10091
1926.898	10072
1929	9981
1931.102	9923
1933.203	10026
1935.301	10196
1937.401	10097
1939.499	10014
1941.598	10152
1943.697	9993
1945.793	10025
1947.888	10041
1949.985	9945
1952.08	9969
1954.176	10140
1956.269	9835
1958.364	10182
1960.457	10101
1962.549	10049
1964.642	10071
1966.733	10126
1968.823	10068
1970.913	10002
1973.005	10089
1975.093	10088
1977.184	10133
1979.271	10059
1981.359	10025
1983.446	9949
1985.532	10062
1987.619	10070
1989.705	9915
1991.789	9885
1993.874	9956
1995.956	9876
1998.041	9993
2000.123	9817
2002.206	9862
2004.287	9959
2006.368	9879
2008.449	9900
2010.529	9809
2012.609	9897
2014.688	9884
2016.766	9939
2018.843	9922
2020.922	9940
2022.999	9942
2025.074	9915
2027.15	10002
2029.225	9968
2031.299	10031
2033.375	9944
2035.447	9881
2037.52	9959
2039.592	9942
2041.664	9967
2043.736	9824
2045.807	9893
2047.876	9906
2049.947	9946
2052.015	9999
2054.086	9752
2056.153	10030
2058.221	9796
2060.288	9889
2062.353	9969
2064.42	10007
2066.486	9994
2068.55	10006
2070.614	9953
2072.678	9927
2074.741	9911
2076.805	9936
2078.866	9879
2080.929	9723
2082.99	9869
2085.049	9901
2087.109	10054
2089.17	9869
2091.228	9907
2093.286	9864
2095.344	9935
2097.4	9922
2099.46	9919
2101.516	9874
2103.572	9933
2105.626	9930
2107.679	9817
2109.735	10007
2111.788	9943
2113.841	9933
2115.894	9953
2117.945	9772
2119.997	9773
2122.049	9856
2124.1	10088
2126.148	9887
2128.197	9781
2130.246	9883
2132.296	9858
2134.342	9947
2136.39	9829
2138.437	9894
2140.483	9927
2142.527	9889
2144.574	9856
2146.619	9856
2148.661	9731
2150.705	9740
2152.747	9937
2154.792	9767
2156.832	9792
2158.874	9852
2160.915	9776
2162.954	9658
2164.995	9885
2167.034	9714
2169.072	9857
2171.111	9760
2173.148	9897
2175.186	9856
2177.223	9702
2179.258	9756
2181.294	9784
2183.328	9711
2185.362	9671
2187.398	9650
2189.431	9803
2191.463	9610
2193.495	9806
2195.528	9721
2197.56	9710
2199.59	9593
2201.62	9662
2203.649	9717
2205.678	9691
2207.708	9655
2209.737	9683
2211.764	9649
2213.791	9575
2215.817	9569
2217.843	9463
2219.87	9690
2221.895	9799
2223.919	9707
2225.942	9680
2227.966	9696
2229.988	9521
2232.012	9568
2234.032	9577
2236.054	9605
2238.074	9567
2240.095	9648
2242.116	9447
2244.135	9471
2246.153	9593
2248.171	9513
2250.188	9607
2252.208	9542
2254.223	9527
2256.239	9605
2258.255	9548
2260.269	9587
2262.283	9585
2264.3	9542
2266.312	9251
2268.325	9496
2270.336	9555
2272.349	9568
2274.362	9518
2276.372	9549
2278.383	9530
2280.392	9473
2282.402	9700
2284.409	9617
2286.418	9563
2288.427	9644
2290.433	9609
2292.441	9563
2294.446	9677
2296.453	9547
2298.459	9653
2300.463	9388
2302.466	9460
2304.471	9442
2306.475	9521
2308.477	9454
2310.478	9330
2312.481	9440
2314.481	9603
2316.481	9414
2318.482	9513
2320.482	9530
2322.48	9547
2324.48	9552
2326.478	9287
2328.476	9457
2330.473	9453
2332.469	9453
2334.465	9447
2336.46	9346
2338.454	9356
2340.45	9319
2342.444	9289
2344.437	9377
2346.43	9389
2348.421	9232
2350.414	9443
2352.405	9341
2354.396	9316
2356.386	9391
2358.376	9309
2360.366	9406
2362.355	9099
2364.343	9363
2366.331	9285
2368.317	9285
2370.304	9169
2372.292	9290
2374.278	9237
2376.262	9157
2378.247	9278
2380.23	9290
2382.216	9269
2384.199	9250
2386.181	9273
2388.163	9172
2390.144	9309
2392.127	9268
2394.107	9115
2396.087	9160
2398.066	9084
2400.046	9351
2402.023	9098
2404.004	9224
2405.981	9201
2407.957	9202
2409.934	9204
2411.91	9056
2413.886	9232
2415.862	9130
2417.836	9147
2419.809	9189
2421.784	9128
2423.756	9044
2425.73	9182
2427.701	9222
2429.672	9238
2431.644	9107
2433.615	9110
2435.586	9108
2437.555	9220
2439.523	9045
2441.491	9033
2443.459	9050
2445.428	9145
2447.395	9051
2449.361	9187
2451.327	9148
2453.292	9037
2455.257	9121
2457.223	9152
2459.187	9027
2461.15	9050
2463.113	9084
2465.076	9055
2467.039	9057
2468.999	9064
2470.96	8938
2472.921	9006
2474.881	9109
2476.841	8970
2478.8	9064
2480.759	8996
2482.717	9085
2484.675	9002
2486.63	9039
2488.589	9094
2490.545	9000
2492.5	8956
2494.455	8947
2496.408	8904
2498.364	8692
2500.318	8971
2502.27	9039
2504.223	8825
2506.174	8984
2508.126	8931
2510.078	8869
2512.03	8970
2513.979	8844
2515.927	8874
2517.877	8968
2519.826	8741
2521.775	9002
2523.722	8818
2525.668	8893
2527.616	8912
2529.561	8912
2531.508	8832
2533.452	8814
2535.398	8789
2537.342	8835
2539.284	8901
2541.229	8739
2543.173	8913
2545.114	8708
2547.055	8805
2548.996	8909
2550.938	8830
2552.878	8939
2554.817	8908
2556.756	8890
2558.695	8869
2560.633	8845
2562.572	8826
2564.509	8981
2566.445	8812
2568.382	8807
2570.317	8912
2572.254	8951
2574.189	8774
2576.123	8818
2578.057	8852
2579.99	8917
2581.923	8802
2583.855	8931
2585.788	8867
2587.719	8908
2589.65	8824
2591.579	8882
2593.511	9002
2595.44	8830
2597.37	8810
2599.297	8885
2601.225	8867
2603.153	8798
2605.08	8660
2607.007	8838
2608.932	8733
2610.858	8841
2612.782	8703
2614.709	8909
2616.632	8739
2618.556	8754
2620.478	8989
2622.401	8812
2624.324	8876
2626.247	8760
2628.167	8834
2630.088	8779
2632.008	8896
2633.928	8822
2635.848	8816
2637.766	8959
2639.684	8959
2641.603	8824
2643.519	8893
2645.437	8854
2647.353	8825
2649.27	8791
2651.184	8866
2653.099	8742
2655.014	8802
2656.928	8722
2658.842	8806
2660.755	8763
2662.667	8734
2664.579	8812
2666.491	8887
2668.402	8750
2670.312	8731
2672.222	8668
2674.132	8880
2676.042	8711
2677.951	8771
2679.859	8840
2681.766	8759
2683.674	8727
2685.582	8805
2687.488	8768
2689.392	8831
2691.298	8659
2693.202	8721
2695.107	8733
2697.012	8647
2698.914	8778
2700.817	8612
2702.72	8570
2704.622	8579
2706.524	8695
2708.425	8655
2710.326	8612
2712.225	8693
2714.125	8623
2716.024	8671
2717.923	8598
2719.822	8633
2721.719	8585
2723.616	8554
2725.512	8547
2727.41	8560
2729.305	8644
2731.201	8503
2733.095	8547
2734.99	8563
2736.884	8486
2738.778	8526
2740.67	8693
2742.562	8581
2744.455	8584
2746.346	8606
2748.238	8488
2750.129	8652
2752.018	8582
2753.907	8536
2755.797	8541
2757.687	8495
2759.575	8613
2761.462	8418
2763.349	8502
2765.237	8503
2767.124	8506
2769.009	8474
2770.894	8506
2772.779	8513
2774.663	8576
2776.547	8686
2778.431	8364
2780.314	8609
2782.197	8328
2784.078	8630
2785.96	8420
2787.842	8486
2789.723	8433
2791.603	8452
2793.483	8486
2795.362	8425
2797.241	8489
2799.121	8414
2800.997	8428
2802.874	8540
2804.751	8411
2806.628	8525
2808.506	8549
2810.38	8373
2812.255	8498
2814.13	8474
2816.003	8419
2817.878	8358
2819.752	8311
2821.623	8526
2823.496	8360
2825.368	8414
2827.238	8393
2829.111	8347
2830.98	8441
2832.851	8363
2834.719	8399
2836.589	8351
2838.458	8393
2840.327	8360
2842.193	8443
2844.061	8385
2845.927	8391
2847.794	8369
2849.66	8483
2851.525	8496
2853.39	8505
2855.254	8453
2857.117	8487
2858.983	8502
2860.845	8433
2862.707	8423
2864.569	8645
2866.431	8516
2868.293	8707
2870.154	8609
2872.013	8776
2873.873	8583
2875.733	8828
2877.592	8808
2879.451	8797
2881.309	9010
2883.166	8935
2885.022	9006
2886.879	8968
2888.736	9030
2890.591	9106
2892.446	9056
2894.301	9163
2896.155	9218
2898.009	8977
2899.863	9115
2901.716	9147
2903.568	9002
2905.419	9075
2907.27	9152
2909.123	9048
2910.973	9051
2912.824	9128
2914.673	9055
2916.521	9287
2918.372	9315
2920.22	9394
2922.067	9234
2923.914	9286
2925.761	9221
2927.607	9282
2929.455	9413
2931.301	9438
2933.144	9471
2934.99	9477
2936.833	9425
2938.678	9523
2940.522	9679
2942.364	9935
2944.207	9860
2946.048	9925
2947.891	10034
2949.731	9968
2951.571	10035
2953.412	10111
2955.25	9906
2957.09	9928
2958.93	9758
2960.767	9789
2962.606	9688
2964.443	9616
2966.279	9575
2968.116	9630
2969.953	9337
2971.788	9180
2973.623	9195
2975.457	9160
2977.292	8903
2979.127	8988
2980.959	8979
2982.792	8934
2984.624	8721
2986.455	8734
2988.288	8896
2990.119	8601
2991.949	8680
2993.779	8536
2995.608	8659
2997.439	8504
2999.268	8604
3001.096	8614
3002.923	8467
3004.751	8389
3006.578	8472
3008.406	8349
3010.232	8303
3012.057	8313
3013.883	8158
3015.706	8236
3017.532	8119
3019.356	8245
3021.179	7885
3023.002	8132
3024.823	8113
3026.646	8008
3028.469	8090
3030.289	8112
3032.11	7864
3033.93	7944
3035.749	7876
3037.57	7975
3039.39	7937
3041.207	8046
3043.026	7930
3044.842	7827
3046.661	7905
3048.477	7926
3050.294	7980
3052.109	7848
3053.925	7863
3055.739	7888
3057.555	7950
3059.368	7852
3061.181	7790
3062.995	7814
3064.807	7916
3066.62	7718
3068.433	7990
3070.243	7796
3072.054	7779
3073.865	7890
3075.675	7736
3077.485	7786
3079.293	7688
3081.102	7815
3082.911	7593
3084.719	7647
3086.527	7746
3088.333	7545
3090.139	7732
3091.945	7663
3093.75	7554
3095.557	7581
3097.361	7635
3099.165	7640
3100.969	7492
3102.772	7659
3104.575	7620
3106.379	7496
3108.181	7535
3109.982	7623
3111.783	7453
3113.584	7735
3115.386	7461
3117.186	7553
3118.985	7516
3120.783	7472
3122.582	7537
3124.381	7457
3126.179	7600
3127.975	7548
3129.772	7295
3131.569	7458
3133.365	7383
3135.161	7432
3136.956	7471
3138.751	7393
3140.544	7446
3142.338	7450
3144.132	7249
3145.925	7396
3147.717	7555
3149.509	7278
3151.301	7430
3153.091	7316
3154.884	7244
3156.673	7329
3158.462	7360
3160.252	7388
3162.041	7379
3163.831	7273
3165.618	7272
3167.405	7356
3169.193	7342
3170.979	7287
3172.767	7299
3174.553	7266
3176.338	7312
3178.123	7364
3179.907	7231
3181.692	7269
3183.477	7297
3185.259	7194
3187.042	7299
3188.824	7255
3190.607	7323
3192.389	7198
3194.17	7176
3195.951	7295
3197.73	7163
3199.51	7210
3201.289	7245
3203.07	7280
3204.848	7260
3206.626	7077
3208.403	7227
3210.18	7298
3211.959	7179
3213.735	7185
3215.511	7157
3217.285	7119
3219.06	7113
3220.836	7247
3222.611	7181
3224.384	7139
3226.158	7123
3227.929	7228
3229.702	7157
3231.476	7084
3233.248	7101
3235.018	7134
3236.789	7224
3238.56	7063
3240.33	7021
3242.1	7070
3243.869	7045
3245.637	7212
3247.405	7146
3249.172	7138
3250.941	7083
3252.707	7206
3254.474	7188
3256.24	7072
3258.006	7098
3259.772	7083
3261.537	7064
3263.301	7049
3265.065	7085
3266.828	7072
3268.592	7001
3270.355	7083
3272.117	6978
3273.878	7195
3275.64	7109
3277.401	7148
3279.162	7149
3280.922	7078
3282.682	6928
3284.441	7118
3286.199	7169
3287.959	7077
3289.716	7129
3291.475	7185
3293.232	7052
3294.988	7014
3296.744	7112
3298.501	7074
3300.256	7014
3302.011	6996
3303.766	6913
3305.52	7186
3307.275	7125
3309.028	7031
3310.781	7160
3312.533	7062
3314.285	7075
3316.038	7073
3317.789	7110
3319.54	7094
3321.289	7073
3323.039	7112
3324.789	6897
3326.539	6951
3328.288	6941
3330.035	7029
3331.783	7059
3333.531	7133
3335.28	6918
3337.025	7018
3338.771	6995
3340.518	6976
3342.262	7010
3344.009	6895
3345.753	6952
3347.497	6844
3349.24	6847
3350.983	6924
3352.726	7092
3354.469	6812
3356.212	6945
3357.952	6820
3359.694	6844
3361.434	6839
3363.176	6725
3364.916	7036
3366.654	6823
3368.394	6853
3370.132	6882
3371.871	6828
3373.61	6916
3375.346	6770
3377.083	6803
3378.82	6785
3380.556	6943
3382.292	6775
3384.027	6776
3385.763	6705
3387.497	6701
3389.231	6866
3390.965	6705
3392.698	6851
3394.431	6654
3396.164	6692
3397.896	6906
3399.627	6740
3401.36	6814
3403.09	6812
3404.82	6730
3406.55	6718
3408.279	6654
3410.01	6724
3411.738	6643
3413.467	6730
3415.194	6646
3416.92	6726
3418.647	6746
3420.375	6594
3422.102	6694
3423.827	6691
3425.553	6662
3427.277	6645
3429.003	6689
3430.727	6692
3432.451	6685
3434.173	6487
3435.896	6787
3437.62	6575
3439.343	6746
3441.063	6624
3442.785	6596
3444.505	6491
3446.226	6535
3447.948	6571
3449.666	6432
3451.386	6509
3453.104	6379
3454.823	6481
3456.541	6381
3458.259	6565
3459.976	6571
3461.693	6444
3463.408	6514
3465.125	6390
3466.841	6453
3468.556	6466
3470.271	6416
3471.985	6305
3473.698	6407
3475.414	6418
3477.126	6424
3478.838	6345
3480.55	6344
3482.263	6240
3483.975	6419
3485.686	6403
3487.396	6336
3489.106	6417
3490.817	6235
3492.526	6279
3494.236	6267
3495.944	6334
3497.652	6163
3499.359	6282
3501.066	6106
3502.775	6221
3504.481	6240
3506.187	6228
3507.893	6226
3509.598	6184
3511.304	6207
3513.009	6233
3514.713	6229
3516.417	6144
3518.12	6122
3519.821	6255
3521.525	6147
3523.228	6121
3524.929	6066
3526.631	6201
3528.33	6179
3530.032	6166
3531.733	6128
3533.433	6157
3535.131	6099
3536.83	6129
3538.529	6174
3540.227	6107
3541.925	6171
3543.623	5990
3545.319	6046
3547.016	6006
3548.712	6081
3550.408	5972
3552.103	6055
3553.798	6111
3555.491	5948
3557.188	6079
3558.88	6091
3560.574	5970
3562.266	5972
3563.959	6035
3565.651	5924
3567.343	5859
3569.035	5966
3570.725	5947
3572.415	5890
3574.106	5798
3575.797	5999
3577.485	5995
3579.174	5864
3580.863	5848
3582.551	5909
3584.238	5923
3585.926	5839
3587.613	5844
3589.3	5817
3590.986	5869
3592.671	5865
3594.357	5795
3596.042	5912
3597.726	5834
3599.41	5819
3601.094	5725
3602.778	5587
3604.461	5837
3606.143	5782
3607.825	5784
3609.507	5792
3611.188	5630
3612.87	5752
3614.551	5720
3616.229	5690
3617.909	5700
3619.589	5595
3621.269	5682
3622.948	5672
3624.625	5708
3626.302	5617
3627.98	5614
3629.657	5589
3631.334	5658
3633.01	5609
3634.686	5637
3636.361	5597
3638.036	5511
3639.712	5645
3641.385	5614
3643.06	5501
3644.732	5484
3646.405	5607
3648.08	5583
3649.751	5671
3651.424	5591
3653.094	5552
3654.766	5501
3656.436	5490
3658.106	5576
3659.777	5480
3661.446	5496
3663.115	5497
3664.783	5496
3666.452	5476
3668.121	5553
3669.788	5499
3671.454	5451
3673.121	5431
3674.789	5431
3676.455	5468
3678.12	5400
3679.784	5427
3681.45	5481
3683.114	5474
3684.779	5411
3686.442	5338
3688.105	5393
3689.768	5431
3691.43	5454
3693.093	5382
3694.754	5417
3696.415	5371
3698.076	5467
3699.736	5339
3701.396	5326
3703.057	5338
3704.716	5429
3706.375	5391
3708.034	5453
3709.692	5198
3711.351	5382
3713.008	5396
3714.665	5290
3716.321	5310
3717.977	5262
3719.634	5320
3721.29	5358
3722.945	5331
3724.598	5345
3726.253	5379
3727.907	5294
3729.561	5404
3731.214	5326
3732.867	5315
3734.518	5339
3736.171	5425
3737.824	5291
3739.474	5295
3741.125	5226
3742.775	5256
3744.425	5252
3746.074	5327
3747.725	5218
3749.373	5174
3751.022	5345
3752.669	5253
3754.318	5200
3755.966	5246
3757.612	5288
3759.259	5233
3760.905	5260
3762.55	5143
3764.197	5241
3765.842	5259
3767.486	5155
3769.131	5228
3770.774	5106
3772.417	5269
3774.061	5175
3775.705	5202
3777.347	5166
3778.988	5071
3780.629	5179
3782.271	5101
3783.912	5163
3785.552	5127
3787.192	5063
3788.831	5139
3790.472	5150
3792.112	5022
3793.75	5058
3795.388	5087
3797.024	5100
3798.661	5003
3800.3	5060
3801.936	5081
3803.572	5099
3805.208	5073
3806.844	4986
3808.48	4941
3810.115	4956
3811.748	5003
3813.382	5023
3815.016	4914
3816.649	5036
3818.283	5051
3819.914	4960
3821.547	4996
3823.178	4876
3824.809	4998
3826.441	5009
3828.072	4943
3829.701	4975
3831.331	4950
3832.96	4990
3834.591	4929
3836.219	4947
3837.847	4919
3839.475	4961
3841.102	4901
3842.729	5009
3844.357	4916
3845.984	4857
3847.609	4888
3849.234	4877
3850.86	4855
3852.485	4831
3854.11	4902
3855.734	4887
3857.357	4904
3858.981	4874
3860.603	4845
3862.227	4920
3863.848	4950
3865.471	4874
3867.092	4925
3868.713	4759
3870.334	4782
3871.954	4890
3873.575	4762
3875.194	4757
3876.813	4730
3878.433	4910
3880.051	4731
3881.669	4861
3883.286	4879
3884.904	4817
3886.52	4734
3888.138	4701
3889.754	4815
3891.37	4800
3892.985	4760
3894.6	4785
3896.216	4755
3897.831	4682
3899.444	4706
3901.058	4712
3902.67	4651
3904.283	4814
3905.897	4742
3907.509	4739
3909.121	4757
3910.731	4741
3912.342	4646
3913.954	4762
3915.563	4686
3917.174	4674
3918.783	4612
3920.391	4770
3922.002	4668
3923.611	4650
3925.218	4712
3926.826	4732
3928.432	4759
3930.039	4692
3931.647	4706
3933.253	4789
3934.859	4592
3936.464	4747
3938.068	4691
3939.675	4641
3941.278	4721
3942.883	4707
3944.486	4549
3946.089	4689
3947.692	4709
3949.295	4635
3950.898	4575
3952.499	4576
3954.1	4572
3955.7	4610
3957.303	4624
3958.903	4627
3960.502	4655
3962.101	4561
3963.7	4620
3965.301	4563
3966.899	4542
3968.497	4559
3970.094	4542
3971.691	4543
3973.288	4491
3974.885	4550
3976.481	4559
3978.077	4489
3979.672	4611
3981.267	4474
3982.863	4565
3984.457	4469
3986.051	4525
3987.645	4469
3989.238	4518
3990.831	4509
3992.425	4443
3994.017	4526
3995.607	4421
3997.199	4422
3998.79	4477
4000.382	4373
4001.973	4293
4003.561	4398
4005.151	4375
4006.741	4403
4008.331	4459
4009.918	4399
4011.507	4480
4013.095	4373
4014.681	4366
4016.269	4474
4017.856	4340
4019.443	4312
4021.028	4331
4022.614	4428
4024.199	4355
4025.785	4310
4027.37	4390
4028.953	4405
4030.536	4332
4032.12	4334
4033.704	4241
4035.287	4250
4036.869	4299
4038.45	4317
4040.032	4323
4041.613	4271
4043.195	4309
4044.776	4297
4046.356	4226
4047.935	4306
4049.515	4142
4051.095	4292
4052.674	4310
4054.251	4322
4055.829	4232
4057.406	4249
4058.985	4266
4060.562	4303
4062.139	4197
4063.715	4203
4065.29	4236
4066.865	4208
4068.442	4165
4070.016	4324
4071.59	4296
4073.164	4165
4074.738	4193
4076.312	4260
4077.885	4248
4079.458	4175
4081.03	4150
4082.602	4066
4084.173	4128
4085.745	4145
4087.315	4086
4088.886	4206
4090.456	4117
4092.026	4110
4093.596	4120
4095.165	4259
4096.734	4128
4098.301	4144
4099.869	4106
4101.437	4231
4103.006	4143
4104.572	4158
4106.139	4172
4107.704	4092
4109.27	4085
4110.837	4082
4112.401	4085
4113.966	4087
4115.53	4039
4117.094	4066
4118.659	4062
4120.223	4116
4121.785	4051
4123.347	4015
4124.909	4028
4126.471	4003
4128.034	4102
4129.595	3997
4131.155	4049
4132.716	4135
4134.275	4041
4135.836	4007
4137.395	4004
4138.955	3953
4140.513	3962
4142.071	3991
4143.628	3993
4145.188	3942
4146.745	3958
4148.302	4050
4149.858	3878
4151.414	4002
4152.971	3985
4154.526	4006
4156.081	3992
4157.635	3921
4159.189	3938
4160.745	3921
4162.298	3836
4163.852	3857
4165.405	3834
4166.957	3873
4168.51	3933
4170.063	3844
4171.614	3939
4173.166	3867
4174.717	3909
4176.267	3942
4177.817	3929
4179.368	3813
4180.917	3885
4182.466	3845
4184.016	3862
4185.564	3845
4187.112	3874
4188.66	3820
4190.207	3849
4191.754	3879
4193.301	3830
4194.848	3798
4196.394	3805
4197.94	3849
4199.484	3959
4201.03	3815
4202.575	3768
4204.12	3836
4205.663	3681
4207.207	3823
4208.75	3746
4210.292	3786
4211.836	3782
4213.378	3774
4214.92	3765
4216.46	3780
4218.002	3822
4219.544	3771
4221.083	3695
4222.625	3814
4224.164	3677
4225.703	3776
4227.244	3780
4228.782	3684
4230.32	3745
4231.857	3776
4233.395	3654
4234.933	3703
4236.471	3709
4238.007	3681
4239.542	3687
4241.078	3749
4242.614	3722
4244.15	3708
4245.685	3723
4247.219	3667
4248.753	3765
4250.287	3665
4251.82	3658
4253.354	3649
4254.887	3767
4256.419	3616
4257.951	3696
4259.483	3701
4261.016	3642
4262.547	3651
4264.078	3613
4265.608	3653
4267.137	3618
4268.668	3642
4270.197	3613
4271.727	3614
4273.254	3588
4274.783	3688
4276.311	3663
4277.84	3687
4279.366	3596
4280.894	3662
4282.42	3559
4283.946	3666
4285.473	3617
4286.998	3604
4288.523	3614
4290.047	3605
4291.572	3606
4293.096	3571
4294.622	3572
4296.144	3620
4297.668	3580
4299.19	3496
4300.713	3617
4302.236	3554
4303.758	3531
4305.279	3572
4306.799	3543
4308.321	3465
4309.842	3527
4311.361	3540
4312.882	3493
4314.401	3556
