400.0961	4219
402.6185	4303
405.1424	4318
407.6635	4285
410.1838	4279
412.7035	4277
415.2225	4282
417.7388	4333
420.2585	4482
422.7754	4475
425.2917	4439
427.8072	4543
430.3221	4645
432.8363	4602
435.3498	4609
437.8626	4623
440.3727	4534
442.8841	4603
445.3969	4609
447.907	4626
450.4142	4668
452.9229	4514
455.4289	4542
457.9362	4476
460.4449	4452
462.9488	4452
465.454	4495
467.9566	4576
470.4604	4423
472.9637	4503
475.4662	4509
477.966	4493
480.4671	4504
482.9656	4506
485.4633	4550
487.9645	4506
490.4608	4542
492.9566	4586
495.4536	4567
497.948	4514
500.4437	4620
502.9387	4495
505.431	4557
507.9226	4568
510.4136	4652
512.9079	4471
515.3975	4680
517.8864	4688
520.3746	4623
522.8622	4574
525.3491	4719
527.8394	4715
530.3249	4772
532.8098	4671
535.2939	4789
537.7774	4690
540.2623	4792
542.7444	4674
545.2259	4650
547.7067	4703
550.1868	4685
552.6683	4672
555.147	4651
557.6231	4739
560.1005	4660
562.5773	4716
565.0534	4747
567.5308	4764
570.0056	4803
572.4776	4878
574.951	4924
577.4237	4789
579.8978	4846
582.3671	4959
584.8378	4897
587.3079	4964
589.7773	4936
592.244	5003
594.714	4945
597.1793	5045
599.6461	4912
602.1121	4819
604.5754	4852
607.0421	4856
609.5042	4946
611.9675	4841
614.4282	4869
616.8902	4920
619.3515	4845
621.8122	4784
624.2702	4866
626.7296	4709
629.1863	4784
631.6423	4844
634.1017	4776
636.5563	4817
639.0104	4803
641.4658	4845
643.9185	4838
646.3725	4800
648.8239	4902
651.2766	4826
653.7266	4877
656.176	4936
658.6247	4850
661.0748	4896
663.5242	4876
665.9709	4866
668.417	4942
670.8624	4870
673.3092	4936
675.7533	4933
678.1968	4853
680.6395	4911
683.0817	4990
685.5251	5041
687.9659	4899
690.4061	4976
692.8456	4989
695.2844	5014
697.7226	5083
700.1621	4960
702.599	4984
705.0332	4983
707.4688	4993
709.9036	5074
712.3399	5039
714.7735	5062
717.2044	5087
719.6367	5112
722.0683	5071
724.4993	5052
726.9296	5118
729.3593	5157
731.7883	5243
734.2147	5149
736.6423	5163
739.0714	5187
741.4958	5214
743.9216	5256
746.3447	5202
748.7691	5212
751.1929	5273
753.616	5209
756.0366	5334
758.4584	5315
760.8776	5281
763.2982	5351
765.718	5482
768.1373	5282
770.5539	5293
772.9698	5269
775.3871	5418
777.8038	5288
780.2178	5354
782.6332	5385
785.0459	5388
787.458	5380
789.8714	5388
792.2842	5431
794.6943	5361
797.1038	5288
799.5127	5349
801.9209	5361
804.3324	5466
806.7393	5532
809.1456	5425
811.5513	5565
813.9562	5458
816.3625	5463
818.7663	5482
821.1693	5439
823.5718	5462
825.9735	5352
828.3746	5448
830.7771	5322
833.177	5502
835.5762	5492
837.9747	5475
840.3727	5473
842.772	5506
845.1666	5411
847.5626	5478
849.958	5655
852.3527	5677
854.7488	5606
857.1403	5655
859.5331	5636
861.9253	5533
864.3168	5560
866.7057	5535
869.098	5741
871.4876	5638
873.8746	5706
876.263	5659
878.6487	5777
881.0378	5546
883.4243	5587
885.8081	5714
888.1933	5568
890.5759	5618
892.9598	5556
895.343	5618
897.7256	5653
900.1057	5581
902.4871	5526
904.8659	5587
907.246	5737
909.6254	5655
912.0023	5591
914.3786	5772
916.7562	5755
919.1331	5844
921.5074	5933
923.8831	5898
926.2562	5998
928.6287	5992
931.0005	6024
933.3757	6106
935.7462	5955
938.1162	6058
940.4855	6191
942.8542	6170
945.2242	6311
947.5916	6557
949.9584	6697
952.3266	7065
954.6921	7350
957.0571	7833
959.4233	8119
961.787	8259
964.15	8357
966.5125	7981
968.8742	7465
971.2354	6945
973.5959	6635
975.9559	6387
978.3151	6151
980.6738	6062
983.0338	5929
985.3912	5870
987.7461	5801
990.1022	5851
992.4578	5746
994.8127	5779
997.1689	5835
999.5207	5854
1001.874	5888
1004.226	5852
1006.576	5881
1008.929	5887
1011.28	5859
1013.628	5799
1015.977	5883
1018.324	5835
1020.674	5885
1023.019	5883
1025.366	5866
1027.713	5900
1030.056	5912
1032.399	5973
1034.746	6071
1037.087	6113
1039.431	5981
1041.771	6075
1044.113	6040
1046.454	5956
1048.793	6007
1051.133	5945
1053.471	6054
1055.807	6050
1058.146	6066
1060.483	6076
1062.818	6220
1065.153	6036
1067.489	6196
1069.822	6154
1072.156	6175
1074.488	6253
1076.82	6159
1079.15	6208
1081.48	6138
1083.814	6082
1086.143	6120
1088.471	5970
1090.799	5911
1093.126	6015
1095.452	5938
1097.78	6041
1100.105	5864
1102.43	6039
1104.754	5968
1107.077	5936
1109.4	5946
1111.722	6020
1114.044	5968
1116.365	6062
1118.685	5957
1121.005	6001
1123.324	5954
1125.643	6012
1127.961	5888
1130.278	5978
1132.595	5905
1134.911	5922
1137.226	5855
1139.541	6003
1141.854	5890
1144.167	5926
1146.482	6034
1148.793	5938
1151.105	5859
1153.414	5954
1155.725	5905
1158.033	6033
1160.344	5941
1162.651	5991
1164.959	5950
1167.265	6017
1169.572	5918
1171.878	5954
1174.184	5962
1176.488	6001
1178.79	6100
1181.094	6014
1183.396	5988
1185.699	5964
1188.001	6053
1190.301	5995
1192.6	5889
1194.9	5948
1197.2	5864
1199.497	5982
1201.794	5903
1204.09	6022
1206.387	5976
1208.684	5998
1210.978	5992
1213.272	5880
1215.565	6101
1217.858	5998
1220.15	5967
1222.443	6027
1224.734	5989
1227.024	6125
1229.313	6136
1231.602	6059
1233.892	6148
1236.18	6239
1238.467	6306
1240.754	6217
1243.04	6247
1245.325	6249
1247.612	6331
1249.896	6262
1252.178	6233
1254.461	6336
1256.743	6260
1259.027	6311
1261.308	6276
1263.587	6335
1265.867	6264
1268.146	6330
1270.425	6232
1272.703	6406
1274.981	6221
1277.256	6277
1279.532	6179
1281.808	6242
1284.083	6300
1286.358	6188
1288.63	6139
1290.904	6068
1293.175	6198
1295.449	6163
1297.719	6170
1299.99	6107
1302.259	6067
1304.529	6216
1306.798	6192
1309.065	6051
1311.333	6115
1313.599	6286
1315.866	6123
1318.131	6074
1320.396	6246
1322.66	6205
1324.925	6196
1327.187	6155
1329.448	6233
1331.711	6177
1333.974	6194
1336.234	6092
1338.493	6088
1340.752	6159
1343.01	6210
1345.269	6149
1347.526	6121
1349.784	6104
1352.04	6094
1354.295	6122
1356.552	6204
1358.806	6113
1361.059	6082
1363.312	6122
1365.564	6091
1367.818	6146
1370.069	6191
1372.318	6103
1374.568	6189
1376.817	6236
1379.066	6141
1381.316	6258
1383.564	6136
1385.809	6222
1388.056	6263
1390.301	6180
1392.549	6331
1394.793	6341
1397.036	6232
1399.279	6431
1401.522	6360
1403.763	6356
1406.007	6280
1408.248	6395
1410.487	6357
1412.727	6399
1414.965	6378
1417.205	6504
1419.442	6254
1421.68	6399
1423.915	6470
1426.152	6414
1428.388	6491
1430.623	6443
1432.857	6385
1435.091	6533
1437.323	6506
1439.556	6369
1441.789	6498
1444.019	6542
1446.25	6509
1448.48	6486
1450.708	6626
1452.938	6631
1455.167	6530
1457.394	6488
1459.62	6627
1461.846	6497
1464.073	6509
1466.299	6593
1468.523	6495
1470.746	6569
1472.969	6409
1475.191	6364
1477.415	6447
1479.636	6389
1481.858	6253
1484.078	6248
1486.298	6242
1488.518	6309
1490.736	6163
1492.954	6228
1495.169	6137
1497.386	6235
1499.602	6233
1501.819	6055
1504.034	6209
1506.248	6143
1508.462	6261
1510.675	6103
1512.888	6117
1515.1	6090
1517.311	6133
1519.522	6094
1521.732	6088
1523.942	6198
1526.151	6197
1528.36	6148
1530.566	6085
1532.773	6235
1534.98	6166
1537.187	6142
1539.392	6121
1541.596	6125
1543.801	6237
1546.005	6213
1548.208	6199
1550.411	6302
1552.612	6227
1554.814	6149
1557.013	6215
1559.212	6256
1561.414	6277
1563.612	6293
1565.811	6246
1568.007	6255
1570.203	6243
1572.403	6232
1574.598	6321
1576.792	6245
1578.988	6296
1581.181	6378
1583.376	6322
1585.568	6370
1587.761	6294
1589.952	6295
1592.143	6373
1594.333	6349
1596.524	6409
1598.715	6364
1600.903	6302
1603.091	6386
1605.278	6424
1607.466	6334
1609.652	6361
1611.838	6348
1614.023	6468
1616.207	6379
1618.391	6380
1620.576	6391
1622.759	6517
1624.941	6467
1627.123	6504
1629.304	6426
1631.484	6482
1633.664	6470
1635.844	6475
1638.022	6607
1640.201	6615
1642.38	6577
1644.556	6427
1646.732	6544
1648.908	6473
1651.084	6568
1653.257	6499
1655.433	6624
1657.607	6536
1659.779	6597
1661.951	6422
1664.122	6618
1666.295	6610
1668.467	6577
1670.635	6685
1672.805	6538
1674.973	6585
1677.142	6600
1679.31	6554
1681.478	6548
1683.644	6665
1685.81	6647
1687.975	6533
1690.142	6462
1692.305	6483
1694.468	6526
1696.632	6509
1698.794	6624
1700.957	6434
1703.119	6377
1705.279	6340
1707.439	6474
1709.598	6350
1711.758	6323
1713.917	6341
1716.075	6293
1718.231	6284
1720.388	6463
1722.543	6452
1724.702	6346
1726.856	6336
1729.01	6333
1731.164	6251
1733.317	6301
1735.471	6340
1737.623	6358
1739.774	6363
1741.925	6265
1744.075	6384
1746.225	6390
1748.376	6492
1750.524	6317
1752.672	6346
1754.82	6325
1756.965	6253
1759.113	6402
1761.259	6338
1763.405	6316
1765.549	6481
1767.694	6330
1769.836	6396
1771.981	6492
1774.123	6468
1776.264	6282
1778.405	6376
1780.546	6359
1782.687	6456
1784.827	6479
1786.966	6396
1789.103	6435
1791.242	6369
1793.381	6438
1795.517	6439
1797.653	6468
1799.788	6461
1801.923	6312
1804.057	6431
1806.193	6435
1808.326	6450
1810.457	6462
1812.59	6457
1814.721	6403
1816.855	6334
1818.984	6403
1821.113	6362
1823.244	6360
1825.372	6447
1827.499	6343
1829.63	6401
1831.756	6444
1833.882	6374
1836.007	6335
1838.132	6365
1840.26	6451
1842.384	6284
1844.507	6236
1846.63	6466
1848.752	6337
1850.875	6429
1852.996	6398
1855.118	6381
1857.238	6319
1859.358	6383
1861.477	6364
1863.597	6438
1865.715	6381
1867.832	6285
1869.948	6301
1872.064	6373
1874.181	6320
1876.297	6404
1878.411	6323
1880.526	6374
1882.639	6349
1884.752	6288
1886.865	6385
1888.977	6359
1891.089	6265
1893.2	6292
1895.308	6288
1897.42	6309
1899.53	6403
1901.639	6395
1903.745	6352
1905.853	6385
1907.962	6320
1910.067	6456
1912.174	6462
1914.278	6525
1916.383	6397
1918.486	6424
1920.592	6522
1922.694	6512
1924.797	6444
1926.898	6436
1929	6423
1931.102	6472
1933.203	6584
1935.301	6371
1937.401	6465
1939.499	6547
1941.598	6517
1943.697	6529
1945.793	6446
1947.888	6493
1949.985	6327
1952.08	6481
1954.176	6335
1956.269	6472
1958.364	6428
1960.457	6365
1962.549	6462
1964.642	6335
1966.733	6534
1968.823	6411
1970.913	6383
1973.005	6497
1975.093	6435
1977.184	6342
1979.271	6359
1981.359	6398
1983.446	6445
1985.532	6492
1987.619	6323
1989.705	6416
1991.789	6264
1993.874	6399
1995.956	6447
1998.041	6450
2000.123	6388
2002.206	6400
2004.287	6322
2006.368	6324
2008.449	6289
2010.529	6373
2012.609	6423
2014.688	6399
2016.766	6311
2018.843	6261
2020.922	6315
2022.999	6329
2025.074	6300
2027.15	6358
2029.225	6511
2031.299	6241
2033.375	6374
2035.447	6423
2037.52	6439
2039.592	6392
2041.664	6433
2043.736	6355
2045.807	6370
2047.876	6298
2049.947	6430
2052.015	6399
2054.086	6350
2056.153	6462
2058.221	6435
2060.288	6479
2062.353	6369
2064.42	6254
2066.486	6319
2068.55	6406
2070.614	6348
2072.678	6350
2074.741	6414
2076.805	6432
2078.866	6498
2080.929	6329
2082.99	6466
2085.049	6448
2087.109	6314
2089.17	6418
2091.228	6404
2093.286	6398
2095.344	6499
2097.4	6404
2099.46	6443
2101.516	6429
2103.572	6452
2105.626	6421
2107.679	6364
2109.735	6369
2111.788	6455
2113.841	6467
2115.894	6506
2117.945	6413
2119.997	6437
2122.049	6268
2124.1	6487
2126.148	6375
2128.197	6379
2130.246	6386
2132.296	6397
2134.342	6392
2136.39	6528
2138.437	6376
2140.483	6479
2142.527	6213
2144.574	6404
2146.619	6452
2148.661	6327
2150.705	6235
2152.747	6426
2154.792	6314
2156.832	6384
2158.874	6418
2160.915	6299
2162.954	6364
2164.995	6324
2167.034	6425
2169.072	6338
2171.111	6240
2173.148	6383
2175.186	6349
2177.223	6408
2179.258	6413
2181.294	6302
2183.328	6326
2185.362	6261
2187.398	6214
2189.431	6342
2191.463	6317
2193.495	6180
2195.528	6249
2197.56	6233
2199.59	6209
2201.62	6191
2203.649	6267
2205.678	6271
2207.708	6197
2209.737	6350
2211.764	6308
2213.791	6229
2215.817	6264
2217.843	6244
2219.87	6259
2221.895	6217
2223.919	6181
2225.942	6236
2227.966	6207
2229.988	6200
2232.012	6225
2234.032	6334
2236.054	6122
2238.074	6212
2240.095	6227
2242.116	6203
2244.135	6307
2246.153	6219
2248.171	6140
2250.188	6223
2252.208	6224
2254.223	6211
2256.239	6234
2258.255	6275
2260.269	6220
2262.283	6257
2264.3	6300
2266.312	6143
2268.325	6273
2270.336	6136
2272.349	6237
2274.362	6192
2276.372	6239
2278.383	6072
2280.392	6223
2282.402	6298
2284.409	6328
2286.418	6127
2288.427	6241
2290.433	6214
2292.441	6152
2294.446	6270
2296.453	6155
2298.459	6198
2300.463	6199
2302.466	6151
2304.471	6163
2306.475	6230
2308.477	6214
2310.478	6202
2312.481	6256
2314.481	6129
2316.481	6091
2318.482	6158
2320.482	6283
2322.48	6229
2324.48	6102
2326.478	6147
2328.476	6114
2330.473	6169
2332.469	6087
2334.465	6074
2336.46	6090
2338.454	6094
2340.45	6107
2342.444	6093
2344.437	6127
2346.43	6222
2348.421	6095
2350.414	6107
2352.405	6136
2354.396	6101
2356.386	6031
2358.376	6142
2360.366	6119
2362.355	6053
2364.343	6107
2366.331	6044
2368.317	5936
2370.304	6060
2372.292	6014
2374.278	5953
2376.262	6181
2378.247	6105
2380.23	6077
2382.216	6085
2384.199	5976
2386.181	6047
2388.163	6068
2390.144	5907
2392.127	5963
2394.107	6016
2396.087	6103
2398.066	6021
2400.046	6050
2402.023	5893
2404.004	6022
2405.981	5947
2407.957	5974
2409.934	5920
2411.91	5982
2413.886	5994
2415.862	6007
2417.836	6036
2419.809	6011
2421.784	6002
2423.756	5984
2425.73	6002
2427.701	6006
2429.672	5996
2431.644	5903
2433.615	6059
2435.586	5971
2437.555	6070
2439.523	6063
2441.491	6010
2443.459	6045
2445.428	5945
2447.395	5877
2449.361	5916
2451.327	5981
2453.292	5948
2455.257	6051
2457.223	5983
2459.187	5992
2461.15	5946
2463.113	5873
2465.076	5894
2467.039	5913
2468.999	5938
2470.96	5824
2472.921	5910
2474.881	5825
2476.841	5835
2478.8	5861
2480.759	5872
2482.717	5831
2484.675	5869
2486.63	5910
2488.589	5945
2490.545	5995
2492.5	5899
2494.455	5868
2496.408	5784
2498.364	5851
2500.318	5926
2502.27	5913
2504.223	5948
2506.174	5912
2508.126	5851
2510.078	5885
2512.03	5835
2513.979	5832
2515.927	5910
2517.877	5926
2519.826	5790
2521.775	5864
2523.722	5895
2525.668	5885
2527.616	5765
2529.561	5853
2531.508	5913
2533.452	5934
2535.398	5820
2537.342	5831
2539.284	5892
2541.229	6012
2543.173	5804
2545.114	5781
2547.055	5902
2548.996	5775
2550.938	5876
2552.878	5758
2554.817	5877
2556.756	5744
2558.695	5846
2560.633	5826
2562.572	5864
2564.509	5879
2566.445	5906
2568.382	5783
2570.317	5876
2572.254	5892
2574.189	5885
2576.123	5801
2578.057	5770
2579.99	5792
2581.923	5792
2583.855	5851
2585.788	5850
2587.719	5813
2589.65	5900
2591.579	5792
2593.511	5802
2595.44	5811
2597.37	5760
2599.297	5958
2601.225	5802
2603.153	5776
2605.08	5740
2607.007	5877
2608.932	5739
2610.858	5873
2612.782	5919
2614.709	5944
2616.632	5821
2618.556	5885
2620.478	5816
2622.401	5876
2624.324	5907
2626.247	5789
2628.167	5793
2630.088	5847
2632.008	5827
2633.928	5898
2635.848	5853
2637.766	5889
2639.684	5688
2641.603	5901
2643.519	5847
2645.437	5844
2647.353	5927
2649.27	5923
2651.184	5747
2653.099	5726
2655.014	5822
2656.928	5829
2658.842	5870
2660.755	5873
2662.667	5849
2664.579	5787
2666.491	5835
2668.402	5866
2670.312	5842
2672.222	5854
2674.132	5720
2676.042	5716
2677.951	5701
2679.859	5834
2681.766	5765
2683.674	5728
2685.582	5658
2687.488	5853
2689.392	5748
2691.298	5771
2693.202	5721
2695.107	5870
2697.012	5738
2698.914	5733
2700.817	5745
2702.72	5743
2704.622	5699
2706.524	5748
2708.425	5798
2710.326	5780
2712.225	5614
2714.125	5652
2716.024	5773
2717.923	5738
2719.822	5777
2721.719	5681
2723.616	5676
2725.512	5674
2727.41	5777
2729.305	5760
2731.201	5691
2733.095	5715
2734.99	5782
2736.884	5678
2738.778	5807
2740.67	5740
2742.562	5697
2744.455	5759
2746.346	5691
2748.238	5670
2750.129	5745
2752.018	5817
2753.907	5730
2755.797	5746
2757.687	5725
2759.575	5683
2761.462	5639
2763.349	5753
2765.237	5647
2767.124	5708
2769.009	5832
2770.894	5698
2772.779	5669
2774.663	5588
2776.547	5633
2778.431	5682
2780.314	5681
2782.197	5571
2784.078	5563
2785.96	5616
2787.842	5663
2789.723	5751
2791.603	5584
2793.483	5653
2795.362	5635
2797.241	5634
2799.121	5611
2800.997	5699
2802.874	5562
2804.751	5630
2806.628	5671
2808.506	5638
2810.38	5617
2812.255	5617
2814.13	5519
2816.003	5655
2817.878	5660
2819.752	5537
2821.623	5749
2823.496	5599
2825.368	5608
2827.238	5680
2829.111	5607
2830.98	5551
2832.851	5568
2834.719	5568
2836.589	5683
2838.458	5622
2840.327	5524
2842.193	5633
2844.061	5649
2845.927	5730
2847.794	5669
2849.66	5703
2851.525	5771
2853.39	5684
2855.254	5713
2857.117	5697
2858.983	5755
2860.845	5761
2862.707	5730
2864.569	5837
2866.431	5746
2868.293	5842
2870.154	5921
2872.013	6052
2873.873	5971
2875.733	6013
2877.592	6038
2879.451	6118
2881.309	6286
2883.166	6148
2885.022	6340
2886.879	6206
2888.736	6231
2890.591	6291
2892.446	6205
2894.301	6331
2896.155	6276
2898.009	6353
2899.863	6250
2901.716	6331
2903.568	6252
2905.419	6258
2907.27	6213
2909.123	6343
2910.973	6361
2912.824	6392
2914.673	6343
2916.521	6474
2918.372	6499
2920.22	6590
2922.067	6668
2923.914	6736
2925.761	6767
2927.607	6843
2929.455	6813
2931.301	6940
2933.144	7014
2934.99	6944
2936.833	7142
2938.678	7241
2940.522	7363
2942.364	7330
2944.207	7509
2946.048	7381
2947.891	7524
2949.731	7368
2951.571	7449
2953.412	7270
2955.25	7322
2957.09	7158
2958.93	7157
2960.767	7076
2962.606	6991
2964.443	6874
2966.279	6868
2968.116	6683
2969.953	6641
2971.788	6660
2973.623	6584
2975.457	6481
2977.292	6505
2979.127	6484
2980.959	6412
2982.792	6469
2984.624	6411
2986.455	6463
2988.288	6400
2990.119	6303
2991.949	6402
2993.779	6229
2995.608	6133
2997.439	6252
2999.268	6111
3001.096	5995
3002.923	6049
3004.751	5905
3006.578	5865
3008.406	5856
3010.232	5910
3012.057	5778
3013.883	5683
3015.706	5748
3017.532	5667
3019.356	5642
3021.179	5675
3023.002	5544
3024.823	5539
3026.646	5496
3028.469	5482
3030.289	5420
3032.11	5357
3033.93	5460
3035.749	5393
3037.57	5316
3039.39	5483
3041.207	5266
3043.026	5387
3044.842	5380
3046.661	5397
3048.477	5385
3050.294	5273
3052.109	5389
3053.925	5270
3055.739	5356
3057.555	5400
3059.368	5186
3061.181	5249
3062.995	5339
3064.807	5355
3066.62	5319
3068.433	5386
3070.243	5345
3072.054	5303
3073.865	5319
3075.675	5273
3077.485	5318
3079.293	5281
3081.102	5327
3082.911	5264
3084.719	5288
3086.527	5357
3088.333	5265
3090.139	5278
3091.945	5165
3093.75	5284
3095.557	5110
3097.361	5403
3099.165	5251
3100.969	5085
3102.772	5236
3104.575	5208
3106.379	5117
3108.181	5168
3109.982	5179
3111.783	5107
3113.584	5099
3115.386	5122
3117.186	5176
3118.985	5171
3120.783	5174
3122.582	5125
3124.381	5163
3126.179	5118
3127.975	5051
3129.772	5179
3131.569	5119
3133.365	5074
3135.161	5110
3136.956	5130
3138.751	5112
3140.544	5148
3142.338	5141
3144.132	5079
3145.925	5021
3147.717	5105
3149.509	4963
3151.301	5113
3153.091	5150
3154.884	5043
3156.673	5033
3158.462	5108
3160.252	5033
3162.041	5049
3163.831	5133
3165.618	5039
3167.405	5054
3169.193	5080
3170.979	4943
3172.767	5093
3174.553	5127
3176.338	5007
3178.123	5051
3179.907	5058
3181.692	5041
3183.477	5099
3185.259	5106
3187.042	5015
3188.824	5059
3190.607	4985
3192.389	5076
3194.17	5155
3195.951	5123
3197.73	5079
3199.51	4905
3201.289	5052
3203.07	5025
3204.848	5080
3206.626	5016
3208.403	4962
3210.18	5042
3211.959	5040
3213.735	5035
3215.511	5056
3217.285	4978
3219.06	5049
3220.836	4921
3222.611	5056
3224.384	4961
3226.158	4916
3227.929	4956
3229.702	4992
3231.476	5055
3233.248	4971
3235.018	4936
3236.789	5045
3238.56	5013
3240.33	5044
3242.1	5047
3243.869	5044
3245.637	5033
3247.405	5009
3249.172	4984
3250.941	5033
3252.707	5026
3254.474	4989
3256.24	5038
3258.006	5006
3259.772	4996
3261.537	5071
3263.301	5048
3265.065	5126
3266.828	5023
3268.592	5018
3270.355	5028
3272.117	5057
3273.878	4971
3275.64	4990
3277.401	5042
3279.162	4930
3280.922	4983
3282.682	5049
3284.441	4988
3286.199	5070
3287.959	4889
3289.716	5052
3291.475	5054
3293.232	5069
3294.988	5100
3296.744	5024
3298.501	5025
3300.256	4998
3302.011	4977
3303.766	5002
3305.52	5023
3307.275	4994
3309.028	4966
3310.781	4983
3312.533	5051
3314.285	4957
3316.038	5056
3317.789	4988
3319.54	5013
3321.289	4920
3323.039	4941
3324.789	4979
3326.539	5046
3328.288	4977
3330.035	5056
3331.783	4982
3333.531	4975
3335.28	4981
3337.025	4999
3338.771	4943
3340.518	4925
3342.262	4856
3344.009	5014
3345.753	5026
3347.497	4894
3349.24	4921
3350.983	4956
3352.726	4934
3354.469	4906
3356.212	4934
3357.952	4972
3359.694	4880
3361.434	4888
3363.176	4890
3364.916	4950
3366.654	4895
3368.394	4861
3370.132	4837
3371.871	4794
3373.61	4934
3375.346	4896
3377.083	4829
3378.82	4843
3380.556	4879
3382.292	4726
3384.027	4826
3385.763	4863
3387.497	4886
3389.231	4893
3390.965	4852
3392.698	4874
3394.431	4755
3396.164	4883
3397.896	4803
3399.627	4807
3401.36	4880
3403.09	4835
3404.82	4789
3406.55	4789
3408.279	4693
3410.01	4740
3411.738	4876
3413.467	4854
3415.194	4799
3416.92	4727
3418.647	4746
3420.375	4701
3422.102	4755
3423.827	4777
3425.553	4787
3427.277	4793
3429.003	4728
3430.727	4775
3432.451	4810
3434.173	4733
3435.896	4751
3437.62	4673
3439.343	4774
3441.063	4745
3442.785	4723
3444.505	4677
3446.226	4695
3447.948	4716
3449.666	4584
3451.386	4674
3453.104	4555
3454.823	4731
3456.541	4570
3458.259	4638
3459.976	4636
3461.693	4620
3463.408	4570
3465.125	4632
3466.841	4608
3468.556	4572
3470.271	4654
3471.985	4631
3473.698	4491
3475.414	4576
3477.126	4572
3478.838	4520
3480.55	4526
3482.263	4475
3483.975	4482
3485.686	4497
3487.396	4482
3489.106	4523
3490.817	4544
3492.526	4410
3494.236	4563
3495.944	4484
3497.652	4502
3499.359	4419
3501.066	4417
3502.775	4481
3504.481	4459
3506.187	4359
3507.893	4429
3509.598	4348
3511.304	4419
3513.009	4383
3514.713	4422
3516.417	4401
3518.12	4402
3519.821	4385
3521.525	4371
3523.228	4439
3524.929	4412
3526.631	4328
3528.33	4350
3530.032	4359
3531.733	4349
3533.433	4341
3535.131	4276
3536.83	4317
3538.529	4284
3540.227	4343
3541.925	4370
3543.623	4340
3545.319	4302
3547.016	4339
3548.712	4266
3550.408	4238
3552.103	4345
3553.798	4200
3555.491	4178
3557.188	4270
3558.88	4233
3560.574	4177
3562.266	4209
3563.959	4159
3565.651	4263
3567.343	4237
3569.035	4193
3570.725	4235
3572.415	4222
3574.106	4243
3575.797	4177
3577.485	4255
3579.174	4275
3580.863	4237
3582.551	4183
3584.238	4157
3585.926	4253
3587.613	4200
3589.3	4100
3590.986	4124
3592.671	4223
3594.357	4163
3596.042	4131
3597.726	4120
3599.41	4158
3601.094	4112
3602.778	3984
3604.461	4108
3606.143	4010
3607.825	4171
3609.507	3980
3611.188	4011
3612.87	4114
3614.551	4001
3616.229	4073
3617.909	4109
3619.589	4010
3621.269	3943
3622.948	3905
3624.625	3995
3626.302	3967
3627.98	3985
3629.657	4016
3631.334	3972
3633.01	3867
3634.686	3961
3636.361	3931
3638.036	3972
3639.712	3997
3641.385	3926
3643.06	3937
3644.732	3901
3646.405	3876
3648.08	3902
3649.751	3938
3651.424	3910
3653.094	3880
3654.766	3895
3656.436	3913
3658.106	3931
3659.777	3899
3661.446	3893
3663.115	3879
3664.783	3808
3666.452	3856
3668.121	3838
3669.788	3759
3671.454	3825
3673.121	3757
3674.789	3964
3676.455	3890
3678.12	3800
3679.784	3784
3681.45	3805
3683.114	3789
3684.779	3783
3686.442	3806
3688.105	3728
3689.768	3857
3691.43	3779
3693.093	3812
3694.754	3811
3696.415	3900
3698.076	3775
3699.736	3809
3701.396	3734
3703.057	3759
3704.716	3756
3706.375	3724
3708.034	3803
3709.692	3812
3711.351	3732
3713.008	3789
3714.665	3783
3716.321	3680
3717.977	3717
3719.634	3695
3721.29	3818
3722.945	3683
3724.598	3679
3726.253	3693
3727.907	3686
3729.561	3708
3731.214	3620
3732.867	3703
3734.518	3707
3736.171	3752
3737.824	3712
3739.474	3706
3741.125	3695
3742.775	3715
3744.425	3656
3746.074	3734
3747.725	3726
3749.373	3698
3751.022	3657
3752.669	3661
3754.318	3706
3755.966	3677
3757.612	3620
3759.259	3676
3760.905	3676
3762.55	3645
3764.197	3606
3765.842	3588
3767.486	3649
3769.131	3591
3770.774	3577
3772.417	3592
3774.061	3538
3775.705	3634
3777.347	3591
3778.988	3636
3780.629	3540
3782.271	3559
3783.912	3549
3785.552	3602
3787.192	3625
3788.831	3692
3790.472	3646
3792.112	3530
3793.75	3527
3795.388	3550
3797.024	3526
3798.661	3524
3800.3	3558
3801.936	3637
3803.572	3565
3805.208	3588
3806.844	3577
3808.48	3520
3810.115	3530
3811.748	3514
3813.382	3543
3815.016	3558
3816.649	3507
3818.283	3419
3819.914	3458
3821.547	3529
3823.178	3513
3824.809	3462
3826.441	3503
3828.072	3478
3829.701	3530
3831.331	3508
3832.96	3480
3834.591	3483
3836.219	3465
3837.847	3466
3839.475	3494
3841.102	3430
3842.729	3528
3844.357	3509
3845.984	3443
3847.609	3409
3849.234	3385
3850.86	3470
3852.485	3490
3854.11	3424
3855.734	3400
3857.357	3483
3858.981	3358
3860.603	3360
3862.227	3381
3863.848	3380
3865.471	3460
3867.092	3406
3868.713	3420
3870.334	3386
3871.954	3425
3873.575	3435
3875.194	3473
3876.813	3382
3878.433	3353
3880.051	3339
3881.669	3390
3883.286	3404
3884.904	3363
3886.52	3339
3888.138	3349
3889.754	3362
3891.37	3397
3892.985	3335
3894.6	3327
3896.216	3393
3897.831	3414
3899.444	3473
3901.058	3438
3902.67	3331
3904.283	3359
3905.897	3342
3907.509	3353
3909.121	3338
3910.731	3353
3912.342	3266
3913.954	3338
3915.563	3361
3917.174	3370
3918.783	3310
3920.391	3352
3922.002	3378
3923.611	3314
3925.218	3370
3926.826	3363
3928.432	3349
3930.039	3326
3931.647	3329
3933.253	3316
3934.859	3339
3936.464	3343
3938.068	3351
3939.675	3275
3941.278	3236
3942.883	3275
3944.486	3247
3946.089	3247
3947.692	3284
3949.295	3338
3950.898	3248
3952.499	3299
3954.1	3212
3955.7	3228
3957.303	3233
3958.903	3289
3960.502	3184
3962.101	3226
3963.7	3218
3965.301	3232
3966.899	3284
3968.497	3232
3970.094	3253
3971.691	3221
3973.288	3188
3974.885	3297
3976.481	3282
3978.077	3258
3979.672	3189
3981.267	3226
3982.863	3236
3984.457	3260
3986.051	3239
3987.645	3293
3989.238	3204
3990.831	3158
3992.425	3127
3994.017	3189
3995.607	3148
3997.199	3107
3998.79	3164
4000.382	3089
4001.973	3181
4003.561	3132
4005.151	3116
4006.741	3111
4008.331	3198
4009.918	3161
4011.507	3097
4013.095	3158
4014.681	3087
4016.269	3187
4017.856	3120
4019.443	3153
4021.028	3121
4022.614	3119
4024.199	3109
4025.785	3112
4027.37	3207
4028.953	3138
4030.536	3043
4032.12	3105
4033.704	3150
4035.287	3053
4036.869	3091
4038.45	3101
4040.032	3009
4041.613	3099
4043.195	3102
4044.776	3074
4046.356	3110
4047.935	3057
4049.515	3034
4051.095	3118
4052.674	2994
4054.251	3068
4055.829	2934
4057.406	3042
4058.985	3021
4060.562	3011
4062.139	2963
4063.715	3052
4065.29	3097
4066.865	3093
4068.442	3032
4070.016	3027
4071.59	3094
4073.164	2963
4074.738	3037
4076.312	2985
4077.885	2905
4079.458	3005
4081.03	3016
4082.602	2963
4084.173	2992
4085.745	3003
4087.315	2951
4088.886	3008
4090.456	2969
4092.026	2957
4093.596	2929
4095.165	2979
4096.734	2965
4098.301	3047
4099.869	2988
4101.437	2971
4103.006	2912
4104.572	2929
4106.139	2955
4107.704	3012
4109.27	2931
4110.837	2935
4112.401	2874
4113.966	2904
4115.53	2943
4117.094	2918
4118.659	2875
4120.223	2932
4121.785	2906
4123.347	2952
4124.909	2897
4126.471	2862
4128.034	2868
4129.595	2845
4131.155	2989
4132.716	2923
4134.275	2852
4135.836	2797
4137.395	2881
4138.955	2838
4140.513	2912
4142.071	2875
4143.628	2858
4145.188	2893
4146.745	2802
4148.302	2850
4149.858	2844
4151.414	2876
4152.971	2876
4154.526	2847
4156.081	2827
4157.635	2838
4159.189	2871
4160.745	2888
4162.298	2852
4163.852	2821
4165.405	2804
4166.957	2817
4168.51	2868
4170.063	2817
4171.614	2819
4173.166	2835
4174.717	2750
4176.267	2830
4177.817	2766
4179.368	2839
4180.917	2780
4182.466	2773
4184.016	2793
4185.564	2756
4187.112	2655
4188.66	2693
4190.207	2708
4191.754	2810
4193.301	2715
4194.848	2756
4196.394	2773
4197.94	2751
4199.484	2773
4201.03	2738
4202.575	2709
4204.12	2720
4205.663	2785
4207.207	2701
4208.75	2733
4210.292	2761
4211.836	2709
4213.378	2689
4214.92	2772
4216.46	2693
4218.002	2718
4219.544	2695
4221.083	2712
4222.625	2716
4224.164	2680
4225.703	2722
4227.244	2696
4228.782	2643
4230.32	2672
4231.857	2641
4233.395	2686
4234.933	2676
4236.471	2701
4238.007	2702
4239.542	2684
4241.078	2705
4242.614	2655
4244.15	2641
4245.685	2673
4247.219	2737
4248.753	2600
4250.287	2723
4251.82	2673
4253.354	2637
4254.887	2695
4256.419	2641
4257.951	2640
4259.483	2695
4261.016	2564
4262.547	2673
4264.078	2628
4265.608	2688
4267.137	2584
4268.668	2632
4270.197	2663
4271.727	2607
4273.254	2603
4274.783	2537
4276.311	2637
4277.84	2597
4279.366	2610
4280.894	2613
4282.42	2612
4283.946	2662
4285.473	2680
4286.998	2655
4288.523	2651
4290.047	2682
4291.572	2648
4293.096	2652
4294.622	2588
4296.144	2669
4297.668	2592
4299.19	2588
4300.713	2599
4302.236	2582
4303.758	2611
4305.279	2563
4306.799	2562
4308.321	2572
4309.842	2509
4311.361	2563
4312.882	2530
4314.401	2531
