400.0961	4479
402.6185	4534
405.1424	4440
407.6635	4517
410.1838	4500
412.7035	4516
415.2225	4554
417.7388	4538
420.2585	4620
422.7754	4600
425.2917	4719
427.8072	4695
430.3221	4721
432.8363	4738
435.3498	4728
437.8626	4783
440.3727	4745
442.8841	4870
445.3969	4721
447.907	4750
450.4142	4777
452.9229	4871
455.4289	4756
457.9362	4745
460.4449	4707
462.9488	4692
465.454	4838
467.9566	4745
470.4604	4805
472.9637	4705
475.4662	4833
477.966	4826
480.4671	4689
482.9656	4750
485.4633	4780
487.9645	4750
490.4608	4842
492.9566	4864
495.4536	4926
497.948	4796
500.4437	4827
502.9387	4823
505.431	4894
507.9226	4886
510.4136	4861
512.9079	4813
515.3975	4852
517.8864	4942
520.3746	4873
522.8622	4907
525.3491	4906
527.8394	4818
530.3249	4968
532.8098	4950
535.2939	4940
537.7774	5010
540.2623	4954
542.7444	4887
545.2259	4881
547.7067	4949
550.1868	4946
552.6683	5123
555.147	5002
557.6231	4971
560.1005	4968
562.5773	4971
565.0534	5031
567.5308	5001
570.0056	5017
572.4776	5019
574.951	5163
577.4237	5123
579.8978	5168
582.3671	5181
584.8378	5129
587.3079	5150
589.7773	5239
592.244	5203
594.714	5113
597.1793	5190
599.6461	5197
602.1121	5064
604.5754	5193
607.0421	5145
609.5042	5151
611.9675	5225
614.4282	5177
616.8902	5088
619.3515	5076
621.8122	5101
624.2702	5143
626.7296	5122
629.1863	5227
631.6423	5137
634.1017	5122
636.5563	5154
639.0104	5118
641.4658	5123
643.9185	5081
646.3725	5163
648.8239	5042
651.2766	5196
653.7266	5169
656.176	5128
658.6247	5148
661.0748	5180
663.5242	5231
665.9709	5122
668.417	5232
670.8624	5141
673.3092	5228
675.7533	5312
678.1968	5251
680.6395	5300
683.0817	5356
685.5251	5233
687.9659	5421
690.4061	5341
692.8456	5319
695.2844	5393
697.7226	5370
700.1621	5239
702.599	5258
705.0332	5334
707.4688	5408
709.9036	5351
712.3399	5450
714.7735	5448
717.2044	5359
719.6367	5441
722.0683	5390
724.4993	5573
726.9296	5523
729.3593	5464
731.7883	5463
734.2147	5521
736.6423	5374
739.0714	5412
741.4958	5563
743.9216	5510
746.3447	5499
748.7691	5526
751.1929	5575
753.616	5736
756.0366	5618
758.4584	5709
760.8776	5615
763.2982	5603
765.718	5669
768.1373	5710
770.5539	5705
772.9698	5614
775.3871	5627
777.8038	5808
780.2178	5724
782.6332	5657
785.0459	5737
787.458	5787
789.8714	5733
792.2842	5639
794.6943	5646
797.1038	5709
799.5127	5710
801.9209	5652
804.3324	5693
806.7393	5771
809.1456	5696
811.5513	5617
813.9562	5715
816.3625	5795
818.7663	5708
821.1693	5767
823.5718	5708
825.9735	5840
828.3746	5810
830.7771	5740
833.177	5709
835.5762	5750
837.9747	5829
840.3727	5852
842.772	5843
845.1666	5804
847.5626	5831
849.958	5914
852.3527	5986
854.7488	6016
857.1403	6068
859.5331	6002
861.9253	5886
864.3168	5849
866.7057	5996
869.098	5990
871.4876	5926
873.8746	5940
876.263	5898
878.6487	5834
881.0378	5914
883.4243	6035
885.8081	5957
888.1933	5985
890.5759	5887
892.9598	5857
895.343	5992
897.7256	5900
900.1057	5960
902.4871	5830
904.8659	5926
907.246	5988
909.6254	5972
912.0023	5986
914.3786	6169
916.7562	6151
919.1331	6244
921.5074	6279
923.8831	6294
926.2562	6380
928.6287	6264
931.0005	6332
933.3757	6233
935.7462	6296
938.1162	6263
940.4855	6280
942.8542	6402
945.2242	6439
947.5916	6703
949.9584	6709
952.3266	6976
954.6921	7170
957.0571	7381
959.4233	7602
961.787	7572
964.15	7568
966.5125	7408
968.8742	7233
971.2354	6923
973.5959	6609
975.9559	6504
978.3151	6381
980.6738	6270
983.0338	6241
985.3912	6188
987.7461	6321
990.1022	6205
992.4578	6120
994.8127	6139
997.1689	6100
999.5207	6174
1001.874	6290
1004.226	6198
1006.576	6249
1008.929	6036
1011.28	6109
1013.628	6295
1015.977	6138
1018.324	6193
1020.674	6132
1023.019	6241
1025.366	6285
1027.713	6227
1030.056	6255
1032.399	6344
1034.746	6246
1037.087	6322
1039.431	6346
1041.771	6298
1044.113	6217
1046.454	6323
1048.793	6240
1051.133	6313
1053.471	6248
1055.807	6263
1058.146	6306
1060.483	6335
1062.818	6392
1065.153	6396
1067.489	6436
1069.822	6403
1072.156	6406
1074.488	6472
1076.82	6421
1079.15	6412
1081.48	6229
1083.814	6278
1086.143	6357
1088.471	6358
1090.799	6254
1093.126	6274
1095.452	6295
1097.78	6299
1100.105	6263
1102.43	6287
1104.754	6189
1107.077	6318
1109.4	6316
1111.722	6315
1114.044	6226
1116.365	6329
1118.685	6258
1121.005	6329
1123.324	6330
1125.643	6280
1127.961	6410
1130.278	6407
1132.595	6281
1134.911	6352
1137.226	6271
1139.541	6329
1141.854	6296
1144.167	6308
1146.482	6356
1148.793	6329
1151.105	6280
1153.414	6320
1155.725	6316
1158.033	6451
1160.344	6289
1162.651	6400
1164.959	6246
1167.265	6398
1169.572	6372
1171.878	6402
1174.184	6500
1176.488	6238
1178.79	6437
1181.094	6404
1183.396	6437
1185.699	6381
1188.001	6477
1190.301	6306
1192.6	6353
1194.9	6285
1197.2	6325
1199.497	6310
1201.794	6427
1204.09	6309
1206.387	6327
1208.684	6378
1210.978	6414
1213.272	6461
1215.565	6396
1217.858	6426
1220.15	6306
1222.443	6355
1224.734	6341
1227.024	6439
1229.313	6409
1231.602	6537
1233.892	6598
1236.18	6479
1238.467	6546
1240.754	6583
1243.04	6745
1245.325	6604
1247.612	6606
1249.896	6686
1252.178	6619
1254.461	6723
1256.743	6693
1259.027	6691
1261.308	6708
1263.587	6617
1265.867	6612
1268.146	6666
1270.425	6756
1272.703	6643
1274.981	6662
1277.256	6705
1279.532	6632
1281.808	6594
1284.083	6473
1286.358	6691
1288.63	6585
1290.904	6436
1293.175	6521
1295.449	6640
1297.719	6445
1299.99	6617
1302.259	6499
1304.529	6645
1306.798	6492
1309.065	6589
1311.333	6589
1313.599	6492
1315.866	6559
1318.131	6534
1320.396	6580
1322.66	6517
1324.925	6462
1327.187	6538
1329.448	6515
1331.711	6764
1333.974	6699
1336.234	6553
1338.493	6551
1340.752	6590
1343.01	6522
1345.269	6571
1347.526	6618
1349.784	6468
1352.04	6539
1354.295	6413
1356.552	6577
1358.806	6467
1361.059	6665
1363.312	6616
1365.564	6506
1367.818	6658
1370.069	6616
1372.318	6643
1374.568	6546
1376.817	6605
1379.066	6594
1381.316	6627
1383.564	6748
1385.809	6789
1388.056	6708
1390.301	6771
1392.549	6673
1394.793	6770
1397.036	6933
1399.279	6872
1401.522	6905
1403.763	6877
1406.007	6736
1408.248	6918
1410.487	6853
1412.727	6966
1414.965	6756
1417.205	6819
1419.442	6874
1421.68	6825
1423.915	6825
1426.152	6937
1428.388	6760
1430.623	6726
1432.857	6776
1435.091	6960
1437.323	6923
1439.556	6953
1441.789	6959
1444.019	6929
1446.25	6903
1448.48	7074
1450.708	6975
1452.938	6969
1455.167	7090
1457.394	7030
1459.62	7022
1461.846	6945
1464.073	6983
1466.299	6846
1468.523	6954
1470.746	6838
1472.969	6799
1475.191	6743
1477.415	6764
1479.636	6753
1481.858	6703
1484.078	6756
1486.298	6660
1488.518	6664
1490.736	6584
1492.954	6621
1495.169	6603
1497.386	6592
1499.602	6632
1501.819	6606
1504.034	6538
1506.248	6582
1508.462	6707
1510.675	6692
1512.888	6675
1515.1	6541
1517.311	6557
1519.522	6566
1521.732	6502
1523.942	6490
1526.151	6504
1528.36	6533
1530.566	6459
1532.773	6613
1534.98	6622
1537.187	6561
1539.392	6594
1541.596	6591
1543.801	6669
1546.005	6644
1548.208	6599
1550.411	6741
1552.612	6652
1554.814	6703
1557.013	6666
1559.212	6671
1561.414	6677
1563.612	6785
1565.811	6666
1568.007	6789
1570.203	6821
1572.403	6703
1574.598	6626
1576.792	6845
1578.988	6719
1581.181	6754
1583.376	6799
1585.568	6794
1587.761	6741
1589.952	6702
1592.143	6787
1594.333	6875
1596.524	6797
1598.715	6821
1600.903	6841
1603.091	6858
1605.278	6859
1607.466	6825
1609.652	6857
1611.838	6794
1614.023	6716
1616.207	6759
1618.391	6820
1620.576	6753
1622.759	6818
1624.941	6856
1627.123	6816
1629.304	6872
1631.484	6932
1633.664	7027
1635.844	6896
1638.022	6975
1640.201	6883
1642.38	6826
1644.556	6873
1646.732	6973
1648.908	6846
1651.084	7028
1653.257	6819
1655.433	6818
1657.607	7037
1659.779	7062
1661.951	6980
1664.122	6943
1666.295	7062
1668.467	7092
1670.635	7002
1672.805	7053
1674.973	7017
1677.142	6982
1679.31	6981
1681.478	6984
1683.644	6986
1685.81	7029
1687.975	6952
1690.142	6912
1692.305	6828
1694.468	6838
1696.632	6940
1698.794	6961
1700.957	6818
1703.119	6831
1705.279	6715
1707.439	6851
1709.598	6876
1711.758	6830
1713.917	6778
1716.075	6798
1718.231	6838
1720.388	6881
1722.543	6845
1724.702	6843
1726.856	6742
1729.01	6738
1731.164	6753
1733.317	6845
1735.471	6715
1737.623	6798
1739.774	6786
1741.925	6781
1744.075	6855
1746.225	6805
1748.376	6676
1750.524	6841
1752.672	6897
1754.82	6729
1756.965	6726
1759.113	6815
1761.259	6845
1763.405	6739
1765.549	6872
1767.694	6772
1769.836	6878
1771.981	6810
1774.123	6828
1776.264	6893
1778.405	6890
1780.546	6860
1782.687	6854
1784.827	6870
1786.966	6792
1789.103	6901
1791.242	6967
1793.381	6830
1795.517	6964
1797.653	6700
1799.788	6851
1801.923	6980
1804.057	7051
1806.193	6871
1808.326	6814
1810.457	6894
1812.59	6867
1814.721	6775
1816.855	6867
1818.984	6872
1821.113	6930
1823.244	6854
1825.372	6801
1827.499	6757
1829.63	6861
1831.756	6696
1833.882	6987
1836.007	6854
1838.132	6810
1840.26	6792
1842.384	6767
1844.507	6758
1846.63	6774
1848.752	6737
1850.875	6814
1852.996	6778
1855.118	6849
1857.238	6703
1859.358	6844
1861.477	6855
1863.597	6813
1865.715	6871
1867.832	6834
1869.948	6780
1872.064	6890
1874.181	6782
1876.297	6801
1878.411	6742
1880.526	6817
1882.639	6843
1884.752	6809
1886.865	6781
1888.977	6787
1891.089	6788
1893.2	6702
1895.308	6953
1897.42	6946
1899.53	6877
1901.639	6796
1903.745	6862
1905.853	6912
1907.962	6814
1910.067	6906
1912.174	6854
1914.278	6909
1916.383	6836
1918.486	6825
1920.592	6852
1922.694	6933
1924.797	6918
1926.898	6914
1929	6936
1931.102	6885
1933.203	6828
1935.301	6849
1937.401	6857
1939.499	6867
1941.598	6893
1943.697	6787
1945.793	6773
1947.888	6978
1949.985	6868
1952.08	6910
1954.176	6793
1956.269	6898
1958.364	6894
1960.457	7006
1962.549	6975
1964.642	6889
1966.733	6924
1968.823	6798
1970.913	6983
1973.005	6839
1975.093	6895
1977.184	6816
1979.271	6932
1981.359	6762
1983.446	6812
1985.532	6900
1987.619	6904
1989.705	6770
1991.789	6868
1993.874	6884
1995.956	6880
1998.041	6782
2000.123	6822
2002.206	6804
2004.287	6821
2006.368	6761
2008.449	6801
2010.529	6900
2012.609	6799
2014.688	6836
2016.766	6783
2018.843	6757
2020.922	6829
2022.999	6880
2025.074	6759
2027.15	6794
2029.225	6852
2031.299	6917
2033.375	6776
2035.447	6973
2037.52	6675
2039.592	6887
2041.664	6929
2043.736	6761
2045.807	6877
2047.876	6805
2049.947	6796
2052.015	6801
2054.086	6826
2056.153	6915
2058.221	6816
2060.288	6725
2062.353	6861
2064.42	6843
2066.486	6789
2068.55	6842
2070.614	6864
2072.678	6823
2074.741	6785
2076.805	6837
2078.866	6886
2080.929	6963
2082.99	6791
2085.049	6897
2087.109	6911
2089.17	6768
2091.228	6891
2093.286	6746
2095.344	6865
2097.4	6849
2099.46	6891
2101.516	6905
2103.572	6943
2105.626	6843
2107.679	6807
2109.735	6860
2111.788	6881
2113.841	6826
2115.894	6870
2117.945	6841
2119.997	6830
2122.049	6865
2124.1	6839
2126.148	6919
2128.197	6900
2130.246	6820
2132.296	6750
2134.342	6882
2136.39	6973
2138.437	6788
2140.483	6891
2142.527	6813
2144.574	6705
2146.619	6762
2148.661	6648
2150.705	6862
2152.747	6892
2154.792	6940
2156.832	6914
2158.874	6852
2160.915	6760
2162.954	6730
2164.995	6716
2167.034	6731
2169.072	6793
2171.111	6742
2173.148	6680
2175.186	6719
2177.223	6652
2179.258	6770
2181.294	6811
2183.328	6793
2185.362	6852
2187.398	6738
2189.431	6723
2191.463	6654
2193.495	6831
2195.528	6698
2197.56	6699
2199.59	6768
2201.62	6672
2203.649	6747
2205.678	6791
2207.708	6745
2209.737	6755
2211.764	6812
2213.791	6670
2215.817	6776
2217.843	6736
2219.87	6700
2221.895	6708
2223.919	6678
2225.942	6627
2227.966	6668
2229.988	6690
2232.012	6812
2234.032	6803
2236.054	6748
2238.074	6679
2240.095	6815
2242.116	6719
2244.135	6764
2246.153	6772
2248.171	6791
2250.188	6727
2252.208	6613
2254.223	6707
2256.239	6831
2258.255	6740
2260.269	6718
2262.283	6834
2264.3	6747
2266.312	6738
2268.325	6672
2270.336	6743
2272.349	6776
2274.362	6804
2276.372	6780
2278.383	6766
2280.392	6726
2282.402	6747
2284.409	6823
2286.418	6730
2288.427	6715
2290.433	6717
2292.441	6746
2294.446	6701
2296.453	6654
2298.459	6799
2300.463	6626
2302.466	6671
2304.471	6779
2306.475	6759
2308.477	6729
2310.478	6732
2312.481	6757
2314.481	6723
2316.481	6745
2318.482	6603
2320.482	6799
2322.48	6765
2324.48	6664
2326.478	6738
2328.476	6668
2330.473	6717
2332.469	6740
2334.465	6860
2336.46	6647
2338.454	6728
2340.45	6649
2342.444	6664
2344.437	6632
2346.43	6656
2348.421	6700
2350.414	6580
2352.405	6717
2354.396	6722
2356.386	6571
2358.376	6582
2360.366	6623
2362.355	6711
2364.343	6538
2366.331	6551
2368.317	6645
2370.304	6537
2372.292	6621
2374.278	6657
2376.262	6722
2378.247	6622
2380.23	6574
2382.216	6654
2384.199	6547
2386.181	6726
2388.163	6588
2390.144	6566
2392.127	6695
2394.107	6501
2396.087	6530
2398.066	6605
2400.046	6713
2402.023	6450
2404.004	6629
2405.981	6540
2407.957	6605
2409.934	6571
2411.91	6491
2413.886	6422
2415.862	6617
2417.836	6556
2419.809	6471
2421.784	6598
2423.756	6505
2425.73	6684
2427.701	6476
2429.672	6566
2431.644	6617
2433.615	6415
2435.586	6501
2437.555	6424
2439.523	6609
2441.491	6407
2443.459	6594
2445.428	6471
2447.395	6422
2449.361	6453
2451.327	6390
2453.292	6485
2455.257	6532
2457.223	6511
2459.187	6525
2461.15	6447
2463.113	6498
2465.076	6371
2467.039	6657
2468.999	6436
2470.96	6481
2472.921	6437
2474.881	6421
2476.841	6400
2478.8	6416
2480.759	6526
2482.717	6499
2484.675	6393
2486.63	6427
2488.589	6418
2490.545	6385
2492.5	6400
2494.455	6436
2496.408	6407
2498.364	6399
2500.318	6460
2502.27	6351
2504.223	6472
2506.174	6371
2508.126	6437
2510.078	6231
2512.03	6387
2513.979	6238
2515.927	6424
2517.877	6292
2519.826	6219
2521.775	6371
2523.722	6286
2525.668	6412
2527.616	6391
2529.561	6384
2531.508	6322
2533.452	6309
2535.398	6310
2537.342	6361
2539.284	6289
2541.229	6472
2543.173	6283
2545.114	6323
2547.055	6282
2548.996	6261
2550.938	6308
2552.878	6358
2554.817	6226
2556.756	6278
2558.695	6226
2560.633	6249
2562.572	6310
2564.509	6311
2566.445	6319
2568.382	6292
2570.317	6357
2572.254	6297
2574.189	6314
2576.123	6231
2578.057	6295
2579.99	6265
2581.923	6287
2583.855	6325
2585.788	6197
2587.719	6390
2589.65	6240
2591.579	6278
2593.511	6289
2595.44	6291
2597.37	6250
2599.297	6220
2601.225	6301
2603.153	6266
2605.08	6227
2607.007	6300
2608.932	6221
2610.858	6275
2612.782	6276
2614.709	6332
2616.632	6222
2618.556	6279
2620.478	6340
2622.401	6324
2624.324	6277
2626.247	6284
2628.167	6296
2630.088	6282
2632.008	6304
2633.928	6369
2635.848	6361
2637.766	6230
2639.684	6321
2641.603	6288
2643.519	6265
2645.437	6413
2647.353	6248
2649.27	6229
2651.184	6253
2653.099	6350
2655.014	6070
2656.928	6202
2658.842	6202
2660.755	6313
2662.667	6295
2664.579	6246
2666.491	6271
2668.402	6185
2670.312	6224
2672.222	6195
2674.132	6298
2676.042	6223
2677.951	6234
2679.859	6180
2681.766	6267
2683.674	6245
2685.582	6218
2687.488	6154
2689.392	6295
2691.298	6219
2693.202	6172
2695.107	6227
2697.012	6099
2698.914	6204
2700.817	6120
2702.72	6092
2704.622	6198
2706.524	6180
2708.425	6151
2710.326	6172
2712.225	6077
2714.125	6117
2716.024	6066
2717.923	6096
2719.822	6213
2721.719	6146
2723.616	6119
2725.512	6092
2727.41	6164
2729.305	6084
2731.201	6066
2733.095	6153
2734.99	6109
2736.884	6135
2738.778	6097
2740.67	6194
2742.562	6046
2744.455	6112
2746.346	6123
2748.238	6041
2750.129	6101
2752.018	6093
2753.907	6080
2755.797	6097
2757.687	6148
2759.575	6047
2761.462	5980
2763.349	6079
2765.237	6018
2767.124	6025
2769.009	6108
2770.894	6028
2772.779	6112
2774.663	6130
2776.547	6134
2778.431	5980
2780.314	6025
2782.197	5992
2784.078	5984
2785.96	6019
2787.842	6037
2789.723	6048
2791.603	6011
2793.483	6107
2795.362	5989
2797.241	6061
2799.121	6100
2800.997	6004
2802.874	5999
2804.751	5967
2806.628	6012
2808.506	6032
2810.38	5978
2812.255	5922
2814.13	6010
2816.003	5978
2817.878	6107
2819.752	6031
2821.623	5922
2823.496	5919
2825.368	6064
2827.238	5886
2829.111	5901
2830.98	6013
2832.851	6015
2834.719	5858
2836.589	6018
2838.458	5973
2840.327	5857
2842.193	6040
2844.061	6000
2845.927	5955
2847.794	6067
2849.66	5948
2851.525	6099
2853.39	6107
2855.254	6014
2857.117	6077
2858.983	6097
2860.845	6099
2862.707	6070
2864.569	6073
2866.431	6259
2868.293	6262
2870.154	6145
2872.013	6237
2873.873	6268
2875.733	6374
2877.592	6425
2879.451	6515
2881.309	6558
2883.166	6536
2885.022	6534
2886.879	6727
2888.736	6592
2890.591	6675
2892.446	6653
2894.301	6704
2896.155	6478
2898.009	6642
2899.863	6651
2901.716	6590
2903.568	6553
2905.419	6659
2907.27	6547
2909.123	6582
2910.973	6648
2912.824	6513
2914.673	6702
2916.521	6729
2918.372	6869
2920.22	6819
2922.067	6915
2923.914	6939
2925.761	6999
2927.607	7017
2929.455	7096
2931.301	7087
2933.144	7151
2934.99	7087
2936.833	7280
2938.678	7255
2940.522	7239
2942.364	7505
2944.207	7471
2946.048	7553
2947.891	7702
2949.731	7455
2951.571	7584
2953.412	7705
2955.25	7462
2957.09	7396
2958.93	7260
2960.767	7336
2962.606	7244
2964.443	7277
2966.279	7165
2968.116	7014
2969.953	6935
2971.788	6889
2973.623	6756
2975.457	6738
2977.292	6730
2979.127	6558
2980.959	6620
2982.792	6479
2984.624	6648
2986.455	6686
2988.288	6594
2990.119	6416
2991.949	6533
2993.779	6398
2995.608	6324
2997.439	6232
2999.268	6322
3001.096	6248
3002.923	6266
3004.751	6089
3006.578	6049
3008.406	6026
3010.232	6090
3012.057	5957
3013.883	5988
3015.706	5954
3017.532	5917
3019.356	5880
3021.179	5968
3023.002	5815
3024.823	5817
3026.646	5921
3028.469	5708
3030.289	5725
3032.11	5723
3033.93	5710
3035.749	5723
3037.57	5710
3039.39	5728
3041.207	5770
3043.026	5617
3044.842	5714
3046.661	5706
3048.477	5654
3050.294	5654
3052.109	5680
3053.925	5734
3055.739	5624
3057.555	5647
3059.368	5730
3061.181	5605
3062.995	5662
3064.807	5669
3066.62	5719
3068.433	5713
3070.243	5552
3072.054	5611
3073.865	5630
3075.675	5581
3077.485	5603
3079.293	5582
3081.102	5565
3082.911	5540
3084.719	5563
3086.527	5629
3088.333	5595
3090.139	5489
3091.945	5448
3093.75	5453
3095.557	5457
3097.361	5515
3099.165	5508
3100.969	5491
3102.772	5448
3104.575	5582
3106.379	5400
3108.181	5346
3109.982	5461
3111.783	5428
3113.584	5452
3115.386	5367
3117.186	5405
3118.985	5443
3120.783	5441
3122.582	5381
3124.381	5341
3126.179	5378
3127.975	5419
3129.772	5379
3131.569	5471
3133.365	5369
3135.161	5379
3136.956	5302
3138.751	5355
3140.544	5416
3142.338	5287
3144.132	5319
3145.925	5322
3147.717	5298
3149.509	5326
3151.301	5336
3153.091	5249
3154.884	5379
3156.673	5316
3158.462	5272
3160.252	5258
3162.041	5341
3163.831	5293
3165.618	5295
3167.405	5300
3169.193	5281
3170.979	5156
3172.767	5256
3174.553	5258
3176.338	5284
3178.123	5197
3179.907	5217
3181.692	5275
3183.477	5323
3185.259	5259
3187.042	5289
3188.824	5270
3190.607	5304
3192.389	5344
3194.17	5319
3195.951	5119
3197.73	5157
3199.51	5265
3201.289	5179
3203.07	5256
3204.848	5210
3206.626	5287
3208.403	5266
3210.18	5211
3211.959	5247
3213.735	5255
3215.511	5146
3217.285	5280
3219.06	5254
3220.836	5119
3222.611	5205
3224.384	5251
3226.158	5308
3227.929	5135
3229.702	5343
3231.476	5164
3233.248	5204
3235.018	5154
3236.789	5197
3238.56	5209
3240.33	5193
3242.1	5179
3243.869	5221
3245.637	5302
3247.405	5161
3249.172	5251
3250.941	5181
3252.707	5154
3254.474	5201
3256.24	5232
3258.006	5181
3259.772	5169
3261.537	5160
3263.301	5217
3265.065	5150
3266.828	5219
3268.592	5283
3270.355	5186
3272.117	5255
3273.878	5248
3275.64	5246
3277.401	5272
3279.162	5179
3280.922	5290
3282.682	5171
3284.441	5218
3286.199	5242
3287.959	5139
3289.716	5202
3291.475	5169
3293.232	5212
3294.988	5113
3296.744	5141
3298.501	5121
3300.256	5150
3302.011	5139
3303.766	5099
3305.52	5165
3307.275	5241
3309.028	5157
3310.781	5236
3312.533	5150
3314.285	5169
3316.038	5188
3317.789	5285
3319.54	5125
3321.289	5188
3323.039	5156
3324.789	5146
3326.539	5172
3328.288	5204
3330.035	5139
3331.783	5157
3333.531	5133
3335.28	5118
3337.025	5039
3338.771	5122
3340.518	5024
3342.262	5041
3344.009	5075
3345.753	5189
3347.497	5145
3349.24	5076
3350.983	5122
3352.726	5063
3354.469	5102
3356.212	5026
3357.952	5101
3359.694	5074
3361.434	5062
3363.176	5032
3364.916	5002
3366.654	5053
3368.394	4965
3370.132	5190
3371.871	5005
3373.61	5075
3375.346	4999
3377.083	5037
3378.82	4940
3380.556	5114
3382.292	4994
3384.027	4949
3385.763	4948
3387.497	5056
3389.231	4929
3390.965	4999
3392.698	4994
3394.431	5005
3396.164	4872
3397.896	4883
3399.627	4945
3401.36	4895
3403.09	4962
3404.82	4976
3406.55	4913
3408.279	4901
3410.01	4904
3411.738	4861
3413.467	4877
3415.194	4944
3416.92	4936
3418.647	4898
3420.375	4898
3422.102	4962
3423.827	4876
3425.553	4900
3427.277	4834
3429.003	4877
3430.727	4835
3432.451	4870
3434.173	4913
3435.896	4795
3437.62	4808
3439.343	4884
3441.063	4755
3442.785	4795
3444.505	4801
3446.226	4777
3447.948	4828
3449.666	4823
3451.386	4763
3453.104	4735
3454.823	4879
3456.541	4796
3458.259	4717
3459.976	4813
3461.693	4784
3463.408	4712
3465.125	4706
3466.841	4766
3468.556	4671
3470.271	4697
3471.985	4684
3473.698	4686
3475.414	4661
3477.126	4671
3478.838	4670
3480.55	4628
3482.263	4660
3483.975	4675
3485.686	4705
3487.396	4688
3489.106	4672
3490.817	4584
3492.526	4667
3494.236	4664
3495.944	4552
3497.652	4567
3499.359	4589
3501.066	4503
3502.775	4579
3504.481	4620
3506.187	4605
3507.893	4569
3509.598	4482
3511.304	4570
3513.009	4474
3514.713	4568
3516.417	4541
3518.12	4563
3519.821	4589
3521.525	4467
3523.228	4489
3524.929	4473
3526.631	4480
3528.33	4525
3530.032	4498
3531.733	4529
3533.433	4513
3535.131	4564
3536.83	4465
3538.529	4484
3540.227	4490
3541.925	4496
3543.623	4441
3545.319	4530
3547.016	4481
3548.712	4413
3550.408	4436
3552.103	4445
3553.798	4441
3555.491	4455
3557.188	4396
3558.88	4348
3560.574	4347
3562.266	4482
3563.959	4435
3565.651	4455
3567.343	4361
3569.035	4436
3570.725	4394
3572.415	4396
3574.106	4407
3575.797	4389
3577.485	4414
3579.174	4351
3580.863	4337
3582.551	4378
3584.238	4461
3585.926	4313
3587.613	4406
3589.3	4342
3590.986	4322
3592.671	4293
3594.357	4248
3596.042	4280
3597.726	4297
3599.41	4375
3601.094	4193
3602.778	4234
3604.461	4201
3606.143	4292
3607.825	4233
3609.507	4184
3611.188	4224
3612.87	4307
3614.551	4176
3616.229	4236
3617.909	4197
3619.589	4215
3621.269	4193
3622.948	4099
3624.625	4272
3626.302	4182
3627.98	4243
3629.657	4178
3631.334	4156
3633.01	4176
3634.686	4146
3636.361	4184
3638.036	4091
3639.712	4125
3641.385	4125
3643.06	4097
3644.732	4095
3646.405	4081
3648.08	4113
3649.751	4160
3651.424	4121
3653.094	4028
3654.766	4018
3656.436	4091
3658.106	4183
3659.777	4048
3661.446	4064
3663.115	4106
3664.783	4050
3666.452	4112
3668.121	4093
3669.788	4043
3671.454	4030
3673.121	4103
3674.789	3997
3676.455	4104
3678.12	3972
3679.784	4129
3681.45	4036
3683.114	4101
3684.779	4036
3686.442	4033
3688.105	4014
3689.768	4041
3691.43	4043
3693.093	3954
3694.754	4039
3696.415	4063
3698.076	4035
3699.736	3934
3701.396	3963
3703.057	3972
3704.716	4008
3706.375	4004
3708.034	4000
3709.692	4010
3711.351	3882
3713.008	4020
3714.665	3994
3716.321	3906
3717.977	3901
3719.634	3946
3721.29	3932
3722.945	4000
3724.598	3962
3726.253	3899
3727.907	3903
3729.561	3912
3731.214	3954
3732.867	3920
3734.518	3913
3736.171	3949
3737.824	3914
3739.474	3894
3741.125	3900
3742.775	3995
3744.425	3873
3746.074	3826
3747.725	3932
3749.373	3908
3751.022	3848
3752.669	3867
3754.318	3743
3755.966	3806
3757.612	3806
3759.259	3776
3760.905	3799
3762.55	3870
3764.197	3836
3765.842	3753
3767.486	3892
3769.131	3868
3770.774	3792
3772.417	3803
3774.061	3921
3775.705	3861
3777.347	3768
3778.988	3762
3780.629	3824
3782.271	3845
3783.912	3820
3785.552	3830
3787.192	3782
3788.831	3844
3790.472	3699
3792.112	3759
3793.75	3713
3795.388	3771
3797.024	3748
3798.661	3777
3800.3	3669
3801.936	3711
3803.572	3745
3805.208	3758
3806.844	3781
3808.48	3837
3810.115	3769
3811.748	3781
3813.382	3796
3815.016	3822
3816.649	3698
3818.283	3725
3819.914	3776
3821.547	3729
3823.178	3696
3824.809	3718
3826.441	3580
3828.072	3700
3829.701	3661
3831.331	3712
3832.96	3694
3834.591	3649
3836.219	3633
3837.847	3646
3839.475	3637
3841.102	3647
3842.729	3614
3844.357	3643
3845.984	3604
3847.609	3738
3849.234	3560
3850.86	3643
3852.485	3643
3854.11	3687
3855.734	3580
3857.357	3617
3858.981	3660
3860.603	3572
3862.227	3655
3863.848	3606
3865.471	3593
3867.092	3668
3868.713	3713
3870.334	3684
3871.954	3597
3873.575	3616
3875.194	3567
3876.813	3608
3878.433	3555
3880.051	3527
3881.669	3619
3883.286	3549
3884.904	3594
3886.52	3590
3888.138	3490
3889.754	3622
3891.37	3578
3892.985	3587
3894.6	3573
3896.216	3557
3897.831	3518
3899.444	3444
3901.058	3469
3902.67	3510
3904.283	3543
3905.897	3501
3907.509	3513
3909.121	3551
3910.731	3489
3912.342	3453
3913.954	3499
3915.563	3451
3917.174	3559
3918.783	3489
3920.391	3525
3922.002	3508
3923.611	3471
3925.218	3540
3926.826	3547
3928.432	3526
3930.039	3493
3931.647	3463
3933.253	3436
3934.859	3493
3936.464	3568
3938.068	3519
3939.675	3501
3941.278	3488
3942.883	3483
3944.486	3520
3946.089	3449
3947.692	3486
3949.295	3451
3950.898	3446
3952.499	3421
3954.1	3431
3955.7	3443
3957.303	3428
3958.903	3358
3960.502	3385
3962.101	3376
3963.7	3474
3965.301	3380
3966.899	3385
3968.497	3367
3970.094	3425
3971.691	3368
3973.288	3386
3974.885	3324
3976.481	3251
3978.077	3364
3979.672	3368
3981.267	3326
3982.863	3388
3984.457	3360
3986.051	3421
3987.645	3352
3989.238	3320
3990.831	3394
3992.425	3278
3994.017	3348
3995.607	3369
3997.199	3326
3998.79	3389
4000.382	3322
4001.973	3326
4003.561	3374
4005.151	3290
4006.741	3286
4008.331	3353
4009.918	3261
4011.507	3356
4013.095	3267
4014.681	3248
4016.269	3311
4017.856	3301
4019.443	3330
4021.028	3249
4022.614	3302
4024.199	3242
4025.785	3225
4027.37	3296
4028.953	3271
4030.536	3256
4032.12	3201
4033.704	3244
4035.287	3178
4036.869	3240
4038.45	3218
4040.032	3204
4041.613	3278
4043.195	3174
4044.776	3203
4046.356	3159
4047.935	3176
4049.515	3171
4051.095	3235
4052.674	3217
4054.251	3149
4055.829	3182
4057.406	3113
4058.985	3095
4060.562	3171
4062.139	3198
4063.715	3120
4065.29	3153
4066.865	3139
4068.442	3149
4070.016	3181
4071.59	3129
4073.164	3092
4074.738	3227
4076.312	3120
4077.885	3156
4079.458	3170
4081.03	3129
4082.602	3135
4084.173	3160
4085.745	3166
4087.315	3084
4088.886	3065
4090.456	3199
4092.026	3092
4093.596	3080
4095.165	3114
4096.734	3042
4098.301	3051
4099.869	3155
4101.437	3128
4103.006	3037
4104.572	3097
4106.139	3023
4107.704	3035
4109.27	3031
4110.837	3075
4112.401	3021
4113.966	3043
4115.53	2993
4117.094	3048
4118.659	3099
4120.223	3030
4121.785	2954
4123.347	3107
4124.909	2999
4126.471	3047
4128.034	3016
4129.595	2990
4131.155	3008
4132.716	2978
4134.275	3009
4135.836	2999
4137.395	2941
4138.955	2979
4140.513	3023
4142.071	2997
4143.628	3012
4145.188	2952
4146.745	3024
4148.302	2943
4149.858	2900
4151.414	2934
4152.971	2920
4154.526	2982
4156.081	3028
4157.635	2956
4159.189	2957
4160.745	2976
4162.298	2895
4163.852	2956
4165.405	2839
4166.957	2832
4168.51	2998
4170.063	2921
4171.614	2966
4173.166	2963
4174.717	2934
4176.267	2901
4177.817	2925
4179.368	2802
4180.917	2881
4182.466	2902
4184.016	2856
4185.564	2911
4187.112	2842
4188.66	2931
4190.207	2959
4191.754	2865
4193.301	2962
4194.848	2902
4196.394	2876
4197.94	2861
4199.484	2757
4201.03	2834
4202.575	2805
4204.12	2902
4205.663	2868
4207.207	2853
4208.75	2807
4210.292	2815
4211.836	2825
4213.378	2827
4214.92	2849
4216.46	2831
4218.002	2824
4219.544	2866
4221.083	2823
4222.625	2799
4224.164	2785
4225.703	2823
4227.244	2846
4228.782	2756
4230.32	2795
4231.857	2793
4233.395	2801
4234.933	2788
4236.471	2881
4238.007	2765
4239.542	2750
4241.078	2831
4242.614	2732
4244.15	2781
4245.685	2804
4247.219	2815
4248.753	2702
4250.287	2724
4251.82	2816
4253.354	2796
4254.887	2735
4256.419	2792
4257.951	2741
4259.483	2708
4261.016	2767
4262.547	2736
4264.078	2728
4265.608	2731
4267.137	2798
4268.668	2804
4270.197	2755
4271.727	2746
4273.254	2721
4274.783	2715
4276.311	2713
4277.84	2772
4279.366	2620
4280.894	2679
4282.42	2701
4283.946	2701
4285.473	2627
4286.998	2698
4288.523	2723
4290.047	2730
4291.572	2720
4293.096	2691
4294.622	2736
4296.144	2674
4297.668	2625
4299.19	2651
4300.713	2712
4302.236	2728
4303.758	2757
4305.279	2648
4306.799	2672
4308.321	2673
4309.842	2644
4311.361	2666
4312.882	2685
4314.401	2651
