400.0961	6314
402.6185	6389
405.1424	6337
407.6635	6311
410.1838	6399
412.7035	6330
415.2225	6295
417.7388	6404
420.2585	6526
422.7754	6537
425.2917	6546
427.8072	6466
430.3221	6591
432.8363	6687
435.3498	6553
437.8626	6713
440.3727	6633
442.8841	6618
445.3969	6776
447.907	6702
450.4142	6685
452.9229	6594
455.4289	6666
457.9362	6813
460.4449	6674
462.9488	6647
465.454	6792
467.9566	6649
470.4604	6746
472.9637	6777
475.4662	6767
477.966	6811
480.4671	6916
482.9656	6907
485.4633	6964
487.9645	6919
490.4608	6776
492.9566	6899
495.4536	6910
497.948	6936
500.4437	6934
502.9387	6914
505.431	6931
507.9226	7033
510.4136	7134
512.9079	7118
515.3975	6986
517.8864	7023
520.3746	7072
522.8622	7025
525.3491	6967
527.8394	7101
530.3249	7106
532.8098	7108
535.2939	7214
537.7774	7135
540.2623	7300
542.7444	7094
545.2259	7131
547.7067	7114
550.1868	7089
552.6683	7226
555.147	7185
557.6231	7163
560.1005	7145
562.5773	7143
565.0534	7185
567.5308	7172
570.0056	7244
572.4776	7327
574.951	7187
577.4237	7334
579.8978	7159
582.3671	7239
584.8378	7237
587.3079	7361
589.7773	7329
592.244	7408
594.714	7227
597.1793	7429
599.6461	7295
602.1121	7515
604.5754	7280
607.0421	7312
609.5042	7407
611.9675	7390
614.4282	7367
616.8902	7433
619.3515	7338
621.8122	7273
624.2702	7338
626.7296	7328
629.1863	7297
631.6423	7476
634.1017	7373
636.5563	7307
639.0104	7420
641.4658	7445
643.9185	7405
646.3725	7541
648.8239	7398
651.2766	7451
653.7266	7566
656.176	7428
658.6247	7541
661.0748	7479
663.5242	7695
665.9709	7477
668.417	7566
670.8624	7628
673.3092	7574
675.7533	7596
678.1968	7517
680.6395	7649
683.0817	7756
685.5251	7662
687.9659	7716
690.4061	7653
692.8456	7771
695.2844	7713
697.7226	7732
700.1621	7719
702.599	7687
705.0332	7818
707.4688	7817
709.9036	7743
712.3399	7789
714.7735	7761
717.2044	7790
719.6367	7864
722.0683	7840
724.4993	7880
726.9296	7915
729.3593	7897
731.7883	7914
734.2147	7909
736.6423	8029
739.0714	8024
741.4958	8110
743.9216	7922
746.3447	8000
748.7691	8053
751.1929	7996
753.616	8119
756.0366	8136
758.4584	8168
760.8776	8112
763.2982	8224
765.718	8279
768.1373	8351
770.5539	8148
772.9698	8202
775.3871	8178
777.8038	8169
780.2178	8205
782.6332	8276
785.0459	8166
787.458	8261
789.8714	8198
792.2842	8287
794.6943	8126
797.1038	8268
799.5127	8153
801.9209	8221
804.3324	8333
806.7393	8332
809.1456	8310
811.5513	8287
813.9562	8286
816.3625	8392
818.7663	8234
821.1693	8265
823.5718	8380
825.9735	8409
828.3746	8298
830.7771	8332
833.177	8447
835.5762	8469
837.9747	8404
840.3727	8296
842.772	8450
845.1666	8487
847.5626	8412
849.958	8596
852.3527	8430
854.7488	8527
857.1403	8631
859.5331	8436
861.9253	8525
864.3168	8531
866.7057	8449
869.098	8549
871.4876	8486
873.8746	8490
876.263	8557
878.6487	8410
881.0378	8534
883.4243	8548
885.8081	8468
888.1933	8571
890.5759	8384
892.9598	8584
895.343	8566
897.7256	8542
900.1057	8389
902.4871	8451
904.8659	8576
907.246	8567
909.6254	8487
912.0023	8598
914.3786	8674
916.7562	8807
919.1331	8844
921.5074	8912
923.8831	8909
926.2562	8835
928.6287	9042
931.0005	8995
933.3757	8901
935.7462	8821
938.1162	8758
940.4855	8850
942.8542	8781
945.2242	8887
947.5916	9063
949.9584	8999
952.3266	8930
954.6921	9057
957.0571	9265
959.4233	9407
961.787	9395
964.15	9323
966.5125	9332
968.8742	9178
971.2354	9051
973.5959	8939
975.9559	8779
978.3151	9030
980.6738	8904
983.0338	8884
985.3912	8855
987.7461	8791
990.1022	8775
992.4578	8691
994.8127	8787
997.1689	8624
999.5207	8817
1001.874	8906
1004.226	8842
1006.576	8728
1008.929	8708
1011.28	8882
1013.628	8629
1015.977	8741
1018.324	8727
1020.674	8801
1023.019	8709
1025.366	8744
1027.713	8831
1030.056	8901
1032.399	8829
1034.746	8872
1037.087	8931
1039.431	8886
1041.771	8932
1044.113	8952
1046.454	8806
1048.793	8966
1051.133	8748
1053.471	8860
1055.807	8882
1058.146	8807
1060.483	8803
1062.818	8997
1065.153	9008
1067.489	8927
1069.822	8992
1072.156	8986
1074.488	8806
1076.82	9009
1079.15	8901
1081.48	8819
1083.814	9013
1086.143	9042
1088.471	9020
1090.799	9020
1093.126	8962
1095.452	9067
1097.78	9024
1100.105	8960
1102.43	8929
1104.754	8930
1107.077	9102
1109.4	9025
1111.722	9081
1114.044	9007
1116.365	9116
1118.685	9097
1121.005	9139
1123.324	9125
1125.643	9138
1127.961	9069
1130.278	9106
1132.595	9072
1134.911	9137
1137.226	9166
1139.541	8981
1141.854	9156
1144.167	8990
1146.482	9132
1148.793	9043
1151.105	9193
1153.414	9161
1155.725	8922
1158.033	9082
1160.344	9139
1162.651	9118
1164.959	9074
1167.265	9199
1169.572	9119
1171.878	9122
1174.184	9234
1176.488	9178
1178.79	9091
1181.094	9170
1183.396	9178
1185.699	9124
1188.001	9178
1190.301	9082
1192.6	9208
1194.9	9180
1197.2	9135
1199.497	9249
1201.794	9184
1204.09	9002
1206.387	9031
1208.684	9152
1210.978	9167
1213.272	9175
1215.565	9144
1217.858	9086
1220.15	9092
1222.443	9142
1224.734	9266
1227.024	9238
1229.313	9112
1231.602	9182
1233.892	9335
1236.18	9254
1238.467	9363
1240.754	9429
1243.04	9311
1245.325	9339
1247.612	9396
1249.896	9384
1252.178	9520
1254.461	9375
1256.743	9443
1259.027	9567
1261.308	9401
1263.587	9357
1265.867	9399
1268.146	9410
1270.425	9613
1272.703	9520
1274.981	9546
1277.256	9366
1279.532	9315
1281.808	9468
1284.083	9368
1286.358	9409
1288.63	9439
1290.904	9396
1293.175	9377
1295.449	9282
1297.719	9351
1299.99	9376
1302.259	9279
1304.529	9371
1306.798	9377
1309.065	9362
1311.333	9362
1313.599	9352
1315.866	9488
1318.131	9349
1320.396	9421
1322.66	9280
1324.925	9432
1327.187	9411
1329.448	9511
1331.711	9442
1333.974	9505
1336.234	9424
1338.493	9350
1340.752	9314
1343.01	9329
1345.269	9316
1347.526	9385
1349.784	9413
1352.04	9329
1354.295	9407
1356.552	9334
1358.806	9172
1361.059	9357
1363.312	9360
1365.564	9173
1367.818	9367
1370.069	9299
1372.318	9300
1374.568	9432
1376.817	9516
1379.066	9548
1381.316	9423
1383.564	9406
1385.809	9417
1388.056	9463
1390.301	9520
1392.549	9565
1394.793	9506
1397.036	9705
1399.279	9685
1401.522	9808
1403.763	9794
1406.007	9720
1408.248	9774
1410.487	9757
1412.727	9754
1414.965	9831
1417.205	9574
1419.442	9802
1421.68	9773
1423.915	9561
1426.152	9662
1428.388	9765
1430.623	9743
1432.857	9709
1435.091	9799
1437.323	9866
1439.556	9732
1441.789	9679
1444.019	9761
1446.25	9964
1448.48	9863
1450.708	9791
1452.938	9812
1455.167	9845
1457.394	9708
1459.62	9860
1461.846	9839
1464.073	9670
1466.299	9862
1468.523	9674
1470.746	9731
1472.969	9761
1475.191	9536
1477.415	9534
1479.636	9552
1481.858	9710
1484.078	9451
1486.298	9507
1488.518	9544
1490.736	9553
1492.954	9434
1495.169	9428
1497.386	9458
1499.602	9389
1501.819	9340
1504.034	9455
1506.248	9385
1508.462	9372
1510.675	9368
1512.888	9467
1515.1	9307
1517.311	9355
1519.522	9332
1521.732	9335
1523.942	9451
1526.151	9437
1528.36	9565
1530.566	9445
1532.773	9386
1534.98	9346
1537.187	9389
1539.392	9400
1541.596	9391
1543.801	9530
1546.005	9351
1548.208	9355
1550.411	9458
1552.612	9507
1554.814	9375
1557.013	9565
1559.212	9663
1561.414	9591
1563.612	9503
1565.811	9450
1568.007	9538
1570.203	9728
1572.403	9554
1574.598	9754
1576.792	9697
1578.988	9691
1581.181	9399
1583.376	9597
1585.568	9622
1587.761	9583
1589.952	9525
1592.143	9698
1594.333	9823
1596.524	9752
1598.715	9732
1600.903	9772
1603.091	9756
1605.278	9711
1607.466	9639
1609.652	9752
1611.838	9656
1614.023	9600
1616.207	9670
1618.391	9578
1620.576	9810
1622.759	9714
1624.941	9796
1627.123	9557
1629.304	9634
1631.484	9704
1633.664	9794
1635.844	9818
1638.022	9760
1640.201	9720
1642.38	9757
1644.556	9679
1646.732	9728
1648.908	9562
1651.084	9747
1653.257	9707
1655.433	9696
1657.607	9728
1659.779	9708
1661.951	9738
1664.122	9767
1666.295	9880
1668.467	9788
1670.635	9809
1672.805	9717
1674.973	9758
1677.142	9781
1679.31	9627
1681.478	9681
1683.644	9811
1685.81	9805
1687.975	9718
1690.142	9736
1692.305	9707
1694.468	9762
1696.632	9681
1698.794	9718
1700.957	9675
1703.119	9766
1705.279	9657
1707.439	9823
1709.598	9515
1711.758	9602
1713.917	9514
1716.075	9758
1718.231	9485
1720.388	9695
1722.543	9617
1724.702	9766
1726.856	9747
1729.01	9578
1731.164	9518
1733.317	9677
1735.471	9581
1737.623	9682
1739.774	9670
1741.925	9676
1744.075	9598
1746.225	9819
1748.376	9750
1750.524	9642
1752.672	9665
1754.82	9724
1756.965	9695
1759.113	9654
1761.259	9667
1763.405	9577
1765.549	9677
1767.694	9561
1769.836	9807
1771.981	9781
1774.123	9478
1776.264	9850
1778.405	9780
1780.546	9809
1782.687	9787
1784.827	9720
1786.966	9760
1789.103	9769
1791.242	9756
1793.381	9694
1795.517	9733
1797.653	9685
1799.788	9662
1801.923	9738
1804.057	9763
1806.193	9736
1808.326	9731
1810.457	9800
1812.59	9871
1814.721	9767
1816.855	9618
1818.984	9660
1821.113	9755
1823.244	9713
1825.372	9718
1827.499	9595
1829.63	9717
1831.756	9745
1833.882	9653
1836.007	9656
1838.132	9749
1840.26	9683
1842.384	9602
1844.507	9639
1846.63	9669
1848.752	9755
1850.875	9606
1852.996	9659
1855.118	9635
1857.238	9590
1859.358	9570
1861.477	9457
1863.597	9664
1865.715	9634
1867.832	9565
1869.948	9669
1872.064	9590
1874.181	9611
1876.297	9630
1878.411	9433
1880.526	9547
1882.639	9706
1884.752	9573
1886.865	9565
1888.977	9524
1891.089	9616
1893.2	9749
1895.308	9528
1897.42	9584
1899.53	9606
1901.639	9588
1903.745	9648
1905.853	9694
1907.962	9639
1910.067	9721
1912.174	9683
1914.278	9786
1916.383	9847
1918.486	9787
1920.592	9746
1922.694	9708
1924.797	9829
1926.898	9821
1929	9881
1931.102	9733
1933.203	9824
1935.301	9819
1937.401	9786
1939.499	9779
1941.598	9832
1943.697	9732
1945.793	9803
1947.888	9699
1949.985	9765
1952.08	9882
1954.176	9793
1956.269	9810
1958.364	9826
1960.457	9677
1962.549	9828
1964.642	9746
1966.733	9695
1968.823	9747
1970.913	9716
1973.005	9832
1975.093	9706
1977.184	9839
1979.271	9548
1981.359	9669
1983.446	9689
1985.532	9665
1987.619	9569
1989.705	9627
1991.789	9586
1993.874	9669
1995.956	9691
1998.041	9680
2000.123	9601
2002.206	9575
2004.287	9532
2006.368	9539
2008.449	9549
2010.529	9623
2012.609	9755
2014.688	9665
2016.766	9618
2018.843	9575
2020.922	9566
2022.999	9660
2025.074	9592
2027.15	9619
2029.225	9587
2031.299	9567
2033.375	9585
2035.447	9565
2037.52	9638
2039.592	9628
2041.664	9648
2043.736	9666
2045.807	9621
2047.876	9694
2049.947	9537
2052.015	9471
2054.086	9583
2056.153	9719
2058.221	9772
2060.288	9646
2062.353	9600
2064.42	9691
2066.486	9613
2068.55	9597
2070.614	9612
2072.678	9450
2074.741	9636
2076.805	9675
2078.866	9597
2080.929	9619
2082.99	9541
2085.049	9700
2087.109	9577
2089.17	9606
2091.228	9478
2093.286	9593
2095.344	9763
2097.4	9582
2099.46	9653
2101.516	9533
2103.572	9669
2105.626	9689
2107.679	9613
2109.735	9585
2111.788	9405
2113.841	9555
2115.894	9507
2117.945	9665
2119.997	9644
2122.049	9615
2124.1	9480
2126.148	9571
2128.197	9633
2130.246	9636
2132.296	9503
2134.342	9693
2136.39	9551
2138.437	9561
2140.483	9482
2142.527	9531
2144.574	9497
2146.619	9403
2148.661	9566
2150.705	9378
2152.747	9459
2154.792	9541
2156.832	9558
2158.874	9515
2160.915	9429
2162.954	9521
2164.995	9547
2167.034	9548
2169.072	9409
2171.111	9463
2173.148	9455
2175.186	9387
2177.223	9543
2179.258	9511
2181.294	9476
2183.328	9398
2185.362	9507
2187.398	9291
2189.431	9420
2191.463	9324
2193.495	9205
2195.528	9451
2197.56	9332
2199.59	9496
2201.62	9270
2203.649	9294
2205.678	9332
2207.708	9227
2209.737	9292
2211.764	9192
2213.791	9238
2215.817	9201
2217.843	9215
2219.87	9312
2221.895	9242
2223.919	9235
2225.942	9193
2227.966	9390
2229.988	9148
2232.012	9148
2234.032	9288
2236.054	9165
2238.074	9069
2240.095	9310
2242.116	9132
2244.135	9195
2246.153	9156
2248.171	9309
2250.188	9277
2252.208	9203
2254.223	9307
2256.239	9255
2258.255	9336
2260.269	9208
2262.283	9233
2264.3	9259
2266.312	9298
2268.325	9262
2270.336	9211
2272.349	9137
2274.362	9270
2276.372	9267
2278.383	9113
2280.392	9243
2282.402	9203
2284.409	9205
2286.418	9242
2288.427	9230
2290.433	9216
2292.441	9326
2294.446	9142
2296.453	9218
2298.459	9160
2300.463	9280
2302.466	9125
2304.471	9252
2306.475	9080
2308.477	9234
2310.478	9077
2312.481	9177
2314.481	9191
2316.481	9236
2318.482	9107
2320.482	9189
2322.48	9056
2324.48	9176
2326.478	9123
2328.476	9245
2330.473	9205
2332.469	9133
2334.465	9120
2336.46	9039
2338.454	9112
2340.45	9023
2342.444	8984
2344.437	9075
2346.43	8921
2348.421	8938
2350.414	8880
2352.405	9126
2354.396	9002
2356.386	9010
2358.376	9010
2360.366	8979
2362.355	8965
2364.343	8952
2366.331	8991
2368.317	8966
2370.304	9153
2372.292	9048
2374.278	8931
2376.262	8981
2378.247	8909
2380.23	8861
2382.216	8919
2384.199	8984
2386.181	8993
2388.163	8874
2390.144	8905
2392.127	8923
2394.107	8859
2396.087	8915
2398.066	8744
2400.046	8858
2402.023	8996
2404.004	8926
2405.981	8804
2407.957	8779
2409.934	8790
2411.91	8868
2413.886	8869
2415.862	8859
2417.836	8812
2419.809	8774
2421.784	8788
2423.756	8864
2425.73	8839
2427.701	8728
2429.672	8712
2431.644	8938
2433.615	8816
2435.586	8814
2437.555	8781
2439.523	8760
2441.491	8722
2443.459	8781
2445.428	8734
2447.395	8776
2449.361	8737
2451.327	8897
2453.292	8793
2455.257	8889
2457.223	8674
2459.187	8817
2461.15	8782
2463.113	8641
2465.076	8736
2467.039	8671
2468.999	8838
2470.96	8647
2472.921	8682
2474.881	8696
2476.841	8680
2478.8	8607
2480.759	8751
2482.717	8533
2484.675	8701
2486.63	8577
2488.589	8698
2490.545	8589
2492.5	8715
2494.455	8624
2496.408	8619
2498.364	8676
2500.318	8666
2502.27	8692
2504.223	8589
2506.174	8624
2508.126	8692
2510.078	8526
2512.03	8613
2513.979	8597
2515.927	8516
2517.877	8813
2519.826	8644
2521.775	8632
2523.722	8432
2525.668	8636
2527.616	8632
2529.561	8614
2531.508	8589
2533.452	8677
2535.398	8593
2537.342	8561
2539.284	8689
2541.229	8535
2543.173	8483
2545.114	8562
2547.055	8554
2548.996	8565
2550.938	8480
2552.878	8620
2554.817	8497
2556.756	8550
2558.695	8452
2560.633	8595
2562.572	8428
2564.509	8597
2566.445	8418
2568.382	8585
2570.317	8516
2572.254	8400
2574.189	8608
2576.123	8609
2578.057	8556
2579.99	8414
2581.923	8533
2583.855	8424
2585.788	8540
2587.719	8380
2589.65	8648
2591.579	8491
2593.511	8453
2595.44	8606
2597.37	8607
2599.297	8571
2601.225	8450
2603.153	8348
2605.08	8632
2607.007	8569
2608.932	8612
2610.858	8481
2612.782	8651
2614.709	8536
2616.632	8529
2618.556	8527
2620.478	8566
2622.401	8524
2624.324	8652
2626.247	8551
2628.167	8547
2630.088	8566
2632.008	8518
2633.928	8513
2635.848	8649
2637.766	8492
2639.684	8516
2641.603	8593
2643.519	8500
2645.437	8413
2647.353	8382
2649.27	8549
2651.184	8463
2653.099	8460
2655.014	8426
2656.928	8374
2658.842	8404
2660.755	8439
2662.667	8479
2664.579	8422
2666.491	8536
2668.402	8444
2670.312	8388
2672.222	8449
2674.132	8511
2676.042	8498
2677.951	8357
2679.859	8387
2681.766	8384
2683.674	8425
2685.582	8346
2687.488	8372
2689.392	8289
2691.298	8393
2693.202	8403
2695.107	8251
2697.012	8407
2698.914	8365
2700.817	8387
2702.72	8349
2704.622	8294
2706.524	8443
2708.425	8173
2710.326	8314
2712.225	8271
2714.125	8150
2716.024	8252
2717.923	8349
2719.822	8285
2721.719	8211
2723.616	8282
2725.512	8286
2727.41	8254
2729.305	8218
2731.201	8312
2733.095	8380
2734.99	8243
2736.884	8161
2738.778	8269
2740.67	8182
2742.562	8338
2744.455	8186
2746.346	8177
2748.238	8247
2750.129	8168
2752.018	8151
2753.907	8059
2755.797	8223
2757.687	8309
2759.575	8179
2761.462	8095
2763.349	8181
2765.237	8199
2767.124	8180
2769.009	8330
2770.894	8248
2772.779	8172
2774.663	8174
2776.547	8145
2778.431	8234
2780.314	8149
2782.197	8173
2784.078	8114
2785.96	8132
2787.842	8052
2789.723	8081
2791.603	8307
2793.483	8167
2795.362	8006
2797.241	8186
2799.121	8138
2800.997	7944
2802.874	8128
2804.751	7964
2806.628	8079
2808.506	8111
2810.38	8044
2812.255	8102
2814.13	8077
2816.003	8017
2817.878	8190
2819.752	8052
2821.623	8154
2823.496	8061
2825.368	8086
2827.238	7951
2829.111	8018
2830.98	8024
2832.851	8083
2834.719	8170
2836.589	8046
2838.458	8058
2840.327	8114
2842.193	8038
2844.061	7966
2845.927	8088
2847.794	8007
2849.66	8182
2851.525	8044
2853.39	8116
2855.254	8220
2857.117	8135
2858.983	8232
2860.845	8122
2862.707	8251
2864.569	8214
2866.431	8199
2868.293	8143
2870.154	8222
2872.013	8414
2873.873	8353
2875.733	8387
2877.592	8386
2879.451	8377
2881.309	8559
2883.166	8543
2885.022	8543
2886.879	8582
2888.736	8643
2890.591	8607
2892.446	8620
2894.301	8704
2896.155	8649
2898.009	8536
2899.863	8503
2901.716	8514
2903.568	8466
2905.419	8650
2907.27	8533
2909.123	8572
2910.973	8452
2912.824	8741
2914.673	8622
2916.521	8661
2918.372	8729
2920.22	8746
2922.067	8823
2923.914	8859
2925.761	8792
2927.607	8817
2929.455	8897
2931.301	8894
2933.144	8841
2934.99	8841
2936.833	8764
2938.678	8982
2940.522	8955
2942.364	9151
2944.207	9246
2946.048	9183
2947.891	9550
2949.731	9384
2951.571	9242
2953.412	9448
2955.25	9321
2957.09	9270
2958.93	9168
2960.767	9317
2962.606	9166
2964.443	9155
2966.279	9056
2968.116	8981
2969.953	8719
2971.788	8687
2973.623	8752
2975.457	8547
2977.292	8454
2979.127	8543
2980.959	8449
2982.792	8311
2984.624	8349
2986.455	8301
2988.288	8228
2990.119	8238
2991.949	8176
2993.779	8175
2995.608	8066
2997.439	8170
2999.268	8042
3001.096	8065
3002.923	7928
3004.751	7988
3006.578	7960
3008.406	7800
3010.232	7792
3012.057	7839
3013.883	7678
3015.706	7816
3017.532	7778
3019.356	7832
3021.179	7573
3023.002	7814
3024.823	7763
3026.646	7665
3028.469	7568
3030.289	7589
3032.11	7630
3033.93	7622
3035.749	7607
3037.57	7531
3039.39	7424
3041.207	7733
3043.026	7524
3044.842	7472
3046.661	7567
3048.477	7450
3050.294	7502
3052.109	7578
3053.925	7490
3055.739	7594
3057.555	7427
3059.368	7540
3061.181	7402
3062.995	7348
3064.807	7569
3066.62	7415
3068.433	7502
3070.243	7488
3072.054	7319
3073.865	7445
3075.675	7281
3077.485	7460
3079.293	7305
3081.102	7375
3082.911	7353
3084.719	7284
3086.527	7373
3088.333	7215
3090.139	7446
3091.945	7200
3093.75	7410
3095.557	7224
3097.361	7301
3099.165	7293
3100.969	7228
3102.772	7267
3104.575	7165
3106.379	7279
3108.181	7214
3109.982	7324
3111.783	7195
3113.584	7164
3115.386	7170
3117.186	7169
3118.985	7184
3120.783	7108
3122.582	7068
3124.381	7094
3126.179	7121
3127.975	7200
3129.772	7081
3131.569	7076
3133.365	7105
3135.161	7071
3136.956	7024
3138.751	7108
3140.544	6999
3142.338	7107
3144.132	7014
3145.925	7081
3147.717	7042
3149.509	6881
3151.301	7008
3153.091	7019
3154.884	6922
3156.673	7076
3158.462	7072
3160.252	7139
3162.041	6968
3163.831	7089
3165.618	6986
3167.405	6938
3169.193	7077
3170.979	6946
3172.767	7042
3174.553	6962
3176.338	6871
3178.123	6924
3179.907	7041
3181.692	6943
3183.477	6824
3185.259	6909
3187.042	6864
3188.824	6883
3190.607	6924
3192.389	6800
3194.17	6877
3195.951	6961
3197.73	6867
3199.51	6823
3201.289	6800
3203.07	6917
3204.848	6855
3206.626	6878
3208.403	6839
3210.18	6909
3211.959	6861
3213.735	6795
3215.511	6770
3217.285	6886
3219.06	6807
3220.836	6814
3222.611	6746
3224.384	6848
3226.158	6726
3227.929	6827
3229.702	6868
3231.476	6907
3233.248	6788
3235.018	6842
3236.789	6776
3238.56	6818
3240.33	6797
3242.1	6860
3243.869	6942
3245.637	6821
3247.405	6785
3249.172	6856
3250.941	6846
3252.707	6738
3254.474	6715
3256.24	6677
3258.006	6670
3259.772	6788
3261.537	6613
3263.301	6831
3265.065	6658
3266.828	6742
3268.592	6774
3270.355	6704
3272.117	6780
3273.878	6768
3275.64	6640
3277.401	6698
3279.162	6644
3280.922	6694
3282.682	6706
3284.441	6759
3286.199	6731
3287.959	6679
3289.716	6655
3291.475	6664
3293.232	6783
3294.988	6665
3296.744	6735
3298.501	6687
3300.256	6652
3302.011	6733
3303.766	6651
3305.52	6684
3307.275	6705
3309.028	6643
3310.781	6645
3312.533	6719
3314.285	6779
3316.038	6656
3317.789	6621
3319.54	6542
3321.289	6672
3323.039	6622
3324.789	6580
3326.539	6698
3328.288	6573
3330.035	6726
3331.783	6641
3333.531	6723
3335.28	6624
3337.025	6668
3338.771	6520
3340.518	6470
3342.262	6625
3344.009	6603
3345.753	6560
3347.497	6463
3349.24	6543
3350.983	6556
3352.726	6620
3354.469	6547
3356.212	6450
3357.952	6460
3359.694	6464
3361.434	6528
3363.176	6550
3364.916	6348
3366.654	6380
3368.394	6475
3370.132	6469
3371.871	6528
3373.61	6407
3375.346	6378
3377.083	6433
3378.82	6341
3380.556	6475
3382.292	6353
3384.027	6374
3385.763	6439
3387.497	6423
3389.231	6435
3390.965	6486
3392.698	6425
3394.431	6325
3396.164	6307
3397.896	6397
3399.627	6390
3401.36	6323
3403.09	6490
3404.82	6337
3406.55	6409
3408.279	6298
3410.01	6405
3411.738	6246
3413.467	6298
3415.194	6287
3416.92	6220
3418.647	6212
3420.375	6314
3422.102	6324
3423.827	6284
3425.553	6385
3427.277	6277
3429.003	6163
3430.727	6286
3432.451	6224
3434.173	6239
3435.896	6151
3437.62	6279
3439.343	6235
3441.063	6213
3442.785	6192
3444.505	6218
3446.226	6132
3447.948	6172
3449.666	6195
3451.386	6148
3453.104	6098
3454.823	6113
3456.541	6028
3458.259	6053
3459.976	6060
3461.693	6021
3463.408	6155
3465.125	5974
3466.841	6048
3468.556	6004
3470.271	5961
3471.985	6016
3473.698	6069
3475.414	6122
3477.126	6055
3478.838	5999
3480.55	6001
3482.263	5836
3483.975	5966
3485.686	5935
3487.396	6041
3489.106	5952
3490.817	5904
3492.526	5948
3494.236	5927
3495.944	5942
3497.652	5941
3499.359	6040
3501.066	5823
3502.775	5976
3504.481	5898
3506.187	5826
3507.893	5906
3509.598	5873
3511.304	5937
3513.009	5772
3514.713	5806
3516.417	5818
3518.12	5832
3519.821	5869
3521.525	5824
3523.228	5789
3524.929	5839
3526.631	5735
3528.33	5730
3530.032	5770
3531.733	5780
3533.433	5833
3535.131	5624
3536.83	5824
3538.529	5840
3540.227	5803
3541.925	5666
3543.623	5719
3545.319	5790
3547.016	5663
3548.712	5751
3550.408	5805
3552.103	5678
3553.798	5736
3555.491	5722
3557.188	5648
3558.88	5641
3560.574	5724
3562.266	5618
3563.959	5637
3565.651	5660
3567.343	5643
3569.035	5622
3570.725	5638
3572.415	5585
3574.106	5693
3575.797	5639
3577.485	5615
3579.174	5630
3580.863	5602
3582.551	5595
3584.238	5551
3585.926	5557
3587.613	5605
3589.3	5587
3590.986	5557
3592.671	5557
3594.357	5509
3596.042	5526
3597.726	5447
3599.41	5499
3601.094	5456
3602.778	5501
3604.461	5490
3606.143	5532
3607.825	5581
3609.507	5460
3611.188	5465
3612.87	5476
3614.551	5511
3616.229	5498
3617.909	5422
3619.589	5427
3621.269	5400
3622.948	5403
3624.625	5458
3626.302	5353
3627.98	5392
3629.657	5427
3631.334	5332
3633.01	5330
3634.686	5304
3636.361	5254
3638.036	5331
3639.712	5425
3641.385	5544
3643.06	5334
3644.732	5359
3646.405	5284
3648.08	5370
3649.751	5294
3651.424	5191
3653.094	5236
3654.766	5262
3656.436	5246
3658.106	5162
3659.777	5224
3661.446	5148
3663.115	5213
3664.783	5197
3666.452	5220
3668.121	5193
3669.788	5270
3671.454	5274
3673.121	5176
3674.789	5239
3676.455	5187
3678.12	5127
3679.784	5266
3681.45	5156
3683.114	5148
3684.779	5248
3686.442	5202
3688.105	5194
3689.768	5158
3691.43	5128
3693.093	5123
3694.754	5220
3696.415	5117
3698.076	5179
3699.736	5179
3701.396	5158
3703.057	5118
3704.716	5171
3706.375	5049
3708.034	5203
3709.692	5085
3711.351	5120
3713.008	5108
3714.665	5116
3716.321	5065
3717.977	5060
3719.634	5069
3721.29	5020
3722.945	5112
3724.598	5083
3726.253	5095
3727.907	5076
3729.561	5116
3731.214	5089
3732.867	5051
3734.518	5020
3736.171	5071
3737.824	5080
3739.474	5067
3741.125	5023
3742.775	5049
3744.425	5083
3746.074	4990
3747.725	5012
3749.373	5023
3751.022	5025
3752.669	5063
3754.318	5029
3755.966	4954
3757.612	4972
3759.259	4948
3760.905	4936
3762.55	4920
3764.197	4961
3765.842	4883
3767.486	4918
3769.131	4930
3770.774	4974
3772.417	4893
3774.061	4921
3775.705	4951
3777.347	4896
3778.988	4894
3780.629	4942
3782.271	4900
3783.912	4877
3785.552	4833
3787.192	4899
3788.831	4896
3790.472	4874
3792.112	4885
3793.75	4822
3795.388	4787
3797.024	4809
3798.661	4777
3800.3	4875
3801.936	4832
3803.572	4774
3805.208	4839
3806.844	4760
3808.48	4800
3810.115	4769
3811.748	4755
3813.382	4841
3815.016	4719
3816.649	4723
3818.283	4733
3819.914	4800
3821.547	4777
3823.178	4808
3824.809	4846
3826.441	4740
3828.072	4760
3829.701	4831
3831.331	4728
3832.96	4686
3834.591	4679
3836.219	4700
3837.847	4726
3839.475	4811
3841.102	4709
3842.729	4752
3844.357	4721
3845.984	4613
3847.609	4664
3849.234	4659
3850.86	4694
3852.485	4646
3854.11	4657
3855.734	4691
3857.357	4553
3858.981	4652
3860.603	4709
3862.227	4667
3863.848	4564
3865.471	4617
3867.092	4596
3868.713	4544
3870.334	4658
3871.954	4604
3873.575	4605
3875.194	4648
3876.813	4613
3878.433	4620
3880.051	4574
3881.669	4610
3883.286	4572
3884.904	4646
3886.52	4489
3888.138	4578
3889.754	4522
3891.37	4620
3892.985	4576
3894.6	4493
3896.216	4573
3897.831	4566
3899.444	4633
3901.058	4569
3902.67	4521
3904.283	4468
3905.897	4649
3907.509	4458
3909.121	4500
3910.731	4482
3912.342	4649
3913.954	4484
3915.563	4451
3917.174	4500
3918.783	4502
3920.391	4536
3922.002	4380
3923.611	4502
3925.218	4427
3926.826	4530
3928.432	4552
3930.039	4397
3931.647	4498
3933.253	4575
3934.859	4504
3936.464	4488
3938.068	4386
3939.675	4540
3941.278	4445
3942.883	4474
3944.486	4385
3946.089	4463
3947.692	4471
3949.295	4446
3950.898	4372
3952.499	4430
3954.1	4518
3955.7	4398
3957.303	4350
3958.903	4322
3960.502	4353
3962.101	4437
3963.7	4423
3965.301	4365
3966.899	4362
3968.497	4382
3970.094	4411
3971.691	4392
3973.288	4364
3974.885	4346
3976.481	4341
3978.077	4287
3979.672	4266
3981.267	4380
3982.863	4226
3984.457	4334
3986.051	4211
3987.645	4225
3989.238	4228
3990.831	4239
3992.425	4248
3994.017	4282
3995.607	4267
3997.199	4278
3998.79	4217
4000.382	4274
4001.973	4225
4003.561	4258
4005.151	4250
4006.741	4267
4008.331	4245
4009.918	4229
4011.507	4186
4013.095	4206
4014.681	4217
4016.269	4136
4017.856	4164
4019.443	4129
4021.028	4090
4022.614	4125
4024.199	4140
4025.785	4134
4027.37	4047
4028.953	4193
4030.536	4102
4032.12	4146
4033.704	4055
4035.287	4059
4036.869	4136
4038.45	4091
4040.032	4080
4041.613	4097
4043.195	4090
4044.776	4126
4046.356	4013
4047.935	4069
4049.515	4066
4051.095	4051
4052.674	4062
4054.251	4127
4055.829	4025
4057.406	3935
4058.985	3997
4060.562	4092
4062.139	4038
4063.715	4099
4065.29	3955
4066.865	3967
4068.442	4062
4070.016	4032
4071.59	3922
4073.164	3978
4074.738	3978
4076.312	3974
4077.885	3959
4079.458	4027
4081.03	3990
4082.602	3956
4084.173	4069
4085.745	4094
4087.315	4034
4088.886	3989
4090.456	3847
4092.026	3974
4093.596	3854
4095.165	3904
4096.734	4002
4098.301	3968
4099.869	3935
4101.437	3914
4103.006	3936
4104.572	3923
4106.139	3952
4107.704	3902
4109.27	3918
4110.837	3968
4112.401	3861
4113.966	3864
4115.53	3871
4117.094	3887
4118.659	3924
4120.223	3841
4121.785	3788
4123.347	3804
4124.909	3892
4126.471	3827
4128.034	3821
4129.595	3787
4131.155	3828
4132.716	3849
4134.275	3779
4135.836	3776
4137.395	3794
4138.955	3848
4140.513	3777
4142.071	3839
4143.628	3839
4145.188	3735
4146.745	3686
4148.302	3837
4149.858	3742
4151.414	3713
4152.971	3735
4154.526	3772
4156.081	3790
4157.635	3739
4159.189	3759
4160.745	3757
4162.298	3740
4163.852	3741
4165.405	3725
4166.957	3728
4168.51	3686
4170.063	3628
4171.614	3678
4173.166	3781
4174.717	3709
4176.267	3708
4177.817	3630
4179.368	3682
4180.917	3696
4182.466	3665
4184.016	3715
4185.564	3578
4187.112	3650
4188.66	3677
4190.207	3668
4191.754	3674
4193.301	3604
4194.848	3714
4196.394	3658
4197.94	3711
4199.484	3582
4201.03	3597
4202.575	3629
4204.12	3621
4205.663	3654
4207.207	3558
4208.75	3614
4210.292	3662
4211.836	3556
4213.378	3660
4214.92	3573
4216.46	3549
4218.002	3552
4219.544	3562
4221.083	3590
4222.625	3537
4224.164	3573
4225.703	3575
4227.244	3580
4228.782	3596
4230.32	3579
4231.857	3568
4233.395	3544
4234.933	3565
4236.471	3537
4238.007	3558
4239.542	3442
4241.078	3559
4242.614	3524
4244.15	3563
4245.685	3454
4247.219	3477
4248.753	3490
4250.287	3505
4251.82	3485
4253.354	3592
4254.887	3523
4256.419	3473
4257.951	3464
4259.483	3507
4261.016	3575
4262.547	3552
4264.078	3437
4265.608	3471
4267.137	3457
4268.668	3488
4270.197	3449
4271.727	3437
4273.254	3451
4274.783	3402
4276.311	3445
4277.84	3454
4279.366	3398
4280.894	3463
4282.42	3474
4283.946	3485
4285.473	3413
4286.998	3422
4288.523	3330
4290.047	3335
4291.572	3321
4293.096	3476
4294.622	3442
4296.144	3354
4297.668	3409
4299.19	3400
4300.713	3339
4302.236	3482
4303.758	3366
4305.279	3337
4306.799	3335
4308.321	3286
4309.842	3334
4311.361	3372
4312.882	3328
4314.401	3316
