400.0961	4696
402.6185	4627
405.1424	4657
407.6635	4674
410.1838	4591
412.7035	4687
415.2225	4703
417.7388	4749
420.2585	4851
422.7754	4795
425.2917	4776
427.8072	4818
430.3221	4968
432.8363	4963
435.3498	4949
437.8626	4951
440.3727	4925
442.8841	4970
445.3969	5007
447.907	5007
450.4142	4957
452.9229	5029
455.4289	4910
457.9362	5084
460.4449	5014
462.9488	4944
465.454	5031
467.9566	5099
470.4604	4936
472.9637	5085
475.4662	4950
477.966	4987
480.4671	4953
482.9656	5054
485.4633	5119
487.9645	4991
490.4608	5069
492.9566	5038
495.4536	5099
497.948	5147
500.4437	5012
502.9387	5061
505.431	5148
507.9226	5138
510.4136	5175
512.9079	5237
515.3975	5185
517.8864	5139
520.3746	5237
522.8622	5214
525.3491	5210
527.8394	5206
530.3249	5179
532.8098	5184
535.2939	5150
537.7774	5223
540.2623	5288
542.7444	5222
545.2259	5209
547.7067	5269
550.1868	5217
552.6683	5272
555.147	5258
557.6231	5167
560.1005	5196
562.5773	5248
565.0534	5261
567.5308	5289
570.0056	5365
572.4776	5215
574.951	5398
577.4237	5442
579.8978	5392
582.3671	5578
584.8378	5457
587.3079	5449
589.7773	5545
592.244	5479
594.714	5368
597.1793	5471
599.6461	5481
602.1121	5418
604.5754	5410
607.0421	5485
609.5042	5366
611.9675	5418
614.4282	5391
616.8902	5393
619.3515	5449
621.8122	5475
624.2702	5411
626.7296	5464
629.1863	5400
631.6423	5364
634.1017	5396
636.5563	5399
639.0104	5503
641.4658	5436
643.9185	5436
646.3725	5496
648.8239	5492
651.2766	5523
653.7266	5441
656.176	5572
658.6247	5547
661.0748	5558
663.5242	5568
665.9709	5553
668.417	5521
670.8624	5628
673.3092	5572
675.7533	5622
678.1968	5602
680.6395	5649
683.0817	5587
685.5251	5701
687.9659	5573
690.4061	5701
692.8456	5559
695.2844	5587
697.7226	5737
700.1621	5737
702.599	5611
705.0332	5749
707.4688	5702
709.9036	5718
712.3399	5643
714.7735	5772
717.2044	5775
719.6367	5807
722.0683	5797
724.4993	5742
726.9296	5819
729.3593	5931
731.7883	5864
734.2147	5870
736.6423	5777
739.0714	5869
741.4958	5852
743.9216	5885
746.3447	5977
748.7691	5954
751.1929	5940
753.616	5993
756.0366	5928
758.4584	6002
760.8776	5963
763.2982	5915
765.718	5971
768.1373	6108
770.5539	6015
772.9698	6017
775.3871	5979
777.8038	6146
780.2178	6116
782.6332	6006
785.0459	6144
787.458	6076
789.8714	5990
792.2842	5924
794.6943	6070
797.1038	6141
799.5127	5993
801.9209	5943
804.3324	6176
806.7393	6114
809.1456	6113
811.5513	6163
813.9562	6001
816.3625	6174
818.7663	6208
821.1693	6234
823.5718	6207
825.9735	6114
828.3746	6079
830.7771	6172
833.177	6185
835.5762	6133
837.9747	6180
840.3727	6197
842.772	6241
845.1666	6236
847.5626	6184
849.958	6260
852.3527	6303
854.7488	6239
857.1403	6287
859.5331	6254
861.9253	6302
864.3168	6143
866.7057	6257
869.098	6337
871.4876	6342
873.8746	6183
876.263	6317
878.6487	6214
881.0378	6127
883.4243	6206
885.8081	6320
888.1933	6210
890.5759	6345
892.9598	6210
895.343	6228
897.7256	6250
900.1057	6156
902.4871	6393
904.8659	6298
907.246	6240
909.6254	6373
912.0023	6312
914.3786	6416
916.7562	6514
919.1331	6551
921.5074	6568
923.8831	6625
926.2562	6674
928.6287	6541
931.0005	6508
933.3757	6567
935.7462	6610
938.1162	6542
940.4855	6549
942.8542	6538
945.2242	6652
947.5916	6672
949.9584	6666
952.3266	6832
954.6921	6973
957.0571	7078
959.4233	7261
961.787	7235
964.15	7205
966.5125	7227
968.8742	6957
971.2354	7016
973.5959	6899
975.9559	6593
978.3151	6647
980.6738	6603
983.0338	6662
985.3912	6535
987.7461	6559
990.1022	6497
992.4578	6492
994.8127	6426
997.1689	6500
999.5207	6603
1001.874	6399
1004.226	6482
1006.576	6379
1008.929	6645
1011.28	6543
1013.628	6467
1015.977	6402
1018.324	6491
1020.674	6395
1023.019	6483
1025.366	6680
1027.713	6486
1030.056	6538
1032.399	6541
1034.746	6630
1037.087	6666
1039.431	6464
1041.771	6514
1044.113	6678
1046.454	6675
1048.793	6618
1051.133	6642
1053.471	6546
1055.807	6510
1058.146	6615
1060.483	6626
1062.818	6656
1065.153	6593
1067.489	6739
1069.822	6681
1072.156	6527
1074.488	6657
1076.82	6651
1079.15	6705
1081.48	6643
1083.814	6593
1086.143	6672
1088.471	6717
1090.799	6601
1093.126	6657
1095.452	6746
1097.78	6649
1100.105	6725
1102.43	6659
1104.754	6731
1107.077	6592
1109.4	6696
1111.722	6634
1114.044	6603
1116.365	6675
1118.685	6573
1121.005	6641
1123.324	6770
1125.643	6860
1127.961	6875
1130.278	6695
1132.595	6668
1134.911	6740
1137.226	6834
1139.541	6797
1141.854	6645
1144.167	6687
1146.482	6750
1148.793	6733
1151.105	6637
1153.414	6764
1155.725	6652
1158.033	6645
1160.344	6667
1162.651	6778
1164.959	6819
1167.265	6702
1169.572	6779
1171.878	6686
1174.184	6697
1176.488	6747
1178.79	6954
1181.094	6652
1183.396	6760
1185.699	6802
1188.001	6848
1190.301	6759
1192.6	6690
1194.9	6757
1197.2	6633
1199.497	6795
1201.794	6729
1204.09	6791
1206.387	6854
1208.684	6855
1210.978	6765
1213.272	6778
1215.565	6734
1217.858	6823
1220.15	6691
1222.443	6765
1224.734	6841
1227.024	6903
1229.313	6657
1231.602	6792
1233.892	6923
1236.18	6861
1238.467	6933
1240.754	6925
1243.04	6863
1245.325	6934
1247.612	6930
1249.896	6933
1252.178	6992
1254.461	6988
1256.743	6947
1259.027	6957
1261.308	7025
1263.587	7006
1265.867	6963
1268.146	7053
1270.425	7037
1272.703	7119
1274.981	6949
1277.256	7020
1279.532	6915
1281.808	7026
1284.083	7000
1286.358	7000
1288.63	6966
1290.904	6894
1293.175	6999
1295.449	6882
1297.719	6920
1299.99	6910
1302.259	6852
1304.529	6851
1306.798	6905
1309.065	6953
1311.333	6934
1313.599	6964
1315.866	6878
1318.131	6879
1320.396	6955
1322.66	6965
1324.925	6960
1327.187	6979
1329.448	7013
1331.711	6935
1333.974	6965
1336.234	7013
1338.493	6983
1340.752	6949
1343.01	6865
1345.269	6878
1347.526	6929
1349.784	6932
1352.04	6903
1354.295	6851
1356.552	7010
1358.806	6999
1361.059	6906
1363.312	6974
1365.564	6999
1367.818	6889
1370.069	7024
1372.318	6958
1374.568	6986
1376.817	7025
1379.066	6862
1381.316	7048
1383.564	7045
1385.809	7044
1388.056	7085
1390.301	7034
1392.549	7136
1394.793	7137
1397.036	7151
1399.279	7237
1401.522	7156
1403.763	7144
1406.007	7120
1408.248	6996
1410.487	7165
1412.727	7203
1414.965	7125
1417.205	7217
1419.442	7124
1421.68	7180
1423.915	7074
1426.152	7091
1428.388	7120
1430.623	7029
1432.857	7220
1435.091	7168
1437.323	7199
1439.556	7236
1441.789	7278
1444.019	7312
1446.25	7269
1448.48	7233
1450.708	7233
1452.938	7272
1455.167	7303
1457.394	7209
1459.62	7337
1461.846	7242
1464.073	7301
1466.299	7174
1468.523	7187
1470.746	7118
1472.969	7189
1475.191	7065
1477.415	7135
1479.636	7117
1481.858	7066
1484.078	7098
1486.298	7004
1488.518	7003
1490.736	7075
1492.954	6997
1495.169	6918
1497.386	7061
1499.602	6969
1501.819	6917
1504.034	7063
1506.248	6992
1508.462	6981
1510.675	6978
1512.888	6863
1515.1	7000
1517.311	7020
1519.522	6921
1521.732	6992
1523.942	7040
1526.151	6816
1528.36	7047
1530.566	6984
1532.773	6899
1534.98	7011
1537.187	6907
1539.392	7036
1541.596	6953
1543.801	6973
1546.005	6967
1548.208	6990
1550.411	6998
1552.612	7087
1554.814	7022
1557.013	7022
1559.212	7082
1561.414	7150
1563.612	7094
1565.811	7235
1568.007	7099
1570.203	7192
1572.403	7127
1574.598	7175
1576.792	7104
1578.988	7168
1581.181	7046
1583.376	7241
1585.568	7207
1587.761	7165
1589.952	7256
1592.143	7214
1594.333	7113
1596.524	7248
1598.715	7266
1600.903	7280
1603.091	7265
1605.278	7190
1607.466	7292
1609.652	7297
1611.838	7239
1614.023	7243
1616.207	7256
1618.391	7164
1620.576	7198
1622.759	7175
1624.941	7381
1627.123	7215
1629.304	7331
1631.484	7272
1633.664	7228
1635.844	7189
1638.022	7263
1640.201	7198
1642.38	7340
1644.556	7250
1646.732	7396
1648.908	7123
1651.084	7363
1653.257	7224
1655.433	7169
1657.607	7275
1659.779	7367
1661.951	7119
1664.122	7348
1666.295	7337
1668.467	7316
1670.635	7280
1672.805	7337
1674.973	7402
1677.142	7533
1679.31	7315
1681.478	7275
1683.644	7344
1685.81	7316
1687.975	7371
1690.142	7298
1692.305	7266
1694.468	7305
1696.632	7331
1698.794	7410
1700.957	7162
1703.119	7317
1705.279	7168
1707.439	7113
1709.598	7318
1711.758	7242
1713.917	7170
1716.075	7196
1718.231	7205
1720.388	7147
1722.543	7080
1724.702	7220
1726.856	7171
1729.01	7160
1731.164	7174
1733.317	7097
1735.471	7183
1737.623	7203
1739.774	7329
1741.925	7148
1744.075	7203
1746.225	7115
1748.376	7155
1750.524	7337
1752.672	7264
1754.82	7182
1756.965	7292
1759.113	7333
1761.259	7128
1763.405	7380
1765.549	7302
1767.694	7300
1769.836	7331
1771.981	7278
1774.123	7204
1776.264	7181
1778.405	7268
1780.546	7340
1782.687	7297
1784.827	7357
1786.966	7295
1789.103	7314
1791.242	7277
1793.381	7251
1795.517	7262
1797.653	7192
1799.788	7183
1801.923	7268
1804.057	7245
1806.193	7233
1808.326	7231
1810.457	7481
1812.59	7240
1814.721	7215
1816.855	7298
1818.984	7431
1821.113	7133
1823.244	7338
1825.372	7245
1827.499	7265
1829.63	7224
1831.756	7245
1833.882	7353
1836.007	7239
1838.132	7244
1840.26	7289
1842.384	7125
1844.507	7141
1846.63	7272
1848.752	7155
1850.875	7212
1852.996	7148
1855.118	7206
1857.238	7133
1859.358	7189
1861.477	7282
1863.597	7090
1865.715	7111
1867.832	7181
1869.948	7315
1872.064	7150
1874.181	7215
1876.297	7135
1878.411	7276
1880.526	7084
1882.639	7228
1884.752	7158
1886.865	7325
1888.977	7100
1891.089	7078
1893.2	7286
1895.308	7305
1897.42	7259
1899.53	7100
1901.639	7227
1903.745	7294
1905.853	7353
1907.962	7297
1910.067	7351
1912.174	7323
1914.278	7332
1916.383	7326
1918.486	7245
1920.592	7295
1922.694	7322
1924.797	7296
1926.898	7316
1929	7369
1931.102	7376
1933.203	7275
1935.301	7379
1937.401	7274
1939.499	7225
1941.598	7378
1943.697	7250
1945.793	7321
1947.888	7193
1949.985	7304
1952.08	7347
1954.176	7215
1956.269	7180
1958.364	7339
1960.457	7246
1962.549	7327
1964.642	7196
1966.733	7280
1968.823	7130
1970.913	7331
1973.005	7390
1975.093	7138
1977.184	7215
1979.271	7284
1981.359	7293
1983.446	7229
1985.532	7327
1987.619	7236
1989.705	7328
1991.789	7219
1993.874	7318
1995.956	7236
1998.041	7215
2000.123	7240
2002.206	7225
2004.287	7211
2006.368	7193
2008.449	7204
2010.529	7127
2012.609	7121
2014.688	7161
2016.766	7245
2018.843	7300
2020.922	7246
2022.999	7103
2025.074	7309
2027.15	7306
2029.225	7217
2031.299	7155
2033.375	7139
2035.447	7265
2037.52	7266
2039.592	7228
2041.664	7170
2043.736	7222
2045.807	7166
2047.876	7101
2049.947	7217
2052.015	7141
2054.086	7116
2056.153	7249
2058.221	7164
2060.288	7231
2062.353	7278
2064.42	7163
2066.486	7356
2068.55	7183
2070.614	7136
2072.678	7189
2074.741	7275
2076.805	7309
2078.866	7341
2080.929	7082
2082.99	7265
2085.049	7206
2087.109	7353
2089.17	7197
2091.228	7167
2093.286	7154
2095.344	7189
2097.4	7135
2099.46	7190
2101.516	7174
2103.572	7126
2105.626	7235
2107.679	7210
2109.735	7183
2111.788	7122
2113.841	7147
2115.894	7225
2117.945	7232
2119.997	7195
2122.049	7043
2124.1	7272
2126.148	7159
2128.197	7248
2130.246	7169
2132.296	7196
2134.342	7157
2136.39	7182
2138.437	7208
2140.483	7186
2142.527	7160
2144.574	7141
2146.619	7099
2148.661	7148
2150.705	7118
2152.747	7176
2154.792	7112
2156.832	7152
2158.874	7135
2160.915	7122
2162.954	7146
2164.995	7156
2167.034	7138
2169.072	7020
2171.111	7084
2173.148	7213
2175.186	7112
2177.223	7094
2179.258	7119
2181.294	7160
2183.328	7070
2185.362	7119
2187.398	6993
2189.431	7031
2191.463	7010
2193.495	7113
2195.528	7074
2197.56	6991
2199.59	7019
2201.62	7062
2203.649	6918
2205.678	6931
2207.708	6946
2209.737	7100
2211.764	6998
2213.791	6951
2215.817	7004
2217.843	7108
2219.87	6976
2221.895	6918
2223.919	7053
2225.942	7044
2227.966	6941
2229.988	6964
2232.012	6925
2234.032	7065
2236.054	7023
2238.074	6760
2240.095	6978
2242.116	6896
2244.135	6991
2246.153	6975
2248.171	7022
2250.188	6967
2252.208	6861
2254.223	6896
2256.239	7034
2258.255	7014
2260.269	6900
2262.283	7008
2264.3	6941
2266.312	6856
2268.325	6943
2270.336	7046
2272.349	6925
2274.362	7031
2276.372	6811
2278.383	6975
2280.392	6925
2282.402	6989
2284.409	7012
2286.418	6910
2288.427	6979
2290.433	6942
2292.441	6854
2294.446	6898
2296.453	6915
2298.459	6851
2300.463	6833
2302.466	6993
2304.471	6959
2306.475	6916
2308.477	6982
2310.478	6892
2312.481	6989
2314.481	6885
2316.481	6848
2318.482	6791
2320.482	7014
2322.48	6825
2324.48	6903
2326.478	6879
2328.476	6861
2330.473	6893
2332.469	6796
2334.465	6879
2336.46	6899
2338.454	6721
2340.45	6864
2342.444	6798
2344.437	6780
2346.43	6836
2348.421	6970
2350.414	6851
2352.405	6904
2354.396	6800
2356.386	6685
2358.376	6770
2360.366	6885
2362.355	6756
2364.343	6741
2366.331	6764
2368.317	6680
2370.304	6800
2372.292	6812
2374.278	6754
2376.262	6832
2378.247	6779
2380.23	6798
2382.216	6704
2384.199	6753
2386.181	6699
2388.163	6726
2390.144	6679
2392.127	6864
2394.107	6653
2396.087	6756
2398.066	6688
2400.046	6705
2402.023	6661
2404.004	6775
2405.981	6747
2407.957	6757
2409.934	6768
2411.91	6604
2413.886	6651
2415.862	6695
2417.836	6673
2419.809	6697
2421.784	6688
2423.756	6746
2425.73	6739
2427.701	6636
2429.672	6634
2431.644	6616
2433.615	6760
2435.586	6642
2437.555	6670
2439.523	6688
2441.491	6652
2443.459	6698
2445.428	6681
2447.395	6627
2449.361	6646
2451.327	6652
2453.292	6727
2455.257	6607
2457.223	6669
2459.187	6573
2461.15	6596
2463.113	6625
2465.076	6647
2467.039	6563
2468.999	6637
2470.96	6679
2472.921	6673
2474.881	6627
2476.841	6601
2478.8	6621
2480.759	6549
2482.717	6647
2484.675	6629
2486.63	6661
2488.589	6425
2490.545	6658
2492.5	6584
2494.455	6679
2496.408	6564
2498.364	6544
2500.318	6512
2502.27	6462
2504.223	6492
2506.174	6656
2508.126	6581
2510.078	6556
2512.03	6599
2513.979	6657
2515.927	6550
2517.877	6492
2519.826	6510
2521.775	6423
2523.722	6583
2525.668	6595
2527.616	6421
2529.561	6454
2531.508	6633
2533.452	6586
2535.398	6530
2537.342	6587
2539.284	6497
2541.229	6560
2543.173	6434
2545.114	6510
2547.055	6499
2548.996	6454
2550.938	6450
2552.878	6496
2554.817	6500
2556.756	6422
2558.695	6449
2560.633	6479
2562.572	6396
2564.509	6532
2566.445	6423
2568.382	6448
2570.317	6469
2572.254	6509
2574.189	6462
2576.123	6460
2578.057	6501
2579.99	6378
2581.923	6536
2583.855	6461
2585.788	6464
2587.719	6519
2589.65	6379
2591.579	6407
2593.511	6552
2595.44	6536
2597.37	6437
2599.297	6555
2601.225	6507
2603.153	6590
2605.08	6440
2607.007	6472
2608.932	6502
2610.858	6449
2612.782	6481
2614.709	6393
2616.632	6489
2618.556	6394
2620.478	6607
2622.401	6538
2624.324	6523
2626.247	6504
2628.167	6459
2630.088	6483
2632.008	6437
2633.928	6527
2635.848	6357
2637.766	6399
2639.684	6462
2641.603	6379
2643.519	6379
2645.437	6460
2647.353	6514
2649.27	6466
2651.184	6528
2653.099	6456
2655.014	6409
2656.928	6450
2658.842	6426
2660.755	6431
2662.667	6470
2664.579	6409
2666.491	6479
2668.402	6490
2670.312	6405
2672.222	6271
2674.132	6462
2676.042	6429
2677.951	6485
2679.859	6526
2681.766	6325
2683.674	6414
2685.582	6482
2687.488	6437
2689.392	6346
2691.298	6274
2693.202	6332
2695.107	6367
2697.012	6287
2698.914	6431
2700.817	6470
2702.72	6317
2704.622	6279
2706.524	6491
2708.425	6294
2710.326	6295
2712.225	6347
2714.125	6297
2716.024	6396
2717.923	6308
2719.822	6285
2721.719	6265
2723.616	6290
2725.512	6320
2727.41	6283
2729.305	6273
2731.201	6284
2733.095	6293
2734.99	6289
2736.884	6228
2738.778	6286
2740.67	6283
2742.562	6281
2744.455	6166
2746.346	6311
2748.238	6245
2750.129	6187
2752.018	6263
2753.907	6257
2755.797	6451
2757.687	6251
2759.575	6218
2761.462	6253
2763.349	6295
2765.237	6180
2767.124	6328
2769.009	6280
2770.894	6259
2772.779	6144
2774.663	6263
2776.547	6294
2778.431	6231
2780.314	6258
2782.197	6253
2784.078	6298
2785.96	6115
2787.842	6185
2789.723	6151
2791.603	6227
2793.483	6172
2795.362	6158
2797.241	6143
2799.121	6125
2800.997	6194
2802.874	6237
2804.751	6159
2806.628	6210
2808.506	6177
2810.38	6315
2812.255	6106
2814.13	6121
2816.003	6147
2817.878	6203
2819.752	6148
2821.623	6159
2823.496	6212
2825.368	6186
2827.238	6065
2829.111	6200
2830.98	6196
2832.851	6203
2834.719	6206
2836.589	6099
2838.458	6125
2840.327	6222
2842.193	6198
2844.061	6205
2845.927	6008
2847.794	6180
2849.66	6114
2851.525	6160
2853.39	6289
2855.254	6143
2857.117	6196
2858.983	6133
2860.845	6290
2862.707	6316
2864.569	6270
2866.431	6307
2868.293	6264
2870.154	6462
2872.013	6421
2873.873	6399
2875.733	6405
2877.592	6449
2879.451	6398
2881.309	6497
2883.166	6434
2885.022	6356
2886.879	6492
2888.736	6545
2890.591	6659
2892.446	6495
2894.301	6593
2896.155	6614
2898.009	6513
2899.863	6473
2901.716	6492
2903.568	6455
2905.419	6483
2907.27	6531
2909.123	6594
2910.973	6601
2912.824	6496
2914.673	6664
2916.521	6602
2918.372	6621
2920.22	6690
2922.067	6546
2923.914	6706
2925.761	6796
2927.607	6717
2929.455	6698
2931.301	6822
2933.144	6833
2934.99	6874
2936.833	6925
2938.678	6992
2940.522	7002
2942.364	6998
2944.207	7019
2946.048	7193
2947.891	7142
2949.731	7169
2951.571	7264
2953.412	7114
2955.25	7002
2957.09	6998
2958.93	6958
2960.767	6994
2962.606	6986
2964.443	6883
2966.279	6845
2968.116	6799
2969.953	6673
2971.788	6618
2973.623	6759
2975.457	6538
2977.292	6507
2979.127	6599
2980.959	6552
2982.792	6372
2984.624	6448
2986.455	6485
2988.288	6323
2990.119	6415
2991.949	6344
2993.779	6219
2995.608	6264
2997.439	6319
2999.268	6177
3001.096	6102
3002.923	6118
3004.751	6109
3006.578	6065
3008.406	6037
3010.232	6026
3012.057	5911
3013.883	5889
3015.706	6023
3017.532	5976
3019.356	5830
3021.179	5872
3023.002	5974
3024.823	5798
3026.646	5822
3028.469	5783
3030.289	5942
3032.11	5720
3033.93	5768
3035.749	5793
3037.57	5814
3039.39	5762
3041.207	5917
3043.026	5728
3044.842	5876
3046.661	5793
3048.477	5778
3050.294	5820
3052.109	5780
3053.925	5622
3055.739	5787
3057.555	5749
3059.368	5751
3061.181	5652
3062.995	5757
3064.807	5732
3066.62	5643
3068.433	5733
3070.243	5711
3072.054	5689
3073.865	5700
3075.675	5813
3077.485	5694
3079.293	5731
3081.102	5606
3082.911	5661
3084.719	5510
3086.527	5674
3088.333	5622
3090.139	5611
3091.945	5552
3093.75	5704
3095.557	5593
3097.361	5554
3099.165	5457
3100.969	5464
3102.772	5573
3104.575	5611
3106.379	5474
3108.181	5462
3109.982	5622
3111.783	5546
3113.584	5572
3115.386	5487
3117.186	5507
3118.985	5569
3120.783	5561
3122.582	5549
3124.381	5431
3126.179	5430
3127.975	5504
3129.772	5582
3131.569	5591
3133.365	5472
3135.161	5379
3136.956	5425
3138.751	5493
3140.544	5391
3142.338	5462
3144.132	5422
3145.925	5397
3147.717	5448
3149.509	5461
3151.301	5485
3153.091	5480
3154.884	5427
3156.673	5427
3158.462	5334
3160.252	5369
3162.041	5403
3163.831	5412
3165.618	5384
3167.405	5365
3169.193	5408
3170.979	5339
3172.767	5405
3174.553	5329
3176.338	5424
3178.123	5302
3179.907	5411
3181.692	5261
3183.477	5282
3185.259	5405
3187.042	5257
3188.824	5393
3190.607	5323
3192.389	5334
3194.17	5301
3195.951	5436
3197.73	5231
3199.51	5269
3201.289	5197
3203.07	5343
3204.848	5255
3206.626	5266
3208.403	5350
3210.18	5295
3211.959	5256
3213.735	5409
3215.511	5296
3217.285	5175
3219.06	5315
3220.836	5208
3222.611	5317
3224.384	5321
3226.158	5292
3227.929	5348
3229.702	5271
3231.476	5237
3233.248	5230
3235.018	5203
3236.789	5212
3238.56	5313
3240.33	5223
3242.1	5253
3243.869	5201
3245.637	5219
3247.405	5259
3249.172	5250
3250.941	5168
3252.707	5280
3254.474	5293
3256.24	5133
3258.006	5101
3259.772	5271
3261.537	5203
3263.301	5364
3265.065	5171
3266.828	5183
3268.592	5181
3270.355	5192
3272.117	5113
3273.878	5291
3275.64	5192
3277.401	5183
3279.162	5245
3280.922	5199
3282.682	5253
3284.441	5257
3286.199	5159
3287.959	5166
3289.716	5172
3291.475	5275
3293.232	5186
3294.988	5134
3296.744	5115
3298.501	5192
3300.256	5194
3302.011	5191
3303.766	5165
3305.52	5200
3307.275	5198
3309.028	5180
3310.781	5076
3312.533	5194
3314.285	5112
3316.038	5166
3317.789	5180
3319.54	5172
3321.289	5129
3323.039	5118
3324.789	5169
3326.539	5152
3328.288	5220
3330.035	5179
3331.783	5100
3333.531	5168
3335.28	5141
3337.025	5106
3338.771	5131
3340.518	5093
3342.262	5095
3344.009	5009
3345.753	5026
3347.497	5016
3349.24	5063
3350.983	5089
3352.726	5112
3354.469	5065
3356.212	5040
3357.952	4963
3359.694	4992
3361.434	5056
3363.176	5003
3364.916	5173
3366.654	5034
3368.394	5057
3370.132	5039
3371.871	4938
3373.61	5026
3375.346	5020
3377.083	5052
3378.82	4971
3380.556	5058
3382.292	4978
3384.027	4944
3385.763	4959
3387.497	4942
3389.231	5003
3390.965	4973
3392.698	4955
3394.431	4987
3396.164	4969
3397.896	5023
3399.627	4885
3401.36	4790
3403.09	4871
3404.82	4991
3406.55	4920
3408.279	4790
3410.01	4953
3411.738	4900
3413.467	4954
3415.194	4796
3416.92	4914
3418.647	4872
3420.375	4847
3422.102	4783
3423.827	4825
3425.553	4885
3427.277	4830
3429.003	4785
3430.727	4896
3432.451	4936
3434.173	4823
3435.896	4959
3437.62	4797
3439.343	4932
3441.063	4797
3442.785	4878
3444.505	4725
3446.226	4813
3447.948	4839
3449.666	4776
3451.386	4788
3453.104	4809
3454.823	4818
3456.541	4749
3458.259	4768
3459.976	4692
3461.693	4722
3463.408	4792
3465.125	4793
3466.841	4787
3468.556	4713
3470.271	4687
3471.985	4779
3473.698	4643
3475.414	4699
3477.126	4735
3478.838	4725
3480.55	4669
3482.263	4743
3483.975	4745
3485.686	4769
3487.396	4532
3489.106	4661
3490.817	4653
3492.526	4638
3494.236	4602
3495.944	4734
3497.652	4619
3499.359	4642
3501.066	4553
3502.775	4624
3504.481	4643
3506.187	4510
3507.893	4745
3509.598	4496
3511.304	4620
3513.009	4534
3514.713	4535
3516.417	4659
3518.12	4575
3519.821	4649
3521.525	4476
3523.228	4554
3524.929	4601
3526.631	4483
3528.33	4562
3530.032	4565
3531.733	4492
3533.433	4565
3535.131	4472
3536.83	4458
3538.529	4495
3540.227	4602
3541.925	4548
3543.623	4482
3545.319	4409
3547.016	4499
3548.712	4431
3550.408	4407
3552.103	4486
3553.798	4406
3555.491	4403
3557.188	4418
3558.88	4456
3560.574	4511
3562.266	4430
3563.959	4503
3565.651	4364
3567.343	4477
3569.035	4537
3570.725	4446
3572.415	4377
3574.106	4355
3575.797	4381
3577.485	4347
3579.174	4406
3580.863	4368
3582.551	4424
3584.238	4381
3585.926	4380
3587.613	4342
3589.3	4361
3590.986	4426
3592.671	4384
3594.357	4228
3596.042	4347
3597.726	4267
3599.41	4332
3601.094	4261
3602.778	4297
3604.461	4345
3606.143	4228
3607.825	4282
3609.507	4175
3611.188	4230
3612.87	4304
3614.551	4209
3616.229	4316
3617.909	4186
3619.589	4173
3621.269	4241
3622.948	4252
3624.625	4226
3626.302	4228
3627.98	4164
3629.657	4150
3631.334	4201
3633.01	4261
3634.686	4069
3636.361	4214
3638.036	4186
3639.712	4275
3641.385	4183
3643.06	4116
3644.732	4069
3646.405	4124
3648.08	4199
3649.751	4121
3651.424	4159
3653.094	4146
3654.766	4059
3656.436	4151
3658.106	4099
3659.777	4066
3661.446	4122
3663.115	4013
3664.783	4200
3666.452	4107
3668.121	4095
3669.788	4108
3671.454	4137
3673.121	4089
3674.789	4074
3676.455	4067
3678.12	4083
3679.784	4130
3681.45	4134
3683.114	4047
3684.779	4082
3686.442	4075
3688.105	4140
3689.768	4150
3691.43	4056
3693.093	4660
3694.754	5679
3696.415	4085
3698.076	4021
3699.736	4000
3701.396	3993
3703.057	4064
3704.716	4108
3706.375	4018
3708.034	4044
3709.692	3997
3711.351	3984
3713.008	4052
3714.665	3960
3716.321	4088
3717.977	4022
3719.634	3929
3721.29	3983
3722.945	4020
3724.598	3962
3726.253	3976
3727.907	3924
3729.561	3971
3731.214	4022
3732.867	3987
3734.518	3936
3736.171	4003
3737.824	3940
3739.474	3926
3741.125	3939
3742.775	3936
3744.425	4001
3746.074	4006
3747.725	3891
3749.373	3918
3751.022	3863
3752.669	3842
3754.318	3978
3755.966	3868
3757.612	3888
3759.259	3971
3760.905	3926
3762.55	3942
3764.197	3892
3765.842	3945
3767.486	3911
3769.131	3886
3770.774	3878
3772.417	3818
3774.061	3893
3775.705	3880
3777.347	3847
3778.988	3779
3780.629	3865
3782.271	3869
3783.912	3762
3785.552	3889
3787.192	3811
3788.831	3776
3790.472	3850
3792.112	3739
3793.75	3776
3795.388	3783
3797.024	3804
3798.661	3749
3800.3	3835
3801.936	3814
3803.572	3841
3805.208	3783
3806.844	3709
3808.48	3673
3810.115	3813
3811.748	3733
3813.382	3728
3815.016	3837
3816.649	3792
3818.283	3757
3819.914	3816
3821.547	3685
3823.178	3746
3824.809	3845
3826.441	3785
3828.072	3744
3829.701	3756
3831.331	3731
3832.96	3689
3834.591	3684
3836.219	3714
3837.847	3711
3839.475	3742
3841.102	3703
3842.729	3678
3844.357	3674
3845.984	3702
3847.609	3738
3849.234	3691
3850.86	3675
3852.485	3645
3854.11	3730
3855.734	3620
3857.357	3670
3858.981	3662
3860.603	3679
3862.227	3663
3863.848	3639
3865.471	3617
3867.092	3642
3868.713	3565
3870.334	3682
3871.954	3656
3873.575	3678
3875.194	3650
3876.813	3547
3878.433	3534
3880.051	3623
3881.669	3633
3883.286	3585
3884.904	3601
3886.52	3566
3888.138	3544
3889.754	3608
3891.37	3610
3892.985	3662
3894.6	3571
3896.216	3578
3897.831	3570
3899.444	3639
3901.058	3567
3902.67	3604
3904.283	3616
3905.897	3570
3907.509	3570
3909.121	3550
3910.731	3575
3912.342	3473
3913.954	3488
3915.563	3598
3917.174	3565
3918.783	3658
3920.391	3612
3922.002	3567
3923.611	3584
3925.218	3640
3926.826	3475
3928.432	3611
3930.039	3540
3931.647	3594
3933.253	3527
3934.859	3527
3936.464	3476
3938.068	3501
3939.675	3502
3941.278	3469
3942.883	3549
3944.486	3518
3946.089	3531
3947.692	3483
3949.295	3443
3950.898	3555
3952.499	3531
3954.1	3553
3955.7	3539
3957.303	3494
3958.903	3485
3960.502	3513
3962.101	3507
3963.7	3486
3965.301	3458
3966.899	3446
3968.497	3391
3970.094	3449
3971.691	3374
3973.288	3410
3974.885	3401
3976.481	3441
3978.077	3393
3979.672	3347
3981.267	3334
3982.863	3321
3984.457	3395
3986.051	3345
3987.645	3380
3989.238	3394
3990.831	3406
3992.425	3309
3994.017	3369
3995.607	3362
3997.199	3265
3998.79	3361
4000.382	3350
4001.973	3402
4003.561	3300
4005.151	3407
4006.741	3391
4008.331	3352
4009.918	3302
4011.507	3386
4013.095	3284
4014.681	3314
4016.269	3236
4017.856	3323
4019.443	3354
4021.028	3224
4022.614	3315
4024.199	3287
4025.785	3230
4027.37	3326
4028.953	3291
4030.536	3258
4032.12	3276
4033.704	3258
4035.287	3313
4036.869	3269
4038.45	3195
4040.032	3258
4041.613	3215
4043.195	3263
4044.776	3216
4046.356	3180
4047.935	3199
4049.515	3301
4051.095	3217
4052.674	3226
4054.251	3168
4055.829	3214
4057.406	3200
4058.985	3265
4060.562	3286
4062.139	3200
4063.715	3206
4065.29	3205
4066.865	3248
4068.442	3207
4070.016	3202
4071.59	3091
4073.164	3180
4074.738	3198
4076.312	3154
4077.885	3142
4079.458	3190
4081.03	3188
4082.602	3205
4084.173	3162
4085.745	3173
4087.315	3181
4088.886	3164
4090.456	3159
4092.026	3181
4093.596	3193
4095.165	3197
4096.734	3178
4098.301	3135
4099.869	3152
4101.437	3115
4103.006	3066
4104.572	3157
4106.139	3085
4107.704	3037
4109.27	3131
4110.837	3168
4112.401	3105
4113.966	3182
4115.53	3080
4117.094	3115
4118.659	3201
4120.223	3140
4121.785	3081
4123.347	3092
4124.909	3030
4126.471	3086
4128.034	3050
4129.595	3012
4131.155	3094
4132.716	3097
4134.275	3037
4135.836	3031
4137.395	3092
4138.955	3129
4140.513	3065
4142.071	3036
4143.628	3013
4145.188	3010
4146.745	2953
4148.302	3096
4149.858	2993
4151.414	3001
4152.971	3047
4154.526	3040
4156.081	2980
4157.635	2935
4159.189	2986
4160.745	2963
4162.298	2952
4163.852	2951
4165.405	2973
4166.957	2961
4168.51	2932
4170.063	2923
4171.614	2931
4173.166	2893
4174.717	2936
4176.267	2948
4177.817	2903
4179.368	2942
4180.917	2990
4182.466	2999
4184.016	2931
4185.564	2974
4187.112	2863
4188.66	2876
4190.207	2891
4191.754	2926
4193.301	2896
4194.848	2937
4196.394	2933
4197.94	2930
4199.484	2858
4201.03	2872
4202.575	2856
4204.12	2879
4205.663	2949
4207.207	2903
4208.75	2903
4210.292	2823
4211.836	2862
4213.378	2803
4214.92	2891
4216.46	2815
4218.002	2860
4219.544	2864
4221.083	2859
4222.625	2854
4224.164	2815
4225.703	2834
4227.244	2829
4228.782	2803
4230.32	2881
4231.857	2834
4233.395	2806
4234.933	2826
4236.471	2822
4238.007	2920
4239.542	2801
4241.078	2827
4242.614	2810
4244.15	2798
4245.685	2876
4247.219	2870
4248.753	2786
4250.287	2812
4251.82	2837
4253.354	2815
4254.887	2794
4256.419	2743
4257.951	2789
4259.483	2829
4261.016	2790
4262.547	2783
4264.078	2816
4265.608	2772
4267.137	2816
4268.668	2734
4270.197	2870
4271.727	2748
4273.254	2759
4274.783	2779
4276.311	2791
4277.84	2789
4279.366	2737
4280.894	2792
4282.42	2706
4283.946	2613
4285.473	2712
4286.998	2761
4288.523	2660
4290.047	2738
4291.572	2693
4293.096	2713
4294.622	2707
4296.144	2781
4297.668	2669
4299.19	2711
4300.713	2733
4302.236	2714
4303.758	2740
4305.279	2738
4306.799	2708
4308.321	2723
4309.842	2729
4311.361	2681
4312.882	2678
4314.401	2663
