400.0961	9473
402.6185	9444
405.1424	9386
407.6635	9461
410.1838	9506
412.7035	9495
415.2225	9622
417.7388	9571
420.2585	9790
422.7754	9797
425.2917	9754
427.8072	9836
430.3221	9764
432.8363	9793
435.3498	9965
437.8626	9820
440.3727	9960
442.8841	10018
445.3969	10077
447.907	10034
450.4142	10236
452.9229	10039
455.4289	10180
457.9362	10207
460.4449	9966
462.9488	10125
465.454	10163
467.9566	10113
470.4604	10064
472.9637	10090
475.4662	10392
477.966	10228
480.4671	10194
482.9656	10243
485.4633	10263
487.9645	10244
490.4608	10432
492.9566	10554
495.4536	10457
497.948	10389
500.4437	10384
502.9387	10600
505.431	10504
507.9226	10601
510.4136	10665
512.9079	10422
515.3975	10605
517.8864	10611
520.3746	10498
522.8622	10717
525.3491	10827
527.8394	10664
530.3249	10656
532.8098	10632
535.2939	10684
537.7774	10582
540.2623	10711
542.7444	10689
545.2259	10674
547.7067	10551
550.1868	10743
552.6683	10732
555.147	10571
557.6231	10848
560.1005	10837
562.5773	10785
565.0534	10817
567.5308	10865
570.0056	10986
572.4776	11056
574.951	10900
577.4237	10926
579.8978	11109
582.3671	11054
584.8378	10997
587.3079	11066
589.7773	11063
592.244	11084
594.714	11049
597.1793	11135
599.6461	11019
602.1121	11032
604.5754	11166
607.0421	11068
609.5042	11087
611.9675	11062
614.4282	11085
616.8902	11174
619.3515	11060
621.8122	11055
624.2702	11099
626.7296	11047
629.1863	11053
631.6423	11117
634.1017	11028
636.5563	11133
639.0104	11153
641.4658	11000
643.9185	11308
646.3725	11204
648.8239	11309
651.2766	11222
653.7266	11297
656.176	11188
658.6247	11314
661.0748	11212
663.5242	11374
665.9709	11415
668.417	11550
670.8624	11357
673.3092	11475
675.7533	11523
678.1968	11467
680.6395	11427
683.0817	11414
685.5251	11465
687.9659	11467
690.4061	11748
692.8456	11551
695.2844	11610
697.7226	11539
700.1621	11548
702.599	11547
705.0332	11833
707.4688	11646
709.9036	11558
712.3399	11699
714.7735	11657
717.2044	11935
719.6367	11859
722.0683	11758
724.4993	11853
726.9296	11955
729.3593	11891
731.7883	12002
734.2147	12114
736.6423	12052
739.0714	11929
741.4958	12085
743.9216	12212
746.3447	12102
748.7691	12173
751.1929	12245
753.616	12373
756.0366	12288
758.4584	12475
760.8776	12411
763.2982	12469
765.718	12238
768.1373	12358
770.5539	12399
772.9698	12485
775.3871	12384
777.8038	12323
780.2178	12424
782.6332	12596
785.0459	12406
787.458	12475
789.8714	12341
792.2842	12425
794.6943	12544
797.1038	12495
799.5127	12531
801.9209	12526
804.3324	12561
806.7393	12614
809.1456	12469
811.5513	12507
813.9562	12476
816.3625	12508
818.7663	12707
821.1693	12710
823.5718	12559
825.9735	12713
828.3746	12515
830.7771	12708
833.177	12546
835.5762	12682
837.9747	12722
840.3727	12553
842.772	12525
845.1666	12635
847.5626	12677
849.958	12699
852.3527	12900
854.7488	12715
857.1403	12855
859.5331	12776
861.9253	12682
864.3168	12741
866.7057	12640
869.098	12801
871.4876	12631
873.8746	12764
876.263	12756
878.6487	12868
881.0378	12567
883.4243	12548
885.8081	12822
888.1933	12882
890.5759	12768
892.9598	12596
895.343	12801
897.7256	12773
900.1057	12577
902.4871	12814
904.8659	12781
907.246	12894
909.6254	12840
912.0023	12818
914.3786	13038
916.7562	13072
919.1331	13069
921.5074	13313
923.8831	13118
926.2562	13315
928.6287	13167
931.0005	13308
933.3757	13230
935.7462	13551
938.1162	13308
940.4855	13148
942.8542	13425
945.2242	13499
947.5916	13450
949.9584	13758
952.3266	13635
954.6921	13832
957.0571	14132
959.4233	14172
961.787	14464
964.15	14483
966.5125	14146
968.8742	13911
971.2354	13721
973.5959	13564
975.9559	13370
978.3151	13414
980.6738	13213
983.0338	13418
985.3912	13190
987.7461	13114
990.1022	13149
992.4578	13082
994.8127	13054
997.1689	13249
999.5207	13086
1001.874	13267
1004.226	12993
1006.576	13212
1008.929	13377
1011.28	13202
1013.628	13134
1015.977	13224
1018.324	13155
1020.674	13200
1023.019	13175
1025.366	13290
1027.713	13345
1030.056	13338
1032.399	13372
1034.746	13330
1037.087	13443
1039.431	13361
1041.771	13342
1044.113	13448
1046.454	13383
1048.793	13247
1051.133	13329
1053.471	13456
1055.807	13321
1058.146	13506
1060.483	13426
1062.818	13519
1065.153	13517
1067.489	13580
1069.822	13407
1072.156	13322
1074.488	13435
1076.82	13503
1079.15	13529
1081.48	13462
1083.814	13609
1086.143	13485
1088.471	13699
1090.799	13247
1093.126	13428
1095.452	13483
1097.78	13548
1100.105	13557
1102.43	13502
1104.754	13606
1107.077	13378
1109.4	13403
1111.722	13554
1114.044	13543
1116.365	13615
1118.685	13407
1121.005	13588
1123.324	13643
1125.643	13817
1127.961	13671
1130.278	13673
1132.595	13657
1134.911	13594
1137.226	13514
1139.541	13506
1141.854	13676
1144.167	13661
1146.482	13650
1148.793	13543
1151.105	13765
1153.414	13657
1155.725	13472
1158.033	13669
1160.344	13631
1162.651	13688
1164.959	13572
1167.265	13666
1169.572	13676
1171.878	13588
1174.184	13735
1176.488	13380
1178.79	13692
1181.094	13635
1183.396	13714
1185.699	13632
1188.001	13592
1190.301	13669
1192.6	13709
1194.9	13562
1197.2	13747
1199.497	13640
1201.794	13530
1204.09	13683
1206.387	13798
1208.684	13450
1210.978	13770
1213.272	13686
1215.565	13721
1217.858	13826
1220.15	13859
1222.443	13694
1224.734	13765
1227.024	13639
1229.313	13980
1231.602	13831
1233.892	13875
1236.18	13754
1238.467	13878
1240.754	14006
1243.04	14049
1245.325	14066
1247.612	13888
1249.896	14101
1252.178	14050
1254.461	14218
1256.743	13953
1259.027	14046
1261.308	14006
1263.587	13956
1265.867	14061
1268.146	14063
1270.425	14067
1272.703	13984
1274.981	14188
1277.256	14106
1279.532	13970
1281.808	13994
1284.083	13955
1286.358	13953
1288.63	13900
1290.904	13765
1293.175	13867
1295.449	13931
1297.719	13727
1299.99	13887
1302.259	13669
1304.529	13819
1306.798	13858
1309.065	13704
1311.333	13993
1313.599	13926
1315.866	13913
1318.131	14027
1320.396	14025
1322.66	13712
1324.925	13940
1327.187	13939
1329.448	13915
1331.711	14104
1333.974	13892
1336.234	13840
1338.493	14191
1340.752	13796
1343.01	13763
1345.269	14010
1347.526	13979
1349.784	13781
1352.04	13699
1354.295	13848
1356.552	14005
1358.806	13938
1361.059	13923
1363.312	13993
1365.564	13879
1367.818	14046
1370.069	14007
1372.318	13778
1374.568	13947
1376.817	13956
1379.066	14035
1381.316	13825
1383.564	14109
1385.809	13952
1388.056	14241
1390.301	14060
1392.549	13958
1394.793	14266
1397.036	14293
1399.279	14228
1401.522	14230
1403.763	14308
1406.007	14313
1408.248	14200
1410.487	14387
1412.727	14302
1414.965	14331
1417.205	14190
1419.442	14166
1421.68	14141
1423.915	14318
1426.152	14066
1428.388	14383
1430.623	14251
1432.857	14472
1435.091	14234
1437.323	14257
1439.556	14468
1441.789	14457
1444.019	14434
1446.25	14332
1448.48	14385
1450.708	14731
1452.938	14554
1455.167	14504
1457.394	14559
1459.62	14404
1461.846	14579
1464.073	14455
1466.299	14476
1468.523	14434
1470.746	14349
1472.969	14126
1475.191	14256
1477.415	14279
1479.636	14081
1481.858	14255
1484.078	14039
1486.298	14199
1488.518	14136
1490.736	14056
1492.954	14040
1495.169	13923
1497.386	13938
1499.602	14130
1501.819	13804
1504.034	13991
1506.248	13952
1508.462	14089
1510.675	13898
1512.888	13860
1515.1	13979
1517.311	13863
1519.522	13933
1521.732	13890
1523.942	14038
1526.151	13912
1528.36	13790
1530.566	13952
1532.773	13871
1534.98	13909
1537.187	14070
1539.392	14072
1541.596	14042
1543.801	13974
1546.005	13872
1548.208	13916
1550.411	14054
1552.612	14135
1554.814	14069
1557.013	14029
1559.212	14174
1561.414	14046
1563.612	14207
1565.811	14185
1568.007	14430
1570.203	14266
1572.403	14272
1574.598	14384
1576.792	14130
1578.988	14161
1581.181	14382
1583.376	14407
1585.568	14358
1587.761	14133
1589.952	14468
1592.143	14215
1594.333	14377
1596.524	14360
1598.715	14442
1600.903	14473
1603.091	14482
1605.278	14158
1607.466	14469
1609.652	14348
1611.838	14482
1614.023	14341
1616.207	14454
1618.391	14349
1620.576	14205
1622.759	14462
1624.941	14439
1627.123	14370
1629.304	14319
1631.484	14413
1633.664	14477
1635.844	14235
1638.022	14487
1640.201	14385
1642.38	14663
1644.556	14407
1646.732	14594
1648.908	14370
1651.084	14559
1653.257	14358
1655.433	14533
1657.607	14272
1659.779	14578
1661.951	14550
1664.122	14439
1666.295	14431
1668.467	14519
1670.635	14425
1672.805	14439
1674.973	14634
1677.142	14577
1679.31	14570
1681.478	14332
1683.644	14455
1685.81	14411
1687.975	14545
1690.142	14358
1692.305	14427
1694.468	14527
1696.632	14342
1698.794	14510
1700.957	14310
1703.119	14314
1705.279	14313
1707.439	14346
1709.598	14227
1711.758	14248
1713.917	14356
1716.075	14438
1718.231	14337
1720.388	14339
1722.543	14459
1724.702	14383
1726.856	14423
1729.01	14463
1731.164	14250
1733.317	14271
1735.471	14376
1737.623	14138
1739.774	14643
1741.925	14395
1744.075	14234
1746.225	14497
1748.376	14246
1750.524	14298
1752.672	14239
1754.82	14293
1756.965	14214
1759.113	14292
1761.259	14435
1763.405	14355
1765.549	14371
1767.694	14305
1769.836	14308
1771.981	14455
1774.123	14253
1776.264	14513
1778.405	14486
1780.546	14527
1782.687	14309
1784.827	14530
1786.966	14401
1789.103	14397
1791.242	14525
1793.381	14401
1795.517	14497
1797.653	14636
1799.788	14613
1801.923	14412
1804.057	14701
1806.193	14599
1808.326	14433
1810.457	14479
1812.59	14410
1814.721	14363
1816.855	14429
1818.984	14492
1821.113	14394
1823.244	14176
1825.372	14563
1827.499	14415
1829.63	14346
1831.756	14331
1833.882	14465
1836.007	14416
1838.132	14349
1840.26	14334
1842.384	14295
1844.507	14310
1846.63	14210
1848.752	14456
1850.875	14251
1852.996	14253
1855.118	14149
1857.238	14308
1859.358	14276
1861.477	14229
1863.597	14369
1865.715	14298
1867.832	14130
1869.948	14186
1872.064	14352
1874.181	14243
1876.297	14325
1878.411	14192
1880.526	14230
1882.639	14261
1884.752	14312
1886.865	14194
1888.977	14421
1891.089	14324
1893.2	14267
1895.308	14404
1897.42	14198
1899.53	14448
1901.639	14278
1903.745	14325
1905.853	14441
1907.962	14371
1910.067	14182
1912.174	14300
1914.278	14297
1916.383	14472
1918.486	14444
1920.592	14337
1922.694	14400
1924.797	14243
1926.898	14498
1929	14629
1931.102	14616
1933.203	14326
1935.301	14272
1937.401	14383
1939.499	14312
1941.598	14591
1943.697	14385
1945.793	14361
1947.888	14425
1949.985	14444
1952.08	14431
1954.176	14425
1956.269	14328
1958.364	14449
1960.457	14355
1962.549	14420
1964.642	14303
1966.733	14262
1968.823	14315
1970.913	14318
1973.005	14388
1975.093	14337
1977.184	14436
1979.271	14392
1981.359	14290
1983.446	14342
1985.532	14199
1987.619	14290
1989.705	14373
1991.789	14221
1993.874	14187
1995.956	14225
1998.041	14191
2000.123	14290
2002.206	14344
2004.287	14162
2006.368	14087
2008.449	14099
2010.529	14076
2012.609	14312
2014.688	14246
2016.766	14171
2018.843	14269
2020.922	14279
2022.999	14175
2025.074	14259
2027.15	14261
2029.225	14207
2031.299	13988
2033.375	14195
2035.447	14302
2037.52	14135
2039.592	14219
2041.664	14202
2043.736	14154
2045.807	14274
2047.876	14169
2049.947	14044
2052.015	14144
2054.086	14273
2056.153	14262
2058.221	14257
2060.288	14266
2062.353	14217
2064.42	14073
2066.486	14167
2068.55	14127
2070.614	14131
2072.678	14262
2074.741	14194
2076.805	14091
2078.866	14244
2080.929	14038
2082.99	14176
2085.049	14157
2087.109	14095
2089.17	14107
2091.228	14235
2093.286	14109
2095.344	14121
2097.4	14177
2099.46	14146
2101.516	14143
2103.572	14143
2105.626	14130
2107.679	14093
2109.735	14195
2111.788	14127
2113.841	14159
2115.894	14165
2117.945	14069
2119.997	14271
2122.049	14069
2124.1	14104
2126.148	13980
2128.197	14112
2130.246	14201
2132.296	13951
2134.342	13885
2136.39	14044
2138.437	14120
2140.483	13908
2142.527	14055
2144.574	14075
2146.619	14000
2148.661	13954
2150.705	14025
2152.747	14105
2154.792	13913
2156.832	14073
2158.874	13855
2160.915	13640
2162.954	14028
2164.995	13974
2167.034	14100
2169.072	13947
2171.111	13873
2173.148	13744
2175.186	14088
2177.223	13812
2179.258	13770
2181.294	13816
2183.328	13930
2185.362	13799
2187.398	13785
2189.431	13611
2191.463	13640
2193.495	13722
2195.528	13811
2197.56	13612
2199.59	13724
2201.62	13683
2203.649	13636
2205.678	13652
2207.708	13600
2209.737	13894
2211.764	13717
2213.791	13545
2215.817	13705
2217.843	13650
2219.87	13641
2221.895	13623
2223.919	13643
2225.942	13744
2227.966	13587
2229.988	13572
2232.012	13630
2234.032	13744
2236.054	13580
2238.074	13626
2240.095	13620
2242.116	13578
2244.135	13604
2246.153	13640
2248.171	13394
2250.188	13518
2252.208	13426
2254.223	13508
2256.239	13575
2258.255	13632
2260.269	13546
2262.283	13571
2264.3	13606
2266.312	13577
2268.325	13590
2270.336	13552
2272.349	13642
2274.362	13505
2276.372	13656
2278.383	13511
2280.392	13452
2282.402	13524
2284.409	13751
2286.418	13429
2288.427	13575
2290.433	13401
2292.441	13594
2294.446	13774
2296.453	13384
2298.459	13467
2300.463	13476
2302.466	13413
2304.471	13384
2306.475	13458
2308.477	13440
2310.478	13450
2312.481	13553
2314.481	13431
2316.481	13270
2318.482	13430
2320.482	13328
2322.48	13427
2324.48	13363
2326.478	13240
2328.476	13234
2330.473	13304
2332.469	13186
2334.465	13335
2336.46	13264
2338.454	13259
2340.45	13344
2342.444	13238
2344.437	13231
2346.43	13373
2348.421	13132
2350.414	13170
2352.405	13216
2354.396	13246
2356.386	13199
2358.376	13163
2360.366	13178
2362.355	13044
2364.343	13034
2366.331	12985
2368.317	12950
2370.304	13153
2372.292	13092
2374.278	13041
2376.262	12958
2378.247	13092
2380.23	13104
2382.216	13076
2384.199	12956
2386.181	13143
2388.163	12913
2390.144	12930
2392.127	13083
2394.107	13013
2396.087	13049
2398.066	12980
2400.046	13177
2402.023	12893
2404.004	12993
2405.981	13005
2407.957	12966
2409.934	12796
2411.91	12830
2413.886	12909
2415.862	12964
2417.836	12709
2419.809	13019
2421.784	12802
2423.756	12851
2425.73	12855
2427.701	12885
2429.672	12966
2431.644	12949
2433.615	12858
2435.586	12733
2437.555	12876
2439.523	12934
2441.491	12851
2443.459	12977
2445.428	12775
2447.395	12610
2449.361	12940
2451.327	12806
2453.292	12731
2455.257	12755
2457.223	12840
2459.187	12692
2461.15	12785
2463.113	12795
2465.076	12952
2467.039	12715
2468.999	12669
2470.96	12682
2472.921	12795
2474.881	12821
2476.841	12615
2478.8	12617
2480.759	12752
2482.717	12382
2484.675	12843
2486.63	12606
2488.589	12650
2490.545	12838
2492.5	12678
2494.455	12606
2496.408	12505
2498.364	12578
2500.318	12556
2502.27	12507
2504.223	12524
2506.174	12583
2508.126	12528
2510.078	12535
2512.03	12538
2513.979	12683
2515.927	12573
2517.877	12586
2519.826	12547
2521.775	12414
2523.722	12351
2525.668	12576
2527.616	12547
2529.561	12478
2531.508	12371
2533.452	12435
2535.398	12506
2537.342	12505
2539.284	12451
2541.229	12628
2543.173	12479
2545.114	12081
2547.055	12452
2548.996	12428
2550.938	12390
2552.878	12250
2554.817	12385
2556.756	12424
2558.695	12436
2560.633	12360
2562.572	12380
2564.509	12456
2566.445	12506
2568.382	12369
2570.317	12256
2572.254	12413
2574.189	12490
2576.123	12288
2578.057	12410
2579.99	12317
2581.923	12486
2583.855	12424
2585.788	12344
2587.719	12318
2589.65	12428
2591.579	12473
2593.511	12486
2595.44	12400
2597.37	12418
2599.297	12386
2601.225	12320
2603.153	12312
2605.08	12382
2607.007	12499
2608.932	12335
2610.858	12520
2612.782	12253
2614.709	12473
2616.632	12355
2618.556	12314
2620.478	12376
2622.401	12415
2624.324	12243
2626.247	12368
2628.167	12521
2630.088	12387
2632.008	12421
2633.928	12423
2635.848	12311
2637.766	12271
2639.684	12285
2641.603	12227
2643.519	12310
2645.437	12362
2647.353	12427
2649.27	12317
2651.184	12397
2653.099	12142
2655.014	12202
2656.928	12194
2658.842	12325
2660.755	12469
2662.667	12300
2664.579	12412
2666.491	12272
2668.402	12389
2670.312	12145
2672.222	12129
2674.132	12277
2676.042	12181
2677.951	12126
2679.859	12250
2681.766	12157
2683.674	12089
2685.582	12239
2687.488	12131
2689.392	12301
2691.298	12140
2693.202	12249
2695.107	12227
2697.012	11988
2698.914	12157
2700.817	12103
2702.72	12251
2704.622	12190
2706.524	11974
2708.425	11733
2710.326	12090
2712.225	12090
2714.125	11833
2716.024	12076
2717.923	11916
2719.822	11967
2721.719	11946
2723.616	12007
2725.512	11935
2727.41	12044
2729.305	11871
2731.201	11880
2733.095	11853
2734.99	12083
2736.884	11930
2738.778	11844
2740.67	12037
2742.562	11834
2744.455	11855
2746.346	12012
2748.238	11787
2750.129	11824
2752.018	11977
2753.907	11830
2755.797	11883
2757.687	11796
2759.575	11839
2761.462	11799
2763.349	11919
2765.237	11893
2767.124	11984
2769.009	11713
2770.894	11812
2772.779	11684
2774.663	11759
2776.547	11795
2778.431	11755
2780.314	11759
2782.197	11761
2784.078	11718
2785.96	11629
2787.842	11893
2789.723	11830
2791.603	11717
2793.483	11633
2795.362	11748
2797.241	11733
2799.121	11655
2800.997	11685
2802.874	11677
2804.751	11449
2806.628	11765
2808.506	11799
2810.38	11808
2812.255	11497
2814.13	11522
2816.003	11596
2817.878	11599
2819.752	11482
2821.623	11595
2823.496	11582
2825.368	11619
2827.238	11578
2829.111	11583
2830.98	11509
2832.851	11588
2834.719	11619
2836.589	11633
2838.458	11602
2840.327	11531
2842.193	11732
2844.061	11615
2845.927	11574
2847.794	11607
2849.66	11626
2851.525	11618
2853.39	11673
2855.254	11642
2857.117	11699
2858.983	11649
2860.845	11645
2862.707	11631
2864.569	11743
2866.431	11552
2868.293	11619
2870.154	11706
2872.013	11951
2873.873	11712
2875.733	11830
2877.592	11804
2879.451	11810
2881.309	11912
2883.166	11842
2885.022	11946
2886.879	12015
2888.736	11945
2890.591	11974
2892.446	11979
2894.301	12024
2896.155	11947
2898.009	11858
2899.863	12190
2901.716	11919
2903.568	11988
2905.419	12012
2907.27	11910
2909.123	11916
2910.973	11971
2912.824	11923
2914.673	11973
2916.521	11869
2918.372	12124
2920.22	12100
2922.067	12052
2923.914	12317
2925.761	12108
2927.607	12215
2929.455	12178
2931.301	12310
2933.144	12220
2934.99	12265
2936.833	12267
2938.678	12482
2940.522	12422
2942.364	12537
2944.207	12635
2946.048	12724
2947.891	12763
2949.731	12544
2951.571	12649
2953.412	12678
2955.25	12602
2957.09	12368
2958.93	12537
2960.767	12592
2962.606	12331
2964.443	12305
2966.279	12295
2968.116	12193
2969.953	12111
2971.788	11913
2973.623	11899
2975.457	11935
2977.292	11900
2979.127	11706
2980.959	11765
2982.792	11630
2984.624	11787
2986.455	11765
2988.288	11507
2990.119	11609
2991.949	11565
2993.779	11666
2995.608	11408
2997.439	11578
2999.268	11400
3001.096	11243
3002.923	11264
3004.751	11214
3006.578	11130
3008.406	11260
3010.232	11178
3012.057	11127
3013.883	10905
3015.706	10958
3017.532	11024
3019.356	11007
3021.179	10945
3023.002	10931
3024.823	10699
3026.646	10923
3028.469	10781
3030.289	10911
3032.11	10770
3033.93	10772
3035.749	10867
3037.57	10842
3039.39	10884
3041.207	10644
3043.026	10740
3044.842	10718
3046.661	10572
3048.477	10854
3050.294	10561
3052.109	10660
3053.925	10612
3055.739	10539
3057.555	10649
3059.368	10651
3061.181	10627
3062.995	10616
3064.807	10634
3066.62	10550
3068.433	10703
3070.243	10546
3072.054	10469
3073.865	10540
3075.675	10374
3077.485	10443
3079.293	10513
3081.102	10548
3082.911	10517
3084.719	10447
3086.527	10565
3088.333	10237
3090.139	10463
3091.945	10383
3093.75	10375
3095.557	10252
3097.361	10388
3099.165	10403
3100.969	10389
3102.772	10325
3104.575	10155
3106.379	10323
3108.181	10312
3109.982	10220
3111.783	10051
3113.584	10216
3115.386	10136
3117.186	10207
3118.985	10281
3120.783	10224
3122.582	10099
3124.381	10040
3126.179	10180
3127.975	10163
3129.772	10140
3131.569	10239
3133.365	10107
3135.161	10072
3136.956	10182
3138.751	10106
3140.544	9983
3142.338	10209
3144.132	9906
3145.925	10009
3147.717	9978
3149.509	9965
3151.301	10070
3153.091	9873
3154.884	9858
3156.673	9935
3158.462	10034
3160.252	9957
3162.041	9867
3163.831	9918
3165.618	9836
3167.405	9860
3169.193	9938
3170.979	9876
3172.767	9690
3174.553	9736
3176.338	9790
3178.123	9821
3179.907	9874
3181.692	9813
3183.477	9819
3185.259	9855
3187.042	9738
3188.824	9738
3190.607	9768
3192.389	9796
3194.17	9725
3195.951	9708
3197.73	9699
3199.51	9756
3201.289	9800
3203.07	9667
3204.848	9731
3206.626	9633
3208.403	9625
3210.18	9640
3211.959	9699
3213.735	9734
3215.511	9597
3217.285	9614
3219.06	9556
3220.836	9612
3222.611	9579
3224.384	9532
3226.158	9582
3227.929	9706
3229.702	9705
3231.476	9528
3233.248	9523
3235.018	9520
3236.789	9482
3238.56	9625
3240.33	9462
3242.1	9691
3243.869	9512
3245.637	9673
3247.405	9503
3249.172	9598
3250.941	9567
3252.707	9514
3254.474	9593
3256.24	9562
3258.006	9410
3259.772	9609
3261.537	9541
3263.301	9585
3265.065	9537
3266.828	9600
3268.592	9613
3270.355	9575
3272.117	9607
3273.878	9518
3275.64	9579
3277.401	9565
3279.162	9303
3280.922	9435
3282.682	9507
3284.441	9480
3286.199	9424
3287.959	9492
3289.716	9339
3291.475	9445
3293.232	9607
3294.988	9444
3296.744	9266
3298.501	9418
3300.256	9465
3302.011	9448
3303.766	9378
3305.52	9428
3307.275	9372
3309.028	9514
3310.781	9511
3312.533	9431
3314.285	9281
3316.038	9454
3317.789	9374
3319.54	9297
3321.289	9284
3323.039	9379
3324.789	9180
3326.539	9329
3328.288	9360
3330.035	9207
3331.783	9297
3333.531	9276
3335.28	9354
3337.025	9297
3338.771	9286
3340.518	9279
3342.262	9258
3344.009	9194
3345.753	9281
3347.497	9077
3349.24	9216
3350.983	9276
3352.726	9207
3354.469	9272
3356.212	9264
3357.952	9221
3359.694	9214
3361.434	9201
3363.176	9092
3364.916	9223
3366.654	9019
3368.394	9054
3370.132	9127
3371.871	8955
3373.61	9196
3375.346	9083
3377.083	9244
3378.82	9087
3380.556	9119
3382.292	9018
3384.027	9167
3385.763	8995
3387.497	8906
3389.231	8957
3390.965	8968
3392.698	8986
3394.431	9004
3396.164	8979
3397.896	8893
3399.627	9084
3401.36	8992
3403.09	8888
3404.82	8855
3406.55	9021
3408.279	8885
3410.01	9019
3411.738	8933
3413.467	8740
3415.194	8960
3416.92	8979
3418.647	8885
3420.375	8821
3422.102	8852
3423.827	8752
3425.553	8884
3427.277	8876
3429.003	8834
3430.727	8719
3432.451	8802
3434.173	8841
3435.896	8755
3437.62	8672
3439.343	8808
3441.063	8786
3442.785	8652
3444.505	8654
3446.226	8794
3447.948	8751
3449.666	8657
3451.386	8697
3453.104	8727
3454.823	8741
3456.541	8758
3458.259	8580
3459.976	8644
3461.693	8526
3463.408	8589
3465.125	8581
3466.841	8428
3468.556	8465
3470.271	8516
3471.985	8526
3473.698	8426
3475.414	8487
3477.126	8257
3478.838	8582
3480.55	8509
3482.263	8400
3483.975	8430
3485.686	8456
3487.396	8291
3489.106	8290
3490.817	8339
3492.526	8431
3494.236	8269
3495.944	8265
3497.652	8392
3499.359	8377
3501.066	8242
3502.775	8371
3504.481	8341
3506.187	8274
3507.893	8244
3509.598	8315
3511.304	8231
3513.009	8451
3514.713	8286
3516.417	8116
3518.12	8256
3519.821	8323
3521.525	8224
3523.228	8161
3524.929	8216
3526.631	8038
3528.33	8245
3530.032	8161
3531.733	8247
3533.433	8227
3535.131	8115
3536.83	8190
3538.529	8250
3540.227	8145
3541.925	8103
3543.623	8103
3545.319	8165
3547.016	7958
3548.712	8126
3550.408	8113
3552.103	8014
3553.798	7904
3555.491	8125
3557.188	8039
3558.88	8106
3560.574	8048
3562.266	8067
3563.959	8074
3565.651	7975
3567.343	8062
3569.035	8013
3570.725	7979
3572.415	7943
3574.106	8009
3575.797	8044
3577.485	7961
3579.174	7970
3580.863	7922
3582.551	7951
3584.238	7889
3585.926	7827
3587.613	7866
3589.3	7777
3590.986	7758
3592.671	7888
3594.357	7817
3596.042	7816
3597.726	7856
3599.41	7678
3601.094	7668
3602.778	7832
3604.461	7622
3606.143	7807
3607.825	7771
3609.507	7790
3611.188	7648
3612.87	7735
3614.551	7639
3616.229	7580
3617.909	7577
3619.589	7738
3621.269	7745
3622.948	7591
3624.625	7608
3626.302	7577
3627.98	7650
3629.657	7565
3631.334	7608
3633.01	7642
3634.686	7664
3636.361	7555
3638.036	7586
3639.712	7497
3641.385	7507
3643.06	7532
3644.732	7507
3646.405	7484
3648.08	7549
3649.751	7486
3651.424	7361
3653.094	7374
3654.766	7340
3656.436	7475
3658.106	7386
3659.777	7382
3661.446	7453
3663.115	7462
3664.783	7336
3666.452	7479
3668.121	7454
3669.788	7348
3671.454	7417
3673.121	7244
3674.789	7353
3676.455	7398
3678.12	7251
3679.784	7441
3681.45	7303
3683.114	7394
3684.779	7371
3686.442	7262
3688.105	7272
3689.768	7312
3691.43	7233
3693.093	7300
3694.754	7231
3696.415	7359
3698.076	7235
3699.736	7355
3701.396	7345
3703.057	7237
3704.716	7198
3706.375	7135
3708.034	7379
3709.692	7279
3711.351	7202
3713.008	7280
3714.665	7296
3716.321	7140
3717.977	7166
3719.634	7248
3721.29	7279
3722.945	7125
3724.598	7248
3726.253	7192
3727.907	7153
3729.561	7216
3731.214	7239
3732.867	7146
3734.518	7115
3736.171	7235
3737.824	7173
3739.474	7062
3741.125	7044
3742.775	7027
3744.425	7013
3746.074	7091
3747.725	7071
3749.373	7040
3751.022	7122
3752.669	6948
3754.318	7076
3755.966	7109
3757.612	7007
3759.259	6951
3760.905	7071
3762.55	6959
3764.197	6957
3765.842	7061
3767.486	6977
3769.131	6946
3770.774	7066
3772.417	6950
3774.061	6960
3775.705	6892
3777.347	7025
3778.988	6912
3780.629	6838
3782.271	6903
3783.912	6865
3785.552	6893
3787.192	6805
3788.831	6842
3790.472	6915
3792.112	6803
3793.75	6842
3795.388	6814
3797.024	6789
3798.661	6798
3800.3	6723
3801.936	6747
3803.572	6753
3805.208	6734
3806.844	6792
3808.48	6748
3810.115	6718
3811.748	6794
3813.382	6732
3815.016	6635
3816.649	6645
3818.283	6718
3819.914	6715
3821.547	6717
3823.178	6728
3824.809	6702
3826.441	6670
3828.072	6673
3829.701	6613
3831.331	6634
3832.96	6658
3834.591	6530
3836.219	6588
3837.847	6633
3839.475	6652
3841.102	6595
3842.729	6571
3844.357	6505
3845.984	6623
3847.609	6657
3849.234	6513
3850.86	6601
3852.485	6534
3854.11	6439
3855.734	6433
3857.357	6533
3858.981	6573
3860.603	6631
3862.227	6525
3863.848	6435
3865.471	6489
3867.092	6498
3868.713	6508
3870.334	6486
3871.954	6521
3873.575	6401
3875.194	6432
3876.813	6508
3878.433	6445
3880.051	6447
3881.669	6365
3883.286	6401
3884.904	6339
3886.52	6405
3888.138	6469
3889.754	6510
3891.37	6387
3892.985	6304
3894.6	6387
3896.216	6386
3897.831	6485
3899.444	6431
3901.058	6350
3902.67	6339
3904.283	6281
3905.897	6468
3907.509	6409
3909.121	6308
3910.731	6383
3912.342	6348
3913.954	6330
3915.563	6380
3917.174	6342
3918.783	6207
3920.391	6353
3922.002	6264
3923.611	6273
3925.218	6174
3926.826	6318
3928.432	6305
3930.039	6291
3931.647	6230
3933.253	6166
3934.859	6284
3936.464	6177
3938.068	6224
3939.675	6260
3941.278	6330
3942.883	6411
3944.486	6347
3946.089	6278
3947.692	6205
3949.295	6212
3950.898	6238
3952.499	6215
3954.1	6166
3955.7	6114
3957.303	6105
3958.903	6223
3960.502	6159
3962.101	6102
3963.7	6117
3965.301	6151
3966.899	6077
3968.497	6124
3970.094	6103
3971.691	6052
3973.288	6183
3974.885	6014
3976.481	6065
3978.077	6130
3979.672	6083
3981.267	5954
3982.863	6009
3984.457	5970
3986.051	6057
3987.645	5969
3989.238	5965
3990.831	5944
3992.425	5953
3994.017	5956
3995.607	6033
3997.199	6074
3998.79	5979
4000.382	5875
4001.973	5993
4003.561	5900
4005.151	5856
4006.741	5748
4008.331	5904
4009.918	5756
4011.507	5906
4013.095	5766
4014.681	5788
4016.269	5800
4017.856	5927
4019.443	5860
4021.028	5819
4022.614	5770
4024.199	5865
4025.785	5796
4027.37	5787
4028.953	5853
4030.536	5729
4032.12	5599
4033.704	5738
4035.287	5726
4036.869	5648
4038.45	5712
4040.032	5676
4041.613	5741
4043.195	5796
4044.776	5747
4046.356	5693
4047.935	5636
4049.515	5658
4051.095	5631
4052.674	5603
4054.251	5621
4055.829	5691
4057.406	5621
4058.985	5626
4060.562	5618
4062.139	5621
4063.715	5697
4065.29	5559
4066.865	5623
4068.442	5654
4070.016	5646
4071.59	5563
4073.164	5687
4074.738	5707
4076.312	5541
4077.885	5605
4079.458	5593
4081.03	5518
4082.602	5540
4084.173	5572
4085.745	5498
4087.315	5510
4088.886	5575
4090.456	5490
4092.026	5500
4093.596	5398
4095.165	5460
4096.734	5535
4098.301	5486
4099.869	5436
4101.437	5493
4103.006	5566
4104.572	5417
4106.139	5394
4107.704	5451
4109.27	5415
4110.837	5434
4112.401	5328
4113.966	5333
4115.53	5464
4117.094	5431
4118.659	5472
4120.223	5287
4121.785	5283
4123.347	5294
4124.909	5351
4126.471	5422
4128.034	5384
4129.595	5399
4131.155	5327
4132.716	5371
4134.275	5278
4135.836	5325
4137.395	5324
4138.955	5196
4140.513	5190
4142.071	5259
4143.628	5276
4145.188	5265
4146.745	5375
4148.302	5260
4149.858	5322
4151.414	5190
4152.971	5167
4154.526	5182
4156.081	5250
4157.635	5121
4159.189	5216
4160.745	5195
4162.298	5134
4163.852	5255
4165.405	5184
4166.957	5075
4168.51	5237
4170.063	5184
4171.614	5173
4173.166	5046
4174.717	5167
4176.267	5103
4177.817	5197
4179.368	5038
4180.917	5152
4182.466	4975
4184.016	5107
4185.564	5002
4187.112	5066
4188.66	5113
4190.207	5078
4191.754	4983
4193.301	5038
4194.848	5184
4196.394	4969
4197.94	5076
4199.484	5105
4201.03	5076
4202.575	4989
4204.12	5004
4205.663	5010
4207.207	4957
4208.75	4927
4210.292	4910
4211.836	4979
4213.378	4961
4214.92	4887
4216.46	4914
4218.002	4980
4219.544	4910
4221.083	4893
4222.625	4992
4224.164	4983
4225.703	4849
4227.244	4942
4228.782	4960
4230.32	4980
4231.857	4819
4233.395	4824
4234.933	4844
4236.471	4832
4238.007	5037
4239.542	4918
4241.078	4834
4242.614	4870
4244.15	4918
4245.685	4846
4247.219	4812
4248.753	4856
4250.287	4831
4251.82	4880
4253.354	4851
4254.887	4877
4256.419	4875
4257.951	4879
4259.483	4843
4261.016	4882
4262.547	4826
4264.078	4766
4265.608	4790
4267.137	4851
4268.668	4817
4270.197	4663
4271.727	4826
4273.254	4772
4274.783	4868
4276.311	4749
4277.84	4647
4279.366	4802
4280.894	4741
4282.42	4858
4283.946	4780
4285.473	4742
4286.998	4787
4288.523	4747
4290.047	4668
4291.572	4735
4293.096	4686
4294.622	4734
4296.144	4717
4297.668	4633
4299.19	4642
4300.713	4700
4302.236	4689
4303.758	4607
4305.279	4739
4306.799	4676
4308.321	4621
4309.842	4638
4311.361	4590
4312.882	4552
4314.401	4569
