400.0961	4076
402.6185	4145
405.1424	4108
407.6635	4081
410.1838	4138
412.7035	4098
415.2225	4116
417.7388	4165
420.2585	4150
422.7754	4153
425.2917	4276
427.8072	4292
430.3221	4322
432.8363	4346
435.3498	4271
437.8626	4329
440.3727	4370
442.8841	4381
445.3969	4362
447.907	4343
450.4142	4339
452.9229	4362
455.4289	4277
457.9362	4281
460.4449	4344
462.9488	4365
465.454	4326
467.9566	4304
470.4604	4313
472.9637	4290
475.4662	4338
477.966	4342
480.4671	4433
482.9656	4363
485.4633	4365
487.9645	4490
490.4608	4471
492.9566	4433
495.4536	4335
497.948	4413
500.4437	4464
502.9387	4461
505.431	4466
507.9226	4418
510.4136	4472
512.9079	4541
515.3975	4465
517.8864	4653
520.3746	4543
522.8622	4578
525.3491	4570
527.8394	4579
530.3249	4601
532.8098	4470
535.2939	4466
537.7774	4560
540.2623	4596
542.7444	4601
545.2259	4585
547.7067	4558
550.1868	4560
552.6683	4532
555.147	4488
557.6231	4548
560.1005	4582
562.5773	4630
565.0534	4540
567.5308	4595
570.0056	4604
572.4776	4626
574.951	4667
577.4237	4691
579.8978	4677
582.3671	4707
584.8378	4663
587.3079	4732
589.7773	4668
592.244	4745
594.714	4638
597.1793	4806
599.6461	4728
602.1121	4754
604.5754	4709
607.0421	4711
609.5042	4717
611.9675	4707
614.4282	4693
616.8902	4736
619.3515	4676
621.8122	4727
624.2702	4662
626.7296	4703
629.1863	4644
631.6423	4677
634.1017	4680
636.5563	4685
639.0104	4659
641.4658	4764
643.9185	4697
646.3725	4802
648.8239	4899
651.2766	4846
653.7266	4713
656.176	4764
658.6247	4821
661.0748	4741
663.5242	4784
665.9709	4823
668.417	4889
670.8624	4803
673.3092	4761
675.7533	4875
678.1968	4803
680.6395	4788
683.0817	4890
685.5251	4884
687.9659	4888
690.4061	4865
692.8456	4811
695.2844	4849
697.7226	4916
700.1621	4953
702.599	4911
705.0332	4937
707.4688	4973
709.9036	4940
712.3399	4977
714.7735	4966
717.2044	5042
719.6367	4964
722.0683	4997
724.4993	5006
726.9296	5001
729.3593	5038
731.7883	4980
734.2147	5032
736.6423	5114
739.0714	5077
741.4958	5114
743.9216	5084
746.3447	5126
748.7691	5029
751.1929	5098
753.616	5066
756.0366	5233
758.4584	5192
760.8776	5216
763.2982	5170
765.718	5240
768.1373	5251
770.5539	5235
772.9698	5299
775.3871	5223
777.8038	5248
780.2178	5190
782.6332	5223
785.0459	5212
787.458	5224
789.8714	5184
792.2842	5224
794.6943	5213
797.1038	5126
799.5127	5139
801.9209	5243
804.3324	5250
806.7393	5272
809.1456	5262
811.5513	5329
813.9562	5292
816.3625	5319
818.7663	5324
821.1693	5303
823.5718	5383
825.9735	5395
828.3746	5252
830.7771	5173
833.177	5329
835.5762	5418
837.9747	5275
840.3727	5352
842.772	5354
845.1666	5362
847.5626	5442
849.958	5396
852.3527	5458
854.7488	5465
857.1403	5544
859.5331	5465
861.9253	5391
864.3168	5428
866.7057	5466
869.098	5394
871.4876	5374
873.8746	5432
876.263	5487
878.6487	5487
881.0378	5447
883.4243	5474
885.8081	5393
888.1933	5378
890.5759	5369
892.9598	5343
895.343	5431
897.7256	5423
900.1057	5367
902.4871	5434
904.8659	5468
907.246	5446
909.6254	5549
912.0023	5511
914.3786	5565
916.7562	5592
919.1331	5647
921.5074	5633
923.8831	5738
926.2562	5731
928.6287	5852
931.0005	5675
933.3757	5678
935.7462	5807
938.1162	5866
940.4855	5673
942.8542	5818
945.2242	5808
947.5916	5801
949.9584	5925
952.3266	6023
954.6921	6207
957.0571	6354
959.4233	6534
961.787	6572
964.15	6524
966.5125	6396
968.8742	6372
971.2354	6214
973.5959	6038
975.9559	5953
978.3151	5820
980.6738	5693
983.0338	5640
985.3912	5722
987.7461	5637
990.1022	5615
992.4578	5722
994.8127	5652
997.1689	5677
999.5207	5607
1001.874	5608
1004.226	5648
1006.576	5612
1008.929	5692
1011.28	5621
1013.628	5595
1015.977	5723
1018.324	5702
1020.674	5698
1023.019	5579
1025.366	5626
1027.713	5724
1030.056	5739
1032.399	5645
1034.746	5724
1037.087	5633
1039.431	5733
1041.771	5605
1044.113	5747
1046.454	5709
1048.793	5881
1051.133	5811
1053.471	5652
1055.807	5726
1058.146	5727
1060.483	5730
1062.818	5775
1065.153	5777
1067.489	5726
1069.822	5846
1072.156	5811
1074.488	5814
1076.82	5780
1079.15	5790
1081.48	5735
1083.814	5646
1086.143	5866
1088.471	5799
1090.799	5754
1093.126	5766
1095.452	5720
1097.78	5745
1100.105	5824
1102.43	5856
1104.754	5628
1107.077	5870
1109.4	5887
1111.722	5738
1114.044	5833
1116.365	5843
1118.685	5762
1121.005	5811
1123.324	5845
1125.643	5864
1127.961	5761
1130.278	5859
1132.595	5775
1134.911	5803
1137.226	5865
1139.541	5768
1141.854	5840
1144.167	5753
1146.482	5795
1148.793	5892
1151.105	5869
1153.414	5708
1155.725	5812
1158.033	5823
1160.344	5895
1162.651	5827
1164.959	5673
1167.265	5768
1169.572	5844
1171.878	5785
1174.184	5829
1176.488	5848
1178.79	5873
1181.094	5851
1183.396	5782
1185.699	5934
1188.001	5875
1190.301	5748
1192.6	5806
1194.9	5692
1197.2	5831
1199.497	5987
1201.794	5815
1204.09	5819
1206.387	5777
1208.684	5820
1210.978	5826
1213.272	5868
1215.565	5828
1217.858	5803
1220.15	5861
1222.443	5796
1224.734	5763
1227.024	5967
1229.313	5920
1231.602	6001
1233.892	5957
1236.18	6008
1238.467	6002
1240.754	6025
1243.04	6064
1245.325	6103
1247.612	5965
1249.896	6006
1252.178	6092
1254.461	6171
1256.743	6087
1259.027	6115
1261.308	6066
1263.587	6146
1265.867	6155
1268.146	6182
1270.425	6090
1272.703	5986
1274.981	6151
1277.256	6036
1279.532	6095
1281.808	6089
1284.083	5891
1286.358	6079
1288.63	5961
1290.904	6007
1293.175	5957
1295.449	5996
1297.719	6081
1299.99	6041
1302.259	6016
1304.529	5853
1306.798	5955
1309.065	5906
1311.333	6002
1313.599	6017
1315.866	5984
1318.131	5986
1320.396	6084
1322.66	6006
1324.925	5995
1327.187	5966
1329.448	6137
1331.711	5985
1333.974	6081
1336.234	6048
1338.493	6108
1340.752	6008
1343.01	5988
1345.269	6067
1347.526	6008
1349.784	5995
1352.04	5991
1354.295	5897
1356.552	5982
1358.806	5928
1361.059	6102
1363.312	5999
1365.564	6106
1367.818	6109
1370.069	6067
1372.318	5937
1374.568	5917
1376.817	6125
1379.066	6021
1381.316	6088
1383.564	6032
1385.809	6040
1388.056	6169
1390.301	6100
1392.549	6172
1394.793	6242
1397.036	6148
1399.279	6335
1401.522	6329
1403.763	6238
1406.007	6323
1408.248	6296
1410.487	6279
1412.727	6295
1414.965	6361
1417.205	6304
1419.442	6335
1421.68	6326
1423.915	6081
1426.152	6127
1428.388	6209
1430.623	6152
1432.857	6247
1435.091	6276
1437.323	6267
1439.556	6296
1441.789	6266
1444.019	6265
1446.25	6345
1448.48	6282
1450.708	6273
1452.938	6377
1455.167	6445
1457.394	6312
1459.62	6483
1461.846	6320
1464.073	6310
1466.299	6290
1468.523	6311
1470.746	6269
1472.969	6218
1475.191	6253
1477.415	6289
1479.636	6184
1481.858	6196
1484.078	6196
1486.298	6110
1488.518	6096
1490.736	6086
1492.954	6040
1495.169	6081
1497.386	6033
1499.602	5975
1501.819	6073
1504.034	5967
1506.248	6111
1508.462	6069
1510.675	6052
1512.888	6008
1515.1	6009
1517.311	5948
1519.522	5974
1521.732	6073
1523.942	5998
1526.151	5989
1528.36	5984
1530.566	5980
1532.773	6073
1534.98	6058
1537.187	6123
1539.392	6014
1541.596	6069
1543.801	6105
1546.005	6077
1548.208	6084
1550.411	6134
1552.612	6074
1554.814	6118
1557.013	6071
1559.212	6143
1561.414	6190
1563.612	6233
1565.811	6070
1568.007	6023
1570.203	6169
1572.403	6231
1574.598	6118
1576.792	6185
1578.988	6129
1581.181	6091
1583.376	6236
1585.568	6300
1587.761	6202
1589.952	6292
1592.143	6355
1594.333	6168
1596.524	6277
1598.715	6238
1600.903	6215
1603.091	6229
1605.278	6207
1607.466	6270
1609.652	6192
1611.838	6225
1614.023	6253
1616.207	6093
1618.391	6383
1620.576	6173
1622.759	6267
1624.941	6232
1627.123	6281
1629.304	6253
1631.484	6242
1633.664	6285
1635.844	6246
1638.022	6204
1640.201	6251
1642.38	6301
1644.556	6272
1646.732	6345
1648.908	6255
1651.084	6387
1653.257	6445
1655.433	6244
1657.607	6350
1659.779	6320
1661.951	6306
1664.122	6416
1666.295	6392
1668.467	6409
1670.635	6357
1672.805	6320
1674.973	6369
1677.142	6448
1679.31	6371
1681.478	6294
1683.644	6285
1685.81	6360
1687.975	6290
1690.142	6355
1692.305	6329
1694.468	6218
1696.632	6350
1698.794	6164
1700.957	6137
1703.119	6248
1705.279	6232
1707.439	6371
1709.598	6240
1711.758	6248
1713.917	6181
1716.075	6350
1718.231	6260
1720.388	6206
1722.543	6201
1724.702	6199
1726.856	6168
1729.01	6187
1731.164	6172
1733.317	6251
1735.471	6224
1737.623	6145
1739.774	6227
1741.925	6354
1744.075	6348
1746.225	6231
1748.376	6189
1750.524	6226
1752.672	6265
1754.82	6199
1756.965	6305
1759.113	6314
1761.259	6317
1763.405	6246
1765.549	6261
1767.694	6205
1769.836	6348
1771.981	6318
1774.123	6152
1776.264	6374
1778.405	6255
1780.546	6261
1782.687	6287
1784.827	6175
1786.966	6253
1789.103	6316
1791.242	6269
1793.381	6237
1795.517	6210
1797.653	6234
1799.788	6186
1801.923	6318
1804.057	6355
1806.193	6282
1808.326	6337
1810.457	6307
1812.59	6306
1814.721	6334
1816.855	6222
1818.984	6315
1821.113	6317
1823.244	6243
1825.372	6291
1827.499	6167
1829.63	6265
1831.756	6226
1833.882	6260
1836.007	6382
1838.132	6285
1840.26	6283
1842.384	6221
1844.507	6290
1846.63	6201
1848.752	6227
1850.875	6238
1852.996	6290
1855.118	6125
1857.238	6101
1859.358	6344
1861.477	6169
1863.597	6333
1865.715	6152
1867.832	6317
1869.948	6252
1872.064	6133
1874.181	6085
1876.297	6175
1878.411	6223
1880.526	6239
1882.639	6254
1884.752	6211
1886.865	6174
1888.977	6243
1891.089	6348
1893.2	6223
1895.308	6149
1897.42	6148
1899.53	6366
1901.639	6257
1903.745	6263
1905.853	6200
1907.962	6391
1910.067	6259
1912.174	6344
1914.278	6242
1916.383	6284
1918.486	6313
1920.592	6263
1922.694	6200
1924.797	6185
1926.898	6259
1929	6285
1931.102	6335
1933.203	6356
1935.301	6373
1937.401	6274
1939.499	6267
1941.598	6482
1943.697	6257
1945.793	6246
1947.888	6202
1949.985	6233
1952.08	6279
1954.176	6209
1956.269	6304
1958.364	6330
1960.457	6322
1962.549	6260
1964.642	6313
1966.733	6248
1968.823	6307
1970.913	6189
1973.005	6266
1975.093	6379
1977.184	6377
1979.271	6211
1981.359	6262
1983.446	6359
1985.532	6225
1987.619	6283
1989.705	6230
1991.789	6188
1993.874	6260
1995.956	6280
1998.041	6304
2000.123	6136
2002.206	6419
2004.287	6318
2006.368	6241
2008.449	6225
2010.529	6195
2012.609	6247
2014.688	6139
2016.766	6190
2018.843	6408
2020.922	6236
2022.999	6325
2025.074	6350
2027.15	6187
2029.225	6281
2031.299	6219
2033.375	6173
2035.447	6123
2037.52	6318
2039.592	6208
2041.664	6189
2043.736	6319
2045.807	6177
2047.876	6267
2049.947	6203
2052.015	6181
2054.086	6328
2056.153	6230
2058.221	6250
2060.288	6285
2062.353	6272
2064.42	6208
2066.486	6244
2068.55	6339
2070.614	6177
2072.678	6216
2074.741	6239
2076.805	6202
2078.866	6354
2080.929	6247
2082.99	6195
2085.049	6223
2087.109	6340
2089.17	6201
2091.228	6220
2093.286	6265
2095.344	6229
2097.4	6218
2099.46	6260
2101.516	6171
2103.572	6158
2105.626	6163
2107.679	6213
2109.735	6183
2111.788	6182
2113.841	6253
2115.894	6160
2117.945	6286
2119.997	6258
2122.049	6228
2124.1	6244
2126.148	6222
2128.197	6220
2130.246	6184
2132.296	6179
2134.342	6236
2136.39	6308
2138.437	6210
2140.483	6326
2142.527	6151
2144.574	6167
2146.619	6172
2148.661	6255
2150.705	6206
2152.747	6187
2154.792	6212
2156.832	6162
2158.874	6191
2160.915	6148
2162.954	6267
2164.995	6136
2167.034	6279
2169.072	6201
2171.111	6199
2173.148	6109
2175.186	6199
2177.223	6229
2179.258	6091
2181.294	6071
2183.328	6105
2185.362	6099
2187.398	6114
2189.431	6158
2191.463	6068
2193.495	6072
2195.528	6140
2197.56	6216
2199.59	6198
2201.62	6151
2203.649	6114
2205.678	6184
2207.708	6108
2209.737	6006
2211.764	6059
2213.791	6060
2215.817	6153
2217.843	5988
2219.87	6191
2221.895	6039
2223.919	6030
2225.942	6046
2227.966	6011
2229.988	6072
2232.012	5857
2234.032	6104
2236.054	5938
2238.074	6036
2240.095	6005
2242.116	5997
2244.135	5996
2246.153	5937
2248.171	6047
2250.188	6155
2252.208	5957
2254.223	5933
2256.239	5968
2258.255	6102
2260.269	6054
2262.283	6044
2264.3	6093
2266.312	5963
2268.325	6082
2270.336	6022
2272.349	6063
2274.362	6098
2276.372	6032
2278.383	6108
2280.392	6039
2282.402	6072
2284.409	5904
2286.418	6193
2288.427	6046
2290.433	5943
2292.441	6050
2294.446	5980
2296.453	6043
2298.459	5989
2300.463	6029
2302.466	6084
2304.471	6045
2306.475	5998
2308.477	5971
2310.478	6032
2312.481	5953
2314.481	6019
2316.481	5922
2318.482	6021
2320.482	6039
2322.48	5853
2324.48	6046
2326.478	5996
2328.476	5967
2330.473	6025
2332.469	6043
2334.465	5975
2336.46	5911
2338.454	5918
2340.45	5980
2342.444	5893
2344.437	5839
2346.43	5974
2348.421	5950
2350.414	5938
2352.405	5877
2354.396	5904
2356.386	6008
2358.376	5818
2360.366	5967
2362.355	5938
2364.343	5929
2366.331	5791
2368.317	5945
2370.304	5843
2372.292	5896
2374.278	5852
2376.262	6002
2378.247	5833
2380.23	5844
2382.216	5815
2384.199	5865
2386.181	5890
2388.163	5803
2390.144	5851
2392.127	5887
2394.107	5772
2396.087	5909
2398.066	5867
2400.046	5861
2402.023	5811
2404.004	5849
2405.981	5785
2407.957	5790
2409.934	5797
2411.91	5776
2413.886	5859
2415.862	5835
2417.836	5780
2419.809	5906
2421.784	5865
2423.756	5781
2425.73	5731
2427.701	5743
2429.672	5772
2431.644	5714
2433.615	5772
2435.586	5783
2437.555	5741
2439.523	5870
2441.491	5770
2443.459	5802
2445.428	5730
2447.395	5690
2449.361	5899
2451.327	5722
2453.292	5786
2455.257	5827
2457.223	5706
2459.187	5681
2461.15	5684
2463.113	5833
2465.076	5697
2467.039	5781
2468.999	5735
2470.96	5682
2472.921	5755
2474.881	5774
2476.841	5767
2478.8	5672
2480.759	5746
2482.717	5719
2484.675	5741
2486.63	5770
2488.589	5728
2490.545	5724
2492.5	5734
2494.455	5625
2496.408	5678
2498.364	5632
2500.318	5603
2502.27	5727
2504.223	5651
2506.174	5750
2508.126	5632
2510.078	5656
2512.03	5677
2513.979	5693
2515.927	5664
2517.877	5755
2519.826	5554
2521.775	5742
2523.722	5617
2525.668	5673
2527.616	5704
2529.561	5620
2531.508	5681
2533.452	5567
2535.398	5564
2537.342	5684
2539.284	5681
2541.229	5677
2543.173	5692
2545.114	5698
2547.055	5668
2548.996	5611
2550.938	5603
2552.878	5676
2554.817	5739
2556.756	5713
2558.695	5664
2560.633	5682
2562.572	5672
2564.509	5767
2566.445	5672
2568.382	5618
2570.317	5681
2572.254	5672
2574.189	5660
2576.123	5691
2578.057	5625
2579.99	5587
2581.923	5642
2583.855	5681
2585.788	5698
2587.719	5643
2589.65	5654
2591.579	5641
2593.511	5518
2595.44	5658
2597.37	5688
2599.297	5658
2601.225	5543
2603.153	5679
2605.08	5678
2607.007	5579
2608.932	5597
2610.858	5560
2612.782	5681
2614.709	5750
2616.632	5597
2618.556	5648
2620.478	5602
2622.401	5628
2624.324	5694
2626.247	5746
2628.167	5643
2630.088	5698
2632.008	5679
2633.928	5634
2635.848	5696
2637.766	5554
2639.684	5691
2641.603	5665
2643.519	5744
2645.437	5562
2647.353	5560
2649.27	5601
2651.184	5695
2653.099	5685
2655.014	5750
2656.928	5582
2658.842	5603
2660.755	5713
2662.667	5675
2664.579	5613
2666.491	5699
2668.402	5664
2670.312	5580
2672.222	5642
2674.132	5573
2676.042	5628
2677.951	5627
2679.859	5522
2681.766	5575
2683.674	5524
2685.582	5443
2687.488	5588
2689.392	5542
2691.298	5651
2693.202	5559
2695.107	5657
2697.012	5503
2698.914	5606
2700.817	5418
2702.72	5618
2704.622	5528
2706.524	5649
2708.425	5530
2710.326	5536
2712.225	5608
2714.125	5538
2716.024	5603
2717.923	5559
2719.822	5473
2721.719	5516
2723.616	5563
2725.512	5554
2727.41	5504
2729.305	5504
2731.201	5555
2733.095	5667
2734.99	5537
2736.884	5442
2738.778	5603
2740.67	5504
2742.562	5560
2744.455	5458
2746.346	5444
2748.238	5541
2750.129	5407
2752.018	5391
2753.907	5457
2755.797	5531
2757.687	5533
2759.575	5451
2761.462	5447
2763.349	5484
2765.237	5437
2767.124	5447
2769.009	5422
2770.894	5448
2772.779	5509
2774.663	5557
2776.547	5442
2778.431	5488
2780.314	5425
2782.197	5402
2784.078	5436
2785.96	5384
2787.842	5433
2789.723	5417
2791.603	5345
2793.483	5416
2795.362	5331
2797.241	5462
2799.121	5453
2800.997	5436
2802.874	5368
2804.751	5304
2806.628	5448
2808.506	5442
2810.38	5356
2812.255	5413
2814.13	5456
2816.003	5381
2817.878	5402
2819.752	5449
2821.623	5523
2823.496	5375
2825.368	5462
2827.238	5425
2829.111	5431
2830.98	5346
2832.851	5474
2834.719	5473
2836.589	5457
2838.458	5447
2840.327	5379
2842.193	5441
2844.061	5400
2845.927	5417
2847.794	5446
2849.66	5449
2851.525	5418
2853.39	5446
2855.254	5602
2857.117	5509
2858.983	5533
2860.845	5673
2862.707	5576
2864.569	5573
2866.431	5574
2868.293	5564
2870.154	5682
2872.013	5594
2873.873	5645
2875.733	5708
2877.592	5736
2879.451	5795
2881.309	5803
2883.166	5847
2885.022	6012
2886.879	5867
2888.736	5903
2890.591	5935
2892.446	6088
2894.301	5964
2896.155	5936
2898.009	5947
2899.863	5953
2901.716	5827
2903.568	5890
2905.419	5798
2907.27	5827
2909.123	5893
2910.973	5839
2912.824	5937
2914.673	5960
2916.521	6050
2918.372	6050
2920.22	6126
2922.067	6179
2923.914	6116
2925.761	6143
2927.607	6326
2929.455	6269
2931.301	6195
2933.144	6243
2934.99	6392
2936.833	6374
2938.678	6375
2940.522	6424
2942.364	6510
2944.207	6611
2946.048	6657
2947.891	6695
2949.731	6664
2951.571	6608
2953.412	6762
2955.25	6717
2957.09	6677
2958.93	6526
2960.767	6439
2962.606	6324
2964.443	6355
2966.279	6426
2968.116	6337
2969.953	6087
2971.788	6104
2973.623	5922
2975.457	6037
2977.292	6003
2979.127	5989
2980.959	5798
2982.792	5971
2984.624	5864
2986.455	5882
2988.288	5656
2990.119	5802
2991.949	5754
2993.779	5641
2995.608	5613
2997.439	5645
2999.268	5636
3001.096	5565
3002.923	5472
3004.751	5541
3006.578	5356
3008.406	5563
3010.232	5339
3012.057	5437
3013.883	5295
3015.706	5431
3017.532	5209
3019.356	5417
3021.179	5229
3023.002	5260
3024.823	5276
3026.646	5204
3028.469	5155
3030.289	5114
3032.11	5205
3033.93	5196
3035.749	5205
3037.57	5146
3039.39	5101
3041.207	5142
3043.026	5058
3044.842	5089
3046.661	5182
3048.477	5132
3050.294	5071
3052.109	5130
3053.925	5108
3055.739	5095
3057.555	5219
3059.368	5171
3061.181	5065
3062.995	5116
3064.807	5124
3066.62	5066
3068.433	5119
3070.243	5197
3072.054	5013
3073.865	5018
3075.675	5025
3077.485	5058
3079.293	4964
3081.102	5078
3082.911	5010
3084.719	4984
3086.527	5008
3088.333	4978
3090.139	5034
3091.945	4925
3093.75	5087
3095.557	4978
3097.361	4948
3099.165	4887
3100.969	4944
3102.772	4934
3104.575	4875
3106.379	4966
3108.181	5002
3109.982	4932
3111.783	4901
3113.584	5031
3115.386	4838
3117.186	4858
3118.985	4922
3120.783	4813
3122.582	4898
3124.381	4850
3126.179	4927
3127.975	4878
3129.772	4826
3131.569	4845
3133.365	4782
3135.161	4828
3136.956	4834
3138.751	4824
3140.544	4888
3142.338	4761
3144.132	4807
3145.925	4853
3147.717	4817
3149.509	4833
3151.301	4741
3153.091	4789
3154.884	4826
3156.673	4799
3158.462	4770
3160.252	4807
3162.041	4725
3163.831	4761
3165.618	4797
3167.405	4742
3169.193	4733
3170.979	4734
3172.767	4725
3174.553	4697
3176.338	4769
3178.123	4659
3179.907	4799
3181.692	4715
3183.477	4663
3185.259	4781
3187.042	4726
3188.824	4801
3190.607	4651
3192.389	4709
3194.17	4730
3195.951	4698
3197.73	4669
3199.51	4678
3201.289	4754
3203.07	4729
3204.848	4692
3206.626	4650
3208.403	4734
3210.18	4686
3211.959	4727
3213.735	4755
3215.511	4718
3217.285	4715
3219.06	4641
3220.836	4662
3222.611	4667
3224.384	4702
3226.158	4681
3227.929	4813
3229.702	4781
3231.476	4638
3233.248	4654
3235.018	4733
3236.789	4682
3238.56	4682
3240.33	4644
3242.1	4605
3243.869	4735
3245.637	4644
3247.405	4644
3249.172	4698
3250.941	4741
3252.707	4747
3254.474	4674
3256.24	4729
3258.006	4651
3259.772	4644
3261.537	4759
3263.301	4721
3265.065	4602
3266.828	4751
3268.592	4660
3270.355	4775
3272.117	4663
3273.878	4576
3275.64	4707
3277.401	4682
3279.162	4726
3280.922	4666
3282.682	4686
3284.441	4703
3286.199	4722
3287.959	4684
3289.716	4583
3291.475	4641
3293.232	4649
3294.988	4696
3296.744	4671
3298.501	4713
3300.256	4635
3302.011	4702
3303.766	4701
3305.52	4706
3307.275	4657
3309.028	4687
3310.781	4613
3312.533	4591
3314.285	4662
3316.038	4664
3317.789	4594
3319.54	4600
3321.289	4676
3323.039	4565
3324.789	4685
3326.539	4715
3328.288	4542
3330.035	4669
3331.783	4622
3333.531	4595
3335.28	4538
3337.025	4558
3338.771	4606
3340.518	4545
3342.262	4546
3344.009	4559
3345.753	4478
3347.497	4617
3349.24	4552
3350.983	4546
3352.726	4580
3354.469	4578
3356.212	4606
3357.952	4443
3359.694	4576
3361.434	4563
3363.176	4545
3364.916	4567
3366.654	4603
3368.394	4527
3370.132	4578
3371.871	4498
3373.61	4469
3375.346	4515
3377.083	4541
3378.82	4437
3380.556	4517
3382.292	4388
3384.027	4410
3385.763	4340
3387.497	4457
3389.231	4424
3390.965	4503
3392.698	4505
3394.431	4368
3396.164	4514
3397.896	4477
3399.627	4462
3401.36	4428
3403.09	4439
3404.82	4506
3406.55	4422
3408.279	4384
3410.01	4483
3411.738	4451
3413.467	4426
3415.194	4475
3416.92	4446
3418.647	4407
3420.375	4373
3422.102	4459
3423.827	4308
3425.553	4281
3427.277	4389
3429.003	4335
3430.727	4366
3432.451	4387
3434.173	4392
3435.896	4404
3437.62	4362
3439.343	4336
3441.063	4373
3442.785	4421
3444.505	4349
3446.226	4251
3447.948	4347
3449.666	4298
3451.386	4253
3453.104	4290
3454.823	4321
3456.541	4302
3458.259	4258
3459.976	4272
3461.693	4235
3463.408	4232
3465.125	4334
3466.841	4270
3468.556	4188
3470.271	4338
3471.985	4212
3473.698	4168
3475.414	4141
3477.126	4200
3478.838	4242
3480.55	4220
3482.263	4185
3483.975	4166
3485.686	4180
3487.396	4145
3489.106	4139
3490.817	4214
3492.526	4219
3494.236	4197
3495.944	4178
3497.652	4103
3499.359	4195
3501.066	4124
3502.775	4143
3504.481	4011
3506.187	4161
3507.893	4043
3509.598	4078
3511.304	4084
3513.009	4131
3514.713	4161
3516.417	4009
3518.12	4079
3519.821	4185
3521.525	4005
3523.228	4045
3524.929	4059
3526.631	4090
3528.33	3978
3530.032	4098
3531.733	4028
3533.433	4040
3535.131	4032
3536.83	4082
3538.529	4061
3540.227	4055
3541.925	4084
3543.623	4026
3545.319	4016
3547.016	3948
3548.712	3937
3550.408	4023
3552.103	4097
3553.798	4017
3555.491	3997
3557.188	3999
3558.88	3977
3560.574	3961
3562.266	3994
3563.959	3948
3565.651	3977
3567.343	3963
3569.035	3929
3570.725	3991
3572.415	3953
3574.106	3871
3575.797	4003
3577.485	3921
3579.174	3881
3580.863	3896
3582.551	3915
3584.238	3983
3585.926	3901
3587.613	3927
3589.3	3940
3590.986	3944
3592.671	3817
3594.357	3932
3596.042	3822
3597.726	3871
3599.41	3899
3601.094	3890
3602.778	3958
3604.461	3846
3606.143	3888
3607.825	3823
3609.507	3811
3611.188	3827
3612.87	3866
3614.551	3838
3616.229	3877
3617.909	3738
3619.589	3781
3621.269	3856
3622.948	3867
3624.625	3718
3626.302	3741
3627.98	3840
3629.657	3826
3631.334	3815
3633.01	3691
3634.686	3722
3636.361	3725
3638.036	3721
3639.712	3729
3641.385	3709
3643.06	3774
3644.732	3723
3646.405	3709
3648.08	3587
3649.751	3695
3651.424	3639
3653.094	3676
3654.766	3698
3656.436	3691
3658.106	3687
3659.777	3614
3661.446	3686
3663.115	3630
3664.783	3642
3666.452	3666
3668.121	3629
3669.788	3624
3671.454	3629
3673.121	3610
3674.789	3580
3676.455	3584
3678.12	3632
3679.784	3681
3681.45	3578
3683.114	3593
3684.779	3613
3686.442	3587
3688.105	3581
3689.768	3598
3691.43	3593
3693.093	3677
3694.754	3540
3696.415	3612
3698.076	3606
3699.736	3664
3701.396	3548
3703.057	3607
3704.716	3651
3706.375	3527
3708.034	3638
3709.692	3575
3711.351	3499
3713.008	3671
3714.665	3559
3716.321	3612
3717.977	3615
3719.634	3529
3721.29	3587
3722.945	3555
3724.598	3557
3726.253	3514
3727.907	3582
3729.561	3572
3731.214	3456
3732.867	3575
3734.518	3534
3736.171	3552
3737.824	3511
3739.474	3519
3741.125	3525
3742.775	3460
3744.425	3525
3746.074	3521
3747.725	3464
3749.373	3468
3751.022	3459
3752.669	3544
3754.318	3434
3755.966	3533
3757.612	3476
3759.259	3477
3760.905	3623
3762.55	3441
3764.197	3479
3765.842	3498
3767.486	3492
3769.131	3447
3770.774	3493
3772.417	3380
3774.061	3399
3775.705	3378
3777.347	3441
3778.988	3309
3780.629	3487
3782.271	3422
3783.912	3409
3785.552	3505
3787.192	3380
3788.831	3469
3790.472	3383
3792.112	3372
3793.75	3446
3795.388	3467
3797.024	3437
3798.661	3430
3800.3	3355
3801.936	3340
3803.572	3333
3805.208	3336
3806.844	3292
3808.48	3456
3810.115	3355
3811.748	3277
3813.382	3337
3815.016	3314
3816.649	3342
3818.283	3410
3819.914	3401
3821.547	3408
3823.178	3354
3824.809	3377
3826.441	3347
3828.072	3382
3829.701	3349
3831.331	3295
3832.96	3286
3834.591	3230
3836.219	3323
3837.847	3335
3839.475	3290
3841.102	3301
3842.729	3307
3844.357	3255
3845.984	3236
3847.609	3372
3849.234	3231
3850.86	3239
3852.485	3269
3854.11	3220
3855.734	3308
3857.357	3258
3858.981	3253
3860.603	3222
3862.227	3236
3863.848	3240
3865.471	3240
3867.092	3198
3868.713	3200
3870.334	3245
3871.954	3300
3873.575	3215
3875.194	3207
3876.813	3294
3878.433	3171
3880.051	3227
3881.669	3294
3883.286	3230
3884.904	3194
3886.52	3219
3888.138	3183
3889.754	3197
3891.37	3179
3892.985	3138
3894.6	3199
3896.216	3226
3897.831	3226
3899.444	3235
3901.058	3264
3902.67	3177
3904.283	3246
3905.897	3216
3907.509	3290
3909.121	3138
3910.731	3165
3912.342	3191
3913.954	3165
3915.563	3086
3917.174	3247
3918.783	3179
3920.391	3135
3922.002	3181
3923.611	3149
3925.218	3209
3926.826	3190
3928.432	3210
3930.039	3078
3931.647	3226
3933.253	3168
3934.859	3049
3936.464	3227
3938.068	3158
3939.675	3134
3941.278	3181
3942.883	3133
3944.486	3154
3946.089	3131
3947.692	3110
3949.295	3091
3950.898	3123
3952.499	3105
3954.1	3090
3955.7	3123
3957.303	3069
3958.903	3062
3960.502	3099
3962.101	3099
3963.7	3104
3965.301	3097
3966.899	3053
3968.497	3104
3970.094	3044
3971.691	3071
3973.288	3112
3974.885	3151
3976.481	3045
3978.077	3070
3979.672	3063
3981.267	3065
3982.863	3066
3984.457	3038
3986.051	3000
3987.645	3147
3989.238	2977
3990.831	3011
3992.425	3028
3994.017	3028
3995.607	3070
3997.199	3039
3998.79	2977
4000.382	2972
4001.973	3046
4003.561	2947
4005.151	2980
4006.741	2946
4008.331	2994
4009.918	3062
4011.507	2900
4013.095	3045
4014.681	2881
4016.269	2996
4017.856	3001
4019.443	3002
4021.028	2970
4022.614	2977
4024.199	2997
4025.785	2942
4027.37	2983
4028.953	2957
4030.536	2940
4032.12	2923
4033.704	2810
4035.287	2946
4036.869	2897
4038.45	2897
4040.032	2910
4041.613	2892
4043.195	2901
4044.776	2881
4046.356	2948
4047.935	2855
4049.515	2851
4051.095	2839
4052.674	2872
4054.251	2808
4055.829	2852
4057.406	2855
4058.985	2881
4060.562	2890
4062.139	2818
4063.715	2920
4065.29	2853
4066.865	2852
4068.442	2858
4070.016	2883
4071.59	2847
4073.164	2819
4074.738	2900
4076.312	2879
4077.885	2833
4079.458	2861
4081.03	2880
4082.602	2830
4084.173	2847
4085.745	2805
4087.315	2818
4088.886	2804
4090.456	2828
4092.026	2794
4093.596	2828
4095.165	2804
4096.734	2848
4098.301	2825
4099.869	2847
4101.437	2818
4103.006	2926
4104.572	2772
4106.139	2761
4107.704	2834
4109.27	2759
4110.837	2895
4112.401	2803
4113.966	2728
4115.53	2764
4117.094	2824
4118.659	2768
4120.223	2744
4121.785	2805
4123.347	2794
4124.909	2693
4126.471	2771
4128.034	2807
4129.595	2739
4131.155	2742
4132.716	2714
4134.275	2757
4135.836	2741
4137.395	2693
4138.955	2776
4140.513	2737
4142.071	2720
4143.628	2749
4145.188	2631
4146.745	2671
4148.302	2665
4149.858	2691
4151.414	2680
4152.971	2675
4154.526	2662
4156.081	2702
4157.635	2702
4159.189	2691
4160.745	2668
4162.298	2726
4163.852	2684
4165.405	2639
4166.957	2721
4168.51	2647
4170.063	2668
4171.614	2623
4173.166	2618
4174.717	2703
4176.267	2689
4177.817	2604
4179.368	2628
4180.917	2588
4182.466	2635
4184.016	2632
4185.564	2629
4187.112	2584
4188.66	2583
4190.207	2621
4191.754	2659
4193.301	2562
4194.848	2680
4196.394	2640
4197.94	2622
4199.484	2569
4201.03	2594
4202.575	2564
4204.12	2652
4205.663	2598
4207.207	2578
4208.75	2551
4210.292	2593
4211.836	2646
4213.378	2571
4214.92	2496
4216.46	2600
4218.002	2622
4219.544	2598
4221.083	2610
4222.625	2569
4224.164	2584
4225.703	2605
4227.244	2577
4228.782	2501
4230.32	2545
4231.857	2571
4233.395	2523
4234.933	2597
4236.471	2564
4238.007	2584
4239.542	2504
4241.078	2598
4242.614	2524
4244.15	2547
4245.685	2487
4247.219	2507
4248.753	2556
4250.287	2514
4251.82	2502
4253.354	2463
4254.887	2489
4256.419	2539
4257.951	2555
4259.483	2506
4261.016	2567
4262.547	2500
4264.078	2492
4265.608	2579
4267.137	2437
4268.668	2519
4270.197	2477
4271.727	2546
4273.254	2409
4274.783	2455
4276.311	2571
4277.84	2528
4279.366	2514
4280.894	2481
4282.42	2433
4283.946	2481
4285.473	2494
4286.998	2493
4288.523	2512
4290.047	2476
4291.572	2447
4293.096	2486
4294.622	2487
4296.144	2415
4297.668	2481
4299.19	2438
4300.713	2462
4302.236	2480
4303.758	2387
4305.279	2450
4306.799	2428
4308.321	2434
4309.842	2454
4311.361	2535
4312.882	2424
4314.401	2422
