400.0961	4422
402.6185	4491
405.1424	4495
407.6635	4489
410.1838	4552
412.7035	4455
415.2225	4565
417.7388	4467
420.2585	4508
422.7754	4622
425.2917	4664
427.8072	4693
430.3221	4741
432.8363	4766
435.3498	4711
437.8626	4771
440.3727	4752
442.8841	4796
445.3969	4672
447.907	4764
450.4142	4707
452.9229	4740
455.4289	4742
457.9362	4700
460.4449	4814
462.9488	4771
465.454	4745
467.9566	4658
470.4604	4661
472.9637	4722
475.4662	4755
477.966	4824
480.4671	4674
482.9656	4757
485.4633	4701
487.9645	4859
490.4608	4851
492.9566	4829
495.4536	4851
497.948	4907
500.4437	4957
502.9387	4799
505.431	4901
507.9226	4802
510.4136	4847
512.9079	4894
515.3975	4866
517.8864	4898
520.3746	4864
522.8622	4889
525.3491	4837
527.8394	4950
530.3249	4996
532.8098	4880
535.2939	4954
537.7774	4930
540.2623	4972
542.7444	4964
545.2259	4891
547.7067	4947
550.1868	5005
552.6683	4974
555.147	5031
557.6231	5004
560.1005	5073
562.5773	5055
565.0534	4960
567.5308	5059
570.0056	5103
572.4776	4953
574.951	4986
577.4237	5104
579.8978	5226
582.3671	5205
584.8378	5148
587.3079	5266
589.7773	5279
592.244	5210
594.714	5203
597.1793	5071
599.6461	5106
602.1121	5251
604.5754	5153
607.0421	5141
609.5042	5089
611.9675	5150
614.4282	5176
616.8902	5100
619.3515	5175
621.8122	5161
624.2702	5137
626.7296	5148
629.1863	5044
631.6423	5107
634.1017	5049
636.5563	5112
639.0104	5093
641.4658	5047
643.9185	5185
646.3725	5128
648.8239	5112
651.2766	5105
653.7266	5112
656.176	5232
658.6247	5183
661.0748	5230
663.5242	5188
665.9709	5186
668.417	5237
670.8624	5275
673.3092	5210
675.7533	5169
678.1968	5255
680.6395	5167
683.0817	5248
685.5251	5304
687.9659	5310
690.4061	5287
692.8456	5334
695.2844	5401
697.7226	5347
700.1621	5219
702.599	5425
705.0332	5364
707.4688	5459
709.9036	5391
712.3399	5404
714.7735	5421
717.2044	5426
719.6367	5490
722.0683	5347
724.4993	5480
726.9296	5527
729.3593	5488
731.7883	5547
734.2147	5549
736.6423	5531
739.0714	5515
741.4958	5538
743.9216	5578
746.3447	5604
748.7691	5485
751.1929	5641
753.616	5591
756.0366	5580
758.4584	5693
760.8776	5708
763.2982	5597
765.718	5680
768.1373	5680
770.5539	5602
772.9698	5647
775.3871	5724
777.8038	5635
780.2178	5620
782.6332	5655
785.0459	5707
787.458	5718
789.8714	5610
792.2842	5719
794.6943	5733
797.1038	5675
799.5127	5728
801.9209	5660
804.3324	5676
806.7393	5645
809.1456	5709
811.5513	5865
813.9562	5757
816.3625	5774
818.7663	5767
821.1693	5863
823.5718	5748
825.9735	5826
828.3746	5846
830.7771	5781
833.177	5750
835.5762	5835
837.9747	5768
840.3727	5807
842.772	5792
845.1666	5959
847.5626	5898
849.958	5900
852.3527	5961
854.7488	6040
857.1403	5953
859.5331	5958
861.9253	6019
864.3168	5941
866.7057	5966
869.098	5903
871.4876	5988
873.8746	5831
876.263	5906
878.6487	5879
881.0378	5791
883.4243	5841
885.8081	5906
888.1933	5925
890.5759	5833
892.9598	5809
895.343	5839
897.7256	5888
900.1057	5907
902.4871	5944
904.8659	5919
907.246	5886
909.6254	6024
912.0023	6003
914.3786	6090
916.7562	6196
919.1331	6274
921.5074	6296
923.8831	6293
926.2562	6413
928.6287	6332
931.0005	6333
933.3757	6407
935.7462	6248
938.1162	6255
940.4855	6348
942.8542	6323
945.2242	6433
947.5916	6447
949.9584	6639
952.3266	6697
954.6921	6950
957.0571	7120
959.4233	7354
961.787	7443
964.15	7412
966.5125	7288
968.8742	7016
971.2354	6761
973.5959	6560
975.9559	6513
978.3151	6400
980.6738	6325
983.0338	6251
985.3912	6180
987.7461	6277
990.1022	6218
992.4578	6163
994.8127	6099
997.1689	6162
999.5207	6084
1001.874	6161
1004.226	6217
1006.576	6243
1008.929	6238
1011.28	6089
1013.628	6138
1015.977	6171
1018.324	6228
1020.674	6139
1023.019	6122
1025.366	6159
1027.713	6227
1030.056	6132
1032.399	6190
1034.746	6223
1037.087	6248
1039.431	6229
1041.771	6307
1044.113	6202
1046.454	6177
1048.793	6313
1051.133	6264
1053.471	6237
1055.807	6357
1058.146	6330
1060.483	6232
1062.818	6341
1065.153	6204
1067.489	6288
1069.822	6339
1072.156	6400
1074.488	6379
1076.82	6469
1079.15	6360
1081.48	6273
1083.814	6313
1086.143	6337
1088.471	6272
1090.799	6233
1093.126	6200
1095.452	6218
1097.78	6281
1100.105	6259
1102.43	6287
1104.754	6265
1107.077	6300
1109.4	6213
1111.722	6400
1114.044	6238
1116.365	6479
1118.685	6315
1121.005	6259
1123.324	6296
1125.643	6303
1127.961	6341
1130.278	6377
1132.595	6314
1134.911	6206
1137.226	6330
1139.541	6208
1141.854	6363
1144.167	6243
1146.482	6326
1148.793	6256
1151.105	6246
1153.414	6262
1155.725	6425
1158.033	6355
1160.344	6316
1162.651	6357
1164.959	6427
1167.265	6397
1169.572	6383
1171.878	6341
1174.184	6262
1176.488	6394
1178.79	6265
1181.094	6444
1183.396	6270
1185.699	6295
1188.001	6294
1190.301	6331
1192.6	6374
1194.9	6359
1197.2	6425
1199.497	6295
1201.794	6319
1204.09	6358
1206.387	6342
1208.684	6286
1210.978	6406
1213.272	6373
1215.565	6212
1217.858	6376
1220.15	6418
1222.443	6358
1224.734	6379
1227.024	6489
1229.313	6427
1231.602	6438
1233.892	6420
1236.18	6569
1238.467	6548
1240.754	6624
1243.04	6558
1245.325	6625
1247.612	6608
1249.896	6588
1252.178	6547
1254.461	6585
1256.743	6533
1259.027	6626
1261.308	6623
1263.587	6672
1265.867	6685
1268.146	6708
1270.425	6704
1272.703	6642
1274.981	6621
1277.256	6558
1279.532	6527
1281.808	6611
1284.083	6579
1286.358	6555
1288.63	6506
1290.904	6461
1293.175	6582
1295.449	6654
1297.719	6456
1299.99	6576
1302.259	6443
1304.529	6577
1306.798	6574
1309.065	6478
1311.333	6492
1313.599	6523
1315.866	6556
1318.131	6548
1320.396	6570
1322.66	6632
1324.925	6526
1327.187	6538
1329.448	6589
1331.711	6599
1333.974	6729
1336.234	6541
1338.493	6636
1340.752	6516
1343.01	6510
1345.269	6482
1347.526	6516
1349.784	6624
1352.04	6505
1354.295	6431
1356.552	6556
1358.806	6465
1361.059	6569
1363.312	6541
1365.564	6512
1367.818	6527
1370.069	6500
1372.318	6582
1374.568	6546
1376.817	6587
1379.066	6590
1381.316	6693
1383.564	6628
1385.809	6677
1388.056	6652
1390.301	6726
1392.549	6706
1394.793	6790
1397.036	6830
1399.279	6871
1401.522	6782
1403.763	6899
1406.007	6798
1408.248	6877
1410.487	6864
1412.727	7112
1414.965	6723
1417.205	6880
1419.442	6934
1421.68	6869
1423.915	6905
1426.152	6799
1428.388	6730
1430.623	6800
1432.857	6838
1435.091	6879
1437.323	6763
1439.556	6891
1441.789	7036
1444.019	6879
1446.25	6940
1448.48	6940
1450.708	6955
1452.938	6976
1455.167	6931
1457.394	6960
1459.62	6809
1461.846	6967
1464.073	6814
1466.299	6965
1468.523	6835
1470.746	6802
1472.969	6768
1475.191	6621
1477.415	6759
1479.636	6645
1481.858	6668
1484.078	6645
1486.298	6736
1488.518	6576
1490.736	6538
1492.954	6546
1495.169	6439
1497.386	6633
1499.602	6489
1501.819	6579
1504.034	6532
1506.248	6482
1508.462	6500
1510.675	6495
1512.888	6618
1515.1	6526
1517.311	6502
1519.522	6458
1521.732	6391
1523.942	6429
1526.151	6619
1528.36	6533
1530.566	6505
1532.773	6440
1534.98	6570
1537.187	6528
1539.392	6632
1541.596	6519
1543.801	6530
1546.005	6568
1548.208	6497
1550.411	6544
1552.612	6645
1554.814	6628
1557.013	6726
1559.212	6538
1561.414	6688
1563.612	6668
1565.811	6722
1568.007	6639
1570.203	6728
1572.403	6669
1574.598	6662
1576.792	6711
1578.988	6740
1581.181	6765
1583.376	6658
1585.568	6716
1587.761	6861
1589.952	6763
1592.143	6802
1594.333	6674
1596.524	6744
1598.715	6726
1600.903	6811
1603.091	6727
1605.278	6781
1607.466	6780
1609.652	6868
1611.838	6712
1614.023	6753
1616.207	6762
1618.391	6816
1620.576	6809
1622.759	6847
1624.941	6774
1627.123	6892
1629.304	6934
1631.484	6844
1633.664	6810
1635.844	6814
1638.022	6899
1640.201	6919
1642.38	6962
1644.556	6892
1646.732	6947
1648.908	6883
1651.084	7046
1653.257	6872
1655.433	6906
1657.607	6901
1659.779	6953
1661.951	6860
1664.122	6899
1666.295	6849
1668.467	6968
1670.635	6968
1672.805	6917
1674.973	7036
1677.142	6895
1679.31	6999
1681.478	6882
1683.644	6939
1685.81	6979
1687.975	6787
1690.142	6966
1692.305	6815
1694.468	6926
1696.632	6877
1698.794	6757
1700.957	6820
1703.119	6847
1705.279	6745
1707.439	6818
1709.598	6768
1711.758	6680
1713.917	6707
1716.075	6706
1718.231	6864
1720.388	6780
1722.543	6591
1724.702	6741
1726.856	6759
1729.01	6797
1731.164	6779
1733.317	6715
1735.471	6673
1737.623	6735
1739.774	6674
1741.925	6788
1744.075	6701
1746.225	6772
1748.376	6672
1750.524	6750
1752.672	6819
1754.82	6826
1756.965	6894
1759.113	6652
1761.259	6752
1763.405	6654
1765.549	6801
1767.694	6723
1769.836	6757
1771.981	6818
1774.123	6770
1776.264	6792
1778.405	6782
1780.546	6880
1782.687	6822
1784.827	6792
1786.966	6826
1789.103	6772
1791.242	6797
1793.381	6742
1795.517	6794
1797.653	6776
1799.788	6821
1801.923	6863
1804.057	6820
1806.193	6868
1808.326	6818
1810.457	6714
1812.59	6775
1814.721	6943
1816.855	6803
1818.984	6785
1821.113	6889
1823.244	6873
1825.372	6862
1827.499	6795
1829.63	6730
1831.756	6779
1833.882	6790
1836.007	6684
1838.132	6748
1840.26	6767
1842.384	6699
1844.507	6799
1846.63	6733
1848.752	6774
1850.875	6746
1852.996	6672
1855.118	6746
1857.238	6758
1859.358	6728
1861.477	6734
1863.597	6851
1865.715	6682
1867.832	6728
1869.948	6850
1872.064	6836
1874.181	6733
1876.297	6677
1878.411	6637
1880.526	6672
1882.639	6773
1884.752	6809
1886.865	6788
1888.977	6829
1891.089	6678
1893.2	6809
1895.308	6796
1897.42	6782
1899.53	6762
1901.639	6814
1903.745	6867
1905.853	6855
1907.962	6775
1910.067	6863
1912.174	6776
1914.278	6852
1916.383	6963
1918.486	6764
1920.592	6806
1922.694	6820
1924.797	6863
1926.898	6898
1929	6839
1931.102	6869
1933.203	6809
1935.301	6903
1937.401	6760
1939.499	6884
1941.598	6881
1943.697	6883
1945.793	6851
1947.888	6840
1949.985	6883
1952.08	6794
1954.176	6832
1956.269	6861
1958.364	6905
1960.457	6837
1962.549	6875
1964.642	6645
1966.733	6714
1968.823	6872
1970.913	6752
1973.005	6813
1975.093	6913
1977.184	6821
1979.271	6797
1981.359	6792
1983.446	6869
1985.532	6936
1987.619	6782
1989.705	6754
1991.789	6817
1993.874	6920
1995.956	6804
1998.041	6812
2000.123	6760
2002.206	6683
2004.287	6672
2006.368	6696
2008.449	6880
2010.529	6783
2012.609	6805
2014.688	6698
2016.766	6679
2018.843	6812
2020.922	6791
2022.999	6817
2025.074	6824
2027.15	6740
2029.225	6773
2031.299	6638
2033.375	6713
2035.447	6755
2037.52	6727
2039.592	6810
2041.664	6909
2043.736	6768
2045.807	6755
2047.876	6721
2049.947	6725
2052.015	6755
2054.086	6679
2056.153	6649
2058.221	6798
2060.288	6752
2062.353	6810
2064.42	6718
2066.486	6743
2068.55	6740
2070.614	6855
2072.678	6800
2074.741	6665
2076.805	6782
2078.866	6801
2080.929	6726
2082.99	6720
2085.049	6761
2087.109	6736
2089.17	6797
2091.228	6782
2093.286	6760
2095.344	6874
2097.4	6818
2099.46	6784
2101.516	6748
2103.572	6880
2105.626	6770
2107.679	6692
2109.735	6724
2111.788	6776
2113.841	6791
2115.894	6917
2117.945	6789
2119.997	6749
2122.049	6758
2124.1	6794
2126.148	6707
2128.197	6715
2130.246	6599
2132.296	6711
2134.342	6741
2136.39	6799
2138.437	6768
2140.483	6716
2142.527	6768
2144.574	6714
2146.619	6765
2148.661	6797
2150.705	6629
2152.747	6823
2154.792	6718
2156.832	6694
2158.874	6662
2160.915	6657
2162.954	6649
2164.995	6586
2167.034	6769
2169.072	6675
2171.111	6602
2173.148	6741
2175.186	6628
2177.223	6664
2179.258	6674
2181.294	6704
2183.328	6639
2185.362	6598
2187.398	6573
2189.431	6594
2191.463	6761
2193.495	6632
2195.528	6710
2197.56	6604
2199.59	6577
2201.62	6596
2203.649	6626
2205.678	6645
2207.708	6518
2209.737	6623
2211.764	6559
2213.791	6543
2215.817	6568
2217.843	6592
2219.87	6506
2221.895	6552
2223.919	6521
2225.942	6641
2227.966	6537
2229.988	6590
2232.012	6621
2234.032	6583
2236.054	6517
2238.074	6540
2240.095	6546
2242.116	6501
2244.135	6500
2246.153	6482
2248.171	6585
2250.188	6518
2252.208	6471
2254.223	6571
2256.239	6404
2258.255	6701
2260.269	6511
2262.283	6585
2264.3	6595
2266.312	6535
2268.325	6465
2270.336	6452
2272.349	6509
2274.362	6529
2276.372	6556
2278.383	6489
2280.392	6551
2282.402	6593
2284.409	6659
2286.418	6566
2288.427	6567
2290.433	6531
2292.441	6540
2294.446	6648
2296.453	6564
2298.459	6519
2300.463	6524
2302.466	6619
2304.471	6377
2306.475	6451
2308.477	6530
2310.478	6466
2312.481	6502
2314.481	6477
2316.481	6562
2318.482	6457
2320.482	6593
2322.48	6457
2324.48	6578
2326.478	6503
2328.476	6529
2330.473	6491
2332.469	6381
2334.465	6481
2336.46	6424
2338.454	6348
2340.45	6535
2342.444	6395
2344.437	6535
2346.43	6382
2348.421	6435
2350.414	6441
2352.405	6406
2354.396	6449
2356.386	6395
2358.376	6309
2360.366	6455
2362.355	6337
2364.343	6333
2366.331	6393
2368.317	6421
2370.304	6418
2372.292	6467
2374.278	6293
2376.262	6542
2378.247	6433
2380.23	6263
2382.216	6333
2384.199	6408
2386.181	6419
2388.163	6377
2390.144	6324
2392.127	6451
2394.107	6282
2396.087	6337
2398.066	6297
2400.046	6368
2402.023	6348
2404.004	6282
2405.981	6293
2407.957	6337
2409.934	6348
2411.91	6352
2413.886	6215
2415.862	6370
2417.836	6391
2419.809	6375
2421.784	6203
2423.756	6358
2425.73	6216
2427.701	6413
2429.672	6229
2431.644	6199
2433.615	6289
2435.586	6340
2437.555	6256
2439.523	6403
2441.491	6279
2443.459	6270
2445.428	6370
2447.395	6228
2449.361	6260
2451.327	6329
2453.292	6317
2455.257	6232
2457.223	6235
2459.187	6333
2461.15	6219
2463.113	6200
2465.076	6312
2467.039	6279
2468.999	6367
2470.96	6204
2472.921	6205
2474.881	6388
2476.841	6166
2478.8	6136
2480.759	6231
2482.717	6214
2484.675	6374
2486.63	6112
2488.589	6196
2490.545	6238
2492.5	6227
2494.455	6219
2496.408	6163
2498.364	6215
2500.318	6186
2502.27	6273
2504.223	6144
2506.174	6219
2508.126	6175
2510.078	6140
2512.03	6178
2513.979	6204
2515.927	6113
2517.877	6213
2519.826	6128
2521.775	6187
2523.722	6171
2525.668	6290
2527.616	6147
2529.561	6297
2531.508	6160
2533.452	6182
2535.398	6221
2537.342	6166
2539.284	6090
2541.229	6232
2543.173	6186
2545.114	6129
2547.055	6132
2548.996	6210
2550.938	6046
2552.878	6209
2554.817	6125
2556.756	6086
2558.695	6065
2560.633	6098
2562.572	6133
2564.509	6061
2566.445	6164
2568.382	6224
2570.317	6161
2572.254	6156
2574.189	6261
2576.123	6165
2578.057	6029
2579.99	6189
2581.923	6107
2583.855	6094
2585.788	6119
2587.719	6056
2589.65	6043
2591.579	6145
2593.511	6263
2595.44	6179
2597.37	6209
2599.297	6158
2601.225	6156
2603.153	6185
2605.08	6094
2607.007	6136
2608.932	6164
2610.858	6054
2612.782	6151
2614.709	6083
2616.632	6185
2618.556	6222
2620.478	6140
2622.401	6150
2624.324	6150
2626.247	6039
2628.167	6238
2630.088	6166
2632.008	6174
2633.928	6137
2635.848	6098
2637.766	6086
2639.684	6176
2641.603	6212
2643.519	6109
2645.437	6216
2647.353	6129
2649.27	6100
2651.184	6174
2653.099	6184
2655.014	6027
2656.928	6151
2658.842	6173
2660.755	6242
2662.667	6228
2664.579	6109
2666.491	6155
2668.402	6147
2670.312	6008
2672.222	6087
2674.132	6060
2676.042	6062
2677.951	6061
2679.859	6063
2681.766	6061
2683.674	6096
2685.582	6051
2687.488	6044
2689.392	6008
2691.298	6055
2693.202	6173
2695.107	5988
2697.012	6030
2698.914	6002
2700.817	5895
2702.72	6047
2704.622	6057
2706.524	6042
2708.425	5929
2710.326	6070
2712.225	5948
2714.125	6042
2716.024	6021
2717.923	5884
2719.822	6149
2721.719	6019
2723.616	5931
2725.512	6110
2727.41	5987
2729.305	5911
2731.201	5986
2733.095	6004
2734.99	6127
2736.884	6000
2738.778	6015
2740.67	5960
2742.562	5911
2744.455	6006
2746.346	5932
2748.238	5897
2750.129	5964
2752.018	5979
2753.907	5966
2755.797	6017
2757.687	5948
2759.575	5922
2761.462	5934
2763.349	5998
2765.237	5980
2767.124	6008
2769.009	5991
2770.894	6005
2772.779	6007
2774.663	5939
2776.547	6000
2778.431	5994
2780.314	5834
2782.197	5971
2784.078	6010
2785.96	5821
2787.842	5896
2789.723	6057
2791.603	5895
2793.483	5909
2795.362	5881
2797.241	5935
2799.121	5862
2800.997	5910
2802.874	5909
2804.751	5861
2806.628	5924
2808.506	5999
2810.38	5959
2812.255	5793
2814.13	5820
2816.003	5889
2817.878	5928
2819.752	5839
2821.623	5894
2823.496	5861
2825.368	5951
2827.238	5937
2829.111	5934
2830.98	5855
2832.851	6014
2834.719	5933
2836.589	5972
2838.458	6021
2840.327	5774
2842.193	6049
2844.061	5952
2845.927	5936
2847.794	5969
2849.66	6028
2851.525	5987
2853.39	5974
2855.254	6047
2857.117	6105
2858.983	6046
2860.845	6143
2862.707	6069
2864.569	6003
2866.431	6208
2868.293	6173
2870.154	6129
2872.013	6199
2873.873	6268
2875.733	6464
2877.592	6344
2879.451	6315
2881.309	6412
2883.166	6487
2885.022	6571
2886.879	6607
2888.736	6411
2890.591	6618
2892.446	6589
2894.301	6597
2896.155	6628
2898.009	6594
2899.863	6513
2901.716	6478
2903.568	6408
2905.419	6495
2907.27	6590
2909.123	6601
2910.973	6628
2912.824	6652
2914.673	6666
2916.521	6790
2918.372	6625
2920.22	6738
2922.067	6788
2923.914	6768
2925.761	6980
2927.607	6940
2929.455	6979
2931.301	7045
2933.144	6993
2934.99	7013
2936.833	7028
2938.678	7016
2940.522	7190
2942.364	7419
2944.207	7355
2946.048	7516
2947.891	7554
2949.731	7532
2951.571	7552
2953.412	7689
2955.25	7507
2957.09	7392
2958.93	7443
2960.767	7424
2962.606	7256
2964.443	7266
2966.279	7139
2968.116	7066
2969.953	6869
2971.788	6825
2973.623	6758
2975.457	6625
2977.292	6654
2979.127	6580
2980.959	6560
2982.792	6488
2984.624	6328
2986.455	6375
2988.288	6377
2990.119	6343
2991.949	6417
2993.779	6353
2995.608	6327
2997.439	6261
2999.268	6095
3001.096	6145
3002.923	6048
3004.751	6117
3006.578	5992
3008.406	6061
3010.232	6035
3012.057	5825
3013.883	5914
3015.706	5827
3017.532	5775
3019.356	5839
3021.179	5798
3023.002	5773
3024.823	5678
3026.646	5758
3028.469	5620
3030.289	5657
3032.11	5550
3033.93	5636
3035.749	5536
3037.57	5630
3039.39	5604
3041.207	5630
3043.026	5568
3044.842	5685
3046.661	5558
3048.477	5709
3050.294	5586
3052.109	5686
3053.925	5534
3055.739	5624
3057.555	5639
3059.368	5512
3061.181	5634
3062.995	5422
3064.807	5551
3066.62	5560
3068.433	5677
3070.243	5539
3072.054	5687
3073.865	5480
3075.675	5510
3077.485	5488
3079.293	5464
3081.102	5482
3082.911	5469
3084.719	5417
3086.527	5522
3088.333	5421
3090.139	5447
3091.945	5486
3093.75	5369
3095.557	5458
3097.361	5380
3099.165	5542
3100.969	5267
3102.772	5412
3104.575	5444
3106.379	5472
3108.181	5399
3109.982	5362
3111.783	5353
3113.584	5415
3115.386	5320
3117.186	5392
3118.985	5422
3120.783	5399
3122.582	5383
3124.381	5323
3126.179	5399
3127.975	5319
3129.772	5243
3131.569	5359
3133.365	5331
3135.161	5285
3136.956	5264
3138.751	5417
3140.544	5233
3142.338	5294
3144.132	5251
3145.925	5168
3147.717	5187
3149.509	5252
3151.301	5282
3153.091	5276
3154.884	5186
3156.673	5357
3158.462	5218
3160.252	5396
3162.041	5245
3163.831	5208
3165.618	5219
3167.405	5144
3169.193	5313
3170.979	5197
3172.767	5194
3174.553	5173
3176.338	5207
3178.123	5166
3179.907	5180
3181.692	5139
3183.477	5233
3185.259	5136
3187.042	5176
3188.824	5213
3190.607	5135
3192.389	5153
3194.17	5189
3195.951	5135
3197.73	5148
3199.51	5203
3201.289	5236
3203.07	5092
3204.848	5201
3206.626	5012
3208.403	5127
3210.18	5093
3211.959	5151
3213.735	5171
3215.511	5223
3217.285	5157
3219.06	5158
3220.836	5262
3222.611	5131
3224.384	5135
3226.158	5176
3227.929	5081
3229.702	5199
3231.476	5147
3233.248	5206
3235.018	5161
3236.789	5155
3238.56	5092
3240.33	5206
3242.1	5166
3243.869	5105
3245.637	5102
3247.405	5171
3249.172	5147
3250.941	5168
3252.707	5173
3254.474	5158
3256.24	5167
3258.006	5106
3259.772	5142
3261.537	5179
3263.301	5056
3265.065	5107
3266.828	5237
3268.592	5165
3270.355	5276
3272.117	5217
3273.878	5105
3275.64	5057
3277.401	5040
3279.162	5143
3280.922	5128
3282.682	5092
3284.441	5151
3286.199	5129
3287.959	5151
3289.716	5126
3291.475	5052
3293.232	5259
3294.988	5191
3296.744	5110
3298.501	5174
3300.256	5185
3302.011	5143
3303.766	5126
3305.52	5114
3307.275	5093
3309.028	5097
3310.781	5079
3312.533	5119
3314.285	4931
3316.038	5063
3317.789	5120
3319.54	5118
3321.289	5127
3323.039	5058
3324.789	5148
3326.539	5054
3328.288	5084
3330.035	5131
3331.783	5088
3333.531	5106
3335.28	4968
3337.025	5054
3338.771	4979
3340.518	5035
3342.262	5000
3344.009	5036
3345.753	5093
3347.497	5000
3349.24	4931
3350.983	4947
3352.726	5029
3354.469	5008
3356.212	4954
3357.952	4933
3359.694	4975
3361.434	4909
3363.176	4944
3364.916	4977
3366.654	4915
3368.394	5007
3370.132	4913
3371.871	4883
3373.61	4977
3375.346	5029
3377.083	4835
3378.82	4921
3380.556	4917
3382.292	4805
3384.027	4930
3385.763	4927
3387.497	4885
3389.231	4839
3390.965	4962
3392.698	4907
3394.431	4785
3396.164	4935
3397.896	4923
3399.627	4849
3401.36	4919
3403.09	4821
3404.82	4833
3406.55	4862
3408.279	4810
3410.01	4792
3411.738	4859
3413.467	4798
3415.194	4778
3416.92	4847
3418.647	4934
3420.375	4672
3422.102	4766
3423.827	4830
3425.553	4811
3427.277	4843
3429.003	4845
3430.727	4781
3432.451	4782
3434.173	4776
3435.896	4766
3437.62	4761
3439.343	4777
3441.063	4830
3442.785	4721
3444.505	4675
3446.226	4733
3447.948	4730
3449.666	4678
3451.386	4628
3453.104	4755
3454.823	4710
3456.541	4668
3458.259	4671
3459.976	4692
3461.693	4758
3463.408	4655
3465.125	4676
3466.841	4684
3468.556	4687
3470.271	4595
3471.985	4721
3473.698	4681
3475.414	4532
3477.126	4591
3478.838	4642
3480.55	4551
3482.263	4618
3483.975	4652
3485.686	4537
3487.396	4553
3489.106	4478
3490.817	4568
3492.526	4516
3494.236	4563
3495.944	4466
3497.652	4527
3499.359	4542
3501.066	4440
3502.775	4442
3504.481	4606
3506.187	4517
3507.893	4567
3509.598	4469
3511.304	4489
3513.009	4451
3514.713	4420
3516.417	4442
3518.12	4498
3519.821	4474
3521.525	4456
3523.228	4475
3524.929	4428
3526.631	4391
3528.33	4406
3530.032	4461
3531.733	4412
3533.433	4358
3535.131	4336
3536.83	4330
3538.529	4378
3540.227	4385
3541.925	4377
3543.623	4467
3545.319	4392
3547.016	4412
3548.712	4300
3550.408	4333
3552.103	4374
3553.798	4259
3555.491	4329
3557.188	4379
3558.88	4311
3560.574	4274
3562.266	4318
3563.959	4260
3565.651	4268
3567.343	4339
3569.035	4245
3570.725	4365
3572.415	4322
3574.106	4339
3575.797	4320
3577.485	4186
3579.174	4307
3580.863	4337
3582.551	4316
3584.238	4293
3585.926	4240
3587.613	4221
3589.3	4282
3590.986	4147
3592.671	4236
3594.357	4236
3596.042	4174
3597.726	4176
3599.41	4172
3601.094	4194
3602.778	4152
3604.461	4114
3606.143	4131
3607.825	4068
3609.507	4161
3611.188	3999
3612.87	4136
3614.551	4017
3616.229	4111
3617.909	4068
3619.589	4131
3621.269	4090
3622.948	4113
3624.625	4063
3626.302	4041
3627.98	4111
3629.657	4060
3631.334	4068
3633.01	4087
3634.686	4032
3636.361	3946
3638.036	3950
3639.712	4075
3641.385	3983
3643.06	4028
3644.732	4083
3646.405	4107
3648.08	4008
3649.751	4003
3651.424	4000
3653.094	3969
3654.766	4020
3656.436	4012
3658.106	3993
3659.777	3969
3661.446	4066
3663.115	4062
3664.783	3933
3666.452	3974
3668.121	3985
3669.788	3937
3671.454	3926
3673.121	3961
3674.789	3920
3676.455	3980
3678.12	3966
3679.784	3985
3681.45	3868
3683.114	3928
3684.779	3907
3686.442	3879
3688.105	3842
3689.768	3823
3691.43	3906
3693.093	3922
3694.754	3935
3696.415	3843
3698.076	3986
3699.736	3908
3701.396	3872
3703.057	3919
3704.716	3840
3706.375	3906
3708.034	3877
3709.692	3862
3711.351	3870
3713.008	3777
3714.665	3954
3716.321	3811
3717.977	3913
3719.634	3834
3721.29	3801
3722.945	3834
3724.598	3806
3726.253	3798
3727.907	3875
3729.561	3834
3731.214	3743
3732.867	3831
3734.518	3875
3736.171	3839
3737.824	3810
3739.474	3851
3741.125	3736
3742.775	3767
3744.425	3721
3746.074	3800
3747.725	3800
3749.373	3769
3751.022	3761
3752.669	3770
3754.318	3827
3755.966	3751
3757.612	3759
3759.259	3749
3760.905	3825
3762.55	3741
3764.197	3768
3765.842	3757
3767.486	3713
3769.131	3704
3770.774	3718
3772.417	3774
3774.061	3765
3775.705	3752
3777.347	3729
3778.988	3732
3780.629	3694
3782.271	3733
3783.912	3724
3785.552	3771
3787.192	3630
3788.831	3649
3790.472	3632
3792.112	3639
3793.75	3725
3795.388	3640
3797.024	3641
3798.661	3753
3800.3	3697
3801.936	3645
3803.572	3584
3805.208	3737
3806.844	3669
3808.48	3684
3810.115	3608
3811.748	3626
3813.382	3575
3815.016	3623
3816.649	3714
3818.283	3665
3819.914	3582
3821.547	3511
3823.178	3545
3824.809	3532
3826.441	3571
3828.072	3640
3829.701	3621
3831.331	3550
3832.96	3579
3834.591	3541
3836.219	3659
3837.847	3613
3839.475	3549
3841.102	3608
3842.729	3557
3844.357	3468
3845.984	3512
3847.609	3574
3849.234	3547
3850.86	3528
3852.485	3578
3854.11	3556
3855.734	3567
3857.357	3612
3858.981	3512
3860.603	3508
3862.227	3594
3863.848	3533
3865.471	3535
3867.092	3585
3868.713	3492
3870.334	3544
3871.954	3569
3873.575	3483
3875.194	3434
3876.813	3424
3878.433	3488
3880.051	3494
3881.669	3455
3883.286	3515
3884.904	3537
3886.52	3508
3888.138	3503
3889.754	3427
3891.37	3462
3892.985	3520
3894.6	3425
3896.216	3562
3897.831	3517
3899.444	3364
3901.058	3542
3902.67	3476
3904.283	3438
3905.897	3453
3907.509	3440
3909.121	3427
3910.731	3454
3912.342	3545
3913.954	3398
3915.563	3448
3917.174	3490
3918.783	3420
3920.391	3324
3922.002	3395
3923.611	3498
3925.218	3379
3926.826	3427
3928.432	3434
3930.039	3389
3931.647	3380
3933.253	3352
3934.859	3446
3936.464	3416
3938.068	3383
3939.675	3416
3941.278	3379
3942.883	3441
3944.486	3371
3946.089	3465
3947.692	3427
3949.295	3346
3950.898	3358
3952.499	3357
3954.1	3409
3955.7	3364
3957.303	3307
3958.903	3355
3960.502	3454
3962.101	3329
3963.7	3368
3965.301	3346
3966.899	3288
3968.497	3372
3970.094	3375
3971.691	3371
3973.288	3353
3974.885	3310
3976.481	3282
3978.077	3306
3979.672	3244
3981.267	3313
3982.863	3274
3984.457	3315
3986.051	3279
3987.645	3298
3989.238	3321
3990.831	3241
3992.425	3332
3994.017	3254
3995.607	3236
3997.199	3232
3998.79	3213
4000.382	3285
4001.973	3297
4003.561	3170
4005.151	3267
4006.741	3257
4008.331	3260
4009.918	3179
4011.507	3225
4013.095	3218
4014.681	3250
4016.269	3244
4017.856	3262
4019.443	3181
4021.028	3275
4022.614	3175
4024.199	3192
4025.785	3278
4027.37	3165
4028.953	3155
4030.536	3149
4032.12	3131
4033.704	3188
4035.287	3138
4036.869	3168
4038.45	3104
4040.032	3201
4041.613	3100
4043.195	3141
4044.776	3103
4046.356	3137
4047.935	3052
4049.515	3059
4051.095	3151
4052.674	3114
4054.251	3176
4055.829	3149
4057.406	3089
4058.985	3141
4060.562	3114
4062.139	3050
4063.715	3139
4065.29	3138
4066.865	3074
4068.442	3035
4070.016	3105
4071.59	3129
4073.164	3080
4074.738	3082
4076.312	3060
4077.885	3043
4079.458	3084
4081.03	3121
4082.602	3149
4084.173	3036
4085.745	2998
4087.315	3057
4088.886	3004
4090.456	3067
4092.026	3039
4093.596	3032
4095.165	3030
4096.734	3022
4098.301	3107
4099.869	2969
4101.437	3117
4103.006	3057
4104.572	2991
4106.139	3000
4107.704	3008
4109.27	2979
4110.837	3050
4112.401	3084
4113.966	2986
4115.53	3039
4117.094	2962
4118.659	3000
4120.223	2940
4121.785	2986
4123.347	3026
4124.909	2963
4126.471	3008
4128.034	2975
4129.595	2992
4131.155	2972
4132.716	3026
4134.275	2992
4135.836	2936
4137.395	2990
4138.955	2929
4140.513	2905
4142.071	2908
4143.628	2933
4145.188	2828
4146.745	2859
4148.302	2935
4149.858	2905
4151.414	2853
4152.971	2927
4154.526	2861
4156.081	2913
4157.635	2902
4159.189	2920
4160.745	2909
4162.298	2951
4163.852	2893
4165.405	2894
4166.957	2886
4168.51	2856
4170.063	2863
4171.614	2889
4173.166	2922
4174.717	2903
4176.267	2873
4177.817	2840
4179.368	2842
4180.917	2877
4182.466	2822
4184.016	2771
4185.564	2827
4187.112	2861
4188.66	2804
4190.207	2846
4191.754	2810
4193.301	2850
4194.848	2765
4196.394	2773
4197.94	2822
4199.484	2776
4201.03	2853
4202.575	2875
4204.12	2808
4205.663	2766
4207.207	2769
4208.75	2848
4210.292	2828
4211.836	2801
4213.378	2723
4214.92	2814
4216.46	2805
4218.002	2853
4219.544	2721
4221.083	2781
4222.625	2805
4224.164	2716
4225.703	2796
4227.244	2784
4228.782	2734
4230.32	2725
4231.857	2694
4233.395	2757
4234.933	2725
4236.471	2726
4238.007	2795
4239.542	2738
4241.078	2761
4242.614	2750
4244.15	2737
4245.685	2697
4247.219	2703
4248.753	2722
4250.287	2705
4251.82	2745
4253.354	2668
4254.887	2784
4256.419	2770
4257.951	2706
4259.483	2700
4261.016	2694
4262.547	2774
4264.078	2701
4265.608	2792
4267.137	2773
4268.668	2745
4270.197	2678
4271.727	2733
4273.254	2686
4274.783	2646
4276.311	2693
4277.84	2692
4279.366	2645
4280.894	2700
4282.42	2695
4283.946	2677
4285.473	2674
4286.998	2689
4288.523	2629
4290.047	2701
4291.572	2604
4293.096	2671
4294.622	2716
4296.144	2661
4297.668	2653
4299.19	2642
4300.713	2641
4302.236	2653
4303.758	2619
4305.279	2619
4306.799	2631
4308.321	2621
4309.842	2636
4311.361	2583
4312.882	2649
4314.401	2603
