400.0961	6013
402.6185	6039
405.1424	6057
407.6635	6057
410.1838	6134
412.7035	6153
415.2225	6043
417.7388	6045
420.2585	6229
422.7754	6252
425.2917	6280
427.8072	6355
430.3221	6420
432.8363	6401
435.3498	6264
437.8626	6376
440.3727	6404
442.8841	6504
445.3969	6588
447.907	6411
450.4142	6374
452.9229	6511
455.4289	6474
457.9362	6436
460.4449	6409
462.9488	6501
465.454	6329
467.9566	6434
470.4604	6528
472.9637	6547
475.4662	6434
477.966	6540
480.4671	6532
482.9656	6604
485.4633	6672
487.9645	6572
490.4608	6613
492.9566	6601
495.4536	6688
497.948	6582
500.4437	6708
502.9387	6710
505.431	6673
507.9226	6718
510.4136	6768
512.9079	6866
515.3975	6766
517.8864	6728
520.3746	6760
522.8622	6716
525.3491	6747
527.8394	6814
530.3249	6725
532.8098	6753
535.2939	6801
537.7774	6768
540.2623	6794
542.7444	6775
545.2259	6791
547.7067	6881
550.1868	6873
552.6683	6824
555.147	6811
557.6231	6795
560.1005	6772
562.5773	6943
565.0534	6844
567.5308	7005
570.0056	6817
572.4776	6916
574.951	6871
577.4237	7039
579.8978	6956
582.3671	7053
584.8378	7029
587.3079	7079
589.7773	7139
592.244	7131
594.714	7118
597.1793	7048
599.6461	7026
602.1121	7089
604.5754	7114
607.0421	7059
609.5042	7053
611.9675	6993
614.4282	7083
616.8902	7046
619.3515	7113
621.8122	7123
624.2702	7019
626.7296	7026
629.1863	7005
631.6423	7132
634.1017	7057
636.5563	7073
639.0104	7150
641.4658	7113
643.9185	7085
646.3725	7081
648.8239	7129
651.2766	7078
653.7266	7119
656.176	7098
658.6247	7147
661.0748	7172
663.5242	7262
665.9709	7250
668.417	7216
670.8624	7173
673.3092	7255
675.7533	7252
678.1968	7245
680.6395	7321
683.0817	7209
685.5251	7275
687.9659	7396
690.4061	7259
692.8456	7424
695.2844	7357
697.7226	7335
700.1621	7337
702.599	7302
705.0332	7369
707.4688	7436
709.9036	7442
712.3399	7563
714.7735	7442
717.2044	7437
719.6367	7598
722.0683	7495
724.4993	7383
726.9296	7445
729.3593	7485
731.7883	7570
734.2147	7643
736.6423	7691
739.0714	7642
741.4958	7620
743.9216	7734
746.3447	7685
748.7691	7695
751.1929	7679
753.616	7712
756.0366	7782
758.4584	7830
760.8776	7890
763.2982	7862
765.718	7835
768.1373	7770
770.5539	7821
772.9698	7881
775.3871	7855
777.8038	7918
780.2178	7858
782.6332	7895
785.0459	7958
787.458	7872
789.8714	7816
792.2842	7903
794.6943	7819
797.1038	7874
799.5127	7872
801.9209	7903
804.3324	7896
806.7393	8023
809.1456	7939
811.5513	7954
813.9562	7917
816.3625	7923
818.7663	7884
821.1693	8003
823.5718	8012
825.9735	7860
828.3746	7940
830.7771	7878
833.177	8048
835.5762	8091
837.9747	7876
840.3727	7929
842.772	8094
845.1666	8159
847.5626	8156
849.958	8238
852.3527	8196
854.7488	8129
857.1403	8073
859.5331	8141
861.9253	8280
864.3168	8041
866.7057	8190
869.098	8161
871.4876	8023
873.8746	8071
876.263	8265
878.6487	8062
881.0378	8013
883.4243	8011
885.8081	7999
888.1933	8112
890.5759	7965
892.9598	8083
895.343	8033
897.7256	8092
900.1057	7990
902.4871	8126
904.8659	8061
907.246	8253
909.6254	8125
912.0023	8297
914.3786	8260
916.7562	8366
919.1331	8519
921.5074	8554
923.8831	8630
926.2562	8702
928.6287	8545
931.0005	8490
933.3757	8543
935.7462	8718
938.1162	8589
940.4855	8547
942.8542	8664
945.2242	8541
947.5916	8572
949.9584	8879
952.3266	8919
954.6921	9120
957.0571	9188
959.4233	9525
961.787	9461
964.15	9427
966.5125	9335
968.8742	9063
971.2354	8883
973.5959	8838
975.9559	8724
978.3151	8491
980.6738	8530
983.0338	8615
985.3912	8535
987.7461	8435
990.1022	8335
992.4578	8369
994.8127	8470
997.1689	8405
999.5207	8294
1001.874	8356
1004.226	8430
1006.576	8551
1008.929	8454
1011.28	8256
1013.628	8438
1015.977	8346
1018.324	8386
1020.674	8503
1023.019	8442
1025.366	8527
1027.713	8521
1030.056	8536
1032.399	8439
1034.746	8524
1037.087	8457
1039.431	8628
1041.771	8406
1044.113	8512
1046.454	8617
1048.793	8634
1051.133	8444
1053.471	8589
1055.807	8496
1058.146	8514
1060.483	8664
1062.818	8517
1065.153	8670
1067.489	8696
1069.822	8604
1072.156	8729
1074.488	8618
1076.82	8634
1079.15	8587
1081.48	8617
1083.814	8559
1086.143	8587
1088.471	8619
1090.799	8684
1093.126	8608
1095.452	8477
1097.78	8475
1100.105	8558
1102.43	8701
1104.754	8655
1107.077	8644
1109.4	8692
1111.722	8588
1114.044	8646
1116.365	8647
1118.685	8636
1121.005	8761
1123.324	8799
1125.643	8665
1127.961	8825
1130.278	8671
1132.595	8786
1134.911	8638
1137.226	8723
1139.541	8641
1141.854	8628
1144.167	8632
1146.482	8643
1148.793	8776
1151.105	8594
1153.414	8586
1155.725	8750
1158.033	8696
1160.344	8613
1162.651	8757
1164.959	8725
1167.265	8690
1169.572	8668
1171.878	8672
1174.184	8723
1176.488	8655
1178.79	8762
1181.094	8677
1183.396	8740
1185.699	8674
1188.001	8658
1190.301	8680
1192.6	8693
1194.9	8727
1197.2	8727
1199.497	8693
1201.794	8560
1204.09	8690
1206.387	8877
1208.684	8778
1210.978	8677
1213.272	8754
1215.565	8571
1217.858	8726
1220.15	8796
1222.443	8779
1224.734	8706
1227.024	8792
1229.313	8814
1231.602	8883
1233.892	8825
1236.18	8945
1238.467	8848
1240.754	9006
1243.04	9119
1245.325	9047
1247.612	9001
1249.896	9044
1252.178	9126
1254.461	8946
1256.743	8947
1259.027	8950
1261.308	9117
1263.587	8992
1265.867	8968
1268.146	9098
1270.425	8933
1272.703	9083
1274.981	9009
1277.256	9114
1279.532	8949
1281.808	8939
1284.083	8986
1286.358	8975
1288.63	8944
1290.904	8827
1293.175	8939
1295.449	8979
1297.719	8988
1299.99	8997
1302.259	8948
1304.529	8967
1306.798	9160
1309.065	8962
1311.333	8968
1313.599	8911
1315.866	8842
1318.131	8936
1320.396	8810
1322.66	8872
1324.925	8925
1327.187	9054
1329.448	9130
1331.711	8920
1333.974	9014
1336.234	8909
1338.493	9010
1340.752	8920
1343.01	8935
1345.269	8958
1347.526	8905
1349.784	9058
1352.04	9072
1354.295	8919
1356.552	9023
1358.806	9020
1361.059	8853
1363.312	9056
1365.564	8896
1367.818	8978
1370.069	8947
1372.318	9057
1374.568	9081
1376.817	9033
1379.066	8981
1381.316	9036
1383.564	9085
1385.809	9103
1388.056	8937
1390.301	9200
1392.549	9160
1394.793	9148
1397.036	9106
1399.279	9228
1401.522	9204
1403.763	9165
1406.007	9259
1408.248	9391
1410.487	9321
1412.727	9259
1414.965	9214
1417.205	9270
1419.442	9092
1421.68	9220
1423.915	9446
1426.152	9266
1428.388	9169
1430.623	9179
1432.857	9269
1435.091	9244
1437.323	9291
1439.556	9218
1441.789	9448
1444.019	9367
1446.25	9335
1448.48	9308
1450.708	9393
1452.938	9397
1455.167	9402
1457.394	9448
1459.62	9364
1461.846	9517
1464.073	9293
1466.299	9323
1468.523	9255
1470.746	9102
1472.969	9242
1475.191	9153
1477.415	9226
1479.636	9105
1481.858	9102
1484.078	9122
1486.298	8937
1488.518	9063
1490.736	9092
1492.954	9052
1495.169	9022
1497.386	9051
1499.602	8955
1501.819	8916
1504.034	9081
1506.248	9034
1508.462	8857
1510.675	9005
1512.888	8949
1515.1	8995
1517.311	9058
1519.522	8984
1521.732	8996
1523.942	9087
1526.151	8940
1528.36	8949
1530.566	8851
1532.773	8970
1534.98	8878
1537.187	8994
1539.392	9015
1541.596	8956
1543.801	9034
1546.005	8941
1548.208	8846
1550.411	9020
1552.612	9118
1554.814	9035
1557.013	8930
1559.212	9118
1561.414	9194
1563.612	9080
1565.811	9099
1568.007	9131
1570.203	9071
1572.403	9087
1574.598	9122
1576.792	9152
1578.988	9145
1581.181	9233
1583.376	9324
1585.568	9270
1587.761	9136
1589.952	9195
1592.143	9220
1594.333	9260
1596.524	9373
1598.715	9333
1600.903	9245
1603.091	9100
1605.278	9281
1607.466	9172
1609.652	9390
1611.838	9204
1614.023	9333
1616.207	9219
1618.391	9205
1620.576	9403
1622.759	9196
1624.941	9223
1627.123	9379
1629.304	9337
1631.484	9311
1633.664	9403
1635.844	9436
1638.022	9208
1640.201	9266
1642.38	9245
1644.556	9355
1646.732	9276
1648.908	9367
1651.084	9341
1653.257	9341
1655.433	9286
1657.607	9117
1659.779	9318
1661.951	9312
1664.122	9363
1666.295	9450
1668.467	9349
1670.635	9466
1672.805	9271
1674.973	9363
1677.142	9380
1679.31	9294
1681.478	9461
1683.644	9366
1685.81	9419
1687.975	9319
1690.142	9445
1692.305	9351
1694.468	9388
1696.632	9388
1698.794	9321
1700.957	9198
1703.119	9239
1705.279	9167
1707.439	9268
1709.598	9117
1711.758	9324
1713.917	9167
1716.075	9199
1718.231	9274
1720.388	9194
1722.543	9129
1724.702	9192
1726.856	9256
1729.01	9139
1731.164	9275
1733.317	9161
1735.471	9227
1737.623	9355
1739.774	9259
1741.925	9196
1744.075	9153
1746.225	9207
1748.376	9279
1750.524	9282
1752.672	9282
1754.82	9289
1756.965	9150
1759.113	9145
1761.259	9269
1763.405	9085
1765.549	9243
1767.694	9180
1769.836	9329
1771.981	9188
1774.123	9280
1776.264	9236
1778.405	9311
1780.546	9406
1782.687	9313
1784.827	9352
1786.966	9430
1789.103	9126
1791.242	9276
1793.381	9382
1795.517	9240
1797.653	9370
1799.788	9258
1801.923	9357
1804.057	9318
1806.193	9198
1808.326	9299
1810.457	9319
1812.59	9288
1814.721	9371
1816.855	9252
1818.984	9385
1821.113	9128
1823.244	9144
1825.372	9253
1827.499	9246
1829.63	9257
1831.756	9275
1833.882	9224
1836.007	9317
1838.132	9269
1840.26	9302
1842.384	9213
1844.507	9072
1846.63	9267
1848.752	9154
1850.875	9180
1852.996	9362
1855.118	9236
1857.238	9119
1859.358	9042
1861.477	9132
1863.597	9373
1865.715	9235
1867.832	9163
1869.948	9205
1872.064	9147
1874.181	9247
1876.297	9057
1878.411	9107
1880.526	9192
1882.639	9198
1884.752	9183
1886.865	9098
1888.977	9164
1891.089	9143
1893.2	9300
1895.308	9200
1897.42	9385
1899.53	9075
1901.639	9323
1903.745	9195
1905.853	9124
1907.962	9239
1910.067	9260
1912.174	9273
1914.278	9367
1916.383	9528
1918.486	9319
1920.592	9357
1922.694	9290
1924.797	9323
1926.898	9203
1929	9352
1931.102	9314
1933.203	9260
1935.301	9311
1937.401	9352
1939.499	9364
1941.598	9370
1943.697	9269
1945.793	9154
1947.888	9227
1949.985	9306
1952.08	9280
1954.176	9152
1956.269	9238
1958.364	9259
1960.457	9392
1962.549	9185
1964.642	9155
1966.733	9407
1968.823	9251
1970.913	9249
1973.005	9380
1975.093	9267
1977.184	9260
1979.271	9151
1981.359	9312
1983.446	9299
1985.532	9106
1987.619	9306
1989.705	9079
1991.789	9256
1993.874	9270
1995.956	9114
1998.041	9251
2000.123	9068
2002.206	9152
2004.287	9321
2006.368	9101
2008.449	9138
2010.529	9219
2012.609	9200
2014.688	9180
2016.766	9168
2018.843	9054
2020.922	9278
2022.999	9016
2025.074	9259
2027.15	9236
2029.225	9159
2031.299	9224
2033.375	9061
2035.447	9096
2037.52	9226
2039.592	9070
2041.664	9253
2043.736	9198
2045.807	9253
2047.876	9208
2049.947	9258
2052.015	9046
2054.086	9114
2056.153	9117
2058.221	9029
2060.288	9307
2062.353	9190
2064.42	9090
2066.486	9208
2068.55	9240
2070.614	9161
2072.678	9264
2074.741	9113
2076.805	9191
2078.866	9165
2080.929	9242
2082.99	9071
2085.049	9154
2087.109	9132
2089.17	9284
2091.228	9176
2093.286	9231
2095.344	9275
2097.4	9024
2099.46	9109
2101.516	9090
2103.572	9082
2105.626	9151
2107.679	9176
2109.735	9153
2111.788	8941
2113.841	9120
2115.894	9192
2117.945	9089
2119.997	9121
2122.049	9038
2124.1	9209
2126.148	9232
2128.197	9035
2130.246	9113
2132.296	9065
2134.342	9071
2136.39	9054
2138.437	9140
2140.483	9128
2142.527	9075
2144.574	9038
2146.619	9031
2148.661	9150
2150.705	9058
2152.747	9188
2154.792	9085
2156.832	9055
2158.874	9063
2160.915	9109
2162.954	9013
2164.995	9070
2167.034	8970
2169.072	8915
2171.111	8905
2173.148	9011
2175.186	9061
2177.223	8966
2179.258	8977
2181.294	9017
2183.328	9008
2185.362	9059
2187.398	8882
2189.431	8940
2191.463	8999
2193.495	9002
2195.528	8869
2197.56	8860
2199.59	8838
2201.62	8849
2203.649	8918
2205.678	8924
2207.708	8775
2209.737	8776
2211.764	8812
2213.791	8817
2215.817	8891
2217.843	8856
2219.87	8805
2221.895	8768
2223.919	8765
2225.942	8851
2227.966	8889
2229.988	8950
2232.012	8792
2234.032	8874
2236.054	8810
2238.074	8786
2240.095	8797
2242.116	8769
2244.135	8971
2246.153	9008
2248.171	8665
2250.188	8714
2252.208	8797
2254.223	8782
2256.239	8900
2258.255	8630
2260.269	8800
2262.283	8852
2264.3	8697
2266.312	8747
2268.325	8774
2270.336	8676
2272.349	8725
2274.362	8949
2276.372	8855
2278.383	8877
2280.392	8953
2282.402	8852
2284.409	8834
2286.418	8835
2288.427	8863
2290.433	8864
2292.441	8765
2294.446	8752
2296.453	8924
2298.459	8897
2300.463	8606
2302.466	8798
2304.471	8849
2306.475	8720
2308.477	8778
2310.478	8703
2312.481	8949
2314.481	8759
2316.481	8716
2318.482	8746
2320.482	8817
2322.48	8669
2324.48	8792
2326.478	8761
2328.476	8601
2330.473	8690
2332.469	8598
2334.465	8722
2336.46	8698
2338.454	8606
2340.45	8747
2342.444	8607
2344.437	8569
2346.43	8808
2348.421	8715
2350.414	8751
2352.405	8680
2354.396	8553
2356.386	8549
2358.376	8597
2360.366	8504
2362.355	8638
2364.343	8543
2366.331	8451
2368.317	8561
2370.304	8393
2372.292	8529
2374.278	8567
2376.262	8608
2378.247	8586
2380.23	8522
2382.216	8622
2384.199	8446
2386.181	8567
2388.163	8450
2390.144	8444
2392.127	8482
2394.107	8425
2396.087	8471
2398.066	8603
2400.046	8491
2402.023	8309
2404.004	8431
2405.981	8366
2407.957	8471
2409.934	8499
2411.91	8393
2413.886	8524
2415.862	8466
2417.836	8406
2419.809	8420
2421.784	8549
2423.756	8639
2425.73	8485
2427.701	8483
2429.672	8349
2431.644	8369
2433.615	8484
2435.586	8390
2437.555	8498
2439.523	8442
2441.491	8254
2443.459	8438
2445.428	8473
2447.395	8335
2449.361	8405
2451.327	8322
2453.292	8494
2455.257	8380
2457.223	8342
2459.187	8410
2461.15	8301
2463.113	8338
2465.076	8500
2467.039	8480
2468.999	8364
2470.96	8212
2472.921	8379
2474.881	8268
2476.841	8189
2478.8	8212
2480.759	8217
2482.717	8177
2484.675	8378
2486.63	8258
2488.589	8324
2490.545	8408
2492.5	8149
2494.455	8245
2496.408	8251
2498.364	8191
2500.318	8235
2502.27	8227
2504.223	8263
2506.174	8275
2508.126	8333
2510.078	8158
2512.03	8230
2513.979	8207
2515.927	8193
2517.877	8322
2519.826	8192
2521.775	8180
2523.722	8205
2525.668	8257
2527.616	8136
2529.561	8175
2531.508	8258
2533.452	8088
2535.398	8241
2537.342	8257
2539.284	8164
2541.229	8225
2543.173	7951
2545.114	8110
2547.055	8274
2548.996	8209
2550.938	8132
2552.878	8076
2554.817	8242
2556.756	8144
2558.695	8086
2560.633	8173
2562.572	8070
2564.509	8097
2566.445	8175
2568.382	8204
2570.317	8224
2572.254	8106
2574.189	8187
2576.123	8106
2578.057	8117
2579.99	8078
2581.923	8104
2583.855	8140
2585.788	8305
2587.719	8062
2589.65	8171
2591.579	8120
2593.511	8175
2595.44	8091
2597.37	8147
2599.297	8245
2601.225	8200
2603.153	8208
2605.08	8033
2607.007	8128
2608.932	8204
2610.858	8042
2612.782	8173
2614.709	8102
2616.632	8285
2618.556	8102
2620.478	8219
2622.401	8106
2624.324	8165
2626.247	8181
2628.167	8076
2630.088	8194
2632.008	8102
2633.928	8154
2635.848	8171
2637.766	8087
2639.684	8123
2641.603	8074
2643.519	8132
2645.437	8110
2647.353	8002
2649.27	8225
2651.184	8205
2653.099	8259
2655.014	8151
2656.928	8006
2658.842	8098
2660.755	8219
2662.667	8171
2664.579	8139
2666.491	8145
2668.402	8120
2670.312	8090
2672.222	8129
2674.132	8210
2676.042	8022
2677.951	7937
2679.859	8087
2681.766	8057
2683.674	8036
2685.582	8021
2687.488	8022
2689.392	8035
2691.298	7935
2693.202	8148
2695.107	7972
2697.012	8020
2698.914	8052
2700.817	7953
2702.72	7959
2704.622	7990
2706.524	8046
2708.425	7970
2710.326	7908
2712.225	7912
2714.125	7901
2716.024	8002
2717.923	7889
2719.822	7847
2721.719	7964
2723.616	7916
2725.512	7971
2727.41	7834
2729.305	7918
2731.201	7864
2733.095	7879
2734.99	7986
2736.884	7941
2738.778	7839
2740.67	7872
2742.562	7872
2744.455	7876
2746.346	7877
2748.238	7800
2750.129	7803
2752.018	7867
2753.907	7850
2755.797	7938
2757.687	7858
2759.575	7803
2761.462	7854
2763.349	7832
2765.237	7771
2767.124	7841
2769.009	7880
2770.894	7795
2772.779	7768
2774.663	7882
2776.547	7780
2778.431	7887
2780.314	7810
2782.197	7745
2784.078	7794
2785.96	7723
2787.842	7839
2789.723	7763
2791.603	7694
2793.483	7727
2795.362	7815
2797.241	7865
2799.121	7572
2800.997	7756
2802.874	7818
2804.751	7763
2806.628	7696
2808.506	7709
2810.38	7709
2812.255	7681
2814.13	7758
2816.003	7578
2817.878	7676
2819.752	7631
2821.623	7688
2823.496	7679
2825.368	7830
2827.238	7588
2829.111	7831
2830.98	7732
2832.851	7739
2834.719	7786
2836.589	7614
2838.458	7662
2840.327	7768
2842.193	7697
2844.061	7715
2845.927	7716
2847.794	7728
2849.66	7748
2851.525	7712
2853.39	7764
2855.254	7894
2857.117	7881
2858.983	7819
2860.845	7937
2862.707	7693
2864.569	7875
2866.431	7958
2868.293	7816
2870.154	7916
2872.013	7912
2873.873	7995
2875.733	8062
2877.592	8013
2879.451	8144
2881.309	8103
2883.166	8210
2885.022	8218
2886.879	8232
2888.736	8187
2890.591	8309
2892.446	8346
2894.301	8322
2896.155	8253
2898.009	8256
2899.863	8288
2901.716	8318
2903.568	8229
2905.419	8174
2907.27	8218
2909.123	8133
2910.973	8213
2912.824	8331
2914.673	8286
2916.521	8222
2918.372	8486
2920.22	8458
2922.067	8296
2923.914	8508
2925.761	8566
2927.607	8652
2929.455	8626
2931.301	8713
2933.144	8731
2934.99	8639
2936.833	8756
2938.678	8661
2940.522	8792
2942.364	8832
2944.207	8957
2946.048	8965
2947.891	9182
2949.731	8961
2951.571	9195
2953.412	9058
2955.25	9054
2957.09	8898
2958.93	8836
2960.767	8967
2962.606	8798
2964.443	8767
2966.279	8843
2968.116	8622
2969.953	8584
2971.788	8366
2973.623	8384
2975.457	8325
2977.292	8144
2979.127	8229
2980.959	8230
2982.792	8157
2984.624	8000
2986.455	8135
2988.288	8034
2990.119	7980
2991.949	7956
2993.779	7939
2995.608	7808
2997.439	7814
2999.268	7848
3001.096	7862
3002.923	7744
3004.751	7637
3006.578	7777
3008.406	7744
3010.232	7576
3012.057	7508
3013.883	7470
3015.706	7504
3017.532	7397
3019.356	7570
3021.179	7297
3023.002	7426
3024.823	7378
3026.646	7294
3028.469	7355
3030.289	7282
3032.11	7109
3033.93	7286
3035.749	7334
3037.57	7325
3039.39	7164
3041.207	7207
3043.026	7258
3044.842	7275
3046.661	7231
3048.477	7177
3050.294	7260
3052.109	7183
3053.925	7160
3055.739	7195
3057.555	7263
3059.368	7148
3061.181	7193
3062.995	7137
3064.807	7157
3066.62	7142
3068.433	7175
3070.243	7252
3072.054	7257
3073.865	7095
3075.675	7027
3077.485	7141
3079.293	7022
3081.102	7173
3082.911	6933
3084.719	6997
3086.527	6954
3088.333	6984
3090.139	7097
3091.945	6978
3093.75	6965
3095.557	7072
3097.361	7014
3099.165	6869
3100.969	6961
3102.772	7003
3104.575	7021
3106.379	7023
3108.181	6994
3109.982	6943
3111.783	6880
3113.584	6852
3115.386	6822
3117.186	6940
3118.985	6867
3120.783	6990
3122.582	6820
3124.381	6783
3126.179	6965
3127.975	6901
3129.772	6958
3131.569	6851
3133.365	6803
3135.161	6841
3136.956	6832
3138.751	6781
3140.544	6752
3142.338	6683
3144.132	6688
3145.925	6718
3147.717	6762
3149.509	6681
3151.301	6695
3153.091	6585
3154.884	6718
3156.673	6750
3158.462	6732
3160.252	6703
3162.041	6697
3163.831	6711
3165.618	6671
3167.405	6698
3169.193	6638
3170.979	6676
3172.767	6695
3174.553	6728
3176.338	6682
3178.123	6657
3179.907	6691
3181.692	6667
3183.477	6637
3185.259	6673
3187.042	6637
3188.824	6517
3190.607	6597
3192.389	6682
3194.17	6636
3195.951	6669
3197.73	6462
3199.51	6578
3201.289	6457
3203.07	6628
3204.848	6648
3206.626	6624
3208.403	6671
3210.18	6531
3211.959	6432
3213.735	6569
3215.511	6611
3217.285	6548
3219.06	6603
3220.836	6645
3222.611	6570
3224.384	6516
3226.158	6582
3227.929	6447
3229.702	6605
3231.476	6634
3233.248	6521
3235.018	6578
3236.789	6568
3238.56	6481
3240.33	6453
3242.1	6472
3243.869	6501
3245.637	6461
3247.405	6488
3249.172	6571
3250.941	6542
3252.707	6442
3254.474	6437
3256.24	6538
3258.006	6524
3259.772	6456
3261.537	6550
3263.301	6421
3265.065	6530
3266.828	6499
3268.592	6566
3270.355	6539
3272.117	6474
3273.878	6551
3275.64	6530
3277.401	6407
3279.162	6607
3280.922	6498
3282.682	6488
3284.441	6464
3286.199	6530
3287.959	6504
3289.716	6401
3291.475	6456
3293.232	6498
3294.988	6417
3296.744	6496
3298.501	6480
3300.256	6356
3302.011	6504
3303.766	6355
3305.52	6325
3307.275	6477
3309.028	6416
3310.781	6464
3312.533	6476
3314.285	6410
3316.038	6431
3317.789	6301
3319.54	6494
3321.289	6424
3323.039	6387
3324.789	6461
3326.539	6330
3328.288	6376
3330.035	6363
3331.783	6375
3333.531	6430
3335.28	6306
3337.025	6349
3338.771	6365
3340.518	6226
3342.262	6355
3344.009	6372
3345.753	6330
3347.497	6264
3349.24	6274
3350.983	6339
3352.726	6331
3354.469	6415
3356.212	6315
3357.952	6218
3359.694	6290
3361.434	6288
3363.176	6226
3364.916	6238
3366.654	6320
3368.394	6292
3370.132	6237
3371.871	6179
3373.61	6214
3375.346	6255
3377.083	6232
3378.82	6306
3380.556	6152
3382.292	6324
3384.027	6093
3385.763	6133
3387.497	6100
3389.231	6120
3390.965	6204
3392.698	6057
3394.431	6176
3396.164	6175
3397.896	6125
3399.627	6208
3401.36	6118
3403.09	6185
3404.82	6186
3406.55	6251
3408.279	6025
3410.01	6130
3411.738	6217
3413.467	6146
3415.194	6066
3416.92	6109
3418.647	6139
3420.375	6039
3422.102	6006
3423.827	6005
3425.553	5974
3427.277	6023
3429.003	6026
3430.727	6006
3432.451	6012
3434.173	6018
3435.896	5932
3437.62	6042
3439.343	5912
3441.063	5996
3442.785	5903
3444.505	5872
3446.226	5886
3447.948	6041
3449.666	5938
3451.386	5864
3453.104	5893
3454.823	5878
3456.541	5858
3458.259	5916
3459.976	5976
3461.693	5864
3463.408	5854
3465.125	5862
3466.841	5876
3468.556	5783
3470.271	5867
3471.985	5809
3473.698	5776
3475.414	5683
3477.126	5884
3478.838	5876
3480.55	5816
3482.263	5782
3483.975	5880
3485.686	5818
3487.396	5714
3489.106	5705
3490.817	5618
3492.526	5711
3494.236	5666
3495.944	5664
3497.652	5665
3499.359	5794
3501.066	5627
3502.775	5642
3504.481	5704
3506.187	5621
3507.893	5708
3509.598	5652
3511.304	5703
3513.009	5622
3514.713	5651
3516.417	5704
3518.12	5636
3519.821	5651
3521.525	5659
3523.228	5668
3524.929	5615
3526.631	5496
3528.33	5494
3530.032	5600
3531.733	5449
3533.433	5581
3535.131	5552
3536.83	5542
3538.529	5499
3540.227	5454
3541.925	5534
3543.623	5521
3545.319	5575
3547.016	5550
3548.712	5557
3550.408	5463
3552.103	5557
3553.798	5503
3555.491	5430
3557.188	5459
3558.88	5443
3560.574	5448
3562.266	5411
3563.959	5417
3565.651	5409
3567.343	5456
3569.035	5456
3570.725	5391
3572.415	5528
3574.106	5406
3575.797	5339
3577.485	5453
3579.174	5412
3580.863	5416
3582.551	5435
3584.238	5360
3585.926	5390
3587.613	5355
3589.3	5264
3590.986	5335
3592.671	5215
3594.357	5427
3596.042	5292
3597.726	5349
3599.41	5345
3601.094	5230
3602.778	5297
3604.461	5308
3606.143	5242
3607.825	5285
3609.507	5346
3611.188	5139
3612.87	5326
3614.551	5346
3616.229	5276
3617.909	5206
3619.589	5208
3621.269	5230
3622.948	5181
3624.625	5157
3626.302	5211
3627.98	5215
3629.657	5319
3631.334	5105
3633.01	5225
3634.686	5208
3636.361	5004
3638.036	5075
3639.712	5146
3641.385	5097
3643.06	5094
3644.732	5148
3646.405	5075
3648.08	5085
3649.751	5025
3651.424	5003
3653.094	5065
3654.766	5134
3656.436	5045
3658.106	4988
3659.777	4991
3661.446	5046
3663.115	4948
3664.783	5071
3666.452	5122
3668.121	5108
3669.788	4981
3671.454	5065
3673.121	5018
3674.789	5038
3676.455	5045
3678.12	4962
3679.784	5010
3681.45	4976
3683.114	5057
3684.779	4957
3686.442	5010
3688.105	4995
3689.768	4964
3691.43	5041
3693.093	4979
3694.754	4935
3696.415	4952
3698.076	4999
3699.736	4890
3701.396	4883
3703.057	4870
3704.716	4880
3706.375	4969
3708.034	5004
3709.692	4839
3711.351	4989
3713.008	4870
3714.665	4874
3716.321	4893
3717.977	4870
3719.634	4871
3721.29	4904
3722.945	4834
3724.598	4851
3726.253	4808
3727.907	4855
3729.561	4725
3731.214	4805
3732.867	4920
3734.518	4781
3736.171	4865
3737.824	4840
3739.474	4812
3741.125	4844
3742.775	4798
3744.425	4860
3746.074	4849
3747.725	4802
3749.373	4798
3751.022	4817
3752.669	4798
3754.318	4764
3755.966	4787
3757.612	4746
3759.259	4711
3760.905	4687
3762.55	4733
3764.197	4777
3765.842	4759
3767.486	4708
3769.131	4805
3770.774	4740
3772.417	4661
3774.061	4785
3775.705	4682
3777.347	4699
3778.988	4621
3780.629	4696
3782.271	4620
3783.912	4536
3785.552	4684
3787.192	4638
3788.831	4755
3790.472	4700
3792.112	4578
3793.75	4652
3795.388	4557
3797.024	4639
3798.661	4681
3800.3	4531
3801.936	4637
3803.572	4695
3805.208	4626
3806.844	4697
3808.48	4595
3810.115	4572
3811.748	4605
3813.382	4682
3815.016	4540
3816.649	4576
3818.283	4488
3819.914	4521
3821.547	4499
3823.178	4592
3824.809	4460
3826.441	4446
3828.072	4627
3829.701	4601
3831.331	4554
3832.96	4625
3834.591	4477
3836.219	4530
3837.847	4461
3839.475	4478
3841.102	4515
3842.729	4490
3844.357	4461
3845.984	4520
3847.609	4505
3849.234	4409
3850.86	4479
3852.485	4515
3854.11	4541
3855.734	4494
3857.357	4486
3858.981	4493
3860.603	4482
3862.227	4480
3863.848	4468
3865.471	4410
3867.092	4456
3868.713	4429
3870.334	4421
3871.954	4360
3873.575	4443
3875.194	4352
3876.813	4375
3878.433	4403
3880.051	4329
3881.669	4395
3883.286	4389
3884.904	4352
3886.52	4418
3888.138	4305
3889.754	4335
3891.37	4379
3892.985	4357
3894.6	4322
3896.216	4323
3897.831	4350
3899.444	4417
3901.058	4336
3902.67	4342
3904.283	4332
3905.897	4369
3907.509	4380
3909.121	4341
3910.731	4226
3912.342	4276
3913.954	4333
3915.563	4358
3917.174	4325
3918.783	4289
3920.391	4330
3922.002	4283
3923.611	4306
3925.218	4300
3926.826	4290
3928.432	4299
3930.039	4323
3931.647	4240
3933.253	4257
3934.859	4317
3936.464	4314
3938.068	4325
3939.675	4256
3941.278	4252
3942.883	4275
3944.486	4247
3946.089	4290
3947.692	4273
3949.295	4280
3950.898	4207
3952.499	4215
3954.1	4222
3955.7	4160
3957.303	4271
3958.903	4192
3960.502	4240
3962.101	4046
3963.7	4240
3965.301	4139
3966.899	4207
3968.497	4091
3970.094	4031
3971.691	4121
3973.288	4182
3974.885	4222
3976.481	4146
3978.077	4185
3979.672	4202
3981.267	4066
3982.863	4174
3984.457	4132
3986.051	4130
3987.645	4077
3989.238	4131
3990.831	4173
3992.425	4131
3994.017	4119
3995.607	4085
3997.199	4043
3998.79	4063
4000.382	4091
4001.973	4101
4003.561	4083
4005.151	3992
4006.741	4049
4008.331	3961
4009.918	3956
4011.507	4053
4013.095	3979
4014.681	3983
4016.269	4040
4017.856	4004
4019.443	4001
4021.028	4006
4022.614	3998
4024.199	4022
4025.785	3983
4027.37	3978
4028.953	3906
4030.536	3993
4032.12	3939
4033.704	3983
4035.287	3866
4036.869	3971
4038.45	3926
4040.032	3930
4041.613	3903
4043.195	3879
4044.776	3950
4046.356	3845
4047.935	3985
4049.515	3887
4051.095	3790
4052.674	4058
4054.251	3897
4055.829	3899
4057.406	3906
4058.985	3900
4060.562	3845
4062.139	3888
4063.715	3876
4065.29	3879
4066.865	3868
4068.442	3870
4070.016	3873
4071.59	3877
4073.164	3803
4074.738	3806
4076.312	3827
4077.885	3762
4079.458	3867
4081.03	3750
4082.602	3888
4084.173	3806
4085.745	3863
4087.315	3783
4088.886	3802
4090.456	3788
4092.026	3814
4093.596	3853
4095.165	3782
4096.734	3795
4098.301	3700
4099.869	3759
4101.437	3725
4103.006	3731
4104.572	3764
4106.139	3772
4107.704	3698
4109.27	3703
4110.837	3691
4112.401	3796
4113.966	3746
4115.53	3666
4117.094	3711
4118.659	3747
4120.223	3651
4121.785	3719
4123.347	3749
4124.909	3749
4126.471	3729
4128.034	3701
4129.595	3713
4131.155	3663
4132.716	3628
4134.275	3715
4135.836	3659
4137.395	3513
4138.955	3737
4140.513	3727
4142.071	3631
4143.628	3686
4145.188	3630
4146.745	3634
4148.302	3685
4149.858	3630
4151.414	3599
4152.971	3592
4154.526	3633
4156.081	3578
4157.635	3583
4159.189	3612
4160.745	3556
4162.298	3576
4163.852	3600
4165.405	3479
4166.957	3616
4168.51	3545
4170.063	3584
4171.614	3578
4173.166	3605
4174.717	3499
4176.267	3547
4177.817	3537
4179.368	3515
4180.917	3628
4182.466	3504
4184.016	3518
4185.564	3514
4187.112	3478
4188.66	3498
4190.207	3500
4191.754	3477
4193.301	3452
4194.848	3462
4196.394	3460
4197.94	3529
4199.484	3404
4201.03	3469
4202.575	3456
4204.12	3386
4205.663	3439
4207.207	3455
4208.75	3484
4210.292	3470
4211.836	3501
4213.378	3432
4214.92	3432
4216.46	3503
4218.002	3452
4219.544	3453
4221.083	3569
4222.625	3445
4224.164	3431
4225.703	3382
4227.244	3436
4228.782	3419
4230.32	3456
4231.857	3475
4233.395	3360
4234.933	3370
4236.471	3534
4238.007	3401
4239.542	3428
4241.078	3350
4242.614	3360
4244.15	3429
4245.685	3450
4247.219	3377
4248.753	3424
4250.287	3427
4251.82	3366
4253.354	3322
4254.887	3363
4256.419	3376
4257.951	3300
4259.483	3423
4261.016	3360
4262.547	3315
4264.078	3302
4265.608	3368
4267.137	3359
4268.668	3275
4270.197	3328
4271.727	3247
4273.254	3263
4274.783	3308
4276.311	3276
4277.84	3364
4279.366	3303
4280.894	3408
4282.42	3363
4283.946	3226
4285.473	3274
4286.998	3328
4288.523	3286
4290.047	3241
4291.572	3220
4293.096	3267
4294.622	3240
4296.144	3313
4297.668	3210
4299.19	3215
4300.713	3224
4302.236	3253
4303.758	3252
4305.279	3276
4306.799	3224
4308.321	3255
4309.842	3175
4311.361	3269
4312.882	3197
4314.401	3107
