400.0961	5464
402.6185	5589
405.1424	5565
407.6635	5486
410.1838	5619
412.7035	5646
415.2225	5676
417.7388	5716
420.2585	5756
422.7754	5817
425.2917	6023
427.8072	5873
430.3221	5811
432.8363	5947
435.3498	6009
437.8626	5863
440.3727	5963
442.8841	5949
445.3969	5974
447.907	6015
450.4142	5978
452.9229	5996
455.4289	6035
457.9362	5927
460.4449	5838
462.9488	5932
465.454	5954
467.9566	5892
470.4604	5967
472.9637	5839
475.4662	5834
477.966	5951
480.4671	5905
482.9656	5975
485.4633	6052
487.9645	6037
490.4608	6121
492.9566	6106
495.4536	6002
497.948	6093
500.4437	6132
502.9387	6036
505.431	6037
507.9226	6096
510.4136	6059
512.9079	6062
515.3975	6083
517.8864	6138
520.3746	6149
522.8622	6083
525.3491	6145
527.8394	6181
530.3249	6220
532.8098	6175
535.2939	6091
537.7774	6263
540.2623	6245
542.7444	6059
545.2259	6197
547.7067	6245
550.1868	6239
552.6683	6223
555.147	6098
557.6231	6210
560.1005	6242
562.5773	6304
565.0534	6321
567.5308	6313
570.0056	6395
572.4776	6368
574.951	6346
577.4237	6516
579.8978	6401
582.3671	6486
584.8378	6595
587.3079	6656
589.7773	6573
592.244	6472
594.714	6531
597.1793	6491
599.6461	6475
602.1121	6465
604.5754	6322
607.0421	6665
609.5042	6465
611.9675	6462
614.4282	6249
616.8902	6366
619.3515	6457
621.8122	6476
624.2702	6294
626.7296	6450
629.1863	6339
631.6423	6464
634.1017	6259
636.5563	6363
639.0104	6358
641.4658	6418
643.9185	6411
646.3725	6373
648.8239	6458
651.2766	6584
653.7266	6490
656.176	6480
658.6247	6528
661.0748	6517
663.5242	6487
665.9709	6401
668.417	6516
670.8624	6514
673.3092	6552
675.7533	6459
678.1968	6619
680.6395	6631
683.0817	6558
685.5251	6630
687.9659	6620
690.4061	6724
692.8456	6760
695.2844	6784
697.7226	6620
700.1621	6769
702.599	6655
705.0332	6748
707.4688	6744
709.9036	6649
712.3399	6804
714.7735	6747
717.2044	6690
719.6367	6832
722.0683	6786
724.4993	6868
726.9296	6839
729.3593	6766
731.7883	6889
734.2147	6855
736.6423	6819
739.0714	7016
741.4958	6917
743.9216	6915
746.3447	6823
748.7691	6968
751.1929	7043
753.616	7165
756.0366	7025
758.4584	7078
760.8776	6997
763.2982	7084
765.718	7207
768.1373	7085
770.5539	7142
772.9698	7037
775.3871	7066
777.8038	7160
780.2178	6957
782.6332	7142
785.0459	7118
787.458	7284
789.8714	7087
792.2842	7046
794.6943	7126
797.1038	7066
799.5127	7137
801.9209	7112
804.3324	7119
806.7393	7122
809.1456	7257
811.5513	7220
813.9562	7239
816.3625	7253
818.7663	7271
821.1693	7357
823.5718	7248
825.9735	7171
828.3746	7166
830.7771	7092
833.177	7219
835.5762	7332
837.9747	7314
840.3727	7321
842.772	7227
845.1666	7356
847.5626	7366
849.958	7292
852.3527	7525
854.7488	7459
857.1403	7376
859.5331	7476
861.9253	7334
864.3168	7312
866.7057	7372
869.098	7339
871.4876	7385
873.8746	7401
876.263	7343
878.6487	7408
881.0378	7381
883.4243	7331
885.8081	7499
888.1933	7382
890.5759	7431
892.9598	7279
895.343	7314
897.7256	7421
900.1057	7332
902.4871	7475
904.8659	7421
907.246	7305
909.6254	7497
912.0023	7473
914.3786	7496
916.7562	7596
919.1331	7639
921.5074	7734
923.8831	7865
926.2562	7695
928.6287	7939
931.0005	7739
933.3757	7789
935.7462	7923
938.1162	7898
940.4855	8031
942.8542	8132
945.2242	8150
947.5916	8381
949.9584	8634
952.3266	8728
954.6921	9180
957.0571	9553
959.4233	10030
961.787	10107
964.15	9998
966.5125	9712
968.8742	9346
971.2354	9000
973.5959	8342
975.9559	8277
978.3151	7924
980.6738	7923
983.0338	7761
985.3912	7681
987.7461	7739
990.1022	7638
992.4578	7825
994.8127	7684
997.1689	7655
999.5207	7616
1001.874	7677
1004.226	7774
1006.576	7754
1008.929	7795
1011.28	7638
1013.628	7770
1015.977	7811
1018.324	7684
1020.674	7799
1023.019	7748
1025.366	7785
1027.713	7767
1030.056	7798
1032.399	7894
1034.746	7921
1037.087	7821
1039.431	7870
1041.771	7828
1044.113	7752
1046.454	7898
1048.793	7963
1051.133	7870
1053.471	7878
1055.807	7968
1058.146	7918
1060.483	8008
1062.818	8086
1065.153	7885
1067.489	8042
1069.822	8077
1072.156	8010
1074.488	7964
1076.82	8057
1079.15	7948
1081.48	8022
1083.814	8010
1086.143	8131
1088.471	7985
1090.799	7879
1093.126	7782
1095.452	7805
1097.78	7883
1100.105	7851
1102.43	7811
1104.754	7867
1107.077	7838
1109.4	7908
1111.722	7747
1114.044	7864
1116.365	7886
1118.685	7873
1121.005	7864
1123.324	7751
1125.643	7823
1127.961	7966
1130.278	7836
1132.595	7822
1134.911	7828
1137.226	7872
1139.541	7914
1141.854	7900
1144.167	7859
1146.482	7834
1148.793	7953
1151.105	7830
1153.414	7898
1155.725	7931
1158.033	7921
1160.344	7963
1162.651	7790
1164.959	7915
1167.265	8002
1169.572	7885
1171.878	7774
1174.184	8008
1176.488	7875
1178.79	7952
1181.094	7939
1183.396	7906
1185.699	7896
1188.001	7972
1190.301	7854
1192.6	7821
1194.9	7870
1197.2	7845
1199.497	7946
1201.794	7840
1204.09	7892
1206.387	7981
1208.684	7804
1210.978	7885
1213.272	8081
1215.565	7979
1217.858	7907
1220.15	8046
1222.443	7997
1224.734	7978
1227.024	8022
1229.313	8085
1231.602	8054
1233.892	8164
1236.18	8000
1238.467	8173
1240.754	8265
1243.04	8160
1245.325	8288
1247.612	8266
1249.896	8244
1252.178	8213
1254.461	8237
1256.743	8157
1259.027	8220
1261.308	8235
1263.587	8209
1265.867	8183
1268.146	8090
1270.425	8231
1272.703	8235
1274.981	8326
1277.256	8112
1279.532	8225
1281.808	8091
1284.083	8159
1286.358	8101
1288.63	8256
1290.904	8063
1293.175	8101
1295.449	8170
1297.719	8111
1299.99	8057
1302.259	8058
1304.529	8013
1306.798	8117
1309.065	8167
1311.333	8064
1313.599	8127
1315.866	7971
1318.131	8063
1320.396	8090
1322.66	8040
1324.925	8323
1327.187	8171
1329.448	8016
1331.711	8199
1333.974	8228
1336.234	8148
1338.493	8208
1340.752	8138
1343.01	8069
1345.269	8175
1347.526	8143
1349.784	8044
1352.04	8062
1354.295	8138
1356.552	8091
1358.806	8039
1361.059	8082
1363.312	8141
1365.564	8069
1367.818	8210
1370.069	8042
1372.318	8177
1374.568	8030
1376.817	8132
1379.066	8057
1381.316	8207
1383.564	8063
1385.809	8185
1388.056	8151
1390.301	8243
1392.549	8316
1394.793	8363
1397.036	8270
1399.279	8232
1401.522	8208
1403.763	8354
1406.007	8305
1408.248	8357
1410.487	8311
1412.727	8271
1414.965	8346
1417.205	8310
1419.442	8513
1421.68	8370
1423.915	8381
1426.152	8410
1428.388	8359
1430.623	8343
1432.857	8510
1435.091	8237
1437.323	8512
1439.556	8518
1441.789	8568
1444.019	8508
1446.25	8498
1448.48	8456
1450.708	8597
1452.938	8452
1455.167	8506
1457.394	8543
1459.62	8558
1461.846	8532
1464.073	8558
1466.299	8361
1468.523	8470
1470.746	8375
1472.969	8360
1475.191	8354
1477.415	8275
1479.636	8293
1481.858	8261
1484.078	8205
1486.298	8124
1488.518	8134
1490.736	8376
1492.954	8169
1495.169	8242
1497.386	8192
1499.602	8193
1501.819	8213
1504.034	8037
1506.248	8172
1508.462	8109
1510.675	8106
1512.888	8146
1515.1	8093
1517.311	8099
1519.522	8177
1521.732	8089
1523.942	8087
1526.151	8139
1528.36	8220
1530.566	8127
1532.773	8038
1534.98	8143
1537.187	8078
1539.392	8198
1541.596	8041
1543.801	8045
1546.005	8209
1548.208	8014
1550.411	8150
1552.612	8316
1554.814	8253
1557.013	8150
1559.212	8244
1561.414	8335
1563.612	8185
1565.811	8215
1568.007	8390
1570.203	8352
1572.403	8184
1574.598	8291
1576.792	8366
1578.988	8338
1581.181	8400
1583.376	8376
1585.568	8325
1587.761	8379
1589.952	8407
1592.143	8325
1594.333	8479
1596.524	8561
1598.715	8365
1600.903	8359
1603.091	8421
1605.278	8376
1607.466	8387
1609.652	8385
1611.838	8321
1614.023	8326
1616.207	8485
1618.391	8446
1620.576	8379
1622.759	8416
1624.941	8376
1627.123	8327
1629.304	8433
1631.484	8450
1633.664	8663
1635.844	8361
1638.022	8606
1640.201	8550
1642.38	8529
1644.556	8490
1646.732	8560
1648.908	8562
1651.084	8553
1653.257	8445
1655.433	8628
1657.607	8487
1659.779	8648
1661.951	8669
1664.122	8484
1666.295	8446
1668.467	8647
1670.635	8693
1672.805	8706
1674.973	8759
1677.142	8633
1679.31	8662
1681.478	8739
1683.644	8589
1685.81	8511
1687.975	8632
1690.142	8646
1692.305	8433
1694.468	8466
1696.632	8504
1698.794	8525
1700.957	8432
1703.119	8463
1705.279	8493
1707.439	8341
1709.598	8373
1711.758	8329
1713.917	8395
1716.075	8434
1718.231	8467
1720.388	8294
1722.543	8331
1724.702	8273
1726.856	8312
1729.01	8293
1731.164	8462
1733.317	8357
1735.471	8422
1737.623	8406
1739.774	8335
1741.925	8391
1744.075	8345
1746.225	8449
1748.376	8341
1750.524	8470
1752.672	8396
1754.82	8366
1756.965	8432
1759.113	8345
1761.259	8476
1763.405	8360
1765.549	8467
1767.694	8474
1769.836	8394
1771.981	8482
1774.123	8428
1776.264	8409
1778.405	8489
1780.546	8401
1782.687	8342
1784.827	8508
1786.966	8432
1789.103	8374
1791.242	8531
1793.381	8440
1795.517	8560
1797.653	8413
1799.788	8400
1801.923	8539
1804.057	8556
1806.193	8438
1808.326	8589
1810.457	8407
1812.59	8467
1814.721	8375
1816.855	8420
1818.984	8409
1821.113	8425
1823.244	8393
1825.372	8417
1827.499	8507
1829.63	8357
1831.756	8315
1833.882	8276
1836.007	8383
1838.132	8400
1840.26	8381
1842.384	8408
1844.507	8356
1846.63	8289
1848.752	8269
1850.875	8241
1852.996	8352
1855.118	8330
1857.238	8370
1859.358	8350
1861.477	8250
1863.597	8319
1865.715	8267
1867.832	8458
1869.948	8208
1872.064	8363
1874.181	8407
1876.297	8159
1878.411	8375
1880.526	8371
1882.639	8324
1884.752	8427
1886.865	8517
1888.977	8329
1891.089	8434
1893.2	8453
1895.308	8396
1897.42	8457
1899.53	8456
1901.639	8410
1903.745	8413
1905.853	8463
1907.962	8429
1910.067	8482
1912.174	8448
1914.278	8448
1916.383	8451
1918.486	8589
1920.592	8398
1922.694	8524
1924.797	8505
1926.898	8417
1929	8472
1931.102	8385
1933.203	8442
1935.301	8547
1937.401	8433
1939.499	8537
1941.598	8504
1943.697	8598
1945.793	8396
1947.888	8427
1949.985	8513
1952.08	8536
1954.176	8438
1956.269	8415
1958.364	8427
1960.457	8414
1962.549	8446
1964.642	8454
1966.733	8527
1968.823	8437
1970.913	8531
1973.005	8495
1975.093	8393
1977.184	8300
1979.271	8592
1981.359	8346
1983.446	8403
1985.532	8414
1987.619	8407
1989.705	8459
1991.789	8405
1993.874	8500
1995.956	8336
1998.041	8432
2000.123	8372
2002.206	8362
2004.287	8365
2006.368	8338
2008.449	8448
2010.529	8380
2012.609	8398
2014.688	8483
2016.766	8325
2018.843	8422
2020.922	8339
2022.999	8386
2025.074	8326
2027.15	8356
2029.225	8411
2031.299	8356
2033.375	8459
2035.447	8363
2037.52	8336
2039.592	8317
2041.664	8288
2043.736	8419
2045.807	8382
2047.876	8337
2049.947	8436
2052.015	8485
2054.086	8533
2056.153	8437
2058.221	8378
2060.288	8368
2062.353	8398
2064.42	8448
2066.486	8427
2068.55	8466
2070.614	8331
2072.678	8382
2074.741	8385
2076.805	8251
2078.866	8377
2080.929	8346
2082.99	8454
2085.049	8364
2087.109	8439
2089.17	8391
2091.228	8360
2093.286	8305
2095.344	8403
2097.4	8409
2099.46	8332
2101.516	8435
2103.572	8398
2105.626	8396
2107.679	8429
2109.735	8355
2111.788	8277
2113.841	8325
2115.894	8429
2117.945	8424
2119.997	8261
2122.049	8359
2124.1	8412
2126.148	8364
2128.197	8512
2130.246	8436
2132.296	8280
2134.342	8277
2136.39	8349
2138.437	8412
2140.483	8417
2142.527	8252
2144.574	8353
2146.619	8228
2148.661	8373
2150.705	8220
2152.747	8258
2154.792	8376
2156.832	8352
2158.874	8292
2160.915	8290
2162.954	8255
2164.995	8272
2167.034	8249
2169.072	8226
2171.111	8456
2173.148	8372
2175.186	8248
2177.223	8226
2179.258	8204
2181.294	8273
2183.328	8163
2185.362	8268
2187.398	8030
2189.431	8097
2191.463	8070
2193.495	8170
2195.528	8255
2197.56	8212
2199.59	8149
2201.62	8200
2203.649	8089
2205.678	8211
2207.708	8008
2209.737	8203
2211.764	8133
2213.791	8148
2215.817	8146
2217.843	8086
2219.87	8126
2221.895	8271
2223.919	8128
2225.942	8083
2227.966	8085
2229.988	8092
2232.012	8158
2234.032	8166
2236.054	8047
2238.074	8125
2240.095	8136
2242.116	8118
2244.135	8232
2246.153	8098
2248.171	8026
2250.188	8164
2252.208	8169
2254.223	7960
2256.239	8049
2258.255	8179
2260.269	8081
2262.283	8169
2264.3	8138
2266.312	8059
2268.325	8173
2270.336	8209
2272.349	8007
2274.362	8041
2276.372	8165
2278.383	8097
2280.392	8143
2282.402	8008
2284.409	8027
2286.418	7989
2288.427	8071
2290.433	7958
2292.441	8140
2294.446	8048
2296.453	8014
2298.459	8121
2300.463	8108
2302.466	8003
2304.471	8046
2306.475	8056
2308.477	8015
2310.478	8160
2312.481	8127
2314.481	8080
2316.481	8030
2318.482	7981
2320.482	7967
2322.48	7974
2324.48	7988
2326.478	7984
2328.476	8041
2330.473	8108
2332.469	7971
2334.465	8019
2336.46	8001
2338.454	7895
2340.45	7976
2342.444	7996
2344.437	7998
2346.43	7934
2348.421	8005
2350.414	7895
2352.405	8017
2354.396	8043
2356.386	7800
2358.376	7871
2360.366	7978
2362.355	7857
2364.343	7840
2366.331	7693
2368.317	7968
2370.304	7899
2372.292	7999
2374.278	7859
2376.262	7906
2378.247	7800
2380.23	7942
2382.216	7908
2384.199	7909
2386.181	7803
2388.163	7760
2390.144	7989
2392.127	7788
2394.107	7905
2396.087	7829
2398.066	7831
2400.046	7874
2402.023	7874
2404.004	7733
2405.981	7720
2407.957	7919
2409.934	7711
2411.91	7804
2413.886	7881
2415.862	7785
2417.836	7739
2419.809	7692
2421.784	7834
2423.756	7818
2425.73	7839
2427.701	7932
2429.672	7828
2431.644	7838
2433.615	7872
2435.586	7764
2437.555	7758
2439.523	7818
2441.491	7720
2443.459	7768
2445.428	7661
2447.395	7804
2449.361	7730
2451.327	7655
2453.292	7811
2455.257	7626
2457.223	7758
2459.187	7742
2461.15	7738
2463.113	7790
2465.076	7649
2467.039	7800
2468.999	7697
2470.96	7664
2472.921	7725
2474.881	7636
2476.841	7629
2478.8	7508
2480.759	7779
2482.717	7560
2484.675	7740
2486.63	7623
2488.589	7715
2490.545	7848
2492.5	7603
2494.455	7688
2496.408	7512
2498.364	7706
2500.318	7735
2502.27	7662
2504.223	7589
2506.174	7625
2508.126	7634
2510.078	7632
2512.03	7638
2513.979	7539
2515.927	7562
2517.877	7744
2519.826	7614
2521.775	7619
2523.722	7655
2525.668	7562
2527.616	7712
2529.561	7625
2531.508	7674
2533.452	7644
2535.398	7569
2537.342	7506
2539.284	7618
2541.229	7706
2543.173	7643
2545.114	7550
2547.055	7674
2548.996	7636
2550.938	7579
2552.878	7464
2554.817	7578
2556.756	7630
2558.695	7487
2560.633	7595
2562.572	7423
2564.509	7559
2566.445	7467
2568.382	7531
2570.317	7672
2572.254	7570
2574.189	7591
2576.123	7556
2578.057	7533
2579.99	7512
2581.923	7471
2583.855	7572
2585.788	7610
2587.719	7553
2589.65	7586
2591.579	7525
2593.511	7507
2595.44	7447
2597.37	7614
2599.297	7574
2601.225	7552
2603.153	7483
2605.08	7587
2607.007	7630
2608.932	7526
2610.858	7540
2612.782	7564
2614.709	7487
2616.632	7588
2618.556	7528
2620.478	7562
2622.401	7601
2624.324	7603
2626.247	7565
2628.167	7530
2630.088	7565
2632.008	7560
2633.928	7563
2635.848	7526
2637.766	7547
2639.684	7507
2641.603	7613
2643.519	7765
2645.437	7583
2647.353	7494
2649.27	7533
2651.184	7708
2653.099	7702
2655.014	7554
2656.928	7584
2658.842	7476
2660.755	7566
2662.667	7496
2664.579	7487
2666.491	7620
2668.402	7545
2670.312	7557
2672.222	7484
2674.132	7561
2676.042	7603
2677.951	7475
2679.859	7501
2681.766	7598
2683.674	7410
2685.582	7415
2687.488	7444
2689.392	7468
2691.298	7516
2693.202	7363
2695.107	7481
2697.012	7456
2698.914	7419
2700.817	7536
2702.72	7307
2704.622	7431
2706.524	7343
2708.425	7257
2710.326	7421
2712.225	7340
2714.125	7251
2716.024	7562
2717.923	7395
2719.822	7327
2721.719	7275
2723.616	7412
2725.512	7372
2727.41	7434
2729.305	7358
2731.201	7411
2733.095	7354
2734.99	7468
2736.884	7296
2738.778	7441
2740.67	7353
2742.562	7291
2744.455	7353
2746.346	7237
2748.238	7471
2750.129	7374
2752.018	7412
2753.907	7310
2755.797	7321
2757.687	7412
2759.575	7284
2761.462	7219
2763.349	7351
2765.237	7198
2767.124	7254
2769.009	7271
2770.894	7249
2772.779	7247
2774.663	7402
2776.547	7261
2778.431	7152
2780.314	7452
2782.197	7276
2784.078	7217
2785.96	7189
2787.842	7322
2789.723	7258
2791.603	7322
2793.483	7282
2795.362	7268
2797.241	7335
2799.121	7285
2800.997	7268
2802.874	7185
2804.751	7338
2806.628	7163
2808.506	7296
2810.38	7231
2812.255	7221
2814.13	7224
2816.003	7266
2817.878	7151
2819.752	7286
2821.623	7209
2823.496	7207
2825.368	7296
2827.238	7214
2829.111	7277
2830.98	7232
2832.851	7251
2834.719	7215
2836.589	7167
2838.458	7226
2840.327	7192
2842.193	7279
2844.061	7241
2845.927	7140
2847.794	7157
2849.66	7258
2851.525	7180
2853.39	7247
2855.254	7253
2857.117	7294
2858.983	7406
2860.845	7387
2862.707	7351
2864.569	7331
2866.431	7347
2868.293	7332
2870.154	7539
2872.013	7529
2873.873	7481
2875.733	7664
2877.592	7640
2879.451	7652
2881.309	7656
2883.166	7757
2885.022	7755
2886.879	7690
2888.736	7813
2890.591	7765
2892.446	7725
2894.301	7744
2896.155	7798
2898.009	7756
2899.863	7758
2901.716	7794
2903.568	7712
2905.419	7842
2907.27	7726
2909.123	7870
2910.973	7854
2912.824	7904
2914.673	7799
2916.521	7875
2918.372	8036
2920.22	8039
2922.067	8159
2923.914	8334
2925.761	8281
2927.607	8286
2929.455	8347
2931.301	8444
2933.144	8542
2934.99	8399
2936.833	8495
2938.678	8656
2940.522	8724
2942.364	8751
2944.207	8741
2946.048	8801
2947.891	8823
2949.731	8954
2951.571	8853
2953.412	8668
2955.25	8636
2957.09	8651
2958.93	8600
2960.767	8421
2962.606	8522
2964.443	8238
2966.279	8333
2968.116	8145
2969.953	8155
2971.788	8079
2973.623	8160
2975.457	7956
2977.292	8047
2979.127	8050
2980.959	7921
2982.792	7712
2984.624	7839
2986.455	7886
2988.288	7785
2990.119	7756
2991.949	7769
2993.779	7631
2995.608	7557
2997.439	7650
2999.268	7503
3001.096	7463
3002.923	7453
3004.751	7269
3006.578	7382
3008.406	7396
3010.232	7266
3012.057	7298
3013.883	7145
3015.706	7175
3017.532	7017
3019.356	7083
3021.179	7062
3023.002	6947
3024.823	6772
3026.646	6893
3028.469	6998
3030.289	6958
3032.11	6776
3033.93	6855
3035.749	6831
3037.57	6811
3039.39	6896
3041.207	6770
3043.026	6809
3044.842	6890
3046.661	6845
3048.477	6883
3050.294	6758
3052.109	6889
3053.925	6882
3055.739	6845
3057.555	6927
3059.368	6666
3061.181	6749
3062.995	6734
3064.807	6769
3066.62	6825
3068.433	6788
3070.243	6757
3072.054	6683
3073.865	6764
3075.675	6726
3077.485	6753
3079.293	6665
3081.102	6715
3082.911	6689
3084.719	6584
3086.527	6616
3088.333	6786
3090.139	6604
3091.945	6649
3093.75	6623
3095.557	6550
3097.361	6535
3099.165	6584
3100.969	6526
3102.772	6540
3104.575	6475
3106.379	6642
3108.181	6639
3109.982	6513
3111.783	6518
3113.584	6506
3115.386	6567
3117.186	6448
3118.985	6517
3120.783	6515
3122.582	6485
3124.381	6452
3126.179	6403
3127.975	6510
3129.772	6365
3131.569	6460
3133.365	6481
3135.161	6422
3136.956	6463
3138.751	6547
3140.544	6404
3142.338	6463
3144.132	6368
3145.925	6363
3147.717	6531
3149.509	6509
3151.301	6361
3153.091	6413
3154.884	6376
3156.673	6426
3158.462	6409
3160.252	6446
3162.041	6287
3163.831	6326
3165.618	6330
3167.405	6333
3169.193	6365
3170.979	6381
3172.767	6278
3174.553	6342
3176.338	6344
3178.123	6426
3179.907	6289
3181.692	6328
3183.477	6379
3185.259	6290
3187.042	6327
3188.824	6355
3190.607	6404
3192.389	6349
3194.17	6425
3195.951	6312
3197.73	6266
3199.51	6356
3201.289	6226
3203.07	6393
3204.848	6230
3206.626	6295
3208.403	6396
3210.18	6178
3211.959	6254
3213.735	6384
3215.511	6301
3217.285	6350
3219.06	6193
3220.836	6272
3222.611	6181
3224.384	6265
3226.158	6236
3227.929	6217
3229.702	6200
3231.476	6262
3233.248	6365
3235.018	6237
3236.789	6289
3238.56	6380
3240.33	6246
3242.1	6261
3243.869	6207
3245.637	6250
3247.405	6269
3249.172	6364
3250.941	6312
3252.707	6177
3254.474	6161
3256.24	6257
3258.006	6304
3259.772	6234
3261.537	6208
3263.301	6241
3265.065	6303
3266.828	6258
3268.592	6240
3270.355	6388
3272.117	6178
3273.878	6243
3275.64	6197
3277.401	6285
3279.162	6124
3280.922	6176
3282.682	6335
3284.441	6287
3286.199	6171
3287.959	6261
3289.716	6167
3291.475	6250
3293.232	6215
3294.988	6222
3296.744	6232
3298.501	6243
3300.256	6270
3302.011	6258
3303.766	6217
3305.52	6303
3307.275	6273
3309.028	6142
3310.781	6242
3312.533	6268
3314.285	6222
3316.038	6196
3317.789	6331
3319.54	6223
3321.289	6254
3323.039	6255
3324.789	6289
3326.539	6228
3328.288	6211
3330.035	6253
3331.783	6174
3333.531	6232
3335.28	6286
3337.025	6250
3338.771	6146
3340.518	6161
3342.262	6112
3344.009	6157
3345.753	6174
3347.497	6087
3349.24	6177
3350.983	6189
3352.726	6193
3354.469	6158
3356.212	6162
3357.952	6177
3359.694	6181
3361.434	6116
3363.176	6047
3364.916	6153
3366.654	6115
3368.394	6106
3370.132	6159
3371.871	6033
3373.61	6023
3375.346	6001
3377.083	5997
3378.82	6064
3380.556	6026
3382.292	6004
3384.027	5966
3385.763	5969
3387.497	6012
3389.231	6097
3390.965	6069
3392.698	6020
3394.431	5985
3396.164	5946
3397.896	6144
3399.627	5973
3401.36	5927
3403.09	6024
3404.82	5958
3406.55	5993
3408.279	5956
3410.01	5975
3411.738	5980
3413.467	5811
3415.194	5989
3416.92	5898
3418.647	5979
3420.375	5823
3422.102	5882
3423.827	5886
3425.553	5896
3427.277	5847
3429.003	5796
3430.727	5830
3432.451	5861
3434.173	5908
3435.896	5799
3437.62	5867
3439.343	5872
3441.063	5825
3442.785	5861
3444.505	5762
3446.226	5838
3447.948	5687
3449.666	5747
3451.386	5664
3453.104	5741
3454.823	5908
3456.541	5770
3458.259	5801
3459.976	5763
3461.693	5684
3463.408	5791
3465.125	5658
3466.841	5668
3468.556	5755
3470.271	5614
3471.985	5756
3473.698	5679
3475.414	5672
3477.126	5605
3478.838	5661
3480.55	5537
3482.263	5676
3483.975	5545
3485.686	5605
3487.396	5586
3489.106	5562
3490.817	5513
3492.526	5608
3494.236	5554
3495.944	5494
3497.652	5522
3499.359	5586
3501.066	5486
3502.775	5552
3504.481	5613
3506.187	5464
3507.893	5521
3509.598	5512
3511.304	5528
3513.009	5406
3514.713	5505
3516.417	5437
3518.12	5462
3519.821	5379
3521.525	5396
3523.228	5419
3524.929	5497
3526.631	5441
3528.33	5528
3530.032	5450
3531.733	5556
3533.433	5405
3535.131	5355
3536.83	5402
3538.529	5458
3540.227	5360
3541.925	5356
3543.623	5340
3545.319	5443
3547.016	5294
3548.712	5356
3550.408	5257
3552.103	5348
3553.798	5303
3555.491	5380
3557.188	5341
3558.88	5376
3560.574	5281
3562.266	5295
3563.959	5248
3565.651	5251
3567.343	5241
3569.035	5250
3570.725	5269
3572.415	5286
3574.106	5309
3575.797	5213
3577.485	5305
3579.174	5241
3580.863	5225
3582.551	5226
3584.238	5207
3585.926	5159
3587.613	5225
3589.3	5163
3590.986	5067
3592.671	5081
3594.357	5137
3596.042	5095
3597.726	5188
3599.41	5159
3601.094	5103
3602.778	5017
3604.461	5069
3606.143	5074
3607.825	5135
3609.507	5108
3611.188	5134
3612.87	4932
3614.551	5092
3616.229	5020
3617.909	5003
3619.589	5029
3621.269	5001
3622.948	5014
3624.625	4962
3626.302	5091
3627.98	5041
3629.657	5018
3631.334	5000
3633.01	4995
3634.686	4935
3636.361	4949
3638.036	4917
3639.712	4883
3641.385	4999
3643.06	4962
3644.732	4906
3646.405	4878
3648.08	4993
3649.751	4841
3651.424	4853
3653.094	4873
3654.766	4859
3656.436	4850
3658.106	4905
3659.777	4873
3661.446	4836
3663.115	4826
3664.783	4853
3666.452	4835
3668.121	4805
3669.788	4853
3671.454	4848
3673.121	4736
3674.789	4865
3676.455	4784
3678.12	4868
3679.784	4805
3681.45	4796
3683.114	4825
3684.779	4806
3686.442	4862
3688.105	4734
3689.768	4783
3691.43	4835
3693.093	4762
3694.754	4835
3696.415	4736
3698.076	4808
3699.736	4771
3701.396	4719
3703.057	4769
3704.716	4782
3706.375	4744
3708.034	4813
3709.692	4775
3711.351	4706
3713.008	4705
3714.665	4781
3716.321	4691
3717.977	4721
3719.634	4693
3721.29	4694
3722.945	4690
3724.598	4708
3726.253	4638
3727.907	4732
3729.561	4699
3731.214	4709
3732.867	4691
3734.518	4723
3736.171	4481
3737.824	4647
3739.474	4628
3741.125	4681
3742.775	4554
3744.425	4618
3746.074	4637
3747.725	4624
3749.373	4609
3751.022	4515
3752.669	4637
3754.318	4637
3755.966	4578
3757.612	4626
3759.259	4625
3760.905	4537
3762.55	4520
3764.197	4554
3765.842	4531
3767.486	4530
3769.131	4554
3770.774	4516
3772.417	4526
3774.061	4637
3775.705	4539
3777.347	4629
3778.988	4573
3780.629	4455
3782.271	4480
3783.912	4470
3785.552	4464
3787.192	4553
3788.831	4501
3790.472	4458
3792.112	4550
3793.75	4434
3795.388	4517
3797.024	4436
3798.661	4523
3800.3	4473
3801.936	4335
3803.572	4480
3805.208	4509
3806.844	4369
3808.48	4454
3810.115	4362
3811.748	4478
3813.382	4426
3815.016	4502
3816.649	4416
3818.283	4365
3819.914	4494
3821.547	4340
3823.178	4349
3824.809	4379
3826.441	4410
3828.072	4427
3829.701	4426
3831.331	4374
3832.96	4367
3834.591	4323
3836.219	4434
3837.847	4353
3839.475	4356
3841.102	4300
3842.729	4316
3844.357	4385
3845.984	4362
3847.609	4375
3849.234	4290
3850.86	4319
3852.485	4281
3854.11	4332
3855.734	4264
3857.357	4255
3858.981	4355
3860.603	4279
3862.227	4328
3863.848	4228
3865.471	4379
3867.092	4246
3868.713	4334
3870.334	4406
3871.954	4295
3873.575	4292
3875.194	4300
3876.813	4265
3878.433	4295
3880.051	4305
3881.669	4225
3883.286	4347
3884.904	4242
3886.52	4226
3888.138	4292
3889.754	4212
3891.37	4197
3892.985	4259
3894.6	4215
3896.216	4239
3897.831	4126
3899.444	4243
3901.058	4208
3902.67	4169
3904.283	4166
3905.897	4206
3907.509	4189
3909.121	4169
3910.731	4152
3912.342	4177
3913.954	4286
3915.563	4281
3917.174	4116
3918.783	4172
3920.391	4154
3922.002	4251
3923.611	4203
3925.218	4183
3926.826	4177
3928.432	4131
3930.039	4123
3931.647	4143
3933.253	4155
3934.859	4025
3936.464	4174
3938.068	4164
3939.675	4247
3941.278	4216
3942.883	4084
3944.486	4122
3946.089	4112
3947.692	4181
3949.295	4183
3950.898	4138
3952.499	4011
3954.1	4092
3955.7	4115
3957.303	4041
3958.903	4028
3960.502	4139
3962.101	4098
3963.7	4003
3965.301	4085
3966.899	4041
3968.497	3978
3970.094	4105
3971.691	4098
3973.288	3981
3974.885	3978
3976.481	4042
3978.077	4002
3979.672	4085
3981.267	4011
3982.863	4070
3984.457	4077
3986.051	3989
3987.645	4078
3989.238	4045
3990.831	3922
3992.425	3954
3994.017	4027
3995.607	4001
3997.199	3926
3998.79	3920
4000.382	3900
4001.973	3988
4003.561	3993
4005.151	3855
4006.741	3972
4008.331	3903
4009.918	3959
4011.507	3994
4013.095	3916
4014.681	3855
4016.269	3924
4017.856	3863
4019.443	3822
4021.028	3880
4022.614	3902
4024.199	3875
4025.785	3852
4027.37	3929
4028.953	3887
4030.536	3736
4032.12	3837
4033.704	3896
4035.287	3810
4036.869	3856
4038.45	3848
4040.032	3815
4041.613	3844
4043.195	3769
4044.776	3777
4046.356	3828
4047.935	3828
4049.515	3868
4051.095	3773
4052.674	3813
4054.251	3854
4055.829	3749
4057.406	3806
4058.985	3817
4060.562	3769
4062.139	3821
4063.715	3687
4065.29	3805
4066.865	3748
4068.442	3690
4070.016	3745
4071.59	3866
4073.164	3797
4074.738	3697
4076.312	3745
4077.885	3822
4079.458	3724
4081.03	3702
4082.602	3803
4084.173	3739
4085.745	3642
4087.315	3632
4088.886	3658
4090.456	3740
4092.026	3678
4093.596	3744
4095.165	3717
4096.734	3758
4098.301	3723
4099.869	3779
4101.437	3613
4103.006	3625
4104.572	3669
4106.139	3681
4107.704	3631
4109.27	3626
4110.837	3709
4112.401	3697
4113.966	3695
4115.53	3586
4117.094	3643
4118.659	3607
4120.223	3655
4121.785	3563
4123.347	3698
4124.909	3601
4126.471	3533
4128.034	3524
4129.595	3590
4131.155	3517
4132.716	3542
4134.275	3523
4135.836	3557
4137.395	3595
4138.955	3611
4140.513	3596
4142.071	3583
4143.628	3592
4145.188	3549
4146.745	3560
4148.302	3560
4149.858	3515
4151.414	3602
4152.971	3534
4154.526	3511
4156.081	3549
4157.635	3596
4159.189	3573
4160.745	3451
4162.298	3476
4163.852	3485
4165.405	3516
4166.957	3477
4168.51	3432
4170.063	3480
4171.614	3496
4173.166	3461
4174.717	3479
4176.267	3518
4177.817	3506
4179.368	3414
4180.917	3433
4182.466	3449
4184.016	3464
4185.564	3430
4187.112	3395
4188.66	3432
4190.207	3369
4191.754	3396
4193.301	3452
4194.848	3477
4196.394	3426
4197.94	3397
4199.484	3426
4201.03	3391
4202.575	3379
4204.12	3406
4205.663	3401
4207.207	3379
4208.75	3281
4210.292	3456
4211.836	3399
4213.378	3358
4214.92	3351
4216.46	3388
4218.002	3329
4219.544	3314
4221.083	3330
4222.625	3396
4224.164	3424
4225.703	3332
4227.244	3391
4228.782	3399
4230.32	3325
4231.857	3382
4233.395	3316
4234.933	3337
4236.471	3259
4238.007	3416
4239.542	3303
4241.078	3277
4242.614	3330
4244.15	3307
4245.685	3259
4247.219	3327
4248.753	3279
4250.287	3302
4251.82	3239
4253.354	3293
4254.887	3262
4256.419	3261
4257.951	3311
4259.483	3301
4261.016	3261
4262.547	3345
4264.078	3295
4265.608	3277
4267.137	3280
4268.668	3235
4270.197	3302
4271.727	3306
4273.254	3261
4274.783	3332
4276.311	3265
4277.84	3299
4279.366	3218
4280.894	3234
4282.42	3147
4283.946	3220
4285.473	3221
4286.998	3285
4288.523	3272
4290.047	3133
4291.572	3196
4293.096	3282
4294.622	3238
4296.144	3202
4297.668	3251
4299.19	3160
4300.713	3198
4302.236	3177
4303.758	3183
4305.279	3164
4306.799	3163
4308.321	3206
4309.842	3186
4311.361	3119
4312.882	3150
4314.401	3114
