400.0961	4665
402.6185	4735
405.1424	4778
407.6635	4664
410.1838	4750
412.7035	4744
415.2225	4757
417.7388	4747
420.2585	4743
422.7754	4871
425.2917	4862
427.8072	4937
430.3221	5015
432.8363	4957
435.3498	4961
437.8626	5024
440.3727	4993
442.8841	4986
445.3969	4996
447.907	5083
450.4142	4949
452.9229	4999
455.4289	4974
457.9362	4924
460.4449	4916
462.9488	5066
465.454	4983
467.9566	4923
470.4604	4930
472.9637	5104
475.4662	4997
477.966	4993
480.4671	4969
482.9656	5034
485.4633	5093
487.9645	5068
490.4608	5104
492.9566	5034
495.4536	5131
497.948	5179
500.4437	5153
502.9387	5179
505.431	5111
507.9226	5100
510.4136	5138
512.9079	5082
515.3975	5103
517.8864	5249
520.3746	5156
522.8622	5112
525.3491	5175
527.8394	5350
530.3249	5147
532.8098	5247
535.2939	5251
537.7774	5192
540.2623	5204
542.7444	5262
545.2259	5217
547.7067	5210
550.1868	5215
552.6683	5083
555.147	5353
557.6231	5262
560.1005	5250
562.5773	5192
565.0534	5206
567.5308	5281
570.0056	5319
572.4776	5278
574.951	5345
577.4237	5299
579.8978	5477
582.3671	5417
584.8378	5382
587.3079	5438
589.7773	5472
592.244	5341
594.714	5416
597.1793	5439
599.6461	5378
602.1121	5292
604.5754	5438
607.0421	5449
609.5042	5413
611.9675	5401
614.4282	5449
616.8902	5502
619.3515	5407
621.8122	5365
624.2702	5444
626.7296	5441
629.1863	5355
631.6423	5409
634.1017	5314
636.5563	5362
639.0104	5437
641.4658	5413
643.9185	5326
646.3725	5432
648.8239	5487
651.2766	5401
653.7266	5505
656.176	5445
658.6247	5454
661.0748	5502
663.5242	5578
665.9709	5572
668.417	5497
670.8624	5616
673.3092	5534
675.7533	5513
678.1968	5563
680.6395	5568
683.0817	5651
685.5251	5560
687.9659	5633
690.4061	5696
692.8456	5576
695.2844	5631
697.7226	5699
700.1621	5539
702.599	5659
705.0332	5647
707.4688	5750
709.9036	5579
712.3399	5722
714.7735	5728
717.2044	5759
719.6367	5794
722.0683	5806
724.4993	5753
726.9296	5853
729.3593	5823
731.7883	5778
734.2147	5712
736.6423	5854
739.0714	5813
741.4958	5857
743.9216	5918
746.3447	5908
748.7691	5880
751.1929	5959
753.616	5790
756.0366	5957
758.4584	5940
760.8776	5961
763.2982	5898
765.718	6046
768.1373	6027
770.5539	5963
772.9698	5911
775.3871	6041
777.8038	6055
780.2178	6003
782.6332	6009
785.0459	6012
787.458	5976
789.8714	5993
792.2842	6036
794.6943	6067
797.1038	5965
799.5127	6013
801.9209	6042
804.3324	5999
806.7393	6057
809.1456	6038
811.5513	6076
813.9562	6113
816.3625	6167
818.7663	6167
821.1693	6176
823.5718	6165
825.9735	6135
828.3746	6227
830.7771	6076
833.177	6226
835.5762	6060
837.9747	6198
840.3727	6059
842.772	6216
845.1666	6213
847.5626	6155
849.958	6310
852.3527	6397
854.7488	6312
857.1403	6355
859.5331	6251
861.9253	6307
864.3168	6311
866.7057	6401
869.098	6270
871.4876	6250
873.8746	6212
876.263	6247
878.6487	6245
881.0378	6353
883.4243	6270
885.8081	6219
888.1933	6263
890.5759	6226
892.9598	6179
895.343	6282
897.7256	6286
900.1057	6310
902.4871	6214
904.8659	6234
907.246	6311
909.6254	6230
912.0023	6367
914.3786	6532
916.7562	6534
919.1331	6733
921.5074	6743
923.8831	6770
926.2562	6685
928.6287	6802
931.0005	6664
933.3757	6636
935.7462	6671
938.1162	6671
940.4855	6530
942.8542	6626
945.2242	6706
947.5916	6772
949.9584	6870
952.3266	6895
954.6921	7107
957.0571	7211
959.4233	7465
961.787	7593
964.15	7490
966.5125	7454
968.8742	7105
971.2354	7141
973.5959	6871
975.9559	6746
978.3151	6613
980.6738	6628
983.0338	6612
985.3912	6638
987.7461	6547
990.1022	6485
992.4578	6484
994.8127	6494
997.1689	6562
999.5207	6537
1001.874	6627
1004.226	6546
1006.576	6477
1008.929	6546
1011.28	6512
1013.628	6460
1015.977	6510
1018.324	6523
1020.674	6455
1023.019	6529
1025.366	6531
1027.713	6559
1030.056	6633
1032.399	6628
1034.746	6614
1037.087	6500
1039.431	6442
1041.771	6438
1044.113	6623
1046.454	6582
1048.793	6654
1051.133	6578
1053.471	6483
1055.807	6501
1058.146	6708
1060.483	6663
1062.818	6642
1065.153	6594
1067.489	6686
1069.822	6686
1072.156	6679
1074.488	6684
1076.82	6641
1079.15	6703
1081.48	6562
1083.814	6643
1086.143	6605
1088.471	6569
1090.799	6590
1093.126	6723
1095.452	6674
1097.78	6713
1100.105	6546
1102.43	6646
1104.754	6660
1107.077	6723
1109.4	6646
1111.722	6675
1114.044	6724
1116.365	6605
1118.685	6693
1121.005	6660
1123.324	6774
1125.643	6755
1127.961	6748
1130.278	6650
1132.595	6640
1134.911	6732
1137.226	6711
1139.541	6592
1141.854	6554
1144.167	6650
1146.482	6662
1148.793	6711
1151.105	6693
1153.414	6730
1155.725	6710
1158.033	6758
1160.344	6746
1162.651	6780
1164.959	6738
1167.265	6704
1169.572	6716
1171.878	6740
1174.184	6701
1176.488	6729
1178.79	6798
1181.094	6914
1183.396	6842
1185.699	6758
1188.001	6759
1190.301	6734
1192.6	6737
1194.9	6676
1197.2	6707
1199.497	6630
1201.794	6684
1204.09	6762
1206.387	6801
1208.684	6797
1210.978	6698
1213.272	6679
1215.565	6642
1217.858	6553
1220.15	6795
1222.443	6628
1224.734	6751
1227.024	6950
1229.313	6906
1231.602	6853
1233.892	6777
1236.18	6902
1238.467	6892
1240.754	6890
1243.04	7056
1245.325	6978
1247.612	7018
1249.896	7081
1252.178	6975
1254.461	6990
1256.743	7002
1259.027	7016
1261.308	7096
1263.587	7068
1265.867	7063
1268.146	7039
1270.425	7105
1272.703	7145
1274.981	7130
1277.256	6933
1279.532	6970
1281.808	7001
1284.083	6925
1286.358	6987
1288.63	7067
1290.904	6931
1293.175	6940
1295.449	6975
1297.719	6897
1299.99	6866
1302.259	6903
1304.529	6837
1306.798	7011
1309.065	6922
1311.333	6985
1313.599	7070
1315.866	6909
1318.131	7009
1320.396	6947
1322.66	6894
1324.925	6994
1327.187	6909
1329.448	7021
1331.711	7187
1333.974	7160
1336.234	6889
1338.493	7038
1340.752	6869
1343.01	6952
1345.269	6891
1347.526	6881
1349.784	6847
1352.04	6807
1354.295	6846
1356.552	6856
1358.806	6902
1361.059	6948
1363.312	6919
1365.564	6926
1367.818	7038
1370.069	7042
1372.318	6954
1374.568	6941
1376.817	6978
1379.066	6910
1381.316	6986
1383.564	6895
1385.809	7046
1388.056	6978
1390.301	7041
1392.549	7158
1394.793	7259
1397.036	7177
1399.279	7203
1401.522	7392
1403.763	7238
1406.007	7357
1408.248	7271
1410.487	7403
1412.727	7382
1414.965	7351
1417.205	7139
1419.442	7179
1421.68	7240
1423.915	7206
1426.152	7250
1428.388	7148
1430.623	7073
1432.857	7296
1435.091	7328
1437.323	7296
1439.556	7319
1441.789	7367
1444.019	7439
1446.25	7352
1448.48	7275
1450.708	7200
1452.938	7265
1455.167	7530
1457.394	7506
1459.62	7414
1461.846	7397
1464.073	7232
1466.299	7145
1468.523	7129
1470.746	7220
1472.969	7205
1475.191	7142
1477.415	7158
1479.636	7053
1481.858	7035
1484.078	7093
1486.298	6951
1488.518	6987
1490.736	6884
1492.954	7090
1495.169	6908
1497.386	6951
1499.602	6989
1501.819	6861
1504.034	6885
1506.248	6887
1508.462	6869
1510.675	6882
1512.888	6891
1515.1	7009
1517.311	6888
1519.522	6929
1521.732	6870
1523.942	6876
1526.151	6877
1528.36	6813
1530.566	6712
1532.773	6962
1534.98	6940
1537.187	6967
1539.392	6966
1541.596	6954
1543.801	6937
1546.005	6959
1548.208	6893
1550.411	6962
1552.612	7092
1554.814	6945
1557.013	6997
1559.212	7075
1561.414	7086
1563.612	7032
1565.811	7095
1568.007	7120
1570.203	7173
1572.403	7051
1574.598	7051
1576.792	7055
1578.988	7149
1581.181	7191
1583.376	7076
1585.568	7196
1587.761	7168
1589.952	7139
1592.143	7102
1594.333	7153
1596.524	7191
1598.715	7265
1600.903	7168
1603.091	7080
1605.278	7167
1607.466	7138
1609.652	7145
1611.838	7119
1614.023	7253
1616.207	7164
1618.391	7133
1620.576	7236
1622.759	7278
1624.941	7149
1627.123	7212
1629.304	7168
1631.484	7319
1633.664	7332
1635.844	7182
1638.022	7269
1640.201	7261
1642.38	7232
1644.556	7267
1646.732	7362
1648.908	7276
1651.084	7355
1653.257	7372
1655.433	7290
1657.607	7293
1659.779	7322
1661.951	7275
1664.122	7348
1666.295	7367
1668.467	7315
1670.635	7241
1672.805	7324
1674.973	7399
1677.142	7324
1679.31	7307
1681.478	7323
1683.644	7354
1685.81	7231
1687.975	7304
1690.142	7206
1692.305	7242
1694.468	7226
1696.632	7110
1698.794	7274
1700.957	7035
1703.119	7175
1705.279	7161
1707.439	7092
1709.598	7158
1711.758	7097
1713.917	7185
1716.075	7160
1718.231	7096
1720.388	7204
1722.543	7102
1724.702	7293
1726.856	7134
1729.01	7202
1731.164	7116
1733.317	7237
1735.471	7161
1737.623	7068
1739.774	7086
1741.925	7107
1744.075	7211
1746.225	7303
1748.376	7082
1750.524	7145
1752.672	7059
1754.82	7159
1756.965	7112
1759.113	7129
1761.259	7036
1763.405	7062
1765.549	7177
1767.694	7229
1769.836	7152
1771.981	7064
1774.123	7134
1776.264	7183
1778.405	7188
1780.546	7221
1782.687	7242
1784.827	7246
1786.966	7293
1789.103	7197
1791.242	7201
1793.381	7218
1795.517	7174
1797.653	7187
1799.788	7231
1801.923	7291
1804.057	7315
1806.193	7143
1808.326	7187
1810.457	7236
1812.59	7184
1814.721	7225
1816.855	7070
1818.984	7251
1821.113	7191
1823.244	7092
1825.372	7134
1827.499	7202
1829.63	7258
1831.756	7098
1833.882	7093
1836.007	7238
1838.132	7108
1840.26	7120
1842.384	7041
1844.507	7144
1846.63	7285
1848.752	7103
1850.875	7220
1852.996	7060
1855.118	7126
1857.238	7127
1859.358	7136
1861.477	7049
1863.597	7243
1865.715	7054
1867.832	7088
1869.948	7127
1872.064	7205
1874.181	7077
1876.297	7177
1878.411	7091
1880.526	7189
1882.639	7139
1884.752	7092
1886.865	7053
1888.977	7088
1891.089	7173
1893.2	7053
1895.308	7128
1897.42	7306
1899.53	7078
1901.639	7128
1903.745	7121
1905.853	7180
1907.962	7269
1910.067	7167
1912.174	7246
1914.278	7132
1916.383	7167
1918.486	7204
1920.592	7288
1922.694	7244
1924.797	7175
1926.898	7290
1929	7279
1931.102	7163
1933.203	7262
1935.301	7308
1937.401	7226
1939.499	7211
1941.598	7218
1943.697	7273
1945.793	7124
1947.888	7316
1949.985	7245
1952.08	7297
1954.176	7198
1956.269	7126
1958.364	7279
1960.457	7259
1962.549	7208
1964.642	7154
1966.733	7128
1968.823	7202
1970.913	7193
1973.005	7239
1975.093	7189
1977.184	7127
1979.271	7261
1981.359	7204
1983.446	7222
1985.532	7310
1987.619	7158
1989.705	7224
1991.789	7165
1993.874	7058
1995.956	7277
1998.041	7132
2000.123	7107
2002.206	7207
2004.287	7107
2006.368	7062
2008.449	7155
2010.529	7277
2012.609	7112
2014.688	7119
2016.766	7068
2018.843	7162
2020.922	7171
2022.999	7230
2025.074	7114
2027.15	7181
2029.225	7204
2031.299	7237
2033.375	7094
2035.447	7096
2037.52	7193
2039.592	7095
2041.664	7113
2043.736	7196
2045.807	7141
2047.876	7126
2049.947	7159
2052.015	7206
2054.086	7215
2056.153	7192
2058.221	7060
2060.288	7174
2062.353	7189
2064.42	7282
2066.486	7242
2068.55	7109
2070.614	7208
2072.678	7224
2074.741	7071
2076.805	7156
2078.866	7057
2080.929	7092
2082.99	7085
2085.049	7305
2087.109	7201
2089.17	7143
2091.228	7192
2093.286	7065
2095.344	7181
2097.4	7098
2099.46	7206
2101.516	7157
2103.572	7216
2105.626	7151
2107.679	7002
2109.735	7132
2111.788	7246
2113.841	7159
2115.894	7177
2117.945	7185
2119.997	7249
2122.049	7097
2124.1	7126
2126.148	6958
2128.197	7164
2130.246	7109
2132.296	7079
2134.342	7205
2136.39	7162
2138.437	7165
2140.483	7050
2142.527	7078
2144.574	7146
2146.619	7045
2148.661	7204
2150.705	7145
2152.747	7078
2154.792	7053
2156.832	7080
2158.874	7124
2160.915	6988
2162.954	7104
2164.995	7056
2167.034	7056
2169.072	6972
2171.111	7119
2173.148	7025
2175.186	7098
2177.223	7004
2179.258	7033
2181.294	7055
2183.328	6959
2185.362	6961
2187.398	6959
2189.431	6932
2191.463	6984
2193.495	6941
2195.528	6963
2197.56	6921
2199.59	6944
2201.62	6958
2203.649	6960
2205.678	6964
2207.708	6943
2209.737	6871
2211.764	6991
2213.791	6946
2215.817	6904
2217.843	6875
2219.87	6944
2221.895	6869
2223.919	6943
2225.942	7008
2227.966	7008
2229.988	6981
2232.012	6936
2234.032	6872
2236.054	6941
2238.074	6869
2240.095	6854
2242.116	6907
2244.135	7034
2246.153	6935
2248.171	6793
2250.188	6948
2252.208	6808
2254.223	6861
2256.239	6961
2258.255	6882
2260.269	6898
2262.283	6892
2264.3	6942
2266.312	6916
2268.325	7004
2270.336	6923
2272.349	6849
2274.362	6959
2276.372	6837
2278.383	7037
2280.392	6892
2282.402	6840
2284.409	6818
2286.418	6945
2288.427	7046
2290.433	6965
2292.441	6851
2294.446	6863
2296.453	6871
2298.459	6902
2300.463	6843
2302.466	6861
2304.471	6815
2306.475	6927
2308.477	6790
2310.478	6813
2312.481	6817
2314.481	6897
2316.481	6759
2318.482	6889
2320.482	6895
2322.48	6884
2324.48	6781
2326.478	6762
2328.476	6790
2330.473	6817
2332.469	6763
2334.465	6743
2336.46	6840
2338.454	6786
2340.45	6833
2342.444	6790
2344.437	6723
2346.43	6736
2348.421	6795
2350.414	6832
2352.405	6789
2354.396	6788
2356.386	6730
2358.376	6734
2360.366	6866
2362.355	6933
2364.343	6732
2366.331	6683
2368.317	6723
2370.304	6709
2372.292	6809
2374.278	6811
2376.262	6713
2378.247	6591
2380.23	6751
2382.216	6742
2384.199	6750
2386.181	6760
2388.163	6704
2390.144	6629
2392.127	6705
2394.107	6653
2396.087	6661
2398.066	6686
2400.046	6698
2402.023	6631
2404.004	6646
2405.981	6624
2407.957	6749
2409.934	6632
2411.91	6672
2413.886	6673
2415.862	6681
2417.836	6634
2419.809	6633
2421.784	6761
2423.756	6664
2425.73	6604
2427.701	6542
2429.672	6762
2431.644	6739
2433.615	6577
2435.586	6680
2437.555	6636
2439.523	6622
2441.491	6671
2443.459	6508
2445.428	6614
2447.395	6673
2449.361	6737
2451.327	6505
2453.292	6492
2455.257	6539
2457.223	6502
2459.187	6607
2461.15	6615
2463.113	6641
2465.076	6608
2467.039	6613
2468.999	6635
2470.96	6588
2472.921	6593
2474.881	6529
2476.841	6436
2478.8	6524
2480.759	6580
2482.717	6470
2484.675	6586
2486.63	6456
2488.589	6487
2490.545	6510
2492.5	6536
2494.455	6640
2496.408	6493
2498.364	6520
2500.318	6408
2502.27	6537
2504.223	6476
2506.174	6528
2508.126	6442
2510.078	6473
2512.03	6514
2513.979	6496
2515.927	6509
2517.877	6530
2519.826	6535
2521.775	6533
2523.722	6466
2525.668	6517
2527.616	6396
2529.561	6456
2531.508	6435
2533.452	6385
2535.398	6519
2537.342	6424
2539.284	6474
2541.229	6486
2543.173	6393
2545.114	6534
2547.055	6422
2548.996	6485
2550.938	6475
2552.878	6365
2554.817	6438
2556.756	6452
2558.695	6526
2560.633	6478
2562.572	6408
2564.509	6593
2566.445	6452
2568.382	6416
2570.317	6497
2572.254	6490
2574.189	6555
2576.123	6413
2578.057	6450
2579.99	6388
2581.923	6349
2583.855	6459
2585.788	6482
2587.719	6430
2589.65	6417
2591.579	6381
2593.511	6394
2595.44	6388
2597.37	6442
2599.297	6479
2601.225	6408
2603.153	6413
2605.08	6445
2607.007	6438
2608.932	6345
2610.858	6466
2612.782	6374
2614.709	6575
2616.632	6527
2618.556	6439
2620.478	6613
2622.401	6543
2624.324	6598
2626.247	6336
2628.167	6449
2630.088	6373
2632.008	6479
2633.928	6373
2635.848	6559
2637.766	6555
2639.684	6506
2641.603	6529
2643.519	6391
2645.437	6491
2647.353	6411
2649.27	6432
2651.184	6470
2653.099	6477
2655.014	6419
2656.928	6374
2658.842	6497
2660.755	6562
2662.667	6396
2664.579	6507
2666.491	6438
2668.402	6416
2670.312	6453
2672.222	6349
2674.132	6371
2676.042	6372
2677.951	6350
2679.859	6358
2681.766	6447
2683.674	6326
2685.582	6353
2687.488	6375
2689.392	6490
2691.298	6320
2693.202	6338
2695.107	6389
2697.012	6397
2698.914	6407
2700.817	6334
2702.72	6296
2704.622	6329
2706.524	6225
2708.425	6229
2710.326	6291
2712.225	6284
2714.125	6240
2716.024	6324
2717.923	6251
2719.822	6289
2721.719	6370
2723.616	6311
2725.512	6343
2727.41	6287
2729.305	6317
2731.201	6161
2733.095	6193
2734.99	6322
2736.884	6373
2738.778	6270
2740.67	6210
2742.562	6259
2744.455	6319
2746.346	6202
2748.238	6347
2750.129	6239
2752.018	6284
2753.907	6242
2755.797	6200
2757.687	6310
2759.575	6194
2761.462	6175
2763.349	6241
2765.237	6186
2767.124	6217
2769.009	6334
2770.894	6210
2772.779	6256
2774.663	6143
2776.547	6256
2778.431	6215
2780.314	6390
2782.197	6260
2784.078	6349
2785.96	6191
2787.842	6332
2789.723	6211
2791.603	6317
2793.483	6122
2795.362	6225
2797.241	6168
2799.121	6267
2800.997	6239
2802.874	6291
2804.751	6255
2806.628	6168
2808.506	6206
2810.38	6277
2812.255	6120
2814.13	6229
2816.003	6243
2817.878	6219
2819.752	6208
2821.623	6275
2823.496	6239
2825.368	6137
2827.238	6203
2829.111	6153
2830.98	6211
2832.851	6236
2834.719	6302
2836.589	6189
2838.458	6174
2840.327	6243
2842.193	6209
2844.061	6188
2845.927	6174
2847.794	6132
2849.66	6234
2851.525	6266
2853.39	6223
2855.254	6323
2857.117	6316
2858.983	6319
2860.845	6403
2862.707	6298
2864.569	6440
2866.431	6396
2868.293	6480
2870.154	6586
2872.013	6548
2873.873	6570
2875.733	6648
2877.592	6724
2879.451	6706
2881.309	6676
2883.166	6817
2885.022	6771
2886.879	6917
2888.736	6854
2890.591	7026
2892.446	6940
2894.301	6929
2896.155	6958
2898.009	6864
2899.863	6904
2901.716	6877
2903.568	6974
2905.419	6840
2907.27	6838
2909.123	6998
2910.973	6874
2912.824	7031
2914.673	6964
2916.521	7111
2918.372	7024
2920.22	7118
2922.067	7086
2923.914	7150
2925.761	7262
2927.607	7296
2929.455	7319
2931.301	7353
2933.144	7435
2934.99	7399
2936.833	7530
2938.678	7483
2940.522	7504
2942.364	7641
2944.207	7807
2946.048	7911
2947.891	7997
2949.731	7878
2951.571	7954
2953.412	8012
2955.25	7963
2957.09	7878
2958.93	7917
2960.767	7734
2962.606	7641
2964.443	7589
2966.279	7606
2968.116	7357
2969.953	7202
2971.788	7219
2973.623	7087
2975.457	6918
2977.292	6937
2979.127	6932
2980.959	6948
2982.792	6734
2984.624	6767
2986.455	6842
2988.288	6777
2990.119	6707
2991.949	6686
2993.779	6684
2995.608	6674
2997.439	6606
2999.268	6504
3001.096	6447
3002.923	6405
3004.751	6347
3006.578	6309
3008.406	6228
3010.232	6103
3012.057	6211
3013.883	6133
3015.706	6194
3017.532	6077
3019.356	6033
3021.179	5975
3023.002	6092
3024.823	6005
3026.646	5984
3028.469	5839
3030.289	6036
3032.11	5849
3033.93	5956
3035.749	5950
3037.57	5842
3039.39	5844
3041.207	5828
3043.026	5880
3044.842	5864
3046.661	5834
3048.477	5799
3050.294	5851
3052.109	5869
3053.925	5886
3055.739	5796
3057.555	5756
3059.368	5889
3061.181	5970
3062.995	5900
3064.807	5730
3066.62	5726
3068.433	5763
3070.243	5850
3072.054	5852
3073.865	5811
3075.675	5806
3077.485	5735
3079.293	5694
3081.102	5738
3082.911	5666
3084.719	5724
3086.527	5728
3088.333	5655
3090.139	5768
3091.945	5594
3093.75	5673
3095.557	5669
3097.361	5593
3099.165	5697
3100.969	5672
3102.772	5592
3104.575	5616
3106.379	5777
3108.181	5618
3109.982	5650
3111.783	5609
3113.584	5622
3115.386	5588
3117.186	5551
3118.985	5535
3120.783	5512
3122.582	5525
3124.381	5557
3126.179	5583
3127.975	5575
3129.772	5550
3131.569	5609
3133.365	5547
3135.161	5558
3136.956	5497
3138.751	5529
3140.544	5524
3142.338	5471
3144.132	5461
3145.925	5424
3147.717	5508
3149.509	5507
3151.301	5463
3153.091	5479
3154.884	5539
3156.673	5443
3158.462	5409
3160.252	5378
3162.041	5391
3163.831	5504
3165.618	5510
3167.405	5498
3169.193	5525
3170.979	5409
3172.767	5368
3174.553	5492
3176.338	5483
3178.123	5421
3179.907	5413
3181.692	5411
3183.477	5401
3185.259	5506
3187.042	5365
3188.824	5420
3190.607	5394
3192.389	5466
3194.17	5361
3195.951	5479
3197.73	5468
3199.51	5496
3201.289	5386
3203.07	5397
3204.848	5331
3206.626	5426
3208.403	5350
3210.18	5353
3211.959	5351
3213.735	5424
3215.511	5325
3217.285	5377
3219.06	5323
3220.836	5383
3222.611	5319
3224.384	5351
3226.158	5324
3227.929	5405
3229.702	5358
3231.476	5394
3233.248	5306
3235.018	5471
3236.789	5352
3238.56	5358
3240.33	5378
3242.1	5484
3243.869	5433
3245.637	5346
3247.405	5363
3249.172	5441
3250.941	5276
3252.707	5323
3254.474	5305
3256.24	5431
3258.006	5312
3259.772	5362
3261.537	5348
3263.301	5373
3265.065	5311
3266.828	5309
3268.592	5371
3270.355	5325
3272.117	5306
3273.878	5371
3275.64	5349
3277.401	5386
3279.162	5354
3280.922	5261
3282.682	5328
3284.441	5361
3286.199	5357
3287.959	5325
3289.716	5265
3291.475	5423
3293.232	5343
3294.988	5288
3296.744	5445
3298.501	5319
3300.256	5266
3302.011	5288
3303.766	5268
3305.52	5344
3307.275	5314
3309.028	5287
3310.781	5250
3312.533	5332
3314.285	5207
3316.038	5289
3317.789	5268
3319.54	5329
3321.289	5188
3323.039	5328
3324.789	5242
3326.539	5308
3328.288	5263
3330.035	5318
3331.783	5265
3333.531	5357
3335.28	5300
3337.025	5208
3338.771	5240
3340.518	5212
3342.262	5214
3344.009	5116
3345.753	5192
3347.497	5202
3349.24	5245
3350.983	5285
3352.726	5215
3354.469	5221
3356.212	5305
3357.952	5297
3359.694	5218
3361.434	5221
3363.176	5167
3364.916	5224
3366.654	5162
3368.394	5203
3370.132	5073
3371.871	5083
3373.61	5156
3375.346	5173
3377.083	5132
3378.82	5116
3380.556	5103
3382.292	5048
3384.027	5147
3385.763	5026
3387.497	5108
3389.231	5080
3390.965	5074
3392.698	5075
3394.431	5091
3396.164	5124
3397.896	5110
3399.627	4998
3401.36	5086
3403.09	5068
3404.82	4986
3406.55	5043
3408.279	4969
3410.01	5050
3411.738	5012
3413.467	5054
3415.194	4937
3416.92	5011
3418.647	5027
3420.375	4993
3422.102	4985
3423.827	5094
3425.553	4896
3427.277	4992
3429.003	4911
3430.727	5082
3432.451	5006
3434.173	5032
3435.896	4863
3437.62	4940
3439.343	4920
3441.063	4937
3442.785	4956
3444.505	4946
3446.226	4934
3447.948	4896
3449.666	4912
3451.386	4933
3453.104	4818
3454.823	4864
3456.541	4912
3458.259	4792
3459.976	4855
3461.693	4881
3463.408	4899
3465.125	4848
3466.841	4838
3468.556	4846
3470.271	4879
3471.985	4700
3473.698	4783
3475.414	4813
3477.126	4806
3478.838	4807
3480.55	4824
3482.263	4756
3483.975	4720
3485.686	4658
3487.396	4653
3489.106	4759
3490.817	4743
3492.526	4710
3494.236	4705
3495.944	4751
3497.652	4681
3499.359	4604
3501.066	4633
3502.775	4587
3504.481	4662
3506.187	4723
3507.893	4716
3509.598	4645
3511.304	4738
3513.009	4629
3514.713	4748
3516.417	4625
3518.12	4633
3519.821	4635
3521.525	4657
3523.228	4540
3524.929	4504
3526.631	4500
3528.33	4554
3530.032	4566
3531.733	4599
3533.433	4569
3535.131	4498
3536.83	4498
3538.529	4449
3540.227	4477
3541.925	4547
3543.623	4602
3545.319	4515
3547.016	4579
3548.712	4516
3550.408	4509
3552.103	4515
3553.798	4476
3555.491	4517
3557.188	4520
3558.88	4497
3560.574	4396
3562.266	4580
3563.959	4525
3565.651	4412
3567.343	4455
3569.035	4468
3570.725	4455
3572.415	4540
3574.106	4384
3575.797	4483
3577.485	4424
3579.174	4424
3580.863	4388
3582.551	4415
3584.238	4279
3585.926	4442
3587.613	4418
3589.3	4277
3590.986	4367
3592.671	4372
3594.357	4334
3596.042	4339
3597.726	4317
3599.41	4403
3601.094	4322
3602.778	4243
3604.461	4285
3606.143	4266
3607.825	4395
3609.507	4258
3611.188	4296
3612.87	4327
3614.551	4331
3616.229	4329
3617.909	4247
3619.589	4255
3621.269	4256
3622.948	4256
3624.625	4265
3626.302	4296
3627.98	4273
3629.657	4212
3631.334	4115
3633.01	4202
3634.686	4207
3636.361	4188
3638.036	4171
3639.712	4169
3641.385	4224
3643.06	4136
3644.732	4211
3646.405	4217
3648.08	4135
3649.751	4133
3651.424	4132
3653.094	4131
3654.766	4166
3656.436	4147
3658.106	4086
3659.777	4125
3661.446	4161
3663.115	4161
3664.783	4112
3666.452	4094
3668.121	4125
3669.788	4085
3671.454	4159
3673.121	4132
3674.789	4064
3676.455	4032
3678.12	4056
3679.784	4117
3681.45	4078
3683.114	4141
3684.779	4148
3686.442	4008
3688.105	4089
3689.768	4116
3691.43	3994
3693.093	3980
3694.754	4077
3696.415	4092
3698.076	4122
3699.736	4044
3701.396	3983
3703.057	4018
3704.716	4052
3706.375	3988
3708.034	3943
3709.692	3960
3711.351	4033
3713.008	3981
3714.665	4075
3716.321	3900
3717.977	4016
3719.634	3980
3721.29	3993
3722.945	3968
3724.598	4063
3726.253	3995
3727.907	4011
3729.561	3985
3731.214	3945
3732.867	3970
3734.518	3929
3736.171	3925
3737.824	4021
3739.474	3925
3741.125	3959
3742.775	3921
3744.425	3901
3746.074	3960
3747.725	3976
3749.373	3920
3751.022	3852
3752.669	3835
3754.318	3864
3755.966	3953
3757.612	3918
3759.259	3928
3760.905	3892
3762.55	3944
3764.197	3845
3765.842	3793
3767.486	3774
3769.131	3917
3770.774	3775
3772.417	3804
3774.061	3807
3775.705	3845
3777.347	3872
3778.988	3874
3780.629	3863
3782.271	3860
3783.912	3701
3785.552	3861
3787.192	3939
3788.831	3786
3790.472	3912
3792.112	3815
3793.75	3789
3795.388	3716
3797.024	3794
3798.661	3805
3800.3	3836
3801.936	3782
3803.572	3708
3805.208	3772
3806.844	3774
3808.48	3699
3810.115	3782
3811.748	3789
3813.382	3735
3815.016	3757
3816.649	3821
3818.283	3767
3819.914	3793
3821.547	3682
3823.178	3791
3824.809	3699
3826.441	3720
3828.072	3738
3829.701	3706
3831.331	3743
3832.96	3775
3834.591	3720
3836.219	3795
3837.847	3704
3839.475	3649
3841.102	3705
3842.729	3681
3844.357	3748
3845.984	3686
3847.609	3681
3849.234	3664
3850.86	3714
3852.485	3662
3854.11	3632
3855.734	3599
3857.357	3619
3858.981	3625
3860.603	3610
3862.227	3643
3863.848	3651
3865.471	3668
3867.092	3645
3868.713	3679
3870.334	3609
3871.954	3573
3873.575	3616
3875.194	3566
3876.813	3614
3878.433	3597
3880.051	3595
3881.669	3619
3883.286	3610
3884.904	3570
3886.52	3610
3888.138	3567
3889.754	3581
3891.37	3591
3892.985	3539
3894.6	3644
3896.216	3549
3897.831	3568
3899.444	3613
3901.058	3624
3902.67	3653
3904.283	3532
3905.897	3547
3907.509	3629
3909.121	3542
3910.731	3560
3912.342	3605
3913.954	3544
3915.563	3562
3917.174	3577
3918.783	3518
3920.391	3502
3922.002	3526
3923.611	3545
3925.218	3530
3926.826	3496
3928.432	3507
3930.039	3527
3931.647	3545
3933.253	3448
3934.859	3521
3936.464	3482
3938.068	3487
3939.675	3536
3941.278	3527
3942.883	3451
3944.486	3444
3946.089	3467
3947.692	3460
3949.295	3442
3950.898	3507
3952.499	3477
3954.1	3513
3955.7	3494
3957.303	3481
3958.903	3512
3960.502	3492
3962.101	3487
3963.7	3439
3965.301	3468
3966.899	3620
3968.497	3451
3970.094	3373
3971.691	3361
3973.288	3472
3974.885	3488
3976.481	3384
3978.077	3409
3979.672	3401
3981.267	3418
3982.863	3455
3984.457	3386
3986.051	3412
3987.645	3353
3989.238	3463
3990.831	3330
3992.425	3355
3994.017	3401
3995.607	3348
3997.199	3367
3998.79	3420
4000.382	3334
4001.973	3384
4003.561	3384
4005.151	3319
4006.741	3337
4008.331	3371
4009.918	3290
4011.507	3344
4013.095	3302
4014.681	3335
4016.269	3275
4017.856	3332
4019.443	3291
4021.028	3278
4022.614	3216
4024.199	3334
4025.785	3268
4027.37	3246
4028.953	3394
4030.536	3300
4032.12	3287
4033.704	3251
4035.287	3239
4036.869	3308
4038.45	3335
4040.032	3259
4041.613	3187
4043.195	3230
4044.776	3302
4046.356	3164
4047.935	3224
4049.515	3255
4051.095	3240
4052.674	3215
4054.251	3222
4055.829	3274
4057.406	3142
4058.985	3220
4060.562	3201
4062.139	3173
4063.715	3225
4065.29	3162
4066.865	3192
4068.442	3186
4070.016	3214
4071.59	3181
4073.164	3260
4074.738	3125
4076.312	3149
4077.885	3142
4079.458	3173
4081.03	3114
4082.602	3140
4084.173	3176
4085.745	3197
4087.315	3193
4088.886	3134
4090.456	3086
4092.026	3098
4093.596	3088
4095.165	3156
4096.734	3169
4098.301	3095
4099.869	3085
4101.437	3109
4103.006	3121
4104.572	3120
4106.139	3128
4107.704	3168
4109.27	3132
4110.837	3214
4112.401	3059
4113.966	3031
4115.53	3086
4117.094	3094
4118.659	3152
4120.223	3165
4121.785	3061
4123.347	3129
4124.909	3056
4126.471	3049
4128.034	3055
4129.595	3041
4131.155	3091
4132.716	3110
4134.275	3074
4135.836	3058
4137.395	3048
4138.955	3035
4140.513	2993
4142.071	3046
4143.628	2955
4145.188	2971
4146.745	2997
4148.302	3000
4149.858	3015
4151.414	3042
4152.971	3111
4154.526	2978
4156.081	2949
4157.635	2957
4159.189	3042
4160.745	3012
4162.298	2954
4163.852	2969
4165.405	2964
4166.957	2976
4168.51	2899
4170.063	2957
4171.614	2997
4173.166	2924
4174.717	2929
4176.267	2983
4177.817	3001
4179.368	2865
4180.917	2880
4182.466	2896
4184.016	3005
4185.564	2921
4187.112	2922
4188.66	2941
4190.207	2841
4191.754	2931
4193.301	2914
4194.848	2894
4196.394	2858
4197.94	2924
4199.484	2812
4201.03	2875
4202.575	2873
4204.12	2954
4205.663	2899
4207.207	2802
4208.75	2878
4210.292	2906
4211.836	2899
4213.378	2877
4214.92	2850
4216.46	2811
4218.002	2830
4219.544	2867
4221.083	2824
4222.625	2822
4224.164	2866
4225.703	2865
4227.244	2861
4228.782	2918
4230.32	2853
4231.857	2798
4233.395	2878
4234.933	2878
4236.471	2842
4238.007	2818
4239.542	2822
4241.078	2906
4242.614	2862
4244.15	2759
4245.685	2802
4247.219	2795
4248.753	2824
4250.287	2838
4251.82	2828
4253.354	2826
4254.887	2827
4256.419	2730
4257.951	2768
4259.483	2825
4261.016	2736
4262.547	2792
4264.078	2791
4265.608	2765
4267.137	2825
4268.668	2787
4270.197	2784
4271.727	2708
4273.254	2746
4274.783	2772
4276.311	2786
4277.84	2707
4279.366	2713
4280.894	2678
4282.42	2746
4283.946	2764
4285.473	2742
4286.998	2772
4288.523	2712
4290.047	2727
4291.572	2735
4293.096	2757
4294.622	2750
4296.144	2716
4297.668	2718
4299.19	2761
4300.713	2773
4302.236	2663
4303.758	2670
4305.279	2709
4306.799	2627
4308.321	2770
4309.842	2680
4311.361	2670
4312.882	2665
4314.401	2611
