400.0961	4958
402.6185	4962
405.1424	4938
407.6635	4863
410.1838	4874
412.7035	4910
415.2225	4853
417.7388	4973
420.2585	4998
422.7754	5146
425.2917	5098
427.8072	5122
430.3221	5123
432.8363	5229
435.3498	5234
437.8626	5285
440.3727	5215
442.8841	5326
445.3969	5296
447.907	5375
450.4142	5267
452.9229	5341
455.4289	5214
457.9362	5198
460.4449	5306
462.9488	5246
465.454	5216
467.9566	5175
470.4604	5175
472.9637	5261
475.4662	5237
477.966	5278
480.4671	5196
482.9656	5370
485.4633	5339
487.9645	5274
490.4608	5374
492.9566	5361
495.4536	5295
497.948	5283
500.4437	5397
502.9387	5350
505.431	5386
507.9226	5386
510.4136	5425
512.9079	5293
515.3975	5339
517.8864	5444
520.3746	5435
522.8622	5346
525.3491	5421
527.8394	5486
530.3249	5416
532.8098	5390
535.2939	5391
537.7774	5472
540.2623	5463
542.7444	5503
545.2259	5468
547.7067	5435
550.1868	5443
552.6683	5495
555.147	5503
557.6231	5531
560.1005	5563
562.5773	5482
565.0534	5486
567.5308	5553
570.0056	5647
572.4776	5643
574.951	5582
577.4237	5584
579.8978	5612
582.3671	5605
584.8378	5673
587.3079	5651
589.7773	5707
592.244	5594
594.714	5795
597.1793	5632
599.6461	5669
602.1121	5603
604.5754	5622
607.0421	5626
609.5042	5665
611.9675	5731
614.4282	5642
616.8902	5720
619.3515	5688
621.8122	5559
624.2702	5630
626.7296	5576
629.1863	5600
631.6423	5644
634.1017	5586
636.5563	5569
639.0104	5612
641.4658	5660
643.9185	5673
646.3725	5635
648.8239	5674
651.2766	5651
653.7266	5635
656.176	5748
658.6247	5669
661.0748	5841
663.5242	5738
665.9709	5809
668.417	5733
670.8624	5774
673.3092	5741
675.7533	5786
678.1968	5692
680.6395	5742
683.0817	5761
685.5251	5843
687.9659	5878
690.4061	5928
692.8456	5853
695.2844	5832
697.7226	5858
700.1621	5831
702.599	5903
705.0332	5918
707.4688	5948
709.9036	5860
712.3399	5961
714.7735	5946
717.2044	6016
719.6367	6031
722.0683	6031
724.4993	6068
726.9296	6003
729.3593	6023
731.7883	6035
734.2147	6058
736.6423	5986
739.0714	6053
741.4958	6011
743.9216	6171
746.3447	6142
748.7691	6107
751.1929	6282
753.616	6224
756.0366	6278
758.4584	6183
760.8776	6250
763.2982	6285
765.718	6346
768.1373	6320
770.5539	6125
772.9698	6368
775.3871	6268
777.8038	6205
780.2178	6276
782.6332	6359
785.0459	6245
787.458	6380
789.8714	6370
792.2842	6171
794.6943	6304
797.1038	6276
799.5127	6262
801.9209	6425
804.3324	6365
806.7393	6371
809.1456	6323
811.5513	6444
813.9562	6317
816.3625	6559
818.7663	6351
821.1693	6240
823.5718	6573
825.9735	6362
828.3746	6408
830.7771	6359
833.177	6391
835.5762	6363
837.9747	6423
840.3727	6490
842.772	6528
845.1666	6470
847.5626	6512
849.958	6530
852.3527	6561
854.7488	6544
857.1403	6424
859.5331	6678
861.9253	6623
864.3168	6565
866.7057	6414
869.098	6543
871.4876	6454
873.8746	6563
876.263	6544
878.6487	6493
881.0378	6554
883.4243	6553
885.8081	6539
888.1933	6543
890.5759	6492
892.9598	6683
895.343	6456
897.7256	6519
900.1057	6547
902.4871	6481
904.8659	6581
907.246	6634
909.6254	6486
912.0023	6591
914.3786	6727
916.7562	6806
919.1331	6815
921.5074	6978
923.8831	7061
926.2562	7047
928.6287	6945
931.0005	7061
933.3757	7026
935.7462	6990
938.1162	6937
940.4855	6923
942.8542	6832
945.2242	7046
947.5916	7022
949.9584	7153
952.3266	7356
954.6921	7406
957.0571	7625
959.4233	7947
961.787	7862
964.15	7831
966.5125	7885
968.8742	7633
971.2354	7305
973.5959	7038
975.9559	7097
978.3151	7043
980.6738	7017
983.0338	6861
985.3912	6839
987.7461	6837
990.1022	6717
992.4578	6630
994.8127	6666
997.1689	6732
999.5207	6866
1001.874	6775
1004.226	6759
1006.576	6754
1008.929	6822
1011.28	6744
1013.628	6774
1015.977	6668
1018.324	6817
1020.674	6761
1023.019	6726
1025.366	6875
1027.713	6809
1030.056	6754
1032.399	6826
1034.746	6842
1037.087	6842
1039.431	6842
1041.771	6808
1044.113	6835
1046.454	6861
1048.793	6868
1051.133	6869
1053.471	6910
1055.807	6878
1058.146	6849
1060.483	6880
1062.818	7019
1065.153	6912
1067.489	6967
1069.822	6840
1072.156	6888
1074.488	7003
1076.82	6963
1079.15	7007
1081.48	7037
1083.814	6955
1086.143	6900
1088.471	7004
1090.799	6867
1093.126	6946
1095.452	6865
1097.78	6910
1100.105	6929
1102.43	6887
1104.754	6932
1107.077	6813
1109.4	6910
1111.722	6873
1114.044	6900
1116.365	6989
1118.685	6823
1121.005	6825
1123.324	6993
1125.643	7007
1127.961	6940
1130.278	6981
1132.595	6947
1134.911	6939
1137.226	6931
1139.541	6909
1141.854	6852
1144.167	6841
1146.482	6930
1148.793	6908
1151.105	7018
1153.414	6997
1155.725	6956
1158.033	6999
1160.344	6782
1162.651	7058
1164.959	6921
1167.265	6964
1169.572	6897
1171.878	6962
1174.184	6959
1176.488	7017
1178.79	7042
1181.094	7117
1183.396	7032
1185.699	7013
1188.001	7064
1190.301	6939
1192.6	7032
1194.9	6974
1197.2	6887
1199.497	6979
1201.794	6885
1204.09	6938
1206.387	6931
1208.684	6967
1210.978	6990
1213.272	7006
1215.565	6979
1217.858	7031
1220.15	6934
1222.443	7075
1224.734	6970
1227.024	6975
1229.313	7149
1231.602	7021
1233.892	7024
1236.18	7225
1238.467	7152
1240.754	7146
1243.04	7299
1245.325	7180
1247.612	7391
1249.896	7356
1252.178	7271
1254.461	7292
1256.743	7139
1259.027	7319
1261.308	7217
1263.587	7408
1265.867	7320
1268.146	7293
1270.425	7337
1272.703	7264
1274.981	7249
1277.256	7234
1279.532	7230
1281.808	7168
1284.083	7291
1286.358	7156
1288.63	7228
1290.904	7184
1293.175	7205
1295.449	7260
1297.719	7297
1299.99	7212
1302.259	7152
1304.529	7278
1306.798	7200
1309.065	7144
1311.333	7121
1313.599	7219
1315.866	7164
1318.131	7154
1320.396	7245
1322.66	7276
1324.925	7180
1327.187	7179
1329.448	7131
1331.711	7306
1333.974	7171
1336.234	7229
1338.493	7205
1340.752	7249
1343.01	7126
1345.269	7240
1347.526	7235
1349.784	7176
1352.04	7212
1354.295	7166
1356.552	7235
1358.806	7185
1361.059	7322
1363.312	7209
1365.564	7134
1367.818	7153
1370.069	7272
1372.318	7110
1374.568	7270
1376.817	7309
1379.066	7185
1381.316	7189
1383.564	7277
1385.809	7280
1388.056	7268
1390.301	7403
1392.549	7405
1394.793	7550
1397.036	7410
1399.279	7417
1401.522	7566
1403.763	7624
1406.007	7444
1408.248	7578
1410.487	7585
1412.727	7554
1414.965	7542
1417.205	7510
1419.442	7571
1421.68	7475
1423.915	7464
1426.152	7487
1428.388	7536
1430.623	7491
1432.857	7571
1435.091	7453
1437.323	7516
1439.556	7523
1441.789	7535
1444.019	7554
1446.25	7572
1448.48	7575
1450.708	7551
1452.938	7696
1455.167	7645
1457.394	7759
1459.62	7582
1461.846	7598
1464.073	7548
1466.299	7672
1468.523	7538
1470.746	7477
1472.969	7526
1475.191	7416
1477.415	7484
1479.636	7366
1481.858	7459
1484.078	7327
1486.298	7212
1488.518	7304
1490.736	7132
1492.954	7172
1495.169	7188
1497.386	7182
1499.602	7283
1501.819	7155
1504.034	7186
1506.248	7305
1508.462	7268
1510.675	7120
1512.888	7180
1515.1	7148
1517.311	7033
1519.522	7164
1521.732	7217
1523.942	7127
1526.151	7099
1528.36	7169
1530.566	7108
1532.773	7143
1534.98	7202
1537.187	7122
1539.392	7189
1541.596	7084
1543.801	7230
1546.005	7267
1548.208	7264
1550.411	7318
1552.612	7146
1554.814	7226
1557.013	7257
1559.212	7284
1561.414	7406
1563.612	7345
1565.811	7354
1568.007	7374
1570.203	7319
1572.403	7424
1574.598	7443
1576.792	7269
1578.988	7321
1581.181	7385
1583.376	7437
1585.568	7437
1587.761	7322
1589.952	7430
1592.143	7420
1594.333	7392
1596.524	7399
1598.715	7508
1600.903	7493
1603.091	7433
1605.278	7460
1607.466	7444
1609.652	7518
1611.838	7484
1614.023	7514
1616.207	7506
1618.391	7402
1620.576	7338
1622.759	7505
1624.941	7464
1627.123	7485
1629.304	7399
1631.484	7447
1633.664	7481
1635.844	7531
1638.022	7508
1640.201	7533
1642.38	7516
1644.556	7492
1646.732	7565
1648.908	7485
1651.084	7572
1653.257	7626
1655.433	7484
1657.607	7704
1659.779	7641
1661.951	7579
1664.122	7565
1666.295	7685
1668.467	7612
1670.635	7687
1672.805	7474
1674.973	7515
1677.142	7679
1679.31	7602
1681.478	7512
1683.644	7683
1685.81	7486
1687.975	7631
1690.142	7560
1692.305	7492
1694.468	7442
1696.632	7646
1698.794	7457
1700.957	7456
1703.119	7495
1705.279	7513
1707.439	7437
1709.598	7470
1711.758	7466
1713.917	7409
1716.075	7472
1718.231	7360
1720.388	7394
1722.543	7416
1724.702	7380
1726.856	7329
1729.01	7394
1731.164	7341
1733.317	7329
1735.471	7334
1737.623	7436
1739.774	7297
1741.925	7337
1744.075	7440
1746.225	7293
1748.376	7454
1750.524	7457
1752.672	7382
1754.82	7421
1756.965	7468
1759.113	7384
1761.259	7378
1763.405	7374
1765.549	7522
1767.694	7384
1769.836	7385
1771.981	7482
1774.123	7409
1776.264	7442
1778.405	7364
1780.546	7413
1782.687	7473
1784.827	7457
1786.966	7250
1789.103	7469
1791.242	7418
1793.381	7537
1795.517	7399
1797.653	7386
1799.788	7390
1801.923	7400
1804.057	7461
1806.193	7431
1808.326	7346
1810.457	7541
1812.59	7458
1814.721	7491
1816.855	7357
1818.984	7397
1821.113	7386
1823.244	7491
1825.372	7357
1827.499	7388
1829.63	7302
1831.756	7391
1833.882	7392
1836.007	7329
1838.132	7410
1840.26	7392
1842.384	7351
1844.507	7388
1846.63	7411
1848.752	7371
1850.875	7233
1852.996	7360
1855.118	7309
1857.238	7313
1859.358	7390
1861.477	7295
1863.597	7441
1865.715	7339
1867.832	7454
1869.948	7447
1872.064	7383
1874.181	7311
1876.297	7361
1878.411	7279
1880.526	7358
1882.639	7434
1884.752	7324
1886.865	7400
1888.977	7361
1891.089	7467
1893.2	7286
1895.308	7390
1897.42	7364
1899.53	7498
1901.639	7366
1903.745	7379
1905.853	7416
1907.962	7337
1910.067	7458
1912.174	7460
1914.278	7374
1916.383	7388
1918.486	7425
1920.592	7442
1922.694	7388
1924.797	7472
1926.898	7402
1929	7439
1931.102	7583
1933.203	7545
1935.301	7422
1937.401	7555
1939.499	7488
1941.598	7576
1943.697	7482
1945.793	7368
1947.888	7479
1949.985	7484
1952.08	7533
1954.176	7564
1956.269	7653
1958.364	7508
1960.457	7532
1962.549	7444
1964.642	7480
1966.733	7498
1968.823	7532
1970.913	7474
1973.005	7394
1975.093	7511
1977.184	7488
1979.271	7411
1981.359	7350
1983.446	7484
1985.532	7330
1987.619	7428
1989.705	7393
1991.789	7339
1993.874	7493
1995.956	7378
1998.041	7434
2000.123	7271
2002.206	7387
2004.287	7490
2006.368	7371
2008.449	7320
2010.529	7326
2012.609	7368
2014.688	7439
2016.766	7379
2018.843	7349
2020.922	7313
2022.999	7362
2025.074	7375
2027.15	7418
2029.225	7292
2031.299	7378
2033.375	7367
2035.447	7358
2037.52	7349
2039.592	7155
2041.664	7363
2043.736	7383
2045.807	7361
2047.876	7457
2049.947	7462
2052.015	7361
2054.086	7417
2056.153	7413
2058.221	7361
2060.288	7392
2062.353	7408
2064.42	7315
2066.486	7392
2068.55	7421
2070.614	7348
2072.678	7502
2074.741	7328
2076.805	7348
2078.866	7330
2080.929	7328
2082.99	7502
2085.049	7400
2087.109	7362
2089.17	7357
2091.228	7377
2093.286	7356
2095.344	7438
2097.4	7295
2099.46	7301
2101.516	7277
2103.572	7483
2105.626	7262
2107.679	7388
2109.735	7482
2111.788	7404
2113.841	7311
2115.894	7357
2117.945	7403
2119.997	7296
2122.049	7391
2124.1	7438
2126.148	7375
2128.197	7317
2130.246	7376
2132.296	7240
2134.342	7254
2136.39	7404
2138.437	7317
2140.483	7335
2142.527	7344
2144.574	7390
2146.619	7301
2148.661	7446
2150.705	7285
2152.747	7264
2154.792	7358
2156.832	7352
2158.874	7264
2160.915	7413
2162.954	7334
2164.995	7292
2167.034	7163
2169.072	7269
2171.111	7364
2173.148	7296
2175.186	7350
2177.223	7261
2179.258	7249
2181.294	7314
2183.328	7410
2185.362	7245
2187.398	7193
2189.431	7217
2191.463	7333
2193.495	7296
2195.528	7219
2197.56	7164
2199.59	7124
2201.62	7200
2203.649	7042
2205.678	7215
2207.708	7190
2209.737	7172
2211.764	7119
2213.791	7245
2215.817	7051
2217.843	7147
2219.87	7121
2221.895	7132
2223.919	7135
2225.942	7191
2227.966	7113
2229.988	7073
2232.012	7058
2234.032	7241
2236.054	7252
2238.074	7008
2240.095	7213
2242.116	7129
2244.135	7089
2246.153	7206
2248.171	7161
2250.188	7134
2252.208	6986
2254.223	6990
2256.239	7183
2258.255	7093
2260.269	7115
2262.283	7244
2264.3	7085
2266.312	7154
2268.325	7134
2270.336	7109
2272.349	7171
2274.362	7106
2276.372	7154
2278.383	7010
2280.392	7161
2282.402	7164
2284.409	7123
2286.418	7111
2288.427	7210
2290.433	7180
2292.441	7155
2294.446	7022
2296.453	7012
2298.459	7232
2300.463	7060
2302.466	7141
2304.471	6994
2306.475	7030
2308.477	7014
2310.478	7033
2312.481	7176
2314.481	7083
2316.481	7101
2318.482	7063
2320.482	7080
2322.48	7098
2324.48	6978
2326.478	6927
2328.476	7028
2330.473	7087
2332.469	6971
2334.465	7069
2336.46	7026
2338.454	7059
2340.45	6962
2342.444	7080
2344.437	6949
2346.43	7126
2348.421	6936
2350.414	7009
2352.405	6969
2354.396	7019
2356.386	6841
2358.376	6827
2360.366	7042
2362.355	7045
2364.343	7038
2366.331	6941
2368.317	6964
2370.304	6965
2372.292	6993
2374.278	6934
2376.262	6957
2378.247	7001
2380.23	7005
2382.216	7099
2384.199	6875
2386.181	6850
2388.163	6908
2390.144	6874
2392.127	7000
2394.107	6856
2396.087	6796
2398.066	6782
2400.046	6902
2402.023	6793
2404.004	6769
2405.981	6879
2407.957	6866
2409.934	6845
2411.91	6780
2413.886	6876
2415.862	6837
2417.836	6779
2419.809	6844
2421.784	6840
2423.756	6854
2425.73	6793
2427.701	6916
2429.672	6873
2431.644	6775
2433.615	6757
2435.586	6778
2437.555	6704
2439.523	6859
2441.491	6694
2443.459	6899
2445.428	6827
2447.395	6898
2449.361	6787
2451.327	6812
2453.292	6867
2455.257	6810
2457.223	6856
2459.187	6793
2461.15	6769
2463.113	6836
2465.076	6707
2467.039	6708
2468.999	6822
2470.96	6800
2472.921	6712
2474.881	6938
2476.841	6651
2478.8	6820
2480.759	6732
2482.717	6769
2484.675	6725
2486.63	6699
2488.589	6832
2490.545	6720
2492.5	6570
2494.455	6667
2496.408	6669
2498.364	6645
2500.318	6628
2502.27	6662
2504.223	6667
2506.174	6663
2508.126	6794
2510.078	6677
2512.03	6757
2513.979	6636
2515.927	6642
2517.877	6704
2519.826	6760
2521.775	6676
2523.722	6703
2525.668	6742
2527.616	6673
2529.561	6664
2531.508	6754
2533.452	6700
2535.398	6694
2537.342	6490
2539.284	6569
2541.229	6556
2543.173	6681
2545.114	6765
2547.055	6761
2548.996	6652
2550.938	6713
2552.878	6670
2554.817	6609
2556.756	6650
2558.695	6561
2560.633	6582
2562.572	6614
2564.509	6729
2566.445	6620
2568.382	6706
2570.317	6626
2572.254	6619
2574.189	6621
2576.123	6743
2578.057	6587
2579.99	6530
2581.923	6569
2583.855	6612
2585.788	6659
2587.719	6675
2589.65	6635
2591.579	6510
2593.511	6605
2595.44	6648
2597.37	6673
2599.297	6679
2601.225	6725
2603.153	6667
2605.08	6586
2607.007	6529
2608.932	6695
2610.858	6672
2612.782	6694
2614.709	6739
2616.632	6549
2618.556	6635
2620.478	6667
2622.401	6661
2624.324	6765
2626.247	6599
2628.167	6696
2630.088	6665
2632.008	6661
2633.928	6673
2635.848	6607
2637.766	6541
2639.684	6756
2641.603	6746
2643.519	6621
2645.437	6580
2647.353	6616
2649.27	6632
2651.184	6671
2653.099	6550
2655.014	6556
2656.928	6685
2658.842	6760
2660.755	6415
2662.667	6594
2664.579	6643
2666.491	6698
2668.402	6670
2670.312	6666
2672.222	6500
2674.132	6708
2676.042	6486
2677.951	6704
2679.859	6580
2681.766	6657
2683.674	6531
2685.582	6649
2687.488	6562
2689.392	6547
2691.298	6547
2693.202	6579
2695.107	6607
2697.012	6374
2698.914	6470
2700.817	6422
2702.72	6491
2704.622	6625
2706.524	6501
2708.425	6412
2710.326	6358
2712.225	6510
2714.125	6540
2716.024	6447
2717.923	6488
2719.822	6450
2721.719	6532
2723.616	6415
2725.512	6580
2727.41	6465
2729.305	6409
2731.201	6478
2733.095	6431
2734.99	6536
2736.884	6369
2738.778	6475
2740.67	6467
2742.562	6485
2744.455	6491
2746.346	6436
2748.238	6402
2750.129	6488
2752.018	6393
2753.907	6457
2755.797	6444
2757.687	6369
2759.575	6514
2761.462	6489
2763.349	6497
2765.237	6441
2767.124	6424
2769.009	6473
2770.894	6377
2772.779	6414
2774.663	6429
2776.547	6420
2778.431	6483
2780.314	6453
2782.197	6370
2784.078	6471
2785.96	6426
2787.842	6487
2789.723	6457
2791.603	6543
2793.483	6325
2795.362	6310
2797.241	6335
2799.121	6407
2800.997	6355
2802.874	6389
2804.751	6414
2806.628	6409
2808.506	6434
2810.38	6438
2812.255	6375
2814.13	6375
2816.003	6417
2817.878	6478
2819.752	6411
2821.623	6368
2823.496	6391
2825.368	6379
2827.238	6440
2829.111	6541
2830.98	6291
2832.851	6420
2834.719	6391
2836.589	6395
2838.458	6494
2840.327	6457
2842.193	6425
2844.061	6453
2845.927	6342
2847.794	6441
2849.66	6498
2851.525	6367
2853.39	6619
2855.254	6552
2857.117	6542
2858.983	6529
2860.845	6579
2862.707	6587
2864.569	6636
2866.431	6529
2868.293	6572
2870.154	6694
2872.013	6762
2873.873	6714
2875.733	6831
2877.592	6966
2879.451	6884
2881.309	7020
2883.166	6977
2885.022	7102
2886.879	7123
2888.736	7141
2890.591	7070
2892.446	7181
2894.301	7307
2896.155	7244
2898.009	7223
2899.863	7141
2901.716	7037
2903.568	7089
2905.419	6961
2907.27	7113
2909.123	7137
2910.973	7092
2912.824	7122
2914.673	7123
2916.521	7079
2918.372	7279
2920.22	7336
2922.067	7347
2923.914	7418
2925.761	7433
2927.607	7453
2929.455	7554
2931.301	7497
2933.144	7546
2934.99	7500
2936.833	7668
2938.678	7796
2940.522	7815
2942.364	7907
2944.207	7888
2946.048	8162
2947.891	8142
2949.731	8074
2951.571	8320
2953.412	8270
2955.25	8210
2957.09	8002
2958.93	7924
2960.767	8085
2962.606	7958
2964.443	7768
2966.279	7822
2968.116	7571
2969.953	7611
2971.788	7478
2973.623	7358
2975.457	7424
2977.292	7172
2979.127	7214
2980.959	7176
2982.792	7033
2984.624	6898
2986.455	6916
2988.288	6970
2990.119	6916
2991.949	6864
2993.779	6846
2995.608	6827
2997.439	6659
2999.268	6608
3001.096	6623
3002.923	6589
3004.751	6432
3006.578	6433
3008.406	6410
3010.232	6509
3012.057	6293
3013.883	6329
3015.706	6280
3017.532	6404
3019.356	6193
3021.179	6164
3023.002	6156
3024.823	6172
3026.646	6180
3028.469	6089
3030.289	6079
3032.11	6031
3033.93	6077
3035.749	6056
3037.57	6134
3039.39	6056
3041.207	6116
3043.026	6064
3044.842	6083
3046.661	6094
3048.477	5905
3050.294	6051
3052.109	6051
3053.925	6054
3055.739	6017
3057.555	6077
3059.368	6048
3061.181	5982
3062.995	6017
3064.807	6128
3066.62	5926
3068.433	6009
3070.243	5903
3072.054	6009
3073.865	5966
3075.675	6014
3077.485	5900
3079.293	5972
3081.102	5861
3082.911	5942
3084.719	5889
3086.527	5877
3088.333	5882
3090.139	5852
3091.945	5803
3093.75	5910
3095.557	5754
3097.361	5766
3099.165	5817
3100.969	5835
3102.772	5745
3104.575	5878
3106.379	5640
3108.181	5757
3109.982	5762
3111.783	5813
3113.584	5830
3115.386	5648
3117.186	5769
3118.985	5838
3120.783	5673
3122.582	5739
3124.381	5609
3126.179	5699
3127.975	5650
3129.772	5634
3131.569	5672
3133.365	5595
3135.161	5625
3136.956	5591
3138.751	5609
3140.544	5668
3142.338	5629
3144.132	5664
3145.925	5563
3147.717	5629
3149.509	5648
3151.301	5722
3153.091	5736
3154.884	5580
3156.673	5617
3158.462	5680
3160.252	5660
3162.041	5546
3163.831	5637
3165.618	5643
3167.405	5612
3169.193	5555
3170.979	5629
3172.767	5569
3174.553	5575
3176.338	5655
3178.123	5563
3179.907	5591
3181.692	5601
3183.477	5529
3185.259	5645
3187.042	5492
3188.824	5506
3190.607	5614
3192.389	5540
3194.17	5503
3195.951	5557
3197.73	5631
3199.51	5545
3201.289	5580
3203.07	5654
3204.848	5555
3206.626	5521
3208.403	5623
3210.18	5422
3211.959	5529
3213.735	5523
3215.511	5581
3217.285	5525
3219.06	5514
3220.836	5484
3222.611	5426
3224.384	5552
3226.158	5552
3227.929	5515
3229.702	5492
3231.476	5478
3233.248	5414
3235.018	5619
3236.789	5471
3238.56	5559
3240.33	5383
3242.1	5506
3243.869	5417
3245.637	5453
3247.405	5418
3249.172	5505
3250.941	5530
3252.707	5454
3254.474	5565
3256.24	5448
3258.006	5506
3259.772	5557
3261.537	5404
3263.301	5529
3265.065	5489
3266.828	5415
3268.592	5524
3270.355	5549
3272.117	5510
3273.878	5472
3275.64	5473
3277.401	5480
3279.162	5425
3280.922	5417
3282.682	5393
3284.441	5549
3286.199	5431
3287.959	5533
3289.716	5412
3291.475	5481
3293.232	5447
3294.988	5432
3296.744	5479
3298.501	5385
3300.256	5567
3302.011	5443
3303.766	5446
3305.52	5560
3307.275	5503
3309.028	5411
3310.781	5548
3312.533	5440
3314.285	5403
3316.038	5418
3317.789	5373
3319.54	5499
3321.289	5388
3323.039	5470
3324.789	5372
3326.539	5330
3328.288	5399
3330.035	5385
3331.783	5308
3333.531	5292
3335.28	5402
3337.025	5245
3338.771	5409
3340.518	5320
3342.262	5313
3344.009	5319
3345.753	5336
3347.497	5436
3349.24	5337
3350.983	5302
3352.726	5337
3354.469	5321
3356.212	5260
3357.952	5346
3359.694	5352
3361.434	5373
3363.176	5284
3364.916	5249
3366.654	5286
3368.394	5267
3370.132	5253
3371.871	5320
3373.61	5245
3375.346	5272
3377.083	5277
3378.82	5186
3380.556	5220
3382.292	5179
3384.027	5215
3385.763	5224
3387.497	5232
3389.231	5280
3390.965	5284
3392.698	5302
3394.431	5235
3396.164	5191
3397.896	5229
3399.627	5233
3401.36	5364
3403.09	5264
3404.82	5146
3406.55	5189
3408.279	5138
3410.01	5164
3411.738	5226
3413.467	5123
3415.194	5107
3416.92	5135
3418.647	5151
3420.375	5168
3422.102	5161
3423.827	5139
3425.553	5204
3427.277	5191
3429.003	5170
3430.727	5074
3432.451	5129
3434.173	5126
3435.896	5026
3437.62	5022
3439.343	5076
3441.063	5123
3442.785	5165
3444.505	4908
3446.226	5140
3447.948	5069
3449.666	4989
3451.386	5031
3453.104	5048
3454.823	4978
3456.541	5027
3458.259	5068
3459.976	4957
3461.693	5027
3463.408	4927
3465.125	4973
3466.841	4988
3468.556	4984
3470.271	5005
3471.985	4979
3473.698	4957
3475.414	4887
3477.126	4948
3478.838	4901
3480.55	4785
3482.263	4880
3483.975	4941
3485.686	4996
3487.396	4835
3489.106	4881
3490.817	4915
3492.526	4920
3494.236	4865
3495.944	4855
3497.652	4861
3499.359	4889
3501.066	4875
3502.775	4737
3504.481	4798
3506.187	4819
3507.893	4790
3509.598	4780
3511.304	4736
3513.009	4828
3514.713	4675
3516.417	4676
3518.12	4738
3519.821	4789
3521.525	4741
3523.228	4677
3524.929	4763
3526.631	4695
3528.33	4751
3530.032	4698
3531.733	4645
3533.433	4729
3535.131	4623
3536.83	4659
3538.529	4686
3540.227	4587
3541.925	4790
3543.623	4677
3545.319	4690
3547.016	4709
3548.712	4631
3550.408	4670
3552.103	4627
3553.798	4683
3555.491	4631
3557.188	4678
3558.88	4702
3560.574	4610
3562.266	4611
3563.959	4559
3565.651	4631
3567.343	4576
3569.035	4587
3570.725	4566
3572.415	4691
3574.106	4526
3575.797	4506
3577.485	4432
3579.174	4566
3580.863	4499
3582.551	4639
3584.238	4574
3585.926	4555
3587.613	4540
3589.3	4521
3590.986	4483
3592.671	4501
3594.357	4499
3596.042	4501
3597.726	4458
3599.41	4411
3601.094	4400
3602.778	4506
3604.461	4442
3606.143	4487
3607.825	4476
3609.507	4361
3611.188	4403
3612.87	4494
3614.551	4451
3616.229	4459
3617.909	4449
3619.589	4447
3621.269	4293
3622.948	4346
3624.625	4388
3626.302	4327
3627.98	4301
3629.657	4309
3631.334	4344
3633.01	4308
3634.686	4337
3636.361	4360
3638.036	4248
3639.712	4317
3641.385	4349
3643.06	4251
3644.732	4263
3646.405	4232
3648.08	4215
3649.751	4327
3651.424	4263
3653.094	4257
3654.766	4289
3656.436	4262
3658.106	4273
3659.777	4254
3661.446	4282
3663.115	4272
3664.783	4218
3666.452	4182
3668.121	4194
3669.788	4255
3671.454	4190
3673.121	4227
3674.789	4236
3676.455	4177
3678.12	4182
3679.784	4187
3681.45	4240
3683.114	4130
3684.779	4334
3686.442	4245
3688.105	4044
3689.768	4157
3691.43	4199
3693.093	4153
3694.754	4201
3696.415	4146
3698.076	4116
3699.736	4140
3701.396	4167
3703.057	4069
3704.716	4162
3706.375	4144
3708.034	4244
3709.692	4046
3711.351	4056
3713.008	4121
3714.665	4118
3716.321	4194
3717.977	4065
3719.634	4124
3721.29	4069
3722.945	4015
3724.598	4030
3726.253	4060
3727.907	4089
3729.561	4044
3731.214	4035
3732.867	4047
3734.518	4099
3736.171	4069
3737.824	4039
3739.474	4044
3741.125	4044
3742.775	4045
3744.425	4069
3746.074	4084
3747.725	4049
3749.373	4070
3751.022	4053
3752.669	4102
3754.318	4063
3755.966	4027
3757.612	3969
3759.259	4036
3760.905	4017
3762.55	4037
3764.197	3985
3765.842	3930
3767.486	4000
3769.131	4009
3770.774	3980
3772.417	3903
3774.061	3900
3775.705	3890
3777.347	3944
3778.988	3868
3780.629	3937
3782.271	3981
3783.912	3878
3785.552	3980
3787.192	3878
3788.831	3852
3790.472	3872
3792.112	3990
3793.75	3892
3795.388	3899
3797.024	3955
3798.661	3851
3800.3	3880
3801.936	3804
3803.572	3864
3805.208	3892
3806.844	3900
3808.48	3838
3810.115	3839
3811.748	3845
3813.382	3869
3815.016	3890
3816.649	3899
3818.283	3845
3819.914	3864
3821.547	3799
3823.178	3857
3824.809	3886
3826.441	3826
3828.072	3824
3829.701	3868
3831.331	3880
3832.96	3777
3834.591	3826
3836.219	3806
3837.847	3800
3839.475	3795
3841.102	3789
3842.729	3811
3844.357	3824
3845.984	3809
3847.609	3730
3849.234	3789
3850.86	3790
3852.485	3735
3854.11	3772
3855.734	3746
3857.357	3765
3858.981	3772
3860.603	3799
3862.227	3764
3863.848	3714
3865.471	3747
3867.092	3796
3868.713	3749
3870.334	3742
3871.954	3719
3873.575	3654
3875.194	3773
3876.813	3787
3878.433	3691
3880.051	3700
3881.669	3827
3883.286	3699
3884.904	3700
3886.52	3697
3888.138	3672
3889.754	3674
3891.37	3743
3892.985	3606
3894.6	3724
3896.216	3662
3897.831	3751
3899.444	3694
3901.058	3680
3902.67	3672
3904.283	3644
3905.897	3662
3907.509	3643
3909.121	3618
3910.731	3630
3912.342	3687
3913.954	3606
3915.563	3673
3917.174	3627
3918.783	3634
3920.391	3652
3922.002	3630
3923.611	3656
3925.218	3720
3926.826	3670
3928.432	3688
3930.039	3686
3931.647	3659
3933.253	3691
3934.859	3594
3936.464	3601
3938.068	3594
3939.675	3677
3941.278	3616
3942.883	3558
3944.486	3645
3946.089	3661
3947.692	3599
3949.295	3537
3950.898	3610
3952.499	3562
3954.1	3541
3955.7	3551
3957.303	3492
3958.903	3484
3960.502	3616
3962.101	3535
3963.7	3510
3965.301	3509
3966.899	3545
3968.497	3531
3970.094	3495
3971.691	3523
3973.288	3508
3974.885	3581
3976.481	3562
3978.077	3523
3979.672	3514
3981.267	3462
3982.863	3544
3984.457	3524
3986.051	3448
3987.645	3468
3989.238	3497
3990.831	3469
3992.425	3415
3994.017	3486
3995.607	3488
3997.199	3498
3998.79	3482
4000.382	3470
4001.973	3472
4003.561	3504
4005.151	3501
4006.741	3479
4008.331	3444
4009.918	3419
4011.507	3391
4013.095	3453
4014.681	3416
4016.269	3325
4017.856	3336
4019.443	3411
4021.028	3399
4022.614	3374
4024.199	3419
4025.785	3358
4027.37	3411
4028.953	3341
4030.536	3346
4032.12	3351
4033.704	3277
4035.287	3393
4036.869	3464
4038.45	3386
4040.032	3322
4041.613	3366
4043.195	3307
4044.776	3248
4046.356	3265
4047.935	3316
4049.515	3310
4051.095	3282
4052.674	3282
4054.251	3328
4055.829	3313
4057.406	3315
4058.985	3299
4060.562	3314
4062.139	3226
4063.715	3250
4065.29	3254
4066.865	3331
4068.442	3316
4070.016	3224
4071.59	3269
4073.164	3300
4074.738	3311
4076.312	3268
4077.885	3180
4079.458	3226
4081.03	3255
4082.602	3249
4084.173	3279
4085.745	3225
4087.315	3223
4088.886	3214
4090.456	3237
4092.026	3297
4093.596	3239
4095.165	3300
4096.734	3213
4098.301	3251
4099.869	3251
4101.437	3170
4103.006	3205
4104.572	3135
4106.139	3210
4107.704	3160
4109.27	3179
4110.837	3233
4112.401	3236
4113.966	3167
4115.53	3150
4117.094	3197
4118.659	3231
4120.223	3157
4121.785	3201
4123.347	3229
4124.909	3147
4126.471	3156
4128.034	3161
4129.595	3117
4131.155	3193
4132.716	3169
4134.275	3152
4135.836	3119
4137.395	3090
4138.955	3199
4140.513	3145
4142.071	3135
4143.628	3118
4145.188	3145
4146.745	3065
4148.302	3133
4149.858	3178
4151.414	2988
4152.971	3058
4154.526	3075
4156.081	3019
4157.635	3101
4159.189	3031
4160.745	3037
4162.298	3092
4163.852	3137
4165.405	2984
4166.957	3019
4168.51	3062
4170.063	3029
4171.614	3005
4173.166	3087
4174.717	3011
4176.267	3048
4177.817	3026
4179.368	3011
4180.917	2974
4182.466	3013
4184.016	3021
4185.564	2962
4187.112	3019
4188.66	3074
4190.207	3036
4191.754	2931
4193.301	2982
4194.848	3022
4196.394	3004
4197.94	3024
4199.484	3037
4201.03	2978
4202.575	2996
4204.12	2974
4205.663	3044
4207.207	3019
4208.75	2962
4210.292	3033
4211.836	2983
4213.378	2981
4214.92	2914
4216.46	3051
4218.002	2900
4219.544	2954
4221.083	2884
4222.625	2871
4224.164	2919
4225.703	2898
4227.244	2892
4228.782	2944
4230.32	2913
4231.857	2865
4233.395	2927
4234.933	2880
4236.471	2938
4238.007	2920
4239.542	2966
4241.078	2971
4242.614	2869
4244.15	2887
4245.685	2847
4247.219	2960
4248.753	2886
4250.287	2851
4251.82	2865
4253.354	2882
4254.887	2908
4256.419	2895
4257.951	2899
4259.483	2892
4261.016	2840
4262.547	2924
4264.078	2933
4265.608	2869
4267.137	2857
4268.668	2878
4270.197	2780
4271.727	2880
4273.254	2785
4274.783	2876
4276.311	2780
4277.84	2869
4279.366	2879
4280.894	2836
4282.42	2883
4283.946	2790
4285.473	2794
4286.998	2747
4288.523	2798
4290.047	2786
4291.572	2832
4293.096	2808
4294.622	2811
4296.144	2852
4297.668	2878
4299.19	2744
4300.713	2799
4302.236	2752
4303.758	2839
4305.279	2758
4306.799	2825
4308.321	2862
4309.842	2721
4311.361	2690
4312.882	2729
4314.401	2763
