400.0961	7521
402.6185	7607
405.1424	7594
407.6635	7696
410.1838	7566
412.7035	7619
415.2225	7693
417.7388	7715
420.2585	7766
422.7754	7903
425.2917	7876
427.8072	7855
430.3221	8057
432.8363	8127
435.3498	7992
437.8626	8022
440.3727	8127
442.8841	8019
445.3969	8106
447.907	8065
450.4142	7960
452.9229	8053
455.4289	8154
457.9362	8073
460.4449	8057
462.9488	8133
465.454	8117
467.9566	8165
470.4604	8150
472.9637	8208
475.4662	8117
477.966	8130
480.4671	8254
482.9656	8315
485.4633	8183
487.9645	8227
490.4608	8215
492.9566	8364
495.4536	8259
497.948	8395
500.4437	8437
502.9387	8364
505.431	8364
507.9226	8432
510.4136	8502
512.9079	8587
515.3975	8407
517.8864	8386
520.3746	8437
522.8622	8367
525.3491	8424
527.8394	8507
530.3249	8573
532.8098	8542
535.2939	8655
537.7774	8533
540.2623	8551
542.7444	8515
545.2259	8588
547.7067	8621
550.1868	8570
552.6683	8526
555.147	8481
557.6231	8520
560.1005	8587
562.5773	8711
565.0534	8657
567.5308	8714
570.0056	8706
572.4776	8814
574.951	8790
577.4237	8776
579.8978	8814
582.3671	8873
584.8378	8911
587.3079	8856
589.7773	8884
592.244	8843
594.714	8840
597.1793	8822
599.6461	8891
602.1121	8739
604.5754	8797
607.0421	8836
609.5042	8877
611.9675	8978
614.4282	8797
616.8902	8863
619.3515	8861
621.8122	8935
624.2702	8788
626.7296	8782
629.1863	8743
631.6423	8892
634.1017	8832
636.5563	8843
639.0104	8868
641.4658	8976
643.9185	8794
646.3725	8806
648.8239	8954
651.2766	8973
653.7266	8893
656.176	9056
658.6247	9036
661.0748	9155
663.5242	9135
665.9709	9027
668.417	8999
670.8624	9107
673.3092	9046
675.7533	9165
678.1968	9096
680.6395	9179
683.0817	9115
685.5251	9125
687.9659	9118
690.4061	9169
692.8456	9217
695.2844	9276
697.7226	9263
700.1621	9264
702.599	9269
705.0332	9248
707.4688	9292
709.9036	9340
712.3399	9327
714.7735	9300
717.2044	9392
719.6367	9472
722.0683	9329
724.4993	9440
726.9296	9433
729.3593	9491
731.7883	9535
734.2147	9564
736.6423	9461
739.0714	9652
741.4958	9683
743.9216	9709
746.3447	9579
748.7691	9543
751.1929	9795
753.616	9766
756.0366	9810
758.4584	9776
760.8776	9759
763.2982	9864
765.718	9783
768.1373	9913
770.5539	9718
772.9698	9776
775.3871	9828
777.8038	9830
780.2178	9799
782.6332	10054
785.0459	9747
787.458	9994
789.8714	9778
792.2842	9945
794.6943	9748
797.1038	9858
799.5127	10024
801.9209	9680
804.3324	9915
806.7393	10072
809.1456	9999
811.5513	10013
813.9562	9990
816.3625	10041
818.7663	10134
821.1693	10042
823.5718	9923
825.9735	9966
828.3746	9970
830.7771	9959
833.177	10137
835.5762	10179
837.9747	10122
840.3727	10099
842.772	10013
845.1666	10277
847.5626	10315
849.958	10252
852.3527	10300
854.7488	10311
857.1403	10244
859.5331	10328
861.9253	10207
864.3168	10098
866.7057	10180
869.098	10155
871.4876	10101
873.8746	10152
876.263	10193
878.6487	10207
881.0378	10121
883.4243	10115
885.8081	10275
888.1933	10275
890.5759	10167
892.9598	10194
895.343	10186
897.7256	10308
900.1057	10203
902.4871	10069
904.8659	10226
907.246	10235
909.6254	10243
912.0023	10532
914.3786	10338
916.7562	10662
919.1331	10598
921.5074	10723
923.8831	10739
926.2562	10719
928.6287	10764
931.0005	10709
933.3757	10837
935.7462	10861
938.1162	10669
940.4855	10851
942.8542	10850
945.2242	10910
947.5916	10822
949.9584	11118
952.3266	11366
954.6921	11593
957.0571	11982
959.4233	12230
961.787	12264
964.15	12097
966.5125	11987
968.8742	11788
971.2354	11350
973.5959	11176
975.9559	10980
978.3151	10813
980.6738	10668
983.0338	10809
985.3912	10644
987.7461	10638
990.1022	10448
992.4578	10477
994.8127	10516
997.1689	10632
999.5207	10676
1001.874	10591
1004.226	10577
1006.576	10625
1008.929	10549
1011.28	10473
1013.628	10612
1015.977	10636
1018.324	10855
1020.674	10650
1023.019	10508
1025.366	10560
1027.713	10654
1030.056	10677
1032.399	10530
1034.746	10671
1037.087	10733
1039.431	10670
1041.771	10652
1044.113	10718
1046.454	10707
1048.793	10694
1051.133	10771
1053.471	10733
1055.807	10789
1058.146	10803
1060.483	10724
1062.818	10728
1065.153	10799
1067.489	10958
1069.822	10879
1072.156	10961
1074.488	10837
1076.82	10955
1079.15	10883
1081.48	10848
1083.814	10969
1086.143	10796
1088.471	10762
1090.799	10775
1093.126	10701
1095.452	10896
1097.78	10843
1100.105	10750
1102.43	10860
1104.754	10719
1107.077	10870
1109.4	10703
1111.722	10720
1114.044	10787
1116.365	10782
1118.685	10787
1121.005	11048
1123.324	10902
1125.643	10897
1127.961	11018
1130.278	10857
1132.595	10944
1134.911	10868
1137.226	11043
1139.541	10897
1141.854	10810
1144.167	10808
1146.482	10905
1148.793	10980
1151.105	10812
1153.414	10984
1155.725	10965
1158.033	11020
1160.344	10968
1162.651	10997
1164.959	10873
1167.265	10920
1169.572	10983
1171.878	10937
1174.184	11005
1176.488	10831
1178.79	10945
1181.094	11059
1183.396	10935
1185.699	10918
1188.001	10900
1190.301	10870
1192.6	10777
1194.9	10820
1197.2	10801
1199.497	10896
1201.794	10894
1204.09	10896
1206.387	11075
1208.684	10811
1210.978	10931
1213.272	11046
1215.565	10970
1217.858	11105
1220.15	10838
1222.443	10959
1224.734	10986
1227.024	10957
1229.313	11088
1231.602	11028
1233.892	11167
1236.18	11257
1238.467	11313
1240.754	11157
1243.04	11250
1245.325	11272
1247.612	11187
1249.896	11189
1252.178	11419
1254.461	11411
1256.743	11382
1259.027	11203
1261.308	11257
1263.587	11147
1265.867	11259
1268.146	11335
1270.425	11427
1272.703	11296
1274.981	11370
1277.256	11411
1279.532	11299
1281.808	11246
1284.083	11318
1286.358	11249
1288.63	11208
1290.904	11140
1293.175	11104
1295.449	11211
1297.719	10985
1299.99	11192
1302.259	11129
1304.529	11122
1306.798	11215
1309.065	11043
1311.333	11217
1313.599	11280
1315.866	11182
1318.131	11177
1320.396	11346
1322.66	11188
1324.925	11216
1327.187	11196
1329.448	11224
1331.711	11248
1333.974	11278
1336.234	11135
1338.493	11310
1340.752	11133
1343.01	11081
1345.269	11121
1347.526	11124
1349.784	11179
1352.04	11209
1354.295	11246
1356.552	11083
1358.806	11011
1361.059	11115
1363.312	11136
1365.564	11148
1367.818	11144
1370.069	11302
1372.318	11277
1374.568	11132
1376.817	11250
1379.066	11240
1381.316	11168
1383.564	11379
1385.809	11232
1388.056	11137
1390.301	11326
1392.549	11313
1394.793	11558
1397.036	11580
1399.279	11504
1401.522	11575
1403.763	11435
1406.007	11712
1408.248	11397
1410.487	11568
1412.727	11565
1414.965	11475
1417.205	11647
1419.442	11542
1421.68	11566
1423.915	11611
1426.152	11470
1428.388	11422
1430.623	11635
1432.857	11540
1435.091	11441
1437.323	11568
1439.556	11537
1441.789	11574
1444.019	11631
1446.25	11687
1448.48	11568
1450.708	11657
1452.938	11640
1455.167	11712
1457.394	11853
1459.62	11720
1461.846	11701
1464.073	11756
1466.299	11720
1468.523	11473
1470.746	11542
1472.969	11567
1475.191	11323
1477.415	11522
1479.636	11480
1481.858	11345
1484.078	11365
1486.298	11218
1488.518	11221
1490.736	11201
1492.954	11193
1495.169	11242
1497.386	11172
1499.602	11119
1501.819	11154
1504.034	11249
1506.248	11164
1508.462	11103
1510.675	11118
1512.888	11234
1515.1	11101
1517.311	11198
1519.522	11315
1521.732	11094
1523.942	11247
1526.151	11096
1528.36	11104
1530.566	11191
1532.773	11092
1534.98	11243
1537.187	11262
1539.392	11304
1541.596	11370
1543.801	11231
1546.005	11388
1548.208	11349
1550.411	11325
1552.612	11292
1554.814	11308
1557.013	11230
1559.212	11338
1561.414	11470
1563.612	11324
1565.811	11292
1568.007	11434
1570.203	11545
1572.403	11521
1574.598	11583
1576.792	11404
1578.988	11519
1581.181	11379
1583.376	11376
1585.568	11479
1587.761	11528
1589.952	11633
1592.143	11463
1594.333	11522
1596.524	11629
1598.715	11602
1600.903	11501
1603.091	11551
1605.278	11698
1607.466	11660
1609.652	11463
1611.838	11611
1614.023	11374
1616.207	11664
1618.391	11557
1620.576	11536
1622.759	11652
1624.941	11588
1627.123	11622
1629.304	11798
1631.484	11681
1633.664	11616
1635.844	11715
1638.022	11511
1640.201	11595
1642.38	11627
1644.556	11652
1646.732	11682
1648.908	11598
1651.084	11767
1653.257	11751
1655.433	11823
1657.607	11608
1659.779	11812
1661.951	11656
1664.122	11854
1666.295	11835
1668.467	11617
1670.635	11723
1672.805	11697
1674.973	11774
1677.142	11782
1679.31	11730
1681.478	11808
1683.644	11688
1685.81	11596
1687.975	11522
1690.142	11627
1692.305	11791
1694.468	11478
1696.632	11689
1698.794	11569
1700.957	11608
1703.119	11651
1705.279	11400
1707.439	11506
1709.598	11549
1711.758	11590
1713.917	11647
1716.075	11565
1718.231	11421
1720.388	11462
1722.543	11447
1724.702	11557
1726.856	11430
1729.01	11483
1731.164	11574
1733.317	11395
1735.471	11524
1737.623	11412
1739.774	11260
1741.925	11502
1744.075	11490
1746.225	11552
1748.376	11564
1750.524	11557
1752.672	11474
1754.82	11622
1756.965	11616
1759.113	11506
1761.259	11593
1763.405	11682
1765.549	11530
1767.694	11396
1769.836	11511
1771.981	11655
1774.123	11432
1776.264	11550
1778.405	11492
1780.546	11699
1782.687	11514
1784.827	11520
1786.966	11617
1789.103	11569
1791.242	11661
1793.381	11568
1795.517	11750
1797.653	11508
1799.788	11600
1801.923	11474
1804.057	11574
1806.193	11655
1808.326	11650
1810.457	11705
1812.59	11606
1814.721	11691
1816.855	11560
1818.984	11438
1821.113	11514
1823.244	11408
1825.372	11697
1827.499	11514
1829.63	11557
1831.756	11416
1833.882	11633
1836.007	11411
1838.132	11484
1840.26	11609
1842.384	11460
1844.507	11433
1846.63	11508
1848.752	11696
1850.875	11329
1852.996	11468
1855.118	11490
1857.238	11404
1859.358	11528
1861.477	11433
1863.597	11471
1865.715	11480
1867.832	11370
1869.948	11513
1872.064	11566
1874.181	11466
1876.297	11354
1878.411	11333
1880.526	11499
1882.639	11553
1884.752	11387
1886.865	11480
1888.977	11500
1891.089	11489
1893.2	11564
1895.308	11622
1897.42	11583
1899.53	11451
1901.639	11719
1903.745	11656
1905.853	11626
1907.962	11641
1910.067	11458
1912.174	11588
1914.278	11532
1916.383	11424
1918.486	11432
1920.592	11595
1922.694	11541
1924.797	11596
1926.898	11491
1929	11766
1931.102	11529
1933.203	11633
1935.301	11620
1937.401	11455
1939.499	11530
1941.598	11815
1943.697	11498
1945.793	11642
1947.888	11696
1949.985	11692
1952.08	11581
1954.176	11618
1956.269	11539
1958.364	11523
1960.457	11795
1962.549	11637
1964.642	11657
1966.733	11613
1968.823	11482
1970.913	11613
1973.005	11503
1975.093	11508
1977.184	11487
1979.271	11578
1981.359	11569
1983.446	11496
1985.532	11494
1987.619	11483
1989.705	11517
1991.789	11516
1993.874	11609
1995.956	11329
1998.041	11509
2000.123	11482
2002.206	11465
2004.287	11524
2006.368	11527
2008.449	11355
2010.529	11366
2012.609	11659
2014.688	11395
2016.766	11487
2018.843	11572
2020.922	11452
2022.999	11508
2025.074	11490
2027.15	11370
2029.225	11304
2031.299	11441
2033.375	11442
2035.447	11449
2037.52	11402
2039.592	11395
2041.664	11314
2043.736	11560
2045.807	11541
2047.876	11436
2049.947	11420
2052.015	11458
2054.086	11456
2056.153	11376
2058.221	11448
2060.288	11285
2062.353	11544
2064.42	11394
2066.486	11274
2068.55	11381
2070.614	11236
2072.678	11399
2074.741	11391
2076.805	11316
2078.866	11491
2080.929	11418
2082.99	11406
2085.049	11410
2087.109	11466
2089.17	11537
2091.228	11447
2093.286	11351
2095.344	11443
2097.4	11369
2099.46	11480
2101.516	11328
2103.572	11360
2105.626	11288
2107.679	11401
2109.735	11395
2111.788	11291
2113.841	11541
2115.894	11394
2117.945	11371
2119.997	11502
2122.049	11312
2124.1	11620
2126.148	11377
2128.197	11488
2130.246	11437
2132.296	11141
2134.342	11312
2136.39	11171
2138.437	11321
2140.483	11222
2142.527	11374
2144.574	11212
2146.619	11238
2148.661	11263
2150.705	11257
2152.747	11398
2154.792	11217
2156.832	11259
2158.874	11050
2160.915	11306
2162.954	11152
2164.995	11159
2167.034	11230
2169.072	11207
2171.111	11327
2173.148	11219
2175.186	11323
2177.223	11194
2179.258	11012
2181.294	11106
2183.328	11111
2185.362	10988
2187.398	11036
2189.431	11174
2191.463	11066
2193.495	11136
2195.528	11036
2197.56	11086
2199.59	11113
2201.62	11043
2203.649	11209
2205.678	11127
2207.708	11036
2209.737	11148
2211.764	11235
2213.791	11071
2215.817	11047
2217.843	11056
2219.87	10985
2221.895	10958
2223.919	10892
2225.942	11015
2227.966	10965
2229.988	11167
2232.012	10926
2234.032	11092
2236.054	11117
2238.074	10906
2240.095	10915
2242.116	11142
2244.135	11056
2246.153	10968
2248.171	11014
2250.188	11031
2252.208	10956
2254.223	11059
2256.239	11053
2258.255	10925
2260.269	10970
2262.283	10975
2264.3	11045
2266.312	10922
2268.325	10893
2270.336	10894
2272.349	10858
2274.362	10947
2276.372	10853
2278.383	10877
2280.392	11083
2282.402	10999
2284.409	11089
2286.418	10965
2288.427	11107
2290.433	10925
2292.441	10862
2294.446	10946
2296.453	10756
2298.459	10843
2300.463	10900
2302.466	11122
2304.471	10890
2306.475	10937
2308.477	10721
2310.478	10823
2312.481	10903
2314.481	10983
2316.481	10951
2318.482	10946
2320.482	10759
2322.48	10856
2324.48	10873
2326.478	10930
2328.476	10762
2330.473	10822
2332.469	10814
2334.465	10848
2336.46	10883
2338.454	10753
2340.45	10841
2342.444	10819
2344.437	10886
2346.43	10952
2348.421	10720
2350.414	10692
2352.405	10624
2354.396	10699
2356.386	10590
2358.376	10828
2360.366	10759
2362.355	10650
2364.343	10523
2366.331	10620
2368.317	10485
2370.304	10711
2372.292	10676
2374.278	10576
2376.262	10690
2378.247	10416
2380.23	10695
2382.216	10535
2384.199	10598
2386.181	10540
2388.163	10608
2390.144	10522
2392.127	10500
2394.107	10536
2396.087	10484
2398.066	10444
2400.046	10531
2402.023	10395
2404.004	10554
2405.981	10645
2407.957	10604
2409.934	10365
2411.91	10464
2413.886	10463
2415.862	10343
2417.836	10545
2419.809	10533
2421.784	10472
2423.756	10421
2425.73	10636
2427.701	10409
2429.672	10447
2431.644	10447
2433.615	10552
2435.586	10382
2437.555	10259
2439.523	10616
2441.491	10473
2443.459	10574
2445.428	10507
2447.395	10444
2449.361	10479
2451.327	10350
2453.292	10461
2455.257	10290
2457.223	10367
2459.187	10290
2461.15	10432
2463.113	10253
2465.076	10375
2467.039	10302
2468.999	10378
2470.96	10335
2472.921	10318
2474.881	10263
2476.841	10253
2478.8	10311
2480.759	10410
2482.717	10259
2484.675	10370
2486.63	10339
2488.589	10255
2490.545	10268
2492.5	10334
2494.455	10276
2496.408	10313
2498.364	10228
2500.318	10246
2502.27	10269
2504.223	10262
2506.174	10228
2508.126	10223
2510.078	10176
2512.03	10264
2513.979	10229
2515.927	10207
2517.877	10251
2519.826	10188
2521.775	10103
2523.722	10401
2525.668	10148
2527.616	10192
2529.561	10155
2531.508	10191
2533.452	10285
2535.398	10129
2537.342	10232
2539.284	10134
2541.229	10266
2543.173	10092
2545.114	10092
2547.055	10241
2548.996	10325
2550.938	10034
2552.878	10239
2554.817	10200
2556.756	10126
2558.695	10197
2560.633	10088
2562.572	10039
2564.509	10057
2566.445	10217
2568.382	10150
2570.317	10215
2572.254	9930
2574.189	10246
2576.123	10007
2578.057	10139
2579.99	10144
2581.923	10122
2583.855	10127
2585.788	10142
2587.719	10168
2589.65	10265
2591.579	10059
2593.511	10189
2595.44	10099
2597.37	10036
2599.297	10240
2601.225	9946
2603.153	10053
2605.08	10053
2607.007	10121
2608.932	10113
2610.858	10133
2612.782	10076
2614.709	10200
2616.632	10255
2618.556	10112
2620.478	10198
2622.401	10094
2624.324	10118
2626.247	10114
2628.167	10180
2630.088	10083
2632.008	10086
2633.928	10100
2635.848	10117
2637.766	10094
2639.684	10236
2641.603	10060
2643.519	10234
2645.437	10233
2647.353	10210
2649.27	10125
2651.184	10071
2653.099	10034
2655.014	10163
2656.928	10112
2658.842	9978
2660.755	10119
2662.667	10044
2664.579	9981
2666.491	10126
2668.402	10124
2670.312	10088
2672.222	9963
2674.132	9970
2676.042	10047
2677.951	9999
2679.859	9973
2681.766	9906
2683.674	9954
2685.582	10034
2687.488	10031
2689.392	9889
2691.298	9890
2693.202	9799
2695.107	9835
2697.012	9849
2698.914	9890
2700.817	9822
2702.72	9865
2704.622	9861
2706.524	9823
2708.425	9792
2710.326	9818
2712.225	9893
2714.125	9836
2716.024	9929
2717.923	9826
2719.822	9807
2721.719	9784
2723.616	9750
2725.512	9858
2727.41	9895
2729.305	9791
2731.201	9713
2733.095	9790
2734.99	9806
2736.884	9755
2738.778	9874
2740.67	9828
2742.562	9724
2744.455	9795
2746.346	9756
2748.238	9836
2750.129	9808
2752.018	9909
2753.907	9863
2755.797	9884
2757.687	9629
2759.575	9776
2761.462	9757
2763.349	9585
2765.237	9704
2767.124	9747
2769.009	9618
2770.894	9738
2772.779	9582
2774.663	9636
2776.547	9659
2778.431	9746
2780.314	9717
2782.197	9660
2784.078	9730
2785.96	9516
2787.842	9787
2789.723	9527
2791.603	9666
2793.483	9642
2795.362	9643
2797.241	9573
2799.121	9542
2800.997	9583
2802.874	9752
2804.751	9434
2806.628	9587
2808.506	9714
2810.38	9677
2812.255	9572
2814.13	9645
2816.003	9597
2817.878	9462
2819.752	9634
2821.623	9550
2823.496	9607
2825.368	9605
2827.238	9453
2829.111	9638
2830.98	9578
2832.851	9412
2834.719	9494
2836.589	9344
2838.458	9687
2840.327	9469
2842.193	9707
2844.061	9525
2845.927	9718
2847.794	9427
2849.66	9674
2851.525	9553
2853.39	9621
2855.254	9743
2857.117	9645
2858.983	9689
2860.845	9619
2862.707	9729
2864.569	9774
2866.431	9783
2868.293	9660
2870.154	9678
2872.013	9904
2873.873	10005
2875.733	10007
2877.592	9976
2879.451	10039
2881.309	10212
2883.166	10049
2885.022	10237
2886.879	10204
2888.736	10253
2890.591	10222
2892.446	10387
2894.301	10144
2896.155	10240
2898.009	10187
2899.863	10281
2901.716	10208
2903.568	10162
2905.419	10068
2907.27	10268
2909.123	10213
2910.973	10105
2912.824	10301
2914.673	10345
2916.521	10321
2918.372	10395
2920.22	10508
2922.067	10281
2923.914	10863
2925.761	10624
2927.607	10562
2929.455	10721
2931.301	10636
2933.144	10552
2934.99	10928
2936.833	10878
2938.678	10863
2940.522	10891
2942.364	11161
2944.207	11187
2946.048	11250
2947.891	11197
2949.731	11179
2951.571	11286
2953.412	11255
2955.25	11163
2957.09	11035
2958.93	11015
2960.767	10857
2962.606	10866
2964.443	10758
2966.279	10731
2968.116	10579
2969.953	10473
2971.788	10506
2973.623	10346
2975.457	10226
2977.292	10414
2979.127	10275
2980.959	10154
2982.792	10033
2984.624	9955
2986.455	10045
2988.288	10002
2990.119	9894
2991.949	9969
2993.779	9798
2995.608	9815
2997.439	9823
2999.268	9796
3001.096	9693
3002.923	9786
3004.751	9587
3006.578	9492
3008.406	9525
3010.232	9463
3012.057	9259
3013.883	9374
3015.706	9381
3017.532	9339
3019.356	9182
3021.179	9196
3023.002	9175
3024.823	9053
3026.646	9043
3028.469	8925
3030.289	9098
3032.11	8958
3033.93	9000
3035.749	8936
3037.57	8911
3039.39	8995
3041.207	8957
3043.026	8896
3044.842	8967
3046.661	8839
3048.477	8849
3050.294	8981
3052.109	8819
3053.925	8889
3055.739	8737
3057.555	8840
3059.368	8773
3061.181	8750
3062.995	8795
3064.807	8929
3066.62	8848
3068.433	8872
3070.243	8812
3072.054	8958
3073.865	8852
3075.675	8847
3077.485	8856
3079.293	8717
3081.102	8677
3082.911	8658
3084.719	8673
3086.527	8657
3088.333	8655
3090.139	8669
3091.945	8615
3093.75	8736
3095.557	8620
3097.361	8722
3099.165	8783
3100.969	8706
3102.772	8588
3104.575	8569
3106.379	8456
3108.181	8567
3109.982	8595
3111.783	8531
3113.584	8585
3115.386	8556
3117.186	8375
3118.985	8458
3120.783	8519
3122.582	8470
3124.381	8418
3126.179	8423
3127.975	8471
3129.772	8496
3131.569	8559
3133.365	8401
3135.161	8406
3136.956	8378
3138.751	8564
3140.544	8405
3142.338	8482
3144.132	8411
3145.925	8336
3147.717	8237
3149.509	8480
3151.301	8340
3153.091	8380
3154.884	8370
3156.673	8322
3158.462	8298
3160.252	8385
3162.041	8303
3163.831	8258
3165.618	8276
3167.405	8333
3169.193	8233
3170.979	8167
3172.767	8252
3174.553	8262
3176.338	8288
3178.123	8336
3179.907	8266
3181.692	8173
3183.477	8145
3185.259	8125
3187.042	8183
3188.824	8305
3190.607	8235
3192.389	8285
3194.17	8129
3195.951	8203
3197.73	8128
3199.51	8121
3201.289	8180
3203.07	8069
3204.848	8272
3206.626	8129
3208.403	8189
3210.18	8104
3211.959	8093
3213.735	8052
3215.511	8182
3217.285	8049
3219.06	8169
3220.836	8135
3222.611	8101
3224.384	8006
3226.158	8126
3227.929	8212
3229.702	8020
3231.476	8208
3233.248	8069
3235.018	8036
3236.789	8125
3238.56	8037
3240.33	8112
3242.1	8093
3243.869	8075
3245.637	8197
3247.405	7989
3249.172	8140
3250.941	8050
3252.707	8145
3254.474	8010
3256.24	8120
3258.006	8095
3259.772	8209
3261.537	8147
3263.301	8118
3265.065	8013
3266.828	8022
3268.592	7953
3270.355	8169
3272.117	8086
3273.878	7946
3275.64	8132
3277.401	8008
3279.162	8042
3280.922	8085
3282.682	7903
3284.441	8060
3286.199	8032
3287.959	7920
3289.716	7990
3291.475	8051
3293.232	8021
3294.988	8080
3296.744	8056
3298.501	8034
3300.256	7895
3302.011	8069
3303.766	8033
3305.52	8005
3307.275	7933
3309.028	7878
3310.781	8101
3312.533	8087
3314.285	7905
3316.038	7902
3317.789	7840
3319.54	7923
3321.289	7884
3323.039	7981
3324.789	7762
3326.539	7970
3328.288	7882
3330.035	7933
3331.783	7728
3333.531	8031
3335.28	7941
3337.025	7869
3338.771	7856
3340.518	7930
3342.262	7881
3344.009	7801
3345.753	8027
3347.497	7837
3349.24	7913
3350.983	7812
3352.726	7886
3354.469	7874
3356.212	7793
3357.952	7755
3359.694	7860
3361.434	7764
3363.176	7922
3364.916	7871
3366.654	7684
3368.394	7643
3370.132	7748
3371.871	7576
3373.61	7822
3375.346	7664
3377.083	7663
3378.82	7644
3380.556	7747
3382.292	7720
3384.027	7699
3385.763	7679
3387.497	7698
3389.231	7673
3390.965	7595
3392.698	7618
3394.431	7467
3396.164	7610
3397.896	7634
3399.627	7572
3401.36	7468
3403.09	7608
3404.82	7563
3406.55	7513
3408.279	7428
3410.01	7535
3411.738	7626
3413.467	7579
3415.194	7507
3416.92	7603
3418.647	7600
3420.375	7394
3422.102	7490
3423.827	7559
3425.553	7469
3427.277	7501
3429.003	7416
3430.727	7424
3432.451	7571
3434.173	7495
3435.896	7548
3437.62	7415
3439.343	7458
3441.063	7298
3442.785	7486
3444.505	7413
3446.226	7335
3447.948	7403
3449.666	7202
3451.386	7471
3453.104	7414
3454.823	7293
3456.541	7310
3458.259	7298
3459.976	7277
3461.693	7273
3463.408	7225
3465.125	7317
3466.841	7320
3468.556	7204
3470.271	7214
3471.985	7177
3473.698	7198
3475.414	7255
3477.126	7193
3478.838	7095
3480.55	7046
3482.263	7064
3483.975	7104
3485.686	7132
3487.396	7139
3489.106	7118
3490.817	7009
3492.526	7153
3494.236	7190
3495.944	7038
3497.652	7067
3499.359	7108
3501.066	6932
3502.775	6986
3504.481	7034
3506.187	7051
3507.893	7069
3509.598	6974
3511.304	6962
3513.009	7027
3514.713	7077
3516.417	6968
3518.12	6960
3519.821	7011
3521.525	6946
3523.228	6896
3524.929	6937
3526.631	6926
3528.33	6892
3530.032	6922
3531.733	6985
3533.433	6982
3535.131	6840
3536.83	6886
3538.529	6879
3540.227	6768
3541.925	6849
3543.623	7008
3545.319	6775
3547.016	6829
3548.712	6896
3550.408	6906
3552.103	6802
3553.798	6814
3555.491	6783
3557.188	6818
3558.88	6692
3560.574	6831
3562.266	6766
3563.959	6767
3565.651	6658
3567.343	6718
3569.035	6741
3570.725	6749
3572.415	6722
3574.106	6637
3575.797	6699
3577.485	6787
3579.174	6702
3580.863	6766
3582.551	6735
3584.238	6648
3585.926	6576
3587.613	6599
3589.3	6579
3590.986	6606
3592.671	6514
3594.357	6637
3596.042	6589
3597.726	6615
3599.41	6561
3601.094	6548
3602.778	6614
3604.461	6416
3606.143	6479
3607.825	6513
3609.507	6503
3611.188	6610
3612.87	6507
3614.551	6457
3616.229	6553
3617.909	6379
3619.589	6330
3621.269	6370
3622.948	6302
3624.625	6371
3626.302	6448
3627.98	6258
3629.657	6323
3631.334	6339
3633.01	6315
3634.686	6315
3636.361	6383
3638.036	6349
3639.712	6329
3641.385	6381
3643.06	6213
3644.732	6221
3646.405	6293
3648.08	6355
3649.751	6293
3651.424	6230
3653.094	6293
3654.766	6278
3656.436	6241
3658.106	6235
3659.777	6310
3661.446	6371
3663.115	6343
3664.783	6144
3666.452	6221
3668.121	6164
3669.788	6146
3671.454	6182
3673.121	6190
3674.789	6220
3676.455	6165
3678.12	6248
3679.784	6220
3681.45	6217
3683.114	6025
3684.779	6115
3686.442	6188
3688.105	6065
3689.768	6148
3691.43	6053
3693.093	6051
3694.754	6027
3696.415	6129
3698.076	5949
3699.736	6177
3701.396	6080
3703.057	6093
3704.716	5990
3706.375	6052
3708.034	6079
3709.692	6047
3711.351	5998
3713.008	6013
3714.665	5946
3716.321	6121
3717.977	6004
3719.634	6071
3721.29	5945
3722.945	5988
3724.598	6018
3726.253	5970
3727.907	5963
3729.561	6046
3731.214	5931
3732.867	5974
3734.518	5968
3736.171	5986
3737.824	6065
3739.474	5978
3741.125	5964
3742.775	5937
3744.425	5882
3746.074	5926
3747.725	5933
3749.373	5841
3751.022	5912
3752.669	5921
3754.318	5936
3755.966	5930
3757.612	5946
3759.259	5938
3760.905	5865
3762.55	5873
3764.197	5790
3765.842	5937
3767.486	5824
3769.131	5889
3770.774	5819
3772.417	5726
3774.061	5905
3775.705	5855
3777.347	5828
3778.988	5692
3780.629	5752
3782.271	5824
3783.912	5780
3785.552	5821
3787.192	5832
3788.831	5725
3790.472	5708
3792.112	5760
3793.75	5770
3795.388	5717
3797.024	5802
3798.661	5723
3800.3	5692
3801.936	5691
3803.572	5716
3805.208	5811
3806.844	5614
3808.48	5645
3810.115	5680
3811.748	5653
3813.382	5638
3815.016	5639
3816.649	5633
3818.283	5593
3819.914	5579
3821.547	5715
3823.178	5664
3824.809	5549
3826.441	5621
3828.072	5568
3829.701	5644
3831.331	5597
3832.96	5520
3834.591	5542
3836.219	5556
3837.847	5609
3839.475	5468
3841.102	5485
3842.729	5490
3844.357	5663
3845.984	5436
3847.609	5517
3849.234	5636
3850.86	5487
3852.485	5566
3854.11	5484
3855.734	5402
3857.357	5554
3858.981	5498
3860.603	5544
3862.227	5437
3863.848	5441
3865.471	5520
3867.092	5441
3868.713	5357
3870.334	5433
3871.954	5437
3873.575	5486
3875.194	5422
3876.813	5339
3878.433	5441
3880.051	5355
3881.669	5412
3883.286	5447
3884.904	5447
3886.52	5384
3888.138	5507
3889.754	5386
3891.37	5355
3892.985	5304
3894.6	5386
3896.216	5405
3897.831	5380
3899.444	5433
3901.058	5371
3902.67	5401
3904.283	5326
3905.897	5295
3907.509	5364
3909.121	5392
3910.731	5302
3912.342	5235
3913.954	5225
3915.563	5317
3917.174	5257
3918.783	5278
3920.391	5292
3922.002	5335
3923.611	5336
3925.218	5259
3926.826	5254
3928.432	5350
3930.039	5237
3931.647	5311
3933.253	5229
3934.859	5311
3936.464	5192
3938.068	5199
3939.675	5251
3941.278	5240
3942.883	5291
3944.486	5241
3946.089	5277
3947.692	5143
3949.295	5175
3950.898	5277
3952.499	5142
3954.1	5184
3955.7	5171
3957.303	5200
3958.903	5169
3960.502	5173
3962.101	5162
3963.7	5083
3965.301	5093
3966.899	5124
3968.497	5139
3970.094	5104
3971.691	5083
3973.288	5074
3974.885	5158
3976.481	5184
3978.077	5145
3979.672	5139
3981.267	5091
3982.863	5031
3984.457	5052
3986.051	5002
3987.645	5072
3989.238	5059
3990.831	5038
3992.425	4937
3994.017	5125
3995.607	5122
3997.199	5023
3998.79	5021
4000.382	4981
4001.973	5003
4003.561	4961
4005.151	4994
4006.741	4942
4008.331	5013
4009.918	4910
4011.507	4900
4013.095	4911
4014.681	4807
4016.269	4846
4017.856	5008
4019.443	4944
4021.028	4968
4022.614	4849
4024.199	4935
4025.785	4852
4027.37	4867
4028.953	4849
4030.536	4901
4032.12	4845
4033.704	4845
4035.287	4869
4036.869	4860
4038.45	4799
4040.032	4870
4041.613	4818
4043.195	4808
4044.776	4845
4046.356	4833
4047.935	4730
4049.515	4828
4051.095	4783
4052.674	4822
4054.251	4761
4055.829	4752
4057.406	4749
4058.985	4793
4060.562	4713
4062.139	4769
4063.715	4743
4065.29	4591
4066.865	4800
4068.442	4639
4070.016	4701
4071.59	4724
4073.164	4742
4074.738	4774
4076.312	4758
4077.885	4716
4079.458	4770
4081.03	4673
4082.602	4644
4084.173	4659
4085.745	4691
4087.315	4673
4088.886	4683
4090.456	4666
4092.026	4637
4093.596	4647
4095.165	4695
4096.734	4652
4098.301	4636
4099.869	4712
4101.437	4550
4103.006	4565
4104.572	4661
4106.139	4567
4107.704	4608
4109.27	4509
4110.837	4616
4112.401	4556
4113.966	4574
4115.53	4592
4117.094	4575
4118.659	4578
4120.223	4502
4121.785	4508
4123.347	4519
4124.909	4628
4126.471	4581
4128.034	4401
4129.595	4492
4131.155	4522
4132.716	4495
4134.275	4563
4135.836	4540
4137.395	4496
4138.955	4482
4140.513	4522
4142.071	4472
4143.628	4482
4145.188	4487
4146.745	4454
4148.302	4473
4149.858	4404
4151.414	4470
4152.971	4435
4154.526	4379
4156.081	4414
4157.635	4416
4159.189	4454
4160.745	4401
4162.298	4436
4163.852	4478
4165.405	4386
4166.957	4416
4168.51	4326
4170.063	4357
4171.614	4450
4173.166	4294
4174.717	4320
4176.267	4328
4177.817	4400
4179.368	4326
4180.917	4294
4182.466	4310
4184.016	4337
4185.564	4265
4187.112	4380
4188.66	4240
4190.207	4300
4191.754	4289
4193.301	4319
4194.848	4292
4196.394	4271
4197.94	4288
4199.484	4298
4201.03	4255
4202.575	4317
4204.12	4287
4205.663	4275
4207.207	4234
4208.75	4250
4210.292	4224
4211.836	4245
4213.378	4219
4214.92	4179
4216.46	4166
4218.002	4202
4219.544	4170
4221.083	4192
4222.625	4225
4224.164	4199
4225.703	4231
4227.244	4190
4228.782	4225
4230.32	4290
4231.857	4171
4233.395	4239
4234.933	4181
4236.471	4205
4238.007	4139
4239.542	4132
4241.078	4221
4242.614	4260
4244.15	4152
4245.685	4149
4247.219	4107
4248.753	4075
4250.287	4181
4251.82	4144
4253.354	4132
4254.887	4124
4256.419	4078
4257.951	4119
4259.483	4077
4261.016	4104
4262.547	4069
4264.078	4134
4265.608	4118
4267.137	4033
4268.668	4127
4270.197	3951
4271.727	4086
4273.254	4107
4274.783	4037
4276.311	4028
4277.84	4029
4279.366	4034
4280.894	4037
4282.42	4051
4283.946	4094
4285.473	4086
4286.998	4024
4288.523	3934
4290.047	3973
4291.572	3993
4293.096	4044
4294.622	3971
4296.144	3944
4297.668	3951
4299.19	3962
4300.713	3987
4302.236	4038
4303.758	3999
4305.279	3961
4306.799	4020
4308.321	3992
4309.842	3915
4311.361	3954
4312.882	3870
4314.401	3913
