400.0961	3858
402.6185	3890
405.1424	3907
407.6635	3833
410.1838	3770
412.7035	3821
415.2225	3889
417.7388	3941
420.2585	3956
422.7754	3977
425.2917	3995
427.8072	4062
430.3221	4006
432.8363	3991
435.3498	4082
437.8626	4002
440.3727	4010
442.8841	4084
445.3969	4018
447.907	4071
450.4142	4047
452.9229	4089
455.4289	4054
457.9362	4116
460.4449	4075
462.9488	4028
465.454	4077
467.9566	4070
470.4604	4146
472.9637	4117
475.4662	4124
477.966	4088
480.4671	4065
482.9656	4122
485.4633	4098
487.9645	4150
490.4608	4119
492.9566	4244
495.4536	4183
497.948	4238
500.4437	4225
502.9387	4250
505.431	4246
507.9226	4184
510.4136	4258
512.9079	4171
515.3975	4254
517.8864	4368
520.3746	4273
522.8622	4306
525.3491	4354
527.8394	4256
530.3249	4228
532.8098	4260
535.2939	4323
537.7774	4279
540.2623	4332
542.7444	4275
545.2259	4302
547.7067	4333
550.1868	4263
552.6683	4298
555.147	4291
557.6231	4396
560.1005	4368
562.5773	4360
565.0534	4338
567.5308	4384
570.0056	4268
572.4776	4389
574.951	4397
577.4237	4309
579.8978	4450
582.3671	4420
584.8378	4369
587.3079	4356
589.7773	4400
592.244	4460
594.714	4412
597.1793	4505
599.6461	4423
602.1121	4408
604.5754	4404
607.0421	4449
609.5042	4504
611.9675	4498
614.4282	4450
616.8902	4378
619.3515	4420
621.8122	4426
624.2702	4449
626.7296	4497
629.1863	4458
631.6423	4494
634.1017	4448
636.5563	4312
639.0104	4514
641.4658	4494
643.9185	4510
646.3725	4449
648.8239	4518
651.2766	4495
653.7266	4483
656.176	4639
658.6247	4575
661.0748	4574
663.5242	4518
665.9709	4577
668.417	4539
670.8624	4610
673.3092	4495
675.7533	4509
678.1968	4508
680.6395	4610
683.0817	4574
685.5251	4542
687.9659	4656
690.4061	4693
692.8456	4571
695.2844	4540
697.7226	4698
700.1621	4711
702.599	4537
705.0332	4558
707.4688	4666
709.9036	4764
712.3399	4715
714.7735	4638
717.2044	4699
719.6367	4755
722.0683	4634
724.4993	4806
726.9296	4772
729.3593	4781
731.7883	4699
734.2147	4907
736.6423	4751
739.0714	4799
741.4958	4757
743.9216	4841
746.3447	4930
748.7691	4824
751.1929	4832
753.616	4938
756.0366	4977
758.4584	4850
760.8776	4860
763.2982	4970
765.718	4946
768.1373	4879
770.5539	4922
772.9698	5026
775.3871	4848
777.8038	4926
780.2178	4962
782.6332	5049
785.0459	4973
787.458	4972
789.8714	5012
792.2842	4918
794.6943	4943
797.1038	4957
799.5127	4977
801.9209	4963
804.3324	5005
806.7393	4926
809.1456	4936
811.5513	5018
813.9562	4949
816.3625	4992
818.7663	4925
821.1693	4998
823.5718	5002
825.9735	5182
828.3746	4984
830.7771	4985
833.177	5028
835.5762	5068
837.9747	5141
840.3727	4985
842.772	5068
845.1666	5010
847.5626	5042
849.958	5112
852.3527	5265
854.7488	5181
857.1403	5027
859.5331	5205
861.9253	5057
864.3168	5082
866.7057	5112
869.098	5157
871.4876	5188
873.8746	5022
876.263	5114
878.6487	5055
881.0378	5011
883.4243	5112
885.8081	5064
888.1933	5075
890.5759	5040
892.9598	5087
895.343	5128
897.7256	5219
900.1057	5029
902.4871	5076
904.8659	5131
907.246	5157
909.6254	5281
912.0023	5299
914.3786	5192
916.7562	5242
919.1331	5256
921.5074	5388
923.8831	5459
926.2562	5376
928.6287	5353
931.0005	5283
933.3757	5396
935.7462	5243
938.1162	5329
940.4855	5355
942.8542	5323
945.2242	5417
947.5916	5370
949.9584	5366
952.3266	5506
954.6921	5440
957.0571	5599
959.4233	5653
961.787	5607
964.15	5620
966.5125	5607
968.8742	5564
971.2354	5474
973.5959	5455
975.9559	5448
978.3151	5301
980.6738	5337
983.0338	5330
985.3912	5326
987.7461	5262
990.1022	5231
992.4578	5229
994.8127	5258
997.1689	5331
999.5207	5250
1001.874	5308
1004.226	5247
1006.576	5228
1008.929	5377
1011.28	5370
1013.628	5328
1015.977	5273
1018.324	5255
1020.674	5342
1023.019	5222
1025.366	5385
1027.713	5274
1030.056	5362
1032.399	5373
1034.746	5305
1037.087	5361
1039.431	5398
1041.771	5391
1044.113	5395
1046.454	5312
1048.793	5369
1051.133	5349
1053.471	5290
1055.807	5395
1058.146	5364
1060.483	5329
1062.818	5386
1065.153	5396
1067.489	5382
1069.822	5421
1072.156	5279
1074.488	5416
1076.82	5403
1079.15	5381
1081.48	5398
1083.814	5430
1086.143	5366
1088.471	5454
1090.799	5531
1093.126	5342
1095.452	5419
1097.78	5412
1100.105	5436
1102.43	5509
1104.754	5449
1107.077	5464
1109.4	5481
1111.722	5449
1114.044	5480
1116.365	5538
1118.685	5513
1121.005	5503
1123.324	5543
1125.643	5382
1127.961	5437
1130.278	5568
1132.595	5581
1134.911	5442
1137.226	5427
1139.541	5541
1141.854	5438
1144.167	5405
1146.482	5542
1148.793	5453
1151.105	5497
1153.414	5528
1155.725	5520
1158.033	5477
1160.344	5512
1162.651	5533
1164.959	5435
1167.265	5432
1169.572	5553
1171.878	5505
1174.184	5435
1176.488	5393
1178.79	5471
1181.094	5576
1183.396	5432
1185.699	5565
1188.001	5507
1190.301	5490
1192.6	5519
1194.9	5493
1197.2	5540
1199.497	5498
1201.794	5550
1204.09	5518
1206.387	5558
1208.684	5546
1210.978	5570
1213.272	5614
1215.565	5619
1217.858	5552
1220.15	5547
1222.443	5510
1224.734	5610
1227.024	5714
1229.313	5631
1231.602	5658
1233.892	5669
1236.18	5735
1238.467	5576
1240.754	5681
1243.04	5786
1245.325	5630
1247.612	5689
1249.896	5715
1252.178	5728
1254.461	5705
1256.743	5823
1259.027	5742
1261.308	5715
1263.587	5687
1265.867	5700
1268.146	5704
1270.425	5753
1272.703	5717
1274.981	5635
1277.256	5820
1279.532	5695
1281.808	5719
1284.083	5568
1286.358	5712
1288.63	5781
1290.904	5525
1293.175	5680
1295.449	5695
1297.719	5646
1299.99	5601
1302.259	5644
1304.529	5596
1306.798	5597
1309.065	5663
1311.333	5749
1313.599	5748
1315.866	5660
1318.131	5565
1320.396	5588
1322.66	5703
1324.925	5695
1327.187	5783
1329.448	5752
1331.711	5866
1333.974	5823
1336.234	5678
1338.493	5814
1340.752	5747
1343.01	5724
1345.269	5701
1347.526	5804
1349.784	5594
1352.04	5708
1354.295	5617
1356.552	5647
1358.806	5628
1361.059	5696
1363.312	5632
1365.564	5676
1367.818	5807
1370.069	5715
1372.318	5747
1374.568	5665
1376.817	5746
1379.066	5748
1381.316	5750
1383.564	5679
1385.809	5797
1388.056	5815
1390.301	5794
1392.549	5713
1394.793	5881
1397.036	5877
1399.279	5905
1401.522	5859
1403.763	5957
1406.007	5931
1408.248	5811
1410.487	5886
1412.727	5936
1414.965	5894
1417.205	5918
1419.442	5946
1421.68	5797
1423.915	5831
1426.152	5815
1428.388	5895
1430.623	5758
1432.857	5878
1435.091	5893
1437.323	5952
1439.556	5876
1441.789	5916
1444.019	6011
1446.25	5919
1448.48	5840
1450.708	5961
1452.938	5986
1455.167	6093
1457.394	5971
1459.62	5931
1461.846	5939
1464.073	5966
1466.299	5922
1468.523	6031
1470.746	5860
1472.969	5948
1475.191	5765
1477.415	5925
1479.636	5777
1481.858	5918
1484.078	5836
1486.298	5796
1488.518	5792
1490.736	5750
1492.954	5784
1495.169	5830
1497.386	5673
1499.602	5806
1501.819	5785
1504.034	5742
1506.248	5767
1508.462	5713
1510.675	5713
1512.888	5706
1515.1	5708
1517.311	5808
1519.522	5699
1521.732	5729
1523.942	5731
1526.151	5784
1528.36	5794
1530.566	5692
1532.773	5787
1534.98	5811
1537.187	5750
1539.392	5808
1541.596	5776
1543.801	5773
1546.005	5808
1548.208	5801
1550.411	5812
1552.612	5779
1554.814	5796
1557.013	5854
1559.212	5874
1561.414	5901
1563.612	5808
1565.811	5807
1568.007	5866
1570.203	5938
1572.403	5833
1574.598	5978
1576.792	5804
1578.988	5909
1581.181	5795
1583.376	5865
1585.568	5955
1587.761	5941
1589.952	5989
1592.143	5895
1594.333	5922
1596.524	5903
1598.715	5972
1600.903	5954
1603.091	5969
1605.278	5992
1607.466	5999
1609.652	6047
1611.838	5964
1614.023	5981
1616.207	5924
1618.391	5965
1620.576	5942
1622.759	6098
1624.941	5974
1627.123	5850
1629.304	6069
1631.484	5968
1633.664	6043
1635.844	6098
1638.022	6075
1640.201	5887
1642.38	6124
1644.556	6015
1646.732	6076
1648.908	5897
1651.084	6000
1653.257	5971
1655.433	6078
1657.607	5958
1659.779	5952
1661.951	5916
1664.122	5976
1666.295	5987
1668.467	5975
1670.635	5925
1672.805	6110
1674.973	5996
1677.142	6018
1679.31	5963
1681.478	5965
1683.644	6063
1685.81	5945
1687.975	6140
1690.142	5935
1692.305	6064
1694.468	5992
1696.632	6078
1698.794	6012
1700.957	5905
1703.119	5871
1705.279	5940
1707.439	5941
1709.598	6007
1711.758	5999
1713.917	5906
1716.075	5928
1718.231	5948
1720.388	5937
1722.543	5913
1724.702	5839
1726.856	5895
1729.01	6026
1731.164	5893
1733.317	6008
1735.471	5990
1737.623	5908
1739.774	5911
1741.925	5927
1744.075	5815
1746.225	5943
1748.376	5853
1750.524	6049
1752.672	5997
1754.82	5889
1756.965	5976
1759.113	5976
1761.259	5930
1763.405	5946
1765.549	5866
1767.694	6079
1769.836	5943
1771.981	5923
1774.123	6003
1776.264	6060
1778.405	5962
1780.546	6048
1782.687	5938
1784.827	5863
1786.966	5926
1789.103	6050
1791.242	6018
1793.381	5934
1795.517	6083
1797.653	6001
1799.788	5935
1801.923	5887
1804.057	5959
1806.193	6008
1808.326	5997
1810.457	6017
1812.59	5977
1814.721	5991
1816.855	5972
1818.984	5986
1821.113	5980
1823.244	6031
1825.372	5986
1827.499	5928
1829.63	5947
1831.756	5946
1833.882	5947
1836.007	5850
1838.132	5905
1840.26	5980
1842.384	5959
1844.507	5947
1846.63	5899
1848.752	5998
1850.875	5872
1852.996	5946
1855.118	5842
1857.238	5940
1859.358	5899
1861.477	5953
1863.597	6071
1865.715	5904
1867.832	5847
1869.948	5961
1872.064	5923
1874.181	5983
1876.297	5920
1878.411	6004
1880.526	5927
1882.639	5937
1884.752	5872
1886.865	5980
1888.977	5993
1891.089	6030
1893.2	5915
1895.308	5925
1897.42	5831
1899.53	5934
1901.639	5972
1903.745	5986
1905.853	5940
1907.962	5877
1910.067	5947
1912.174	5920
1914.278	6107
1916.383	6033
1918.486	6040
1920.592	6016
1922.694	5997
1924.797	5999
1926.898	6012
1929	6032
1931.102	5994
1933.203	6011
1935.301	5980
1937.401	6053
1939.499	6025
1941.598	6001
1943.697	6034
1945.793	5987
1947.888	6047
1949.985	6067
1952.08	6058
1954.176	6059
1956.269	6018
1958.364	6079
1960.457	6006
1962.549	6003
1964.642	5908
1966.733	5998
1968.823	5994
1970.913	5929
1973.005	6079
1975.093	5939
1977.184	6038
1979.271	5941
1981.359	5836
1983.446	5860
1985.532	5965
1987.619	6018
1989.705	5969
1991.789	5979
1993.874	5951
1995.956	5906
1998.041	5986
2000.123	5879
2002.206	5953
2004.287	5999
2006.368	5905
2008.449	5870
2010.529	5950
2012.609	5930
2014.688	5999
2016.766	5982
2018.843	6043
2020.922	5871
2022.999	6083
2025.074	5887
2027.15	5957
2029.225	5984
2031.299	5925
2033.375	6069
2035.447	5936
2037.52	5937
2039.592	5859
2041.664	6010
2043.736	5923
2045.807	5941
2047.876	5897
2049.947	5939
2052.015	5921
2054.086	5971
2056.153	5912
2058.221	5909
2060.288	5939
2062.353	6041
2064.42	5968
2066.486	5976
2068.55	6039
2070.614	5878
2072.678	5988
2074.741	5852
2076.805	5927
2078.866	5958
2080.929	5959
2082.99	5908
2085.049	6011
2087.109	5975
2089.17	5887
2091.228	5870
2093.286	5927
2095.344	5941
2097.4	5934
2099.46	5897
2101.516	5998
2103.572	5980
2105.626	5973
2107.679	5944
2109.735	5855
2111.788	5905
2113.841	6008
2115.894	5939
2117.945	5949
2119.997	6035
2122.049	5931
2124.1	5895
2126.148	5847
2128.197	6012
2130.246	5954
2132.296	5920
2134.342	6054
2136.39	6024
2138.437	6039
2140.483	5971
2142.527	5924
2144.574	5885
2146.619	5813
2148.661	5974
2150.705	5963
2152.747	5906
2154.792	5888
2156.832	5901
2158.874	5947
2160.915	5890
2162.954	5921
2164.995	5901
2167.034	5830
2169.072	5908
2171.111	5901
2173.148	5817
2175.186	5814
2177.223	5786
2179.258	5867
2181.294	5858
2183.328	5808
2185.362	5820
2187.398	5789
2189.431	5766
2191.463	5807
2193.495	5856
2195.528	5820
2197.56	5921
2199.59	5815
2201.62	5706
2203.649	5840
2205.678	5785
2207.708	5717
2209.737	5791
2211.764	5810
2213.791	5708
2215.817	5804
2217.843	5817
2219.87	5754
2221.895	5739
2223.919	5790
2225.942	5798
2227.966	5799
2229.988	5754
2232.012	5783
2234.032	5766
2236.054	5798
2238.074	5752
2240.095	5817
2242.116	5807
2244.135	5726
2246.153	5790
2248.171	5678
2250.188	5764
2252.208	5717
2254.223	5732
2256.239	5729
2258.255	5714
2260.269	5829
2262.283	5752
2264.3	5659
2266.312	5850
2268.325	5755
2270.336	5733
2272.349	5783
2274.362	5704
2276.372	5735
2278.383	5816
2280.392	5713
2282.402	5829
2284.409	5809
2286.418	5749
2288.427	5741
2290.433	5804
2292.441	5694
2294.446	5717
2296.453	5652
2298.459	5762
2300.463	5760
2302.466	5793
2304.471	5663
2306.475	5733
2308.477	5766
2310.478	5779
2312.481	5782
2314.481	5694
2316.481	5706
2318.482	5640
2320.482	5755
2322.48	5541
2324.48	5780
2326.478	5659
2328.476	5655
2330.473	5703
2332.469	5678
2334.465	5780
2336.46	5644
2338.454	5630
2340.45	5629
2342.444	5594
2344.437	5619
2346.43	5816
2348.421	5589
2350.414	5726
2352.405	5634
2354.396	5573
2356.386	5543
2358.376	5559
2360.366	5608
2362.355	5613
2364.343	5708
2366.331	5656
2368.317	5594
2370.304	5552
2372.292	5675
2374.278	5643
2376.262	5623
2378.247	5592
2380.23	5745
2382.216	5615
2384.199	5543
2386.181	5535
2388.163	5585
2390.144	5554
2392.127	5613
2394.107	5584
2396.087	5695
2398.066	5577
2400.046	5638
2402.023	5564
2404.004	5470
2405.981	5629
2407.957	5587
2409.934	5470
2411.91	5684
2413.886	5578
2415.862	5569
2417.836	5613
2419.809	5507
2421.784	5500
2423.756	5508
2425.73	5561
2427.701	5494
2429.672	5601
2431.644	5521
2433.615	5512
2435.586	5547
2437.555	5475
2439.523	5490
2441.491	5479
2443.459	5517
2445.428	5461
2447.395	5484
2449.361	5493
2451.327	5526
2453.292	5489
2455.257	5525
2457.223	5501
2459.187	5527
2461.15	5449
2463.113	5588
2465.076	5511
2467.039	5523
2468.999	5472
2470.96	5460
2472.921	5424
2474.881	5521
2476.841	5436
2478.8	5527
2480.759	5470
2482.717	5422
2484.675	5518
2486.63	5459
2488.589	5475
2490.545	5427
2492.5	5431
2494.455	5501
2496.408	5532
2498.364	5435
2500.318	5468
2502.27	5355
2504.223	5428
2506.174	5417
2508.126	5445
2510.078	5356
2512.03	5449
2513.979	5554
2515.927	5404
2517.877	5529
2519.826	5573
2521.775	5356
2523.722	5453
2525.668	5473
2527.616	5400
2529.561	5409
2531.508	5455
2533.452	5378
2535.398	5401
2537.342	5406
2539.284	5314
2541.229	5421
2543.173	5370
2545.114	5301
2547.055	5477
2548.996	5427
2550.938	5423
2552.878	5405
2554.817	5351
2556.756	5427
2558.695	5394
2560.633	5394
2562.572	5501
2564.509	5469
2566.445	5404
2568.382	5431
2570.317	5406
2572.254	5354
2574.189	5418
2576.123	5432
2578.057	5360
2579.99	5294
2581.923	5384
2583.855	5428
2585.788	5396
2587.719	5356
2589.65	5353
2591.579	5504
2593.511	5359
2595.44	5347
2597.37	5407
2599.297	5348
2601.225	5311
2603.153	5407
2605.08	5422
2607.007	5411
2608.932	5368
2610.858	5410
2612.782	5415
2614.709	5361
2616.632	5394
2618.556	5346
2620.478	5404
2622.401	5317
2624.324	5470
2626.247	5394
2628.167	5383
2630.088	5433
2632.008	5353
2633.928	5365
2635.848	5260
2637.766	5430
2639.684	5517
2641.603	5495
2643.519	5447
2645.437	5434
2647.353	5318
2649.27	5463
2651.184	5351
2653.099	5480
2655.014	5444
2656.928	5329
2658.842	5383
2660.755	5327
2662.667	5362
2664.579	5294
2666.491	5349
2668.402	5455
2670.312	5379
2672.222	5327
2674.132	5361
2676.042	5277
2677.951	5395
2679.859	5346
2681.766	5361
2683.674	5360
2685.582	5348
2687.488	5308
2689.392	5290
2691.298	5275
2693.202	5276
2695.107	5220
2697.012	5380
2698.914	5493
2700.817	5327
2702.72	5216
2704.622	5260
2706.524	5314
2708.425	5283
2710.326	5272
2712.225	5309
2714.125	5178
2716.024	5274
2717.923	5215
2719.822	5210
2721.719	5213
2723.616	5254
2725.512	5300
2727.41	5249
2729.305	5207
2731.201	5277
2733.095	5210
2734.99	5272
2736.884	5240
2738.778	5272
2740.67	5217
2742.562	5235
2744.455	5325
2746.346	5260
2748.238	5258
2750.129	5338
2752.018	5300
2753.907	5236
2755.797	5386
2757.687	5153
2759.575	5201
2761.462	5170
2763.349	5214
2765.237	5261
2767.124	5061
2769.009	5114
2770.894	5282
2772.779	5133
2774.663	5097
2776.547	5129
2778.431	5113
2780.314	5231
2782.197	5233
2784.078	5158
2785.96	5156
2787.842	5183
2789.723	5244
2791.603	5116
2793.483	5150
2795.362	5068
2797.241	5157
2799.121	5095
2800.997	5201
2802.874	5217
2804.751	5201
2806.628	5120
2808.506	5153
2810.38	5248
2812.255	5128
2814.13	5130
2816.003	5165
2817.878	5171
2819.752	5132
2821.623	5122
2823.496	5115
2825.368	5109
2827.238	5116
2829.111	5020
2830.98	5095
2832.851	5038
2834.719	5207
2836.589	5098
2838.458	5101
2840.327	5113
2842.193	5199
2844.061	5147
2845.927	5174
2847.794	5141
2849.66	5182
2851.525	5124
2853.39	5144
2855.254	5024
2857.117	5230
2858.983	5112
2860.845	5097
2862.707	5234
2864.569	5225
2866.431	5134
2868.293	5140
2870.154	5196
2872.013	5252
2873.873	5229
2875.733	5336
2877.592	5205
2879.451	5269
2881.309	5327
2883.166	5299
2885.022	5352
2886.879	5423
2888.736	5363
2890.591	5268
2892.446	5473
2894.301	5491
2896.155	5481
2898.009	5351
2899.863	5341
2901.716	5379
2903.568	5415
2905.419	5393
2907.27	5328
2909.123	5451
2910.973	5410
2912.824	5360
2914.673	5424
2916.521	5345
2918.372	5381
2920.22	5507
2922.067	5427
2923.914	5509
2925.761	5445
2927.607	5490
2929.455	5491
2931.301	5483
2933.144	5467
2934.99	5557
2936.833	5608
2938.678	5493
2940.522	5728
2942.364	5661
2944.207	5654
2946.048	5749
2947.891	5611
2949.731	5743
2951.571	5781
2953.412	5717
2955.25	5619
2957.09	5672
2958.93	5649
2960.767	5687
2962.606	5589
2964.443	5593
2966.279	5516
2968.116	5427
2969.953	5528
2971.788	5412
2973.623	5352
2975.457	5343
2977.292	5366
2979.127	5246
2980.959	5309
2982.792	5111
2984.624	5168
2986.455	5260
2988.288	5298
2990.119	5155
2991.949	5155
2993.779	5135
2995.608	5157
2997.439	5207
2999.268	5138
3001.096	5024
3002.923	5021
3004.751	5053
3006.578	5071
3008.406	5022
3010.232	4975
3012.057	4919
3013.883	4948
3015.706	4990
3017.532	4953
3019.356	4857
3021.179	4871
3023.002	4899
3024.823	4916
3026.646	4951
3028.469	4835
3030.289	4838
3032.11	4877
3033.93	4983
3035.749	4854
3037.57	4805
3039.39	4822
3041.207	4803
3043.026	4830
3044.842	4869
3046.661	4804
3048.477	4758
3050.294	4699
3052.109	4810
3053.925	4891
3055.739	4850
3057.555	4762
3059.368	4803
3061.181	4724
3062.995	4785
3064.807	4748
3066.62	4712
3068.433	4797
3070.243	4758
3072.054	4713
3073.865	4687
3075.675	4681
3077.485	4752
3079.293	4700
3081.102	4715
3082.911	4737
3084.719	4598
3086.527	4666
3088.333	4646
3090.139	4660
3091.945	4581
3093.75	4721
3095.557	4616
3097.361	4677
3099.165	4665
3100.969	4638
3102.772	4662
3104.575	4639
3106.379	4694
3108.181	4658
3109.982	4687
3111.783	4579
3113.584	4594
3115.386	4606
3117.186	4637
3118.985	4606
3120.783	4572
3122.582	4605
3124.381	4554
3126.179	4601
3127.975	4592
3129.772	4611
3131.569	4629
3133.365	4515
3135.161	4620
3136.956	4579
3138.751	4565
3140.544	4610
3142.338	4500
3144.132	4454
3145.925	4487
3147.717	4517
3149.509	4505
3151.301	4588
3153.091	4538
3154.884	4517
3156.673	4467
3158.462	4416
3160.252	4536
3162.041	4469
3163.831	4543
3165.618	4513
3167.405	4464
3169.193	4507
3170.979	4508
3172.767	4437
3174.553	4383
3176.338	4493
3178.123	4442
3179.907	4410
3181.692	4520
3183.477	4500
3185.259	4351
3187.042	4457
3188.824	4410
3190.607	4473
3192.389	4441
3194.17	4456
3195.951	4409
3197.73	4382
3199.51	4473
3201.289	4398
3203.07	4448
3204.848	4436
3206.626	4261
3208.403	4497
3210.18	4436
3211.959	4418
3213.735	4428
3215.511	4378
3217.285	4398
3219.06	4338
3220.836	4395
3222.611	4239
3224.384	4447
3226.158	4441
3227.929	4329
3229.702	4415
3231.476	4399
3233.248	4260
3235.018	4441
3236.789	4423
3238.56	4312
3240.33	4312
3242.1	4313
3243.869	4292
3245.637	4275
3247.405	4337
3249.172	4488
3250.941	4314
3252.707	4309
3254.474	4415
3256.24	4451
3258.006	4251
3259.772	4359
3261.537	4368
3263.301	4418
3265.065	4416
3266.828	4308
3268.592	4371
3270.355	4343
3272.117	4324
3273.878	4388
3275.64	4414
3277.401	4332
3279.162	4230
3280.922	4250
3282.682	4415
3284.441	4391
3286.199	4262
3287.959	4410
3289.716	4311
3291.475	4356
3293.232	4314
3294.988	4271
3296.744	4435
3298.501	4411
3300.256	4336
3302.011	4338
3303.766	4252
3305.52	4256
3307.275	4313
3309.028	4232
3310.781	4201
3312.533	4326
3314.285	4316
3316.038	4359
3317.789	4319
3319.54	4269
3321.289	4317
3323.039	4295
3324.789	4229
3326.539	4348
3328.288	4262
3330.035	4259
3331.783	4234
3333.531	4303
3335.28	4283
3337.025	4232
3338.771	4232
3340.518	4280
3342.262	4240
3344.009	4303
3345.753	4293
3347.497	4223
3349.24	4150
3350.983	4232
3352.726	4259
3354.469	4257
3356.212	4199
3357.952	4247
3359.694	4186
3361.434	4231
3363.176	4162
3364.916	4220
3366.654	4227
3368.394	4146
3370.132	4164
3371.871	4244
3373.61	4150
3375.346	4267
3377.083	4124
3378.82	4172
3380.556	4136
3382.292	4270
3384.027	4169
3385.763	4254
3387.497	4228
3389.231	4060
3390.965	4122
3392.698	4199
3394.431	4166
3396.164	4100
3397.896	4171
3399.627	4132
3401.36	4167
3403.09	4127
3404.82	4151
3406.55	4135
3408.279	4184
3410.01	4118
3411.738	4111
3413.467	4106
3415.194	4076
3416.92	4123
3418.647	4099
3420.375	4058
3422.102	4061
3423.827	4080
3425.553	4101
3427.277	4079
3429.003	4126
3430.727	4147
3432.451	4121
3434.173	4043
3435.896	4061
3437.62	3960
3439.343	4031
3441.063	4106
3442.785	4015
3444.505	3950
3446.226	3983
3447.948	3951
3449.666	4037
3451.386	4036
3453.104	3914
3454.823	3962
3456.541	4055
3458.259	3959
3459.976	3944
3461.693	3974
3463.408	4026
3465.125	4033
3466.841	3952
3468.556	3931
3470.271	3997
3471.985	3924
3473.698	3886
3475.414	3958
3477.126	3907
3478.838	3865
3480.55	3921
3482.263	3903
3483.975	4046
3485.686	3911
3487.396	3857
3489.106	3906
3490.817	3922
3492.526	3876
3494.236	3840
3495.944	3820
3497.652	3894
3499.359	3898
3501.066	3890
3502.775	3839
3504.481	3887
3506.187	3896
3507.893	3850
3509.598	3826
3511.304	3926
3513.009	3815
3514.713	3873
3516.417	3875
3518.12	3823
3519.821	3835
3521.525	3847
3523.228	3832
3524.929	3818
3526.631	3779
3528.33	3841
3530.032	3825
3531.733	3846
3533.433	3778
3535.131	3828
3536.83	3751
3538.529	3777
3540.227	3751
3541.925	3728
3543.623	3765
3545.319	3855
3547.016	3780
3548.712	3799
3550.408	3740
3552.103	3741
3553.798	3818
3555.491	3775
3557.188	3800
3558.88	3727
3560.574	3754
3562.266	3769
3563.959	3794
3565.651	3797
3567.343	3746
3569.035	3662
3570.725	3762
3572.415	3742
3574.106	3764
3575.797	3729
3577.485	3645
3579.174	3691
3580.863	3736
3582.551	3758
3584.238	3756
3585.926	3690
3587.613	3665
3589.3	3704
3590.986	3677
3592.671	3760
3594.357	3762
3596.042	3619
3597.726	3662
3599.41	3685
3601.094	3708
3602.778	3614
3604.461	3579
3606.143	3633
3607.825	3669
3609.507	3707
3611.188	3599
3612.87	3624
3614.551	3637
3616.229	3691
3617.909	3629
3619.589	3635
3621.269	3593
3622.948	3581
3624.625	3539
3626.302	3597
3627.98	3609
3629.657	3582
3631.334	3608
3633.01	3644
3634.686	3597
3636.361	3633
3638.036	3601
3639.712	3497
3641.385	3566
3643.06	3499
3644.732	3610
3646.405	3528
3648.08	3518
3649.751	3529
3651.424	3573
3653.094	3559
3654.766	3540
3656.436	3533
3658.106	3512
3659.777	3626
3661.446	3519
3663.115	3465
3664.783	3563
3666.452	3492
3668.121	3488
3669.788	3480
3671.454	3486
3673.121	3532
3674.789	3476
3676.455	3532
3678.12	3489
3679.784	3500
3681.45	3480
3683.114	3441
3684.779	3520
3686.442	3442
3688.105	3466
3689.768	3514
3691.43	3496
3693.093	3382
3694.754	3409
3696.415	3445
3698.076	3501
3699.736	3483
3701.396	3477
3703.057	3407
3704.716	3394
3706.375	3426
3708.034	3470
3709.692	3412
3711.351	3461
3713.008	3406
3714.665	3408
3716.321	3401
3717.977	3424
3719.634	3381
3721.29	3405
3722.945	3421
3724.598	3398
3726.253	3409
3727.907	3438
3729.561	3349
3731.214	3467
3732.867	3382
3734.518	3333
3736.171	3376
3737.824	3364
3739.474	3401
3741.125	3356
3742.775	3314
3744.425	3377
3746.074	3385
3747.725	3284
3749.373	3343
3751.022	3370
3752.669	3387
3754.318	3427
3755.966	3322
3757.612	3438
3759.259	3379
3760.905	3349
3762.55	3393
3764.197	3383
3765.842	3333
3767.486	3365
3769.131	3234
3770.774	3313
3772.417	3245
3774.061	3333
3775.705	3280
3777.347	3305
3778.988	3317
3780.629	3249
3782.271	3372
3783.912	3226
3785.552	3345
3787.192	3246
3788.831	3224
3790.472	3321
3792.112	3228
3793.75	3293
3795.388	3309
3797.024	3259
3798.661	3265
3800.3	3324
3801.936	3295
3803.572	3241
3805.208	3214
3806.844	3219
3808.48	3278
3810.115	3274
3811.748	3195
3813.382	3166
3815.016	3242
3816.649	3217
3818.283	3212
3819.914	3134
3821.547	3221
3823.178	3266
3824.809	3212
3826.441	3162
3828.072	3250
3829.701	3183
3831.331	3240
3832.96	3167
3834.591	3299
3836.219	3243
3837.847	3243
3839.475	3239
3841.102	3226
3842.729	3150
3844.357	3199
3845.984	3169
3847.609	3148
3849.234	3140
3850.86	3236
3852.485	3057
3854.11	3183
3855.734	3204
3857.357	3155
3858.981	3095
3860.603	3115
3862.227	3149
3863.848	3186
3865.471	3196
3867.092	3177
3868.713	3169
3870.334	3120
3871.954	3146
3873.575	3135
3875.194	3133
3876.813	3137
3878.433	3064
3880.051	3075
3881.669	3126
3883.286	3047
3884.904	3066
3886.52	3072
3888.138	3067
3889.754	3101
3891.37	3123
3892.985	3071
3894.6	3112
3896.216	3085
3897.831	3009
3899.444	3052
3901.058	3108
3902.67	3086
3904.283	3084
3905.897	3047
3907.509	3034
3909.121	3099
3910.731	3064
3912.342	3070
3913.954	3073
3915.563	3038
3917.174	3041
3918.783	3089
3920.391	3046
3922.002	3078
3923.611	3117
3925.218	3034
3926.826	3076
3928.432	3059
3930.039	3104
3931.647	3000
3933.253	3042
3934.859	3035
3936.464	3051
3938.068	3011
3939.675	2987
3941.278	3062
3942.883	3039
3944.486	3066
3946.089	2994
3947.692	3040
3949.295	3106
3950.898	3041
3952.499	3010
3954.1	3023
3955.7	3008
3957.303	2909
3958.903	2979
3960.502	3018
3962.101	2977
3963.7	3018
3965.301	3006
3966.899	2944
3968.497	3039
3970.094	2983
3971.691	2923
3973.288	3012
3974.885	2983
3976.481	3018
3978.077	2947
3979.672	2919
3981.267	2953
3982.863	2990
3984.457	2956
3986.051	2967
3987.645	2902
3989.238	2945
3990.831	2925
3992.425	2896
3994.017	2911
3995.607	2952
3997.199	2893
3998.79	2920
4000.382	2885
4001.973	2901
4003.561	2862
4005.151	2903
4006.741	2879
4008.331	2860
4009.918	2810
4011.507	2868
4013.095	2923
4014.681	2869
4016.269	2914
4017.856	2802
4019.443	2883
4021.028	2911
4022.614	2900
4024.199	2911
4025.785	2786
4027.37	2862
4028.953	2857
4030.536	2823
4032.12	2841
4033.704	2816
4035.287	2780
4036.869	2816
4038.45	2886
4040.032	2830
4041.613	2792
4043.195	2772
4044.776	2872
4046.356	2819
4047.935	2832
4049.515	2857
4051.095	2802
4052.674	2838
4054.251	2746
4055.829	2716
4057.406	2762
4058.985	2744
4060.562	2803
4062.139	2789
4063.715	2806
4065.29	2723
4066.865	2820
4068.442	2738
4070.016	2772
4071.59	2803
4073.164	2717
4074.738	2786
4076.312	2771
4077.885	2735
4079.458	2754
4081.03	2700
4082.602	2793
4084.173	2727
4085.745	2677
4087.315	2764
4088.886	2715
4090.456	2692
4092.026	2817
4093.596	2761
4095.165	2779
4096.734	2763
4098.301	2753
4099.869	2727
4101.437	2734
4103.006	2770
4104.572	2725
4106.139	2721
4107.704	2704
4109.27	2679
4110.837	2655
4112.401	2719
4113.966	2718
4115.53	2732
4117.094	2746
4118.659	2733
4120.223	2719
4121.785	2702
4123.347	2672
4124.909	2643
4126.471	2650
4128.034	2699
4129.595	2707
4131.155	2650
4132.716	2689
4134.275	2679
4135.836	2615
4137.395	2635
4138.955	2629
4140.513	2642
4142.071	2663
4143.628	2644
4145.188	2635
4146.745	2593
4148.302	2668
4149.858	2644
4151.414	2576
4152.971	2626
4154.526	2690
4156.081	2567
4157.635	2593
4159.189	2604
4160.745	2588
4162.298	2569
4163.852	2608
4165.405	2599
4166.957	2596
4168.51	2562
4170.063	2603
4171.614	2608
4173.166	2596
4174.717	2569
4176.267	2581
4177.817	2585
4179.368	2578
4180.917	2547
4182.466	2505
4184.016	2477
4185.564	2555
4187.112	2568
4188.66	2522
4190.207	2563
4191.754	2487
4193.301	2599
4194.848	2536
4196.394	2511
4197.94	2568
4199.484	2494
4201.03	2576
4202.575	2502
4204.12	2509
4205.663	2567
4207.207	2506
4208.75	2404
4210.292	2523
4211.836	2556
4213.378	2470
4214.92	2487
4216.46	2486
4218.002	2510
4219.544	2475
4221.083	2463
4222.625	2499
4224.164	2472
4225.703	2481
4227.244	2534
4228.782	2520
4230.32	2500
4231.857	2439
4233.395	2458
4234.933	2471
4236.471	2476
4238.007	2472
4239.542	2478
4241.078	2461
4242.614	2426
4244.15	2498
4245.685	2434
4247.219	2437
4248.753	2457
4250.287	2421
4251.82	2403
4253.354	2503
4254.887	2414
4256.419	2398
4257.951	2444
4259.483	2455
4261.016	2481
4262.547	2409
4264.078	2439
4265.608	2484
4267.137	2497
4268.668	2458
4270.197	2461
4271.727	2382
4273.254	2410
4274.783	2393
4276.311	2379
4277.84	2428
4279.366	2387
4280.894	2401
4282.42	2395
4283.946	2452
4285.473	2392
4286.998	2406
4288.523	2439
4290.047	2434
4291.572	2368
4293.096	2425
4294.622	2398
4296.144	2391
4297.668	2400
4299.19	2341
4300.713	2383
4302.236	2371
4303.758	2375
4305.279	2463
4306.799	2360
4308.321	2299
4309.842	2331
4311.361	2361
4312.882	2363
4314.401	2344
