400.0961	4187
402.6185	4158
405.1424	4142
407.6635	4158
410.1838	4279
412.7035	4220
415.2225	4308
417.7388	4327
420.2585	4342
422.7754	4353
425.2917	4430
427.8072	4514
430.3221	4524
432.8363	4570
435.3498	4522
437.8626	4533
440.3727	4547
442.8841	4441
445.3969	4584
447.907	4447
450.4142	4582
452.9229	4574
455.4289	4339
457.9362	4475
460.4449	4436
462.9488	4487
465.454	4521
467.9566	4461
470.4604	4423
472.9637	4442
475.4662	4458
477.966	4489
480.4671	4513
482.9656	4479
485.4633	4515
487.9645	4589
490.4608	4484
492.9566	4565
495.4536	4535
497.948	4482
500.4437	4542
502.9387	4464
505.431	4510
507.9226	4528
510.4136	4568
512.9079	4525
515.3975	4660
517.8864	4623
520.3746	4624
522.8622	4652
525.3491	4634
527.8394	4677
530.3249	4692
532.8098	4674
535.2939	4649
537.7774	4661
540.2623	4735
542.7444	4665
545.2259	4755
547.7067	4711
550.1868	4653
552.6683	4651
555.147	4634
557.6231	4598
560.1005	4723
562.5773	4778
565.0534	4729
567.5308	4720
570.0056	4747
572.4776	4785
574.951	4728
577.4237	4834
579.8978	4693
582.3671	4826
584.8378	4876
587.3079	4850
589.7773	4836
592.244	4916
594.714	4771
597.1793	4956
599.6461	4955
602.1121	4849
604.5754	4750
607.0421	4856
609.5042	4767
611.9675	4849
614.4282	4863
616.8902	4853
619.3515	4789
621.8122	4794
624.2702	4791
626.7296	4791
629.1863	4830
631.6423	4678
634.1017	4749
636.5563	4792
639.0104	4754
641.4658	4808
643.9185	4717
646.3725	4816
648.8239	4870
651.2766	4850
653.7266	4842
656.176	4842
658.6247	4913
661.0748	4803
663.5242	4814
665.9709	4847
668.417	4868
670.8624	4824
673.3092	4860
675.7533	4942
678.1968	5007
680.6395	4879
683.0817	4913
685.5251	4939
687.9659	4968
690.4061	5078
692.8456	4971
695.2844	4931
697.7226	4997
700.1621	5010
702.599	4893
705.0332	5009
707.4688	5018
709.9036	5110
712.3399	5056
714.7735	5020
717.2044	5108
719.6367	5125
722.0683	5111
724.4993	5140
726.9296	5179
729.3593	5158
731.7883	5155
734.2147	5166
736.6423	5209
739.0714	5117
741.4958	5169
743.9216	5169
746.3447	5179
748.7691	5273
751.1929	5169
753.616	5264
756.0366	5317
758.4584	5223
760.8776	5428
763.2982	5304
765.718	5334
768.1373	5412
770.5539	5358
772.9698	5286
775.3871	5190
777.8038	5361
780.2178	5273
782.6332	5300
785.0459	5394
787.458	5353
789.8714	5350
792.2842	5419
794.6943	5283
797.1038	5345
799.5127	5307
801.9209	5323
804.3324	5294
806.7393	5415
809.1456	5281
811.5513	5365
813.9562	5503
816.3625	5434
818.7663	5338
821.1693	5427
823.5718	5401
825.9735	5397
828.3746	5376
830.7771	5501
833.177	5440
835.5762	5340
837.9747	5545
840.3727	5410
842.772	5455
845.1666	5505
847.5626	5525
849.958	5638
852.3527	5631
854.7488	5592
857.1403	5588
859.5331	5700
861.9253	5653
864.3168	5566
866.7057	5443
869.098	5527
871.4876	5653
873.8746	5566
876.263	5632
878.6487	5498
881.0378	5583
883.4243	5450
885.8081	5434
888.1933	5531
890.5759	5472
892.9598	5540
895.343	5476
897.7256	5560
900.1057	5586
902.4871	5567
904.8659	5616
907.246	5657
909.6254	5603
912.0023	5634
914.3786	5777
916.7562	5852
919.1331	5837
921.5074	5948
923.8831	6034
926.2562	6066
928.6287	5972
931.0005	5973
933.3757	5956
935.7462	6048
938.1162	5848
940.4855	5994
942.8542	6127
945.2242	5983
947.5916	6189
949.9584	6239
952.3266	6421
954.6921	6641
957.0571	6940
959.4233	7090
961.787	7221
964.15	7112
966.5125	7111
968.8742	6775
971.2354	6474
973.5959	6407
975.9559	6217
978.3151	5910
980.6738	5984
983.0338	5863
985.3912	5772
987.7461	5910
990.1022	5769
992.4578	5856
994.8127	5801
997.1689	5787
999.5207	5752
1001.874	5768
1004.226	5805
1006.576	5783
1008.929	5792
1011.28	5775
1013.628	5761
1015.977	5774
1018.324	5796
1020.674	5747
1023.019	5722
1025.366	5821
1027.713	5765
1030.056	5907
1032.399	5739
1034.746	5945
1037.087	5890
1039.431	5934
1041.771	5904
1044.113	5890
1046.454	5833
1048.793	5908
1051.133	5896
1053.471	5889
1055.807	5913
1058.146	5936
1060.483	5901
1062.818	5928
1065.153	5977
1067.489	5977
1069.822	5954
1072.156	6008
1074.488	6026
1076.82	6092
1079.15	5996
1081.48	6055
1083.814	5970
1086.143	5947
1088.471	5950
1090.799	5884
1093.126	5860
1095.452	5906
1097.78	5842
1100.105	5959
1102.43	5988
1104.754	5930
1107.077	5990
1109.4	5945
1111.722	5908
1114.044	6060
1116.365	5944
1118.685	5902
1121.005	5935
1123.324	5992
1125.643	5962
1127.961	5960
1130.278	5959
1132.595	5945
1134.911	5896
1137.226	5867
1139.541	5932
1141.854	5897
1144.167	5841
1146.482	5944
1148.793	5862
1151.105	5905
1153.414	5850
1155.725	5907
1158.033	5861
1160.344	5988
1162.651	5967
1164.959	5886
1167.265	6037
1169.572	5898
1171.878	5959
1174.184	5999
1176.488	5926
1178.79	5943
1181.094	6021
1183.396	6005
1185.699	5888
1188.001	5902
1190.301	5821
1192.6	5924
1194.9	5922
1197.2	5957
1199.497	5933
1201.794	6036
1204.09	5949
1206.387	5911
1208.684	5827
1210.978	6010
1213.272	5998
1215.565	5947
1217.858	6044
1220.15	5918
1222.443	6004
1224.734	5879
1227.024	5959
1229.313	5978
1231.602	6041
1233.892	6090
1236.18	6135
1238.467	6195
1240.754	6205
1243.04	6179
1245.325	6215
1247.612	6141
1249.896	6271
1252.178	6327
1254.461	6264
1256.743	6255
1259.027	6326
1261.308	6298
1263.587	6304
1265.867	6180
1268.146	6284
1270.425	6287
1272.703	6299
1274.981	6227
1277.256	6147
1279.532	6222
1281.808	6301
1284.083	6196
1286.358	6166
1288.63	6117
1290.904	6160
1293.175	6188
1295.449	6021
1297.719	6039
1299.99	6148
1302.259	6162
1304.529	6082
1306.798	6133
1309.065	6198
1311.333	6210
1313.599	6194
1315.866	6207
1318.131	6093
1320.396	6242
1322.66	6138
1324.925	6155
1327.187	6192
1329.448	6198
1331.711	6239
1333.974	6309
1336.234	6261
1338.493	6255
1340.752	6214
1343.01	6083
1345.269	6253
1347.526	6156
1349.784	6147
1352.04	6244
1354.295	6062
1356.552	6072
1358.806	5988
1361.059	6141
1363.312	6033
1365.564	6180
1367.818	6144
1370.069	6203
1372.318	6253
1374.568	6072
1376.817	6404
1379.066	6186
1381.316	6193
1383.564	6328
1385.809	6345
1388.056	6228
1390.301	6290
1392.549	6404
1394.793	6328
1397.036	6616
1399.279	6485
1401.522	6519
1403.763	6525
1406.007	6529
1408.248	6482
1410.487	6509
1412.727	6521
1414.965	6534
1417.205	6462
1419.442	6413
1421.68	6446
1423.915	6447
1426.152	6385
1428.388	6381
1430.623	6475
1432.857	6441
1435.091	6578
1437.323	6507
1439.556	6514
1441.789	6575
1444.019	6528
1446.25	6531
1448.48	6450
1450.708	6591
1452.938	6696
1455.167	6673
1457.394	6713
1459.62	6581
1461.846	6648
1464.073	6514
1466.299	6505
1468.523	6363
1470.746	6424
1472.969	6375
1475.191	6239
1477.415	6195
1479.636	6333
1481.858	6175
1484.078	6210
1486.298	6211
1488.518	6218
1490.736	6115
1492.954	6167
1495.169	6113
1497.386	6157
1499.602	6092
1501.819	6047
1504.034	6194
1506.248	6103
1508.462	6112
1510.675	6119
1512.888	6153
1515.1	6023
1517.311	6145
1519.522	6077
1521.732	5973
1523.942	6133
1526.151	6087
1528.36	6105
1530.566	6117
1532.773	6094
1534.98	6110
1537.187	6123
1539.392	6080
1541.596	6172
1543.801	6005
1546.005	6197
1548.208	6336
1550.411	6143
1552.612	6240
1554.814	6137
1557.013	6229
1559.212	6316
1561.414	6210
1563.612	6089
1565.811	6289
1568.007	6231
1570.203	6236
1572.403	6235
1574.598	6274
1576.792	6204
1578.988	6324
1581.181	6265
1583.376	6256
1585.568	6266
1587.761	6260
1589.952	6321
1592.143	6223
1594.333	6293
1596.524	6258
1598.715	6350
1600.903	6284
1603.091	6275
1605.278	6303
1607.466	6384
1609.652	6328
1611.838	6399
1614.023	6471
1616.207	6195
1618.391	6422
1620.576	6364
1622.759	6365
1624.941	6485
1627.123	6351
1629.304	6333
1631.484	6467
1633.664	6398
1635.844	6455
1638.022	6479
1640.201	6461
1642.38	6502
1644.556	6507
1646.732	6480
1648.908	6492
1651.084	6580
1653.257	6491
1655.433	6565
1657.607	6468
1659.779	6521
1661.951	6391
1664.122	6551
1666.295	6485
1668.467	6523
1670.635	6497
1672.805	6745
1674.973	6563
1677.142	6547
1679.31	6536
1681.478	6600
1683.644	6526
1685.81	6555
1687.975	6485
1690.142	6448
1692.305	6398
1694.468	6494
1696.632	6422
1698.794	6488
1700.957	6403
1703.119	6488
1705.279	6271
1707.439	6317
1709.598	6385
1711.758	6273
1713.917	6282
1716.075	6400
1718.231	6235
1720.388	6332
1722.543	6291
1724.702	6337
1726.856	6239
1729.01	6369
1731.164	6296
1733.317	6153
1735.471	6313
1737.623	6292
1739.774	6344
1741.925	6331
1744.075	6295
1746.225	6228
1748.376	6315
1750.524	6306
1752.672	6352
1754.82	6350
1756.965	6305
1759.113	6412
1761.259	6312
1763.405	6345
1765.549	6371
1767.694	6320
1769.836	6319
1771.981	6379
1774.123	6385
1776.264	6367
1778.405	6394
1780.546	6432
1782.687	6336
1784.827	6238
1786.966	6348
1789.103	6385
1791.242	6390
1793.381	6262
1795.517	6389
1797.653	6311
1799.788	6419
1801.923	6328
1804.057	6323
1806.193	6377
1808.326	6513
1810.457	6423
1812.59	6345
1814.721	6447
1816.855	6315
1818.984	6285
1821.113	6267
1823.244	6399
1825.372	6416
1827.499	6382
1829.63	6424
1831.756	6237
1833.882	6398
1836.007	6379
1838.132	6327
1840.26	6278
1842.384	6324
1844.507	6257
1846.63	6341
1848.752	6310
1850.875	6203
1852.996	6356
1855.118	6387
1857.238	6273
1859.358	6225
1861.477	6284
1863.597	6301
1865.715	6261
1867.832	6273
1869.948	6363
1872.064	6241
1874.181	6231
1876.297	6217
1878.411	6173
1880.526	6303
1882.639	6275
1884.752	6339
1886.865	6292
1888.977	6187
1891.089	6354
1893.2	6345
1895.308	6291
1897.42	6319
1899.53	6371
1901.639	6325
1903.745	6238
1905.853	6427
1907.962	6269
1910.067	6318
1912.174	6396
1914.278	6345
1916.383	6371
1918.486	6353
1920.592	6452
1922.694	6349
1924.797	6384
1926.898	6338
1929	6400
1931.102	6518
1933.203	6525
1935.301	6450
1937.401	6361
1939.499	6468
1941.598	6284
1943.697	6322
1945.793	6363
1947.888	6419
1949.985	6372
1952.08	6432
1954.176	6408
1956.269	6376
1958.364	6313
1960.457	6333
1962.549	6332
1964.642	6367
1966.733	6386
1968.823	6375
1970.913	6424
1973.005	6352
1975.093	6333
1977.184	6405
1979.271	6403
1981.359	6332
1983.446	6437
1985.532	6373
1987.619	6445
1989.705	6466
1991.789	6407
1993.874	6357
1995.956	6405
1998.041	6368
2000.123	6412
2002.206	6316
2004.287	6366
2006.368	6366
2008.449	6259
2010.529	6373
2012.609	6424
2014.688	6266
2016.766	6436
2018.843	6311
2020.922	6387
2022.999	6344
2025.074	6325
2027.15	6262
2029.225	6281
2031.299	6318
2033.375	6391
2035.447	6309
2037.52	6258
2039.592	6323
2041.664	6309
2043.736	6323
2045.807	6388
2047.876	6238
2049.947	6256
2052.015	6453
2054.086	6271
2056.153	6431
2058.221	6358
2060.288	6287
2062.353	6286
2064.42	6311
2066.486	6293
2068.55	6341
2070.614	6357
2072.678	6340
2074.741	6380
2076.805	6274
2078.866	6426
2080.929	6271
2082.99	6363
2085.049	6345
2087.109	6271
2089.17	6388
2091.228	6316
2093.286	6352
2095.344	6453
2097.4	6239
2099.46	6228
2101.516	6245
2103.572	6280
2105.626	6241
2107.679	6311
2109.735	6378
2111.788	6393
2113.841	6292
2115.894	6370
2117.945	6314
2119.997	6353
2122.049	6151
2124.1	6365
2126.148	6288
2128.197	6366
2130.246	6281
2132.296	6347
2134.342	6266
2136.39	6274
2138.437	6312
2140.483	6285
2142.527	6358
2144.574	6297
2146.619	6307
2148.661	6335
2150.705	6240
2152.747	6264
2154.792	6294
2156.832	6318
2158.874	6275
2160.915	6312
2162.954	6296
2164.995	6381
2167.034	6245
2169.072	6203
2171.111	6355
2173.148	6292
2175.186	6184
2177.223	6252
2179.258	6231
2181.294	6291
2183.328	6215
2185.362	6270
2187.398	6131
2189.431	6168
2191.463	6073
2193.495	6165
2195.528	6274
2197.56	6196
2199.59	6138
2201.62	6250
2203.649	6136
2205.678	6198
2207.708	6139
2209.737	6249
2211.764	6071
2213.791	6160
2215.817	6202
2217.843	6041
2219.87	6108
2221.895	6189
2223.919	6187
2225.942	6246
2227.966	6070
2229.988	6093
2232.012	6244
2234.032	6159
2236.054	6127
2238.074	5995
2240.095	6169
2242.116	6164
2244.135	6064
2246.153	6218
2248.171	6084
2250.188	6181
2252.208	6154
2254.223	6093
2256.239	6018
2258.255	6112
2260.269	6176
2262.283	6136
2264.3	6160
2266.312	6078
2268.325	6282
2270.336	6131
2272.349	6147
2274.362	6051
2276.372	6095
2278.383	6091
2280.392	6138
2282.402	6056
2284.409	6286
2286.418	6097
2288.427	6095
2290.433	6181
2292.441	6062
2294.446	6153
2296.453	6172
2298.459	6200
2300.463	6075
2302.466	6134
2304.471	6017
2306.475	6167
2308.477	6048
2310.478	6128
2312.481	6108
2314.481	6111
2316.481	6054
2318.482	6086
2320.482	6162
2322.48	6070
2324.48	6107
2326.478	6087
2328.476	6042
2330.473	6082
2332.469	6044
2334.465	6041
2336.46	6117
2338.454	6053
2340.45	6043
2342.444	6091
2344.437	6025
2346.43	6107
2348.421	5920
2350.414	6085
2352.405	6020
2354.396	6000
2356.386	6025
2358.376	5933
2360.366	5897
2362.355	5919
2364.343	5996
2366.331	6039
2368.317	6135
2370.304	6037
2372.292	5943
2374.278	5972
2376.262	5971
2378.247	5937
2380.23	5901
2382.216	5979
2384.199	6011
2386.181	6007
2388.163	6001
2390.144	5912
2392.127	5971
2394.107	5910
2396.087	5998
2398.066	5845
2400.046	5819
2402.023	5943
2404.004	5938
2405.981	5865
2407.957	5856
2409.934	5854
2411.91	5857
2413.886	5809
2415.862	5959
2417.836	5831
2419.809	5929
2421.784	5829
2423.756	5907
2425.73	5723
2427.701	5943
2429.672	5957
2431.644	5911
2433.615	5930
2435.586	5850
2437.555	6006
2439.523	5895
2441.491	5851
2443.459	5926
2445.428	5927
2447.395	5855
2449.361	5879
2451.327	5831
2453.292	5737
2455.257	5847
2457.223	6027
2459.187	5906
2461.15	6006
2463.113	5858
2465.076	5872
2467.039	5911
2468.999	5878
2470.96	5900
2472.921	5856
2474.881	5864
2476.841	5805
2478.8	5888
2480.759	5880
2482.717	5654
2484.675	5837
2486.63	5837
2488.589	5823
2490.545	5878
2492.5	5688
2494.455	5884
2496.408	5838
2498.364	5798
2500.318	5762
2502.27	5869
2504.223	5740
2506.174	5872
2508.126	5879
2510.078	5768
2512.03	5843
2513.979	5800
2515.927	5781
2517.877	5843
2519.826	5732
2521.775	5673
2523.722	5697
2525.668	5780
2527.616	5862
2529.561	5728
2531.508	5704
2533.452	5747
2535.398	5801
2537.342	5693
2539.284	5756
2541.229	5744
2543.173	5749
2545.114	5801
2547.055	5723
2548.996	5693
2550.938	5747
2552.878	5687
2554.817	5821
2556.756	5817
2558.695	5667
2560.633	5768
2562.572	5712
2564.509	5863
2566.445	5761
2568.382	5767
2570.317	5647
2572.254	5757
2574.189	5800
2576.123	5651
2578.057	5813
2579.99	5665
2581.923	5650
2583.855	5720
2585.788	5757
2587.719	5709
2589.65	5776
2591.579	5717
2593.511	5728
2595.44	5868
2597.37	5714
2599.297	5791
2601.225	5748
2603.153	5667
2605.08	5750
2607.007	5664
2608.932	5754
2610.858	5808
2612.782	5757
2614.709	5751
2616.632	5751
2618.556	5730
2620.478	5830
2622.401	5819
2624.324	5772
2626.247	5766
2628.167	5918
2630.088	5852
2632.008	5789
2633.928	5652
2635.848	5816
2637.766	5827
2639.684	5816
2641.603	5730
2643.519	5814
2645.437	5709
2647.353	5825
2649.27	5650
2651.184	5747
2653.099	5698
2655.014	5729
2656.928	5832
2658.842	5750
2660.755	5791
2662.667	5740
2664.579	5679
2666.491	5679
2668.402	5685
2670.312	5789
2672.222	5717
2674.132	5691
2676.042	5728
2677.951	5658
2679.859	5738
2681.766	5697
2683.674	5715
2685.582	5691
2687.488	5711
2689.392	5675
2691.298	5750
2693.202	5639
2695.107	5649
2697.012	5620
2698.914	5678
2700.817	5661
2702.72	5737
2704.622	5721
2706.524	5610
2708.425	5609
2710.326	5660
2712.225	5602
2714.125	5619
2716.024	5574
2717.923	5523
2719.822	5636
2721.719	5662
2723.616	5584
2725.512	5594
2727.41	5601
2729.305	5577
2731.201	5686
2733.095	5753
2734.99	5686
2736.884	5614
2738.778	5614
2740.67	5645
2742.562	5757
2744.455	5690
2746.346	5560
2748.238	5598
2750.129	5587
2752.018	5501
2753.907	5552
2755.797	5602
2757.687	5558
2759.575	5643
2761.462	5589
2763.349	5444
2765.237	5629
2767.124	5505
2769.009	5606
2770.894	5621
2772.779	5623
2774.663	5573
2776.547	5682
2778.431	5540
2780.314	5503
2782.197	5550
2784.078	5590
2785.96	5662
2787.842	5603
2789.723	5629
2791.603	5609
2793.483	5521
2795.362	5528
2797.241	5598
2799.121	5474
2800.997	5524
2802.874	5602
2804.751	5547
2806.628	5557
2808.506	5583
2810.38	5591
2812.255	5476
2814.13	5602
2816.003	5678
2817.878	5567
2819.752	5568
2821.623	5569
2823.496	5486
2825.368	5616
2827.238	5598
2829.111	5539
2830.98	5519
2832.851	5559
2834.719	5586
2836.589	5530
2838.458	5622
2840.327	5616
2842.193	5667
2844.061	5534
2845.927	5725
2847.794	5722
2849.66	5680
2851.525	5625
2853.39	5748
2855.254	5756
2857.117	5704
2858.983	5721
2860.845	5793
2862.707	5822
2864.569	5830
2866.431	5805
2868.293	5893
2870.154	5852
2872.013	6053
2873.873	6008
2875.733	6179
2877.592	6182
2879.451	6187
2881.309	6274
2883.166	6302
2885.022	6449
2886.879	6446
2888.736	6400
2890.591	6353
2892.446	6624
2894.301	6415
2896.155	6439
2898.009	6481
2899.863	6319
2901.716	6301
2903.568	6395
2905.419	6225
2907.27	6356
2909.123	6338
2910.973	6371
2912.824	6441
2914.673	6502
2916.521	6692
2918.372	6554
2920.22	6712
2922.067	6632
2923.914	6808
2925.761	6856
2927.607	6851
2929.455	6817
2931.301	6982
2933.144	6981
2934.99	7040
2936.833	7040
2938.678	7066
2940.522	7204
2942.364	7354
2944.207	7516
2946.048	7549
2947.891	7612
2949.731	7555
2951.571	7580
2953.412	7626
2955.25	7531
2957.09	7450
2958.93	7347
2960.767	7304
2962.606	7141
2964.443	7194
2966.279	7173
2968.116	6931
2969.953	6911
2971.788	6813
2973.623	6733
2975.457	6666
2977.292	6694
2979.127	6516
2980.959	6437
2982.792	6314
2984.624	6371
2986.455	6426
2988.288	6256
2990.119	6103
2991.949	6095
2993.779	6186
2995.608	6028
2997.439	5978
2999.268	5944
3001.096	5940
3002.923	6027
3004.751	5799
3006.578	5779
3008.406	5728
3010.232	5690
3012.057	5677
3013.883	5645
3015.706	5601
3017.532	5588
3019.356	5527
3021.179	5495
3023.002	5484
3024.823	5474
3026.646	5518
3028.469	5388
3030.289	5386
3032.11	5325
3033.93	5390
3035.749	5416
3037.57	5307
3039.39	5329
3041.207	5429
3043.026	5379
3044.842	5329
3046.661	5318
3048.477	5364
3050.294	5340
3052.109	5304
3053.925	5260
3055.739	5322
3057.555	5266
3059.368	5238
3061.181	5303
3062.995	5462
3064.807	5355
3066.62	5270
3068.433	5282
3070.243	5248
3072.054	5175
3073.865	5264
3075.675	5340
3077.485	5220
3079.293	5210
3081.102	5187
3082.911	5310
3084.719	5201
3086.527	5237
3088.333	5243
3090.139	5132
3091.945	5176
3093.75	5181
3095.557	5151
3097.361	5047
3099.165	5225
3100.969	5094
3102.772	5076
3104.575	5095
3106.379	5167
3108.181	5079
3109.982	5137
3111.783	5081
3113.584	5136
3115.386	5127
3117.186	5085
3118.985	5015
3120.783	5125
3122.582	5046
3124.381	5060
3126.179	5089
3127.975	5003
3129.772	5008
3131.569	5072
3133.365	5079
3135.161	4944
3136.956	5065
3138.751	4994
3140.544	4965
3142.338	4958
3144.132	4971
3145.925	5015
3147.717	4976
3149.509	5067
3151.301	4970
3153.091	4975
3154.884	4976
3156.673	4969
3158.462	4904
3160.252	4922
3162.041	5009
3163.831	4948
3165.618	4995
3167.405	4924
3169.193	4850
3170.979	4997
3172.767	4948
3174.553	4961
3176.338	4979
3178.123	4956
3179.907	5022
3181.692	4955
3183.477	4981
3185.259	4895
3187.042	4915
3188.824	4827
3190.607	5045
3192.389	4906
3194.17	4920
3195.951	4868
3197.73	4999
3199.51	4926
3201.289	4945
3203.07	4921
3204.848	4936
3206.626	4930
3208.403	4964
3210.18	4927
3211.959	4937
3213.735	4972
3215.511	4915
3217.285	5011
3219.06	4969
3220.836	4926
3222.611	4834
3224.384	4931
3226.158	4900
3227.929	4975
3229.702	4841
3231.476	4931
3233.248	4900
3235.018	4911
3236.789	4904
3238.56	4909
3240.33	4949
3242.1	4944
3243.869	4934
3245.637	4862
3247.405	4894
3249.172	4949
3250.941	4935
3252.707	4953
3254.474	4991
3256.24	4947
3258.006	4947
3259.772	4945
3261.537	4946
3263.301	5009
3265.065	4861
3266.828	4918
3268.592	4887
3270.355	4862
3272.117	4830
3273.878	4877
3275.64	4967
3277.401	4898
3279.162	4992
3280.922	4936
3282.682	4807
3284.441	4885
3286.199	4889
3287.959	4996
3289.716	4942
3291.475	4852
3293.232	4812
3294.988	4961
3296.744	4873
3298.501	4975
3300.256	4942
3302.011	4875
3303.766	4947
3305.52	4927
3307.275	4845
3309.028	4893
3310.781	4969
3312.533	4865
3314.285	4942
3316.038	4853
3317.789	4852
3319.54	4892
3321.289	4889
3323.039	4900
3324.789	4911
3326.539	4841
3328.288	4822
3330.035	4880
3331.783	4847
3333.531	4942
3335.28	4874
3337.025	4877
3338.771	4878
3340.518	4864
3342.262	4869
3344.009	4862
3345.753	4849
3347.497	4767
3349.24	4749
3350.983	4821
3352.726	4767
3354.469	4774
3356.212	4776
3357.952	4825
3359.694	4811
3361.434	4761
3363.176	4786
3364.916	4768
3366.654	4740
3368.394	4782
3370.132	4792
3371.871	4786
3373.61	4799
3375.346	4761
3377.083	4717
3378.82	4784
3380.556	4729
3382.292	4748
3384.027	4679
3385.763	4733
3387.497	4734
3389.231	4657
3390.965	4757
3392.698	4676
3394.431	4729
3396.164	4687
3397.896	4689
3399.627	4708
3401.36	4704
3403.09	4683
3404.82	4686
3406.55	4633
3408.279	4602
3410.01	4618
3411.738	4606
3413.467	4617
3415.194	4680
3416.92	4688
3418.647	4648
3420.375	4592
3422.102	4642
3423.827	4584
3425.553	4653
3427.277	4615
3429.003	4586
3430.727	4657
3432.451	4702
3434.173	4502
3435.896	4596
3437.62	4574
3439.343	4577
3441.063	4618
3442.785	4501
3444.505	4474
3446.226	4504
3447.948	4535
3449.666	4465
3451.386	4515
3453.104	4421
3454.823	4486
3456.541	4507
3458.259	4496
3459.976	4505
3461.693	4460
3463.408	4447
3465.125	4452
3466.841	4406
3468.556	4424
3470.271	4466
3471.985	4433
3473.698	4447
3475.414	4446
3477.126	4391
3478.838	4387
3480.55	4435
3482.263	4421
3483.975	4461
3485.686	4388
3487.396	4319
3489.106	4362
3490.817	4296
3492.526	4339
3494.236	4308
3495.944	4379
3497.652	4367
3499.359	4311
3501.066	4221
3502.775	4349
3504.481	4357
3506.187	4342
3507.893	4265
3509.598	4169
3511.304	4286
3513.009	4321
3514.713	4257
3516.417	4181
3518.12	4328
3519.821	4155
3521.525	4214
3523.228	4219
3524.929	4244
3526.631	4222
3528.33	4172
3530.032	4200
3531.733	4247
3533.433	4269
3535.131	4139
3536.83	4123
3538.529	4176
3540.227	4154
3541.925	4169
3543.623	4108
3545.319	4156
3547.016	4215
3548.712	4186
3550.408	4123
3552.103	4191
3553.798	4218
3555.491	4144
3557.188	4138
3558.88	4160
3560.574	4131
3562.266	4117
3563.959	4151
3565.651	4171
3567.343	4092
3569.035	4040
3570.725	4055
3572.415	4148
3574.106	4094
3575.797	4106
3577.485	4045
3579.174	3955
3580.863	4020
3582.551	3948
3584.238	4057
3585.926	4016
3587.613	3954
3589.3	3985
3590.986	3982
3592.671	3995
3594.357	4011
3596.042	4017
3597.726	4005
3599.41	3936
3601.094	3997
3602.778	3947
3604.461	3974
3606.143	3897
3607.825	3905
3609.507	3892
3611.188	3972
3612.87	3877
3614.551	3917
3616.229	3933
3617.909	3834
3619.589	3824
3621.269	3924
3622.948	3855
3624.625	3832
3626.302	3821
3627.98	3927
3629.657	3812
3631.334	3927
3633.01	3840
3634.686	3834
3636.361	3839
3638.036	3815
3639.712	3846
3641.385	3892
3643.06	3698
3644.732	3855
3646.405	3875
3648.08	3797
3649.751	3818
3651.424	3806
3653.094	3755
3654.766	3711
3656.436	3684
3658.106	3774
3659.777	3783
3661.446	3733
3663.115	3780
3664.783	3752
3666.452	3796
3668.121	3698
3669.788	3652
3671.454	3690
3673.121	3688
3674.789	3707
3676.455	3684
3678.12	3662
3679.784	3677
3681.45	3764
3683.114	3689
3684.779	3679
3686.442	3651
3688.105	3729
3689.768	3720
3691.43	3641
3693.093	3709
3694.754	3609
3696.415	3613
3698.076	3662
3699.736	3751
3701.396	3641
3703.057	3644
3704.716	3651
3706.375	3632
3708.034	3620
3709.692	3646
3711.351	3661
3713.008	3635
3714.665	3700
3716.321	3651
3717.977	3549
3719.634	3566
3721.29	3611
3722.945	3625
3724.598	3557
3726.253	3571
3727.907	3627
3729.561	3653
3731.214	3543
3732.867	3592
3734.518	3614
3736.171	3501
3737.824	3614
3739.474	3604
3741.125	3559
3742.775	3637
3744.425	3640
3746.074	3531
3747.725	3613
3749.373	3515
3751.022	3416
3752.669	3549
3754.318	3592
3755.966	3576
3757.612	3579
3759.259	3550
3760.905	3532
3762.55	3496
3764.197	3574
3765.842	3553
3767.486	3562
3769.131	3496
3770.774	3562
3772.417	3497
3774.061	3464
3775.705	3522
3777.347	3466
3778.988	3472
3780.629	3528
3782.271	3518
3783.912	3455
3785.552	3504
3787.192	3523
3788.831	3496
3790.472	3440
3792.112	3570
3793.75	3490
3795.388	3482
3797.024	3466
3798.661	3523
3800.3	3521
3801.936	3542
3803.572	3437
3805.208	3429
3806.844	3397
3808.48	3403
3810.115	3427
3811.748	3459
3813.382	3386
3815.016	3345
3816.649	3332
3818.283	3418
3819.914	3441
3821.547	3449
3823.178	3438
3824.809	3417
3826.441	3384
3828.072	3412
3829.701	3482
3831.331	3454
3832.96	3353
3834.591	3414
3836.219	3383
3837.847	3321
3839.475	3397
3841.102	3436
3842.729	3331
3844.357	3344
3845.984	3264
3847.609	3411
3849.234	3337
3850.86	3330
3852.485	3340
3854.11	3332
3855.734	3374
3857.357	3317
3858.981	3348
3860.603	3325
3862.227	3352
3863.848	3346
3865.471	3334
3867.092	3383
3868.713	3288
3870.334	3297
3871.954	3290
3873.575	3363
3875.194	3292
3876.813	3358
3878.433	3240
3880.051	3250
3881.669	3261
3883.286	3332
3884.904	3249
3886.52	3273
3888.138	3289
3889.754	3229
3891.37	3285
3892.985	3298
3894.6	3286
3896.216	3276
3897.831	3190
3899.444	3195
3901.058	3207
3902.67	3263
3904.283	3210
3905.897	3240
3907.509	3234
3909.121	3290
3910.731	3198
3912.342	3197
3913.954	3231
3915.563	3208
3917.174	3263
3918.783	3281
3920.391	3212
3922.002	3223
3923.611	3236
3925.218	3278
3926.826	3224
3928.432	3243
3930.039	3259
3931.647	3224
3933.253	3222
3934.859	3212
3936.464	3191
3938.068	3253
3939.675	3253
3941.278	3152
3942.883	3118
3944.486	3223
3946.089	3214
3947.692	3253
3949.295	3123
3950.898	3187
3952.499	3213
3954.1	3163
3955.7	3174
3957.303	3208
3958.903	3122
3960.502	3178
3962.101	3093
3963.7	3183
3965.301	3182
3966.899	3066
3968.497	3215
3970.094	3143
3971.691	3126
3973.288	3122
3974.885	3144
3976.481	3074
3978.077	3151
3979.672	3131
3981.267	3163
3982.863	3050
3984.457	3086
3986.051	3106
3987.645	2983
3989.238	3073
3990.831	3045
3992.425	3108
3994.017	3030
3995.607	3044
3997.199	3068
3998.79	3073
4000.382	3128
4001.973	3023
4003.561	2984
4005.151	2996
4006.741	3081
4008.331	2984
4009.918	3075
4011.507	3046
4013.095	3022
4014.681	3059
4016.269	3076
4017.856	3028
4019.443	2921
4021.028	3018
4022.614	2955
4024.199	2977
4025.785	2992
4027.37	2985
4028.953	3003
4030.536	3017
4032.12	2971
4033.704	3021
4035.287	2905
4036.869	3030
4038.45	2926
4040.032	2959
4041.613	2963
4043.195	3027
4044.776	3021
4046.356	2975
4047.935	2885
4049.515	2965
4051.095	2896
4052.674	2914
4054.251	2938
4055.829	2907
4057.406	2958
4058.985	2914
4060.562	2813
4062.139	2884
4063.715	2849
4065.29	2972
4066.865	2917
4068.442	2940
4070.016	2941
4071.59	2872
4073.164	2952
4074.738	2909
4076.312	2917
4077.885	2883
4079.458	2884
4081.03	2936
4082.602	2934
4084.173	2848
4085.745	2869
4087.315	2902
4088.886	2896
4090.456	2909
4092.026	2887
4093.596	2864
4095.165	2900
4096.734	2885
4098.301	2894
4099.869	2936
4101.437	2812
4103.006	2853
4104.572	2863
4106.139	2755
4107.704	2913
4109.27	2919
4110.837	2873
4112.401	2864
4113.966	2852
4115.53	2910
4117.094	2807
4118.659	2781
4120.223	2805
4121.785	2857
4123.347	2822
4124.909	2799
4126.471	2790
4128.034	2811
4129.595	2857
4131.155	2794
4132.716	2839
4134.275	2787
4135.836	2710
4137.395	2799
4138.955	2734
4140.513	2729
4142.071	2746
4143.628	2734
4145.188	2796
4146.745	2822
4148.302	2806
4149.858	2724
4151.414	2712
4152.971	2756
4154.526	2786
4156.081	2735
4157.635	2672
4159.189	2738
4160.745	2728
4162.298	2696
4163.852	2762
4165.405	2752
4166.957	2739
4168.51	2707
4170.063	2718
4171.614	2690
4173.166	2757
4174.717	2690
4176.267	2692
4177.817	2757
4179.368	2698
4180.917	2690
4182.466	2665
4184.016	2667
4185.564	2728
4187.112	2667
4188.66	2656
4190.207	2644
4191.754	2753
4193.301	2666
4194.848	2684
4196.394	2711
4197.94	2621
4199.484	2613
4201.03	2637
4202.575	2728
4204.12	2661
4205.663	2668
4207.207	2607
4208.75	2650
4210.292	2649
4211.836	2636
4213.378	2652
4214.92	2637
4216.46	2695
4218.002	2626
4219.544	2645
4221.083	2603
4222.625	2597
4224.164	2572
4225.703	2597
4227.244	2630
4228.782	2555
4230.32	2648
4231.857	2590
4233.395	2565
4234.933	2597
4236.471	2566
4238.007	2615
4239.542	2652
4241.078	2602
4242.614	2587
4244.15	2609
4245.685	2525
4247.219	2602
4248.753	2556
4250.287	2608
4251.82	2609
4253.354	2568
4254.887	2552
4256.419	2565
4257.951	2621
4259.483	2665
4261.016	2537
4262.547	2582
4264.078	2572
4265.608	2547
4267.137	2555
4268.668	2586
4270.197	2570
4271.727	2534
4273.254	2540
4274.783	2514
4276.311	2501
4277.84	2516
4279.366	2504
4280.894	2495
4282.42	2519
4283.946	2533
4285.473	2469
4286.998	2497
4288.523	2487
4290.047	2551
4291.572	2513
4293.096	2485
4294.622	2579
4296.144	2521
4297.668	2449
4299.19	2471
4300.713	2522
4302.236	2520
4303.758	2514
4305.279	2506
4306.799	2488
4308.321	2438
4309.842	2453
4311.361	2495
4312.882	2489
4314.401	2440
