400.0961	3982
402.6185	4124
405.1424	4047
407.6635	4018
410.1838	4019
412.7035	4050
415.2225	4076
417.7388	4060
420.2585	4167
422.7754	4087
425.2917	4175
427.8072	4267
430.3221	4299
432.8363	4366
435.3498	4279
437.8626	4318
440.3727	4240
442.8841	4375
445.3969	4247
447.907	4319
450.4142	4240
452.9229	4242
455.4289	4196
457.9362	4272
460.4449	4268
462.9488	4267
465.454	4235
467.9566	4215
470.4604	4321
472.9637	4188
475.4662	4282
477.966	4245
480.4671	4254
482.9656	4267
485.4633	4237
487.9645	4240
490.4608	4383
492.9566	4256
495.4536	4311
497.948	4324
500.4437	4321
502.9387	4363
505.431	4326
507.9226	4368
510.4136	4327
512.9079	4386
515.3975	4338
517.8864	4385
520.3746	4404
522.8622	4319
525.3491	4335
527.8394	4379
530.3249	4496
532.8098	4396
535.2939	4413
537.7774	4358
540.2623	4387
542.7444	4397
545.2259	4478
547.7067	4479
550.1868	4427
552.6683	4427
555.147	4465
557.6231	4447
560.1005	4438
562.5773	4551
565.0534	4435
567.5308	4509
570.0056	4537
572.4776	4547
574.951	4527
577.4237	4550
579.8978	4701
582.3671	4660
584.8378	4629
587.3079	4684
589.7773	4715
592.244	4740
594.714	4559
597.1793	4566
599.6461	4538
602.1121	4654
604.5754	4603
607.0421	4606
609.5042	4597
611.9675	4577
614.4282	4570
616.8902	4637
619.3515	4451
621.8122	4583
624.2702	4542
626.7296	4543
629.1863	4550
631.6423	4577
634.1017	4473
636.5563	4583
639.0104	4487
641.4658	4533
643.9185	4591
646.3725	4578
648.8239	4524
651.2766	4570
653.7266	4527
656.176	4613
658.6247	4649
661.0748	4691
663.5242	4603
665.9709	4686
668.417	4549
670.8624	4583
673.3092	4646
675.7533	4587
678.1968	4563
680.6395	4562
683.0817	4740
685.5251	4813
687.9659	4595
690.4061	4743
692.8456	4752
695.2844	4643
697.7226	4658
700.1621	4787
702.599	4662
705.0332	4803
707.4688	4739
709.9036	4809
712.3399	4826
714.7735	4810
717.2044	4803
719.6367	4866
722.0683	4954
724.4993	4784
726.9296	4868
729.3593	4810
731.7883	4825
734.2147	4975
736.6423	4868
739.0714	4904
741.4958	4855
743.9216	4928
746.3447	4890
748.7691	4869
751.1929	4899
753.616	4999
756.0366	5025
758.4584	5034
760.8776	4964
763.2982	4984
765.718	5167
768.1373	5024
770.5539	4984
772.9698	5077
775.3871	5047
777.8038	5064
780.2178	5007
782.6332	4924
785.0459	5042
787.458	5077
789.8714	5007
792.2842	4963
794.6943	5086
797.1038	5119
799.5127	5008
801.9209	5022
804.3324	4999
806.7393	5201
809.1456	4986
811.5513	5106
813.9562	5182
816.3625	5158
818.7663	5086
821.1693	5127
823.5718	5135
825.9735	5154
828.3746	5079
830.7771	5131
833.177	5121
835.5762	5140
837.9747	5098
840.3727	5144
842.772	5158
845.1666	5223
847.5626	5194
849.958	5221
852.3527	5273
854.7488	5278
857.1403	5349
859.5331	5319
861.9253	5213
864.3168	5297
866.7057	5209
869.098	5205
871.4876	5320
873.8746	5266
876.263	5266
878.6487	5330
881.0378	5254
883.4243	5240
885.8081	5262
888.1933	5268
890.5759	5206
892.9598	5224
895.343	5245
897.7256	5191
900.1057	5244
902.4871	5254
904.8659	5296
907.246	5315
909.6254	5374
912.0023	5401
914.3786	5366
916.7562	5622
919.1331	5612
921.5074	5754
923.8831	5705
926.2562	5807
928.6287	5727
931.0005	5761
933.3757	5617
935.7462	5701
938.1162	5746
940.4855	5660
942.8542	5721
945.2242	5766
947.5916	5810
949.9584	5967
952.3266	6144
954.6921	6315
957.0571	6572
959.4233	6706
961.787	6827
964.15	6946
966.5125	6924
968.8742	6555
971.2354	6205
973.5959	6021
975.9559	5836
978.3151	5726
980.6738	5638
983.0338	5573
985.3912	5517
987.7461	5470
990.1022	5491
992.4578	5450
994.8127	5441
997.1689	5509
999.5207	5483
1001.874	5583
1004.226	5547
1006.576	5504
1008.929	5522
1011.28	5436
1013.628	5462
1015.977	5386
1018.324	5493
1020.674	5502
1023.019	5417
1025.366	5450
1027.713	5501
1030.056	5518
1032.399	5530
1034.746	5584
1037.087	5568
1039.431	5524
1041.771	5625
1044.113	5519
1046.454	5540
1048.793	5611
1051.133	5601
1053.471	5629
1055.807	5617
1058.146	5710
1060.483	5641
1062.818	5643
1065.153	5616
1067.489	5814
1069.822	5744
1072.156	5662
1074.488	5752
1076.82	5739
1079.15	5600
1081.48	5645
1083.814	5618
1086.143	5695
1088.471	5537
1090.799	5593
1093.126	5560
1095.452	5582
1097.78	5575
1100.105	5538
1102.43	5595
1104.754	5628
1107.077	5609
1109.4	5725
1111.722	5650
1114.044	5541
1116.365	5638
1118.685	5538
1121.005	5533
1123.324	5664
1125.643	5628
1127.961	5662
1130.278	5580
1132.595	5643
1134.911	5581
1137.226	5669
1139.541	5524
1141.854	5530
1144.167	5512
1146.482	5555
1148.793	5605
1151.105	5620
1153.414	5601
1155.725	5601
1158.033	5598
1160.344	5512
1162.651	5525
1164.959	5515
1167.265	5493
1169.572	5632
1171.878	5598
1174.184	5650
1176.488	5604
1178.79	5646
1181.094	5670
1183.396	5727
1185.699	5653
1188.001	5707
1190.301	5547
1192.6	5604
1194.9	5585
1197.2	5602
1199.497	5615
1201.794	5674
1204.09	5610
1206.387	5677
1208.684	5583
1210.978	5690
1213.272	5602
1215.565	5656
1217.858	5668
1220.15	5754
1222.443	5711
1224.734	5680
1227.024	5663
1229.313	5731
1231.602	5755
1233.892	5815
1236.18	5795
1238.467	5868
1240.754	5851
1243.04	5890
1245.325	5892
1247.612	5984
1249.896	5921
1252.178	5995
1254.461	5973
1256.743	5910
1259.027	5928
1261.308	5841
1263.587	5888
1265.867	6019
1268.146	6019
1270.425	5931
1272.703	6073
1274.981	6020
1277.256	5994
1279.532	5946
1281.808	5940
1284.083	5863
1286.358	5810
1288.63	5811
1290.904	5726
1293.175	5796
1295.449	5938
1297.719	5790
1299.99	5861
1302.259	5746
1304.529	5828
1306.798	5835
1309.065	5771
1311.333	5849
1313.599	5856
1315.866	5899
1318.131	5888
1320.396	5909
1322.66	5829
1324.925	5792
1327.187	5876
1329.448	5927
1331.711	5940
1333.974	5916
1336.234	5883
1338.493	5940
1340.752	5885
1343.01	5883
1345.269	5795
1347.526	5708
1349.784	5767
1352.04	5761
1354.295	5765
1356.552	5709
1358.806	5816
1361.059	5948
1363.312	5804
1365.564	5854
1367.818	5926
1370.069	5920
1372.318	5837
1374.568	5814
1376.817	5804
1379.066	5854
1381.316	5916
1383.564	5951
1385.809	5864
1388.056	6064
1390.301	5813
1392.549	5956
1394.793	6284
1397.036	6222
1399.279	6283
1401.522	6196
1403.763	6269
1406.007	6200
1408.248	6299
1410.487	6171
1412.727	6098
1414.965	6176
1417.205	6121
1419.442	6077
1421.68	6188
1423.915	6006
1426.152	6097
1428.388	6053
1430.623	6034
1432.857	6085
1435.091	5998
1437.323	6194
1439.556	6295
1441.789	6233
1444.019	6163
1446.25	6168
1448.48	6325
1450.708	6194
1452.938	6191
1455.167	6275
1457.394	6140
1459.62	6261
1461.846	6262
1464.073	6220
1466.299	6187
1468.523	6017
1470.746	6079
1472.969	6027
1475.191	5951
1477.415	5910
1479.636	6022
1481.858	5873
1484.078	5937
1486.298	5908
1488.518	5896
1490.736	5745
1492.954	5822
1495.169	5835
1497.386	5770
1499.602	5815
1501.819	5766
1504.034	5782
1506.248	5731
1508.462	5815
1510.675	5729
1512.888	5790
1515.1	5734
1517.311	5805
1519.522	5774
1521.732	5785
1523.942	5792
1526.151	5706
1528.36	5757
1530.566	5785
1532.773	5776
1534.98	5693
1537.187	5708
1539.392	5896
1541.596	5779
1543.801	5785
1546.005	5864
1548.208	5768
1550.411	5853
1552.612	5819
1554.814	5873
1557.013	5830
1559.212	5904
1561.414	5876
1563.612	5830
1565.811	5944
1568.007	5911
1570.203	5864
1572.403	5861
1574.598	5963
1576.792	5978
1578.988	5850
1581.181	5820
1583.376	5882
1585.568	5959
1587.761	6055
1589.952	5975
1592.143	6029
1594.333	5996
1596.524	5905
1598.715	6038
1600.903	5976
1603.091	5918
1605.278	5988
1607.466	6086
1609.652	6058
1611.838	5997
1614.023	5908
1616.207	6128
1618.391	5895
1620.576	6074
1622.759	6064
1624.941	6047
1627.123	5985
1629.304	5950
1631.484	6117
1633.664	6171
1635.844	6167
1638.022	6026
1640.201	6144
1642.38	6145
1644.556	6132
1646.732	6117
1648.908	6050
1651.084	6185
1653.257	6095
1655.433	6159
1657.607	6222
1659.779	6188
1661.951	5991
1664.122	6202
1666.295	6164
1668.467	6192
1670.635	6231
1672.805	6211
1674.973	6265
1677.142	6194
1679.31	6265
1681.478	6104
1683.644	6242
1685.81	6152
1687.975	6090
1690.142	6039
1692.305	6161
1694.468	6119
1696.632	6083
1698.794	6133
1700.957	6070
1703.119	6030
1705.279	6002
1707.439	6014
1709.598	6078
1711.758	5974
1713.917	5815
1716.075	6002
1718.231	6045
1720.388	5906
1722.543	5881
1724.702	6138
1726.856	6019
1729.01	5856
1731.164	5873
1733.317	5919
1735.471	5960
1737.623	6022
1739.774	5999
1741.925	5923
1744.075	5964
1746.225	5933
1748.376	5909
1750.524	5988
1752.672	6065
1754.82	5928
1756.965	5936
1759.113	5992
1761.259	6024
1763.405	6009
1765.549	5970
1767.694	5889
1769.836	5989
1771.981	5957
1774.123	6014
1776.264	5969
1778.405	5940
1780.546	6015
1782.687	6049
1784.827	5865
1786.966	6070
1789.103	5987
1791.242	6078
1793.381	5983
1795.517	6047
1797.653	6129
1799.788	5956
1801.923	6043
1804.057	5980
1806.193	6085
1808.326	5945
1810.457	5893
1812.59	5990
1814.721	6189
1816.855	6003
1818.984	6028
1821.113	6014
1823.244	6003
1825.372	5978
1827.499	5961
1829.63	5998
1831.756	5989
1833.882	5948
1836.007	6008
1838.132	6059
1840.26	5928
1842.384	5990
1844.507	6000
1846.63	5963
1848.752	6074
1850.875	5929
1852.996	5853
1855.118	5920
1857.238	5949
1859.358	5936
1861.477	5972
1863.597	5919
1865.715	5964
1867.832	5895
1869.948	5901
1872.064	5948
1874.181	6033
1876.297	5842
1878.411	5894
1880.526	5884
1882.639	6036
1884.752	5983
1886.865	6003
1888.977	5938
1891.089	6009
1893.2	5962
1895.308	6021
1897.42	6001
1899.53	5939
1901.639	6064
1903.745	5970
1905.853	5901
1907.962	6054
1910.067	6063
1912.174	5999
1914.278	6057
1916.383	6151
1918.486	5921
1920.592	6026
1922.694	6065
1924.797	6009
1926.898	5968
1929	6130
1931.102	6034
1933.203	6005
1935.301	6070
1937.401	6056
1939.499	5972
1941.598	6126
1943.697	6038
1945.793	6035
1947.888	6071
1949.985	6092
1952.08	6137
1954.176	6013
1956.269	6032
1958.364	6066
1960.457	6077
1962.549	6113
1964.642	6040
1966.733	5968
1968.823	6066
1970.913	6054
1973.005	5989
1975.093	6050
1977.184	5924
1979.271	5949
1981.359	5995
1983.446	6023
1985.532	6007
1987.619	6017
1989.705	6019
1991.789	6075
1993.874	5968
1995.956	6058
1998.041	5978
2000.123	5935
2002.206	5952
2004.287	5902
2006.368	5930
2008.449	5906
2010.529	5997
2012.609	6079
2014.688	5948
2016.766	6008
2018.843	6002
2020.922	5930
2022.999	5859
2025.074	5961
2027.15	6046
2029.225	6064
2031.299	6059
2033.375	5962
2035.447	5985
2037.52	5939
2039.592	6110
2041.664	6055
2043.736	5977
2045.807	5968
2047.876	6041
2049.947	6022
2052.015	5959
2054.086	5901
2056.153	6036
2058.221	5975
2060.288	5937
2062.353	6036
2064.42	6069
2066.486	5999
2068.55	5966
2070.614	6013
2072.678	6054
2074.741	5986
2076.805	6003
2078.866	6047
2080.929	5946
2082.99	5952
2085.049	5989
2087.109	5947
2089.17	5887
2091.228	5957
2093.286	5982
2095.344	6067
2097.4	6025
2099.46	5998
2101.516	6028
2103.572	6010
2105.626	5924
2107.679	6016
2109.735	6103
2111.788	6026
2113.841	5981
2115.894	5946
2117.945	5907
2119.997	5962
2122.049	5995
2124.1	5840
2126.148	5926
2128.197	5944
2130.246	6004
2132.296	5806
2134.342	5855
2136.39	5965
2138.437	5981
2140.483	6023
2142.527	5891
2144.574	5975
2146.619	5984
2148.661	5923
2150.705	5962
2152.747	5931
2154.792	5819
2156.832	6026
2158.874	5882
2160.915	5915
2162.954	5905
2164.995	5963
2167.034	5941
2169.072	5939
2171.111	6049
2173.148	6022
2175.186	5960
2177.223	5853
2179.258	5873
2181.294	5949
2183.328	5906
2185.362	5830
2187.398	5893
2189.431	5911
2191.463	5924
2193.495	5856
2195.528	5824
2197.56	5814
2199.59	5822
2201.62	5890
2203.649	5822
2205.678	5844
2207.708	5812
2209.737	5836
2211.764	5842
2213.791	5867
2215.817	5808
2217.843	5858
2219.87	5740
2221.895	5896
2223.919	5796
2225.942	5925
2227.966	5779
2229.988	5743
2232.012	5903
2234.032	5919
2236.054	5852
2238.074	5738
2240.095	5832
2242.116	5865
2244.135	5748
2246.153	5802
2248.171	5770
2250.188	5874
2252.208	5707
2254.223	5785
2256.239	5832
2258.255	5829
2260.269	5724
2262.283	5835
2264.3	5840
2266.312	5780
2268.325	5834
2270.336	5885
2272.349	5835
2274.362	5769
2276.372	5846
2278.383	5854
2280.392	5675
2282.402	5802
2284.409	5849
2286.418	5788
2288.427	5851
2290.433	5807
2292.441	5823
2294.446	5720
2296.453	5769
2298.459	5790
2300.463	5811
2302.466	5799
2304.471	5781
2306.475	5791
2308.477	5813
2310.478	5768
2312.481	5738
2314.481	5741
2316.481	5764
2318.482	5719
2320.482	5768
2322.48	5770
2324.48	5800
2326.478	5716
2328.476	5692
2330.473	5741
2332.469	5791
2334.465	5673
2336.46	5802
2338.454	5565
2340.45	5768
2342.444	5711
2344.437	5611
2346.43	5820
2348.421	5651
2350.414	5626
2352.405	5651
2354.396	5790
2356.386	5653
2358.376	5651
2360.366	5717
2362.355	5726
2364.343	5669
2366.331	5737
2368.317	5708
2370.304	5695
2372.292	5650
2374.278	5639
2376.262	5613
2378.247	5553
2380.23	5596
2382.216	5684
2384.199	5727
2386.181	5654
2388.163	5671
2390.144	5557
2392.127	5616
2394.107	5648
2396.087	5611
2398.066	5554
2400.046	5608
2402.023	5628
2404.004	5574
2405.981	5573
2407.957	5606
2409.934	5629
2411.91	5560
2413.886	5652
2415.862	5582
2417.836	5593
2419.809	5621
2421.784	5574
2423.756	5576
2425.73	5511
2427.701	5574
2429.672	5644
2431.644	5682
2433.615	5541
2435.586	5673
2437.555	5557
2439.523	5630
2441.491	5686
2443.459	5617
2445.428	5670
2447.395	5552
2449.361	5609
2451.327	5605
2453.292	5551
2455.257	5486
2457.223	5528
2459.187	5632
2461.15	5540
2463.113	5595
2465.076	5596
2467.039	5678
2468.999	5562
2470.96	5459
2472.921	5539
2474.881	5630
2476.841	5635
2478.8	5555
2480.759	5591
2482.717	5518
2484.675	5535
2486.63	5519
2488.589	5571
2490.545	5525
2492.5	5488
2494.455	5483
2496.408	5548
2498.364	5471
2500.318	5366
2502.27	5484
2504.223	5499
2506.174	5546
2508.126	5436
2510.078	5485
2512.03	5412
2513.979	5455
2515.927	5476
2517.877	5413
2519.826	5411
2521.775	5456
2523.722	5518
2525.668	5570
2527.616	5523
2529.561	5492
2531.508	5505
2533.452	5445
2535.398	5470
2537.342	5406
2539.284	5437
2541.229	5570
2543.173	5504
2545.114	5391
2547.055	5480
2548.996	5431
2550.938	5378
2552.878	5414
2554.817	5508
2556.756	5340
2558.695	5480
2560.633	5436
2562.572	5445
2564.509	5439
2566.445	5434
2568.382	5483
2570.317	5456
2572.254	5404
2574.189	5505
2576.123	5542
2578.057	5489
2579.99	5405
2581.923	5337
2583.855	5431
2585.788	5391
2587.719	5377
2589.65	5498
2591.579	5474
2593.511	5422
2595.44	5432
2597.37	5489
2599.297	5614
2601.225	5606
2603.153	5445
2605.08	5433
2607.007	5463
2608.932	5520
2610.858	5470
2612.782	5377
2614.709	5361
2616.632	5477
2618.556	5512
2620.478	5522
2622.401	5549
2624.324	5587
2626.247	5437
2628.167	5395
2630.088	5446
2632.008	5391
2633.928	5454
2635.848	5446
2637.766	5434
2639.684	5469
2641.603	5406
2643.519	5447
2645.437	5498
2647.353	5480
2649.27	5465
2651.184	5575
2653.099	5471
2655.014	5442
2656.928	5535
2658.842	5521
2660.755	5311
2662.667	5478
2664.579	5444
2666.491	5481
2668.402	5405
2670.312	5407
2672.222	5368
2674.132	5373
2676.042	5459
2677.951	5404
2679.859	5412
2681.766	5357
2683.674	5504
2685.582	5399
2687.488	5282
2689.392	5392
2691.298	5333
2693.202	5335
2695.107	5308
2697.012	5454
2698.914	5426
2700.817	5371
2702.72	5376
2704.622	5404
2706.524	5360
2708.425	5273
2710.326	5416
2712.225	5280
2714.125	5340
2716.024	5404
2717.923	5388
2719.822	5446
2721.719	5380
2723.616	5265
2725.512	5328
2727.41	5286
2729.305	5431
2731.201	5331
2733.095	5335
2734.99	5305
2736.884	5337
2738.778	5373
2740.67	5406
2742.562	5329
2744.455	5302
2746.346	5367
2748.238	5276
2750.129	5265
2752.018	5358
2753.907	5366
2755.797	5297
2757.687	5272
2759.575	5437
2761.462	5306
2763.349	5239
2765.237	5367
2767.124	5240
2769.009	5327
2770.894	5379
2772.779	5301
2774.663	5384
2776.547	5295
2778.431	5310
2780.314	5297
2782.197	5348
2784.078	5345
2785.96	5333
2787.842	5326
2789.723	5359
2791.603	5325
2793.483	5212
2795.362	5310
2797.241	5346
2799.121	5323
2800.997	5234
2802.874	5363
2804.751	5255
2806.628	5286
2808.506	5325
2810.38	5234
2812.255	5317
2814.13	5239
2816.003	5299
2817.878	5310
2819.752	5267
2821.623	5347
2823.496	5361
2825.368	5340
2827.238	5287
2829.111	5280
2830.98	5346
2832.851	5292
2834.719	5306
2836.589	5274
2838.458	5273
2840.327	5285
2842.193	5402
2844.061	5380
2845.927	5322
2847.794	5328
2849.66	5297
2851.525	5376
2853.39	5425
2855.254	5450
2857.117	5518
2858.983	5450
2860.845	5556
2862.707	5518
2864.569	5646
2866.431	5584
2868.293	5581
2870.154	5616
2872.013	5871
2873.873	5672
2875.733	5768
2877.592	5867
2879.451	5979
2881.309	5939
2883.166	6044
2885.022	6050
2886.879	6157
2888.736	6070
2890.591	6245
2892.446	6073
2894.301	6147
2896.155	6123
2898.009	6171
2899.863	6176
2901.716	6053
2903.568	6173
2905.419	6062
2907.27	6111
2909.123	6145
2910.973	6090
2912.824	6172
2914.673	6198
2916.521	6195
2918.372	6461
2920.22	6514
2922.067	6352
2923.914	6578
2925.761	6561
2927.607	6601
2929.455	6685
2931.301	6606
2933.144	6770
2934.99	6704
2936.833	6769
2938.678	6800
2940.522	6912
2942.364	7077
2944.207	7057
2946.048	7302
2947.891	7343
2949.731	7423
2951.571	7380
2953.412	7382
2955.25	7141
2957.09	7123
2958.93	7101
2960.767	7070
2962.606	7083
2964.443	7081
2966.279	6903
2968.116	6768
2969.953	6605
2971.788	6551
2973.623	6387
2975.457	6368
2977.292	6259
2979.127	6261
2980.959	6169
2982.792	6176
2984.624	6025
2986.455	6130
2988.288	6009
2990.119	6031
2991.949	5976
2993.779	5868
2995.608	5885
2997.439	5820
2999.268	5841
3001.096	5767
3002.923	5627
3004.751	5666
3006.578	5493
3008.406	5450
3010.232	5528
3012.057	5368
3013.883	5358
3015.706	5325
3017.532	5383
3019.356	5272
3021.179	5283
3023.002	5190
3024.823	5144
3026.646	5207
3028.469	5239
3030.289	5192
3032.11	5096
3033.93	5047
3035.749	5086
3037.57	5131
3039.39	5086
3041.207	5086
3043.026	5081
3044.842	5092
3046.661	5093
3048.477	5122
3050.294	5107
3052.109	5026
3053.925	4995
3055.739	5038
3057.555	5004
3059.368	4971
3061.181	5128
3062.995	5041
3064.807	5032
3066.62	5074
3068.433	5085
3070.243	5207
3072.054	5027
3073.865	5003
3075.675	5042
3077.485	4978
3079.293	4984
3081.102	5084
3082.911	4907
3084.719	4930
3086.527	4954
3088.333	5068
3090.139	4905
3091.945	4972
3093.75	4964
3095.557	4863
3097.361	4987
3099.165	4869
3100.969	4926
3102.772	4918
3104.575	4861
3106.379	4861
3108.181	4820
3109.982	4844
3111.783	4888
3113.584	4803
3115.386	4833
3117.186	4825
3118.985	4844
3120.783	4785
3122.582	4775
3124.381	4834
3126.179	4773
3127.975	4829
3129.772	4776
3131.569	4753
3133.365	4741
3135.161	4706
3136.956	4802
3138.751	4875
3140.544	4783
3142.338	4712
3144.132	4764
3145.925	4838
3147.717	4680
3149.509	4789
3151.301	4784
3153.091	4770
3154.884	4693
3156.673	4745
3158.462	4754
3160.252	4793
3162.041	4667
3163.831	4673
3165.618	4679
3167.405	4684
3169.193	4774
3170.979	4842
3172.767	4716
3174.553	4695
3176.338	4748
3178.123	4697
3179.907	4738
3181.692	4703
3183.477	4781
3185.259	4690
3187.042	4638
3188.824	4710
3190.607	4717
3192.389	4758
3194.17	4619
3195.951	4643
3197.73	4728
3199.51	4687
3201.289	4675
3203.07	4755
3204.848	4705
3206.626	4726
3208.403	4650
3210.18	4666
3211.959	4656
3213.735	4710
3215.511	4773
3217.285	4748
3219.06	4700
3220.836	4686
3222.611	4627
3224.384	4703
3226.158	4743
3227.929	4721
3229.702	4661
3231.476	4574
3233.248	4614
3235.018	4601
3236.789	4709
3238.56	4663
3240.33	4716
3242.1	4708
3243.869	4631
3245.637	4642
3247.405	4659
3249.172	4764
3250.941	4664
3252.707	4653
3254.474	4734
3256.24	4705
3258.006	4639
3259.772	4685
3261.537	4711
3263.301	4642
3265.065	4751
3266.828	4688
3268.592	4622
3270.355	4761
3272.117	4632
3273.878	4720
3275.64	4706
3277.401	4709
3279.162	4652
3280.922	4588
3282.682	4600
3284.441	4636
3286.199	4666
3287.959	4648
3289.716	4676
3291.475	4695
3293.232	4740
3294.988	4785
3296.744	4573
3298.501	4713
3300.256	4781
3302.011	4636
3303.766	4702
3305.52	4748
3307.275	4615
3309.028	4628
3310.781	4758
3312.533	4647
3314.285	4691
3316.038	4733
3317.789	4678
3319.54	4635
3321.289	4631
3323.039	4695
3324.789	4620
3326.539	4735
3328.288	4652
3330.035	4684
3331.783	4618
3333.531	4607
3335.28	4580
3337.025	4671
3338.771	4609
3340.518	4592
3342.262	4610
3344.009	4661
3345.753	4646
3347.497	4585
3349.24	4576
3350.983	4682
3352.726	4545
3354.469	4639
3356.212	4646
3357.952	4558
3359.694	4612
3361.434	4565
3363.176	4563
3364.916	4640
3366.654	4599
3368.394	4606
3370.132	4556
3371.871	4531
3373.61	4424
3375.346	4615
3377.083	4433
3378.82	4515
3380.556	4544
3382.292	4469
3384.027	4495
3385.763	4489
3387.497	4459
3389.231	4486
3390.965	4434
3392.698	4476
3394.431	4428
3396.164	4483
3397.896	4516
3399.627	4440
3401.36	4453
3403.09	4404
3404.82	4371
3406.55	4449
3408.279	4424
3410.01	4455
3411.738	4433
3413.467	4370
3415.194	4416
3416.92	4518
3418.647	4443
3420.375	4478
3422.102	4419
3423.827	4420
3425.553	4497
3427.277	4399
3429.003	4456
3430.727	4386
3432.451	4391
3434.173	4381
3435.896	4316
3437.62	4282
3439.343	4389
3441.063	4362
3442.785	4384
3444.505	4325
3446.226	4279
3447.948	4311
3449.666	4321
3451.386	4363
3453.104	4334
3454.823	4332
3456.541	4343
3458.259	4267
3459.976	4225
3461.693	4223
3463.408	4289
3465.125	4283
3466.841	4274
3468.556	4225
3470.271	4266
3471.985	4166
3473.698	4243
3475.414	4274
3477.126	4233
3478.838	4111
3480.55	4234
3482.263	4257
3483.975	4116
3485.686	4145
3487.396	4218
3489.106	4163
3490.817	4048
3492.526	4142
3494.236	4162
3495.944	4041
3497.652	4148
3499.359	4196
3501.066	4170
3502.775	4123
3504.481	4007
3506.187	4084
3507.893	4117
3509.598	4097
3511.304	4134
3513.009	4009
3514.713	4062
3516.417	4098
3518.12	4009
3519.821	4001
3521.525	4086
3523.228	4091
3524.929	4022
3526.631	3985
3528.33	4080
3530.032	3977
3531.733	4113
3533.433	4064
3535.131	3959
3536.83	4029
3538.529	3957
3540.227	4008
3541.925	3924
3543.623	4034
3545.319	4017
3547.016	3944
3548.712	3977
3550.408	4027
3552.103	3935
3553.798	3983
3555.491	3933
3557.188	3919
3558.88	4006
3560.574	3881
3562.266	3916
3563.959	3920
3565.651	3856
3567.343	3879
3569.035	4009
3570.725	3989
3572.415	3812
3574.106	3932
3575.797	3937
3577.485	3964
3579.174	3850
3580.863	3840
3582.551	3808
3584.238	3823
3585.926	3940
3587.613	3764
3589.3	3828
3590.986	3836
3592.671	3813
3594.357	3784
3596.042	3779
3597.726	3755
3599.41	3823
3601.094	3804
3602.778	3814
3604.461	3771
3606.143	3709
3607.825	3729
3609.507	3699
3611.188	3814
3612.87	3714
3614.551	3719
3616.229	3674
3617.909	3707
3619.589	3712
3621.269	3788
3622.948	3614
3624.625	3752
3626.302	3683
3627.98	3661
3629.657	3599
3631.334	3632
3633.01	3537
3634.686	3610
3636.361	3612
3638.036	3662
3639.712	3703
3641.385	3596
3643.06	3612
3644.732	3570
3646.405	3661
3648.08	3627
3649.751	3513
3651.424	3661
3653.094	3602
3654.766	3621
3656.436	3601
3658.106	3684
3659.777	3589
3661.446	3533
3663.115	3573
3664.783	3521
3666.452	3559
3668.121	3507
3669.788	3558
3671.454	3580
3673.121	3577
3674.789	3491
3676.455	3563
3678.12	3548
3679.784	3631
3681.45	3565
3683.114	3467
3684.779	3558
3686.442	3541
3688.105	3554
3689.768	3583
3691.43	3530
3693.093	3528
3694.754	3561
3696.415	3503
3698.076	3503
3699.736	3542
3701.396	3545
3703.057	3464
3704.716	3450
3706.375	3479
3708.034	3450
3709.692	3439
3711.351	3522
3713.008	3414
3714.665	3468
3716.321	3445
3717.977	3458
3719.634	3394
3721.29	3408
3722.945	3423
3724.598	3502
3726.253	3444
3727.907	3383
3729.561	3450
3731.214	3456
3732.867	3420
3734.518	3394
3736.171	3460
3737.824	3484
3739.474	3417
3741.125	3481
3742.775	3411
3744.425	3408
3746.074	3425
3747.725	3340
3749.373	3403
3751.022	3410
3752.669	3427
3754.318	3401
3755.966	3401
3757.612	3399
3759.259	3376
3760.905	3378
3762.55	3352
3764.197	3438
3765.842	3403
3767.486	3358
3769.131	3407
3770.774	3289
3772.417	3340
3774.061	3368
3775.705	3405
3777.347	3356
3778.988	3328
3780.629	3237
3782.271	3374
3783.912	3371
3785.552	3311
3787.192	3320
3788.831	3346
3790.472	3317
3792.112	3350
3793.75	3273
3795.388	3237
3797.024	3281
3798.661	3284
3800.3	3310
3801.936	3313
3803.572	3264
3805.208	3189
3806.844	3296
3808.48	3299
3810.115	3309
3811.748	3311
3813.382	3277
3815.016	3254
3816.649	3197
3818.283	3167
3819.914	3277
3821.547	3263
3823.178	3189
3824.809	3263
3826.441	3236
3828.072	3297
3829.701	3215
3831.331	3282
3832.96	3239
3834.591	3237
3836.219	3176
3837.847	3250
3839.475	3216
3841.102	3275
3842.729	3187
3844.357	3207
3845.984	3212
3847.609	3162
3849.234	3202
3850.86	3169
3852.485	3202
3854.11	3184
3855.734	3217
3857.357	3219
3858.981	3141
3860.603	3146
3862.227	3183
3863.848	3173
3865.471	3168
3867.092	3147
3868.713	3158
3870.334	3141
3871.954	3182
3873.575	3115
3875.194	3188
3876.813	3100
3878.433	3137
3880.051	3145
3881.669	3157
3883.286	3101
3884.904	3191
3886.52	3122
3888.138	3040
3889.754	3187
3891.37	3159
3892.985	3133
3894.6	3112
3896.216	3083
3897.831	3085
3899.444	3049
3901.058	3104
3902.67	3113
3904.283	3147
3905.897	3145
3907.509	3088
3909.121	3197
3910.731	3109
3912.342	3038
3913.954	3096
3915.563	3108
3917.174	3084
3918.783	3110
3920.391	3057
3922.002	3113
3923.611	3127
3925.218	3090
3926.826	3106
3928.432	3059
3930.039	2968
3931.647	3079
3933.253	3154
3934.859	3065
3936.464	3066
3938.068	3041
3939.675	3033
3941.278	3039
3942.883	3079
3944.486	3028
3946.089	3034
3947.692	3059
3949.295	3081
3950.898	3055
3952.499	3024
3954.1	3064
3955.7	3063
3957.303	3007
3958.903	2958
3960.502	2982
3962.101	2986
3963.7	3021
3965.301	3034
3966.899	2937
3968.497	2967
3970.094	3071
3971.691	3049
3973.288	2995
3974.885	3034
3976.481	3025
3978.077	3000
3979.672	2965
3981.267	2942
3982.863	2961
3984.457	2917
3986.051	2971
3987.645	2927
3989.238	2931
3990.831	2899
3992.425	2923
3994.017	2915
3995.607	2995
3997.199	2925
3998.79	2946
4000.382	2846
4001.973	2917
4003.561	2953
4005.151	2890
4006.741	2878
4008.331	2906
4009.918	2899
4011.507	2858
4013.095	2893
4014.681	2880
4016.269	2983
4017.856	2883
4019.443	2894
4021.028	2853
4022.614	2816
4024.199	2875
4025.785	2856
4027.37	2954
4028.953	2781
4030.536	2869
4032.12	2850
4033.704	2877
4035.287	2891
4036.869	2844
4038.45	2766
4040.032	2886
4041.613	2866
4043.195	2848
4044.776	2821
4046.356	2768
4047.935	2796
4049.515	2803
4051.095	2886
4052.674	2773
4054.251	2817
4055.829	2781
4057.406	2821
4058.985	2792
4060.562	2841
4062.139	2842
4063.715	2758
4065.29	2786
4066.865	2791
4068.442	2781
4070.016	2805
4071.59	2794
4073.164	2730
4074.738	2739
4076.312	2819
4077.885	2759
4079.458	2700
4081.03	2697
4082.602	2771
4084.173	2792
4085.745	2754
4087.315	2694
4088.886	2726
4090.456	2750
4092.026	2804
4093.596	2807
4095.165	2802
4096.734	2737
4098.301	2765
4099.869	2747
4101.437	2742
4103.006	2708
4104.572	2702
4106.139	2726
4107.704	2692
4109.27	2720
4110.837	2670
4112.401	2713
4113.966	2719
4115.53	2710
4117.094	2655
4118.659	2709
4120.223	2685
4121.785	2690
4123.347	2742
4124.909	2685
4126.471	2603
4128.034	2649
4129.595	2712
4131.155	2742
4132.716	2661
4134.275	2705
4135.836	2661
4137.395	2633
4138.955	2635
4140.513	2666
4142.071	2641
4143.628	2604
4145.188	2682
4146.745	2616
4148.302	2672
4149.858	2650
4151.414	2581
4152.971	2564
4154.526	2637
4156.081	2581
4157.635	2577
4159.189	2619
4160.745	2622
4162.298	2647
4163.852	2582
4165.405	2606
4166.957	2603
4168.51	2600
4170.063	2565
4171.614	2601
4173.166	2610
4174.717	2607
4176.267	2537
4177.817	2607
4179.368	2560
4180.917	2563
4182.466	2627
4184.016	2516
4185.564	2540
4187.112	2582
4188.66	2583
4190.207	2501
4191.754	2536
4193.301	2525
4194.848	2542
4196.394	2575
4197.94	2561
4199.484	2599
4201.03	2552
4202.575	2463
4204.12	2543
4205.663	2575
4207.207	2455
4208.75	2574
4210.292	2535
4211.836	2535
4213.378	2517
4214.92	2507
4216.46	2518
4218.002	2547
4219.544	2498
4221.083	2580
4222.625	2470
4224.164	2528
4225.703	2468
4227.244	2476
4228.782	2524
4230.32	2566
4231.857	2515
4233.395	2484
4234.933	2512
4236.471	2507
4238.007	2462
4239.542	2425
4241.078	2502
4242.614	2544
4244.15	2444
4245.685	2492
4247.219	2436
4248.753	2454
4250.287	2509
4251.82	2462
4253.354	2501
4254.887	2435
4256.419	2416
4257.951	2474
4259.483	2436
4261.016	2473
4262.547	2382
4264.078	2459
4265.608	2401
4267.137	2448
4268.668	2427
4270.197	2473
4271.727	2412
4273.254	2494
4274.783	2479
4276.311	2421
4277.84	2381
4279.366	2473
4280.894	2387
4282.42	2394
4283.946	2428
4285.473	2482
4286.998	2460
4288.523	2394
4290.047	2369
4291.572	2400
4293.096	2347
4294.622	2415
4296.144	2431
4297.668	2383
4299.19	2368
4300.713	2334
4302.236	2352
4303.758	2431
4305.279	2432
4306.799	2383
4308.321	2375
4309.842	2384
4311.361	2418
4312.882	2318
4314.401	2356
