400.0961	4287
402.6185	4247
405.1424	4212
407.6635	4243
410.1838	4319
412.7035	4234
415.2225	4305
417.7388	4317
420.2585	4335
422.7754	4288
425.2917	4298
427.8072	4393
430.3221	4425
432.8363	4430
435.3498	4530
437.8626	4557
440.3727	4383
442.8841	4473
445.3969	4510
447.907	4473
450.4142	4499
452.9229	4481
455.4289	4441
457.9362	4414
460.4449	4578
462.9488	4443
465.454	4546
467.9566	4511
470.4604	4498
472.9637	4618
475.4662	4460
477.966	4528
480.4671	4511
482.9656	4603
485.4633	4566
487.9645	4559
490.4608	4554
492.9566	4620
495.4536	4668
497.948	4659
500.4437	4712
502.9387	4712
505.431	4700
507.9226	4781
510.4136	4683
512.9079	4626
515.3975	4653
517.8864	4782
520.3746	4705
522.8622	4648
525.3491	4805
527.8394	4769
530.3249	4773
532.8098	4664
535.2939	4757
537.7774	4758
540.2623	4752
542.7444	4709
545.2259	4734
547.7067	4809
550.1868	4795
552.6683	4746
555.147	4760
557.6231	4757
560.1005	4906
562.5773	4837
565.0534	4819
567.5308	4895
570.0056	4771
572.4776	4822
574.951	4905
577.4237	4936
579.8978	4858
582.3671	4882
584.8378	4896
587.3079	4972
589.7773	4827
592.244	4858
594.714	4893
597.1793	4902
599.6461	4936
602.1121	4880
604.5754	4878
607.0421	4845
609.5042	4927
611.9675	4868
614.4282	4984
616.8902	4918
619.3515	5003
621.8122	4908
624.2702	4965
626.7296	4848
629.1863	4888
631.6423	4930
634.1017	4921
636.5563	4843
639.0104	4972
641.4658	4871
643.9185	4905
646.3725	5049
648.8239	4959
651.2766	5009
653.7266	5029
656.176	5012
658.6247	5045
661.0748	4995
663.5242	5051
665.9709	5024
668.417	4953
670.8624	5095
673.3092	5015
675.7533	5009
678.1968	4995
680.6395	5091
683.0817	5105
685.5251	5059
687.9659	5129
690.4061	5131
692.8456	5142
695.2844	5063
697.7226	5130
700.1621	4997
702.599	5108
705.0332	5167
707.4688	5209
709.9036	5190
712.3399	5258
714.7735	5212
717.2044	5203
719.6367	5197
722.0683	5207
724.4993	5301
726.9296	5253
729.3593	5258
731.7883	5210
734.2147	5249
736.6423	5205
739.0714	5325
741.4958	5315
743.9216	5283
746.3447	5419
748.7691	5398
751.1929	5363
753.616	5394
756.0366	5485
758.4584	5381
760.8776	5385
763.2982	5449
765.718	5477
768.1373	5484
770.5539	5419
772.9698	5501
775.3871	5462
777.8038	5432
780.2178	5470
782.6332	5496
785.0459	5486
787.458	5405
789.8714	5494
792.2842	5505
794.6943	5528
797.1038	5471
799.5127	5398
801.9209	5532
804.3324	5482
806.7393	5439
809.1456	5439
811.5513	5590
813.9562	5445
816.3625	5605
818.7663	5531
821.1693	5533
823.5718	5494
825.9735	5564
828.3746	5514
830.7771	5558
833.177	5594
835.5762	5625
837.9747	5585
840.3727	5588
842.772	5531
845.1666	5623
847.5626	5643
849.958	5609
852.3527	5662
854.7488	5669
857.1403	5643
859.5331	5751
861.9253	5680
864.3168	5603
866.7057	5636
869.098	5581
871.4876	5639
873.8746	5584
876.263	5661
878.6487	5642
881.0378	5620
883.4243	5611
885.8081	5542
888.1933	5513
890.5759	5594
892.9598	5526
895.343	5682
897.7256	5651
900.1057	5644
902.4871	5588
904.8659	5686
907.246	5638
909.6254	5677
912.0023	5741
914.3786	5759
916.7562	5823
919.1331	5937
921.5074	5931
923.8831	5951
926.2562	6112
928.6287	5938
931.0005	5898
933.3757	6007
935.7462	5982
938.1162	5909
940.4855	5879
942.8542	5913
945.2242	5853
947.5916	6004
949.9584	6038
952.3266	6076
954.6921	6218
957.0571	6312
959.4233	6398
961.787	6524
964.15	6271
966.5125	6342
968.8742	6259
971.2354	6151
973.5959	6046
975.9559	6017
978.3151	6040
980.6738	5906
983.0338	5924
985.3912	5869
987.7461	5907
990.1022	5868
992.4578	5875
994.8127	5795
997.1689	5905
999.5207	5891
1001.874	5885
1004.226	5900
1006.576	5754
1008.929	5828
1011.28	5895
1013.628	5871
1015.977	5777
1018.324	5713
1020.674	5769
1023.019	5848
1025.366	5856
1027.713	5896
1030.056	5825
1032.399	5880
1034.746	5981
1037.087	5948
1039.431	5968
1041.771	5961
1044.113	5896
1046.454	5901
1048.793	5875
1051.133	5909
1053.471	5861
1055.807	5989
1058.146	6006
1060.483	5989
1062.818	5959
1065.153	6045
1067.489	5901
1069.822	5945
1072.156	5944
1074.488	6010
1076.82	6022
1079.15	6023
1081.48	5989
1083.814	5989
1086.143	6054
1088.471	5985
1090.799	5926
1093.126	5932
1095.452	6028
1097.78	6008
1100.105	5981
1102.43	5934
1104.754	6088
1107.077	6073
1109.4	6024
1111.722	5995
1114.044	5961
1116.365	6010
1118.685	6052
1121.005	6134
1123.324	6014
1125.643	6084
1127.961	6149
1130.278	6081
1132.595	6107
1134.911	6130
1137.226	6004
1139.541	5909
1141.854	6120
1144.167	6051
1146.482	6073
1148.793	6051
1151.105	5914
1153.414	6140
1155.725	6014
1158.033	6030
1160.344	6179
1162.651	6094
1164.959	6090
1167.265	6073
1169.572	6011
1171.878	6040
1174.184	6095
1176.488	5988
1178.79	6091
1181.094	6028
1183.396	6107
1185.699	6045
1188.001	6137
1190.301	6024
1192.6	6022
1194.9	6071
1197.2	5978
1199.497	6241
1201.794	6042
1204.09	6034
1206.387	5999
1208.684	6103
1210.978	6023
1213.272	6081
1215.565	6131
1217.858	5973
1220.15	6202
1222.443	6127
1224.734	6010
1227.024	6206
1229.313	6069
1231.602	6249
1233.892	6206
1236.18	6228
1238.467	6324
1240.754	6178
1243.04	6302
1245.325	6371
1247.612	6267
1249.896	6270
1252.178	6286
1254.461	6360
1256.743	6253
1259.027	6301
1261.308	6234
1263.587	6330
1265.867	6249
1268.146	6407
1270.425	6362
1272.703	6350
1274.981	6260
1277.256	6331
1279.532	6271
1281.808	6202
1284.083	6208
1286.358	6236
1288.63	6293
1290.904	6172
1293.175	6223
1295.449	6323
1297.719	6107
1299.99	6317
1302.259	6226
1304.529	6241
1306.798	6297
1309.065	6247
1311.333	6188
1313.599	6264
1315.866	6306
1318.131	6166
1320.396	6237
1322.66	6271
1324.925	6251
1327.187	6276
1329.448	6299
1331.711	6230
1333.974	6332
1336.234	6301
1338.493	6390
1340.752	6259
1343.01	6262
1345.269	6211
1347.526	6241
1349.784	6213
1352.04	6264
1354.295	6218
1356.552	6299
1358.806	6179
1361.059	6304
1363.312	6259
1365.564	6260
1367.818	6253
1370.069	6309
1372.318	6204
1374.568	6245
1376.817	6429
1379.066	6261
1381.316	6274
1383.564	6412
1385.809	6368
1388.056	6390
1390.301	6357
1392.549	6425
1394.793	6521
1397.036	6474
1399.279	6485
1401.522	6476
1403.763	6622
1406.007	6493
1408.248	6557
1410.487	6403
1412.727	6513
1414.965	6533
1417.205	6402
1419.442	6495
1421.68	6421
1423.915	6503
1426.152	6432
1428.388	6383
1430.623	6411
1432.857	6430
1435.091	6533
1437.323	6503
1439.556	6513
1441.789	6537
1444.019	6608
1446.25	6590
1448.48	6529
1450.708	6514
1452.938	6587
1455.167	6623
1457.394	6628
1459.62	6719
1461.846	6626
1464.073	6569
1466.299	6531
1468.523	6537
1470.746	6486
1472.969	6407
1475.191	6476
1477.415	6401
1479.636	6381
1481.858	6404
1484.078	6350
1486.298	6413
1488.518	6331
1490.736	6339
1492.954	6391
1495.169	6320
1497.386	6242
1499.602	6353
1501.819	6361
1504.034	6194
1506.248	6363
1508.462	6318
1510.675	6263
1512.888	6341
1515.1	6263
1517.311	6237
1519.522	6367
1521.732	6145
1523.942	6371
1526.151	6204
1528.36	6206
1530.566	6333
1532.773	6211
1534.98	6300
1537.187	6320
1539.392	6340
1541.596	6281
1543.801	6259
1546.005	6306
1548.208	6324
1550.411	6332
1552.612	6308
1554.814	6395
1557.013	6388
1559.212	6337
1561.414	6356
1563.612	6362
1565.811	6449
1568.007	6443
1570.203	6394
1572.403	6328
1574.598	6415
1576.792	6476
1578.988	6514
1581.181	6352
1583.376	6583
1585.568	6570
1587.761	6499
1589.952	6528
1592.143	6469
1594.333	6522
1596.524	6561
1598.715	6471
1600.903	6490
1603.091	6594
1605.278	6528
1607.466	6489
1609.652	6392
1611.838	6431
1614.023	6419
1616.207	6495
1618.391	6461
1620.576	6409
1622.759	6585
1624.941	6486
1627.123	6557
1629.304	6579
1631.484	6515
1633.664	6629
1635.844	6541
1638.022	6550
1640.201	6487
1642.38	6528
1644.556	6578
1646.732	6530
1648.908	6634
1651.084	6533
1653.257	6524
1655.433	6626
1657.607	6667
1659.779	6638
1661.951	6615
1664.122	6571
1666.295	6690
1668.467	6588
1670.635	6568
1672.805	6600
1674.973	6602
1677.142	6632
1679.31	6625
1681.478	6559
1683.644	6658
1685.81	6700
1687.975	6497
1690.142	6623
1692.305	6580
1694.468	6545
1696.632	6527
1698.794	6566
1700.957	6504
1703.119	6607
1705.279	6562
1707.439	6521
1709.598	6503
1711.758	6496
1713.917	6437
1716.075	6471
1718.231	6473
1720.388	6430
1722.543	6425
1724.702	6491
1726.856	6490
1729.01	6430
1731.164	6519
1733.317	6411
1735.471	6530
1737.623	6451
1739.774	6450
1741.925	6474
1744.075	6481
1746.225	6525
1748.376	6507
1750.524	6559
1752.672	6494
1754.82	6480
1756.965	6446
1759.113	6387
1761.259	6610
1763.405	6480
1765.549	6434
1767.694	6500
1769.836	6638
1771.981	6529
1774.123	6514
1776.264	6501
1778.405	6530
1780.546	6651
1782.687	6559
1784.827	6549
1786.966	6548
1789.103	6572
1791.242	6674
1793.381	6574
1795.517	6488
1797.653	6458
1799.788	6532
1801.923	6495
1804.057	6561
1806.193	6541
1808.326	6593
1810.457	6528
1812.59	6499
1814.721	6660
1816.855	6614
1818.984	6595
1821.113	6454
1823.244	6454
1825.372	6570
1827.499	6645
1829.63	6535
1831.756	6530
1833.882	6513
1836.007	6543
1838.132	6444
1840.26	6559
1842.384	6514
1844.507	6493
1846.63	6532
1848.752	6542
1850.875	6411
1852.996	6570
1855.118	6457
1857.238	6425
1859.358	6466
1861.477	6440
1863.597	6456
1865.715	6478
1867.832	6488
1869.948	6467
1872.064	6428
1874.181	6475
1876.297	6523
1878.411	6382
1880.526	6459
1882.639	6553
1884.752	6476
1886.865	6460
1888.977	6517
1891.089	6384
1893.2	6546
1895.308	6405
1897.42	6525
1899.53	6658
1901.639	6596
1903.745	6570
1905.853	6513
1907.962	6554
1910.067	6490
1912.174	6487
1914.278	6560
1916.383	6581
1918.486	6554
1920.592	6535
1922.694	6529
1924.797	6584
1926.898	6652
1929	6629
1931.102	6534
1933.203	6679
1935.301	6598
1937.401	6589
1939.499	6644
1941.598	6568
1943.697	6579
1945.793	6678
1947.888	6623
1949.985	6584
1952.08	6620
1954.176	6740
1956.269	6608
1958.364	6640
1960.457	6619
1962.549	6704
1964.642	6653
1966.733	6553
1968.823	6433
1970.913	6532
1973.005	6556
1975.093	6573
1977.184	6573
1979.271	6525
1981.359	6501
1983.446	6442
1985.532	6533
1987.619	6479
1989.705	6485
1991.789	6470
1993.874	6559
1995.956	6594
1998.041	6563
2000.123	6473
2002.206	6621
2004.287	6571
2006.368	6539
2008.449	6448
2010.529	6483
2012.609	6447
2014.688	6625
2016.766	6493
2018.843	6437
2020.922	6447
2022.999	6433
2025.074	6506
2027.15	6467
2029.225	6517
2031.299	6486
2033.375	6580
2035.447	6485
2037.52	6586
2039.592	6536
2041.664	6488
2043.736	6400
2045.807	6604
2047.876	6509
2049.947	6452
2052.015	6486
2054.086	6503
2056.153	6523
2058.221	6473
2060.288	6620
2062.353	6560
2064.42	6507
2066.486	6470
2068.55	6492
2070.614	6543
2072.678	6539
2074.741	6508
2076.805	6434
2078.866	6524
2080.929	6450
2082.99	6632
2085.049	6501
2087.109	6548
2089.17	6509
2091.228	6393
2093.286	6476
2095.344	6470
2097.4	6506
2099.46	6452
2101.516	6486
2103.572	6597
2105.626	6498
2107.679	6499
2109.735	6629
2111.788	6478
2113.841	6546
2115.894	6450
2117.945	6534
2119.997	6499
2122.049	6544
2124.1	6507
2126.148	6595
2128.197	6343
2130.246	6409
2132.296	6446
2134.342	6444
2136.39	6485
2138.437	6548
2140.483	6358
2142.527	6541
2144.574	6538
2146.619	6417
2148.661	6500
2150.705	6406
2152.747	6364
2154.792	6509
2156.832	6487
2158.874	6419
2160.915	6523
2162.954	6395
2164.995	6450
2167.034	6470
2169.072	6339
2171.111	6483
2173.148	6328
2175.186	6406
2177.223	6481
2179.258	6394
2181.294	6468
2183.328	6396
2185.362	6350
2187.398	6313
2189.431	6235
2191.463	6364
2193.495	6307
2195.528	6388
2197.56	6336
2199.59	6363
2201.62	6292
2203.649	6316
2205.678	6390
2207.708	6278
2209.737	6324
2211.764	6284
2213.791	6360
2215.817	6342
2217.843	6242
2219.87	6271
2221.895	6364
2223.919	6243
2225.942	6281
2227.966	6284
2229.988	6283
2232.012	6226
2234.032	6311
2236.054	6315
2238.074	6282
2240.095	6277
2242.116	6277
2244.135	6272
2246.153	6286
2248.171	6248
2250.188	6283
2252.208	6231
2254.223	6299
2256.239	6284
2258.255	6240
2260.269	6292
2262.283	6381
2264.3	6219
2266.312	6298
2268.325	6244
2270.336	6216
2272.349	6230
2274.362	6253
2276.372	6135
2278.383	6275
2280.392	6286
2282.402	6311
2284.409	6196
2286.418	6318
2288.427	6205
2290.433	6255
2292.441	6281
2294.446	6195
2296.453	6332
2298.459	6375
2300.463	6232
2302.466	6145
2304.471	6140
2306.475	6145
2308.477	6240
2310.478	6199
2312.481	6226
2314.481	6212
2316.481	6286
2318.482	6212
2320.482	6286
2322.48	6274
2324.48	6119
2326.478	6194
2328.476	6278
2330.473	6233
2332.469	6175
2334.465	6204
2336.46	6184
2338.454	6126
2340.45	6146
2342.444	6338
2344.437	6123
2346.43	6295
2348.421	6119
2350.414	6220
2352.405	6166
2354.396	6186
2356.386	6100
2358.376	6135
2360.366	6034
2362.355	6158
2364.343	6202
2366.331	6118
2368.317	6087
2370.304	6089
2372.292	6128
2374.278	6071
2376.262	6239
2378.247	6051
2380.23	6181
2382.216	6075
2384.199	6127
2386.181	6034
2388.163	6115
2390.144	6094
2392.127	6050
2394.107	5975
2396.087	6079
2398.066	6090
2400.046	6068
2402.023	5978
2404.004	6087
2405.981	6064
2407.957	6063
2409.934	6068
2411.91	6067
2413.886	6054
2415.862	6129
2417.836	5978
2419.809	6110
2421.784	6048
2423.756	6039
2425.73	6049
2427.701	5970
2429.672	6023
2431.644	6021
2433.615	5917
2435.586	6005
2437.555	6039
2439.523	6006
2441.491	6204
2443.459	5949
2445.428	6001
2447.395	6009
2449.361	6074
2451.327	5966
2453.292	5996
2455.257	6020
2457.223	6075
2459.187	5881
2461.15	5879
2463.113	5969
2465.076	6045
2467.039	6083
2468.999	5999
2470.96	5965
2472.921	6015
2474.881	5931
2476.841	5884
2478.8	6067
2480.759	5899
2482.717	5979
2484.675	6016
2486.63	5902
2488.589	6034
2490.545	5842
2492.5	5977
2494.455	5901
2496.408	5979
2498.364	6015
2500.318	5960
2502.27	5938
2504.223	5867
2506.174	6019
2508.126	5922
2510.078	5906
2512.03	5840
2513.979	5937
2515.927	5801
2517.877	5985
2519.826	5842
2521.775	5822
2523.722	5856
2525.668	5915
2527.616	5998
2529.561	5888
2531.508	5925
2533.452	5998
2535.398	5872
2537.342	5855
2539.284	5825
2541.229	5941
2543.173	5908
2545.114	5954
2547.055	5785
2548.996	5843
2550.938	5846
2552.878	5874
2554.817	5907
2556.756	5885
2558.695	5991
2560.633	5848
2562.572	5753
2564.509	5974
2566.445	5853
2568.382	5857
2570.317	5905
2572.254	5796
2574.189	5902
2576.123	5842
2578.057	5796
2579.99	5845
2581.923	5781
2583.855	5864
2585.788	5867
2587.719	5792
2589.65	5830
2591.579	5925
2593.511	5885
2595.44	5913
2597.37	5863
2599.297	5795
2601.225	5958
2603.153	5833
2605.08	5828
2607.007	5848
2608.932	5828
2610.858	5959
2612.782	5734
2614.709	5822
2616.632	5814
2618.556	5893
2620.478	5853
2622.401	5797
2624.324	5765
2626.247	5769
2628.167	5950
2630.088	5936
2632.008	5894
2633.928	5816
2635.848	5930
2637.766	5936
2639.684	5833
2641.603	5872
2643.519	5890
2645.437	5864
2647.353	5836
2649.27	5796
2651.184	5790
2653.099	5895
2655.014	5859
2656.928	5898
2658.842	5861
2660.755	5765
2662.667	5885
2664.579	5692
2666.491	5876
2668.402	5809
2670.312	5848
2672.222	5804
2674.132	5846
2676.042	5849
2677.951	5718
2679.859	5775
2681.766	5819
2683.674	5802
2685.582	5826
2687.488	5740
2689.392	5871
2691.298	5791
2693.202	5909
2695.107	5778
2697.012	5705
2698.914	5755
2700.817	5685
2702.72	5737
2704.622	5718
2706.524	5869
2708.425	5657
2710.326	5750
2712.225	5770
2714.125	5752
2716.024	5832
2717.923	5731
2719.822	5718
2721.719	5680
2723.616	5670
2725.512	5769
2727.41	5829
2729.305	5594
2731.201	5701
2733.095	5682
2734.99	5759
2736.884	5589
2738.778	5768
2740.67	5684
2742.562	5676
2744.455	5690
2746.346	5612
2748.238	5668
2750.129	5694
2752.018	5724
2753.907	5570
2755.797	5725
2757.687	5844
2759.575	5608
2761.462	5558
2763.349	5704
2765.237	5648
2767.124	5697
2769.009	5636
2770.894	5649
2772.779	5651
2774.663	5615
2776.547	5620
2778.431	5624
2780.314	5509
2782.197	5637
2784.078	5702
2785.96	5617
2787.842	5614
2789.723	5661
2791.603	5673
2793.483	5719
2795.362	5675
2797.241	5575
2799.121	5506
2800.997	5722
2802.874	5579
2804.751	5583
2806.628	5659
2808.506	5564
2810.38	5513
2812.255	5560
2814.13	5568
2816.003	5610
2817.878	5629
2819.752	5629
2821.623	5677
2823.496	5636
2825.368	5662
2827.238	5579
2829.111	5611
2830.98	5537
2832.851	5572
2834.719	5682
2836.589	5602
2838.458	5567
2840.327	5672
2842.193	5597
2844.061	5592
2845.927	5608
2847.794	5667
2849.66	5660
2851.525	5591
2853.39	5660
2855.254	5668
2857.117	5632
2858.983	5705
2860.845	5646
2862.707	5719
2864.569	5728
2866.431	5701
2868.293	5679
2870.154	5742
2872.013	5729
2873.873	5856
2875.733	5868
2877.592	5787
2879.451	5874
2881.309	5886
2883.166	5878
2885.022	5995
2886.879	5862
2888.736	5878
2890.591	6030
2892.446	6027
2894.301	5965
2896.155	6044
2898.009	5982
2899.863	5986
2901.716	5970
2903.568	5940
2905.419	5898
2907.27	5926
2909.123	6011
2910.973	5938
2912.824	6041
2914.673	5990
2916.521	6039
2918.372	6056
2920.22	6182
2922.067	5957
2923.914	6101
2925.761	6045
2927.607	6171
2929.455	6192
2931.301	6281
2933.144	6167
2934.99	6190
2936.833	6393
2938.678	6304
2940.522	6343
2942.364	6357
2944.207	6414
2946.048	6419
2947.891	6566
2949.731	6540
2951.571	6505
2953.412	6465
2955.25	6476
2957.09	6348
2958.93	6445
2960.767	6373
2962.606	6366
2964.443	6360
2966.279	6272
2968.116	6114
2969.953	6186
2971.788	6017
2973.623	5979
2975.457	5923
2977.292	5948
2979.127	5898
2980.959	5875
2982.792	5775
2984.624	5923
2986.455	5888
2988.288	5742
2990.119	5797
2991.949	5753
2993.779	5657
2995.608	5685
2997.439	5629
2999.268	5645
3001.096	5538
3002.923	5635
3004.751	5589
3006.578	5600
3008.406	5488
3010.232	5384
3012.057	5465
3013.883	5412
3015.706	5536
3017.532	5404
3019.356	5359
3021.179	5468
3023.002	5241
3024.823	5305
3026.646	5254
3028.469	5274
3030.289	5315
3032.11	5197
3033.93	5257
3035.749	5164
3037.57	5309
3039.39	5179
3041.207	5227
3043.026	5387
3044.842	5208
3046.661	5188
3048.477	5247
3050.294	5150
3052.109	5238
3053.925	5306
3055.739	5186
3057.555	5163
3059.368	5249
3061.181	5275
3062.995	5164
3064.807	5211
3066.62	5162
3068.433	5121
3070.243	5197
3072.054	5170
3073.865	5257
3075.675	5090
3077.485	5195
3079.293	5159
3081.102	5214
3082.911	5247
3084.719	5104
3086.527	5074
3088.333	5162
3090.139	5147
3091.945	5167
3093.75	5083
3095.557	5104
3097.361	5130
3099.165	5066
3100.969	4977
3102.772	5028
3104.575	5100
3106.379	5023
3108.181	4966
3109.982	5024
3111.783	5089
3113.584	4943
3115.386	4982
3117.186	5055
3118.985	5012
3120.783	4912
3122.582	5056
3124.381	4997
3126.179	4931
3127.975	4947
3129.772	4986
3131.569	5042
3133.365	4898
3135.161	4962
3136.956	4954
3138.751	4947
3140.544	4912
3142.338	5059
3144.132	4874
3145.925	4876
3147.717	4942
3149.509	4850
3151.301	4932
3153.091	4900
3154.884	4858
3156.673	4869
3158.462	4853
3160.252	4974
3162.041	4863
3163.831	4933
3165.618	4961
3167.405	4906
3169.193	4905
3170.979	4845
3172.767	4813
3174.553	4896
3176.338	4875
3178.123	4852
3179.907	4833
3181.692	4799
3183.477	4874
3185.259	4869
3187.042	4867
3188.824	4872
3190.607	4806
3192.389	4759
3194.17	4781
3195.951	4871
3197.73	4769
3199.51	4806
3201.289	4742
3203.07	4879
3204.848	4882
3206.626	4732
3208.403	4883
3210.18	4824
3211.959	4858
3213.735	4846
3215.511	4752
3217.285	4703
3219.06	4823
3220.836	4780
3222.611	4810
3224.384	4802
3226.158	4775
3227.929	4786
3229.702	4758
3231.476	4764
3233.248	4790
3235.018	4813
3236.789	4805
3238.56	4839
3240.33	4746
3242.1	4764
3243.869	4792
3245.637	4813
3247.405	4674
3249.172	4745
3250.941	4752
3252.707	4689
3254.474	4647
3256.24	4713
3258.006	4738
3259.772	4785
3261.537	4762
3263.301	4740
3265.065	4688
3266.828	4756
3268.592	4671
3270.355	4785
3272.117	4745
3273.878	4744
3275.64	4722
3277.401	4639
3279.162	4794
3280.922	4728
3282.682	4647
3284.441	4794
3286.199	4718
3287.959	4665
3289.716	4736
3291.475	4808
3293.232	4702
3294.988	4724
3296.744	4730
3298.501	4633
3300.256	4757
3302.011	4738
3303.766	4704
3305.52	4737
3307.275	4704
3309.028	4644
3310.781	4760
3312.533	4558
3314.285	4623
3316.038	4713
3317.789	4639
3319.54	4792
3321.289	4687
3323.039	4667
3324.789	4740
3326.539	4644
3328.288	4579
3330.035	4731
3331.783	4665
3333.531	4636
3335.28	4682
3337.025	4597
3338.771	4580
3340.518	4651
3342.262	4670
3344.009	4593
3345.753	4663
3347.497	4653
3349.24	4662
3350.983	4523
3352.726	4605
3354.469	4676
3356.212	4651
3357.952	4644
3359.694	4447
3361.434	4638
3363.176	4604
3364.916	4502
3366.654	4609
3368.394	4484
3370.132	4559
3371.871	4602
3373.61	4575
3375.346	4538
3377.083	4609
3378.82	4478
3380.556	4561
3382.292	4537
3384.027	4453
3385.763	4518
3387.497	4546
3389.231	4534
3390.965	4685
3392.698	4475
3394.431	4572
3396.164	4549
3397.896	4491
3399.627	4497
3401.36	4462
3403.09	4595
3404.82	4532
3406.55	4488
3408.279	4411
3410.01	4532
3411.738	4479
3413.467	4377
3415.194	4434
3416.92	4424
3418.647	4462
3420.375	4523
3422.102	4461
3423.827	4370
3425.553	4491
3427.277	4439
3429.003	4398
3430.727	4477
3432.451	4462
3434.173	4439
3435.896	4500
3437.62	4415
3439.343	4511
3441.063	4371
3442.785	4409
3444.505	4393
3446.226	4401
3447.948	4326
3449.666	4353
3451.386	4368
3453.104	4415
3454.823	4417
3456.541	4359
3458.259	4311
3459.976	4340
3461.693	4401
3463.408	4295
3465.125	4280
3466.841	4337
3468.556	4380
3470.271	4347
3471.985	4327
3473.698	4314
3475.414	4257
3477.126	4278
3478.838	4266
3480.55	4189
3482.263	4315
3483.975	4222
3485.686	4343
3487.396	4234
3489.106	4237
3490.817	4182
3492.526	4248
3494.236	4206
3495.944	4211
3497.652	4200
3499.359	4205
3501.066	4280
3502.775	4217
3504.481	4204
3506.187	4163
3507.893	4242
3509.598	4221
3511.304	4136
3513.009	4265
3514.713	4215
3516.417	4161
3518.12	4236
3519.821	4266
3521.525	4131
3523.228	4082
3524.929	4267
3526.631	4185
3528.33	4113
3530.032	4178
3531.733	4137
3533.433	4212
3535.131	4098
3536.83	4076
3538.529	4147
3540.227	4084
3541.925	4195
3543.623	4016
3545.319	4115
3547.016	3996
3548.712	4096
3550.408	4054
3552.103	4126
3553.798	4115
3555.491	4041
3557.188	4116
3558.88	4101
3560.574	4017
3562.266	4055
3563.959	4018
3565.651	4055
3567.343	4110
3569.035	4072
3570.725	4015
3572.415	4029
3574.106	4067
3575.797	4068
3577.485	3935
3579.174	4088
3580.863	4023
3582.551	4080
3584.238	3977
3585.926	3955
3587.613	3982
3589.3	4056
3590.986	4081
3592.671	3910
3594.357	4008
3596.042	4032
3597.726	3961
3599.41	3974
3601.094	3984
3602.778	3988
3604.461	3938
3606.143	3854
3607.825	3958
3609.507	3908
3611.188	3897
3612.87	3929
3614.551	3965
3616.229	3878
3617.909	3811
3619.589	3860
3621.269	3806
3622.948	3884
3624.625	3860
3626.302	3844
3627.98	3852
3629.657	3845
3631.334	3836
3633.01	3813
3634.686	3812
3636.361	3803
3638.036	3852
3639.712	3821
3641.385	3798
3643.06	3796
3644.732	3768
3646.405	3895
3648.08	3793
3649.751	3811
3651.424	3757
3653.094	3841
3654.766	3726
3656.436	3766
3658.106	3776
3659.777	3754
3661.446	3816
3663.115	3733
3664.783	3682
3666.452	3810
3668.121	3688
3669.788	3721
3671.454	3704
3673.121	3780
3674.789	3635
3676.455	3717
3678.12	3708
3679.784	3793
3681.45	3736
3683.114	3638
3684.779	3793
3686.442	3740
3688.105	3719
3689.768	3727
3691.43	3709
3693.093	3693
3694.754	3722
3696.415	3635
3698.076	3680
3699.736	3666
3701.396	3611
3703.057	3623
3704.716	3613
3706.375	3675
3708.034	3690
3709.692	3641
3711.351	3649
3713.008	3720
3714.665	3753
3716.321	3689
3717.977	3682
3719.634	3584
3721.29	3684
3722.945	3659
3724.598	3606
3726.253	3719
3727.907	3746
3729.561	3554
3731.214	3601
3732.867	3690
3734.518	3618
3736.171	3589
3737.824	3645
3739.474	3625
3741.125	3612
3742.775	3631
3744.425	3586
3746.074	3555
3747.725	3505
3749.373	3579
3751.022	3543
3752.669	3612
3754.318	3508
3755.966	3669
3757.612	3644
3759.259	3523
3760.905	3602
3762.55	3622
3764.197	3570
3765.842	3635
3767.486	3637
3769.131	3616
3770.774	3560
3772.417	3491
3774.061	3593
3775.705	3539
3777.347	3543
3778.988	3549
3780.629	3486
3782.271	3493
3783.912	3555
3785.552	3543
3787.192	3574
3788.831	3534
3790.472	3534
3792.112	3480
3793.75	3547
3795.388	3505
3797.024	3493
3798.661	3531
3800.3	3522
3801.936	3526
3803.572	3525
3805.208	3535
3806.844	3436
3808.48	3460
3810.115	3413
3811.748	3404
3813.382	3472
3815.016	3421
3816.649	3374
3818.283	3472
3819.914	3372
3821.547	3424
3823.178	3428
3824.809	3501
3826.441	3450
3828.072	3498
3829.701	3427
3831.331	3366
3832.96	3408
3834.591	3355
3836.219	3347
3837.847	3425
3839.475	3449
3841.102	3431
3842.729	3368
3844.357	3386
3845.984	3412
3847.609	3384
3849.234	3364
3850.86	3344
3852.485	3367
3854.11	3369
3855.734	3416
3857.357	3333
3858.981	3360
3860.603	3327
3862.227	3309
3863.848	3376
3865.471	3310
3867.092	3320
3868.713	3362
3870.334	3373
3871.954	3317
3873.575	3366
3875.194	3335
3876.813	3327
3878.433	3358
3880.051	3371
3881.669	3332
3883.286	3383
3884.904	3288
3886.52	3375
3888.138	3309
3889.754	3347
3891.37	3308
3892.985	3367
3894.6	3282
3896.216	3341
3897.831	3228
3899.444	3292
3901.058	3291
3902.67	3275
3904.283	3203
3905.897	3229
3907.509	3266
3909.121	3234
3910.731	3234
3912.342	3351
3913.954	3273
3915.563	3237
3917.174	3236
3918.783	3160
3920.391	3290
3922.002	3282
3923.611	3292
3925.218	3223
3926.826	3264
3928.432	3290
3930.039	3252
3931.647	3194
3933.253	3330
3934.859	3227
3936.464	3269
3938.068	3235
3939.675	3257
3941.278	3195
3942.883	3171
3944.486	3231
3946.089	3253
3947.692	3271
3949.295	3213
3950.898	3223
3952.499	3239
3954.1	3204
3955.7	3210
3957.303	3195
3958.903	3161
3960.502	3227
3962.101	3193
3963.7	3178
3965.301	3190
3966.899	3125
3968.497	3174
3970.094	3122
3971.691	3151
3973.288	3163
3974.885	3230
3976.481	3142
3978.077	3142
3979.672	3101
3981.267	3169
3982.863	3156
3984.457	3123
3986.051	3131
3987.645	3121
3989.238	3147
3990.831	3076
3992.425	3109
3994.017	3038
3995.607	3106
3997.199	3113
3998.79	3133
4000.382	3083
4001.973	3010
4003.561	3049
4005.151	3083
4006.741	3051
4008.331	3118
4009.918	3109
4011.507	3091
4013.095	3104
4014.681	3049
4016.269	3059
4017.856	3040
4019.443	3055
4021.028	3068
4022.614	3043
4024.199	3052
4025.785	3052
4027.37	3047
4028.953	3006
4030.536	3025
4032.12	2984
4033.704	2988
4035.287	3079
4036.869	3044
4038.45	2989
4040.032	2930
4041.613	3008
4043.195	2988
4044.776	2909
4046.356	2990
4047.935	2990
4049.515	3016
4051.095	2938
4052.674	3024
4054.251	2935
4055.829	3038
4057.406	2935
4058.985	2941
4060.562	2990
4062.139	2914
4063.715	2920
4065.29	2875
4066.865	2975
4068.442	2932
4070.016	2923
4071.59	2886
4073.164	2941
4074.738	2874
4076.312	2959
4077.885	2957
4079.458	2895
4081.03	2934
4082.602	2945
4084.173	2858
4085.745	2884
4087.315	2913
4088.886	3008
4090.456	2887
4092.026	2920
4093.596	2943
4095.165	2893
4096.734	2887
4098.301	2883
4099.869	2944
4101.437	2937
4103.006	2934
4104.572	2905
4106.139	2902
4107.704	2850
4109.27	2875
4110.837	2997
4112.401	2862
4113.966	2926
4115.53	2938
4117.094	2836
4118.659	2838
4120.223	2808
4121.785	2809
4123.347	2822
4124.909	2879
4126.471	2799
4128.034	2824
4129.595	2841
4131.155	2842
4132.716	2833
4134.275	2805
4135.836	2780
4137.395	2788
4138.955	2735
4140.513	2773
4142.071	2824
4143.628	2848
4145.188	2804
4146.745	2746
4148.302	2818
4149.858	2770
4151.414	2767
4152.971	2776
4154.526	2755
4156.081	2757
4157.635	2746
4159.189	2774
4160.745	2694
4162.298	2743
4163.852	2681
4165.405	2759
4166.957	2737
4168.51	2764
4170.063	2724
4171.614	2786
4173.166	2719
4174.717	2740
4176.267	2746
4177.817	2739
4179.368	2686
4180.917	2691
4182.466	2750
4184.016	2675
4185.564	2729
4187.112	2656
4188.66	2672
4190.207	2725
4191.754	2721
4193.301	2676
4194.848	2717
4196.394	2648
4197.94	2706
4199.484	2594
4201.03	2650
4202.575	2609
4204.12	2623
4205.663	2615
4207.207	2646
4208.75	2708
4210.292	2651
4211.836	2613
4213.378	2680
4214.92	2673
4216.46	2656
4218.002	2693
4219.544	2676
4221.083	2690
4222.625	2582
4224.164	2648
4225.703	2563
4227.244	2638
4228.782	2653
4230.32	2631
4231.857	2593
4233.395	2615
4234.933	2679
4236.471	2607
4238.007	2661
4239.542	2576
4241.078	2627
4242.614	2578
4244.15	2654
4245.685	2545
4247.219	2613
4248.753	2612
4250.287	2546
4251.82	2624
4253.354	2572
4254.887	2527
4256.419	2553
4257.951	2582
4259.483	2613
4261.016	2546
4262.547	2538
4264.078	2531
4265.608	2561
4267.137	2609
4268.668	2564
4270.197	2567
4271.727	2510
4273.254	2560
4274.783	2589
4276.311	2484
4277.84	2611
4279.366	2579
4280.894	2521
4282.42	2548
4283.946	2578
4285.473	2562
4286.998	2547
4288.523	2480
4290.047	2534
4291.572	2478
4293.096	2485
4294.622	2558
4296.144	2530
4297.668	2601
4299.19	2491
4300.713	2518
4302.236	2513
4303.758	2449
4305.279	2493
4306.799	2456
4308.321	2485
4309.842	2523
4311.361	2497
4312.882	2441
4314.401	2507
