400.0961	4560
402.6185	4621
405.1424	4554
407.6635	4606
410.1838	4569
412.7035	4681
415.2225	4674
417.7388	4738
420.2585	4735
422.7754	4834
425.2917	4795
427.8072	4898
430.3221	5024
432.8363	4904
435.3498	4969
437.8626	4943
440.3727	4852
442.8841	4918
445.3969	4901
447.907	5013
450.4142	4901
452.9229	5048
455.4289	4910
457.9362	4954
460.4449	4910
462.9488	4914
465.454	4864
467.9566	4825
470.4604	4861
472.9637	4839
475.4662	4906
477.966	4876
480.4671	4991
482.9656	4954
485.4633	4938
487.9645	5039
490.4608	5029
492.9566	4962
495.4536	4936
497.948	5030
500.4437	5026
502.9387	5014
505.431	5085
507.9226	4979
510.4136	4987
512.9079	4992
515.3975	4917
517.8864	5048
520.3746	5002
522.8622	5014
525.3491	5034
527.8394	5092
530.3249	5014
532.8098	5137
535.2939	5114
537.7774	5172
540.2623	5166
542.7444	5037
545.2259	5030
547.7067	5218
550.1868	5167
552.6683	5226
555.147	5135
557.6231	5156
560.1005	5174
562.5773	5171
565.0534	5171
567.5308	5152
570.0056	5113
572.4776	5203
574.951	5257
577.4237	5200
579.8978	5314
582.3671	5357
584.8378	5332
587.3079	5406
589.7773	5330
592.244	5360
594.714	5323
597.1793	5266
599.6461	5252
602.1121	5299
604.5754	5277
607.0421	5208
609.5042	5302
611.9675	5287
614.4282	5247
616.8902	5292
619.3515	5315
621.8122	5250
624.2702	5244
626.7296	5291
629.1863	5234
631.6423	5153
634.1017	5283
636.5563	5249
639.0104	5237
641.4658	5251
643.9185	5337
646.3725	5399
648.8239	5314
651.2766	5300
653.7266	5292
656.176	5269
658.6247	5314
661.0748	5329
663.5242	5285
665.9709	5334
668.417	5449
670.8624	5362
673.3092	5362
675.7533	5403
678.1968	5409
680.6395	5474
683.0817	5376
685.5251	5408
687.9659	5465
690.4061	5403
692.8456	5442
695.2844	5409
697.7226	5545
700.1621	5488
702.599	5525
705.0332	5517
707.4688	5544
709.9036	5532
712.3399	5551
714.7735	5700
717.2044	5522
719.6367	5631
722.0683	5590
724.4993	5679
726.9296	5687
729.3593	5546
731.7883	5714
734.2147	5643
736.6423	5683
739.0714	5625
741.4958	5755
743.9216	5727
746.3447	5656
748.7691	5717
751.1929	5762
753.616	5702
756.0366	5840
758.4584	5845
760.8776	5760
763.2982	5790
765.718	5781
768.1373	5836
770.5539	5855
772.9698	5819
775.3871	5816
777.8038	5912
780.2178	5847
782.6332	5975
785.0459	5873
787.458	5950
789.8714	5858
792.2842	5883
794.6943	5918
797.1038	5870
799.5127	5833
801.9209	5853
804.3324	5868
806.7393	5887
809.1456	5963
811.5513	5909
813.9562	6027
816.3625	5869
818.7663	5911
821.1693	5933
823.5718	5854
825.9735	5998
828.3746	5875
830.7771	5945
833.177	5944
835.5762	5917
837.9747	6021
840.3727	6054
842.772	6019
845.1666	6043
847.5626	6108
849.958	6085
852.3527	6039
854.7488	6185
857.1403	6243
859.5331	6215
861.9253	6170
864.3168	6217
866.7057	6016
869.098	6063
871.4876	6172
873.8746	6181
876.263	6089
878.6487	6207
881.0378	6095
883.4243	6008
885.8081	6086
888.1933	6138
890.5759	5981
892.9598	6110
895.343	5975
897.7256	6202
900.1057	6041
902.4871	6143
904.8659	6129
907.246	6190
909.6254	6136
912.0023	6186
914.3786	6270
916.7562	6379
919.1331	6484
921.5074	6530
923.8831	6528
926.2562	6460
928.6287	6556
931.0005	6590
933.3757	6556
935.7462	6633
938.1162	6530
940.4855	6597
942.8542	6650
945.2242	6701
947.5916	6738
949.9584	6828
952.3266	6983
954.6921	7305
957.0571	7660
959.4233	7903
961.787	7938
964.15	7825
966.5125	7626
968.8742	7498
971.2354	7142
973.5959	6876
975.9559	6717
978.3151	6711
980.6738	6578
983.0338	6481
985.3912	6350
987.7461	6466
990.1022	6362
992.4578	6303
994.8127	6299
997.1689	6312
999.5207	6274
1001.874	6455
1004.226	6389
1006.576	6362
1008.929	6321
1011.28	6404
1013.628	6332
1015.977	6298
1018.324	6431
1020.674	6270
1023.019	6319
1025.366	6393
1027.713	6394
1030.056	6463
1032.399	6468
1034.746	6538
1037.087	6418
1039.431	6564
1041.771	6531
1044.113	6542
1046.454	6463
1048.793	6436
1051.133	6391
1053.471	6546
1055.807	6475
1058.146	6348
1060.483	6458
1062.818	6494
1065.153	6580
1067.489	6598
1069.822	6600
1072.156	6609
1074.488	6648
1076.82	6679
1079.15	6614
1081.48	6507
1083.814	6556
1086.143	6562
1088.471	6496
1090.799	6409
1093.126	6454
1095.452	6463
1097.78	6401
1100.105	6539
1102.43	6568
1104.754	6495
1107.077	6499
1109.4	6466
1111.722	6570
1114.044	6436
1116.365	6480
1118.685	6515
1121.005	6584
1123.324	6508
1125.643	6610
1127.961	6480
1130.278	6567
1132.595	6543
1134.911	6468
1137.226	6558
1139.541	6539
1141.854	6464
1144.167	6452
1146.482	6300
1148.793	6547
1151.105	6499
1153.414	6541
1155.725	6541
1158.033	6477
1160.344	6431
1162.651	6545
1164.959	6548
1167.265	6488
1169.572	6527
1171.878	6532
1174.184	6670
1176.488	6602
1178.79	6704
1181.094	6547
1183.396	6507
1185.699	6592
1188.001	6520
1190.301	6559
1192.6	6470
1194.9	6488
1197.2	6583
1199.497	6486
1201.794	6588
1204.09	6482
1206.387	6648
1208.684	6592
1210.978	6702
1213.272	6609
1215.565	6573
1217.858	6533
1220.15	6541
1222.443	6521
1224.734	6659
1227.024	6707
1229.313	6704
1231.602	6680
1233.892	6673
1236.18	6761
1238.467	6830
1240.754	6813
1243.04	6783
1245.325	6876
1247.612	6838
1249.896	6913
1252.178	6974
1254.461	6889
1256.743	6851
1259.027	6835
1261.308	6831
1263.587	6870
1265.867	6858
1268.146	6869
1270.425	6902
1272.703	6915
1274.981	6840
1277.256	6837
1279.532	6895
1281.808	6784
1284.083	6717
1286.358	6863
1288.63	6786
1290.904	6655
1293.175	6697
1295.449	6786
1297.719	6702
1299.99	6716
1302.259	6713
1304.529	6679
1306.798	6718
1309.065	6750
1311.333	6728
1313.599	6803
1315.866	6720
1318.131	6781
1320.396	6743
1322.66	6686
1324.925	6780
1327.187	6723
1329.448	6755
1331.711	6833
1333.974	6819
1336.234	6750
1338.493	6774
1340.752	6785
1343.01	6668
1345.269	6768
1347.526	6813
1349.784	6708
1352.04	6691
1354.295	6687
1356.552	6598
1358.806	6760
1361.059	6643
1363.312	6741
1365.564	6726
1367.818	6661
1370.069	6783
1372.318	6869
1374.568	6754
1376.817	6857
1379.066	6828
1381.316	6754
1383.564	6656
1385.809	6812
1388.056	6822
1390.301	6928
1392.549	7021
1394.793	7029
1397.036	7095
1399.279	7167
1401.522	7140
1403.763	7115
1406.007	7068
1408.248	7072
1410.487	7115
1412.727	7145
1414.965	7048
1417.205	7083
1419.442	6999
1421.68	7091
1423.915	7103
1426.152	7015
1428.388	7017
1430.623	7039
1432.857	7010
1435.091	6972
1437.323	7075
1439.556	7192
1441.789	7205
1444.019	7267
1446.25	7261
1448.48	7135
1450.708	7239
1452.938	7148
1455.167	7223
1457.394	7182
1459.62	7204
1461.846	7184
1464.073	7291
1466.299	7231
1468.523	7071
1470.746	6994
1472.969	7080
1475.191	6933
1477.415	6927
1479.636	6858
1481.858	6903
1484.078	6885
1486.298	6776
1488.518	6764
1490.736	6843
1492.954	6749
1495.169	6714
1497.386	6850
1499.602	6772
1501.819	6778
1504.034	6755
1506.248	6700
1508.462	6698
1510.675	6724
1512.888	6749
1515.1	6646
1517.311	6746
1519.522	6807
1521.732	6738
1523.942	6716
1526.151	6805
1528.36	6612
1530.566	6803
1532.773	6689
1534.98	6674
1537.187	6728
1539.392	6790
1541.596	6815
1543.801	6820
1546.005	6804
1548.208	6655
1550.411	6770
1552.612	6813
1554.814	6727
1557.013	6818
1559.212	6877
1561.414	6901
1563.612	6904
1565.811	6898
1568.007	6950
1570.203	6861
1572.403	6884
1574.598	7055
1576.792	6874
1578.988	6923
1581.181	6880
1583.376	6944
1585.568	6942
1587.761	7025
1589.952	6837
1592.143	7014
1594.333	6822
1596.524	6973
1598.715	6990
1600.903	7025
1603.091	6997
1605.278	7092
1607.466	7053
1609.652	6931
1611.838	7005
1614.023	7017
1616.207	7024
1618.391	7023
1620.576	6893
1622.759	7033
1624.941	6910
1627.123	7118
1629.304	7054
1631.484	7121
1633.664	7029
1635.844	7054
1638.022	7167
1640.201	7090
1642.38	7089
1644.556	7099
1646.732	7193
1648.908	7078
1651.084	7103
1653.257	7071
1655.433	7171
1657.607	7120
1659.779	7082
1661.951	7200
1664.122	7214
1666.295	7184
1668.467	7265
1670.635	7214
1672.805	7337
1674.973	7171
1677.142	7262
1679.31	7245
1681.478	7129
1683.644	7070
1685.81	7061
1687.975	6944
1690.142	7159
1692.305	7158
1694.468	7009
1696.632	7082
1698.794	7095
1700.957	7034
1703.119	7041
1705.279	6972
1707.439	7052
1709.598	7034
1711.758	6952
1713.917	6905
1716.075	6946
1718.231	6823
1720.388	6987
1722.543	6829
1724.702	7004
1726.856	6868
1729.01	6978
1731.164	6922
1733.317	6924
1735.471	6941
1737.623	6948
1739.774	6800
1741.925	6973
1744.075	6850
1746.225	6848
1748.376	6928
1750.524	6938
1752.672	6872
1754.82	6889
1756.965	6930
1759.113	6908
1761.259	6825
1763.405	7046
1765.549	6994
1767.694	6957
1769.836	7036
1771.981	7005
1774.123	6969
1776.264	7082
1778.405	7031
1780.546	6856
1782.687	6947
1784.827	7043
1786.966	7020
1789.103	7001
1791.242	6996
1793.381	6960
1795.517	6998
1797.653	6937
1799.788	7080
1801.923	7046
1804.057	6964
1806.193	7007
1808.326	7052
1810.457	7028
1812.59	6994
1814.721	7091
1816.855	7008
1818.984	7045
1821.113	6994
1823.244	7029
1825.372	7000
1827.499	6993
1829.63	6907
1831.756	7076
1833.882	7022
1836.007	6965
1838.132	6865
1840.26	6964
1842.384	6957
1844.507	6955
1846.63	6933
1848.752	6979
1850.875	6929
1852.996	6887
1855.118	7015
1857.238	6958
1859.358	6927
1861.477	6843
1863.597	6986
1865.715	6938
1867.832	6849
1869.948	6877
1872.064	6939
1874.181	7018
1876.297	6878
1878.411	6981
1880.526	6953
1882.639	6888
1884.752	6960
1886.865	6963
1888.977	7013
1891.089	6893
1893.2	6976
1895.308	6910
1897.42	7027
1899.53	6932
1901.639	7093
1903.745	6950
1905.853	6963
1907.962	6945
1910.067	6959
1912.174	7109
1914.278	7063
1916.383	7104
1918.486	7050
1920.592	7119
1922.694	7015
1924.797	6895
1926.898	6971
1929	7073
1931.102	6963
1933.203	7045
1935.301	7095
1937.401	6974
1939.499	6998
1941.598	7136
1943.697	7112
1945.793	6912
1947.888	7137
1949.985	6950
1952.08	7201
1954.176	7018
1956.269	6949
1958.364	7010
1960.457	7064
1962.549	7041
1964.642	6907
1966.733	6961
1968.823	7021
1970.913	7054
1973.005	7035
1975.093	6976
1977.184	6896
1979.271	7087
1981.359	6968
1983.446	7067
1985.532	6940
1987.619	6964
1989.705	6987
1991.789	6974
1993.874	6998
1995.956	7006
1998.041	6905
2000.123	6937
2002.206	6951
2004.287	6946
2006.368	7055
2008.449	6957
2010.529	6959
2012.609	7055
2014.688	6948
2016.766	6912
2018.843	7021
2020.922	6943
2022.999	6958
2025.074	6937
2027.15	7064
2029.225	7031
2031.299	6972
2033.375	6920
2035.447	7006
2037.52	6965
2039.592	6994
2041.664	6961
2043.736	7022
2045.807	6936
2047.876	6932
2049.947	6966
2052.015	6943
2054.086	6973
2056.153	7047
2058.221	6935
2060.288	6986
2062.353	6882
2064.42	7046
2066.486	6972
2068.55	6996
2070.614	6878
2072.678	6830
2074.741	6909
2076.805	6892
2078.866	6982
2080.929	6952
2082.99	6943
2085.049	6956
2087.109	6940
2089.17	6887
2091.228	6942
2093.286	6874
2095.344	6987
2097.4	6925
2099.46	6952
2101.516	6955
2103.572	6913
2105.626	6938
2107.679	6966
2109.735	6860
2111.788	6985
2113.841	7047
2115.894	6916
2117.945	6878
2119.997	7081
2122.049	6980
2124.1	6963
2126.148	6998
2128.197	7078
2130.246	6902
2132.296	6927
2134.342	6910
2136.39	7035
2138.437	7002
2140.483	6989
2142.527	6991
2144.574	6850
2146.619	6936
2148.661	6891
2150.705	6955
2152.747	6886
2154.792	6841
2156.832	6982
2158.874	6872
2160.915	6807
2162.954	6818
2164.995	6820
2167.034	6846
2169.072	6842
2171.111	6950
2173.148	6970
2175.186	6866
2177.223	6873
2179.258	6778
2181.294	6893
2183.328	6808
2185.362	6801
2187.398	6762
2189.431	6929
2191.463	6846
2193.495	6716
2195.528	6615
2197.56	6755
2199.59	6753
2201.62	6795
2203.649	6800
2205.678	6792
2207.708	6739
2209.737	6782
2211.764	6762
2213.791	6674
2215.817	6720
2217.843	6768
2219.87	6799
2221.895	6705
2223.919	6738
2225.942	6746
2227.966	6802
2229.988	6806
2232.012	6811
2234.032	6857
2236.054	6709
2238.074	6686
2240.095	6755
2242.116	6781
2244.135	6889
2246.153	6726
2248.171	6736
2250.188	6742
2252.208	6817
2254.223	6750
2256.239	6775
2258.255	6660
2260.269	6764
2262.283	6689
2264.3	6702
2266.312	6718
2268.325	6793
2270.336	6711
2272.349	6796
2274.362	6798
2276.372	6844
2278.383	6727
2280.392	6625
2282.402	6772
2284.409	6788
2286.418	6829
2288.427	6728
2290.433	6765
2292.441	6712
2294.446	6664
2296.453	6718
2298.459	6732
2300.463	6693
2302.466	6673
2304.471	6687
2306.475	6701
2308.477	6696
2310.478	6603
2312.481	6729
2314.481	6744
2316.481	6752
2318.482	6715
2320.482	6820
2322.48	6741
2324.48	6766
2326.478	6656
2328.476	6658
2330.473	6617
2332.469	6535
2334.465	6637
2336.46	6673
2338.454	6546
2340.45	6562
2342.444	6491
2344.437	6671
2346.43	6667
2348.421	6524
2350.414	6593
2352.405	6612
2354.396	6592
2356.386	6652
2358.376	6539
2360.366	6632
2362.355	6545
2364.343	6495
2366.331	6593
2368.317	6526
2370.304	6592
2372.292	6573
2374.278	6542
2376.262	6529
2378.247	6601
2380.23	6515
2382.216	6634
2384.199	6557
2386.181	6407
2388.163	6479
2390.144	6548
2392.127	6586
2394.107	6558
2396.087	6509
2398.066	6509
2400.046	6552
2402.023	6557
2404.004	6487
2405.981	6433
2407.957	6545
2409.934	6531
2411.91	6471
2413.886	6575
2415.862	6428
2417.836	6476
2419.809	6472
2421.784	6609
2423.756	6463
2425.73	6420
2427.701	6504
2429.672	6468
2431.644	6511
2433.615	6518
2435.586	6461
2437.555	6399
2439.523	6476
2441.491	6531
2443.459	6427
2445.428	6449
2447.395	6398
2449.361	6595
2451.327	6436
2453.292	6433
2455.257	6387
2457.223	6421
2459.187	6382
2461.15	6325
2463.113	6464
2465.076	6355
2467.039	6497
2468.999	6408
2470.96	6389
2472.921	6371
2474.881	6435
2476.841	6388
2478.8	6378
2480.759	6483
2482.717	6313
2484.675	6424
2486.63	6320
2488.589	6358
2490.545	6355
2492.5	6263
2494.455	6407
2496.408	6383
2498.364	6313
2500.318	6277
2502.27	6482
2504.223	6440
2506.174	6326
2508.126	6456
2510.078	6237
2512.03	6362
2513.979	6406
2515.927	6401
2517.877	6403
2519.826	6281
2521.775	6321
2523.722	6250
2525.668	6303
2527.616	6328
2529.561	6291
2531.508	6415
2533.452	6309
2535.398	6222
2537.342	6302
2539.284	6302
2541.229	6381
2543.173	6204
2545.114	6316
2547.055	6248
2548.996	6446
2550.938	6318
2552.878	6356
2554.817	6283
2556.756	6257
2558.695	6392
2560.633	6318
2562.572	6329
2564.509	6360
2566.445	6305
2568.382	6412
2570.317	6343
2572.254	6304
2574.189	6286
2576.123	6235
2578.057	6280
2579.99	6342
2581.923	6213
2583.855	6394
2585.788	6337
2587.719	6270
2589.65	6304
2591.579	6227
2593.511	6253
2595.44	6328
2597.37	6243
2599.297	6387
2601.225	6268
2603.153	6269
2605.08	6407
2607.007	6311
2608.932	6321
2610.858	6360
2612.782	6368
2614.709	6284
2616.632	6413
2618.556	6342
2620.478	6430
2622.401	6330
2624.324	6232
2626.247	6417
2628.167	6236
2630.088	6286
2632.008	6271
2633.928	6356
2635.848	6392
2637.766	6254
2639.684	6456
2641.603	6274
2643.519	6281
2645.437	6343
2647.353	6247
2649.27	6204
2651.184	6254
2653.099	6291
2655.014	6317
2656.928	6215
2658.842	6387
2660.755	6347
2662.667	6308
2664.579	6342
2666.491	6294
2668.402	6237
2670.312	6271
2672.222	6249
2674.132	6362
2676.042	6143
2677.951	6290
2679.859	6256
2681.766	6282
2683.674	6293
2685.582	6172
2687.488	6253
2689.392	6225
2691.298	6291
2693.202	6201
2695.107	6224
2697.012	6189
2698.914	6238
2700.817	6173
2702.72	6137
2704.622	6074
2706.524	6128
2708.425	6009
2710.326	6185
2712.225	6118
2714.125	6245
2716.024	6164
2717.923	6212
2719.822	6195
2721.719	6204
2723.616	6056
2725.512	6242
2727.41	6224
2729.305	6121
2731.201	6084
2733.095	6194
2734.99	6216
2736.884	6063
2738.778	6173
2740.67	6283
2742.562	6218
2744.455	6198
2746.346	6134
2748.238	6137
2750.129	6107
2752.018	6183
2753.907	6192
2755.797	6141
2757.687	6183
2759.575	6131
2761.462	6185
2763.349	6217
2765.237	6141
2767.124	6153
2769.009	6143
2770.894	6093
2772.779	6156
2774.663	6065
2776.547	6242
2778.431	5995
2780.314	6089
2782.197	6129
2784.078	6265
2785.96	5982
2787.842	6042
2789.723	6137
2791.603	6216
2793.483	6132
2795.362	6045
2797.241	6184
2799.121	6093
2800.997	6045
2802.874	6168
2804.751	6138
2806.628	5995
2808.506	6117
2810.38	6006
2812.255	6111
2814.13	6110
2816.003	6199
2817.878	6173
2819.752	6158
2821.623	5984
2823.496	5985
2825.368	6202
2827.238	6064
2829.111	6122
2830.98	5991
2832.851	6120
2834.719	6083
2836.589	6134
2838.458	5980
2840.327	6104
2842.193	6091
2844.061	6153
2845.927	6102
2847.794	6046
2849.66	6068
2851.525	6143
2853.39	6214
2855.254	6219
2857.117	6200
2858.983	6322
2860.845	6315
2862.707	6221
2864.569	6315
2866.431	6315
2868.293	6323
2870.154	6470
2872.013	6500
2873.873	6490
2875.733	6571
2877.592	6747
2879.451	6733
2881.309	6959
2883.166	6765
2885.022	6993
2886.879	6753
2888.736	6874
2890.591	6835
2892.446	6854
2894.301	6962
2896.155	6898
2898.009	6907
2899.863	6890
2901.716	6746
2903.568	6871
2905.419	6967
2907.27	6882
2909.123	6896
2910.973	6895
2912.824	7063
2914.673	6909
2916.521	6943
2918.372	7202
2920.22	7234
2922.067	7209
2923.914	7307
2925.761	7323
2927.607	7380
2929.455	7379
2931.301	7518
2933.144	7592
2934.99	7578
2936.833	7718
2938.678	7710
2940.522	7738
2942.364	7833
2944.207	7949
2946.048	7989
2947.891	8136
2949.731	8115
2951.571	8128
2953.412	8052
2955.25	7881
2957.09	7997
2958.93	7941
2960.767	7834
2962.606	7812
2964.443	7645
2966.279	7712
2968.116	7448
2969.953	7374
2971.788	7366
2973.623	7020
2975.457	7031
2977.292	7070
2979.127	6914
2980.959	6915
2982.792	6893
2984.624	6925
2986.455	6829
2988.288	6807
2990.119	6633
2991.949	6612
2993.779	6672
2995.608	6567
2997.439	6568
2999.268	6577
3001.096	6470
3002.923	6393
3004.751	6404
3006.578	6314
3008.406	6126
3010.232	6289
3012.057	6130
3013.883	6094
3015.706	6156
3017.532	6038
3019.356	5927
3021.179	6017
3023.002	5907
3024.823	6039
3026.646	5974
3028.469	5824
3030.289	5789
3032.11	5793
3033.93	5911
3035.749	5823
3037.57	5789
3039.39	5854
3041.207	5733
3043.026	5773
3044.842	5855
3046.661	5727
3048.477	5720
3050.294	5810
3052.109	5824
3053.925	5882
3055.739	5781
3057.555	5803
3059.368	5690
3061.181	5756
3062.995	5772
3064.807	5787
3066.62	5794
3068.433	5718
3070.243	5709
3072.054	5847
3073.865	5658
3075.675	5729
3077.485	5741
3079.293	5725
3081.102	5757
3082.911	5652
3084.719	5713
3086.527	5584
3088.333	5781
3090.139	5721
3091.945	5665
3093.75	5690
3095.557	5555
3097.361	5726
3099.165	5609
3100.969	5584
3102.772	5434
3104.575	5586
3106.379	5510
3108.181	5595
3109.982	5593
3111.783	5530
3113.584	5437
3115.386	5509
3117.186	5593
3118.985	5448
3120.783	5510
3122.582	5517
3124.381	5469
3126.179	5388
3127.975	5488
3129.772	5415
3131.569	5494
3133.365	5419
3135.161	5488
3136.956	5481
3138.751	5514
3140.544	5378
3142.338	5356
3144.132	5453
3145.925	5381
3147.717	5421
3149.509	5341
3151.301	5469
3153.091	5417
3154.884	5347
3156.673	5407
3158.462	5334
3160.252	5490
3162.041	5462
3163.831	5361
3165.618	5395
3167.405	5477
3169.193	5319
3170.979	5414
3172.767	5387
3174.553	5398
3176.338	5464
3178.123	5372
3179.907	5424
3181.692	5366
3183.477	5364
3185.259	5255
3187.042	5301
3188.824	5450
3190.607	5318
3192.389	5405
3194.17	5412
3195.951	5417
3197.73	5326
3199.51	5384
3201.289	5328
3203.07	5393
3204.848	5368
3206.626	5287
3208.403	5330
3210.18	5380
3211.959	5330
3213.735	5393
3215.511	5310
3217.285	5362
3219.06	5323
3220.836	5369
3222.611	5258
3224.384	5335
3226.158	5390
3227.929	5327
3229.702	5314
3231.476	5375
3233.248	5360
3235.018	5331
3236.789	5350
3238.56	5289
3240.33	5318
3242.1	5304
3243.869	5342
3245.637	5335
3247.405	5246
3249.172	5351
3250.941	5352
3252.707	5294
3254.474	5329
3256.24	5309
3258.006	5391
3259.772	5368
3261.537	5330
3263.301	5277
3265.065	5330
3266.828	5321
3268.592	5358
3270.355	5349
3272.117	5362
3273.878	5404
3275.64	5397
3277.401	5298
3279.162	5365
3280.922	5335
3282.682	5216
3284.441	5372
3286.199	5226
3287.959	5235
3289.716	5292
3291.475	5241
3293.232	5414
3294.988	5342
3296.744	5332
3298.501	5270
3300.256	5256
3302.011	5222
3303.766	5236
3305.52	5403
3307.275	5335
3309.028	5234
3310.781	5408
3312.533	5349
3314.285	5284
3316.038	5364
3317.789	5339
3319.54	5309
3321.289	5279
3323.039	5387
3324.789	5285
3326.539	5248
3328.288	5305
3330.035	5256
3331.783	5247
3333.531	5302
3335.28	5411
3337.025	5293
3338.771	5167
3340.518	5250
3342.262	5256
3344.009	5199
3345.753	5302
3347.497	5239
3349.24	5271
3350.983	5105
3352.726	5171
3354.469	5180
3356.212	5206
3357.952	5213
3359.694	5165
3361.434	5160
3363.176	5113
3364.916	5230
3366.654	5146
3368.394	5207
3370.132	5238
3371.871	5098
3373.61	5184
3375.346	5055
3377.083	5105
3378.82	5130
3380.556	5063
3382.292	5075
3384.027	5067
3385.763	5101
3387.497	5282
3389.231	5077
3390.965	5041
3392.698	5096
3394.431	5027
3396.164	5080
3397.896	5102
3399.627	5064
3401.36	5085
3403.09	5129
3404.82	5079
3406.55	5101
3408.279	5007
3410.01	5005
3411.738	5111
3413.467	5043
3415.194	5020
3416.92	5026
3418.647	5063
3420.375	5093
3422.102	5017
3423.827	4936
3425.553	5004
3427.277	5068
3429.003	5038
3430.727	5027
3432.451	5001
3434.173	5004
3435.896	4962
3437.62	4976
3439.343	4991
3441.063	4935
3442.785	4934
3444.505	4766
3446.226	4959
3447.948	4873
3449.666	4889
3451.386	4844
3453.104	4870
3454.823	4881
3456.541	4828
3458.259	4759
3459.976	4839
3461.693	4886
3463.408	4826
3465.125	4819
3466.841	4885
3468.556	4820
3470.271	4756
3471.985	4776
3473.698	4808
3475.414	4878
3477.126	4843
3478.838	4768
3480.55	4851
3482.263	4739
3483.975	4743
3485.686	4863
3487.396	4812
3489.106	4749
3490.817	4679
3492.526	4772
3494.236	4658
3495.944	4736
3497.652	4685
3499.359	4711
3501.066	4642
3502.775	4688
3504.481	4705
3506.187	4697
3507.893	4652
3509.598	4595
3511.304	4690
3513.009	4546
3514.713	4630
3516.417	4490
3518.12	4673
3519.821	4567
3521.525	4658
3523.228	4555
3524.929	4707
3526.631	4680
3528.33	4506
3530.032	4648
3531.733	4588
3533.433	4620
3535.131	4574
3536.83	4540
3538.529	4647
3540.227	4563
3541.925	4522
3543.623	4601
3545.319	4561
3547.016	4476
3548.712	4521
3550.408	4431
3552.103	4543
3553.798	4422
3555.491	4396
3557.188	4418
3558.88	4485
3560.574	4448
3562.266	4428
3563.959	4473
3565.651	4389
3567.343	4555
3569.035	4434
3570.725	4469
3572.415	4459
3574.106	4501
3575.797	4499
3577.485	4431
3579.174	4474
3580.863	4483
3582.551	4377
3584.238	4376
3585.926	4435
3587.613	4376
3589.3	4392
3590.986	4311
3592.671	4306
3594.357	4391
3596.042	4351
3597.726	4224
3599.41	4315
3601.094	4358
3602.778	4301
3604.461	4155
3606.143	4330
3607.825	4308
3609.507	4170
3611.188	4274
3612.87	4237
3614.551	4247
3616.229	4201
3617.909	4250
3619.589	4284
3621.269	4295
3622.948	4186
3624.625	4192
3626.302	4149
3627.98	4174
3629.657	4170
3631.334	4199
3633.01	4117
3634.686	4165
3636.361	4185
3638.036	4168
3639.712	4192
3641.385	4115
3643.06	4159
3644.732	4071
3646.405	4146
3648.08	4152
3649.751	4215
3651.424	4132
3653.094	4105
3654.766	4034
3656.436	4095
3658.106	4134
3659.777	4042
3661.446	4144
3663.115	4128
3664.783	4125
3666.452	4066
3668.121	3996
3669.788	4080
3671.454	4068
3673.121	4010
3674.789	4084
3676.455	4055
3678.12	4105
3679.784	4130
3681.45	4064
3683.114	4053
3684.779	4066
3686.442	4073
3688.105	3993
3689.768	4063
3691.43	4022
3693.093	3957
3694.754	4069
3696.415	3938
3698.076	3991
3699.736	4010
3701.396	4002
3703.057	3983
3704.716	3959
3706.375	3951
3708.034	3970
3709.692	3946
3711.351	3959
3713.008	3988
3714.665	3961
3716.321	4033
3717.977	3940
3719.634	3943
3721.29	3939
3722.945	3960
3724.598	3943
3726.253	3976
3727.907	3915
3729.561	3847
3731.214	3937
3732.867	3982
3734.518	3856
3736.171	3910
3737.824	3888
3739.474	3933
3741.125	3911
3742.775	3942
3744.425	3855
3746.074	3870
3747.725	3965
3749.373	3892
3751.022	3878
3752.669	3887
3754.318	3919
3755.966	3846
3757.612	3877
3759.259	3829
3760.905	3881
3762.55	3897
3764.197	3877
3765.842	3824
3767.486	3760
3769.131	3879
3770.774	3834
3772.417	3826
3774.061	3897
3775.705	3863
3777.347	3869
3778.988	3740
3780.629	3855
3782.271	3824
3783.912	3787
3785.552	3804
3787.192	3834
3788.831	3769
3790.472	3928
3792.112	3803
3793.75	3768
3795.388	3803
3797.024	3786
3798.661	3734
3800.3	3811
3801.936	3797
3803.572	3761
3805.208	3774
3806.844	3773
3808.48	3797
3810.115	3800
3811.748	3665
3813.382	3714
3815.016	3752
3816.649	3741
3818.283	3676
3819.914	3701
3821.547	3689
3823.178	3719
3824.809	3752
3826.441	3646
3828.072	3762
3829.701	3626
3831.331	3726
3832.96	3713
3834.591	3736
3836.219	3705
3837.847	3651
3839.475	3591
3841.102	3632
3842.729	3656
3844.357	3601
3845.984	3612
3847.609	3732
3849.234	3620
3850.86	3657
3852.485	3653
3854.11	3601
3855.734	3641
3857.357	3659
3858.981	3652
3860.603	3617
3862.227	3605
3863.848	3565
3865.471	3660
3867.092	3541
3868.713	3585
3870.334	3615
3871.954	3506
3873.575	3531
3875.194	3590
3876.813	3677
3878.433	3593
3880.051	3523
3881.669	3519
3883.286	3608
3884.904	3584
3886.52	3544
3888.138	3583
3889.754	3536
3891.37	3568
3892.985	3581
3894.6	3517
3896.216	3615
3897.831	3494
3899.444	3492
3901.058	3647
3902.67	3490
3904.283	3590
3905.897	3533
3907.509	3522
3909.121	3589
3910.731	3559
3912.342	3614
3913.954	3560
3915.563	3574
3917.174	3534
3918.783	3538
3920.391	3499
3922.002	3482
3923.611	3588
3925.218	3482
3926.826	3577
3928.432	3518
3930.039	3536
3931.647	3505
3933.253	3525
3934.859	3605
3936.464	3470
3938.068	3496
3939.675	3481
3941.278	3489
3942.883	3517
3944.486	3519
3946.089	3535
3947.692	3426
3949.295	3536
3950.898	3534
3952.499	3369
3954.1	3475
3955.7	3518
3957.303	3464
3958.903	3418
3960.502	3424
3962.101	3523
3963.7	3489
3965.301	3447
3966.899	3466
3968.497	3414
3970.094	3408
3971.691	3428
3973.288	3414
3974.885	3383
3976.481	3360
3978.077	3410
3979.672	3368
3981.267	3332
3982.863	3441
3984.457	3341
3986.051	3472
3987.645	3465
3989.238	3295
3990.831	3303
3992.425	3377
3994.017	3354
3995.607	3295
3997.199	3313
3998.79	3386
4000.382	3323
4001.973	3297
4003.561	3282
4005.151	3345
4006.741	3352
4008.331	3371
4009.918	3272
4011.507	3343
4013.095	3252
4014.681	3218
4016.269	3300
4017.856	3324
4019.443	3263
4021.028	3280
4022.614	3302
4024.199	3255
4025.785	3208
4027.37	3318
4028.953	3248
4030.536	3296
4032.12	3293
4033.704	3246
4035.287	3239
4036.869	3310
4038.45	3268
4040.032	3223
4041.613	3258
4043.195	3119
4044.776	3189
4046.356	3201
4047.935	3175
4049.515	3201
4051.095	3212
4052.674	3204
4054.251	3190
4055.829	3215
4057.406	3221
4058.985	3174
4060.562	3255
4062.139	3124
4063.715	3149
4065.29	3204
4066.865	3205
4068.442	3208
4070.016	3191
4071.59	3168
4073.164	3089
4074.738	3151
4076.312	3088
4077.885	3199
4079.458	3154
4081.03	3157
4082.602	3170
4084.173	3161
4085.745	3130
4087.315	3166
4088.886	3116
4090.456	3228
4092.026	3081
4093.596	3049
4095.165	3118
4096.734	3179
4098.301	3102
4099.869	3118
4101.437	3097
4103.006	3097
4104.572	3026
4106.139	3166
4107.704	3075
4109.27	3053
4110.837	3036
4112.401	3164
4113.966	3096
4115.53	3058
4117.094	3049
4118.659	3111
4120.223	3039
4121.785	3086
4123.347	3008
4124.909	3083
4126.471	3106
4128.034	3032
4129.595	2985
4131.155	3065
4132.716	3010
4134.275	3140
4135.836	3090
4137.395	3076
4138.955	3022
4140.513	2988
4142.071	3024
4143.628	3006
4145.188	3073
4146.745	2936
4148.302	2982
4149.858	2966
4151.414	3013
4152.971	3038
4154.526	2902
4156.081	3002
4157.635	2959
4159.189	2986
4160.745	2953
4162.298	2992
4163.852	2926
4165.405	2976
4166.957	3008
4168.51	2945
4170.063	3003
4171.614	2902
4173.166	2922
4174.717	2948
4176.267	2932
4177.817	2901
4179.368	2894
4180.917	2916
4182.466	2924
4184.016	2987
4185.564	2907
4187.112	2928
4188.66	2946
4190.207	2973
4191.754	2941
4193.301	2861
4194.848	2862
4196.394	2892
4197.94	2860
4199.484	2919
4201.03	2851
4202.575	2879
4204.12	2836
4205.663	2974
4207.207	2888
4208.75	2913
4210.292	2926
4211.836	2933
4213.378	2808
4214.92	2887
4216.46	2862
4218.002	2835
4219.544	2906
4221.083	2770
4222.625	2819
4224.164	2893
4225.703	2785
4227.244	2877
4228.782	2881
4230.32	2840
4231.857	2797
4233.395	2836
4234.933	2781
4236.471	2862
4238.007	2825
4239.542	2785
4241.078	2880
4242.614	2863
4244.15	2823
4245.685	2795
4247.219	2820
4248.753	2751
4250.287	2802
4251.82	2766
4253.354	2741
4254.887	2796
4256.419	2820
4257.951	2836
4259.483	2760
4261.016	2800
4262.547	2744
4264.078	2830
4265.608	2828
4267.137	2822
4268.668	2786
4270.197	2751
4271.727	2745
4273.254	2755
4274.783	2746
4276.311	2806
4277.84	2779
4279.366	2726
4280.894	2735
4282.42	2761
4283.946	2763
4285.473	2767
4286.998	2777
4288.523	2772
4290.047	2745
4291.572	2737
4293.096	2805
4294.622	2675
4296.144	2681
4297.668	2655
4299.19	2708
4300.713	2693
4302.236	2678
4303.758	2716
4305.279	2774
4306.799	2750
4308.321	2691
4309.842	2747
4311.361	2680
4312.882	2629
4314.401	2661
