400.0961	4093
402.6185	4015
405.1424	4136
407.6635	4077
410.1838	4041
412.7035	3993
415.2225	4019
417.7388	4105
420.2585	4042
422.7754	4224
425.2917	4137
427.8072	4160
430.3221	4283
432.8363	4212
435.3498	4294
437.8626	4192
440.3727	4303
442.8841	4262
445.3969	4256
447.907	4223
450.4142	4317
452.9229	4302
455.4289	4213
457.9362	4282
460.4449	4316
462.9488	4304
465.454	4271
467.9566	4224
470.4604	4298
472.9637	4237
475.4662	4304
477.966	4223
480.4671	4218
482.9656	4306
485.4633	4360
487.9645	4300
490.4608	4303
492.9566	4368
495.4536	4363
497.948	4360
500.4437	4348
502.9387	4407
505.431	4353
507.9226	4393
510.4136	4438
512.9079	4338
515.3975	4353
517.8864	4388
520.3746	4378
522.8622	4374
525.3491	4424
527.8394	4365
530.3249	4383
532.8098	4490
535.2939	4514
537.7774	4494
540.2623	4429
542.7444	4406
545.2259	4454
547.7067	4514
550.1868	4518
552.6683	4462
555.147	4340
557.6231	4456
560.1005	4494
562.5773	4477
565.0534	4493
567.5308	4460
570.0056	4495
572.4776	4513
574.951	4606
577.4237	4518
579.8978	4701
582.3671	4588
584.8378	4613
587.3079	4554
589.7773	4577
592.244	4647
594.714	4600
597.1793	4648
599.6461	4538
602.1121	4599
604.5754	4636
607.0421	4548
609.5042	4640
611.9675	4536
614.4282	4526
616.8902	4531
619.3515	4603
621.8122	4556
624.2702	4604
626.7296	4712
629.1863	4651
631.6423	4621
634.1017	4627
636.5563	4612
639.0104	4579
641.4658	4647
643.9185	4577
646.3725	4568
648.8239	4638
651.2766	4569
653.7266	4588
656.176	4658
658.6247	4651
661.0748	4703
663.5242	4596
665.9709	4688
668.417	4753
670.8624	4764
673.3092	4737
675.7533	4757
678.1968	4785
680.6395	4746
683.0817	4757
685.5251	4696
687.9659	4760
690.4061	4737
692.8456	4781
695.2844	4839
697.7226	4813
700.1621	4807
702.599	4850
705.0332	4788
707.4688	4810
709.9036	4872
712.3399	4856
714.7735	4838
717.2044	4886
719.6367	4897
722.0683	4811
724.4993	4949
726.9296	4813
729.3593	4957
731.7883	4817
734.2147	5020
736.6423	4949
739.0714	5021
741.4958	4837
743.9216	4936
746.3447	4873
748.7691	5009
751.1929	4974
753.616	5079
756.0366	5026
758.4584	4999
760.8776	4972
763.2982	5064
765.718	5060
768.1373	5038
770.5539	5122
772.9698	5002
775.3871	4985
777.8038	5053
780.2178	5084
782.6332	5139
785.0459	5109
787.458	5141
789.8714	5134
792.2842	5138
794.6943	5180
797.1038	5203
799.5127	5043
801.9209	5095
804.3324	5135
806.7393	5113
809.1456	5081
811.5513	5096
813.9562	5108
816.3625	5293
818.7663	5180
821.1693	5169
823.5718	5143
825.9735	5112
828.3746	5164
830.7771	5111
833.177	5125
835.5762	5182
837.9747	5255
840.3727	5181
842.772	5204
845.1666	5201
847.5626	5245
849.958	5373
852.3527	5413
854.7488	5378
857.1403	5323
859.5331	5227
861.9253	5246
864.3168	5328
866.7057	5198
869.098	5252
871.4876	5403
873.8746	5225
876.263	5250
878.6487	5264
881.0378	5276
883.4243	5306
885.8081	5291
888.1933	5294
890.5759	5288
892.9598	5308
895.343	5178
897.7256	5326
900.1057	5238
902.4871	5186
904.8659	5432
907.246	5418
909.6254	5353
912.0023	5437
914.3786	5504
916.7562	5696
919.1331	5678
921.5074	5685
923.8831	5868
926.2562	5811
928.6287	5701
931.0005	5751
933.3757	5675
935.7462	5615
938.1162	5612
940.4855	5644
942.8542	5704
945.2242	5654
947.5916	5692
949.9584	5720
952.3266	5777
954.6921	6055
957.0571	6214
959.4233	6295
961.787	6299
964.15	6322
966.5125	6202
968.8742	6125
971.2354	5877
973.5959	5842
975.9559	5656
978.3151	5679
980.6738	5703
983.0338	5600
985.3912	5624
987.7461	5506
990.1022	5521
992.4578	5609
994.8127	5501
997.1689	5572
999.5207	5529
1001.874	5536
1004.226	5527
1006.576	5564
1008.929	5507
1011.28	5449
1013.628	5482
1015.977	5577
1018.324	5523
1020.674	5526
1023.019	5555
1025.366	5449
1027.713	5577
1030.056	5552
1032.399	5560
1034.746	5568
1037.087	5560
1039.431	5559
1041.771	5503
1044.113	5480
1046.454	5499
1048.793	5563
1051.133	5610
1053.471	5458
1055.807	5568
1058.146	5582
1060.483	5507
1062.818	5607
1065.153	5701
1067.489	5551
1069.822	5709
1072.156	5652
1074.488	5708
1076.82	5646
1079.15	5658
1081.48	5596
1083.814	5598
1086.143	5578
1088.471	5591
1090.799	5600
1093.126	5590
1095.452	5638
1097.78	5567
1100.105	5540
1102.43	5596
1104.754	5623
1107.077	5532
1109.4	5663
1111.722	5690
1114.044	5704
1116.365	5775
1118.685	5750
1121.005	5648
1123.324	5812
1125.643	5654
1127.961	5778
1130.278	5790
1132.595	5702
1134.911	5677
1137.226	5719
1139.541	5667
1141.854	5741
1144.167	5626
1146.482	5637
1148.793	5569
1151.105	5615
1153.414	5756
1155.725	5724
1158.033	5643
1160.344	5712
1162.651	5612
1164.959	5678
1167.265	5611
1169.572	5695
1171.878	5846
1174.184	5766
1176.488	5783
1178.79	5729
1181.094	5810
1183.396	5857
1185.699	5702
1188.001	5718
1190.301	5525
1192.6	5697
1194.9	5599
1197.2	5691
1199.497	5686
1201.794	5804
1204.09	5765
1206.387	5689
1208.684	5643
1210.978	5694
1213.272	5755
1215.565	5647
1217.858	5751
1220.15	5690
1222.443	5697
1224.734	5675
1227.024	5877
1229.313	5814
1231.602	5703
1233.892	5651
1236.18	5831
1238.467	5864
1240.754	5860
1243.04	5819
1245.325	5926
1247.612	5899
1249.896	5974
1252.178	5888
1254.461	5914
1256.743	6055
1259.027	5939
1261.308	5901
1263.587	5988
1265.867	5961
1268.146	5901
1270.425	6064
1272.703	6019
1274.981	5928
1277.256	5968
1279.532	5857
1281.808	5833
1284.083	5798
1286.358	5886
1288.63	5925
1290.904	5848
1293.175	5831
1295.449	5912
1297.719	5855
1299.99	5840
1302.259	5759
1304.529	5881
1306.798	5928
1309.065	5905
1311.333	5843
1313.599	5886
1315.866	5913
1318.131	5920
1320.396	5867
1322.66	5812
1324.925	5905
1327.187	5967
1329.448	6030
1331.711	6009
1333.974	5928
1336.234	5904
1338.493	5964
1340.752	5971
1343.01	5834
1345.269	5844
1347.526	5877
1349.784	5879
1352.04	5872
1354.295	5830
1356.552	5770
1358.806	5890
1361.059	5781
1363.312	5885
1365.564	5887
1367.818	5970
1370.069	5991
1372.318	5909
1374.568	5865
1376.817	5931
1379.066	5875
1381.316	5952
1383.564	6146
1385.809	6119
1388.056	5995
1390.301	6098
1392.549	6098
1394.793	6273
1397.036	6339
1399.279	6367
1401.522	6283
1403.763	6399
1406.007	6299
1408.248	6327
1410.487	6331
1412.727	6295
1414.965	6185
1417.205	6346
1419.442	6277
1421.68	6175
1423.915	6132
1426.152	6164
1428.388	6153
1430.623	6088
1432.857	6161
1435.091	6167
1437.323	6173
1439.556	6208
1441.789	6346
1444.019	6192
1446.25	6239
1448.48	6227
1450.708	6242
1452.938	6195
1455.167	6215
1457.394	6240
1459.62	6362
1461.846	6394
1464.073	6217
1466.299	6247
1468.523	6145
1470.746	6054
1472.969	6169
1475.191	5988
1477.415	6055
1479.636	6009
1481.858	6057
1484.078	6012
1486.298	6047
1488.518	5815
1490.736	5962
1492.954	5851
1495.169	5991
1497.386	6028
1499.602	5878
1501.819	5892
1504.034	5959
1506.248	5982
1508.462	5877
1510.675	5871
1512.888	5884
1515.1	5855
1517.311	5925
1519.522	5895
1521.732	5896
1523.942	5818
1526.151	5850
1528.36	5859
1530.566	5922
1532.773	6039
1534.98	5860
1537.187	5809
1539.392	5856
1541.596	5941
1543.801	5976
1546.005	6008
1548.208	5997
1550.411	5949
1552.612	5987
1554.814	6033
1557.013	5996
1559.212	6007
1561.414	6041
1563.612	6016
1565.811	5967
1568.007	6019
1570.203	6237
1572.403	6108
1574.598	6148
1576.792	6009
1578.988	6015
1581.181	6149
1583.376	6152
1585.568	6155
1587.761	6100
1589.952	6126
1592.143	6172
1594.333	6014
1596.524	6150
1598.715	6199
1600.903	6039
1603.091	6152
1605.278	6198
1607.466	6101
1609.652	6061
1611.838	6188
1614.023	6189
1616.207	6006
1618.391	6244
1620.576	6152
1622.759	6084
1624.941	6135
1627.123	6184
1629.304	6034
1631.484	6226
1633.664	6232
1635.844	6062
1638.022	6226
1640.201	6230
1642.38	6089
1644.556	6067
1646.732	6131
1648.908	6196
1651.084	6228
1653.257	6170
1655.433	6311
1657.607	6187
1659.779	6291
1661.951	6199
1664.122	6325
1666.295	6224
1668.467	6282
1670.635	6157
1672.805	6338
1674.973	6257
1677.142	6275
1679.31	6174
1681.478	6174
1683.644	6287
1685.81	6268
1687.975	6118
1690.142	6180
1692.305	6166
1694.468	6228
1696.632	6137
1698.794	6218
1700.957	6115
1703.119	6208
1705.279	6204
1707.439	6234
1709.598	6102
1711.758	6231
1713.917	6125
1716.075	6092
1718.231	6138
1720.388	6078
1722.543	6174
1724.702	6136
1726.856	6154
1729.01	6144
1731.164	6070
1733.317	6077
1735.471	6053
1737.623	6121
1739.774	6145
1741.925	6121
1744.075	6194
1746.225	6070
1748.376	6087
1750.524	6161
1752.672	6166
1754.82	6170
1756.965	6122
1759.113	6067
1761.259	6279
1763.405	6066
1765.549	6187
1767.694	6240
1769.836	6170
1771.981	6098
1774.123	6265
1776.264	6206
1778.405	6182
1780.546	6167
1782.687	6064
1784.827	6140
1786.966	6154
1789.103	6221
1791.242	6186
1793.381	6196
1795.517	6099
1797.653	6222
1799.788	6101
1801.923	6121
1804.057	6218
1806.193	6082
1808.326	6150
1810.457	6316
1812.59	6134
1814.721	6183
1816.855	6096
1818.984	6094
1821.113	6189
1823.244	6029
1825.372	6174
1827.499	6221
1829.63	6239
1831.756	6139
1833.882	6272
1836.007	6178
1838.132	6114
1840.26	6004
1842.384	6127
1844.507	6171
1846.63	6290
1848.752	6131
1850.875	6092
1852.996	6050
1855.118	6117
1857.238	6120
1859.358	6078
1861.477	6101
1863.597	6114
1865.715	6148
1867.832	6181
1869.948	6246
1872.064	6097
1874.181	6090
1876.297	6085
1878.411	6078
1880.526	6104
1882.639	6195
1884.752	6078
1886.865	6092
1888.977	6129
1891.089	6176
1893.2	6159
1895.308	6131
1897.42	6118
1899.53	6220
1901.639	6081
1903.745	6147
1905.853	6262
1907.962	6282
1910.067	6103
1912.174	6124
1914.278	6284
1916.383	6178
1918.486	6210
1920.592	6227
1922.694	6274
1924.797	6362
1926.898	6142
1929	6169
1931.102	6260
1933.203	6263
1935.301	6234
1937.401	6175
1939.499	6221
1941.598	6288
1943.697	6220
1945.793	6178
1947.888	6312
1949.985	6203
1952.08	6195
1954.176	6187
1956.269	6217
1958.364	6284
1960.457	6257
1962.549	6226
1964.642	6224
1966.733	6217
1968.823	6308
1970.913	6252
1973.005	6165
1975.093	6239
1977.184	6193
1979.271	6155
1981.359	6267
1983.446	6330
1985.532	6246
1987.619	6087
1989.705	6162
1991.789	6130
1993.874	6132
1995.956	6138
1998.041	6168
2000.123	6112
2002.206	6278
2004.287	6178
2006.368	6237
2008.449	6216
2010.529	6198
2012.609	6177
2014.688	6072
2016.766	6120
2018.843	6367
2020.922	6023
2022.999	6200
2025.074	6187
2027.15	6329
2029.225	6175
2031.299	6127
2033.375	6072
2035.447	6218
2037.52	6139
2039.592	6173
2041.664	6156
2043.736	6093
2045.807	6146
2047.876	6070
2049.947	6334
2052.015	6186
2054.086	6182
2056.153	6206
2058.221	6114
2060.288	6174
2062.353	6161
2064.42	6056
2066.486	6235
2068.55	6190
2070.614	6196
2072.678	6198
2074.741	6175
2076.805	6163
2078.866	6169
2080.929	6146
2082.99	6267
2085.049	6218
2087.109	6148
2089.17	6140
2091.228	6089
2093.286	6161
2095.344	6238
2097.4	6179
2099.46	6211
2101.516	6095
2103.572	6189
2105.626	6095
2107.679	6174
2109.735	6204
2111.788	6246
2113.841	6133
2115.894	6183
2117.945	6226
2119.997	6219
2122.049	6277
2124.1	6197
2126.148	6162
2128.197	6257
2130.246	6146
2132.296	6158
2134.342	6238
2136.39	6202
2138.437	6152
2140.483	6093
2142.527	6233
2144.574	6179
2146.619	6193
2148.661	6142
2150.705	6130
2152.747	6154
2154.792	6148
2156.832	6055
2158.874	6179
2160.915	6098
2162.954	6062
2164.995	6165
2167.034	6205
2169.072	6084
2171.111	6107
2173.148	6196
2175.186	6144
2177.223	6136
2179.258	6103
2181.294	6193
2183.328	6030
2185.362	6176
2187.398	6084
2189.431	5996
2191.463	6112
2193.495	6119
2195.528	6075
2197.56	6114
2199.59	5999
2201.62	6003
2203.649	6040
2205.678	6035
2207.708	6052
2209.737	5954
2211.764	6074
2213.791	5906
2215.817	6058
2217.843	5983
2219.87	5931
2221.895	5960
2223.919	5929
2225.942	6038
2227.966	6022
2229.988	5950
2232.012	6024
2234.032	5976
2236.054	6011
2238.074	5981
2240.095	5896
2242.116	5932
2244.135	6093
2246.153	5953
2248.171	6059
2250.188	6032
2252.208	6035
2254.223	5978
2256.239	6057
2258.255	5956
2260.269	5987
2262.283	6062
2264.3	5969
2266.312	6060
2268.325	5942
2270.336	5952
2272.349	5977
2274.362	5975
2276.372	6052
2278.383	5978
2280.392	6063
2282.402	6045
2284.409	5983
2286.418	5996
2288.427	6084
2290.433	6043
2292.441	5968
2294.446	5981
2296.453	6022
2298.459	6130
2300.463	6131
2302.466	5972
2304.471	6019
2306.475	6020
2308.477	5967
2310.478	5995
2312.481	5941
2314.481	6068
2316.481	6034
2318.482	5957
2320.482	6019
2322.48	5950
2324.48	5968
2326.478	5978
2328.476	5803
2330.473	5920
2332.469	5846
2334.465	5980
2336.46	5840
2338.454	5843
2340.45	5936
2342.444	5969
2344.437	5816
2346.43	5899
2348.421	5818
2350.414	5848
2352.405	5793
2354.396	5811
2356.386	5904
2358.376	5929
2360.366	5948
2362.355	5873
2364.343	5942
2366.331	5878
2368.317	5835
2370.304	5777
2372.292	5858
2374.278	5943
2376.262	5906
2378.247	5839
2380.23	5934
2382.216	5793
2384.199	5755
2386.181	5902
2388.163	5849
2390.144	5760
2392.127	5805
2394.107	5737
2396.087	5765
2398.066	5742
2400.046	5782
2402.023	5965
2404.004	5792
2405.981	5762
2407.957	5697
2409.934	5855
2411.91	5790
2413.886	5828
2415.862	5696
2417.836	5711
2419.809	5787
2421.784	5825
2423.756	5860
2425.73	5706
2427.701	5658
2429.672	5794
2431.644	5823
2433.615	5855
2435.586	5754
2437.555	5859
2439.523	5779
2441.491	5734
2443.459	5841
2445.428	5793
2447.395	5698
2449.361	5819
2451.327	5796
2453.292	5719
2455.257	5825
2457.223	5638
2459.187	5624
2461.15	5753
2463.113	5740
2465.076	5718
2467.039	5729
2468.999	5674
2470.96	5648
2472.921	5592
2474.881	5723
2476.841	5600
2478.8	5670
2480.759	5685
2482.717	5655
2484.675	5723
2486.63	5718
2488.589	5650
2490.545	5567
2492.5	5581
2494.455	5680
2496.408	5527
2498.364	5697
2500.318	5664
2502.27	5756
2504.223	5681
2506.174	5699
2508.126	5750
2510.078	5630
2512.03	5718
2513.979	5563
2515.927	5610
2517.877	5520
2519.826	5711
2521.775	5668
2523.722	5620
2525.668	5652
2527.616	5755
2529.561	5699
2531.508	5752
2533.452	5585
2535.398	5568
2537.342	5668
2539.284	5685
2541.229	5713
2543.173	5601
2545.114	5570
2547.055	5651
2548.996	5646
2550.938	5614
2552.878	5783
2554.817	5580
2556.756	5589
2558.695	5649
2560.633	5601
2562.572	5631
2564.509	5684
2566.445	5564
2568.382	5600
2570.317	5532
2572.254	5732
2574.189	5755
2576.123	5502
2578.057	5620
2579.99	5507
2581.923	5663
2583.855	5547
2585.788	5658
2587.719	5717
2589.65	5670
2591.579	5603
2593.511	5584
2595.44	5611
2597.37	5662
2599.297	5732
2601.225	5590
2603.153	5547
2605.08	5599
2607.007	5664
2608.932	5699
2610.858	5662
2612.782	5652
2614.709	5707
2616.632	5653
2618.556	5682
2620.478	5666
2622.401	5629
2624.324	5675
2626.247	5635
2628.167	5679
2630.088	5648
2632.008	5718
2633.928	5691
2635.848	5661
2637.766	5628
2639.684	5662
2641.603	5760
2643.519	5674
2645.437	5626
2647.353	5736
2649.27	5626
2651.184	5691
2653.099	5644
2655.014	5781
2656.928	5605
2658.842	5690
2660.755	5550
2662.667	5689
2664.579	5711
2666.491	5695
2668.402	5604
2670.312	5632
2672.222	5532
2674.132	5662
2676.042	5636
2677.951	5590
2679.859	5526
2681.766	5552
2683.674	5559
2685.582	5586
2687.488	5602
2689.392	5542
2691.298	5549
2693.202	5519
2695.107	5644
2697.012	5531
2698.914	5632
2700.817	5468
2702.72	5531
2704.622	5520
2706.524	5536
2708.425	5438
2710.326	5561
2712.225	5494
2714.125	5534
2716.024	5549
2717.923	5473
2719.822	5598
2721.719	5588
2723.616	5601
2725.512	5555
2727.41	5623
2729.305	5474
2731.201	5538
2733.095	5616
2734.99	5473
2736.884	5547
2738.778	5502
2740.67	5602
2742.562	5578
2744.455	5435
2746.346	5517
2748.238	5471
2750.129	5480
2752.018	5594
2753.907	5415
2755.797	5449
2757.687	5532
2759.575	5508
2761.462	5513
2763.349	5528
2765.237	5502
2767.124	5459
2769.009	5423
2770.894	5547
2772.779	5478
2774.663	5516
2776.547	5511
2778.431	5475
2780.314	5513
2782.197	5440
2784.078	5461
2785.96	5479
2787.842	5507
2789.723	5284
2791.603	5441
2793.483	5463
2795.362	5468
2797.241	5402
2799.121	5545
2800.997	5489
2802.874	5462
2804.751	5416
2806.628	5535
2808.506	5389
2810.38	5472
2812.255	5469
2814.13	5483
2816.003	5597
2817.878	5442
2819.752	5433
2821.623	5518
2823.496	5410
2825.368	5478
2827.238	5395
2829.111	5495
2830.98	5440
2832.851	5410
2834.719	5540
2836.589	5501
2838.458	5498
2840.327	5474
2842.193	5515
2844.061	5423
2845.927	5499
2847.794	5601
2849.66	5543
2851.525	5575
2853.39	5528
2855.254	5664
2857.117	5576
2858.983	5559
2860.845	5652
2862.707	5657
2864.569	5630
2866.431	5715
2868.293	5679
2870.154	5739
2872.013	5724
2873.873	5738
2875.733	5825
2877.592	5862
2879.451	5822
2881.309	5921
2883.166	5967
2885.022	5924
2886.879	6014
2888.736	5946
2890.591	6058
2892.446	6202
2894.301	6154
2896.155	6252
2898.009	6147
2899.863	6103
2901.716	6149
2903.568	6131
2905.419	6085
2907.27	6008
2909.123	6105
2910.973	6117
2912.824	6231
2914.673	6082
2916.521	6230
2918.372	6276
2920.22	6246
2922.067	6191
2923.914	6426
2925.761	6346
2927.607	6375
2929.455	6226
2931.301	6343
2933.144	6335
2934.99	6350
2936.833	6393
2938.678	6352
2940.522	6523
2942.364	6731
2944.207	6735
2946.048	6858
2947.891	6965
2949.731	7006
2951.571	7016
2953.412	6939
2955.25	6981
2957.09	6900
2958.93	6886
2960.767	6871
2962.606	6865
2964.443	6843
2966.279	6668
2968.116	6535
2969.953	6424
2971.788	6292
2973.623	6264
2975.457	6091
2977.292	6032
2979.127	6001
2980.959	5977
2982.792	5773
2984.624	5793
2986.455	5832
2988.288	5878
2990.119	5831
2991.949	5815
2993.779	5705
2995.608	5691
2997.439	5675
2999.268	5704
3001.096	5538
3002.923	5514
3004.751	5481
3006.578	5502
3008.406	5350
3010.232	5476
3012.057	5448
3013.883	5367
3015.706	5391
3017.532	5327
3019.356	5292
3021.179	5239
3023.002	5342
3024.823	5328
3026.646	5210
3028.469	5311
3030.289	5273
3032.11	5219
3033.93	5254
3035.749	5256
3037.57	5265
3039.39	5190
3041.207	5116
3043.026	5169
3044.842	5339
3046.661	5247
3048.477	5241
3050.294	5197
3052.109	5250
3053.925	5198
3055.739	5266
3057.555	5158
3059.368	5177
3061.181	5174
3062.995	5219
3064.807	5195
3066.62	5230
3068.433	5121
3070.243	5121
3072.054	5251
3073.865	5104
3075.675	5107
3077.485	5070
3079.293	5237
3081.102	5103
3082.911	5132
3084.719	5153
3086.527	5069
3088.333	5123
3090.139	5027
3091.945	4932
3093.75	5120
3095.557	5005
3097.361	5084
3099.165	5132
3100.969	5081
3102.772	4933
3104.575	5020
3106.379	5053
3108.181	4999
3109.982	4916
3111.783	4986
3113.584	5088
3115.386	4948
3117.186	5045
3118.985	4969
3120.783	4970
3122.582	5025
3124.381	4913
3126.179	4881
3127.975	4961
3129.772	5037
3131.569	5015
3133.365	4991
3135.161	4983
3136.956	5027
3138.751	4915
3140.544	4926
3142.338	4907
3144.132	4959
3145.925	4866
3147.717	4883
3149.509	4931
3151.301	4917
3153.091	4995
3154.884	4850
3156.673	4846
3158.462	4900
3160.252	4867
3162.041	4805
3163.831	4915
3165.618	4792
3167.405	4772
3169.193	4818
3170.979	4854
3172.767	4803
3174.553	4869
3176.338	4892
3178.123	4936
3179.907	4808
3181.692	4774
3183.477	4844
3185.259	4786
3187.042	4790
3188.824	4846
3190.607	4827
3192.389	4731
3194.17	4815
3195.951	4823
3197.73	4829
3199.51	4804
3201.289	4863
3203.07	4829
3204.848	4771
3206.626	4723
3208.403	4761
3210.18	4829
3211.959	4880
3213.735	4768
3215.511	4749
3217.285	4729
3219.06	4754
3220.836	4799
3222.611	4644
3224.384	4778
3226.158	4761
3227.929	4758
3229.702	4800
3231.476	4795
3233.248	4762
3235.018	4831
3236.789	4863
3238.56	4753
3240.33	4748
3242.1	4842
3243.869	4793
3245.637	4828
3247.405	4774
3249.172	4776
3250.941	4837
3252.707	4831
3254.474	4814
3256.24	4784
3258.006	4799
3259.772	4755
3261.537	4811
3263.301	4785
3265.065	4841
3266.828	4729
3268.592	4744
3270.355	4812
3272.117	4761
3273.878	4771
3275.64	4808
3277.401	4768
3279.162	4839
3280.922	4764
3282.682	4832
3284.441	4726
3286.199	4737
3287.959	4806
3289.716	4721
3291.475	4787
3293.232	4764
3294.988	4693
3296.744	4743
3298.501	4722
3300.256	4688
3302.011	4759
3303.766	4692
3305.52	4745
3307.275	4698
3309.028	4716
3310.781	4745
3312.533	4716
3314.285	4754
3316.038	4722
3317.789	4658
3319.54	4707
3321.289	4638
3323.039	4680
3324.789	4685
3326.539	4590
3328.288	4604
3330.035	4744
3331.783	4650
3333.531	4685
3335.28	4703
3337.025	4604
3338.771	4723
3340.518	4666
3342.262	4566
3344.009	4554
3345.753	4748
3347.497	4670
3349.24	4556
3350.983	4697
3352.726	4672
3354.469	4615
3356.212	4455
3357.952	4677
3359.694	4696
3361.434	4598
3363.176	4552
3364.916	4651
3366.654	4622
3368.394	4537
3370.132	4546
3371.871	4531
3373.61	4649
3375.346	4616
3377.083	4544
3378.82	4617
3380.556	4644
3382.292	4690
3384.027	4565
3385.763	4555
3387.497	4560
3389.231	4615
3390.965	4532
3392.698	4517
3394.431	4525
3396.164	4552
3397.896	4542
3399.627	4517
3401.36	4616
3403.09	4585
3404.82	4547
3406.55	4542
3408.279	4467
3410.01	4538
3411.738	4544
3413.467	4424
3415.194	4443
3416.92	4473
3418.647	4549
3420.375	4374
3422.102	4568
3423.827	4436
3425.553	4459
3427.277	4459
3429.003	4406
3430.727	4486
3432.451	4469
3434.173	4495
3435.896	4448
3437.62	4313
3439.343	4434
3441.063	4392
3442.785	4400
3444.505	4377
3446.226	4367
3447.948	4482
3449.666	4353
3451.386	4393
3453.104	4380
3454.823	4372
3456.541	4439
3458.259	4450
3459.976	4383
3461.693	4353
3463.408	4413
3465.125	4391
3466.841	4339
3468.556	4297
3470.271	4360
3471.985	4296
3473.698	4329
3475.414	4317
3477.126	4244
3478.838	4324
3480.55	4328
3482.263	4280
3483.975	4260
3485.686	4311
3487.396	4274
3489.106	4292
3490.817	4263
3492.526	4271
3494.236	4173
3495.944	4291
3497.652	4304
3499.359	4172
3501.066	4265
3502.775	4195
3504.481	4312
3506.187	4206
3507.893	4178
3509.598	4260
3511.304	4234
3513.009	4188
3514.713	4135
3516.417	4169
3518.12	4191
3519.821	4207
3521.525	4080
3523.228	4156
3524.929	4139
3526.631	4169
3528.33	4109
3530.032	4083
3531.733	4142
3533.433	4174
3535.131	4069
3536.83	4147
3538.529	4098
3540.227	4122
3541.925	4097
3543.623	4159
3545.319	4077
3547.016	4076
3548.712	4120
3550.408	4059
3552.103	4132
3553.798	4180
3555.491	4109
3557.188	3988
3558.88	4064
3560.574	4036
3562.266	4056
3563.959	4067
3565.651	4053
3567.343	4048
3569.035	3993
3570.725	4054
3572.415	3964
3574.106	3996
3575.797	4015
3577.485	4075
3579.174	4039
3580.863	4007
3582.551	4006
3584.238	3970
3585.926	3916
3587.613	3998
3589.3	3982
3590.986	4033
3592.671	3911
3594.357	3938
3596.042	4021
3597.726	3906
3599.41	3948
3601.094	3863
3602.778	3973
3604.461	3855
3606.143	3949
3607.825	3992
3609.507	3950
3611.188	3899
3612.87	3946
3614.551	3884
3616.229	3905
3617.909	3872
3619.589	3914
3621.269	3839
3622.948	3766
3624.625	3781
3626.302	3857
3627.98	3856
3629.657	3821
3631.334	3825
3633.01	3861
3634.686	3804
3636.361	3783
3638.036	3825
3639.712	3793
3641.385	3715
3643.06	3825
3644.732	3755
3646.405	3716
3648.08	3778
3649.751	3830
3651.424	3727
3653.094	3725
3654.766	3715
3656.436	3759
3658.106	3734
3659.777	3717
3661.446	3790
3663.115	3795
3664.783	3692
3666.452	3795
3668.121	3721
3669.788	3842
3671.454	3714
3673.121	3719
3674.789	3685
3676.455	3729
3678.12	3689
3679.784	3647
3681.45	3670
3683.114	3720
3684.779	3703
3686.442	3631
3688.105	3666
3689.768	3680
3691.43	3773
3693.093	3684
3694.754	3670
3696.415	3676
3698.076	3663
3699.736	3631
3701.396	3608
3703.057	3681
3704.716	3673
3706.375	3646
3708.034	3717
3709.692	3574
3711.351	3630
3713.008	3690
3714.665	3674
3716.321	3618
3717.977	3625
3719.634	3523
3721.29	3695
3722.945	3615
3724.598	3650
3726.253	3655
3727.907	3603
3729.561	3609
3731.214	3596
3732.867	3643
3734.518	3638
3736.171	3579
3737.824	3539
3739.474	3552
3741.125	3561
3742.775	3615
3744.425	3626
3746.074	3519
3747.725	3624
3749.373	3537
3751.022	3516
3752.669	3613
3754.318	3606
3755.966	3532
3757.612	3582
3759.259	3568
3760.905	3579
3762.55	3501
3764.197	3437
3765.842	3526
3767.486	3520
3769.131	3570
3770.774	3499
3772.417	3563
3774.061	3567
3775.705	3547
3777.347	3538
3778.988	3478
3780.629	3534
3782.271	3565
3783.912	3521
3785.552	3540
3787.192	3506
3788.831	3479
3790.472	3487
3792.112	3536
3793.75	3503
3795.388	3470
3797.024	3478
3798.661	3401
3800.3	3507
3801.936	3416
3803.572	3574
3805.208	3416
3806.844	3447
3808.48	3529
3810.115	3420
3811.748	3433
3813.382	3428
3815.016	3352
3816.649	3496
3818.283	3440
3819.914	3480
3821.547	3454
3823.178	3456
3824.809	3401
3826.441	3415
3828.072	3316
3829.701	3309
3831.331	3418
3832.96	3374
3834.591	3396
3836.219	3344
3837.847	3400
3839.475	3418
3841.102	3422
3842.729	3328
3844.357	3432
3845.984	3343
3847.609	3377
3849.234	3437
3850.86	3350
3852.485	3350
3854.11	3348
3855.734	3307
3857.357	3272
3858.981	3398
3860.603	3350
3862.227	3348
3863.848	3347
3865.471	3273
3867.092	3363
3868.713	3330
3870.334	3304
3871.954	3260
3873.575	3348
3875.194	3348
3876.813	3322
3878.433	3289
3880.051	3315
3881.669	3324
3883.286	3333
3884.904	3328
3886.52	3290
3888.138	3277
3889.754	3336
3891.37	3268
3892.985	3288
3894.6	3281
3896.216	3327
3897.831	3211
3899.444	3293
3901.058	3345
3902.67	3280
3904.283	3209
3905.897	3272
3907.509	3273
3909.121	3202
3910.731	3247
3912.342	3274
3913.954	3270
3915.563	3289
3917.174	3212
3918.783	3255
3920.391	3251
3922.002	3244
3923.611	3287
3925.218	3245
3926.826	3258
3928.432	3249
3930.039	3280
3931.647	3266
3933.253	3219
3934.859	3153
3936.464	3300
3938.068	3149
3939.675	3276
3941.278	3185
3942.883	3254
3944.486	3202
3946.089	3216
3947.692	3269
3949.295	3268
3950.898	3261
3952.499	3176
3954.1	3207
3955.7	3175
3957.303	3128
3958.903	3184
3960.502	3173
3962.101	3192
3963.7	3206
3965.301	3191
3966.899	3089
3968.497	3210
3970.094	3226
3971.691	3104
3973.288	3241
3974.885	3118
3976.481	3146
3978.077	3120
3979.672	3092
3981.267	3062
3982.863	3090
3984.457	3102
3986.051	3082
3987.645	3064
3989.238	3154
3990.831	3074
3992.425	3123
3994.017	3093
3995.607	3143
3997.199	3085
3998.79	3130
4000.382	3206
4001.973	3153
4003.561	3057
4005.151	3041
4006.741	3094
4008.331	3049
4009.918	3074
4011.507	3067
4013.095	3014
4014.681	3091
4016.269	3010
4017.856	3116
4019.443	2984
4021.028	3036
4022.614	2952
4024.199	2986
4025.785	3016
4027.37	3009
4028.953	3015
4030.536	3067
4032.12	2932
4033.704	3025
4035.287	3038
4036.869	3033
4038.45	3004
4040.032	3008
4041.613	2913
4043.195	2991
4044.776	2925
4046.356	2906
4047.935	2989
4049.515	2961
4051.095	2956
4052.674	3026
4054.251	2983
4055.829	2994
4057.406	2921
4058.985	2978
4060.562	2960
4062.139	2984
4063.715	2895
4065.29	2946
4066.865	2940
4068.442	2811
4070.016	2953
4071.59	2944
4073.164	2983
4074.738	2870
4076.312	2921
4077.885	2920
4079.458	2997
4081.03	2923
4082.602	2878
4084.173	2968
4085.745	2904
4087.315	2936
4088.886	2921
4090.456	2896
4092.026	2847
4093.596	2915
4095.165	2852
4096.734	2886
4098.301	2908
4099.869	2893
4101.437	2908
4103.006	2857
4104.572	2838
4106.139	2838
4107.704	2899
4109.27	2867
4110.837	2862
4112.401	2932
4113.966	2856
4115.53	2918
4117.094	2862
4118.659	2916
4120.223	2861
4121.785	2791
4123.347	2845
4124.909	2854
4126.471	2838
4128.034	2785
4129.595	2822
4131.155	2877
4132.716	2794
4134.275	2796
4135.836	2796
4137.395	2756
4138.955	2812
4140.513	2817
4142.071	2807
4143.628	2776
4145.188	2804
4146.745	2833
4148.302	2814
4149.858	2789
4151.414	2816
4152.971	2784
4154.526	2807
4156.081	2838
4157.635	2736
4159.189	2799
4160.745	2794
4162.298	2763
4163.852	2738
4165.405	2815
4166.957	2713
4168.51	2749
4170.063	2768
4171.614	2810
4173.166	2767
4174.717	2753
4176.267	2729
4177.817	2696
4179.368	2725
4180.917	2772
4182.466	2669
4184.016	2693
4185.564	2704
4187.112	2710
4188.66	2681
4190.207	2659
4191.754	2714
4193.301	2702
4194.848	2738
4196.394	2674
4197.94	2665
4199.484	2624
4201.03	2722
4202.575	2726
4204.12	2666
4205.663	2678
4207.207	2627
4208.75	2678
4210.292	2684
4211.836	2719
4213.378	2645
4214.92	2702
4216.46	2642
4218.002	2731
4219.544	2712
4221.083	2595
4222.625	2713
4224.164	2697
4225.703	2648
4227.244	2680
4228.782	2640
4230.32	2568
4231.857	2625
4233.395	2639
4234.933	2677
4236.471	2633
4238.007	2605
4239.542	2589
4241.078	2659
4242.614	2667
4244.15	2647
4245.685	2602
4247.219	2612
4248.753	2663
4250.287	2594
4251.82	2639
4253.354	2648
4254.887	2547
4256.419	2525
4257.951	2606
4259.483	2529
4261.016	2662
4262.547	2592
4264.078	2603
4265.608	2570
4267.137	2577
4268.668	2602
4270.197	2602
4271.727	2594
4273.254	2567
4274.783	2589
4276.311	2574
4277.84	2631
4279.366	2565
4280.894	2578
4282.42	2579
4283.946	2536
4285.473	2560
4286.998	2527
4288.523	2474
4290.047	2565
4291.572	2503
4293.096	2511
4294.622	2578
4296.144	2533
4297.668	2499
4299.19	2540
4300.713	2462
4302.236	2524
4303.758	2529
4305.279	2514
4306.799	2582
4308.321	2513
4309.842	2531
4311.361	2453
4312.882	2563
4314.401	2515
