400.0961	4103
402.6185	4082
405.1424	4057
407.6635	4053
410.1838	4111
412.7035	4080
415.2225	4102
417.7388	4114
420.2585	4215
422.7754	4134
425.2917	4119
427.8072	4226
430.3221	4235
432.8363	4353
435.3498	4239
437.8626	4252
440.3727	4373
442.8841	4273
445.3969	4324
447.907	4244
450.4142	4254
452.9229	4265
455.4289	4378
457.9362	4302
460.4449	4279
462.9488	4261
465.454	4289
467.9566	4303
470.4604	4401
472.9637	4423
475.4662	4319
477.966	4407
480.4671	4358
482.9656	4429
485.4633	4472
487.9645	4313
490.4608	4463
492.9566	4513
495.4536	4397
497.948	4370
500.4437	4534
502.9387	4465
505.431	4595
507.9226	4494
510.4136	4473
512.9079	4431
515.3975	4429
517.8864	4604
520.3746	4482
522.8622	4471
525.3491	4466
527.8394	4620
530.3249	4492
532.8098	4483
535.2939	4583
537.7774	4520
540.2623	4466
542.7444	4536
545.2259	4390
547.7067	4476
550.1868	4492
552.6683	4484
555.147	4451
557.6231	4524
560.1005	4582
562.5773	4579
565.0534	4507
567.5308	4518
570.0056	4569
572.4776	4621
574.951	4597
577.4237	4752
579.8978	4685
582.3671	4585
584.8378	4687
587.3079	4675
589.7773	4795
592.244	4632
594.714	4603
597.1793	4702
599.6461	4667
602.1121	4715
604.5754	4715
607.0421	4714
609.5042	4753
611.9675	4701
614.4282	4686
616.8902	4664
619.3515	4581
621.8122	4658
624.2702	4604
626.7296	4606
629.1863	4708
631.6423	4655
634.1017	4739
636.5563	4621
639.0104	4688
641.4658	4676
643.9185	4735
646.3725	4822
648.8239	4753
651.2766	4671
653.7266	4697
656.176	4865
658.6247	4767
661.0748	4742
663.5242	4663
665.9709	4699
668.417	4821
670.8624	4794
673.3092	4915
675.7533	4872
678.1968	4746
680.6395	4856
683.0817	4741
685.5251	4891
687.9659	4816
690.4061	4887
692.8456	4848
695.2844	4919
697.7226	4980
700.1621	4860
702.599	4887
705.0332	4992
707.4688	4932
709.9036	4878
712.3399	4932
714.7735	4996
717.2044	4972
719.6367	5042
722.0683	4969
724.4993	5027
726.9296	5023
729.3593	5009
731.7883	5078
734.2147	5012
736.6423	5126
739.0714	5101
741.4958	5115
743.9216	5017
746.3447	5058
748.7691	5162
751.1929	5223
753.616	5151
756.0366	5148
758.4584	5236
760.8776	5124
763.2982	5160
765.718	5106
768.1373	5194
770.5539	5151
772.9698	5250
775.3871	5148
777.8038	5202
780.2178	5352
782.6332	5212
785.0459	5166
787.458	5218
789.8714	5293
792.2842	5296
794.6943	5366
797.1038	5247
799.5127	5213
801.9209	5263
804.3324	5273
806.7393	5219
809.1456	5188
811.5513	5274
813.9562	5202
816.3625	5289
818.7663	5313
821.1693	5277
823.5718	5286
825.9735	5346
828.3746	5328
830.7771	5386
833.177	5432
835.5762	5302
837.9747	5270
840.3727	5297
842.772	5294
845.1666	5329
847.5626	5343
849.958	5371
852.3527	5401
854.7488	5399
857.1403	5442
859.5331	5409
861.9253	5412
864.3168	5284
866.7057	5434
869.098	5397
871.4876	5363
873.8746	5381
876.263	5358
878.6487	5377
881.0378	5256
883.4243	5356
885.8081	5408
888.1933	5315
890.5759	5356
892.9598	5393
895.343	5355
897.7256	5441
900.1057	5351
902.4871	5320
904.8659	5349
907.246	5535
909.6254	5384
912.0023	5409
914.3786	5419
916.7562	5447
919.1331	5581
921.5074	5582
923.8831	5620
926.2562	5653
928.6287	5720
931.0005	5702
933.3757	5595
935.7462	5708
938.1162	5620
940.4855	5632
942.8542	5628
945.2242	5636
947.5916	5616
949.9584	5626
952.3266	5753
954.6921	5808
957.0571	5901
959.4233	6019
961.787	5986
964.15	6004
966.5125	5952
968.8742	5806
971.2354	5776
973.5959	5659
975.9559	5711
978.3151	5583
980.6738	5508
983.0338	5563
985.3912	5568
987.7461	5623
990.1022	5617
992.4578	5611
994.8127	5503
997.1689	5537
999.5207	5607
1001.874	5568
1004.226	5648
1006.576	5564
1008.929	5597
1011.28	5474
1013.628	5477
1015.977	5567
1018.324	5640
1020.674	5626
1023.019	5624
1025.366	5529
1027.713	5635
1030.056	5598
1032.399	5709
1034.746	5575
1037.087	5662
1039.431	5635
1041.771	5633
1044.113	5518
1046.454	5549
1048.793	5680
1051.133	5605
1053.471	5673
1055.807	5622
1058.146	5579
1060.483	5637
1062.818	5775
1065.153	5809
1067.489	5670
1069.822	5694
1072.156	5784
1074.488	5739
1076.82	5612
1079.15	5761
1081.48	5601
1083.814	5769
1086.143	5740
1088.471	5786
1090.799	5646
1093.126	5651
1095.452	5690
1097.78	5656
1100.105	5659
1102.43	5740
1104.754	5673
1107.077	5715
1109.4	5697
1111.722	5780
1114.044	5746
1116.365	5850
1118.685	5768
1121.005	5744
1123.324	5857
1125.643	5811
1127.961	5848
1130.278	5676
1132.595	5713
1134.911	5779
1137.226	5881
1139.541	5768
1141.854	5760
1144.167	5703
1146.482	5928
1148.793	5690
1151.105	5738
1153.414	5734
1155.725	5691
1158.033	5804
1160.344	5834
1162.651	5918
1164.959	5687
1167.265	5781
1169.572	5829
1171.878	5804
1174.184	5817
1176.488	5837
1178.79	5801
1181.094	5865
1183.396	5836
1185.699	5867
1188.001	5772
1190.301	5784
1192.6	5763
1194.9	5769
1197.2	5863
1199.497	5846
1201.794	5724
1204.09	5906
1206.387	5781
1208.684	5870
1210.978	5788
1213.272	5893
1215.565	5784
1217.858	5863
1220.15	5952
1222.443	5794
1224.734	5963
1227.024	5924
1229.313	5883
1231.602	5954
1233.892	5853
1236.18	5935
1238.467	6019
1240.754	5964
1243.04	6024
1245.325	5957
1247.612	5987
1249.896	6086
1252.178	5997
1254.461	5952
1256.743	6025
1259.027	5999
1261.308	6033
1263.587	6026
1265.867	5929
1268.146	5972
1270.425	6088
1272.703	5991
1274.981	5978
1277.256	6063
1279.532	6069
1281.808	5936
1284.083	5931
1286.358	6041
1288.63	5968
1290.904	6051
1293.175	6064
1295.449	6056
1297.719	5985
1299.99	5963
1302.259	5950
1304.529	5917
1306.798	5948
1309.065	5945
1311.333	5957
1313.599	5985
1315.866	6011
1318.131	6035
1320.396	6022
1322.66	5969
1324.925	6018
1327.187	5989
1329.448	6024
1331.711	6064
1333.974	6070
1336.234	6027
1338.493	6034
1340.752	6059
1343.01	5871
1345.269	6085
1347.526	6028
1349.784	5900
1352.04	5997
1354.295	5811
1356.552	5961
1358.806	6087
1361.059	5937
1363.312	5882
1365.564	6055
1367.818	6096
1370.069	6026
1372.318	5998
1374.568	6035
1376.817	6109
1379.066	6022
1381.316	6006
1383.564	6120
1385.809	6106
1388.056	6107
1390.301	6166
1392.549	6109
1394.793	6124
1397.036	6172
1399.279	6270
1401.522	6274
1403.763	6424
1406.007	6200
1408.248	6211
1410.487	6183
1412.727	6256
1414.965	6301
1417.205	6135
1419.442	6371
1421.68	6202
1423.915	6186
1426.152	6198
1428.388	6068
1430.623	6215
1432.857	6273
1435.091	6257
1437.323	6200
1439.556	6234
1441.789	6306
1444.019	6216
1446.25	6389
1448.48	6208
1450.708	6281
1452.938	6341
1455.167	6353
1457.394	6253
1459.62	6359
1461.846	6334
1464.073	6359
1466.299	6203
1468.523	6298
1470.746	6149
1472.969	6159
1475.191	6212
1477.415	6280
1479.636	6154
1481.858	5950
1484.078	6176
1486.298	6126
1488.518	6066
1490.736	6118
1492.954	6112
1495.169	6091
1497.386	6118
1499.602	6076
1501.819	6021
1504.034	6058
1506.248	6047
1508.462	5931
1510.675	6019
1512.888	6017
1515.1	6066
1517.311	6017
1519.522	5902
1521.732	6064
1523.942	5988
1526.151	5972
1528.36	6123
1530.566	6046
1532.773	5987
1534.98	6021
1537.187	6076
1539.392	6081
1541.596	6027
1543.801	6112
1546.005	6068
1548.208	6059
1550.411	6150
1552.612	6088
1554.814	6152
1557.013	6156
1559.212	6142
1561.414	6180
1563.612	6183
1565.811	6178
1568.007	6222
1570.203	6304
1572.403	6256
1574.598	6175
1576.792	6249
1578.988	6149
1581.181	6228
1583.376	6177
1585.568	6162
1587.761	6173
1589.952	6228
1592.143	6200
1594.333	6212
1596.524	6295
1598.715	6257
1600.903	6208
1603.091	6173
1605.278	6329
1607.466	6149
1609.652	6229
1611.838	6314
1614.023	6291
1616.207	6262
1618.391	6184
1620.576	6210
1622.759	6288
1624.941	6262
1627.123	6284
1629.304	6263
1631.484	6210
1633.664	6339
1635.844	6173
1638.022	6305
1640.201	6386
1642.38	6228
1644.556	6208
1646.732	6328
1648.908	6378
1651.084	6326
1653.257	6320
1655.433	6302
1657.607	6262
1659.779	6375
1661.951	6261
1664.122	6218
1666.295	6274
1668.467	6276
1670.635	6340
1672.805	6260
1674.973	6302
1677.142	6447
1679.31	6342
1681.478	6222
1683.644	6320
1685.81	6444
1687.975	6197
1690.142	6344
1692.305	6259
1694.468	6354
1696.632	6253
1698.794	6297
1700.957	6278
1703.119	6213
1705.279	6226
1707.439	6144
1709.598	6236
1711.758	6181
1713.917	6241
1716.075	6317
1718.231	6263
1720.388	6244
1722.543	6222
1724.702	6250
1726.856	6248
1729.01	6340
1731.164	6270
1733.317	6207
1735.471	6255
1737.623	6076
1739.774	6321
1741.925	6326
1744.075	6187
1746.225	6238
1748.376	6321
1750.524	6279
1752.672	6269
1754.82	6306
1756.965	6231
1759.113	6252
1761.259	6283
1763.405	6204
1765.549	6280
1767.694	6249
1769.836	6324
1771.981	6238
1774.123	6359
1776.264	6430
1778.405	6325
1780.546	6339
1782.687	6313
1784.827	6291
1786.966	6310
1789.103	6302
1791.242	6347
1793.381	6397
1795.517	6293
1797.653	6338
1799.788	6309
1801.923	6403
1804.057	6251
1806.193	6165
1808.326	6422
1810.457	6298
1812.59	6212
1814.721	6298
1816.855	6302
1818.984	6359
1821.113	6385
1823.244	6182
1825.372	6187
1827.499	6232
1829.63	6225
1831.756	6355
1833.882	6317
1836.007	6225
1838.132	6286
1840.26	6333
1842.384	6272
1844.507	6287
1846.63	6210
1848.752	6198
1850.875	6289
1852.996	6176
1855.118	6246
1857.238	6273
1859.358	6281
1861.477	6336
1863.597	6258
1865.715	6273
1867.832	6305
1869.948	6321
1872.064	6183
1874.181	6218
1876.297	6242
1878.411	6123
1880.526	6218
1882.639	6298
1884.752	6150
1886.865	6163
1888.977	6196
1891.089	6232
1893.2	6250
1895.308	6187
1897.42	6332
1899.53	6286
1901.639	6351
1903.745	6377
1905.853	6292
1907.962	6402
1910.067	6328
1912.174	6364
1914.278	6377
1916.383	6287
1918.486	6372
1920.592	6322
1922.694	6324
1924.797	6333
1926.898	6247
1929	6305
1931.102	6233
1933.203	6307
1935.301	6298
1937.401	6295
1939.499	6313
1941.598	6284
1943.697	6328
1945.793	6393
1947.888	6340
1949.985	6336
1952.08	6424
1954.176	6298
1956.269	6363
1958.364	6255
1960.457	6326
1962.549	6287
1964.642	6203
1966.733	6407
1968.823	6435
1970.913	6264
1973.005	6316
1975.093	6324
1977.184	6344
1979.271	6347
1981.359	6357
1983.446	6323
1985.532	6383
1987.619	6315
1989.705	6404
1991.789	6302
1993.874	6383
1995.956	6306
1998.041	6310
2000.123	6326
2002.206	6254
2004.287	6317
2006.368	6356
2008.449	6157
2010.529	6360
2012.609	6262
2014.688	6250
2016.766	6243
2018.843	6325
2020.922	6194
2022.999	6191
2025.074	6251
2027.15	6310
2029.225	6273
2031.299	6267
2033.375	6242
2035.447	6283
2037.52	6287
2039.592	6323
2041.664	6259
2043.736	6264
2045.807	6194
2047.876	6254
2049.947	6388
2052.015	6082
2054.086	6249
2056.153	6244
2058.221	6297
2060.288	6355
2062.353	6211
2064.42	6241
2066.486	6115
2068.55	6320
2070.614	6241
2072.678	6305
2074.741	6321
2076.805	6313
2078.866	6223
2080.929	6211
2082.99	6383
2085.049	6162
2087.109	6235
2089.17	6202
2091.228	6300
2093.286	6244
2095.344	6280
2097.4	6241
2099.46	6237
2101.516	6333
2103.572	6309
2105.626	6272
2107.679	6257
2109.735	6296
2111.788	6097
2113.841	6315
2115.894	6331
2117.945	6335
2119.997	6282
2122.049	6192
2124.1	6240
2126.148	6193
2128.197	6276
2130.246	6362
2132.296	6281
2134.342	6217
2136.39	6159
2138.437	6301
2140.483	6272
2142.527	6250
2144.574	6281
2146.619	6176
2148.661	6337
2150.705	6112
2152.747	6122
2154.792	6162
2156.832	6165
2158.874	6129
2160.915	6174
2162.954	6190
2164.995	6201
2167.034	6263
2169.072	6275
2171.111	6216
2173.148	6195
2175.186	6212
2177.223	6266
2179.258	6190
2181.294	6315
2183.328	6245
2185.362	6156
2187.398	6104
2189.431	6231
2191.463	6226
2193.495	6155
2195.528	6185
2197.56	6191
2199.59	6075
2201.62	6185
2203.649	6041
2205.678	6174
2207.708	6168
2209.737	6139
2211.764	6058
2213.791	5927
2215.817	6146
2217.843	6144
2219.87	6057
2221.895	6050
2223.919	6064
2225.942	6087
2227.966	6061
2229.988	6052
2232.012	6038
2234.032	6087
2236.054	6062
2238.074	6126
2240.095	6051
2242.116	6093
2244.135	6071
2246.153	6069
2248.171	5964
2250.188	6020
2252.208	5935
2254.223	6010
2256.239	6188
2258.255	6134
2260.269	5940
2262.283	6066
2264.3	6109
2266.312	6027
2268.325	5927
2270.336	6038
2272.349	5975
2274.362	6070
2276.372	6077
2278.383	6100
2280.392	6056
2282.402	6004
2284.409	6113
2286.418	6081
2288.427	6026
2290.433	6138
2292.441	6071
2294.446	6057
2296.453	6066
2298.459	6076
2300.463	6008
2302.466	5905
2304.471	6082
2306.475	6118
2308.477	6059
2310.478	5894
2312.481	6086
2314.481	6079
2316.481	6067
2318.482	6040
2320.482	5998
2322.48	5959
2324.48	6004
2326.478	5958
2328.476	5892
2330.473	6019
2332.469	5920
2334.465	6042
2336.46	6071
2338.454	5867
2340.45	5989
2342.444	5980
2344.437	5898
2346.43	5999
2348.421	5956
2350.414	5926
2352.405	5952
2354.396	5980
2356.386	5919
2358.376	5854
2360.366	5840
2362.355	5999
2364.343	6020
2366.331	5996
2368.317	5926
2370.304	5945
2372.292	5934
2374.278	5943
2376.262	5976
2378.247	5850
2380.23	5887
2382.216	5834
2384.199	5832
2386.181	5991
2388.163	5788
2390.144	6056
2392.127	5932
2394.107	5838
2396.087	5692
2398.066	5806
2400.046	5875
2402.023	5859
2404.004	5911
2405.981	5839
2407.957	5803
2409.934	5778
2411.91	5811
2413.886	5844
2415.862	5940
2417.836	5851
2419.809	5775
2421.784	5747
2423.756	5876
2425.73	5894
2427.701	5810
2429.672	5772
2431.644	5852
2433.615	5791
2435.586	5835
2437.555	5916
2439.523	5918
2441.491	5838
2443.459	5845
2445.428	5983
2447.395	5734
2449.361	5808
2451.327	5755
2453.292	5780
2455.257	5732
2457.223	5814
2459.187	5814
2461.15	5732
2463.113	5746
2465.076	5793
2467.039	5844
2468.999	5704
2470.96	5697
2472.921	5822
2474.881	5742
2476.841	5718
2478.8	5778
2480.759	5756
2482.717	5761
2484.675	5815
2486.63	5838
2488.589	5718
2490.545	5738
2492.5	5697
2494.455	5721
2496.408	5782
2498.364	5727
2500.318	5641
2502.27	5634
2504.223	5651
2506.174	5834
2508.126	5758
2510.078	5654
2512.03	5649
2513.979	5757
2515.927	5589
2517.877	5691
2519.826	5680
2521.775	5732
2523.722	5679
2525.668	5618
2527.616	5711
2529.561	5670
2531.508	5721
2533.452	5715
2535.398	5644
2537.342	5630
2539.284	5689
2541.229	5774
2543.173	5613
2545.114	5657
2547.055	5700
2548.996	5658
2550.938	5588
2552.878	5631
2554.817	5585
2556.756	5604
2558.695	5675
2560.633	5756
2562.572	5664
2564.509	5672
2566.445	5674
2568.382	5607
2570.317	5664
2572.254	5643
2574.189	5693
2576.123	5646
2578.057	5641
2579.99	5645
2581.923	5677
2583.855	5640
2585.788	5587
2587.719	5583
2589.65	5646
2591.579	5634
2593.511	5776
2595.44	5735
2597.37	5620
2599.297	5677
2601.225	5643
2603.153	5747
2605.08	5656
2607.007	5682
2608.932	5476
2610.858	5629
2612.782	5566
2614.709	5679
2616.632	5633
2618.556	5710
2620.478	5671
2622.401	5758
2624.324	5615
2626.247	5625
2628.167	5649
2630.088	5734
2632.008	5727
2633.928	5666
2635.848	5669
2637.766	5626
2639.684	5673
2641.603	5754
2643.519	5533
2645.437	5660
2647.353	5639
2649.27	5680
2651.184	5624
2653.099	5601
2655.014	5696
2656.928	5620
2658.842	5608
2660.755	5628
2662.667	5598
2664.579	5601
2666.491	5603
2668.402	5564
2670.312	5576
2672.222	5518
2674.132	5742
2676.042	5636
2677.951	5616
2679.859	5656
2681.766	5647
2683.674	5729
2685.582	5500
2687.488	5578
2689.392	5641
2691.298	5542
2693.202	5601
2695.107	5560
2697.012	5660
2698.914	5650
2700.817	5510
2702.72	5643
2704.622	5534
2706.524	5532
2708.425	5433
2710.326	5593
2712.225	5528
2714.125	5601
2716.024	5534
2717.923	5418
2719.822	5619
2721.719	5570
2723.616	5547
2725.512	5679
2727.41	5569
2729.305	5417
2731.201	5455
2733.095	5574
2734.99	5524
2736.884	5534
2738.778	5471
2740.67	5544
2742.562	5541
2744.455	5572
2746.346	5541
2748.238	5445
2750.129	5487
2752.018	5516
2753.907	5396
2755.797	5442
2757.687	5550
2759.575	5609
2761.462	5481
2763.349	5486
2765.237	5415
2767.124	5514
2769.009	5499
2770.894	5611
2772.779	5556
2774.663	5446
2776.547	5533
2778.431	5447
2780.314	5415
2782.197	5476
2784.078	5496
2785.96	5380
2787.842	5447
2789.723	5591
2791.603	5420
2793.483	5439
2795.362	5487
2797.241	5436
2799.121	5482
2800.997	5446
2802.874	5480
2804.751	5435
2806.628	5356
2808.506	5435
2810.38	5379
2812.255	5315
2814.13	5336
2816.003	5402
2817.878	5432
2819.752	5350
2821.623	5520
2823.496	5329
2825.368	5434
2827.238	5473
2829.111	5424
2830.98	5485
2832.851	5329
2834.719	5341
2836.589	5417
2838.458	5364
2840.327	5370
2842.193	5422
2844.061	5480
2845.927	5399
2847.794	5477
2849.66	5404
2851.525	5463
2853.39	5512
2855.254	5500
2857.117	5455
2858.983	5371
2860.845	5470
2862.707	5511
2864.569	5593
2866.431	5508
2868.293	5429
2870.154	5478
2872.013	5535
2873.873	5564
2875.733	5608
2877.592	5671
2879.451	5634
2881.309	5622
2883.166	5704
2885.022	5781
2886.879	5761
2888.736	5756
2890.591	5657
2892.446	5878
2894.301	5841
2896.155	5809
2898.009	5800
2899.863	5760
2901.716	5743
2903.568	5770
2905.419	5777
2907.27	5820
2909.123	5636
2910.973	5768
2912.824	5884
2914.673	5746
2916.521	5754
2918.372	5848
2920.22	5805
2922.067	5780
2923.914	5807
2925.761	5822
2927.607	5894
2929.455	5944
2931.301	5912
2933.144	5898
2934.99	5890
2936.833	5935
2938.678	5910
2940.522	5902
2942.364	6025
2944.207	6152
2946.048	6178
2947.891	6228
2949.731	6136
2951.571	6194
2953.412	6265
2955.25	6136
2957.09	6216
2958.93	6250
2960.767	6091
2962.606	6146
2964.443	6121
2966.279	6047
2968.116	5999
2969.953	5788
2971.788	5849
2973.623	5790
2975.457	5844
2977.292	5716
2979.127	5675
2980.959	5865
2982.792	5621
2984.624	5574
2986.455	5617
2988.288	5634
2990.119	5522
2991.949	5464
2993.779	5529
2995.608	5536
2997.439	5487
2999.268	5399
3001.096	5377
3002.923	5428
3004.751	5298
3006.578	5271
3008.406	5434
3010.232	5338
3012.057	5278
3013.883	5237
3015.706	5238
3017.532	5154
3019.356	5225
3021.179	5230
3023.002	5170
3024.823	5080
3026.646	5135
3028.469	5135
3030.289	5142
3032.11	5214
3033.93	5139
3035.749	5163
3037.57	5105
3039.39	5128
3041.207	5099
3043.026	5049
3044.842	5065
3046.661	5160
3048.477	5067
3050.294	5115
3052.109	5104
3053.925	4990
3055.739	5021
3057.555	5064
3059.368	5031
3061.181	4921
3062.995	5031
3064.807	5004
3066.62	5067
3068.433	4990
3070.243	5016
3072.054	4984
3073.865	4955
3075.675	5011
3077.485	4911
3079.293	5070
3081.102	5003
3082.911	5004
3084.719	4961
3086.527	5047
3088.333	4899
3090.139	5041
3091.945	4897
3093.75	4907
3095.557	4856
3097.361	4946
3099.165	4912
3100.969	4918
3102.772	4905
3104.575	4873
3106.379	4907
3108.181	4919
3109.982	4935
3111.783	4823
3113.584	4886
3115.386	4813
3117.186	4893
3118.985	4794
3120.783	4888
3122.582	4786
3124.381	4955
3126.179	4761
3127.975	4866
3129.772	4831
3131.569	4841
3133.365	4804
3135.161	4804
3136.956	4715
3138.751	4911
3140.544	4751
3142.338	4881
3144.132	4799
3145.925	4747
3147.717	4821
3149.509	4756
3151.301	4790
3153.091	4855
3154.884	4747
3156.673	4820
3158.462	4600
3160.252	4740
3162.041	4752
3163.831	4711
3165.618	4681
3167.405	4692
3169.193	4737
3170.979	4680
3172.767	4663
3174.553	4672
3176.338	4614
3178.123	4724
3179.907	4650
3181.692	4623
3183.477	4749
3185.259	4796
3187.042	4681
3188.824	4790
3190.607	4632
3192.389	4541
3194.17	4782
3195.951	4667
3197.73	4698
3199.51	4754
3201.289	4617
3203.07	4674
3204.848	4726
3206.626	4574
3208.403	4706
3210.18	4704
3211.959	4588
3213.735	4654
3215.511	4721
3217.285	4668
3219.06	4656
3220.836	4575
3222.611	4626
3224.384	4716
3226.158	4592
3227.929	4712
3229.702	4595
3231.476	4575
3233.248	4603
3235.018	4572
3236.789	4581
3238.56	4677
3240.33	4620
3242.1	4568
3243.869	4571
3245.637	4633
3247.405	4529
3249.172	4654
3250.941	4553
3252.707	4597
3254.474	4538
3256.24	4648
3258.006	4556
3259.772	4623
3261.537	4625
3263.301	4625
3265.065	4642
3266.828	4533
3268.592	4556
3270.355	4635
3272.117	4543
3273.878	4586
3275.64	4621
3277.401	4535
3279.162	4607
3280.922	4588
3282.682	4423
3284.441	4556
3286.199	4574
3287.959	4549
3289.716	4582
3291.475	4624
3293.232	4574
3294.988	4511
3296.744	4504
3298.501	4602
3300.256	4499
3302.011	4706
3303.766	4502
3305.52	4629
3307.275	4491
3309.028	4514
3310.781	4511
3312.533	4577
3314.285	4528
3316.038	4500
3317.789	4454
3319.54	4477
3321.289	4531
3323.039	4484
3324.789	4534
3326.539	4485
3328.288	4616
3330.035	4617
3331.783	4443
3333.531	4548
3335.28	4537
3337.025	4505
3338.771	4526
3340.518	4467
3342.262	4538
3344.009	4518
3345.753	4515
3347.497	4375
3349.24	4452
3350.983	4508
3352.726	4493
3354.469	4428
3356.212	4464
3357.952	4527
3359.694	4498
3361.434	4388
3363.176	4414
3364.916	4411
3366.654	4393
3368.394	4503
3370.132	4389
3371.871	4424
3373.61	4432
3375.346	4367
3377.083	4371
3378.82	4422
3380.556	4490
3382.292	4443
3384.027	4333
3385.763	4375
3387.497	4396
3389.231	4411
3390.965	4349
3392.698	4388
3394.431	4426
3396.164	4340
3397.896	4449
3399.627	4347
3401.36	4300
3403.09	4349
3404.82	4310
3406.55	4372
3408.279	4305
3410.01	4350
3411.738	4414
3413.467	4385
3415.194	4304
3416.92	4391
3418.647	4288
3420.375	4273
3422.102	4267
3423.827	4361
3425.553	4271
3427.277	4365
3429.003	4260
3430.727	4291
3432.451	4244
3434.173	4229
3435.896	4213
3437.62	4280
3439.343	4253
3441.063	4300
3442.785	4265
3444.505	4174
3446.226	4230
3447.948	4185
3449.666	4148
3451.386	4273
3453.104	4219
3454.823	4257
3456.541	4195
3458.259	4174
3459.976	4310
3461.693	4067
3463.408	4208
3465.125	4104
3466.841	4168
3468.556	4116
3470.271	4206
3471.985	4162
3473.698	4181
3475.414	4076
3477.126	4037
3478.838	4154
3480.55	4108
3482.263	4114
3483.975	4145
3485.686	4039
3487.396	4165
3489.106	4215
3490.817	4117
3492.526	4137
3494.236	4098
3495.944	4096
3497.652	4068
3499.359	4108
3501.066	4126
3502.775	4176
3504.481	4042
3506.187	4136
3507.893	4054
3509.598	4072
3511.304	4156
3513.009	4009
3514.713	4091
3516.417	4021
3518.12	4057
3519.821	4117
3521.525	3941
3523.228	3959
3524.929	4057
3526.631	4012
3528.33	4025
3530.032	4034
3531.733	4018
3533.433	3960
3535.131	3950
3536.83	4028
3538.529	3974
3540.227	3962
3541.925	3981
3543.623	3943
3545.319	4030
3547.016	4046
3548.712	3954
3550.408	4035
3552.103	3932
3553.798	3981
3555.491	3953
3557.188	3990
3558.88	3917
3560.574	3941
3562.266	4027
3563.959	3945
3565.651	3937
3567.343	3875
3569.035	3941
3570.725	3897
3572.415	3935
3574.106	3930
3575.797	3897
3577.485	3949
3579.174	3855
3580.863	3914
3582.551	3902
3584.238	3828
3585.926	3950
3587.613	3877
3589.3	3860
3590.986	3854
3592.671	3880
3594.357	3857
3596.042	3870
3597.726	3733
3599.41	3846
3601.094	3817
3602.778	3765
3604.461	3836
3606.143	3838
3607.825	3849
3609.507	3787
3611.188	3784
3612.87	3720
3614.551	3817
3616.229	3801
3617.909	3752
3619.589	3745
3621.269	3757
3622.948	3769
3624.625	3757
3626.302	3793
3627.98	3810
3629.657	3692
3631.334	3752
3633.01	3697
3634.686	3786
3636.361	3717
3638.036	3644
3639.712	3810
3641.385	3787
3643.06	3748
3644.732	3696
3646.405	3684
3648.08	3782
3649.751	3703
3651.424	3665
3653.094	3672
3654.766	3634
3656.436	3631
3658.106	3695
3659.777	3609
3661.446	3685
3663.115	3667
3664.783	3745
3666.452	3716
3668.121	3621
3669.788	3640
3671.454	3619
3673.121	3674
3674.789	3698
3676.455	3649
3678.12	3639
3679.784	3692
3681.45	3587
3683.114	3649
3684.779	3643
3686.442	3629
3688.105	3632
3689.768	3618
3691.43	3560
3693.093	3646
3694.754	3652
3696.415	3665
3698.076	3599
3699.736	3620
3701.396	3560
3703.057	3530
3704.716	3600
3706.375	3520
3708.034	3530
3709.692	3572
3711.351	3595
3713.008	3581
3714.665	3536
3716.321	3650
3717.977	3544
3719.634	3622
3721.29	3628
3722.945	3546
3724.598	3632
3726.253	3605
3727.907	3515
3729.561	3631
3731.214	3586
3732.867	3464
3734.518	3524
3736.171	3514
3737.824	3519
3739.474	3551
3741.125	3496
3742.775	3520
3744.425	3497
3746.074	3509
3747.725	3509
3749.373	3608
3751.022	3450
3752.669	3475
3754.318	3540
3755.966	3484
3757.612	3446
3759.259	3439
3760.905	3395
3762.55	3397
3764.197	3500
3765.842	3451
3767.486	3468
3769.131	3481
3770.774	3458
3772.417	3489
3774.061	3450
3775.705	3495
3777.347	3446
3778.988	3389
3780.629	3419
3782.271	3402
3783.912	3456
3785.552	3357
3787.192	3457
3788.831	3384
3790.472	3474
3792.112	3430
3793.75	3421
3795.388	3406
3797.024	3416
3798.661	3436
3800.3	3393
3801.936	3386
3803.572	3385
3805.208	3478
3806.844	3306
3808.48	3428
3810.115	3309
3811.748	3341
3813.382	3410
3815.016	3404
3816.649	3292
3818.283	3298
3819.914	3317
3821.547	3386
3823.178	3426
3824.809	3328
3826.441	3349
3828.072	3363
3829.701	3366
3831.331	3331
3832.96	3357
3834.591	3323
3836.219	3296
3837.847	3258
3839.475	3365
3841.102	3276
3842.729	3294
3844.357	3278
3845.984	3258
3847.609	3231
3849.234	3333
3850.86	3342
3852.485	3322
3854.11	3262
3855.734	3374
3857.357	3308
3858.981	3306
3860.603	3256
3862.227	3252
3863.848	3284
3865.471	3209
3867.092	3290
3868.713	3174
3870.334	3253
3871.954	3234
3873.575	3237
3875.194	3260
3876.813	3264
3878.433	3243
3880.051	3221
3881.669	3196
3883.286	3240
3884.904	3218
3886.52	3227
3888.138	3284
3889.754	3200
3891.37	3234
3892.985	3219
3894.6	3218
3896.216	3158
3897.831	3202
3899.444	3280
3901.058	3269
3902.67	3198
3904.283	3203
3905.897	3189
3907.509	3207
3909.121	3198
3910.731	3181
3912.342	3214
3913.954	3242
3915.563	3174
3917.174	3223
3918.783	3172
3920.391	3232
3922.002	3157
3923.611	3147
3925.218	3121
3926.826	3205
3928.432	3122
3930.039	3138
3931.647	3202
3933.253	3244
3934.859	3183
3936.464	3095
3938.068	3164
3939.675	3184
3941.278	3144
3942.883	3242
3944.486	3141
3946.089	3130
3947.692	3113
3949.295	3170
3950.898	3140
3952.499	3097
3954.1	3098
3955.7	3083
3957.303	3103
3958.903	3185
3960.502	3176
3962.101	3161
3963.7	3076
3965.301	3052
3966.899	3043
3968.497	3051
3970.094	3085
3971.691	3099
3973.288	3147
3974.885	3091
3976.481	3128
3978.077	3026
3979.672	3062
3981.267	3016
3982.863	3013
3984.457	3053
3986.051	3053
3987.645	2984
3989.238	3060
3990.831	3032
3992.425	3056
3994.017	3079
3995.607	3018
3997.199	3082
3998.79	3013
4000.382	2981
4001.973	3040
4003.561	2982
4005.151	3039
4006.741	2975
4008.331	3026
4009.918	2975
4011.507	3009
4013.095	2933
4014.681	2950
4016.269	3020
4017.856	2962
4019.443	2920
4021.028	2928
4022.614	2991
4024.199	2975
4025.785	3011
4027.37	2934
4028.953	2953
4030.536	2905
4032.12	2916
4033.704	2886
4035.287	2913
4036.869	2913
4038.45	2943
4040.032	2993
4041.613	2898
4043.195	2957
4044.776	2984
4046.356	2916
4047.935	2896
4049.515	2931
4051.095	2873
4052.674	2955
4054.251	2845
4055.829	2948
4057.406	2960
4058.985	2831
4060.562	2842
4062.139	2886
4063.715	2882
4065.29	2947
4066.865	2827
4068.442	2863
4070.016	2864
4071.59	2929
4073.164	2823
4074.738	2881
4076.312	2894
4077.885	2855
4079.458	2903
4081.03	2842
4082.602	2852
4084.173	2836
4085.745	2901
4087.315	2933
4088.886	2822
4090.456	2805
4092.026	2884
4093.596	2888
4095.165	2882
4096.734	2751
4098.301	2826
4099.869	2804
4101.437	2842
4103.006	2848
4104.572	2834
4106.139	2824
4107.704	2764
4109.27	2818
4110.837	2796
4112.401	2903
4113.966	2823
4115.53	2749
4117.094	2801
4118.659	2767
4120.223	2824
4121.785	2774
4123.347	2799
4124.909	2815
4126.471	2780
4128.034	2799
4129.595	2771
4131.155	2762
4132.716	2706
4134.275	2707
4135.836	2792
4137.395	2765
4138.955	2695
4140.513	2707
4142.071	2779
4143.628	2718
4145.188	2712
4146.745	2685
4148.302	2762
4149.858	2699
4151.414	2675
4152.971	2730
4154.526	2713
4156.081	2748
4157.635	2654
4159.189	2724
4160.745	2761
4162.298	2735
4163.852	2704
4165.405	2747
4166.957	2652
4168.51	2688
4170.063	2702
4171.614	2668
4173.166	2767
4174.717	2654
4176.267	2665
4177.817	2611
4179.368	2647
4180.917	2609
4182.466	2730
4184.016	2642
4185.564	2626
4187.112	2672
4188.66	2641
4190.207	2662
4191.754	2571
4193.301	2651
4194.848	2676
4196.394	2631
4197.94	2660
4199.484	2671
4201.03	2678
4202.575	2603
4204.12	2606
4205.663	2624
4207.207	2500
4208.75	2634
4210.292	2558
4211.836	2594
4213.378	2593
4214.92	2592
4216.46	2612
4218.002	2589
4219.544	2655
4221.083	2626
4222.625	2564
4224.164	2581
4225.703	2623
4227.244	2569
4228.782	2575
4230.32	2674
4231.857	2537
4233.395	2577
4234.933	2596
4236.471	2556
4238.007	2486
4239.542	2497
4241.078	2529
4242.614	2508
4244.15	2525
4245.685	2545
4247.219	2585
4248.753	2564
4250.287	2555
4251.82	2522
4253.354	2566
4254.887	2622
4256.419	2530
4257.951	2521
4259.483	2538
4261.016	2583
4262.547	2568
4264.078	2465
4265.608	2457
4267.137	2529
4268.668	2573
4270.197	2579
4271.727	2511
4273.254	2490
4274.783	2469
4276.311	2485
4277.84	2516
4279.366	2428
4280.894	2469
4282.42	2511
4283.946	2529
4285.473	2464
4286.998	2450
4288.523	2536
4290.047	2466
4291.572	2411
4293.096	2512
4294.622	2493
4296.144	2512
4297.668	2492
4299.19	2541
4300.713	2478
4302.236	2445
4303.758	2485
4305.279	2440
4306.799	2469
4308.321	2454
4309.842	2410
4311.361	2514
4312.882	2453
4314.401	2440
