400.0961	4516
402.6185	4563
405.1424	4494
407.6635	4518
410.1838	4536
412.7035	4572
415.2225	4587
417.7388	4640
420.2585	4570
422.7754	4727
425.2917	4703
427.8072	4814
430.3221	4770
432.8363	4879
435.3498	4831
437.8626	4830
440.3727	4774
442.8841	4853
445.3969	4838
447.907	4760
450.4142	4802
452.9229	4712
455.4289	4917
457.9362	4890
460.4449	4867
462.9488	4788
465.454	4723
467.9566	4801
470.4604	4809
472.9637	4800
475.4662	4756
477.966	4879
480.4671	4781
482.9656	4894
485.4633	4819
487.9645	4833
490.4608	4820
492.9566	4893
495.4536	4974
497.948	4890
500.4437	4881
502.9387	5017
505.431	4970
507.9226	4933
510.4136	4885
512.9079	4896
515.3975	4885
517.8864	5010
520.3746	5035
522.8622	5012
525.3491	5016
527.8394	5033
530.3249	4915
532.8098	5068
535.2939	4960
537.7774	5050
540.2623	4913
542.7444	5004
545.2259	4937
547.7067	4955
550.1868	5046
552.6683	5057
555.147	5063
557.6231	5022
560.1005	5124
562.5773	4998
565.0534	5166
567.5308	5197
570.0056	5147
572.4776	5201
574.951	5137
577.4237	5266
579.8978	5161
582.3671	5211
584.8378	5305
587.3079	5267
589.7773	5302
592.244	5304
594.714	5299
597.1793	5244
599.6461	5257
602.1121	5101
604.5754	5202
607.0421	5124
609.5042	5221
611.9675	5220
614.4282	5271
616.8902	5243
619.3515	5144
621.8122	5247
624.2702	5283
626.7296	5151
629.1863	5162
631.6423	5060
634.1017	5099
636.5563	5157
639.0104	5191
641.4658	5098
643.9185	5124
646.3725	5221
648.8239	5137
651.2766	5316
653.7266	5182
656.176	5244
658.6247	5276
661.0748	5244
663.5242	5245
665.9709	5330
668.417	5278
670.8624	5160
673.3092	5437
675.7533	5285
678.1968	5244
680.6395	5231
683.0817	5363
685.5251	5358
687.9659	5423
690.4061	5351
692.8456	5435
695.2844	5501
697.7226	5501
700.1621	5422
702.599	5296
705.0332	5545
707.4688	5432
709.9036	5561
712.3399	5353
714.7735	5503
717.2044	5517
719.6367	5507
722.0683	5407
724.4993	5520
726.9296	5613
729.3593	5516
731.7883	5519
734.2147	5653
736.6423	5620
739.0714	5581
741.4958	5734
743.9216	5695
746.3447	5652
748.7691	5632
751.1929	5658
753.616	5672
756.0366	5811
758.4584	5786
760.8776	5770
763.2982	5812
765.718	5734
768.1373	5811
770.5539	5733
772.9698	5768
775.3871	5822
777.8038	5723
780.2178	5805
782.6332	5802
785.0459	5768
787.458	5840
789.8714	5830
792.2842	5747
794.6943	5854
797.1038	5828
799.5127	5777
801.9209	5741
804.3324	5745
806.7393	5736
809.1456	5849
811.5513	5793
813.9562	5929
816.3625	5992
818.7663	5843
821.1693	5838
823.5718	5888
825.9735	5884
828.3746	5926
830.7771	5891
833.177	5935
835.5762	5855
837.9747	5898
840.3727	5825
842.772	5966
845.1666	5988
847.5626	5960
849.958	5988
852.3527	6062
854.7488	6028
857.1403	5982
859.5331	6073
861.9253	5997
864.3168	6047
866.7057	5888
869.098	5932
871.4876	5951
873.8746	5945
876.263	5937
878.6487	5830
881.0378	5975
883.4243	5947
885.8081	5973
888.1933	6061
890.5759	5880
892.9598	5991
895.343	6017
897.7256	5969
900.1057	5934
902.4871	5912
904.8659	6036
907.246	6007
909.6254	6040
912.0023	6086
914.3786	6100
916.7562	6336
919.1331	6247
921.5074	6258
923.8831	6405
926.2562	6441
928.6287	6360
931.0005	6554
933.3757	6300
935.7462	6412
938.1162	6373
940.4855	6503
942.8542	6377
945.2242	6574
947.5916	6650
949.9584	6831
952.3266	6992
954.6921	7293
957.0571	7515
959.4233	7739
961.787	7867
964.15	7769
966.5125	7696
968.8742	7384
971.2354	7062
973.5959	6843
975.9559	6599
978.3151	6528
980.6738	6444
983.0338	6458
985.3912	6368
987.7461	6316
990.1022	6238
992.4578	6284
994.8127	6273
997.1689	6263
999.5207	6243
1001.874	6352
1004.226	6416
1006.576	6167
1008.929	6306
1011.28	6408
1013.628	6232
1015.977	6262
1018.324	6302
1020.674	6278
1023.019	6307
1025.366	6271
1027.713	6183
1030.056	6396
1032.399	6410
1034.746	6333
1037.087	6408
1039.431	6482
1041.771	6336
1044.113	6379
1046.454	6419
1048.793	6373
1051.133	6305
1053.471	6428
1055.807	6470
1058.146	6421
1060.483	6385
1062.818	6415
1065.153	6565
1067.489	6560
1069.822	6486
1072.156	6499
1074.488	6564
1076.82	6579
1079.15	6480
1081.48	6478
1083.814	6441
1086.143	6322
1088.471	6398
1090.799	6340
1093.126	6392
1095.452	6482
1097.78	6417
1100.105	6357
1102.43	6449
1104.754	6333
1107.077	6406
1109.4	6362
1111.722	6425
1114.044	6492
1116.365	6494
1118.685	6410
1121.005	6281
1123.324	6428
1125.643	6498
1127.961	6463
1130.278	6485
1132.595	6424
1134.911	6331
1137.226	6470
1139.541	6429
1141.854	6437
1144.167	6340
1146.482	6423
1148.793	6439
1151.105	6297
1153.414	6490
1155.725	6427
1158.033	6390
1160.344	6350
1162.651	6486
1164.959	6345
1167.265	6446
1169.572	6354
1171.878	6450
1174.184	6400
1176.488	6388
1178.79	6436
1181.094	6518
1183.396	6409
1185.699	6380
1188.001	6473
1190.301	6484
1192.6	6514
1194.9	6384
1197.2	6442
1199.497	6379
1201.794	6367
1204.09	6397
1206.387	6479
1208.684	6555
1210.978	6462
1213.272	6558
1215.565	6447
1217.858	6415
1220.15	6421
1222.443	6529
1224.734	6468
1227.024	6502
1229.313	6548
1231.602	6720
1233.892	6692
1236.18	6677
1238.467	6618
1240.754	6688
1243.04	6692
1245.325	6650
1247.612	6688
1249.896	6615
1252.178	6785
1254.461	6742
1256.743	6739
1259.027	6717
1261.308	6746
1263.587	6793
1265.867	6790
1268.146	6822
1270.425	6751
1272.703	6668
1274.981	6770
1277.256	6622
1279.532	6688
1281.808	6833
1284.083	6739
1286.358	6846
1288.63	6727
1290.904	6667
1293.175	6573
1295.449	6648
1297.719	6572
1299.99	6665
1302.259	6582
1304.529	6599
1306.798	6640
1309.065	6657
1311.333	6656
1313.599	6676
1315.866	6624
1318.131	6690
1320.396	6663
1322.66	6566
1324.925	6569
1327.187	6719
1329.448	6775
1331.711	6829
1333.974	6683
1336.234	6730
1338.493	6661
1340.752	6720
1343.01	6727
1345.269	6659
1347.526	6648
1349.784	6688
1352.04	6592
1354.295	6724
1356.552	6590
1358.806	6667
1361.059	6616
1363.312	6686
1365.564	6617
1367.818	6626
1370.069	6669
1372.318	6709
1374.568	6715
1376.817	6714
1379.066	6759
1381.316	6773
1383.564	6728
1385.809	6744
1388.056	6644
1390.301	6716
1392.549	6766
1394.793	6848
1397.036	6972
1399.279	6901
1401.522	7013
1403.763	6847
1406.007	6951
1408.248	6908
1410.487	6985
1412.727	6913
1414.965	6925
1417.205	6887
1419.442	6910
1421.68	7040
1423.915	6985
1426.152	6944
1428.388	6933
1430.623	6849
1432.857	6940
1435.091	6852
1437.323	6933
1439.556	6920
1441.789	6973
1444.019	6874
1446.25	7068
1448.48	6937
1450.708	7087
1452.938	7053
1455.167	6959
1457.394	7086
1459.62	7035
1461.846	7030
1464.073	7001
1466.299	6951
1468.523	6926
1470.746	6870
1472.969	6940
1475.191	6894
1477.415	6847
1479.636	6783
1481.858	6690
1484.078	6775
1486.298	6779
1488.518	6669
1490.736	6805
1492.954	6760
1495.169	6643
1497.386	6737
1499.602	6797
1501.819	6795
1504.034	6563
1506.248	6772
1508.462	6520
1510.675	6689
1512.888	6631
1515.1	6615
1517.311	6782
1519.522	6613
1521.732	6741
1523.942	6585
1526.151	6678
1528.36	6667
1530.566	6619
1532.773	6670
1534.98	6621
1537.187	6599
1539.392	6665
1541.596	6753
1543.801	6606
1546.005	6646
1548.208	6694
1550.411	6653
1552.612	6824
1554.814	6645
1557.013	6752
1559.212	6777
1561.414	6810
1563.612	6788
1565.811	6814
1568.007	6886
1570.203	6727
1572.403	6862
1574.598	6911
1576.792	6728
1578.988	6803
1581.181	6816
1583.376	6852
1585.568	6870
1587.761	6826
1589.952	6927
1592.143	6908
1594.333	6858
1596.524	6914
1598.715	6864
1600.903	6898
1603.091	6901
1605.278	6872
1607.466	6840
1609.652	6871
1611.838	6869
1614.023	6965
1616.207	6933
1618.391	6927
1620.576	6841
1622.759	6835
1624.941	7010
1627.123	6797
1629.304	7038
1631.484	6918
1633.664	6981
1635.844	7069
1638.022	7036
1640.201	6902
1642.38	7064
1644.556	7108
1646.732	6990
1648.908	6942
1651.084	7123
1653.257	6945
1655.433	7047
1657.607	7014
1659.779	7045
1661.951	7119
1664.122	7188
1666.295	7110
1668.467	7058
1670.635	7179
1672.805	7055
1674.973	7125
1677.142	7115
1679.31	7052
1681.478	7086
1683.644	7135
1685.81	6957
1687.975	7146
1690.142	7043
1692.305	7036
1694.468	7087
1696.632	6833
1698.794	6968
1700.957	7023
1703.119	6984
1705.279	6902
1707.439	6902
1709.598	6883
1711.758	6822
1713.917	6871
1716.075	6850
1718.231	6793
1720.388	6825
1722.543	6857
1724.702	6933
1726.856	6886
1729.01	6965
1731.164	6746
1733.317	6722
1735.471	6906
1737.623	6770
1739.774	6918
1741.925	6912
1744.075	6929
1746.225	6764
1748.376	6883
1750.524	6808
1752.672	6950
1754.82	7009
1756.965	7016
1759.113	6896
1761.259	6923
1763.405	6849
1765.549	6826
1767.694	6897
1769.836	6975
1771.981	6896
1774.123	6850
1776.264	6812
1778.405	6856
1780.546	6922
1782.687	6970
1784.827	6953
1786.966	6921
1789.103	6901
1791.242	6997
1793.381	7013
1795.517	6987
1797.653	6910
1799.788	6957
1801.923	6929
1804.057	6994
1806.193	6841
1808.326	6999
1810.457	6804
1812.59	6840
1814.721	6943
1816.855	6742
1818.984	6978
1821.113	6953
1823.244	6955
1825.372	6941
1827.499	6923
1829.63	6877
1831.756	6891
1833.882	6845
1836.007	6846
1838.132	6967
1840.26	6888
1842.384	6877
1844.507	6858
1846.63	6805
1848.752	6980
1850.875	6882
1852.996	6831
1855.118	6916
1857.238	6835
1859.358	6828
1861.477	6821
1863.597	6904
1865.715	6838
1867.832	6857
1869.948	6881
1872.064	6828
1874.181	6832
1876.297	6884
1878.411	6744
1880.526	6963
1882.639	6895
1884.752	6892
1886.865	6858
1888.977	6811
1891.089	6935
1893.2	6864
1895.308	7082
1897.42	6959
1899.53	6886
1901.639	6961
1903.745	6886
1905.853	6915
1907.962	6862
1910.067	6941
1912.174	6915
1914.278	6947
1916.383	6890
1918.486	6965
1920.592	6944
1922.694	6998
1924.797	7052
1926.898	6927
1929	7002
1931.102	6917
1933.203	6893
1935.301	6892
1937.401	6802
1939.499	6898
1941.598	6894
1943.697	6994
1945.793	6940
1947.888	7022
1949.985	6997
1952.08	6992
1954.176	6969
1956.269	7041
1958.364	7009
1960.457	6964
1962.549	6933
1964.642	6967
1966.733	6907
1968.823	7001
1970.913	6916
1973.005	6950
1975.093	6872
1977.184	6958
1979.271	7066
1981.359	6823
1983.446	6827
1985.532	7003
1987.619	6938
1989.705	6852
1991.789	7019
1993.874	6740
1995.956	6908
1998.041	6707
2000.123	6754
2002.206	6934
2004.287	6924
2006.368	6785
2008.449	6931
2010.529	6946
2012.609	6958
2014.688	6783
2016.766	6895
2018.843	6861
2020.922	7050
2022.999	6883
2025.074	6962
2027.15	6962
2029.225	6850
2031.299	6892
2033.375	6919
2035.447	7000
2037.52	6810
2039.592	6855
2041.664	6999
2043.736	6858
2045.807	6847
2047.876	6917
2049.947	6879
2052.015	6926
2054.086	7046
2056.153	6917
2058.221	6916
2060.288	6924
2062.353	6935
2064.42	6954
2066.486	6846
2068.55	6826
2070.614	6846
2072.678	6896
2074.741	6839
2076.805	6905
2078.866	6945
2080.929	6975
2082.99	6945
2085.049	6808
2087.109	6926
2089.17	6925
2091.228	6734
2093.286	6912
2095.344	6916
2097.4	6927
2099.46	7012
2101.516	6873
2103.572	7012
2105.626	6885
2107.679	6950
2109.735	6857
2111.788	6959
2113.841	6824
2115.894	6915
2117.945	6845
2119.997	6909
2122.049	6933
2124.1	6802
2126.148	6843
2128.197	6852
2130.246	6822
2132.296	6949
2134.342	6855
2136.39	6991
2138.437	6787
2140.483	7062
2142.527	6881
2144.574	6837
2146.619	6774
2148.661	6760
2150.705	6895
2152.747	6924
2154.792	6801
2156.832	6870
2158.874	6740
2160.915	6878
2162.954	6832
2164.995	6926
2167.034	6806
2169.072	6899
2171.111	6751
2173.148	6721
2175.186	6839
2177.223	6785
2179.258	6840
2181.294	6827
2183.328	6773
2185.362	6825
2187.398	6715
2189.431	6779
2191.463	6672
2193.495	6651
2195.528	6799
2197.56	6843
2199.59	6798
2201.62	6772
2203.649	6662
2205.678	6846
2207.708	6637
2209.737	6746
2211.764	6710
2213.791	6718
2215.817	6782
2217.843	6744
2219.87	6821
2221.895	6776
2223.919	6767
2225.942	6623
2227.966	6679
2229.988	6647
2232.012	6508
2234.032	6711
2236.054	6743
2238.074	6732
2240.095	6590
2242.116	6708
2244.135	6749
2246.153	6707
2248.171	6647
2250.188	6686
2252.208	6748
2254.223	6556
2256.239	6624
2258.255	6676
2260.269	6738
2262.283	6679
2264.3	6695
2266.312	6645
2268.325	6732
2270.336	6634
2272.349	6737
2274.362	6644
2276.372	6710
2278.383	6803
2280.392	6786
2282.402	6774
2284.409	6657
2286.418	6649
2288.427	6604
2290.433	6588
2292.441	6665
2294.446	6626
2296.453	6555
2298.459	6813
2300.463	6699
2302.466	6723
2304.471	6651
2306.475	6745
2308.477	6687
2310.478	6663
2312.481	6574
2314.481	6686
2316.481	6617
2318.482	6666
2320.482	6562
2322.48	6576
2324.48	6666
2326.478	6566
2328.476	6625
2330.473	6637
2332.469	6573
2334.465	6565
2336.46	6567
2338.454	6514
2340.45	6442
2342.444	6575
2344.437	6536
2346.43	6651
2348.421	6464
2350.414	6573
2352.405	6572
2354.396	6542
2356.386	6475
2358.376	6626
2360.366	6509
2362.355	6478
2364.343	6414
2366.331	6445
2368.317	6412
2370.304	6531
2372.292	6686
2374.278	6516
2376.262	6613
2378.247	6492
2380.23	6619
2382.216	6509
2384.199	6413
2386.181	6501
2388.163	6504
2390.144	6392
2392.127	6501
2394.107	6390
2396.087	6491
2398.066	6430
2400.046	6510
2402.023	6352
2404.004	6550
2405.981	6466
2407.957	6534
2409.934	6403
2411.91	6330
2413.886	6471
2415.862	6445
2417.836	6441
2419.809	6504
2421.784	6345
2423.756	6457
2425.73	6318
2427.701	6336
2429.672	6462
2431.644	6449
2433.615	6503
2435.586	6414
2437.555	6440
2439.523	6506
2441.491	6335
2443.459	6438
2445.428	6339
2447.395	6338
2449.361	6446
2451.327	6332
2453.292	6377
2455.257	6428
2457.223	6216
2459.187	6458
2461.15	6387
2463.113	6297
2465.076	6422
2467.039	6335
2468.999	6466
2470.96	6362
2472.921	6396
2474.881	6318
2476.841	6244
2478.8	6339
2480.759	6305
2482.717	6288
2484.675	6245
2486.63	6267
2488.589	6381
2490.545	6361
2492.5	6356
2494.455	6209
2496.408	6333
2498.364	6325
2500.318	6327
2502.27	6364
2504.223	6278
2506.174	6233
2508.126	6399
2510.078	6306
2512.03	6174
2513.979	6278
2515.927	6219
2517.877	6296
2519.826	6224
2521.775	6383
2523.722	6273
2525.668	6258
2527.616	6159
2529.561	6225
2531.508	6219
2533.452	6310
2535.398	6125
2537.342	6237
2539.284	6232
2541.229	6343
2543.173	6188
2545.114	6154
2547.055	6359
2548.996	6247
2550.938	6183
2552.878	6230
2554.817	6239
2556.756	6306
2558.695	6239
2560.633	6277
2562.572	6298
2564.509	6192
2566.445	6231
2568.382	6290
2570.317	6227
2572.254	6320
2574.189	6277
2576.123	6084
2578.057	6229
2579.99	6174
2581.923	6240
2583.855	6118
2585.788	6176
2587.719	6151
2589.65	6341
2591.579	6265
2593.511	6233
2595.44	6288
2597.37	6263
2599.297	6245
2601.225	6321
2603.153	6263
2605.08	6257
2607.007	6423
2608.932	6295
2610.858	6262
2612.782	6269
2614.709	6339
2616.632	6239
2618.556	6230
2620.478	6239
2622.401	6315
2624.324	6251
2626.247	6163
2628.167	6287
2630.088	6367
2632.008	6336
2633.928	6218
2635.848	6203
2637.766	6411
2639.684	6252
2641.603	6206
2643.519	6327
2645.437	6408
2647.353	6181
2649.27	6244
2651.184	6105
2653.099	6259
2655.014	6192
2656.928	6195
2658.842	6341
2660.755	6270
2662.667	6212
2664.579	6247
2666.491	6169
2668.402	6184
2670.312	6107
2672.222	6120
2674.132	6163
2676.042	6268
2677.951	6205
2679.859	6263
2681.766	6224
2683.674	6258
2685.582	6081
2687.488	6173
2689.392	6133
2691.298	6120
2693.202	6171
2695.107	6167
2697.012	6135
2698.914	6288
2700.817	6147
2702.72	6117
2704.622	6159
2706.524	6190
2708.425	6091
2710.326	6127
2712.225	6129
2714.125	6089
2716.024	6090
2717.923	6095
2719.822	6153
2721.719	6133
2723.616	6159
2725.512	6108
2727.41	6102
2729.305	6070
2731.201	6104
2733.095	6042
2734.99	6115
2736.884	6140
2738.778	6113
2740.67	6182
2742.562	6149
2744.455	6020
2746.346	6121
2748.238	6067
2750.129	6081
2752.018	6155
2753.907	6081
2755.797	6174
2757.687	6120
2759.575	6075
2761.462	6115
2763.349	6052
2765.237	6096
2767.124	6100
2769.009	6066
2770.894	6099
2772.779	6070
2774.663	6121
2776.547	6162
2778.431	6114
2780.314	6054
2782.197	5970
2784.078	6097
2785.96	5941
2787.842	6018
2789.723	6097
2791.603	6048
2793.483	6037
2795.362	6046
2797.241	6001
2799.121	6064
2800.997	6062
2802.874	6071
2804.751	6021
2806.628	6037
2808.506	5977
2810.38	6000
2812.255	6055
2814.13	6017
2816.003	6017
2817.878	5999
2819.752	5961
2821.623	6049
2823.496	6065
2825.368	6011
2827.238	6126
2829.111	6037
2830.98	5987
2832.851	5900
2834.719	6026
2836.589	6038
2838.458	5971
2840.327	6025
2842.193	6057
2844.061	6016
2845.927	6043
2847.794	6060
2849.66	6065
2851.525	6026
2853.39	6102
2855.254	6008
2857.117	6241
2858.983	6205
2860.845	6086
2862.707	6143
2864.569	6202
2866.431	6233
2868.293	6117
2870.154	6323
2872.013	6392
2873.873	6258
2875.733	6331
2877.592	6323
2879.451	6552
2881.309	6593
2883.166	6543
2885.022	6676
2886.879	6822
2888.736	6640
2890.591	6730
2892.446	6508
2894.301	6663
2896.155	6637
2898.009	6648
2899.863	6631
2901.716	6534
2903.568	6679
2905.419	6586
2907.27	6736
2909.123	6621
2910.973	6719
2912.824	6774
2914.673	6688
2916.521	6740
2918.372	6937
2920.22	6800
2922.067	7025
2923.914	7034
2925.761	7074
2927.607	7151
2929.455	7144
2931.301	7279
2933.144	7188
2934.99	7369
2936.833	7344
2938.678	7307
2940.522	7445
2942.364	7627
2944.207	7550
2946.048	7653
2947.891	7752
2949.731	7676
2951.571	7622
2953.412	7723
2955.25	7542
2957.09	7498
2958.93	7554
2960.767	7349
2962.606	7397
2964.443	7235
2966.279	7160
2968.116	7168
2969.953	7041
2971.788	7073
2973.623	6840
2975.457	6934
2977.292	6786
2979.127	6848
2980.959	6778
2982.792	6740
2984.624	6694
2986.455	6615
2988.288	6689
2990.119	6648
2991.949	6513
2993.779	6586
2995.608	6440
2997.439	6498
2999.268	6353
3001.096	6358
3002.923	6378
3004.751	6228
3006.578	6269
3008.406	6115
3010.232	6146
3012.057	5987
3013.883	6011
3015.706	6015
3017.532	5996
3019.356	6021
3021.179	5832
3023.002	5792
3024.823	5800
3026.646	5760
3028.469	5829
3030.289	5776
3032.11	5787
3033.93	5848
3035.749	5858
3037.57	5715
3039.39	5796
3041.207	5806
3043.026	5755
3044.842	5763
3046.661	5818
3048.477	5787
3050.294	5666
3052.109	5713
3053.925	5623
3055.739	5613
3057.555	5738
3059.368	5607
3061.181	5707
3062.995	5685
3064.807	5737
3066.62	5669
3068.433	5758
3070.243	5605
3072.054	5678
3073.865	5686
3075.675	5674
3077.485	5680
3079.293	5586
3081.102	5574
3082.911	5667
3084.719	5554
3086.527	5623
3088.333	5686
3090.139	5527
3091.945	5521
3093.75	5436
3095.557	5518
3097.361	5516
3099.165	5526
3100.969	5521
3102.772	5345
3104.575	5519
3106.379	5461
3108.181	5428
3109.982	5565
3111.783	5345
3113.584	5456
3115.386	5414
3117.186	5471
3118.985	5437
3120.783	5500
3122.582	5517
3124.381	5323
3126.179	5443
3127.975	5386
3129.772	5392
3131.569	5403
3133.365	5479
3135.161	5418
3136.956	5393
3138.751	5386
3140.544	5457
3142.338	5380
3144.132	5385
3145.925	5331
3147.717	5378
3149.509	5345
3151.301	5321
3153.091	5371
3154.884	5310
3156.673	5324
3158.462	5421
3160.252	5382
3162.041	5408
3163.831	5413
3165.618	5383
3167.405	5325
3169.193	5283
3170.979	5346
3172.767	5397
3174.553	5318
3176.338	5309
3178.123	5316
3179.907	5412
3181.692	5257
3183.477	5340
3185.259	5325
3187.042	5309
3188.824	5244
3190.607	5340
3192.389	5252
3194.17	5272
3195.951	5331
3197.73	5346
3199.51	5263
3201.289	5281
3203.07	5317
3204.848	5299
3206.626	5322
3208.403	5343
3210.18	5348
3211.959	5248
3213.735	5275
3215.511	5347
3217.285	5170
3219.06	5260
3220.836	5221
3222.611	5295
3224.384	5317
3226.158	5320
3227.929	5225
3229.702	5267
3231.476	5238
3233.248	5283
3235.018	5253
3236.789	5277
3238.56	5221
3240.33	5266
3242.1	5267
3243.869	5271
3245.637	5352
3247.405	5321
3249.172	5234
3250.941	5244
3252.707	5274
3254.474	5242
3256.24	5341
3258.006	5249
3259.772	5274
3261.537	5264
3263.301	5306
3265.065	5211
3266.828	5122
3268.592	5157
3270.355	5374
3272.117	5269
3273.878	5301
3275.64	5208
3277.401	5238
3279.162	5306
3280.922	5301
3282.682	5287
3284.441	5214
3286.199	5394
3287.959	5168
3289.716	5193
3291.475	5174
3293.232	5206
3294.988	5375
3296.744	5249
3298.501	5332
3300.256	5177
3302.011	5292
3303.766	5251
3305.52	5264
3307.275	5205
3309.028	5276
3310.781	5404
3312.533	5253
3314.285	5198
3316.038	5231
3317.789	5187
3319.54	5221
3321.289	5268
3323.039	5179
3324.789	5130
3326.539	5219
3328.288	5218
3330.035	5213
3331.783	5222
3333.531	5150
3335.28	5218
3337.025	5271
3338.771	5149
3340.518	5323
3342.262	5189
3344.009	5152
3345.753	5257
3347.497	5206
3349.24	5164
3350.983	5078
3352.726	5154
3354.469	5226
3356.212	5083
3357.952	5098
3359.694	5130
3361.434	5156
3363.176	5045
3364.916	5153
3366.654	5115
3368.394	5119
3370.132	5090
3371.871	5065
3373.61	5142
3375.346	5057
3377.083	5063
3378.82	5047
3380.556	5048
3382.292	5001
3384.027	5089
3385.763	5033
3387.497	5022
3389.231	5097
3390.965	5126
3392.698	5085
3394.431	5052
3396.164	5023
3397.896	4989
3399.627	5076
3401.36	4975
3403.09	5071
3404.82	4996
3406.55	5013
3408.279	5037
3410.01	4990
3411.738	4991
3413.467	5028
3415.194	4988
3416.92	4968
3418.647	4920
3420.375	4893
3422.102	4990
3423.827	4957
3425.553	4989
3427.277	4888
3429.003	4942
3430.727	4902
3432.451	4985
3434.173	4914
3435.896	4876
3437.62	4911
3439.343	4960
3441.063	4973
3442.785	4871
3444.505	4825
3446.226	4933
3447.948	4842
3449.666	4826
3451.386	4824
3453.104	4828
3454.823	4878
3456.541	4869
3458.259	4774
3459.976	4833
3461.693	4836
3463.408	4768
3465.125	4782
3466.841	4728
3468.556	4800
3470.271	4763
3471.985	4733
3473.698	4842
3475.414	4772
3477.126	4719
3478.838	4783
3480.55	4712
3482.263	4692
3483.975	4747
3485.686	4671
3487.396	4701
3489.106	4701
3490.817	4732
3492.526	4683
3494.236	4718
3495.944	4681
3497.652	4743
3499.359	4652
3501.066	4601
3502.775	4644
3504.481	4590
3506.187	4680
3507.893	4518
3509.598	4556
3511.304	4578
3513.009	4582
3514.713	4522
3516.417	4547
3518.12	4585
3519.821	4644
3521.525	4637
3523.228	4485
3524.929	4563
3526.631	4574
3528.33	4571
3530.032	4595
3531.733	4613
3533.433	4668
3535.131	4444
3536.83	4577
3538.529	4519
3540.227	4514
3541.925	4561
3543.623	4480
3545.319	4486
3547.016	4508
3548.712	4400
3550.408	4437
3552.103	4494
3553.798	4483
3555.491	4423
3557.188	4475
3558.88	4464
3560.574	4412
3562.266	4419
3563.959	4446
3565.651	4423
3567.343	4470
3569.035	4360
3570.725	4475
3572.415	4462
3574.106	4386
3575.797	4294
3577.485	4431
3579.174	4344
3580.863	4361
3582.551	4392
3584.238	4390
3585.926	4332
3587.613	4417
3589.3	4350
3590.986	4389
3592.671	4310
3594.357	4376
3596.042	4322
3597.726	4235
3599.41	4307
3601.094	4281
3602.778	4297
3604.461	4241
3606.143	4259
3607.825	4393
3609.507	4197
3611.188	4259
3612.87	4201
3614.551	4183
3616.229	4244
3617.909	4201
3619.589	4238
3621.269	4292
3622.948	4238
3624.625	4175
3626.302	4148
3627.98	4227
3629.657	4108
3631.334	4266
3633.01	4192
3634.686	4144
3636.361	4140
3638.036	4162
3639.712	4201
3641.385	4126
3643.06	4166
3644.732	4100
3646.405	4035
3648.08	4194
3649.751	4188
3651.424	4067
3653.094	4053
3654.766	4129
3656.436	4094
3658.106	4092
3659.777	4084
3661.446	4142
3663.115	4030
3664.783	4054
3666.452	4034
3668.121	4058
3669.788	4017
3671.454	3985
3673.121	4022
3674.789	4038
3676.455	4045
3678.12	3965
3679.784	4037
3681.45	4083
3683.114	4102
3684.779	3971
3686.442	4008
3688.105	4034
3689.768	4041
3691.43	4038
3693.093	4053
3694.754	4003
3696.415	3928
3698.076	3968
3699.736	4015
3701.396	4018
3703.057	3964
3704.716	3983
3706.375	4099
3708.034	3961
3709.692	3961
3711.351	3892
3713.008	3987
3714.665	3945
3716.321	3852
3717.977	3929
3719.634	3881
3721.29	3928
3722.945	3910
3724.598	3975
3726.253	3922
3727.907	4010
3729.561	4015
3731.214	4004
3732.867	3909
3734.518	3951
3736.171	3999
3737.824	3909
3739.474	3872
3741.125	3937
3742.775	3855
3744.425	3884
3746.074	3953
3747.725	3883
3749.373	3930
3751.022	3909
3752.669	3925
3754.318	3835
3755.966	3889
3757.612	3852
3759.259	3893
3760.905	3954
3762.55	3891
3764.197	3872
3765.842	3799
3767.486	3806
3769.131	3804
3770.774	3852
3772.417	3819
3774.061	3803
3775.705	3782
3777.347	3771
3778.988	3810
3780.629	3797
3782.271	3771
3783.912	3818
3785.552	3815
3787.192	3766
3788.831	3770
3790.472	3724
3792.112	3747
3793.75	3805
3795.388	3828
3797.024	3781
3798.661	3736
3800.3	3777
3801.936	3749
3803.572	3739
3805.208	3811
3806.844	3833
3808.48	3706
3810.115	3791
3811.748	3730
3813.382	3710
3815.016	3641
3816.649	3787
3818.283	3751
3819.914	3715
3821.547	3671
3823.178	3683
3824.809	3776
3826.441	3778
3828.072	3667
3829.701	3657
3831.331	3617
3832.96	3653
3834.591	3647
3836.219	3679
3837.847	3637
3839.475	3673
3841.102	3660
3842.729	3685
3844.357	3703
3845.984	3669
3847.609	3596
3849.234	3642
3850.86	3626
3852.485	3595
3854.11	3584
3855.734	3626
3857.357	3617
3858.981	3623
3860.603	3623
3862.227	3706
3863.848	3643
3865.471	3558
3867.092	3623
3868.713	3582
3870.334	3572
3871.954	3621
3873.575	3566
3875.194	3570
3876.813	3652
3878.433	3542
3880.051	3643
3881.669	3613
3883.286	3589
3884.904	3545
3886.52	3519
3888.138	3563
3889.754	3538
3891.37	3524
3892.985	3619
3894.6	3515
3896.216	3620
3897.831	3522
3899.444	3525
3901.058	3585
3902.67	3586
3904.283	3609
3905.897	3503
3907.509	3485
3909.121	3502
3910.731	3482
3912.342	3520
3913.954	3508
3915.563	3499
3917.174	3530
3918.783	3537
3920.391	3543
3922.002	3492
3923.611	3550
3925.218	3588
3926.826	3516
3928.432	3527
3930.039	3498
3931.647	3519
3933.253	3413
3934.859	3454
3936.464	3504
3938.068	3441
3939.675	3494
3941.278	3544
3942.883	3503
3944.486	3451
3946.089	3512
3947.692	3502
3949.295	3451
3950.898	3553
3952.499	3541
3954.1	3511
3955.7	3466
3957.303	3383
3958.903	3498
3960.502	3460
3962.101	3483
3963.7	3414
3965.301	3342
3966.899	3434
3968.497	3418
3970.094	3394
3971.691	3488
3973.288	3442
3974.885	3464
3976.481	3387
3978.077	3413
3979.672	3481
3981.267	3347
3982.863	3400
3984.457	3313
3986.051	3325
3987.645	3377
3989.238	3362
3990.831	3319
3992.425	3294
3994.017	3264
3995.607	3315
3997.199	3341
3998.79	3242
4000.382	3420
4001.973	3352
4003.561	3227
4005.151	3262
4006.741	3335
4008.331	3330
4009.918	3308
4011.507	3256
4013.095	3286
4014.681	3219
4016.269	3234
4017.856	3218
4019.443	3253
4021.028	3201
4022.614	3265
4024.199	3252
4025.785	3249
4027.37	3286
4028.953	3335
4030.536	3268
4032.12	3167
4033.704	3239
4035.287	3159
4036.869	3271
4038.45	3274
4040.032	3188
4041.613	3262
4043.195	3240
4044.776	3251
4046.356	3168
4047.935	3208
4049.515	3224
4051.095	3239
4052.674	3154
4054.251	3194
4055.829	3230
4057.406	3245
4058.985	3177
4060.562	3165
4062.139	3108
4063.715	3282
4065.29	3200
4066.865	3215
4068.442	3146
4070.016	3186
4071.59	3153
4073.164	3170
4074.738	3171
4076.312	3221
4077.885	3201
4079.458	3171
4081.03	3125
4082.602	3122
4084.173	3082
4085.745	3107
4087.315	3203
4088.886	3180
4090.456	3137
4092.026	3101
4093.596	3092
4095.165	3069
4096.734	3122
4098.301	3095
4099.869	3001
4101.437	3179
4103.006	3118
4104.572	3057
4106.139	3094
4107.704	3121
4109.27	3231
4110.837	3160
4112.401	3100
4113.966	3133
4115.53	3049
4117.094	3149
4118.659	3088
4120.223	3048
4121.785	3042
4123.347	3028
4124.909	3123
4126.471	2984
4128.034	3065
4129.595	3044
4131.155	3161
4132.716	3064
4134.275	3118
4135.836	3053
4137.395	3027
4138.955	3029
4140.513	3046
4142.071	3006
4143.628	3032
4145.188	3065
4146.745	3050
4148.302	3042
4149.858	2991
4151.414	2961
4152.971	3038
4154.526	3064
4156.081	3005
4157.635	2933
4159.189	3021
4160.745	2952
4162.298	2965
4163.852	2955
4165.405	2970
4166.957	3005
4168.51	2893
4170.063	2946
4171.614	2878
4173.166	2977
4174.717	2886
4176.267	2966
4177.817	2910
4179.368	2878
4180.917	2919
4182.466	2950
4184.016	2884
4185.564	2933
4187.112	2828
4188.66	2864
4190.207	2904
4191.754	2912
4193.301	2937
4194.848	2964
4196.394	2876
4197.94	2882
4199.484	2782
4201.03	2877
4202.575	2881
4204.12	2843
4205.663	2896
4207.207	2832
4208.75	2923
4210.292	2932
4211.836	2879
4213.378	2855
4214.92	2900
4216.46	2851
4218.002	2812
4219.544	2883
4221.083	2862
4222.625	2792
4224.164	2872
4225.703	2827
4227.244	2905
4228.782	2755
4230.32	2808
4231.857	2853
4233.395	2818
4234.933	2891
4236.471	2799
4238.007	2808
4239.542	2871
4241.078	2800
4242.614	2852
4244.15	2821
4245.685	2821
4247.219	2759
4248.753	2853
4250.287	2751
4251.82	2833
4253.354	2684
4254.887	2834
4256.419	2866
4257.951	2765
4259.483	2859
4261.016	2752
4262.547	2767
4264.078	2718
4265.608	2724
4267.137	2783
4268.668	2767
4270.197	2833
4271.727	2737
4273.254	2784
4274.783	2808
4276.311	2758
4277.84	2785
4279.366	2731
4280.894	2693
4282.42	2755
4283.946	2756
4285.473	2751
4286.998	2732
4288.523	2722
4290.047	2692
4291.572	2664
4293.096	2752
4294.622	2704
4296.144	2780
4297.668	2733
4299.19	2717
4300.713	2673
4302.236	2706
4303.758	2713
4305.279	2706
4306.799	2621
4308.321	2733
4309.842	2692
4311.361	2746
4312.882	2753
4314.401	2662
