400.0961	8328
402.6185	8209
405.1424	8165
407.6635	8277
410.1838	8297
412.7035	8201
415.2225	8461
417.7388	8304
420.2585	8473
422.7754	8547
425.2917	8630
427.8072	8672
430.3221	8647
432.8363	8656
435.3498	8655
437.8626	8844
440.3727	8820
442.8841	8751
445.3969	8774
447.907	8931
450.4142	8842
452.9229	8826
455.4289	8815
457.9362	8935
460.4449	8744
462.9488	8809
465.454	8894
467.9566	8886
470.4604	8835
472.9637	8969
475.4662	8981
477.966	8800
480.4671	8876
482.9656	8943
485.4633	8998
487.9645	9013
490.4608	8956
492.9566	9190
495.4536	8888
497.948	9110
500.4437	9054
502.9387	9145
505.431	9082
507.9226	9270
510.4136	9176
512.9079	9077
515.3975	9331
517.8864	9233
520.3746	9245
522.8622	9357
525.3491	9137
527.8394	9304
530.3249	9279
532.8098	9290
535.2939	9273
537.7774	9223
540.2623	9344
542.7444	9387
545.2259	9222
547.7067	9190
550.1868	9313
552.6683	9428
555.147	9232
557.6231	9321
560.1005	9282
562.5773	9562
565.0534	9385
567.5308	9432
570.0056	9413
572.4776	9471
574.951	9586
577.4237	9434
579.8978	9585
582.3671	9562
584.8378	9586
587.3079	9647
589.7773	9772
592.244	9841
594.714	9792
597.1793	9667
599.6461	9504
602.1121	9632
604.5754	9634
607.0421	9662
609.5042	9516
611.9675	9655
614.4282	9598
616.8902	9623
619.3515	9494
621.8122	9588
624.2702	9585
626.7296	9703
629.1863	9610
631.6423	9621
634.1017	9701
636.5563	9744
639.0104	9681
641.4658	9633
643.9185	9650
646.3725	9620
648.8239	9860
651.2766	9678
653.7266	9736
656.176	9786
658.6247	9714
661.0748	9762
663.5242	9940
665.9709	9740
668.417	9821
670.8624	9942
673.3092	9886
675.7533	9859
678.1968	10071
680.6395	9930
683.0817	9930
685.5251	10060
687.9659	10039
690.4061	9971
692.8456	9895
695.2844	10195
697.7226	10059
700.1621	10195
702.599	10042
705.0332	9987
707.4688	9900
709.9036	9920
712.3399	10327
714.7735	10112
717.2044	10097
719.6367	10392
722.0683	10238
724.4993	10236
726.9296	10332
729.3593	10329
731.7883	10279
734.2147	10342
736.6423	10467
739.0714	10367
741.4958	10479
743.9216	10431
746.3447	10520
748.7691	10545
751.1929	10681
753.616	10497
756.0366	10636
758.4584	10619
760.8776	10665
763.2982	10667
765.718	10761
768.1373	10789
770.5539	10625
772.9698	10818
775.3871	10824
777.8038	10744
780.2178	10736
782.6332	10821
785.0459	10718
787.458	10880
789.8714	10806
792.2842	10741
794.6943	10665
797.1038	10777
799.5127	10853
801.9209	10823
804.3324	10699
806.7393	10790
809.1456	10630
811.5513	10924
813.9562	10820
816.3625	10816
818.7663	11084
821.1693	10839
823.5718	10885
825.9735	10895
828.3746	10916
830.7771	10824
833.177	10990
835.5762	11052
837.9747	10952
840.3727	10963
842.772	10997
845.1666	10987
847.5626	11183
849.958	11070
852.3527	11116
854.7488	11196
857.1403	10964
859.5331	11287
861.9253	11144
864.3168	11138
866.7057	11120
869.098	11119
871.4876	11053
873.8746	11093
876.263	11187
878.6487	11142
881.0378	11022
883.4243	11003
885.8081	10977
888.1933	10983
890.5759	10992
892.9598	11140
895.343	10909
897.7256	11025
900.1057	10986
902.4871	11289
904.8659	11074
907.246	11083
909.6254	11234
912.0023	11139
914.3786	11390
916.7562	11484
919.1331	11324
921.5074	11538
923.8831	11551
926.2562	11502
928.6287	11660
931.0005	11631
933.3757	11537
935.7462	11509
938.1162	11544
940.4855	11847
942.8542	11869
945.2242	11878
947.5916	12131
949.9584	12264
952.3266	12510
954.6921	12858
957.0571	13200
959.4233	13516
961.787	13604
964.15	13478
966.5125	13161
968.8742	12847
971.2354	12489
973.5959	12148
975.9559	11899
978.3151	11904
980.6738	11679
983.0338	11631
985.3912	11510
987.7461	11513
990.1022	11476
992.4578	11615
994.8127	11581
997.1689	11403
999.5207	11438
1001.874	11598
1004.226	11469
1006.576	11524
1008.929	11459
1011.28	11673
1013.628	11367
1015.977	11331
1018.324	11598
1020.674	11461
1023.019	11469
1025.366	11833
1027.713	11665
1030.056	11559
1032.399	11509
1034.746	11814
1037.087	11589
1039.431	11667
1041.771	11740
1044.113	11617
1046.454	11502
1048.793	11762
1051.133	11574
1053.471	11671
1055.807	11752
1058.146	11740
1060.483	11899
1062.818	11788
1065.153	11830
1067.489	11749
1069.822	11964
1072.156	11979
1074.488	11917
1076.82	11884
1079.15	11957
1081.48	11711
1083.814	11813
1086.143	11586
1088.471	11762
1090.799	11723
1093.126	11747
1095.452	11939
1097.78	11874
1100.105	11860
1102.43	11736
1104.754	11659
1107.077	11886
1109.4	11905
1111.722	11799
1114.044	11751
1116.365	11768
1118.685	11893
1121.005	11903
1123.324	11804
1125.643	11772
1127.961	11865
1130.278	11947
1132.595	11811
1134.911	11905
1137.226	11813
1139.541	11638
1141.854	11838
1144.167	11872
1146.482	11615
1148.793	11844
1151.105	11810
1153.414	11811
1155.725	11806
1158.033	11984
1160.344	11864
1162.651	11828
1164.959	11677
1167.265	11836
1169.572	11727
1171.878	11810
1174.184	11923
1176.488	11689
1178.79	11759
1181.094	11986
1183.396	11790
1185.699	11884
1188.001	11759
1190.301	11710
1192.6	11683
1194.9	11737
1197.2	11820
1199.497	11893
1201.794	11783
1204.09	11867
1206.387	11947
1208.684	11794
1210.978	11727
1213.272	11859
1215.565	11826
1217.858	11932
1220.15	11942
1222.443	11869
1224.734	11831
1227.024	12174
1229.313	12009
1231.602	12140
1233.892	12143
1236.18	12240
1238.467	12143
1240.754	12137
1243.04	12336
1245.325	12120
1247.612	12140
1249.896	12300
1252.178	12326
1254.461	12251
1256.743	12458
1259.027	12086
1261.308	12065
1263.587	12291
1265.867	12287
1268.146	12232
1270.425	12202
1272.703	12192
1274.981	12395
1277.256	12200
1279.532	12073
1281.808	12279
1284.083	12155
1286.358	12314
1288.63	12078
1290.904	12010
1293.175	12057
1295.449	12181
1297.719	12190
1299.99	11979
1302.259	12188
1304.529	12003
1306.798	12190
1309.065	12042
1311.333	12118
1313.599	12090
1315.866	12208
1318.131	12010
1320.396	12145
1322.66	12020
1324.925	12037
1327.187	12240
1329.448	12139
1331.711	12277
1333.974	12108
1336.234	12175
1338.493	12184
1340.752	12107
1343.01	12146
1345.269	12134
1347.526	12073
1349.784	11996
1352.04	12141
1354.295	11891
1356.552	12109
1358.806	12091
1361.059	11971
1363.312	12016
1365.564	11980
1367.818	12231
1370.069	12188
1372.318	12178
1374.568	12124
1376.817	12131
1379.066	12181
1381.316	12110
1383.564	12266
1385.809	12248
1388.056	12122
1390.301	12477
1392.549	12328
1394.793	12372
1397.036	12370
1399.279	12202
1401.522	12472
1403.763	12402
1406.007	12499
1408.248	12397
1410.487	12535
1412.727	12601
1414.965	12370
1417.205	12361
1419.442	12572
1421.68	12388
1423.915	12487
1426.152	12368
1428.388	12527
1430.623	12375
1432.857	12598
1435.091	12575
1437.323	12447
1439.556	12503
1441.789	12564
1444.019	12623
1446.25	12726
1448.48	12512
1450.708	12541
1452.938	12698
1455.167	12628
1457.394	12438
1459.62	12600
1461.846	12551
1464.073	12544
1466.299	12553
1468.523	12577
1470.746	12447
1472.969	12416
1475.191	12480
1477.415	12440
1479.636	12205
1481.858	12144
1484.078	12172
1486.298	12467
1488.518	12182
1490.736	12212
1492.954	12113
1495.169	12121
1497.386	12204
1499.602	12218
1501.819	12159
1504.034	12047
1506.248	12100
1508.462	12237
1510.675	12173
1512.888	12124
1515.1	12113
1517.311	12170
1519.522	12028
1521.732	12053
1523.942	12095
1526.151	12126
1528.36	12066
1530.566	12096
1532.773	12291
1534.98	12271
1537.187	11974
1539.392	12146
1541.596	12214
1543.801	12160
1546.005	12294
1548.208	12344
1550.411	12275
1552.612	12134
1554.814	12122
1557.013	12279
1559.212	12228
1561.414	12418
1563.612	12194
1565.811	12213
1568.007	12253
1570.203	12412
1572.403	12356
1574.598	12402
1576.792	12400
1578.988	12571
1581.181	12444
1583.376	12470
1585.568	12502
1587.761	12393
1589.952	12503
1592.143	12617
1594.333	12672
1596.524	12538
1598.715	12611
1600.903	12347
1603.091	12407
1605.278	12681
1607.466	12618
1609.652	12490
1611.838	12581
1614.023	12638
1616.207	12447
1618.391	12526
1620.576	12565
1622.759	12621
1624.941	12561
1627.123	12688
1629.304	12652
1631.484	12704
1633.664	12768
1635.844	12651
1638.022	12674
1640.201	12699
1642.38	12703
1644.556	12792
1646.732	12764
1648.908	12570
1651.084	12652
1653.257	12708
1655.433	12616
1657.607	12587
1659.779	12765
1661.951	12628
1664.122	12812
1666.295	12359
1668.467	12849
1670.635	12888
1672.805	12800
1674.973	12660
1677.142	12799
1679.31	12728
1681.478	12555
1683.644	12746
1685.81	12684
1687.975	12570
1690.142	12480
1692.305	12656
1694.468	12439
1696.632	12527
1698.794	12521
1700.957	12433
1703.119	12654
1705.279	12515
1707.439	12570
1709.598	12374
1711.758	12378
1713.917	12544
1716.075	12544
1718.231	12530
1720.388	12371
1722.543	12335
1724.702	12272
1726.856	12240
1729.01	12295
1731.164	12322
1733.317	12477
1735.471	12355
1737.623	12482
1739.774	12373
1741.925	12484
1744.075	12365
1746.225	12509
1748.376	12460
1750.524	12434
1752.672	12350
1754.82	12346
1756.965	12519
1759.113	12410
1761.259	12386
1763.405	12477
1765.549	12406
1767.694	12583
1769.836	12470
1771.981	12476
1774.123	12450
1776.264	12476
1778.405	12639
1780.546	12567
1782.687	12557
1784.827	12453
1786.966	12596
1789.103	12652
1791.242	12632
1793.381	12592
1795.517	12584
1797.653	12586
1799.788	12586
1801.923	12468
1804.057	12549
1806.193	12359
1808.326	12542
1810.457	12568
1812.59	12535
1814.721	12550
1816.855	12444
1818.984	12521
1821.113	12377
1823.244	12539
1825.372	12533
1827.499	12556
1829.63	12503
1831.756	12437
1833.882	12690
1836.007	12334
1838.132	12357
1840.26	12450
1842.384	12155
1844.507	12436
1846.63	12509
1848.752	12465
1850.875	12556
1852.996	12453
1855.118	12473
1857.238	12395
1859.358	12349
1861.477	12401
1863.597	12361
1865.715	12450
1867.832	12472
1869.948	12483
1872.064	12356
1874.181	12209
1876.297	12331
1878.411	12336
1880.526	12349
1882.639	12588
1884.752	12323
1886.865	12285
1888.977	12270
1891.089	12455
1893.2	12352
1895.308	12378
1897.42	12324
1899.53	12373
1901.639	12456
1903.745	12356
1905.853	12415
1907.962	12294
1910.067	12512
1912.174	12396
1914.278	12599
1916.383	12620
1918.486	12455
1920.592	12329
1922.694	12497
1924.797	12583
1926.898	12406
1929	12657
1931.102	12482
1933.203	12682
1935.301	12462
1937.401	12683
1939.499	12728
1941.598	12768
1943.697	12592
1945.793	12540
1947.888	12453
1949.985	12508
1952.08	12604
1954.176	12519
1956.269	12463
1958.364	12539
1960.457	12398
1962.549	12680
1964.642	12549
1966.733	12584
1968.823	12484
1970.913	12440
1973.005	12482
1975.093	12599
1977.184	12360
1979.271	12449
1981.359	12458
1983.446	12487
1985.532	12500
1987.619	12564
1989.705	12467
1991.789	12299
1993.874	12389
1995.956	12566
1998.041	12399
2000.123	12422
2002.206	12462
2004.287	12362
2006.368	12382
2008.449	12449
2010.529	12363
2012.609	12374
2014.688	12428
2016.766	12226
2018.843	12441
2020.922	12222
2022.999	12409
2025.074	12328
2027.15	12539
2029.225	12406
2031.299	12240
2033.375	12214
2035.447	12429
2037.52	12286
2039.592	12384
2041.664	12355
2043.736	12402
2045.807	12199
2047.876	12204
2049.947	12227
2052.015	12243
2054.086	12367
2056.153	12329
2058.221	12400
2060.288	12252
2062.353	12395
2064.42	12239
2066.486	12332
2068.55	12548
2070.614	12332
2072.678	12260
2074.741	12273
2076.805	12293
2078.866	12469
2080.929	12348
2082.99	12326
2085.049	12239
2087.109	12294
2089.17	12289
2091.228	12475
2093.286	12284
2095.344	12360
2097.4	12299
2099.46	12310
2101.516	12453
2103.572	12448
2105.626	12244
2107.679	12327
2109.735	12392
2111.788	12213
2113.841	12183
2115.894	12187
2117.945	12334
2119.997	12318
2122.049	12160
2124.1	12276
2126.148	12313
2128.197	12372
2130.246	12200
2132.296	12215
2134.342	12401
2136.39	12401
2138.437	12362
2140.483	12324
2142.527	12335
2144.574	12081
2146.619	12091
2148.661	12339
2150.705	12171
2152.747	12173
2154.792	12241
2156.832	12279
2158.874	12118
2160.915	11968
2162.954	12219
2164.995	12169
2167.034	12225
2169.072	12180
2171.111	12105
2173.148	12183
2175.186	12047
2177.223	12059
2179.258	12023
2181.294	11999
2183.328	12158
2185.362	12130
2187.398	11950
2189.431	11974
2191.463	11914
2193.495	11988
2195.528	12106
2197.56	11778
2199.59	12041
2201.62	12043
2203.649	11880
2205.678	11890
2207.708	11945
2209.737	12071
2211.764	11870
2213.791	11940
2215.817	11913
2217.843	11873
2219.87	11961
2221.895	11944
2223.919	11848
2225.942	11929
2227.966	11834
2229.988	11886
2232.012	11844
2234.032	12003
2236.054	11853
2238.074	11829
2240.095	12029
2242.116	11989
2244.135	11898
2246.153	11832
2248.171	11794
2250.188	11814
2252.208	11852
2254.223	11709
2256.239	11929
2258.255	11841
2260.269	12018
2262.283	11961
2264.3	11779
2266.312	11756
2268.325	11812
2270.336	11794
2272.349	11940
2274.362	11776
2276.372	11960
2278.383	11970
2280.392	11967
2282.402	11971
2284.409	11862
2286.418	11658
2288.427	11862
2290.433	11693
2292.441	11834
2294.446	11747
2296.453	11686
2298.459	12063
2300.463	11760
2302.466	11705
2304.471	11777
2306.475	11763
2308.477	11813
2310.478	11759
2312.481	11814
2314.481	11610
2316.481	11629
2318.482	11766
2320.482	11814
2322.48	11612
2324.48	11672
2326.478	11764
2328.476	11625
2330.473	11576
2332.469	11533
2334.465	11652
2336.46	11638
2338.454	11567
2340.45	11561
2342.444	11513
2344.437	11559
2346.43	11647
2348.421	11465
2350.414	11585
2352.405	11484
2354.396	11560
2356.386	11463
2358.376	11554
2360.366	11392
2362.355	11541
2364.343	11503
2366.331	11373
2368.317	11539
2370.304	11560
2372.292	11492
2374.278	11357
2376.262	11274
2378.247	11627
2380.23	11281
2382.216	11546
2384.199	11250
2386.181	11549
2388.163	11536
2390.144	11316
2392.127	11374
2394.107	11285
2396.087	11294
2398.066	11291
2400.046	11457
2402.023	11336
2404.004	11475
2405.981	11281
2407.957	11378
2409.934	11261
2411.91	11270
2413.886	11265
2415.862	11367
2417.836	11315
2419.809	11373
2421.784	11484
2423.756	11152
2425.73	11351
2427.701	11312
2429.672	11242
2431.644	11287
2433.615	11378
2435.586	11238
2437.555	11220
2439.523	11282
2441.491	11245
2443.459	11338
2445.428	11278
2447.395	11247
2449.361	11293
2451.327	11203
2453.292	11268
2455.257	11088
2457.223	11331
2459.187	11124
2461.15	11182
2463.113	10993
2465.076	11237
2467.039	11190
2468.999	11221
2470.96	10960
2472.921	11204
2474.881	11164
2476.841	10988
2478.8	11018
2480.759	11065
2482.717	11086
2484.675	11161
2486.63	11052
2488.589	11185
2490.545	11148
2492.5	11017
2494.455	11146
2496.408	10928
2498.364	10927
2500.318	11149
2502.27	11024
2504.223	10941
2506.174	11102
2508.126	11094
2510.078	10863
2512.03	11131
2513.979	11070
2515.927	10896
2517.877	10977
2519.826	10822
2521.775	11043
2523.722	10977
2525.668	11059
2527.616	11050
2529.561	10979
2531.508	10938
2533.452	10976
2535.398	10909
2537.342	10864
2539.284	10921
2541.229	10860
2543.173	10855
2545.114	10950
2547.055	10913
2548.996	10974
2550.938	10880
2552.878	10900
2554.817	10878
2556.756	10836
2558.695	10899
2560.633	10936
2562.572	10781
2564.509	11008
2566.445	10853
2568.382	10840
2570.317	10828
2572.254	10905
2574.189	10961
2576.123	10774
2578.057	10833
2579.99	10850
2581.923	10847
2583.855	10870
2585.788	10997
2587.719	10959
2589.65	10876
2591.579	10941
2593.511	10820
2595.44	10972
2597.37	10741
2599.297	10963
2601.225	10860
2603.153	10917
2605.08	10938
2607.007	10857
2608.932	10859
2610.858	10917
2612.782	10776
2614.709	10847
2616.632	10713
2618.556	10923
2620.478	11001
2622.401	10760
2624.324	11003
2626.247	10791
2628.167	10818
2630.088	10902
2632.008	10934
2633.928	10966
2635.848	10881
2637.766	10828
2639.684	10729
2641.603	10892
2643.519	10927
2645.437	10872
2647.353	10821
2649.27	10734
2651.184	10801
2653.099	10860
2655.014	10794
2656.928	10829
2658.842	10801
2660.755	10766
2662.667	10739
2664.579	10691
2666.491	10847
2668.402	10794
2670.312	10738
2672.222	10660
2674.132	10736
2676.042	10780
2677.951	10745
2679.859	10896
2681.766	10733
2683.674	10809
2685.582	10749
2687.488	10679
2689.392	10741
2691.298	10739
2693.202	10548
2695.107	10745
2697.012	10578
2698.914	10671
2700.817	10501
2702.72	10696
2704.622	10668
2706.524	10428
2708.425	10621
2710.326	10611
2712.225	10516
2714.125	10568
2716.024	10464
2717.923	10617
2719.822	10566
2721.719	10535
2723.616	10570
2725.512	10700
2727.41	10507
2729.305	10481
2731.201	10417
2733.095	10476
2734.99	10472
2736.884	10440
2738.778	10628
2740.67	10347
2742.562	10487
2744.455	10484
2746.346	10466
2748.238	10498
2750.129	10473
2752.018	10522
2753.907	10422
2755.797	10404
2757.687	10421
2759.575	10466
2761.462	10309
2763.349	10457
2765.237	10505
2767.124	10467
2769.009	10480
2770.894	10451
2772.779	10396
2774.663	10386
2776.547	10534
2778.431	10409
2780.314	10319
2782.197	10494
2784.078	10420
2785.96	10267
2787.842	10391
2789.723	10507
2791.603	10392
2793.483	10395
2795.362	10242
2797.241	10435
2799.121	10311
2800.997	10328
2802.874	10290
2804.751	10218
2806.628	10275
2808.506	10298
2810.38	10330
2812.255	10383
2814.13	10334
2816.003	10270
2817.878	10283
2819.752	10223
2821.623	10331
2823.496	10176
2825.368	10199
2827.238	10280
2829.111	10282
2830.98	10335
2832.851	10143
2834.719	10181
2836.589	10352
2838.458	10279
2840.327	10305
2842.193	10264
2844.061	10262
2845.927	10127
2847.794	10294
2849.66	10297
2851.525	10419
2853.39	10398
2855.254	10301
2857.117	10286
2858.983	10387
2860.845	10339
2862.707	10331
2864.569	10427
2866.431	10370
2868.293	10465
2870.154	10449
2872.013	10699
2873.873	10541
2875.733	10621
2877.592	10762
2879.451	10658
2881.309	10770
2883.166	10776
2885.022	10890
2886.879	11037
2888.736	10908
2890.591	11063
2892.446	11059
2894.301	10985
2896.155	10954
2898.009	11063
2899.863	10977
2901.716	10856
2903.568	10981
2905.419	10814
2907.27	10777
2909.123	10824
2910.973	10772
2912.824	11005
2914.673	10962
2916.521	11083
2918.372	11118
2920.22	11176
2922.067	11038
2923.914	11231
2925.761	11194
2927.607	11457
2929.455	11529
2931.301	11425
2933.144	11431
2934.99	11617
2936.833	11731
2938.678	11679
2940.522	11629
2942.364	11876
2944.207	11888
2946.048	11900
2947.891	12113
2949.731	12186
2951.571	11798
2953.412	11880
2955.25	11690
2957.09	11728
2958.93	11606
2960.767	11655
2962.606	11462
2964.443	11560
2966.279	11373
2968.116	11266
2969.953	11432
2971.788	11274
2973.623	11089
2975.457	11054
2977.292	10884
2979.127	10882
2980.959	10767
2982.792	10835
2984.624	10713
2986.455	10698
2988.288	10659
2990.119	10740
2991.949	10467
2993.779	10537
2995.608	10666
2997.439	10508
2999.268	10557
3001.096	10248
3002.923	10283
3004.751	10210
3006.578	10135
3008.406	10078
3010.232	10036
3012.057	9966
3013.883	9853
3015.706	9828
3017.532	9937
3019.356	9824
3021.179	9857
3023.002	9764
3024.823	9842
3026.646	9800
3028.469	9595
3030.289	9686
3032.11	9527
3033.93	9656
3035.749	9484
3037.57	9611
3039.39	9631
3041.207	9679
3043.026	9462
3044.842	9706
3046.661	9462
3048.477	9513
3050.294	9503
3052.109	9562
3053.925	9460
3055.739	9722
3057.555	9612
3059.368	9447
3061.181	9305
3062.995	9507
3064.807	9499
3066.62	9291
3068.433	9603
3070.243	9522
3072.054	9583
3073.865	9425
3075.675	9330
3077.485	9365
3079.293	9415
3081.102	9356
3082.911	9298
3084.719	9279
3086.527	9287
3088.333	9458
3090.139	9313
3091.945	9215
3093.75	9229
3095.557	9144
3097.361	9193
3099.165	9226
3100.969	9214
3102.772	9157
3104.575	9202
3106.379	9220
3108.181	9247
3109.982	9204
3111.783	9106
3113.584	9196
3115.386	8989
3117.186	9077
3118.985	9034
3120.783	9043
3122.582	9025
3124.381	9072
3126.179	9100
3127.975	8999
3129.772	9109
3131.569	9098
3133.365	8975
3135.161	9058
3136.956	9110
3138.751	9061
3140.544	8859
3142.338	8896
3144.132	8868
3145.925	9022
3147.717	8863
3149.509	8853
3151.301	9026
3153.091	8904
3154.884	8786
3156.673	8953
3158.462	9064
3160.252	8838
3162.041	8852
3163.831	8831
3165.618	8887
3167.405	8966
3169.193	8882
3170.979	8843
3172.767	8883
3174.553	8781
3176.338	8846
3178.123	8893
3179.907	8812
3181.692	8762
3183.477	8825
3185.259	8825
3187.042	8786
3188.824	8807
3190.607	8831
3192.389	8720
3194.17	8844
3195.951	8882
3197.73	8644
3199.51	8784
3201.289	8810
3203.07	8759
3204.848	8768
3206.626	8636
3208.403	8712
3210.18	8707
3211.959	8662
3213.735	8675
3215.511	8710
3217.285	8539
3219.06	8608
3220.836	8629
3222.611	8583
3224.384	8564
3226.158	8739
3227.929	8627
3229.702	8768
3231.476	8772
3233.248	8601
3235.018	8751
3236.789	8702
3238.56	8475
3240.33	8631
3242.1	8599
3243.869	8654
3245.637	8624
3247.405	8635
3249.172	8717
3250.941	8581
3252.707	8592
3254.474	8726
3256.24	8604
3258.006	8635
3259.772	8472
3261.537	8664
3263.301	8587
3265.065	8542
3266.828	8541
3268.592	8575
3270.355	8572
3272.117	8526
3273.878	8613
3275.64	8616
3277.401	8533
3279.162	8662
3280.922	8605
3282.682	8598
3284.441	8638
3286.199	8576
3287.959	8560
3289.716	8510
3291.475	8638
3293.232	8708
3294.988	8670
3296.744	8598
3298.501	8547
3300.256	8660
3302.011	8572
3303.766	8508
3305.52	8604
3307.275	8466
3309.028	8513
3310.781	8564
3312.533	8438
3314.285	8564
3316.038	8577
3317.789	8543
3319.54	8517
3321.289	8450
3323.039	8601
3324.789	8543
3326.539	8560
3328.288	8448
3330.035	8556
3331.783	8388
3333.531	8436
3335.28	8575
3337.025	8439
3338.771	8499
3340.518	8468
3342.262	8480
3344.009	8514
3345.753	8382
3347.497	8432
3349.24	8284
3350.983	8324
3352.726	8288
3354.469	8542
3356.212	8386
3357.952	8303
3359.694	8359
3361.434	8355
3363.176	8286
3364.916	8391
3366.654	8253
3368.394	8210
3370.132	8426
3371.871	8196
3373.61	8280
3375.346	8249
3377.083	8198
3378.82	8165
3380.556	8215
3382.292	8152
3384.027	8286
3385.763	8173
3387.497	8210
3389.231	8062
3390.965	8239
3392.698	8193
3394.431	8095
3396.164	8215
3397.896	8111
3399.627	8028
3401.36	8144
3403.09	8173
3404.82	8212
3406.55	8122
3408.279	7996
3410.01	8078
3411.738	8177
3413.467	8069
3415.194	8084
3416.92	8096
3418.647	8110
3420.375	8113
3422.102	7963
3423.827	8044
3425.553	8013
3427.277	8064
3429.003	7996
3430.727	7934
3432.451	8057
3434.173	8001
3435.896	7970
3437.62	7929
3439.343	7914
3441.063	7951
3442.785	7793
3444.505	7828
3446.226	7919
3447.948	8007
3449.666	7868
3451.386	7917
3453.104	7797
3454.823	7853
3456.541	7838
3458.259	7773
3459.976	7683
3461.693	7696
3463.408	7741
3465.125	7724
3466.841	7732
3468.556	7738
3470.271	7730
3471.985	7730
3473.698	7598
3475.414	7777
3477.126	7723
3478.838	7554
3480.55	7638
3482.263	7776
3483.975	7625
3485.686	7621
3487.396	7643
3489.106	7549
3490.817	7574
3492.526	7643
3494.236	7589
3495.944	7611
3497.652	7528
3499.359	7514
3501.066	7479
3502.775	7383
3504.481	7496
3506.187	7422
3507.893	7417
3509.598	7448
3511.304	7581
3513.009	7337
3514.713	7455
3516.417	7404
3518.12	7536
3519.821	7481
3521.525	7338
3523.228	7425
3524.929	7407
3526.631	7394
3528.33	7272
3530.032	7324
3531.733	7459
3533.433	7341
3535.131	7285
3536.83	7390
3538.529	7288
3540.227	7373
3541.925	7319
3543.623	7473
3545.319	7240
3547.016	7267
3548.712	7300
3550.408	7110
3552.103	7286
3553.798	7241
3555.491	7206
3557.188	7262
3558.88	7184
3560.574	7175
3562.266	7130
3563.959	7179
3565.651	7210
3567.343	7315
3569.035	7168
3570.725	7093
3572.415	7026
3574.106	7272
3575.797	7145
3577.485	7089
3579.174	7009
3580.863	7153
3582.551	7207
3584.238	7163
3585.926	7095
3587.613	7091
3589.3	7122
3590.986	7114
3592.671	7006
3594.357	6997
3596.042	6982
3597.726	7060
3599.41	6999
3601.094	6972
3602.778	6970
3604.461	6971
3606.143	7022
3607.825	6960
3609.507	6882
3611.188	6951
3612.87	6874
3614.551	6924
3616.229	6859
3617.909	6884
3619.589	6875
3621.269	6859
3622.948	6856
3624.625	6801
3626.302	6841
3627.98	6725
3629.657	6858
3631.334	6809
3633.01	6747
3634.686	6896
3636.361	6692
3638.036	6751
3639.712	6716
3641.385	6565
3643.06	6693
3644.732	6704
3646.405	6715
3648.08	6741
3649.751	6663
3651.424	6748
3653.094	6690
3654.766	6648
3656.436	6666
3658.106	6577
3659.777	6611
3661.446	6586
3663.115	6598
3664.783	6627
3666.452	6730
3668.121	6720
3669.788	6668
3671.454	6604
3673.121	6592
3674.789	6596
3676.455	6528
3678.12	6616
3679.784	6632
3681.45	6564
3683.114	6538
3684.779	6496
3686.442	6428
3688.105	6590
3689.768	6485
3691.43	6495
3693.093	6482
3694.754	6404
3696.415	6474
3698.076	6430
3699.736	6550
3701.396	6474
3703.057	6492
3704.716	6388
3706.375	6428
3708.034	6402
3709.692	6471
3711.351	6386
3713.008	6475
3714.665	6529
3716.321	6425
3717.977	6526
3719.634	6425
3721.29	6391
3722.945	6416
3724.598	6332
3726.253	6338
3727.907	6483
3729.561	6471
3731.214	6330
3732.867	6344
3734.518	6308
3736.171	6352
3737.824	6341
3739.474	6339
3741.125	6317
3742.775	6286
3744.425	6275
3746.074	6351
3747.725	6289
3749.373	6327
3751.022	6345
3752.669	6300
3754.318	6204
3755.966	6275
3757.612	6196
3759.259	6161
3760.905	6199
3762.55	6196
3764.197	6216
3765.842	6259
3767.486	6290
3769.131	6251
3770.774	6153
3772.417	6260
3774.061	6164
3775.705	6156
3777.347	6258
3778.988	6202
3780.629	6185
3782.271	6143
3783.912	6063
3785.552	6177
3787.192	6214
3788.831	6185
3790.472	6120
3792.112	6131
3793.75	6103
3795.388	6114
3797.024	6050
3798.661	6132
3800.3	6041
3801.936	6069
3803.572	6024
3805.208	6060
3806.844	6095
3808.48	6033
3810.115	5945
3811.748	6054
3813.382	6076
3815.016	5889
3816.649	6108
3818.283	5948
3819.914	6019
3821.547	5980
3823.178	5853
3824.809	6033
3826.441	5956
3828.072	6026
3829.701	6055
3831.331	6000
3832.96	6002
3834.591	5934
3836.219	5906
3837.847	5886
3839.475	5866
3841.102	5821
3842.729	5937
3844.357	5918
3845.984	5921
3847.609	5880
3849.234	5900
3850.86	5918
3852.485	5796
3854.11	5797
3855.734	5867
3857.357	5787
3858.981	5843
3860.603	5821
3862.227	5902
3863.848	5712
3865.471	5765
3867.092	5759
3868.713	5768
3870.334	5771
3871.954	5876
3873.575	5751
3875.194	5758
3876.813	5813
3878.433	5742
3880.051	5704
3881.669	5809
3883.286	5812
3884.904	5793
3886.52	5734
3888.138	5773
3889.754	5689
3891.37	5737
3892.985	5672
3894.6	5769
3896.216	5746
3897.831	5661
3899.444	5713
3901.058	5732
3902.67	5728
3904.283	5725
3905.897	5748
3907.509	5631
3909.121	5726
3910.731	5802
3912.342	5718
3913.954	5749
3915.563	5719
3917.174	5677
3918.783	5689
3920.391	5551
3922.002	5624
3923.611	5797
3925.218	5612
3926.826	5598
3928.432	5600
3930.039	5716
3931.647	5621
3933.253	5647
3934.859	5650
3936.464	5566
3938.068	5538
3939.675	5624
3941.278	5540
3942.883	5640
3944.486	5493
3946.089	5654
3947.692	5453
3949.295	5601
3950.898	5572
3952.499	5600
3954.1	5606
3955.7	5489
3957.303	5576
3958.903	5503
3960.502	5487
3962.101	5481
3963.7	5530
3965.301	5482
3966.899	5383
3968.497	5452
3970.094	5529
3971.691	5499
3973.288	5484
3974.885	5412
3976.481	5407
3978.077	5470
3979.672	5390
3981.267	5367
3982.863	5352
3984.457	5400
3986.051	5427
3987.645	5446
3989.238	5241
3990.831	5372
3992.425	5348
3994.017	5378
3995.607	5405
3997.199	5290
3998.79	5362
4000.382	5332
4001.973	5267
4003.561	5299
4005.151	5257
4006.741	5267
4008.331	5294
4009.918	5239
4011.507	5267
4013.095	5277
4014.681	5224
4016.269	5177
4017.856	5009
4019.443	5165
4021.028	5120
4022.614	5127
4024.199	5144
4025.785	5222
4027.37	5208
4028.953	5196
4030.536	5176
4032.12	5175
4033.704	5165
4035.287	5136
4036.869	5163
4038.45	5120
4040.032	5082
4041.613	5206
4043.195	5113
4044.776	5098
4046.356	4982
4047.935	5060
4049.515	5171
4051.095	5175
4052.674	5106
4054.251	5051
4055.829	5066
4057.406	5082
4058.985	5115
4060.562	4996
4062.139	4883
4063.715	5004
4065.29	5021
4066.865	5051
4068.442	5018
4070.016	5053
4071.59	5033
4073.164	4950
4074.738	4999
4076.312	5006
4077.885	4946
4079.458	4957
4081.03	5071
4082.602	4922
4084.173	5061
4085.745	4968
4087.315	4971
4088.886	4922
4090.456	4914
4092.026	5060
4093.596	5006
4095.165	5076
4096.734	4989
4098.301	4865
4099.869	5015
4101.437	4975
4103.006	4968
4104.572	4840
4106.139	4974
4107.704	4921
4109.27	4869
4110.837	4912
4112.401	4819
4113.966	4772
4115.53	4821
4117.094	4855
4118.659	4867
4120.223	4751
4121.785	4910
4123.347	4769
4124.909	4829
4126.471	4898
4128.034	4796
4129.595	4751
4131.155	4751
4132.716	4774
4134.275	4727
4135.836	4822
4137.395	4789
4138.955	4763
4140.513	4770
4142.071	4734
4143.628	4722
4145.188	4786
4146.745	4724
4148.302	4758
4149.858	4738
4151.414	4719
4152.971	4709
4154.526	4671
4156.081	4736
4157.635	4641
4159.189	4655
4160.745	4695
4162.298	4644
4163.852	4588
4165.405	4630
4166.957	4615
4168.51	4534
4170.063	4543
4171.614	4669
4173.166	4578
4174.717	4677
4176.267	4592
4177.817	4556
4179.368	4510
4180.917	4612
4182.466	4533
4184.016	4684
4185.564	4622
4187.112	4516
4188.66	4494
4190.207	4475
4191.754	4519
4193.301	4467
4194.848	4474
4196.394	4544
4197.94	4514
4199.484	4476
4201.03	4491
4202.575	4528
4204.12	4550
4205.663	4462
4207.207	4391
4208.75	4497
4210.292	4489
4211.836	4517
4213.378	4476
4214.92	4510
4216.46	4549
4218.002	4452
4219.544	4378
4221.083	4477
4222.625	4494
4224.164	4427
4225.703	4444
4227.244	4405
4228.782	4428
4230.32	4438
4231.857	4310
4233.395	4347
4234.933	4461
4236.471	4419
4238.007	4395
4239.542	4384
4241.078	4387
4242.614	4379
4244.15	4309
4245.685	4407
4247.219	4337
4248.753	4409
4250.287	4376
4251.82	4322
4253.354	4374
4254.887	4347
4256.419	4300
4257.951	4358
4259.483	4429
4261.016	4316
4262.547	4313
4264.078	4273
4265.608	4301
4267.137	4207
4268.668	4367
4270.197	4347
4271.727	4320
4273.254	4270
4274.783	4326
4276.311	4361
4277.84	4248
4279.366	4292
4280.894	4283
4282.42	4212
4283.946	4279
4285.473	4306
4286.998	4264
4288.523	4312
4290.047	4208
4291.572	4186
4293.096	4254
4294.622	4188
4296.144	4182
4297.668	4193
4299.19	4205
4300.713	4263
4302.236	4186
4303.758	4244
4305.279	4127
4306.799	4146
4308.321	4184
4309.842	4132
4311.361	4224
4312.882	4066
4314.401	4093
