400.0961	3867
402.6185	3855
405.1424	3851
407.6635	3889
410.1838	3871
412.7035	3896
415.2225	3871
417.7388	3771
420.2585	3901
422.7754	3977
425.2917	4023
427.8072	3994
430.3221	3988
432.8363	4063
435.3498	4000
437.8626	4020
440.3727	4086
442.8841	3951
445.3969	4064
447.907	4075
450.4142	4035
452.9229	4021
455.4289	4028
457.9362	4088
460.4449	4085
462.9488	4042
465.454	4040
467.9566	4056
470.4604	4089
472.9637	4097
475.4662	4120
477.966	3998
480.4671	4092
482.9656	4180
485.4633	4175
487.9645	4088
490.4608	4228
492.9566	4257
495.4536	4085
497.948	4219
500.4437	4218
502.9387	4155
505.431	4166
507.9226	4232
510.4136	4255
512.9079	4153
515.3975	4242
517.8864	4199
520.3746	4259
522.8622	4121
525.3491	4303
527.8394	4197
530.3249	4246
532.8098	4267
535.2939	4262
537.7774	4274
540.2623	4238
542.7444	4325
545.2259	4312
547.7067	4301
550.1868	4216
552.6683	4257
555.147	4224
557.6231	4206
560.1005	4241
562.5773	4279
565.0534	4274
567.5308	4318
570.0056	4381
572.4776	4288
574.951	4311
577.4237	4366
579.8978	4338
582.3671	4409
584.8378	4435
587.3079	4402
589.7773	4347
592.244	4400
594.714	4400
597.1793	4391
599.6461	4329
602.1121	4431
604.5754	4348
607.0421	4437
609.5042	4360
611.9675	4290
614.4282	4354
616.8902	4479
619.3515	4411
621.8122	4369
624.2702	4367
626.7296	4452
629.1863	4436
631.6423	4352
634.1017	4337
636.5563	4521
639.0104	4340
641.4658	4419
643.9185	4371
646.3725	4447
648.8239	4427
651.2766	4409
653.7266	4463
656.176	4479
658.6247	4492
661.0748	4518
663.5242	4480
665.9709	4423
668.417	4555
670.8624	4613
673.3092	4503
675.7533	4500
678.1968	4649
680.6395	4465
683.0817	4593
685.5251	4569
687.9659	4500
690.4061	4668
692.8456	4690
695.2844	4489
697.7226	4658
700.1621	4654
702.599	4733
705.0332	4631
707.4688	4613
709.9036	4691
712.3399	4688
714.7735	4683
717.2044	4726
719.6367	4765
722.0683	4674
724.4993	4742
726.9296	4658
729.3593	4700
731.7883	4720
734.2147	4798
736.6423	4806
739.0714	4753
741.4958	4786
743.9216	4781
746.3447	4747
748.7691	4793
751.1929	4862
753.616	4885
756.0366	4794
758.4584	4937
760.8776	4810
763.2982	4879
765.718	4807
768.1373	4871
770.5539	4869
772.9698	4943
775.3871	4970
777.8038	4885
780.2178	4822
782.6332	4994
785.0459	4898
787.458	4982
789.8714	4904
792.2842	4968
794.6943	4825
797.1038	4956
799.5127	4848
801.9209	4941
804.3324	4866
806.7393	4958
809.1456	4941
811.5513	4962
813.9562	5026
816.3625	4920
818.7663	5079
821.1693	4910
823.5718	4990
825.9735	4929
828.3746	4964
830.7771	5027
833.177	4998
835.5762	5046
837.9747	5076
840.3727	5029
842.772	4989
845.1666	5111
847.5626	5011
849.958	4980
852.3527	5131
854.7488	5173
857.1403	5069
859.5331	5139
861.9253	5088
864.3168	5131
866.7057	5093
869.098	5014
871.4876	5075
873.8746	5061
876.263	5024
878.6487	5093
881.0378	5124
883.4243	5046
885.8081	5093
888.1933	5022
890.5759	5077
892.9598	5100
895.343	5032
897.7256	5014
900.1057	4964
902.4871	5104
904.8659	5070
907.246	5084
909.6254	5170
912.0023	5118
914.3786	5288
916.7562	5462
919.1331	5322
921.5074	5484
923.8831	5468
926.2562	5416
928.6287	5431
931.0005	5362
933.3757	5257
935.7462	5284
938.1162	5291
940.4855	5356
942.8542	5393
945.2242	5376
947.5916	5355
949.9584	5393
952.3266	5474
954.6921	5548
957.0571	5548
959.4233	5694
961.787	5727
964.15	5617
966.5125	5635
968.8742	5551
971.2354	5512
973.5959	5422
975.9559	5453
978.3151	5216
980.6738	5439
983.0338	5298
985.3912	5351
987.7461	5254
990.1022	5254
992.4578	5232
994.8127	5180
997.1689	5264
999.5207	5299
1001.874	5336
1004.226	5288
1006.576	5222
1008.929	5373
1011.28	5273
1013.628	5247
1015.977	5284
1018.324	5275
1020.674	5256
1023.019	5291
1025.366	5264
1027.713	5259
1030.056	5275
1032.399	5285
1034.746	5291
1037.087	5270
1039.431	5419
1041.771	5323
1044.113	5353
1046.454	5331
1048.793	5335
1051.133	5300
1053.471	5270
1055.807	5359
1058.146	5412
1060.483	5382
1062.818	5403
1065.153	5350
1067.489	5409
1069.822	5352
1072.156	5346
1074.488	5397
1076.82	5289
1079.15	5444
1081.48	5368
1083.814	5447
1086.143	5391
1088.471	5382
1090.799	5418
1093.126	5389
1095.452	5373
1097.78	5453
1100.105	5394
1102.43	5395
1104.754	5304
1107.077	5371
1109.4	5404
1111.722	5473
1114.044	5441
1116.365	5473
1118.685	5546
1121.005	5571
1123.324	5461
1125.643	5365
1127.961	5505
1130.278	5433
1132.595	5459
1134.911	5412
1137.226	5578
1139.541	5359
1141.854	5308
1144.167	5388
1146.482	5441
1148.793	5508
1151.105	5393
1153.414	5408
1155.725	5304
1158.033	5441
1160.344	5385
1162.651	5461
1164.959	5385
1167.265	5447
1169.572	5382
1171.878	5489
1174.184	5507
1176.488	5513
1178.79	5514
1181.094	5549
1183.396	5554
1185.699	5563
1188.001	5506
1190.301	5428
1192.6	5511
1194.9	5384
1197.2	5492
1199.497	5490
1201.794	5506
1204.09	5406
1206.387	5444
1208.684	5448
1210.978	5327
1213.272	5433
1215.565	5378
1217.858	5414
1220.15	5512
1222.443	5538
1224.734	5483
1227.024	5439
1229.313	5547
1231.602	5636
1233.892	5629
1236.18	5573
1238.467	5645
1240.754	5699
1243.04	5605
1245.325	5746
1247.612	5604
1249.896	5659
1252.178	5690
1254.461	5754
1256.743	5627
1259.027	5716
1261.308	5712
1263.587	5673
1265.867	5578
1268.146	5715
1270.425	5726
1272.703	5591
1274.981	5759
1277.256	5721
1279.532	5671
1281.808	5603
1284.083	5680
1286.358	5611
1288.63	5581
1290.904	5679
1293.175	5667
1295.449	5661
1297.719	5603
1299.99	5639
1302.259	5572
1304.529	5560
1306.798	5684
1309.065	5774
1311.333	5730
1313.599	5599
1315.866	5753
1318.131	5606
1320.396	5622
1322.66	5607
1324.925	5710
1327.187	5662
1329.448	5726
1331.711	5661
1333.974	5723
1336.234	5570
1338.493	5699
1340.752	5717
1343.01	5596
1345.269	5602
1347.526	5673
1349.784	5646
1352.04	5714
1354.295	5558
1356.552	5677
1358.806	5683
1361.059	5636
1363.312	5669
1365.564	5725
1367.818	5787
1370.069	5631
1372.318	5614
1374.568	5658
1376.817	5773
1379.066	5804
1381.316	5781
1383.564	5725
1385.809	5683
1388.056	5712
1390.301	5826
1392.549	5758
1394.793	6028
1397.036	5841
1399.279	5973
1401.522	5924
1403.763	5950
1406.007	5973
1408.248	5898
1410.487	6057
1412.727	6060
1414.965	6017
1417.205	5939
1419.442	5998
1421.68	5884
1423.915	5915
1426.152	5841
1428.388	5824
1430.623	5844
1432.857	5888
1435.091	5835
1437.323	5986
1439.556	5938
1441.789	5992
1444.019	5955
1446.25	5921
1448.48	5949
1450.708	5975
1452.938	5943
1455.167	6056
1457.394	5979
1459.62	6048
1461.846	5963
1464.073	5950
1466.299	5913
1468.523	5785
1470.746	5847
1472.969	5779
1475.191	5866
1477.415	5678
1479.636	5686
1481.858	5650
1484.078	5774
1486.298	5707
1488.518	5765
1490.736	5788
1492.954	5706
1495.169	5710
1497.386	5614
1499.602	5668
1501.819	5720
1504.034	5613
1506.248	5642
1508.462	5728
1510.675	5766
1512.888	5646
1515.1	5622
1517.311	5611
1519.522	5698
1521.732	5578
1523.942	5664
1526.151	5717
1528.36	5700
1530.566	5635
1532.773	5719
1534.98	5659
1537.187	5718
1539.392	5608
1541.596	5659
1543.801	5671
1546.005	5705
1548.208	5796
1550.411	5741
1552.612	5804
1554.814	5865
1557.013	5693
1559.212	5875
1561.414	5796
1563.612	5783
1565.811	5867
1568.007	5775
1570.203	5802
1572.403	5863
1574.598	5839
1576.792	5894
1578.988	5825
1581.181	5695
1583.376	5908
1585.568	5913
1587.761	5869
1589.952	5799
1592.143	5807
1594.333	5833
1596.524	5846
1598.715	5853
1600.903	5864
1603.091	5883
1605.278	5782
1607.466	5897
1609.652	5832
1611.838	5855
1614.023	5828
1616.207	5885
1618.391	5807
1620.576	5849
1622.759	5933
1624.941	5841
1627.123	5797
1629.304	5984
1631.484	6021
1633.664	5976
1635.844	5964
1638.022	5897
1640.201	5874
1642.38	5912
1644.556	5803
1646.732	5808
1648.908	5949
1651.084	5958
1653.257	5901
1655.433	5911
1657.607	5851
1659.779	6007
1661.951	5934
1664.122	5972
1666.295	6029
1668.467	6004
1670.635	5881
1672.805	6035
1674.973	5959
1677.142	5951
1679.31	5856
1681.478	5836
1683.644	5970
1685.81	5927
1687.975	6038
1690.142	5847
1692.305	5813
1694.468	5881
1696.632	5829
1698.794	5880
1700.957	5824
1703.119	5863
1705.279	5837
1707.439	5900
1709.598	5922
1711.758	5776
1713.917	5788
1716.075	5862
1718.231	5784
1720.388	5825
1722.543	5900
1724.702	5890
1726.856	5880
1729.01	6031
1731.164	5839
1733.317	5825
1735.471	5933
1737.623	5873
1739.774	5827
1741.925	5864
1744.075	5941
1746.225	5801
1748.376	5855
1750.524	5867
1752.672	5826
1754.82	5933
1756.965	5895
1759.113	5940
1761.259	5799
1763.405	5967
1765.549	5929
1767.694	5929
1769.836	5921
1771.981	5921
1774.123	5881
1776.264	5867
1778.405	5953
1780.546	5842
1782.687	5975
1784.827	5897
1786.966	5901
1789.103	5910
1791.242	5928
1793.381	5991
1795.517	5952
1797.653	5964
1799.788	5910
1801.923	5943
1804.057	5982
1806.193	5878
1808.326	5822
1810.457	5832
1812.59	5840
1814.721	6041
1816.855	5893
1818.984	5930
1821.113	5869
1823.244	5896
1825.372	5883
1827.499	5928
1829.63	5903
1831.756	5870
1833.882	5935
1836.007	5854
1838.132	5981
1840.26	5888
1842.384	5856
1844.507	5841
1846.63	5820
1848.752	5873
1850.875	5884
1852.996	5926
1855.118	5871
1857.238	5925
1859.358	5847
1861.477	5912
1863.597	5867
1865.715	5783
1867.832	5818
1869.948	5872
1872.064	5721
1874.181	5778
1876.297	5799
1878.411	5900
1880.526	5744
1882.639	5808
1884.752	5756
1886.865	5866
1888.977	5774
1891.089	5883
1893.2	5834
1895.308	5734
1897.42	5867
1899.53	5806
1901.639	5964
1903.745	5904
1905.853	5863
1907.962	5912
1910.067	5893
1912.174	5906
1914.278	5832
1916.383	6008
1918.486	5999
1920.592	5931
1922.694	6022
1924.797	5982
1926.898	5979
1929	6031
1931.102	5987
1933.203	6055
1935.301	5879
1937.401	5894
1939.499	6044
1941.598	6047
1943.697	5934
1945.793	5985
1947.888	5909
1949.985	5898
1952.08	6049
1954.176	5905
1956.269	5867
1958.364	5899
1960.457	6019
1962.549	6055
1964.642	5902
1966.733	5947
1968.823	6113
1970.913	5853
1973.005	5834
1975.093	5968
1977.184	5858
1979.271	5980
1981.359	5901
1983.446	5879
1985.532	5913
1987.619	5867
1989.705	5955
1991.789	5883
1993.874	5887
1995.956	5788
1998.041	5868
2000.123	5931
2002.206	5923
2004.287	6031
2006.368	5833
2008.449	5842
2010.529	5852
2012.609	5849
2014.688	5889
2016.766	5904
2018.843	5834
2020.922	5779
2022.999	5926
2025.074	5838
2027.15	5851
2029.225	5947
2031.299	5834
2033.375	5805
2035.447	5810
2037.52	5822
2039.592	5966
2041.664	5909
2043.736	5940
2045.807	5912
2047.876	5882
2049.947	5950
2052.015	5944
2054.086	5905
2056.153	5865
2058.221	5895
2060.288	5849
2062.353	5860
2064.42	5933
2066.486	5863
2068.55	5932
2070.614	5892
2072.678	5871
2074.741	5911
2076.805	5892
2078.866	6044
2080.929	5906
2082.99	5861
2085.049	5816
2087.109	5954
2089.17	5883
2091.228	5897
2093.286	5826
2095.344	5848
2097.4	5727
2099.46	5919
2101.516	5894
2103.572	5890
2105.626	5888
2107.679	5790
2109.735	5822
2111.788	5886
2113.841	5895
2115.894	5908
2117.945	5798
2119.997	5792
2122.049	5793
2124.1	5916
2126.148	5830
2128.197	5888
2130.246	5832
2132.296	5827
2134.342	5830
2136.39	5810
2138.437	5917
2140.483	5812
2142.527	5770
2144.574	5909
2146.619	5753
2148.661	5874
2150.705	5819
2152.747	5873
2154.792	5797
2156.832	5903
2158.874	5851
2160.915	5787
2162.954	5816
2164.995	5780
2167.034	5766
2169.072	5818
2171.111	5776
2173.148	5774
2175.186	5822
2177.223	5736
2179.258	5833
2181.294	5793
2183.328	5843
2185.362	5771
2187.398	5652
2189.431	5686
2191.463	5732
2193.495	5778
2195.528	5809
2197.56	5704
2199.59	5667
2201.62	5681
2203.649	5748
2205.678	5724
2207.708	5813
2209.737	5779
2211.764	5698
2213.791	5687
2215.817	5725
2217.843	5735
2219.87	5653
2221.895	5636
2223.919	5608
2225.942	5689
2227.966	5674
2229.988	5794
2232.012	5806
2234.032	5753
2236.054	5589
2238.074	5798
2240.095	5742
2242.116	5713
2244.135	5837
2246.153	5686
2248.171	5789
2250.188	5622
2252.208	5716
2254.223	5799
2256.239	5735
2258.255	5678
2260.269	5618
2262.283	5732
2264.3	5657
2266.312	5784
2268.325	5756
2270.336	5621
2272.349	5770
2274.362	5693
2276.372	5688
2278.383	5710
2280.392	5796
2282.402	5641
2284.409	5687
2286.418	5650
2288.427	5744
2290.433	5631
2292.441	5656
2294.446	5744
2296.453	5639
2298.459	5691
2300.463	5672
2302.466	5743
2304.471	5658
2306.475	5690
2308.477	5779
2310.478	5601
2312.481	5696
2314.481	5607
2316.481	5617
2318.482	5643
2320.482	5676
2322.48	5664
2324.48	5620
2326.478	5682
2328.476	5579
2330.473	5634
2332.469	5593
2334.465	5591
2336.46	5670
2338.454	5603
2340.45	5676
2342.444	5598
2344.437	5583
2346.43	5620
2348.421	5476
2350.414	5563
2352.405	5583
2354.396	5553
2356.386	5601
2358.376	5496
2360.366	5544
2362.355	5695
2364.343	5612
2366.331	5566
2368.317	5594
2370.304	5478
2372.292	5569
2374.278	5541
2376.262	5585
2378.247	5653
2380.23	5487
2382.216	5506
2384.199	5515
2386.181	5468
2388.163	5543
2390.144	5476
2392.127	5637
2394.107	5585
2396.087	5596
2398.066	5420
2400.046	5502
2402.023	5469
2404.004	5424
2405.981	5449
2407.957	5470
2409.934	5472
2411.91	5496
2413.886	5444
2415.862	5525
2417.836	5557
2419.809	5388
2421.784	5452
2423.756	5479
2425.73	5402
2427.701	5438
2429.672	5445
2431.644	5435
2433.615	5511
2435.586	5501
2437.555	5414
2439.523	5506
2441.491	5475
2443.459	5431
2445.428	5430
2447.395	5463
2449.361	5517
2451.327	5460
2453.292	5464
2455.257	5499
2457.223	5507
2459.187	5384
2461.15	5501
2463.113	5409
2465.076	5474
2467.039	5406
2468.999	5466
2470.96	5364
2472.921	5443
2474.881	5347
2476.841	5371
2478.8	5393
2480.759	5430
2482.717	5306
2484.675	5459
2486.63	5404
2488.589	5372
2490.545	5447
2492.5	5411
2494.455	5352
2496.408	5452
2498.364	5360
2500.318	5305
2502.27	5299
2504.223	5241
2506.174	5405
2508.126	5402
2510.078	5345
2512.03	5363
2513.979	5423
2515.927	5292
2517.877	5286
2519.826	5357
2521.775	5280
2523.722	5421
2525.668	5371
2527.616	5381
2529.561	5331
2531.508	5389
2533.452	5435
2535.398	5273
2537.342	5252
2539.284	5361
2541.229	5306
2543.173	5354
2545.114	5330
2547.055	5303
2548.996	5348
2550.938	5392
2552.878	5273
2554.817	5394
2556.756	5354
2558.695	5279
2560.633	5355
2562.572	5318
2564.509	5453
2566.445	5281
2568.382	5233
2570.317	5162
2572.254	5224
2574.189	5377
2576.123	5292
2578.057	5353
2579.99	5256
2581.923	5233
2583.855	5352
2585.788	5399
2587.719	5370
2589.65	5311
2591.579	5286
2593.511	5339
2595.44	5324
2597.37	5420
2599.297	5315
2601.225	5222
2603.153	5296
2605.08	5323
2607.007	5385
2608.932	5267
2610.858	5344
2612.782	5235
2614.709	5376
2616.632	5252
2618.556	5288
2620.478	5369
2622.401	5206
2624.324	5354
2626.247	5265
2628.167	5306
2630.088	5287
2632.008	5394
2633.928	5353
2635.848	5345
2637.766	5274
2639.684	5365
2641.603	5432
2643.519	5283
2645.437	5415
2647.353	5335
2649.27	5257
2651.184	5408
2653.099	5353
2655.014	5276
2656.928	5280
2658.842	5293
2660.755	5301
2662.667	5266
2664.579	5243
2666.491	5298
2668.402	5342
2670.312	5212
2672.222	5270
2674.132	5238
2676.042	5285
2677.951	5387
2679.859	5192
2681.766	5315
2683.674	5266
2685.582	5250
2687.488	5350
2689.392	5241
2691.298	5251
2693.202	5241
2695.107	5225
2697.012	5262
2698.914	5282
2700.817	5253
2702.72	5229
2704.622	5225
2706.524	5239
2708.425	5183
2710.326	5215
2712.225	5289
2714.125	5182
2716.024	5168
2717.923	5192
2719.822	5229
2721.719	5173
2723.616	5155
2725.512	5284
2727.41	5061
2729.305	5185
2731.201	5210
2733.095	5215
2734.99	5091
2736.884	5159
2738.778	5267
2740.67	5211
2742.562	5274
2744.455	5240
2746.346	5293
2748.238	5081
2750.129	5148
2752.018	5167
2753.907	5076
2755.797	5143
2757.687	5219
2759.575	5270
2761.462	5257
2763.349	5132
2765.237	5141
2767.124	5197
2769.009	5309
2770.894	5188
2772.779	5139
2774.663	5124
2776.547	5036
2778.431	5110
2780.314	5175
2782.197	5142
2784.078	5140
2785.96	5225
2787.842	5107
2789.723	5162
2791.603	5111
2793.483	5136
2795.362	5177
2797.241	5073
2799.121	5159
2800.997	5125
2802.874	5055
2804.751	5096
2806.628	5135
2808.506	5151
2810.38	5065
2812.255	5184
2814.13	5064
2816.003	5075
2817.878	5129
2819.752	5059
2821.623	5125
2823.496	5105
2825.368	5136
2827.238	5106
2829.111	5225
2830.98	4996
2832.851	5209
2834.719	5148
2836.589	5174
2838.458	5080
2840.327	5042
2842.193	5082
2844.061	5133
2845.927	5177
2847.794	5162
2849.66	5145
2851.525	5069
2853.39	5259
2855.254	5119
2857.117	5156
2858.983	5222
2860.845	5225
2862.707	5247
2864.569	5241
2866.431	5253
2868.293	5228
2870.154	5352
2872.013	5231
2873.873	5310
2875.733	5258
2877.592	5372
2879.451	5375
2881.309	5461
2883.166	5446
2885.022	5493
2886.879	5565
2888.736	5455
2890.591	5645
2892.446	5605
2894.301	5625
2896.155	5489
2898.009	5606
2899.863	5526
2901.716	5491
2903.568	5532
2905.419	5504
2907.27	5563
2909.123	5462
2910.973	5439
2912.824	5638
2914.673	5476
2916.521	5729
2918.372	5621
2920.22	5648
2922.067	5760
2923.914	5605
2925.761	5741
2927.607	5717
2929.455	5761
2931.301	5740
2933.144	5714
2934.99	5778
2936.833	5784
2938.678	5842
2940.522	5853
2942.364	5923
2944.207	6016
2946.048	6097
2947.891	6207
2949.731	6322
2951.571	6216
2953.412	6124
2955.25	6148
2957.09	6093
2958.93	6090
2960.767	6035
2962.606	6014
2964.443	6027
2966.279	5977
2968.116	5790
2969.953	5689
2971.788	5741
2973.623	5538
2975.457	5519
2977.292	5507
2979.127	5391
2980.959	5565
2982.792	5418
2984.624	5422
2986.455	5448
2988.288	5349
2990.119	5367
2991.949	5172
2993.779	5160
2995.608	5252
2997.439	5216
2999.268	5204
3001.096	5165
3002.923	5160
3004.751	5103
3006.578	5063
3008.406	5121
3010.232	5077
3012.057	5016
3013.883	5019
3015.706	5036
3017.532	4944
3019.356	4839
3021.179	4891
3023.002	4915
3024.823	4927
3026.646	4840
3028.469	4889
3030.289	4834
3032.11	4921
3033.93	4869
3035.749	4929
3037.57	4817
3039.39	4815
3041.207	4773
3043.026	4907
3044.842	4883
3046.661	4817
3048.477	4838
3050.294	4817
3052.109	4778
3053.925	4759
3055.739	4725
3057.555	4836
3059.368	4731
3061.181	4827
3062.995	4795
3064.807	4867
3066.62	4793
3068.433	4754
3070.243	4755
3072.054	4842
3073.865	4724
3075.675	4810
3077.485	4677
3079.293	4786
3081.102	4644
3082.911	4679
3084.719	4643
3086.527	4720
3088.333	4634
3090.139	4687
3091.945	4611
3093.75	4686
3095.557	4722
3097.361	4673
3099.165	4646
3100.969	4583
3102.772	4687
3104.575	4591
3106.379	4646
3108.181	4646
3109.982	4726
3111.783	4595
3113.584	4687
3115.386	4623
3117.186	4640
3118.985	4617
3120.783	4554
3122.582	4564
3124.381	4616
3126.179	4585
3127.975	4556
3129.772	4560
3131.569	4461
3133.365	4524
3135.161	4466
3136.956	4553
3138.751	4608
3140.544	4437
3142.338	4401
3144.132	4615
3145.925	4505
3147.717	4506
3149.509	4416
3151.301	4523
3153.091	4422
3154.884	4514
3156.673	4417
3158.462	4536
3160.252	4497
3162.041	4509
3163.831	4538
3165.618	4540
3167.405	4509
3169.193	4499
3170.979	4440
3172.767	4394
3174.553	4527
3176.338	4492
3178.123	4399
3179.907	4367
3181.692	4493
3183.477	4469
3185.259	4460
3187.042	4352
3188.824	4439
3190.607	4414
3192.389	4449
3194.17	4547
3195.951	4392
3197.73	4517
3199.51	4459
3201.289	4411
3203.07	4491
3204.848	4350
3206.626	4463
3208.403	4453
3210.18	4394
3211.959	4462
3213.735	4476
3215.511	4525
3217.285	4395
3219.06	4515
3220.836	4380
3222.611	4425
3224.384	4360
3226.158	4373
3227.929	4428
3229.702	4401
3231.476	4421
3233.248	4336
3235.018	4373
3236.789	4434
3238.56	4393
3240.33	4370
3242.1	4283
3243.869	4325
3245.637	4367
3247.405	4407
3249.172	4471
3250.941	4351
3252.707	4404
3254.474	4338
3256.24	4326
3258.006	4409
3259.772	4408
3261.537	4362
3263.301	4424
3265.065	4304
3266.828	4341
3268.592	4407
3270.355	4327
3272.117	4278
3273.878	4286
3275.64	4403
3277.401	4396
3279.162	4357
3280.922	4439
3282.682	4337
3284.441	4319
3286.199	4341
3287.959	4372
3289.716	4399
3291.475	4381
3293.232	4431
3294.988	4351
3296.744	4376
3298.501	4304
3300.256	4379
3302.011	4356
3303.766	4341
3305.52	4342
3307.275	4326
3309.028	4274
3310.781	4359
3312.533	4355
3314.285	4265
3316.038	4336
3317.789	4305
3319.54	4394
3321.289	4392
3323.039	4286
3324.789	4317
3326.539	4293
3328.288	4285
3330.035	4338
3331.783	4255
3333.531	4294
3335.28	4264
3337.025	4257
3338.771	4261
3340.518	4276
3342.262	4287
3344.009	4225
3345.753	4353
3347.497	4246
3349.24	4149
3350.983	4281
3352.726	4206
3354.469	4129
3356.212	4205
3357.952	4242
3359.694	4262
3361.434	4276
3363.176	4228
3364.916	4142
3366.654	4238
3368.394	4160
3370.132	4227
3371.871	4225
3373.61	4156
3375.346	4207
3377.083	4222
3378.82	4210
3380.556	4229
3382.292	4167
3384.027	4165
3385.763	4150
3387.497	4197
3389.231	4191
3390.965	4155
3392.698	4216
3394.431	4053
3396.164	4127
3397.896	4086
3399.627	4144
3401.36	4235
3403.09	4085
3404.82	4115
3406.55	4158
3408.279	4110
3410.01	4108
3411.738	4138
3413.467	4181
3415.194	4111
3416.92	4118
3418.647	4051
3420.375	4078
3422.102	4037
3423.827	4097
3425.553	4081
3427.277	4163
3429.003	4108
3430.727	4136
3432.451	4057
3434.173	4050
3435.896	3963
3437.62	4086
3439.343	4214
3441.063	4078
3442.785	3966
3444.505	3996
3446.226	4006
3447.948	3957
3449.666	3951
3451.386	4061
3453.104	3975
3454.823	4033
3456.541	4005
3458.259	3977
3459.976	3908
3461.693	3951
3463.408	4068
3465.125	3945
3466.841	3932
3468.556	4001
3470.271	3952
3471.985	3934
3473.698	3902
3475.414	3983
3477.126	3860
3478.838	3919
3480.55	3978
3482.263	3934
3483.975	3911
3485.686	4007
3487.396	3887
3489.106	3873
3490.817	3899
3492.526	3930
3494.236	3879
3495.944	3827
3497.652	3867
3499.359	3956
3501.066	3893
3502.775	3856
3504.481	3830
3506.187	3843
3507.893	3858
3509.598	3774
3511.304	3893
3513.009	3927
3514.713	3866
3516.417	3829
3518.12	3854
3519.821	3825
3521.525	3748
3523.228	3801
3524.929	3890
3526.631	3814
3528.33	3767
3530.032	3766
3531.733	3753
3533.433	3790
3535.131	3749
3536.83	3742
3538.529	3773
3540.227	3827
3541.925	3786
3543.623	3725
3545.319	3796
3547.016	3718
3548.712	3713
3550.408	3709
3552.103	3771
3553.798	3769
3555.491	3689
3557.188	3769
3558.88	3676
3560.574	3747
3562.266	3738
3563.959	3672
3565.651	3681
3567.343	3715
3569.035	3690
3570.725	3671
3572.415	3587
3574.106	3658
3575.797	3724
3577.485	3661
3579.174	3716
3580.863	3677
3582.551	3690
3584.238	3634
3585.926	3650
3587.613	3685
3589.3	3565
3590.986	3706
3592.671	3610
3594.357	3678
3596.042	3626
3597.726	3579
3599.41	3560
3601.094	3573
3602.778	3581
3604.461	3571
3606.143	3600
3607.825	3555
3609.507	3534
3611.188	3676
3612.87	3581
3614.551	3550
3616.229	3555
3617.909	3584
3619.589	3560
3621.269	3566
3622.948	3564
3624.625	3544
3626.302	3555
3627.98	3495
3629.657	3546
3631.334	3538
3633.01	3407
3634.686	3547
3636.361	3560
3638.036	3487
3639.712	3532
3641.385	3422
3643.06	3501
3644.732	3475
3646.405	3402
3648.08	3450
3649.751	3503
3651.424	3448
3653.094	3490
3654.766	3505
3656.436	3435
3658.106	3439
3659.777	3471
3661.446	3429
3663.115	3402
3664.783	3449
3666.452	3502
3668.121	3403
3669.788	3432
3671.454	3385
3673.121	3429
3674.789	3371
3676.455	3414
3678.12	3422
3679.784	3356
3681.45	3434
3683.114	3405
3684.779	3380
3686.442	3452
3688.105	3404
3689.768	3401
3691.43	3446
3693.093	3389
3694.754	3374
3696.415	3416
3698.076	3339
3699.736	3377
3701.396	3360
3703.057	3373
3704.716	3353
3706.375	3410
3708.034	3373
3709.692	3348
3711.351	3340
3713.008	3406
3714.665	3324
3716.321	3314
3717.977	3316
3719.634	3389
3721.29	3342
3722.945	3327
3724.598	3343
3726.253	3366
3727.907	3320
3729.561	3350
3731.214	3368
3732.867	3330
3734.518	3330
3736.171	3378
3737.824	3294
3739.474	3333
3741.125	3290
3742.775	3331
3744.425	3272
3746.074	3305
3747.725	3236
3749.373	3296
3751.022	3222
3752.669	3319
3754.318	3303
3755.966	3316
3757.612	3311
3759.259	3267
3760.905	3224
3762.55	3332
3764.197	3326
3765.842	3265
3767.486	3251
3769.131	3220
3770.774	3308
3772.417	3237
3774.061	3257
3775.705	3248
3777.347	3228
3778.988	3275
3780.629	3200
3782.271	3234
3783.912	3243
3785.552	3280
3787.192	3219
3788.831	3171
3790.472	3209
3792.112	3248
3793.75	3292
3795.388	3134
3797.024	3128
3798.661	3247
3800.3	3146
3801.936	3190
3803.572	3170
3805.208	3131
3806.844	3169
3808.48	3207
3810.115	3140
3811.748	3180
3813.382	3203
3815.016	3161
3816.649	3198
3818.283	3170
3819.914	3202
3821.547	3180
3823.178	3189
3824.809	3119
3826.441	3183
3828.072	3159
3829.701	3180
3831.331	3126
3832.96	3080
3834.591	3165
3836.219	3122
3837.847	3108
3839.475	3087
3841.102	3129
3842.729	3026
3844.357	3129
3845.984	3105
3847.609	3065
3849.234	3088
3850.86	3139
3852.485	3105
3854.11	3065
3855.734	3122
3857.357	3132
3858.981	3054
3860.603	3072
3862.227	3104
3863.848	3118
3865.471	3108
3867.092	3082
3868.713	3043
3870.334	3086
3871.954	3015
3873.575	3079
3875.194	3046
3876.813	3040
3878.433	3025
3880.051	3087
3881.669	3046
3883.286	3065
3884.904	3011
3886.52	3127
3888.138	3073
3889.754	3017
3891.37	3083
3892.985	2888
3894.6	3086
3896.216	3045
3897.831	2977
3899.444	2951
3901.058	2975
3902.67	2987
3904.283	3051
3905.897	3019
3907.509	3054
3909.121	3053
3910.731	3039
3912.342	3052
3913.954	3042
3915.563	2981
3917.174	2974
3918.783	3034
3920.391	3053
3922.002	2984
3923.611	2992
3925.218	3024
3926.826	2981
3928.432	3052
3930.039	3008
3931.647	2963
3933.253	2944
3934.859	2923
3936.464	3024
3938.068	2957
3939.675	2985
3941.278	2926
3942.883	2869
3944.486	2923
3946.089	3002
3947.692	2951
3949.295	2934
3950.898	2935
3952.499	2919
3954.1	3020
3955.7	2937
3957.303	2961
3958.903	2896
3960.502	2883
3962.101	2922
3963.7	2898
3965.301	2909
3966.899	2919
3968.497	2884
3970.094	2874
3971.691	2841
3973.288	2873
3974.885	2886
3976.481	2928
3978.077	2870
3979.672	2921
3981.267	2870
3982.863	2890
3984.457	2892
3986.051	2828
3987.645	2819
3989.238	2821
3990.831	2796
3992.425	2866
3994.017	2860
3995.607	2828
3997.199	2790
3998.79	2826
4000.382	2793
4001.973	2840
4003.561	2852
4005.151	2836
4006.741	2840
4008.331	2795
4009.918	2821
4011.507	2860
4013.095	2909
4014.681	2771
4016.269	2823
4017.856	2791
4019.443	2759
4021.028	2711
4022.614	2798
4024.199	2769
4025.785	2781
4027.37	2816
4028.953	2848
4030.536	2737
4032.12	2750
4033.704	2792
4035.287	2757
4036.869	2775
4038.45	2785
4040.032	2704
4041.613	2760
4043.195	2735
4044.776	2745
4046.356	2708
4047.935	2761
4049.515	2804
4051.095	2740
4052.674	2690
4054.251	2735
4055.829	2711
4057.406	2680
4058.985	2750
4060.562	2685
4062.139	2730
4063.715	2689
4065.29	2749
4066.865	2726
4068.442	2715
4070.016	2724
4071.59	2747
4073.164	2695
4074.738	2685
4076.312	2739
4077.885	2648
4079.458	2753
4081.03	2563
4082.602	2706
4084.173	2677
4085.745	2705
4087.315	2680
4088.886	2615
4090.456	2683
4092.026	2648
4093.596	2736
4095.165	2652
4096.734	2727
4098.301	2657
4099.869	2704
4101.437	2599
4103.006	2637
4104.572	2615
4106.139	2653
4107.704	2626
4109.27	2634
4110.837	2566
4112.401	2682
4113.966	2715
4115.53	2599
4117.094	2667
4118.659	2532
4120.223	2608
4121.785	2602
4123.347	2620
4124.909	2622
4126.471	2600
4128.034	2660
4129.595	2616
4131.155	2491
4132.716	2651
4134.275	2620
4135.836	2570
4137.395	2564
4138.955	2576
4140.513	2574
4142.071	2533
4143.628	2573
4145.188	2566
4146.745	2615
4148.302	2550
4149.858	2548
4151.414	2618
4152.971	2602
4154.526	2502
4156.081	2575
4157.635	2552
4159.189	2577
4160.745	2512
4162.298	2571
4163.852	2449
4165.405	2554
4166.957	2471
4168.51	2530
4170.063	2478
4171.614	2566
4173.166	2558
4174.717	2572
4176.267	2516
4177.817	2516
4179.368	2518
4180.917	2514
4182.466	2502
4184.016	2500
4185.564	2467
4187.112	2526
4188.66	2507
4190.207	2524
4191.754	2394
4193.301	2469
4194.848	2472
4196.394	2429
4197.94	2453
4199.484	2414
4201.03	2449
4202.575	2486
4204.12	2416
4205.663	2475
4207.207	2347
4208.75	2400
4210.292	2437
4211.836	2429
4213.378	2416
4214.92	2378
4216.46	2383
4218.002	2481
4219.544	2475
4221.083	2492
4222.625	2363
4224.164	2418
4225.703	2389
4227.244	2441
4228.782	2388
4230.32	2371
4231.857	2361
4233.395	2482
4234.933	2384
4236.471	2358
4238.007	2391
4239.542	2433
4241.078	2380
4242.614	2434
4244.15	2390
4245.685	2392
4247.219	2405
4248.753	2374
4250.287	2368
4251.82	2425
4253.354	2435
4254.887	2393
4256.419	2384
4257.951	2329
4259.483	2378
4261.016	2365
4262.547	2410
4264.078	2381
4265.608	2337
4267.137	2370
4268.668	2365
4270.197	2293
4271.727	2397
4273.254	2320
4274.783	2382
4276.311	2330
4277.84	2341
4279.366	2366
4280.894	2322
4282.42	2426
4283.946	2373
4285.473	2334
4286.998	2335
4288.523	2307
4290.047	2333
4291.572	2291
4293.096	2342
4294.622	2344
4296.144	2328
4297.668	2345
4299.19	2299
4300.713	2354
4302.236	2277
4303.758	2336
4305.279	2283
4306.799	2294
4308.321	2404
4309.842	2264
4311.361	2340
4312.882	2314
4314.401	2287
