400.0961	4494
402.6185	4535
405.1424	4465
407.6635	4488
410.1838	4631
412.7035	4594
415.2225	4639
417.7388	4580
420.2585	4610
422.7754	4753
425.2917	4745
427.8072	4739
430.3221	4807
432.8363	4824
435.3498	4844
437.8626	4857
440.3727	4851
442.8841	4808
445.3969	4846
447.907	4894
450.4142	4883
452.9229	4816
455.4289	4957
457.9362	4899
460.4449	4771
462.9488	4854
465.454	5013
467.9566	4844
470.4604	4915
472.9637	4881
475.4662	4941
477.966	4876
480.4671	4909
482.9656	4805
485.4633	4909
487.9645	4825
490.4608	5011
492.9566	4903
495.4536	4965
497.948	4991
500.4437	4891
502.9387	4940
505.431	5035
507.9226	4928
510.4136	5109
512.9079	4956
515.3975	5009
517.8864	5037
520.3746	4982
522.8622	5116
525.3491	5004
527.8394	4942
530.3249	5139
532.8098	5042
535.2939	5128
537.7774	5068
540.2623	5060
542.7444	5037
545.2259	5088
547.7067	4976
550.1868	5135
552.6683	5093
555.147	5063
557.6231	5066
560.1005	5192
562.5773	5208
565.0534	5186
567.5308	5123
570.0056	5149
572.4776	5162
574.951	5193
577.4237	5228
579.8978	5309
582.3671	5230
584.8378	5245
587.3079	5321
589.7773	5309
592.244	5355
594.714	5333
597.1793	5239
599.6461	5271
602.1121	5276
604.5754	5357
607.0421	5206
609.5042	5335
611.9675	5347
614.4282	5335
616.8902	5290
619.3515	5284
621.8122	5186
624.2702	5294
626.7296	5293
629.1863	5312
631.6423	5207
634.1017	5195
636.5563	5310
639.0104	5366
641.4658	5210
643.9185	5250
646.3725	5145
648.8239	5380
651.2766	5233
653.7266	5213
656.176	5411
658.6247	5352
661.0748	5302
663.5242	5298
665.9709	5432
668.417	5548
670.8624	5335
673.3092	5315
675.7533	5431
678.1968	5447
680.6395	5473
683.0817	5392
685.5251	5382
687.9659	5470
690.4061	5420
692.8456	5506
695.2844	5500
697.7226	5601
700.1621	5546
702.599	5380
705.0332	5534
707.4688	5497
709.9036	5498
712.3399	5507
714.7735	5478
717.2044	5553
719.6367	5587
722.0683	5593
724.4993	5601
726.9296	5694
729.3593	5651
731.7883	5575
734.2147	5704
736.6423	5648
739.0714	5665
741.4958	5619
743.9216	5655
746.3447	5640
748.7691	5627
751.1929	5772
753.616	5776
756.0366	5848
758.4584	5849
760.8776	5751
763.2982	5885
765.718	5900
768.1373	5670
770.5539	5802
772.9698	5856
775.3871	5807
777.8038	5827
780.2178	5808
782.6332	5912
785.0459	5694
787.458	5998
789.8714	5831
792.2842	5896
794.6943	5845
797.1038	5915
799.5127	5781
801.9209	5873
804.3324	5873
806.7393	5937
809.1456	5905
811.5513	5882
813.9562	5867
816.3625	5859
818.7663	5954
821.1693	5948
823.5718	5898
825.9735	6047
828.3746	5956
830.7771	5966
833.177	5909
835.5762	5949
837.9747	5844
840.3727	5893
842.772	6027
845.1666	5899
847.5626	5951
849.958	6034
852.3527	6100
854.7488	6125
857.1403	5889
859.5331	6192
861.9253	6043
864.3168	6103
866.7057	6028
869.098	6060
871.4876	5959
873.8746	6058
876.263	6053
878.6487	6176
881.0378	5984
883.4243	6068
885.8081	6007
888.1933	6036
890.5759	5999
892.9598	6028
895.343	6026
897.7256	6016
900.1057	5979
902.4871	6146
904.8659	6052
907.246	6131
909.6254	6092
912.0023	6296
914.3786	6177
916.7562	6233
919.1331	6305
921.5074	6316
923.8831	6336
926.2562	6364
928.6287	6389
931.0005	6212
933.3757	6382
935.7462	6315
938.1162	6374
940.4855	6482
942.8542	6310
945.2242	6428
947.5916	6593
949.9584	6779
952.3266	6989
954.6921	7041
957.0571	7159
959.4233	7560
961.787	7551
964.15	7490
966.5125	7353
968.8742	7187
971.2354	7022
973.5959	6755
975.9559	6563
978.3151	6599
980.6738	6420
983.0338	6399
985.3912	6306
987.7461	6260
990.1022	6331
992.4578	6046
994.8127	6311
997.1689	6227
999.5207	6340
1001.874	6350
1004.226	6414
1006.576	6321
1008.929	6309
1011.28	6229
1013.628	6287
1015.977	6186
1018.324	6349
1020.674	6331
1023.019	6333
1025.366	6318
1027.713	6260
1030.056	6447
1032.399	6413
1034.746	6381
1037.087	6339
1039.431	6435
1041.771	6455
1044.113	6356
1046.454	6414
1048.793	6446
1051.133	6393
1053.471	6337
1055.807	6420
1058.146	6510
1060.483	6290
1062.818	6452
1065.153	6474
1067.489	6519
1069.822	6584
1072.156	6585
1074.488	6547
1076.82	6580
1079.15	6556
1081.48	6498
1083.814	6451
1086.143	6467
1088.471	6422
1090.799	6411
1093.126	6359
1095.452	6419
1097.78	6429
1100.105	6359
1102.43	6515
1104.754	6467
1107.077	6454
1109.4	6374
1111.722	6498
1114.044	6502
1116.365	6401
1118.685	6469
1121.005	6490
1123.324	6496
1125.643	6512
1127.961	6474
1130.278	6491
1132.595	6473
1134.911	6442
1137.226	6368
1139.541	6525
1141.854	6437
1144.167	6566
1146.482	6439
1148.793	6394
1151.105	6518
1153.414	6562
1155.725	6503
1158.033	6474
1160.344	6546
1162.651	6562
1164.959	6423
1167.265	6454
1169.572	6448
1171.878	6553
1174.184	6500
1176.488	6519
1178.79	6426
1181.094	6505
1183.396	6436
1185.699	6487
1188.001	6466
1190.301	6460
1192.6	6380
1194.9	6411
1197.2	6450
1199.497	6332
1201.794	6529
1204.09	6431
1206.387	6616
1208.684	6457
1210.978	6455
1213.272	6548
1215.565	6665
1217.858	6571
1220.15	6519
1222.443	6554
1224.734	6584
1227.024	6622
1229.313	6497
1231.602	6635
1233.892	6597
1236.18	6684
1238.467	6706
1240.754	6807
1243.04	6700
1245.325	6715
1247.612	6755
1249.896	6713
1252.178	6748
1254.461	6680
1256.743	6796
1259.027	6766
1261.308	6794
1263.587	6755
1265.867	6615
1268.146	6723
1270.425	6814
1272.703	6810
1274.981	6858
1277.256	6870
1279.532	6797
1281.808	6667
1284.083	6729
1286.358	6662
1288.63	6711
1290.904	6704
1293.175	6723
1295.449	6729
1297.719	6737
1299.99	6580
1302.259	6683
1304.529	6616
1306.798	6671
1309.065	6665
1311.333	6601
1313.599	6616
1315.866	6579
1318.131	6734
1320.396	6612
1322.66	6613
1324.925	6717
1327.187	6725
1329.448	6688
1331.711	6675
1333.974	6638
1336.234	6636
1338.493	6700
1340.752	6757
1343.01	6572
1345.269	6623
1347.526	6612
1349.784	6620
1352.04	6589
1354.295	6608
1356.552	6799
1358.806	6707
1361.059	6626
1363.312	6745
1365.564	6687
1367.818	6701
1370.069	6551
1372.318	6682
1374.568	6719
1376.817	6684
1379.066	6785
1381.316	6746
1383.564	6800
1385.809	6702
1388.056	6735
1390.301	6782
1392.549	6900
1394.793	6976
1397.036	6872
1399.279	6845
1401.522	6872
1403.763	6894
1406.007	6894
1408.248	6922
1410.487	6850
1412.727	6796
1414.965	6887
1417.205	6825
1419.442	6976
1421.68	6861
1423.915	6863
1426.152	6958
1428.388	6948
1430.623	6864
1432.857	7031
1435.091	6961
1437.323	6907
1439.556	6990
1441.789	6969
1444.019	7031
1446.25	6944
1448.48	6956
1450.708	6994
1452.938	7097
1455.167	7104
1457.394	7044
1459.62	6904
1461.846	7054
1464.073	6959
1466.299	6965
1468.523	6832
1470.746	6964
1472.969	6929
1475.191	6794
1477.415	6899
1479.636	6991
1481.858	6865
1484.078	6797
1486.298	6793
1488.518	6880
1490.736	6681
1492.954	6747
1495.169	6640
1497.386	6814
1499.602	6718
1501.819	6761
1504.034	6632
1506.248	6629
1508.462	6727
1510.675	6730
1512.888	6695
1515.1	6792
1517.311	6733
1519.522	6776
1521.732	6692
1523.942	6747
1526.151	6648
1528.36	6695
1530.566	6697
1532.773	6652
1534.98	6672
1537.187	6695
1539.392	6723
1541.596	6798
1543.801	6803
1546.005	6683
1548.208	6819
1550.411	6824
1552.612	6794
1554.814	6778
1557.013	6727
1559.212	6839
1561.414	6761
1563.612	6860
1565.811	6892
1568.007	6826
1570.203	6903
1572.403	6900
1574.598	6866
1576.792	6842
1578.988	6733
1581.181	6890
1583.376	6944
1585.568	6824
1587.761	6837
1589.952	6884
1592.143	6788
1594.333	6943
1596.524	6948
1598.715	6806
1600.903	6854
1603.091	6834
1605.278	6946
1607.466	7028
1609.652	6933
1611.838	6921
1614.023	6970
1616.207	6923
1618.391	6927
1620.576	6948
1622.759	6982
1624.941	6956
1627.123	6907
1629.304	7028
1631.484	6906
1633.664	7112
1635.844	7011
1638.022	6975
1640.201	7036
1642.38	6971
1644.556	7048
1646.732	7089
1648.908	7018
1651.084	6934
1653.257	6970
1655.433	7134
1657.607	6936
1659.779	7053
1661.951	7055
1664.122	7037
1666.295	7069
1668.467	6943
1670.635	7166
1672.805	7101
1674.973	7136
1677.142	7192
1679.31	7020
1681.478	6948
1683.644	7014
1685.81	7030
1687.975	7018
1690.142	7097
1692.305	7033
1694.468	6977
1696.632	6922
1698.794	7006
1700.957	6950
1703.119	6928
1705.279	6911
1707.439	6916
1709.598	6840
1711.758	7015
1713.917	6929
1716.075	6868
1718.231	6909
1720.388	6903
1722.543	6870
1724.702	6997
1726.856	6918
1729.01	6918
1731.164	7020
1733.317	6818
1735.471	6843
1737.623	6889
1739.774	6987
1741.925	6851
1744.075	6840
1746.225	7035
1748.376	6903
1750.524	6952
1752.672	6879
1754.82	6935
1756.965	6945
1759.113	6834
1761.259	6959
1763.405	7022
1765.549	7033
1767.694	6951
1769.836	6880
1771.981	7050
1774.123	6942
1776.264	6920
1778.405	6883
1780.546	7039
1782.687	6767
1784.827	6885
1786.966	7078
1789.103	7010
1791.242	7028
1793.381	7100
1795.517	6929
1797.653	7033
1799.788	6992
1801.923	6979
1804.057	6967
1806.193	6891
1808.326	6920
1810.457	6945
1812.59	7019
1814.721	7091
1816.855	6910
1818.984	6945
1821.113	6917
1823.244	6881
1825.372	7047
1827.499	6992
1829.63	6916
1831.756	7006
1833.882	6969
1836.007	6943
1838.132	6914
1840.26	6915
1842.384	7021
1844.507	6923
1846.63	6926
1848.752	6941
1850.875	7014
1852.996	6881
1855.118	6969
1857.238	6913
1859.358	7014
1861.477	6984
1863.597	6947
1865.715	6831
1867.832	6869
1869.948	6987
1872.064	6890
1874.181	6934
1876.297	6849
1878.411	6871
1880.526	7014
1882.639	6972
1884.752	6943
1886.865	6810
1888.977	6964
1891.089	6897
1893.2	6967
1895.308	6946
1897.42	6977
1899.53	6971
1901.639	6936
1903.745	6916
1905.853	6912
1907.962	6892
1910.067	6982
1912.174	6974
1914.278	7067
1916.383	6932
1918.486	6945
1920.592	7130
1922.694	6998
1924.797	7018
1926.898	6999
1929	7074
1931.102	7009
1933.203	7011
1935.301	7037
1937.401	6973
1939.499	7035
1941.598	7053
1943.697	7166
1945.793	7087
1947.888	6959
1949.985	7006
1952.08	7072
1954.176	7051
1956.269	7128
1958.364	6934
1960.457	7039
1962.549	6974
1964.642	7012
1966.733	6967
1968.823	7060
1970.913	6996
1973.005	7040
1975.093	7049
1977.184	6987
1979.271	7082
1981.359	7002
1983.446	6996
1985.532	7029
1987.619	6915
1989.705	6966
1991.789	6935
1993.874	6994
1995.956	6917
1998.041	6922
2000.123	6954
2002.206	6914
2004.287	6891
2006.368	7020
2008.449	6908
2010.529	6839
2012.609	6968
2014.688	6937
2016.766	6946
2018.843	6861
2020.922	6901
2022.999	6923
2025.074	6857
2027.15	6929
2029.225	6892
2031.299	6954
2033.375	6886
2035.447	6908
2037.52	6889
2039.592	7004
2041.664	6941
2043.736	6900
2045.807	6790
2047.876	6952
2049.947	6994
2052.015	6926
2054.086	6985
2056.153	7023
2058.221	6931
2060.288	6921
2062.353	6894
2064.42	6984
2066.486	6902
2068.55	6814
2070.614	6990
2072.678	6919
2074.741	6908
2076.805	6993
2078.866	6943
2080.929	6929
2082.99	6978
2085.049	6956
2087.109	6993
2089.17	7073
2091.228	6884
2093.286	6850
2095.344	6929
2097.4	6982
2099.46	6875
2101.516	6952
2103.572	6810
2105.626	6899
2107.679	6945
2109.735	7006
2111.788	6967
2113.841	6901
2115.894	6870
2117.945	6865
2119.997	6955
2122.049	6872
2124.1	6843
2126.148	6849
2128.197	6808
2130.246	6882
2132.296	6896
2134.342	6969
2136.39	7017
2138.437	7008
2140.483	6946
2142.527	6796
2144.574	6879
2146.619	6890
2148.661	6867
2150.705	6807
2152.747	6859
2154.792	6851
2156.832	6895
2158.874	6867
2160.915	6658
2162.954	6922
2164.995	6814
2167.034	6884
2169.072	6797
2171.111	6884
2173.148	6839
2175.186	6777
2177.223	6839
2179.258	6953
2181.294	6784
2183.328	6772
2185.362	6815
2187.398	6806
2189.431	6789
2191.463	6794
2193.495	6847
2195.528	6738
2197.56	6736
2199.59	6818
2201.62	6651
2203.649	6796
2205.678	6734
2207.708	6683
2209.737	6687
2211.764	6724
2213.791	6666
2215.817	6794
2217.843	6742
2219.87	6820
2221.895	6738
2223.919	6748
2225.942	6701
2227.966	6747
2229.988	6653
2232.012	6656
2234.032	6635
2236.054	6637
2238.074	6757
2240.095	6882
2242.116	6628
2244.135	6647
2246.153	6705
2248.171	6723
2250.188	6781
2252.208	6794
2254.223	6707
2256.239	6731
2258.255	6679
2260.269	6526
2262.283	6617
2264.3	6672
2266.312	6621
2268.325	6718
2270.336	6692
2272.349	6708
2274.362	6754
2276.372	6644
2278.383	6667
2280.392	6587
2282.402	6643
2284.409	6673
2286.418	6658
2288.427	6774
2290.433	6591
2292.441	6578
2294.446	6680
2296.453	6647
2298.459	6634
2300.463	6679
2302.466	6754
2304.471	6611
2306.475	6665
2308.477	6715
2310.478	6690
2312.481	6639
2314.481	6564
2316.481	6662
2318.482	6674
2320.482	6588
2322.48	6531
2324.48	6563
2326.478	6565
2328.476	6671
2330.473	6512
2332.469	6612
2334.465	6620
2336.46	6599
2338.454	6520
2340.45	6649
2342.444	6476
2344.437	6565
2346.43	6587
2348.421	6507
2350.414	6437
2352.405	6546
2354.396	6558
2356.386	6503
2358.376	6489
2360.366	6557
2362.355	6368
2364.343	6551
2366.331	6507
2368.317	6544
2370.304	6423
2372.292	6460
2374.278	6543
2376.262	6419
2378.247	6465
2380.23	6496
2382.216	6472
2384.199	6399
2386.181	6452
2388.163	6428
2390.144	6385
2392.127	6534
2394.107	6430
2396.087	6526
2398.066	6422
2400.046	6481
2402.023	6349
2404.004	6422
2405.981	6526
2407.957	6572
2409.934	6442
2411.91	6394
2413.886	6528
2415.862	6379
2417.836	6446
2419.809	6410
2421.784	6422
2423.756	6518
2425.73	6338
2427.701	6486
2429.672	6393
2431.644	6408
2433.615	6358
2435.586	6327
2437.555	6426
2439.523	6365
2441.491	6325
2443.459	6435
2445.428	6578
2447.395	6344
2449.361	6464
2451.327	6388
2453.292	6379
2455.257	6413
2457.223	6369
2459.187	6313
2461.15	6328
2463.113	6404
2465.076	6379
2467.039	6457
2468.999	6395
2470.96	6288
2472.921	6413
2474.881	6379
2476.841	6278
2478.8	6235
2480.759	6337
2482.717	6365
2484.675	6344
2486.63	6281
2488.589	6299
2490.545	6356
2492.5	6344
2494.455	6275
2496.408	6289
2498.364	6226
2500.318	6318
2502.27	6247
2504.223	6356
2506.174	6412
2508.126	6311
2510.078	6297
2512.03	6243
2513.979	6185
2515.927	6287
2517.877	6437
2519.826	6277
2521.775	6288
2523.722	6279
2525.668	6288
2527.616	6216
2529.561	6303
2531.508	6220
2533.452	6297
2535.398	6350
2537.342	6171
2539.284	6325
2541.229	6292
2543.173	6209
2545.114	6226
2547.055	6271
2548.996	6278
2550.938	6256
2552.878	6337
2554.817	6134
2556.756	6214
2558.695	6272
2560.633	6287
2562.572	6186
2564.509	6259
2566.445	6268
2568.382	6210
2570.317	6327
2572.254	6242
2574.189	6247
2576.123	6271
2578.057	6187
2579.99	6200
2581.923	6161
2583.855	6237
2585.788	6146
2587.719	6201
2589.65	6256
2591.579	6232
2593.511	6227
2595.44	6283
2597.37	6216
2599.297	6245
2601.225	6258
2603.153	6162
2605.08	6161
2607.007	6241
2608.932	6276
2610.858	6274
2612.782	6203
2614.709	6270
2616.632	6138
2618.556	6203
2620.478	6336
2622.401	6235
2624.324	6258
2626.247	6236
2628.167	6204
2630.088	6252
2632.008	6184
2633.928	6090
2635.848	6280
2637.766	6223
2639.684	6221
2641.603	6239
2643.519	6105
2645.437	6177
2647.353	6271
2649.27	6299
2651.184	6285
2653.099	6239
2655.014	6197
2656.928	6258
2658.842	6273
2660.755	6197
2662.667	6225
2664.579	6116
2666.491	6099
2668.402	6173
2670.312	6215
2672.222	6251
2674.132	6159
2676.042	6206
2677.951	6067
2679.859	6223
2681.766	6145
2683.674	6134
2685.582	6102
2687.488	6067
2689.392	6222
2691.298	6201
2693.202	6152
2695.107	6143
2697.012	6148
2698.914	6102
2700.817	6038
2702.72	6133
2704.622	6173
2706.524	6148
2708.425	6087
2710.326	6043
2712.225	6023
2714.125	6092
2716.024	6115
2717.923	5980
2719.822	6118
2721.719	6029
2723.616	6033
2725.512	6017
2727.41	6133
2729.305	6036
2731.201	6073
2733.095	5982
2734.99	5916
2736.884	5968
2738.778	6074
2740.67	5999
2742.562	6014
2744.455	6054
2746.346	6078
2748.238	6072
2750.129	6072
2752.018	5992
2753.907	6035
2755.797	6031
2757.687	6056
2759.575	6086
2761.462	6084
2763.349	5907
2765.237	5956
2767.124	5983
2769.009	6041
2770.894	5902
2772.779	6039
2774.663	5944
2776.547	6011
2778.431	6027
2780.314	6006
2782.197	6032
2784.078	6083
2785.96	6021
2787.842	5978
2789.723	5921
2791.603	5949
2793.483	5876
2795.362	5890
2797.241	5990
2799.121	5960
2800.997	5817
2802.874	5865
2804.751	5880
2806.628	5913
2808.506	5924
2810.38	5990
2812.255	5907
2814.13	5943
2816.003	5950
2817.878	5949
2819.752	5933
2821.623	6029
2823.496	5855
2825.368	5883
2827.238	5963
2829.111	5926
2830.98	5834
2832.851	5895
2834.719	6026
2836.589	5831
2838.458	5903
2840.327	5869
2842.193	5945
2844.061	6017
2845.927	5926
2847.794	5811
2849.66	5899
2851.525	5975
2853.39	6017
2855.254	5882
2857.117	5949
2858.983	5931
2860.845	5950
2862.707	6066
2864.569	6040
2866.431	6057
2868.293	6039
2870.154	6021
2872.013	6103
2873.873	6179
2875.733	6177
2877.592	6181
2879.451	6315
2881.309	6322
2883.166	6320
2885.022	6339
2886.879	6337
2888.736	6368
2890.591	6363
2892.446	6359
2894.301	6314
2896.155	6472
2898.009	6376
2899.863	6438
2901.716	6311
2903.568	6243
2905.419	6320
2907.27	6304
2909.123	6439
2910.973	6250
2912.824	6416
2914.673	6293
2916.521	6466
2918.372	6467
2920.22	6469
2922.067	6504
2923.914	6677
2925.761	6450
2927.607	6638
2929.455	6532
2931.301	6640
2933.144	6572
2934.99	6757
2936.833	6789
2938.678	6752
2940.522	6910
2942.364	6833
2944.207	6988
2946.048	6988
2947.891	7095
2949.731	7010
2951.571	7008
2953.412	6922
2955.25	6909
2957.09	6873
2958.93	6728
2960.767	6755
2962.606	6698
2964.443	6637
2966.279	6667
2968.116	6539
2969.953	6494
2971.788	6510
2973.623	6455
2975.457	6340
2977.292	6361
2979.127	6365
2980.959	6388
2982.792	6267
2984.624	6287
2986.455	6289
2988.288	6322
2990.119	6240
2991.949	6089
2993.779	6185
2995.608	6161
2997.439	6061
2999.268	6072
3001.096	6142
3002.923	5955
3004.751	5875
3006.578	5845
3008.406	5883
3010.232	5852
3012.057	5793
3013.883	5882
3015.706	5718
3017.532	5726
3019.356	5673
3021.179	5726
3023.002	5650
3024.823	5598
3026.646	5654
3028.469	5566
3030.289	5732
3032.11	5633
3033.93	5533
3035.749	5561
3037.57	5547
3039.39	5600
3041.207	5570
3043.026	5662
3044.842	5586
3046.661	5545
3048.477	5553
3050.294	5582
3052.109	5537
3053.925	5593
3055.739	5587
3057.555	5420
3059.368	5461
3061.181	5523
3062.995	5526
3064.807	5488
3066.62	5392
3068.433	5559
3070.243	5518
3072.054	5550
3073.865	5533
3075.675	5515
3077.485	5441
3079.293	5509
3081.102	5430
3082.911	5404
3084.719	5381
3086.527	5305
3088.333	5428
3090.139	5483
3091.945	5484
3093.75	5373
3095.557	5407
3097.361	5495
3099.165	5413
3100.969	5245
3102.772	5368
3104.575	5397
3106.379	5428
3108.181	5400
3109.982	5468
3111.783	5301
3113.584	5352
3115.386	5335
3117.186	5382
3118.985	5252
3120.783	5280
3122.582	5280
3124.381	5248
3126.179	5288
3127.975	5323
3129.772	5225
3131.569	5258
3133.365	5243
3135.161	5258
3136.956	5229
3138.751	5270
3140.544	5255
3142.338	5262
3144.132	5206
3145.925	5296
3147.717	5210
3149.509	5253
3151.301	5154
3153.091	5251
3154.884	5306
3156.673	5276
3158.462	5126
3160.252	5310
3162.041	5250
3163.831	5097
3165.618	5155
3167.405	5226
3169.193	5224
3170.979	5197
3172.767	5246
3174.553	5222
3176.338	5172
3178.123	5191
3179.907	5202
3181.692	5317
3183.477	5139
3185.259	5150
3187.042	5139
3188.824	5241
3190.607	5125
3192.389	5074
3194.17	5159
3195.951	5155
3197.73	5169
3199.51	5065
3201.289	5157
3203.07	5114
3204.848	5130
3206.626	5102
3208.403	5098
3210.18	5042
3211.959	5163
3213.735	5111
3215.511	5096
3217.285	5115
3219.06	5052
3220.836	5229
3222.611	5099
3224.384	5090
3226.158	5203
3227.929	5033
3229.702	5149
3231.476	5038
3233.248	5009
3235.018	5056
3236.789	5062
3238.56	5097
3240.33	5024
3242.1	5094
3243.869	5118
3245.637	5022
3247.405	5086
3249.172	5088
3250.941	5137
3252.707	5071
3254.474	5094
3256.24	5034
3258.006	5027
3259.772	4983
3261.537	5071
3263.301	5122
3265.065	5055
3266.828	5070
3268.592	5120
3270.355	5139
3272.117	5078
3273.878	5008
3275.64	5085
3277.401	5027
3279.162	5059
3280.922	4988
3282.682	5028
3284.441	5042
3286.199	5037
3287.959	4964
3289.716	4999
3291.475	4963
3293.232	5031
3294.988	5080
3296.744	5094
3298.501	5054
3300.256	5000
3302.011	4996
3303.766	5011
3305.52	4975
3307.275	5129
3309.028	5032
3310.781	5016
3312.533	5020
3314.285	4972
3316.038	5029
3317.789	4976
3319.54	5072
3321.289	4994
3323.039	5023
3324.789	4992
3326.539	4974
3328.288	4935
3330.035	5069
3331.783	5004
3333.531	5035
3335.28	5000
3337.025	4986
3338.771	4946
3340.518	4917
3342.262	4942
3344.009	4970
3345.753	5014
3347.497	4951
3349.24	4981
3350.983	4969
3352.726	4934
3354.469	4974
3356.212	4884
3357.952	4861
3359.694	4911
3361.434	4916
3363.176	4892
3364.916	4885
3366.654	4980
3368.394	4788
3370.132	4980
3371.871	4851
3373.61	4810
3375.346	4872
3377.083	4809
3378.82	4892
3380.556	4992
3382.292	4745
3384.027	4936
3385.763	4827
3387.497	4953
3389.231	4842
3390.965	4815
3392.698	4783
3394.431	4714
3396.164	4831
3397.896	4776
3399.627	4776
3401.36	4707
3403.09	4743
3404.82	4786
3406.55	4796
3408.279	4807
3410.01	4773
3411.738	4925
3413.467	4866
3415.194	4658
3416.92	4789
3418.647	4767
3420.375	4776
3422.102	4747
3423.827	4743
3425.553	4732
3427.277	4764
3429.003	4751
3430.727	4821
3432.451	4677
3434.173	4778
3435.896	4740
3437.62	4741
3439.343	4697
3441.063	4669
3442.785	4709
3444.505	4636
3446.226	4695
3447.948	4735
3449.666	4651
3451.386	4754
3453.104	4692
3454.823	4650
3456.541	4646
3458.259	4494
3459.976	4648
3461.693	4616
3463.408	4649
3465.125	4577
3466.841	4631
3468.556	4627
3470.271	4605
3471.985	4563
3473.698	4604
3475.414	4706
3477.126	4625
3478.838	4533
3480.55	4513
3482.263	4498
3483.975	4449
3485.686	4469
3487.396	4593
3489.106	4468
3490.817	4575
3492.526	4585
3494.236	4477
3495.944	4463
3497.652	4608
3499.359	4565
3501.066	4520
3502.775	4413
3504.481	4443
3506.187	4401
3507.893	4470
3509.598	4329
3511.304	4467
3513.009	4461
3514.713	4486
3516.417	4516
3518.12	4433
3519.821	4396
3521.525	4439
3523.228	4434
3524.929	4443
3526.631	4407
3528.33	4427
3530.032	4356
3531.733	4433
3533.433	4427
3535.131	4360
3536.83	4406
3538.529	4371
3540.227	4337
3541.925	4379
3543.623	4426
3545.319	4374
3547.016	4296
3548.712	4315
3550.408	4390
3552.103	4330
3553.798	4351
3555.491	4373
3557.188	4401
3558.88	4302
3560.574	4396
3562.266	4350
3563.959	4345
3565.651	4253
3567.343	4245
3569.035	4347
3570.725	4304
3572.415	4272
3574.106	4298
3575.797	4333
3577.485	4233
3579.174	4250
3580.863	4272
3582.551	4253
3584.238	4193
3585.926	4278
3587.613	4237
3589.3	4134
3590.986	4265
3592.671	4156
3594.357	4158
3596.042	4179
3597.726	4152
3599.41	4194
3601.094	4202
3602.778	4162
3604.461	4080
3606.143	4108
3607.825	4106
3609.507	4180
3611.188	4139
3612.87	4100
3614.551	4060
3616.229	4106
3617.909	4145
3619.589	4152
3621.269	4134
3622.948	4040
3624.625	4053
3626.302	4029
3627.98	4150
3629.657	4109
3631.334	4156
3633.01	3998
3634.686	4128
3636.361	4017
3638.036	3980
3639.712	4080
3641.385	3996
3643.06	3990
3644.732	4026
3646.405	4148
3648.08	4118
3649.751	4005
3651.424	4016
3653.094	4026
3654.766	3949
3656.436	4030
3658.106	4001
3659.777	3952
3661.446	3996
3663.115	3947
3664.783	3980
3666.452	3983
3668.121	3906
3669.788	3952
3671.454	3902
3673.121	3947
3674.789	4007
3676.455	3956
3678.12	3913
3679.784	3908
3681.45	3982
3683.114	4044
3684.779	3967
3686.442	3939
3688.105	3937
3689.768	3890
3691.43	3904
3693.093	3832
3694.754	3935
3696.415	3887
3698.076	3898
3699.736	3940
3701.396	3952
3703.057	3847
3704.716	4003
3706.375	3921
3708.034	3954
3709.692	3868
3711.351	3848
3713.008	3909
3714.665	3803
3716.321	3924
3717.977	3933
3719.634	3810
3721.29	3867
3722.945	3902
3724.598	3799
3726.253	3833
3727.907	3825
3729.561	3851
3731.214	3901
3732.867	3865
3734.518	3789
3736.171	3830
3737.824	3795
3739.474	3863
3741.125	3765
3742.775	3776
3744.425	3737
3746.074	3806
3747.725	3759
3749.373	3760
3751.022	3860
3752.669	3820
3754.318	3866
3755.966	3707
3757.612	3715
3759.259	3831
3760.905	3847
3762.55	3756
3764.197	3792
3765.842	3731
3767.486	3768
3769.131	3678
3770.774	3761
3772.417	3822
3774.061	3806
3775.705	3735
3777.347	3756
3778.988	3729
3780.629	3659
3782.271	3725
3783.912	3684
3785.552	3713
3787.192	3740
3788.831	3655
3790.472	3617
3792.112	3596
3793.75	3599
3795.388	3724
3797.024	3747
3798.661	3677
3800.3	3677
3801.936	3724
3803.572	3732
3805.208	3650
3806.844	3670
3808.48	3697
3810.115	3621
3811.748	3746
3813.382	3600
3815.016	3667
3816.649	3720
3818.283	3629
3819.914	3620
3821.547	3623
3823.178	3625
3824.809	3559
3826.441	3610
3828.072	3599
3829.701	3569
3831.331	3587
3832.96	3623
3834.591	3541
3836.219	3544
3837.847	3609
3839.475	3530
3841.102	3566
3842.729	3501
3844.357	3622
3845.984	3583
3847.609	3582
3849.234	3551
3850.86	3584
3852.485	3552
3854.11	3590
3855.734	3559
3857.357	3524
3858.981	3542
3860.603	3586
3862.227	3562
3863.848	3531
3865.471	3566
3867.092	3529
3868.713	3495
3870.334	3503
3871.954	3470
3873.575	3515
3875.194	3487
3876.813	3517
3878.433	3503
3880.051	3500
3881.669	3557
3883.286	3499
3884.904	3529
3886.52	3448
3888.138	3501
3889.754	3510
3891.37	3489
3892.985	3471
3894.6	3434
3896.216	3461
3897.831	3458
3899.444	3407
3901.058	3375
3902.67	3512
3904.283	3432
3905.897	3387
3907.509	3489
3909.121	3488
3910.731	3416
3912.342	3360
3913.954	3445
3915.563	3439
3917.174	3327
3918.783	3388
3920.391	3454
3922.002	3488
3923.611	3432
3925.218	3484
3926.826	3417
3928.432	3504
3930.039	3485
3931.647	3430
3933.253	3400
3934.859	3377
3936.464	3429
3938.068	3444
3939.675	3486
3941.278	3358
3942.883	3404
3944.486	3427
3946.089	3341
3947.692	3350
3949.295	3390
3950.898	3424
3952.499	3410
3954.1	3300
3955.7	3342
3957.303	3370
3958.903	3312
3960.502	3299
3962.101	3383
3963.7	3370
3965.301	3342
3966.899	3359
3968.497	3282
3970.094	3336
3971.691	3315
3973.288	3329
3974.885	3302
3976.481	3314
3978.077	3315
3979.672	3313
3981.267	3281
3982.863	3305
3984.457	3220
3986.051	3265
3987.645	3276
3989.238	3237
3990.831	3258
3992.425	3262
3994.017	3265
3995.607	3224
3997.199	3322
3998.79	3312
4000.382	3267
4001.973	3328
4003.561	3279
4005.151	3205
4006.741	3259
4008.331	3194
4009.918	3242
4011.507	3235
4013.095	3228
4014.681	3304
4016.269	3181
4017.856	3186
4019.443	3259
4021.028	3186
4022.614	3200
4024.199	3159
4025.785	3235
4027.37	3164
4028.953	3183
4030.536	3128
4032.12	3184
4033.704	3104
4035.287	3085
4036.869	3091
4038.45	3106
4040.032	3154
4041.613	3129
4043.195	3122
4044.776	3106
4046.356	3092
4047.935	3187
4049.515	3010
4051.095	3037
4052.674	3164
4054.251	3139
4055.829	3110
4057.406	3119
4058.985	3120
4060.562	3126
4062.139	3166
4063.715	3094
4065.29	3077
4066.865	3089
4068.442	3061
4070.016	3035
4071.59	3098
4073.164	3103
4074.738	3106
4076.312	3067
4077.885	3105
4079.458	3012
4081.03	3083
4082.602	3103
4084.173	2999
4085.745	2967
4087.315	3124
4088.886	3025
4090.456	2969
4092.026	3084
4093.596	2989
4095.165	3019
4096.734	3044
4098.301	2964
4099.869	3047
4101.437	3034
4103.006	2954
4104.572	3054
4106.139	3005
4107.704	2996
4109.27	3066
4110.837	3006
4112.401	3042
4113.966	2951
4115.53	3006
4117.094	2969
4118.659	3011
4120.223	3045
4121.785	3026
4123.347	2981
4124.909	2987
4126.471	3048
4128.034	2982
4129.595	2949
4131.155	2987
4132.716	2969
4134.275	2935
4135.836	2860
4137.395	2965
4138.955	2941
4140.513	2984
4142.071	2908
4143.628	3014
4145.188	2918
4146.745	2845
4148.302	2903
4149.858	2924
4151.414	2917
4152.971	2880
4154.526	2940
4156.081	2894
4157.635	2883
4159.189	2915
4160.745	2863
4162.298	2885
4163.852	2834
4165.405	2835
4166.957	2857
4168.51	2894
4170.063	2841
4171.614	2856
4173.166	2786
4174.717	2851
4176.267	2864
4177.817	2844
4179.368	2783
4180.917	2890
4182.466	2815
4184.016	2781
4185.564	2753
4187.112	2849
4188.66	2843
4190.207	2847
4191.754	2798
4193.301	2777
4194.848	2762
4196.394	2816
4197.94	2804
4199.484	2814
4201.03	2810
4202.575	2777
4204.12	2748
4205.663	2791
4207.207	2715
4208.75	2768
4210.292	2821
4211.836	2819
4213.378	2796
4214.92	2721
4216.46	2801
4218.002	2756
4219.544	2752
4221.083	2755
4222.625	2714
4224.164	2771
4225.703	2703
4227.244	2772
4228.782	2795
4230.32	2766
4231.857	2720
4233.395	2779
4234.933	2722
4236.471	2786
4238.007	2706
4239.542	2720
4241.078	2744
4242.614	2735
4244.15	2776
4245.685	2721
4247.219	2766
4248.753	2681
4250.287	2676
4251.82	2672
4253.354	2773
4254.887	2665
4256.419	2707
4257.951	2715
4259.483	2686
4261.016	2651
4262.547	2685
4264.078	2697
4265.608	2687
4267.137	2636
4268.668	2715
4270.197	2694
4271.727	2729
4273.254	2648
4274.783	2704
4276.311	2673
4277.84	2626
4279.366	2709
4280.894	2630
4282.42	2685
4283.946	2687
4285.473	2643
4286.998	2679
4288.523	2652
4290.047	2628
4291.572	2641
4293.096	2693
4294.622	2640
4296.144	2625
4297.668	2630
4299.19	2627
4300.713	2594
4302.236	2558
4303.758	2632
4305.279	2612
4306.799	2609
4308.321	2647
4309.842	2604
4311.361	2698
4312.882	2598
4314.401	2574
