400.0961	5128
402.6185	5179
405.1424	5139
407.6635	5218
410.1838	5229
412.7035	5160
415.2225	5185
417.7388	5254
420.2585	5318
422.7754	5359
425.2917	5339
427.8072	5303
430.3221	5519
432.8363	5524
435.3498	5486
437.8626	5593
440.3727	5531
442.8841	5382
445.3969	5528
447.907	5499
450.4142	5571
452.9229	5546
455.4289	5487
457.9362	5485
460.4449	5554
462.9488	5552
465.454	5472
467.9566	5492
470.4604	5481
472.9637	5573
475.4662	5609
477.966	5528
480.4671	5580
482.9656	5597
485.4633	5624
487.9645	5647
490.4608	5606
492.9566	5693
495.4536	5667
497.948	5715
500.4437	5666
502.9387	5707
505.431	5694
507.9226	5667
510.4136	5686
512.9079	5781
515.3975	5709
517.8864	5779
520.3746	5823
522.8622	5881
525.3491	5663
527.8394	5728
530.3249	5805
532.8098	5772
535.2939	5802
537.7774	5850
540.2623	5706
542.7444	5827
545.2259	5800
547.7067	5883
550.1868	5876
552.6683	5864
555.147	5825
557.6231	5891
560.1005	5922
562.5773	5828
565.0534	6057
567.5308	5852
570.0056	5884
572.4776	5893
574.951	5864
577.4237	5973
579.8978	6073
582.3671	5958
584.8378	6054
587.3079	6099
589.7773	5990
592.244	6031
594.714	6040
597.1793	5955
599.6461	6041
602.1121	6080
604.5754	5989
607.0421	6011
609.5042	5967
611.9675	5997
614.4282	6016
616.8902	5942
619.3515	5903
621.8122	6041
624.2702	6048
626.7296	6068
629.1863	5958
631.6423	5957
634.1017	6052
636.5563	5915
639.0104	5989
641.4658	6030
643.9185	6070
646.3725	6112
648.8239	6047
651.2766	6059
653.7266	5901
656.176	6101
658.6247	6140
661.0748	6081
663.5242	6182
665.9709	6164
668.417	6125
670.8624	6160
673.3092	6254
675.7533	6181
678.1968	6201
680.6395	6328
683.0817	6133
685.5251	6230
687.9659	6325
690.4061	6175
692.8456	6199
695.2844	6278
697.7226	6221
700.1621	6263
702.599	6258
705.0332	6371
707.4688	6367
709.9036	6263
712.3399	6564
714.7735	6357
717.2044	6290
719.6367	6391
722.0683	6419
724.4993	6339
726.9296	6477
729.3593	6404
731.7883	6241
734.2147	6577
736.6423	6463
739.0714	6440
741.4958	6443
743.9216	6450
746.3447	6507
748.7691	6600
751.1929	6588
753.616	6584
756.0366	6598
758.4584	6740
760.8776	6700
763.2982	6628
765.718	6696
768.1373	6647
770.5539	6662
772.9698	6725
775.3871	6706
777.8038	6677
780.2178	6710
782.6332	6704
785.0459	6770
787.458	6585
789.8714	6719
792.2842	6574
794.6943	6770
797.1038	6647
799.5127	6611
801.9209	6716
804.3324	6746
806.7393	6786
809.1456	6650
811.5513	6793
813.9562	6698
816.3625	6942
818.7663	6707
821.1693	6841
823.5718	6788
825.9735	6821
828.3746	6856
830.7771	6876
833.177	6860
835.5762	6769
837.9747	6824
840.3727	6835
842.772	6947
845.1666	6975
847.5626	6952
849.958	6908
852.3527	6861
854.7488	7004
857.1403	7037
859.5331	7034
861.9253	6929
864.3168	6946
866.7057	6955
869.098	6938
871.4876	6831
873.8746	6885
876.263	6943
878.6487	6854
881.0378	6874
883.4243	6849
885.8081	7023
888.1933	6967
890.5759	6857
892.9598	6916
895.343	6960
897.7256	7005
900.1057	6887
902.4871	7024
904.8659	6869
907.246	6951
909.6254	7036
912.0023	6986
914.3786	7093
916.7562	7128
919.1331	7157
921.5074	7105
923.8831	7359
926.2562	7398
928.6287	7393
931.0005	7190
933.3757	7326
935.7462	7284
938.1162	7269
940.4855	7409
942.8542	7278
945.2242	7550
947.5916	7372
949.9584	7621
952.3266	7648
954.6921	7853
957.0571	7979
959.4233	8006
961.787	8150
964.15	8182
966.5125	8022
968.8742	7909
971.2354	7705
973.5959	7624
975.9559	7418
978.3151	7468
980.6738	7371
983.0338	7320
985.3912	7223
987.7461	7262
990.1022	7288
992.4578	7218
994.8127	7084
997.1689	7143
999.5207	7230
1001.874	7199
1004.226	7189
1006.576	7083
1008.929	7145
1011.28	7263
1013.628	7313
1015.977	7182
1018.324	7259
1020.674	7255
1023.019	7223
1025.366	7145
1027.713	7230
1030.056	7147
1032.399	7214
1034.746	7260
1037.087	7274
1039.431	7209
1041.771	7282
1044.113	7286
1046.454	7288
1048.793	7323
1051.133	7315
1053.471	7397
1055.807	7312
1058.146	7279
1060.483	7360
1062.818	7384
1065.153	7350
1067.489	7368
1069.822	7413
1072.156	7275
1074.488	7331
1076.82	7423
1079.15	7518
1081.48	7286
1083.814	7422
1086.143	7332
1088.471	7302
1090.799	7321
1093.126	7338
1095.452	7302
1097.78	7309
1100.105	7280
1102.43	7300
1104.754	7395
1107.077	7404
1109.4	7444
1111.722	7316
1114.044	7441
1116.365	7482
1118.685	7381
1121.005	7446
1123.324	7371
1125.643	7422
1127.961	7514
1130.278	7410
1132.595	7373
1134.911	7456
1137.226	7524
1139.541	7448
1141.854	7366
1144.167	7493
1146.482	7433
1148.793	7395
1151.105	7447
1153.414	7447
1155.725	7362
1158.033	7434
1160.344	7402
1162.651	7400
1164.959	7525
1167.265	7421
1169.572	7373
1171.878	7411
1174.184	7381
1176.488	7400
1178.79	7563
1181.094	7542
1183.396	7558
1185.699	7496
1188.001	7334
1190.301	7363
1192.6	7322
1194.9	7561
1197.2	7486
1199.497	7494
1201.794	7393
1204.09	7529
1206.387	7528
1208.684	7289
1210.978	7542
1213.272	7561
1215.565	7534
1217.858	7491
1220.15	7525
1222.443	7422
1224.734	7451
1227.024	7494
1229.313	7428
1231.602	7553
1233.892	7648
1236.18	7613
1238.467	7689
1240.754	7689
1243.04	7743
1245.325	7769
1247.612	7620
1249.896	7815
1252.178	7858
1254.461	7783
1256.743	7809
1259.027	7681
1261.308	7798
1263.587	7705
1265.867	7733
1268.146	7896
1270.425	7771
1272.703	7830
1274.981	7738
1277.256	7650
1279.532	7760
1281.808	7722
1284.083	7644
1286.358	7608
1288.63	7676
1290.904	7680
1293.175	7767
1295.449	7569
1297.719	7681
1299.99	7554
1302.259	7532
1304.529	7598
1306.798	7714
1309.065	7722
1311.333	7704
1313.599	7630
1315.866	7745
1318.131	7682
1320.396	7701
1322.66	7575
1324.925	7624
1327.187	7721
1329.448	7750
1331.711	7802
1333.974	7830
1336.234	7607
1338.493	7659
1340.752	7673
1343.01	7555
1345.269	7701
1347.526	7519
1349.784	7706
1352.04	7691
1354.295	7538
1356.552	7652
1358.806	7569
1361.059	7733
1363.312	7689
1365.564	7628
1367.818	7737
1370.069	7675
1372.318	7682
1374.568	7495
1376.817	7687
1379.066	7821
1381.316	7739
1383.564	7846
1385.809	7712
1388.056	7808
1390.301	7933
1392.549	7875
1394.793	7919
1397.036	7850
1399.279	8026
1401.522	8102
1403.763	8063
1406.007	8031
1408.248	7910
1410.487	8078
1412.727	8034
1414.965	7885
1417.205	8013
1419.442	8038
1421.68	7848
1423.915	7889
1426.152	7879
1428.388	7857
1430.623	7898
1432.857	7921
1435.091	7929
1437.323	7941
1439.556	7975
1441.789	7996
1444.019	8109
1446.25	8030
1448.48	7980
1450.708	8036
1452.938	8220
1455.167	8023
1457.394	8019
1459.62	8075
1461.846	8025
1464.073	8119
1466.299	8047
1468.523	8006
1470.746	7956
1472.969	7844
1475.191	7906
1477.415	7865
1479.636	7787
1481.858	7760
1484.078	7825
1486.298	7811
1488.518	7641
1490.736	7729
1492.954	7691
1495.169	7635
1497.386	7678
1499.602	7711
1501.819	7617
1504.034	7626
1506.248	7564
1508.462	7658
1510.675	7717
1512.888	7612
1515.1	7704
1517.311	7586
1519.522	7638
1521.732	7753
1523.942	7667
1526.151	7685
1528.36	7609
1530.566	7648
1532.773	7794
1534.98	7839
1537.187	7586
1539.392	7663
1541.596	7689
1543.801	7548
1546.005	7651
1548.208	7709
1550.411	7737
1552.612	7837
1554.814	7774
1557.013	7811
1559.212	7766
1561.414	7834
1563.612	7775
1565.811	7830
1568.007	7825
1570.203	7889
1572.403	7848
1574.598	7915
1576.792	7967
1578.988	7841
1581.181	7913
1583.376	7864
1585.568	7883
1587.761	7884
1589.952	7981
1592.143	8017
1594.333	7923
1596.524	7940
1598.715	7917
1600.903	7912
1603.091	7996
1605.278	7953
1607.466	7886
1609.652	7939
1611.838	7902
1614.023	7996
1616.207	8090
1618.391	7995
1620.576	8011
1622.759	7930
1624.941	7979
1627.123	7921
1629.304	8047
1631.484	7898
1633.664	8061
1635.844	7970
1638.022	7925
1640.201	7901
1642.38	8042
1644.556	8045
1646.732	8131
1648.908	7928
1651.084	7927
1653.257	7960
1655.433	8010
1657.607	8026
1659.779	8100
1661.951	8205
1664.122	7999
1666.295	7942
1668.467	7966
1670.635	8001
1672.805	8090
1674.973	8117
1677.142	8061
1679.31	8198
1681.478	8149
1683.644	7977
1685.81	7992
1687.975	8007
1690.142	8041
1692.305	8153
1694.468	8021
1696.632	7944
1698.794	7915
1700.957	8053
1703.119	7980
1705.279	7922
1707.439	7896
1709.598	7949
1711.758	7985
1713.917	7986
1716.075	7867
1718.231	7894
1720.388	7948
1722.543	7935
1724.702	7977
1726.856	7923
1729.01	7877
1731.164	7918
1733.317	7979
1735.471	7990
1737.623	7924
1739.774	7898
1741.925	7848
1744.075	7982
1746.225	7904
1748.376	7937
1750.524	7946
1752.672	7842
1754.82	7949
1756.965	8004
1759.113	7912
1761.259	8000
1763.405	8035
1765.549	7904
1767.694	7958
1769.836	8005
1771.981	7946
1774.123	7862
1776.264	7929
1778.405	7964
1780.546	7976
1782.687	8049
1784.827	8101
1786.966	7904
1789.103	7936
1791.242	8002
1793.381	7940
1795.517	8071
1797.653	7938
1799.788	8046
1801.923	8005
1804.057	8108
1806.193	7917
1808.326	8114
1810.457	8006
1812.59	8031
1814.721	8047
1816.855	7966
1818.984	8037
1821.113	7932
1823.244	7868
1825.372	8016
1827.499	8040
1829.63	8070
1831.756	8062
1833.882	7966
1836.007	7956
1838.132	7939
1840.26	8072
1842.384	8013
1844.507	8069
1846.63	7924
1848.752	7849
1850.875	7960
1852.996	7913
1855.118	7826
1857.238	7836
1859.358	7845
1861.477	7846
1863.597	8043
1865.715	7950
1867.832	7937
1869.948	7905
1872.064	7854
1874.181	7927
1876.297	7911
1878.411	7977
1880.526	8016
1882.639	7935
1884.752	7953
1886.865	7971
1888.977	8101
1891.089	7891
1893.2	7946
1895.308	7855
1897.42	7898
1899.53	7981
1901.639	7869
1903.745	7939
1905.853	7954
1907.962	8005
1910.067	7879
1912.174	7995
1914.278	8005
1916.383	7920
1918.486	7990
1920.592	7984
1922.694	8000
1924.797	7837
1926.898	8101
1929	8044
1931.102	8042
1933.203	7931
1935.301	8033
1937.401	8063
1939.499	8108
1941.598	7971
1943.697	8000
1945.793	7996
1947.888	8015
1949.985	8028
1952.08	7897
1954.176	8111
1956.269	8006
1958.364	8058
1960.457	7993
1962.549	8034
1964.642	8027
1966.733	7968
1968.823	7998
1970.913	7948
1973.005	8020
1975.093	7886
1977.184	7899
1979.271	7893
1981.359	7979
1983.446	7999
1985.532	7903
1987.619	8067
1989.705	7890
1991.789	7986
1993.874	7953
1995.956	7895
1998.041	8072
2000.123	7866
2002.206	8016
2004.287	7865
2006.368	7908
2008.449	7966
2010.529	7924
2012.609	8005
2014.688	7795
2016.766	7905
2018.843	7937
2020.922	7771
2022.999	7977
2025.074	7997
2027.15	7983
2029.225	7859
2031.299	7950
2033.375	7850
2035.447	7926
2037.52	7976
2039.592	7912
2041.664	7986
2043.736	7918
2045.807	7864
2047.876	7915
2049.947	7909
2052.015	8000
2054.086	8025
2056.153	8035
2058.221	7828
2060.288	7998
2062.353	7930
2064.42	7890
2066.486	7932
2068.55	7922
2070.614	7986
2072.678	7955
2074.741	7857
2076.805	8047
2078.866	7821
2080.929	7966
2082.99	7823
2085.049	7924
2087.109	7901
2089.17	7980
2091.228	7871
2093.286	8100
2095.344	7922
2097.4	7883
2099.46	8040
2101.516	7842
2103.572	7935
2105.626	7952
2107.679	7919
2109.735	7980
2111.788	7982
2113.841	7871
2115.894	7884
2117.945	7875
2119.997	7879
2122.049	7882
2124.1	7914
2126.148	7880
2128.197	7906
2130.246	7872
2132.296	7761
2134.342	7966
2136.39	8033
2138.437	7870
2140.483	7878
2142.527	7920
2144.574	7844
2146.619	7703
2148.661	7848
2150.705	7824
2152.747	7770
2154.792	7857
2156.832	7820
2158.874	7971
2160.915	7734
2162.954	7765
2164.995	7816
2167.034	7824
2169.072	7679
2171.111	7856
2173.148	7775
2175.186	7861
2177.223	7629
2179.258	7676
2181.294	7883
2183.328	7805
2185.362	7793
2187.398	7666
2189.431	7697
2191.463	7707
2193.495	7710
2195.528	7732
2197.56	7640
2199.59	7585
2201.62	7707
2203.649	7611
2205.678	7675
2207.708	7785
2209.737	7654
2211.764	7778
2213.791	7650
2215.817	7634
2217.843	7562
2219.87	7655
2221.895	7682
2223.919	7665
2225.942	7722
2227.966	7664
2229.988	7611
2232.012	7703
2234.032	7771
2236.054	7683
2238.074	7653
2240.095	7636
2242.116	7683
2244.135	7604
2246.153	7647
2248.171	7662
2250.188	7700
2252.208	7604
2254.223	7714
2256.239	7676
2258.255	7658
2260.269	7619
2262.283	7720
2264.3	7695
2266.312	7620
2268.325	7792
2270.336	7690
2272.349	7708
2274.362	7677
2276.372	7663
2278.383	7671
2280.392	7757
2282.402	7615
2284.409	7634
2286.418	7711
2288.427	7891
2290.433	7509
2292.441	7683
2294.446	7516
2296.453	7623
2298.459	7667
2300.463	7674
2302.466	7639
2304.471	7550
2306.475	7613
2308.477	7564
2310.478	7554
2312.481	7662
2314.481	7556
2316.481	7555
2318.482	7493
2320.482	7621
2322.48	7618
2324.48	7436
2326.478	7545
2328.476	7505
2330.473	7640
2332.469	7542
2334.465	7528
2336.46	7489
2338.454	7592
2340.45	7361
2342.444	7514
2344.437	7581
2346.43	7443
2348.421	7568
2350.414	7580
2352.405	7321
2354.396	7438
2356.386	7444
2358.376	7556
2360.366	7622
2362.355	7431
2364.343	7469
2366.331	7345
2368.317	7398
2370.304	7318
2372.292	7281
2374.278	7407
2376.262	7317
2378.247	7354
2380.23	7261
2382.216	7551
2384.199	7346
2386.181	7357
2388.163	7426
2390.144	7393
2392.127	7476
2394.107	7241
2396.087	7284
2398.066	7304
2400.046	7435
2402.023	7491
2404.004	7220
2405.981	7409
2407.957	7365
2409.934	7314
2411.91	7250
2413.886	7386
2415.862	7211
2417.836	7235
2419.809	7425
2421.784	7342
2423.756	7201
2425.73	7305
2427.701	7269
2429.672	7235
2431.644	7347
2433.615	7271
2435.586	7234
2437.555	7299
2439.523	7395
2441.491	7304
2443.459	7383
2445.428	7358
2447.395	7261
2449.361	7436
2451.327	7311
2453.292	7302
2455.257	7308
2457.223	7230
2459.187	7234
2461.15	7185
2463.113	7220
2465.076	7207
2467.039	7205
2468.999	7368
2470.96	7240
2472.921	7239
2474.881	7379
2476.841	7159
2478.8	7210
2480.759	7378
2482.717	7325
2484.675	7190
2486.63	7194
2488.589	7201
2490.545	7271
2492.5	7099
2494.455	7173
2496.408	7146
2498.364	7190
2500.318	7113
2502.27	7102
2504.223	7174
2506.174	7244
2508.126	7173
2510.078	7122
2512.03	7244
2513.979	7167
2515.927	7181
2517.877	7147
2519.826	7209
2521.775	7120
2523.722	7134
2525.668	7208
2527.616	7136
2529.561	7206
2531.508	7009
2533.452	7175
2535.398	7138
2537.342	7181
2539.284	7048
2541.229	7276
2543.173	7211
2545.114	7105
2547.055	7151
2548.996	7116
2550.938	7043
2552.878	7070
2554.817	7071
2556.756	7077
2558.695	7204
2560.633	6994
2562.572	7219
2564.509	7191
2566.445	7136
2568.382	7188
2570.317	7131
2572.254	7053
2574.189	7181
2576.123	7059
2578.057	7131
2579.99	7153
2581.923	7067
2583.855	7114
2585.788	7120
2587.719	7044
2589.65	7094
2591.579	7031
2593.511	7083
2595.44	7116
2597.37	7075
2599.297	7160
2601.225	7138
2603.153	7040
2605.08	7095
2607.007	7125
2608.932	7016
2610.858	7133
2612.782	7206
2614.709	7214
2616.632	7155
2618.556	7102
2620.478	7119
2622.401	7109
2624.324	7109
2626.247	7128
2628.167	7097
2630.088	7185
2632.008	7146
2633.928	7205
2635.848	7010
2637.766	7188
2639.684	7131
2641.603	7130
2643.519	7122
2645.437	7206
2647.353	7002
2649.27	7064
2651.184	7156
2653.099	7166
2655.014	7019
2656.928	7110
2658.842	7072
2660.755	6907
2662.667	7074
2664.579	7168
2666.491	7075
2668.402	7069
2670.312	7075
2672.222	7075
2674.132	6976
2676.042	7059
2677.951	7224
2679.859	6990
2681.766	7044
2683.674	6926
2685.582	7105
2687.488	7035
2689.392	6956
2691.298	6976
2693.202	6973
2695.107	7065
2697.012	7017
2698.914	6895
2700.817	7013
2702.72	6915
2704.622	6963
2706.524	7038
2708.425	6882
2710.326	6971
2712.225	7094
2714.125	6899
2716.024	6860
2717.923	6883
2719.822	6969
2721.719	6872
2723.616	6959
2725.512	7042
2727.41	6974
2729.305	6956
2731.201	6916
2733.095	6881
2734.99	7041
2736.884	7035
2738.778	6890
2740.67	6911
2742.562	6992
2744.455	7007
2746.346	6895
2748.238	6933
2750.129	6996
2752.018	6876
2753.907	6910
2755.797	6863
2757.687	6886
2759.575	6804
2761.462	6738
2763.349	6819
2765.237	6870
2767.124	6938
2769.009	6970
2770.894	6844
2772.779	6732
2774.663	6820
2776.547	6790
2778.431	6932
2780.314	6757
2782.197	6898
2784.078	6870
2785.96	6855
2787.842	6793
2789.723	6891
2791.603	6783
2793.483	6797
2795.362	6807
2797.241	6802
2799.121	6799
2800.997	6797
2802.874	6747
2804.751	6777
2806.628	6682
2808.506	6871
2810.38	6764
2812.255	6731
2814.13	6799
2816.003	6806
2817.878	6697
2819.752	6794
2821.623	6785
2823.496	6683
2825.368	6825
2827.238	6677
2829.111	6799
2830.98	6771
2832.851	6735
2834.719	6782
2836.589	6788
2838.458	6763
2840.327	6653
2842.193	6729
2844.061	6828
2845.927	6834
2847.794	6884
2849.66	6777
2851.525	6787
2853.39	6833
2855.254	6912
2857.117	6868
2858.983	6889
2860.845	6816
2862.707	6954
2864.569	7013
2866.431	7012
2868.293	7021
2870.154	6895
2872.013	7036
2873.873	6996
2875.733	7120
2877.592	7139
2879.451	7190
2881.309	7285
2883.166	7251
2885.022	7280
2886.879	7439
2888.736	7320
2890.591	7413
2892.446	7378
2894.301	7479
2896.155	7346
2898.009	7448
2899.863	7391
2901.716	7309
2903.568	7407
2905.419	7296
2907.27	7397
2909.123	7231
2910.973	7258
2912.824	7353
2914.673	7406
2916.521	7414
2918.372	7460
2920.22	7401
2922.067	7542
2923.914	7630
2925.761	7653
2927.607	7649
2929.455	7720
2931.301	7782
2933.144	7794
2934.99	7860
2936.833	7953
2938.678	8000
2940.522	7834
2942.364	8000
2944.207	8067
2946.048	8123
2947.891	8292
2949.731	8225
2951.571	8171
2953.412	8299
2955.25	8166
2957.09	8054
2958.93	8056
2960.767	8148
2962.606	7960
2964.443	7936
2966.279	7896
2968.116	7769
2969.953	7643
2971.788	7517
2973.623	7543
2975.457	7509
2977.292	7370
2979.127	7388
2980.959	7362
2982.792	7338
2984.624	7161
2986.455	7261
2988.288	7127
2990.119	7144
2991.949	7037
2993.779	6999
2995.608	7055
2997.439	6957
2999.268	7037
3001.096	6863
3002.923	6951
3004.751	6712
3006.578	6778
3008.406	6812
3010.232	6675
3012.057	6827
3013.883	6711
3015.706	6559
3017.532	6654
3019.356	6573
3021.179	6534
3023.002	6583
3024.823	6535
3026.646	6541
3028.469	6475
3030.289	6453
3032.11	6397
3033.93	6412
3035.749	6414
3037.57	6374
3039.39	6399
3041.207	6286
3043.026	6425
3044.842	6513
3046.661	6426
3048.477	6438
3050.294	6441
3052.109	6508
3053.925	6341
3055.739	6301
3057.555	6329
3059.368	6304
3061.181	6355
3062.995	6325
3064.807	6341
3066.62	6389
3068.433	6510
3070.243	6335
3072.054	6280
3073.865	6347
3075.675	6301
3077.485	6351
3079.293	6308
3081.102	6203
3082.911	6271
3084.719	6232
3086.527	6194
3088.333	6173
3090.139	6144
3091.945	6227
3093.75	6212
3095.557	6087
3097.361	6121
3099.165	6190
3100.969	6144
3102.772	6046
3104.575	6178
3106.379	6136
3108.181	6132
3109.982	6069
3111.783	6092
3113.584	6106
3115.386	6025
3117.186	6089
3118.985	6026
3120.783	6080
3122.582	6073
3124.381	6034
3126.179	6046
3127.975	6124
3129.772	6023
3131.569	6133
3133.365	5974
3135.161	6097
3136.956	6015
3138.751	6028
3140.544	5927
3142.338	6031
3144.132	5915
3145.925	6021
3147.717	6006
3149.509	6054
3151.301	5926
3153.091	6024
3154.884	5921
3156.673	5913
3158.462	5933
3160.252	5934
3162.041	6028
3163.831	5893
3165.618	5974
3167.405	5996
3169.193	5944
3170.979	5927
3172.767	5950
3174.553	6008
3176.338	5996
3178.123	5955
3179.907	5847
3181.692	5875
3183.477	5955
3185.259	5985
3187.042	5910
3188.824	5890
3190.607	5902
3192.389	5825
3194.17	5792
3195.951	5837
3197.73	5904
3199.51	5731
3201.289	5976
3203.07	5828
3204.848	5814
3206.626	5888
3208.403	5863
3210.18	5803
3211.959	5758
3213.735	6032
3215.511	5889
3217.285	5875
3219.06	5871
3220.836	5832
3222.611	5772
3224.384	5835
3226.158	5876
3227.929	5880
3229.702	5877
3231.476	5780
3233.248	5815
3235.018	5840
3236.789	5736
3238.56	5849
3240.33	5881
3242.1	5761
3243.869	5835
3245.637	5771
3247.405	5784
3249.172	5880
3250.941	5820
3252.707	5811
3254.474	5805
3256.24	5785
3258.006	5746
3259.772	5856
3261.537	5774
3263.301	5843
3265.065	5852
3266.828	5833
3268.592	5732
3270.355	5834
3272.117	5744
3273.878	5720
3275.64	5842
3277.401	5803
3279.162	5741
3280.922	5715
3282.682	5671
3284.441	5872
3286.199	5857
3287.959	5773
3289.716	5630
3291.475	5783
3293.232	5744
3294.988	5803
3296.744	5883
3298.501	5770
3300.256	5770
3302.011	5859
3303.766	5845
3305.52	5725
3307.275	5750
3309.028	5706
3310.781	5686
3312.533	5779
3314.285	5886
3316.038	5731
3317.789	5695
3319.54	5722
3321.289	5645
3323.039	5668
3324.789	5640
3326.539	5672
3328.288	5600
3330.035	5812
3331.783	5719
3333.531	5670
3335.28	5696
3337.025	5562
3338.771	5833
3340.518	5641
3342.262	5661
3344.009	5716
3345.753	5636
3347.497	5550
3349.24	5605
3350.983	5608
3352.726	5613
3354.469	5632
3356.212	5600
3357.952	5514
3359.694	5618
3361.434	5556
3363.176	5661
3364.916	5648
3366.654	5569
3368.394	5542
3370.132	5529
3371.871	5601
3373.61	5552
3375.346	5541
3377.083	5530
3378.82	5554
3380.556	5630
3382.292	5622
3384.027	5478
3385.763	5461
3387.497	5606
3389.231	5443
3390.965	5476
3392.698	5524
3394.431	5564
3396.164	5529
3397.896	5426
3399.627	5610
3401.36	5408
3403.09	5498
3404.82	5478
3406.55	5456
3408.279	5408
3410.01	5447
3411.738	5511
3413.467	5431
3415.194	5462
3416.92	5396
3418.647	5391
3420.375	5389
3422.102	5366
3423.827	5378
3425.553	5449
3427.277	5412
3429.003	5354
3430.727	5373
3432.451	5405
3434.173	5332
3435.896	5342
3437.62	5351
3439.343	5355
3441.063	5383
3442.785	5293
3444.505	5400
3446.226	5295
3447.948	5282
3449.666	5242
3451.386	5336
3453.104	5263
3454.823	5366
3456.541	5268
3458.259	5274
3459.976	5370
3461.693	5174
3463.408	5161
3465.125	5307
3466.841	5226
3468.556	5264
3470.271	5286
3471.985	5234
3473.698	5166
3475.414	5246
3477.126	5194
3478.838	5141
3480.55	5144
3482.263	5167
3483.975	5190
3485.686	5248
3487.396	5130
3489.106	5028
3490.817	5143
3492.526	5190
3494.236	5103
3495.944	5072
3497.652	5111
3499.359	5053
3501.066	4994
3502.775	5219
3504.481	5179
3506.187	5144
3507.893	5111
3509.598	5042
3511.304	5151
3513.009	5124
3514.713	5052
3516.417	4928
3518.12	5081
3519.821	5099
3521.525	5059
3523.228	4967
3524.929	5004
3526.631	4939
3528.33	4959
3530.032	5076
3531.733	4915
3533.433	4980
3535.131	5073
3536.83	5017
3538.529	4927
3540.227	5017
3541.925	4929
3543.623	4946
3545.319	4976
3547.016	4941
3548.712	4931
3550.408	4958
3552.103	4969
3553.798	4963
3555.491	4913
3557.188	4924
3558.88	4880
3560.574	4860
3562.266	4822
3563.959	4878
3565.651	4895
3567.343	4805
3569.035	4914
3570.725	4861
3572.415	4800
3574.106	4825
3575.797	4913
3577.485	4915
3579.174	4863
3580.863	4846
3582.551	4679
3584.238	4739
3585.926	4853
3587.613	4866
3589.3	4710
3590.986	4778
3592.671	4728
3594.357	4813
3596.042	4686
3597.726	4758
3599.41	4784
3601.094	4710
3602.778	4781
3604.461	4712
3606.143	4693
3607.825	4715
3609.507	4662
3611.188	4685
3612.87	4815
3614.551	4601
3616.229	4629
3617.909	4669
3619.589	4711
3621.269	4616
3622.948	4625
3624.625	4660
3626.302	4589
3627.98	4577
3629.657	4627
3631.334	4663
3633.01	4586
3634.686	4678
3636.361	4565
3638.036	4616
3639.712	4604
3641.385	4616
3643.06	4628
3644.732	4595
3646.405	4561
3648.08	4494
3649.751	4614
3651.424	4597
3653.094	4503
3654.766	4576
3656.436	4553
3658.106	4543
3659.777	4498
3661.446	4524
3663.115	4489
3664.783	4445
3666.452	4561
3668.121	4481
3669.788	4590
3671.454	4378
3673.121	4485
3674.789	4544
3676.455	4459
3678.12	4460
3679.784	4466
3681.45	4524
3683.114	4348
3684.779	4383
3686.442	4502
3688.105	4397
3689.768	4461
3691.43	4539
3693.093	4455
3694.754	4401
3696.415	4424
3698.076	4456
3699.736	4426
3701.396	4415
3703.057	4462
3704.716	4464
3706.375	4413
3708.034	4465
3709.692	4443
3711.351	4464
3713.008	4418
3714.665	4434
3716.321	4375
3717.977	4397
3719.634	4326
3721.29	4280
3722.945	4281
3724.598	4382
3726.253	4362
3727.907	4328
3729.561	4345
3731.214	4386
3732.867	4351
3734.518	4303
3736.171	4394
3737.824	4354
3739.474	4306
3741.125	4271
3742.775	4409
3744.425	4336
3746.074	4311
3747.725	4336
3749.373	4431
3751.022	4182
3752.669	4325
3754.318	4249
3755.966	4304
3757.612	4306
3759.259	4266
3760.905	4296
3762.55	4264
3764.197	4305
3765.842	4223
3767.486	4329
3769.131	4232
3770.774	4280
3772.417	4240
3774.061	4205
3775.705	4205
3777.347	4147
3778.988	4257
3780.629	4196
3782.271	4156
3783.912	4230
3785.552	4187
3787.192	4203
3788.831	4213
3790.472	4127
3792.112	4106
3793.75	4148
3795.388	4184
3797.024	4150
3798.661	4076
3800.3	4142
3801.936	4113
3803.572	4197
3805.208	4157
3806.844	4170
3808.48	4187
3810.115	4074
3811.748	4130
3813.382	4181
3815.016	4055
3816.649	4178
3818.283	4122
3819.914	4105
3821.547	4077
3823.178	4141
3824.809	4061
3826.441	4118
3828.072	4060
3829.701	4064
3831.331	4087
3832.96	4040
3834.591	4015
3836.219	4078
3837.847	3993
3839.475	4043
3841.102	4014
3842.729	4086
3844.357	4096
3845.984	4107
3847.609	4010
3849.234	4045
3850.86	4075
3852.485	4052
3854.11	4014
3855.734	3971
3857.357	4019
3858.981	3916
3860.603	3975
3862.227	4027
3863.848	3987
3865.471	4013
3867.092	4004
3868.713	3904
3870.334	3935
3871.954	3964
3873.575	4006
3875.194	4023
3876.813	3932
3878.433	3948
3880.051	4004
3881.669	3937
3883.286	3952
3884.904	3987
3886.52	3913
3888.138	3909
3889.754	3946
3891.37	3886
3892.985	3875
3894.6	3895
3896.216	3973
3897.831	3830
3899.444	3882
3901.058	3874
3902.67	3874
3904.283	3898
3905.897	3914
3907.509	3833
3909.121	3948
3910.731	3897
3912.342	3930
3913.954	3893
3915.563	3861
3917.174	3866
3918.783	3847
3920.391	3923
3922.002	3864
3923.611	3849
3925.218	3804
3926.826	3831
3928.432	3863
3930.039	3802
3931.647	3818
3933.253	3927
3934.859	3839
3936.464	3867
3938.068	3808
3939.675	3874
3941.278	3863
3942.883	3827
3944.486	3821
3946.089	3853
3947.692	3866
3949.295	3765
3950.898	3789
3952.499	3874
3954.1	3823
3955.7	3717
3957.303	3813
3958.903	3833
3960.502	3778
3962.101	3753
3963.7	3846
3965.301	3775
3966.899	3842
3968.497	3846
3970.094	3672
3971.691	3774
3973.288	3762
3974.885	3745
3976.481	3699
3978.077	3740
3979.672	3742
3981.267	3685
3982.863	3741
3984.457	3692
3986.051	3677
3987.645	3660
3989.238	3691
3990.831	3704
3992.425	3692
3994.017	3694
3995.607	3631
3997.199	3695
3998.79	3715
4000.382	3650
4001.973	3721
4003.561	3703
4005.151	3708
4006.741	3559
4008.331	3676
4009.918	3644
4011.507	3665
4013.095	3610
4014.681	3650
4016.269	3663
4017.856	3606
4019.443	3499
4021.028	3610
4022.614	3551
4024.199	3658
4025.785	3586
4027.37	3526
4028.953	3579
4030.536	3573
4032.12	3591
4033.704	3604
4035.287	3561
4036.869	3557
4038.45	3541
4040.032	3485
4041.613	3555
4043.195	3539
4044.776	3573
4046.356	3521
4047.935	3495
4049.515	3478
4051.095	3511
4052.674	3518
4054.251	3488
4055.829	3462
4057.406	3505
4058.985	3530
4060.562	3524
4062.139	3429
4063.715	3437
4065.29	3494
4066.865	3568
4068.442	3500
4070.016	3505
4071.59	3457
4073.164	3420
4074.738	3407
4076.312	3492
4077.885	3458
4079.458	3488
4081.03	3470
4082.602	3504
4084.173	3468
4085.745	3462
4087.315	3418
4088.886	3429
4090.456	3462
4092.026	3529
4093.596	3432
4095.165	3432
4096.734	3390
4098.301	3397
4099.869	3431
4101.437	3481
4103.006	3368
4104.572	3408
4106.139	3404
4107.704	3408
4109.27	3522
4110.837	3345
4112.401	3323
4113.966	3415
4115.53	3426
4117.094	3366
4118.659	3306
4120.223	3352
4121.785	3351
4123.347	3337
4124.909	3326
4126.471	3314
4128.034	3381
4129.595	3400
4131.155	3219
4132.716	3298
4134.275	3303
4135.836	3338
4137.395	3279
4138.955	3380
4140.513	3298
4142.071	3266
4143.628	3337
4145.188	3318
4146.745	3300
4148.302	3359
4149.858	3243
4151.414	3292
4152.971	3360
4154.526	3231
4156.081	3235
4157.635	3281
4159.189	3205
4160.745	3225
4162.298	3142
4163.852	3266
4165.405	3153
4166.957	3280
4168.51	3188
4170.063	3185
4171.614	3227
4173.166	3199
4174.717	3250
4176.267	3248
4177.817	3190
4179.368	3219
4180.917	3197
4182.466	3150
4184.016	3261
4185.564	3183
4187.112	3245
4188.66	3313
4190.207	3133
4191.754	3123
4193.301	3166
4194.848	3160
4196.394	3183
4197.94	3170
4199.484	3211
4201.03	3176
4202.575	3135
4204.12	3125
4205.663	3165
4207.207	3139
4208.75	3150
4210.292	3126
4211.836	3108
4213.378	3169
4214.92	3051
4216.46	3133
4218.002	3166
4219.544	2952
4221.083	3138
4222.625	3147
4224.164	3177
4225.703	3107
4227.244	3147
4228.782	3063
4230.32	3152
4231.857	3014
4233.395	3060
4234.933	3110
4236.471	3045
4238.007	3103
4239.542	3082
4241.078	3104
4242.614	3020
4244.15	3155
4245.685	3139
4247.219	3078
4248.753	3023
4250.287	2980
4251.82	3095
4253.354	3110
4254.887	3048
4256.419	2989
4257.951	3071
4259.483	3001
4261.016	2961
4262.547	3055
4264.078	3077
4265.608	3025
4267.137	3062
4268.668	3051
4270.197	3044
4271.727	3056
4273.254	3030
4274.783	2946
4276.311	3072
4277.84	3029
4279.366	3004
4280.894	3041
4282.42	3007
4283.946	2976
4285.473	3031
4286.998	2937
4288.523	2954
4290.047	3009
4291.572	2950
4293.096	2983
4294.622	2916
4296.144	2991
4297.668	3010
4299.19	3021
4300.713	3000
4302.236	2889
4303.758	2938
4305.279	2906
4306.799	2965
4308.321	2973
4309.842	3007
4311.361	2938
4312.882	2916
4314.401	2849
