400.0961	8113
402.6185	8232
405.1424	8245
407.6635	8186
410.1838	8214
412.7035	8119
415.2225	8243
417.7388	8135
420.2585	8297
422.7754	8368
425.2917	8473
427.8072	8433
430.3221	8525
432.8363	8409
435.3498	8594
437.8626	8629
440.3727	8614
442.8841	8770
445.3969	8704
447.907	8631
450.4142	8667
452.9229	8695
455.4289	8653
457.9362	8697
460.4449	8615
462.9488	8733
465.454	8818
467.9566	8771
470.4604	8930
472.9637	8632
475.4662	8867
477.966	8791
480.4671	8672
482.9656	8833
485.4633	8949
487.9645	8842
490.4608	8965
492.9566	8987
495.4536	8912
497.948	9078
500.4437	9053
502.9387	9010
505.431	9022
507.9226	9068
510.4136	9150
512.9079	9002
515.3975	9211
517.8864	9129
520.3746	9170
522.8622	9067
525.3491	9267
527.8394	9184
530.3249	9200
532.8098	9188
535.2939	9277
537.7774	9206
540.2623	9309
542.7444	9183
545.2259	9196
547.7067	9188
550.1868	9217
552.6683	9161
555.147	9237
557.6231	9240
560.1005	9304
562.5773	9370
565.0534	9320
567.5308	9383
570.0056	9339
572.4776	9375
574.951	9470
577.4237	9511
579.8978	9395
582.3671	9509
584.8378	9482
587.3079	9432
589.7773	9513
592.244	9730
594.714	9649
597.1793	9605
599.6461	9530
602.1121	9591
604.5754	9498
607.0421	9462
609.5042	9634
611.9675	9617
614.4282	9547
616.8902	9432
619.3515	9567
621.8122	9432
624.2702	9496
626.7296	9659
629.1863	9578
631.6423	9645
634.1017	9615
636.5563	9628
639.0104	9470
641.4658	9645
643.9185	9563
646.3725	9718
648.8239	9792
651.2766	9633
653.7266	9644
656.176	9829
658.6247	9831
661.0748	9675
663.5242	9737
665.9709	9812
668.417	9800
670.8624	9762
673.3092	9946
675.7533	9801
678.1968	10010
680.6395	9927
683.0817	9884
685.5251	9806
687.9659	9967
690.4061	10039
692.8456	10006
695.2844	9998
697.7226	9945
700.1621	9952
702.599	10040
705.0332	10003
707.4688	10122
709.9036	9929
712.3399	10154
714.7735	10184
717.2044	10002
719.6367	10150
722.0683	10178
724.4993	10341
726.9296	10306
729.3593	10267
731.7883	10346
734.2147	10329
736.6423	10415
739.0714	10334
741.4958	10339
743.9216	10395
746.3447	10406
748.7691	10453
751.1929	10614
753.616	10493
756.0366	10593
758.4584	10693
760.8776	10564
763.2982	10779
765.718	10664
768.1373	10745
770.5539	10568
772.9698	10662
775.3871	10572
777.8038	10698
780.2178	10682
782.6332	10649
785.0459	10657
787.458	10759
789.8714	10574
792.2842	10719
794.6943	10553
797.1038	10649
799.5127	10742
801.9209	10621
804.3324	10685
806.7393	10848
809.1456	10631
811.5513	10770
813.9562	10784
816.3625	10825
818.7663	10736
821.1693	10865
823.5718	10933
825.9735	10903
828.3746	10850
830.7771	10701
833.177	10911
835.5762	10825
837.9747	10793
840.3727	10958
842.772	10984
845.1666	10992
847.5626	10930
849.958	10988
852.3527	10945
854.7488	10950
857.1403	11077
859.5331	11227
861.9253	11049
864.3168	10887
866.7057	10902
869.098	10964
871.4876	10825
873.8746	11022
876.263	11092
878.6487	10882
881.0378	10984
883.4243	10928
885.8081	11029
888.1933	11020
890.5759	11072
892.9598	11020
895.343	10911
897.7256	11108
900.1057	10947
902.4871	11153
904.8659	11077
907.246	11026
909.6254	11348
912.0023	11021
914.3786	11037
916.7562	11293
919.1331	11183
921.5074	11268
923.8831	11538
926.2562	11382
928.6287	11399
931.0005	11505
933.3757	11512
935.7462	11408
938.1162	11536
940.4855	11622
942.8542	11486
945.2242	11593
947.5916	11732
949.9584	11799
952.3266	11903
954.6921	12296
957.0571	12256
959.4233	12517
961.787	12617
964.15	12514
966.5125	12388
968.8742	12273
971.2354	12061
973.5959	11679
975.9559	11586
978.3151	11524
980.6738	11547
983.0338	11367
985.3912	11359
987.7461	11500
990.1022	11369
992.4578	11441
994.8127	11406
997.1689	11330
999.5207	11392
1001.874	11499
1004.226	11413
1006.576	11440
1008.929	11472
1011.28	11377
1013.628	11298
1015.977	11428
1018.324	11443
1020.674	11425
1023.019	11577
1025.366	11398
1027.713	11492
1030.056	11594
1032.399	11480
1034.746	11592
1037.087	11578
1039.431	11560
1041.771	11587
1044.113	11535
1046.454	11609
1048.793	11619
1051.133	11514
1053.471	11603
1055.807	11615
1058.146	11641
1060.483	11590
1062.818	11627
1065.153	11515
1067.489	11501
1069.822	11553
1072.156	11708
1074.488	11718
1076.82	11738
1079.15	11674
1081.48	11684
1083.814	11562
1086.143	11552
1088.471	11769
1090.799	11683
1093.126	11681
1095.452	11748
1097.78	11826
1100.105	11723
1102.43	11750
1104.754	11688
1107.077	11847
1109.4	11762
1111.722	11759
1114.044	11784
1116.365	11816
1118.685	11599
1121.005	11725
1123.324	11676
1125.643	11726
1127.961	11739
1130.278	11822
1132.595	11894
1134.911	11857
1137.226	11835
1139.541	11819
1141.854	11691
1144.167	11796
1146.482	11781
1148.793	11866
1151.105	11789
1153.414	11728
1155.725	11830
1158.033	11691
1160.344	11786
1162.651	11791
1164.959	11823
1167.265	11826
1169.572	11730
1171.878	11753
1174.184	11820
1176.488	11862
1178.79	12002
1181.094	11900
1183.396	11663
1185.699	11830
1188.001	11867
1190.301	11926
1192.6	11831
1194.9	11840
1197.2	11746
1199.497	11676
1201.794	11850
1204.09	11810
1206.387	11853
1208.684	11854
1210.978	11849
1213.272	12027
1215.565	11872
1217.858	11992
1220.15	11931
1222.443	11760
1224.734	11958
1227.024	12003
1229.313	11870
1231.602	12072
1233.892	11907
1236.18	12104
1238.467	12132
1240.754	12143
1243.04	12113
1245.325	12206
1247.612	12217
1249.896	12172
1252.178	12146
1254.461	12188
1256.743	12277
1259.027	12286
1261.308	12015
1263.587	12198
1265.867	12263
1268.146	12050
1270.425	12221
1272.703	12317
1274.981	12264
1277.256	12121
1279.532	12281
1281.808	11966
1284.083	11974
1286.358	12070
1288.63	12030
1290.904	12009
1293.175	12299
1295.449	12087
1297.719	11936
1299.99	12116
1302.259	11983
1304.529	11990
1306.798	12059
1309.065	12259
1311.333	12133
1313.599	12045
1315.866	12085
1318.131	12006
1320.396	12173
1322.66	12124
1324.925	12155
1327.187	11993
1329.448	12146
1331.711	12115
1333.974	12110
1336.234	11915
1338.493	12093
1340.752	12051
1343.01	12005
1345.269	12206
1347.526	12154
1349.784	11996
1352.04	12145
1354.295	12072
1356.552	12148
1358.806	12014
1361.059	12019
1363.312	12046
1365.564	12081
1367.818	12232
1370.069	12079
1372.318	12138
1374.568	12066
1376.817	12137
1379.066	12157
1381.316	12177
1383.564	12235
1385.809	12255
1388.056	12094
1390.301	12262
1392.549	12369
1394.793	12310
1397.036	12340
1399.279	12374
1401.522	12325
1403.763	12430
1406.007	12313
1408.248	12511
1410.487	12456
1412.727	12495
1414.965	12284
1417.205	12394
1419.442	12333
1421.68	12430
1423.915	12475
1426.152	12348
1428.388	12487
1430.623	12347
1432.857	12514
1435.091	12569
1437.323	12519
1439.556	12712
1441.789	12641
1444.019	12522
1446.25	12334
1448.48	12625
1450.708	12527
1452.938	12520
1455.167	12614
1457.394	12697
1459.62	12622
1461.846	12695
1464.073	12536
1466.299	12525
1468.523	12553
1470.746	12539
1472.969	12435
1475.191	12391
1477.415	12381
1479.636	12382
1481.858	12240
1484.078	12334
1486.298	12123
1488.518	12297
1490.736	12318
1492.954	12214
1495.169	12338
1497.386	12261
1499.602	12354
1501.819	12247
1504.034	12139
1506.248	12185
1508.462	12224
1510.675	12307
1512.888	12108
1515.1	12175
1517.311	12235
1519.522	12305
1521.732	12139
1523.942	11984
1526.151	12271
1528.36	12316
1530.566	12363
1532.773	12147
1534.98	12056
1537.187	12062
1539.392	12156
1541.596	12248
1543.801	12189
1546.005	12349
1548.208	12484
1550.411	12492
1552.612	12385
1554.814	12217
1557.013	12258
1559.212	12301
1561.414	12313
1563.612	12439
1565.811	12412
1568.007	12507
1570.203	12498
1572.403	12325
1574.598	12329
1576.792	12287
1578.988	12417
1581.181	12577
1583.376	12386
1585.568	12307
1587.761	12548
1589.952	12628
1592.143	12592
1594.333	12753
1596.524	12478
1598.715	12471
1600.903	12536
1603.091	12559
1605.278	12664
1607.466	12620
1609.652	12678
1611.838	12612
1614.023	12591
1616.207	12543
1618.391	12524
1620.576	12615
1622.759	12707
1624.941	12549
1627.123	12584
1629.304	12753
1631.484	12657
1633.664	12660
1635.844	12817
1638.022	12597
1640.201	12534
1642.38	12655
1644.556	12679
1646.732	12523
1648.908	12607
1651.084	12693
1653.257	12609
1655.433	12660
1657.607	12648
1659.779	12792
1661.951	12712
1664.122	12622
1666.295	12701
1668.467	12651
1670.635	12667
1672.805	12760
1674.973	12589
1677.142	12801
1679.31	12787
1681.478	12753
1683.644	12875
1685.81	12899
1687.975	12814
1690.142	12720
1692.305	12647
1694.468	12711
1696.632	12784
1698.794	12731
1700.957	12494
1703.119	12671
1705.279	12461
1707.439	12520
1709.598	12599
1711.758	12340
1713.917	12530
1716.075	12472
1718.231	12539
1720.388	12522
1722.543	12529
1724.702	12429
1726.856	12431
1729.01	12612
1731.164	12634
1733.317	12610
1735.471	12575
1737.623	12612
1739.774	12763
1741.925	12597
1744.075	12599
1746.225	12593
1748.376	12512
1750.524	12605
1752.672	12680
1754.82	12598
1756.965	12877
1759.113	12472
1761.259	12564
1763.405	12550
1765.549	12570
1767.694	12501
1769.836	12657
1771.981	12738
1774.123	12523
1776.264	12864
1778.405	12604
1780.546	12820
1782.687	12753
1784.827	12737
1786.966	12745
1789.103	12791
1791.242	12783
1793.381	12691
1795.517	12673
1797.653	12738
1799.788	12905
1801.923	12741
1804.057	12785
1806.193	12627
1808.326	12834
1810.457	12790
1812.59	12672
1814.721	12784
1816.855	12651
1818.984	12676
1821.113	12632
1823.244	12671
1825.372	12690
1827.499	12548
1829.63	12651
1831.756	12727
1833.882	12645
1836.007	12711
1838.132	12522
1840.26	12598
1842.384	12611
1844.507	12656
1846.63	12684
1848.752	12717
1850.875	12426
1852.996	12522
1855.118	12350
1857.238	12512
1859.358	12477
1861.477	12498
1863.597	12645
1865.715	12613
1867.832	12506
1869.948	12510
1872.064	12466
1874.181	12590
1876.297	12394
1878.411	12731
1880.526	12601
1882.639	12663
1884.752	12808
1886.865	12740
1888.977	12438
1891.089	12492
1893.2	12646
1895.308	12429
1897.42	12557
1899.53	12636
1901.639	12591
1903.745	12740
1905.853	12723
1907.962	12594
1910.067	12571
1912.174	12554
1914.278	12568
1916.383	12670
1918.486	12646
1920.592	12706
1922.694	12662
1924.797	12737
1926.898	12827
1929	12607
1931.102	12634
1933.203	12675
1935.301	12856
1937.401	12775
1939.499	12749
1941.598	12770
1943.697	12802
1945.793	12802
1947.888	12613
1949.985	12660
1952.08	12565
1954.176	12704
1956.269	12621
1958.364	12596
1960.457	12713
1962.549	12647
1964.642	12597
1966.733	12566
1968.823	12589
1970.913	12653
1973.005	12654
1975.093	12650
1977.184	12594
1979.271	12647
1981.359	12683
1983.446	12430
1985.532	12581
1987.619	12440
1989.705	12733
1991.789	12561
1993.874	12571
1995.956	12571
1998.041	12467
2000.123	12466
2002.206	12659
2004.287	12511
2006.368	12384
2008.449	12394
2010.529	12593
2012.609	12668
2014.688	12610
2016.766	12562
2018.843	12591
2020.922	12328
2022.999	12423
2025.074	12434
2027.15	12528
2029.225	12611
2031.299	12466
2033.375	12439
2035.447	12579
2037.52	12672
2039.592	12536
2041.664	12541
2043.736	12589
2045.807	12412
2047.876	12488
2049.947	12682
2052.015	12697
2054.086	12599
2056.153	12364
2058.221	12534
2060.288	12569
2062.353	12622
2064.42	12606
2066.486	12491
2068.55	12569
2070.614	12537
2072.678	12675
2074.741	12591
2076.805	12575
2078.866	12461
2080.929	12409
2082.99	12375
2085.049	12506
2087.109	12559
2089.17	12417
2091.228	12499
2093.286	12604
2095.344	12571
2097.4	12471
2099.46	12319
2101.516	12585
2103.572	12531
2105.626	12551
2107.679	12517
2109.735	12712
2111.788	12452
2113.841	12593
2115.894	12500
2117.945	12606
2119.997	12571
2122.049	12434
2124.1	12485
2126.148	12598
2128.197	12540
2130.246	12334
2132.296	12444
2134.342	12439
2136.39	12416
2138.437	12446
2140.483	12437
2142.527	12591
2144.574	12526
2146.619	12316
2148.661	12457
2150.705	12377
2152.747	12477
2154.792	12541
2156.832	12486
2158.874	12369
2160.915	12315
2162.954	12442
2164.995	12494
2167.034	12387
2169.072	12406
2171.111	12421
2173.148	12344
2175.186	12303
2177.223	12242
2179.258	12240
2181.294	12330
2183.328	12165
2185.362	12186
2187.398	12049
2189.431	12150
2191.463	12346
2193.495	12165
2195.528	12189
2197.56	12234
2199.59	12153
2201.62	11985
2203.649	12078
2205.678	12261
2207.708	12032
2209.737	12111
2211.764	12065
2213.791	12089
2215.817	12176
2217.843	12139
2219.87	12136
2221.895	12028
2223.919	12126
2225.942	12144
2227.966	12032
2229.988	12028
2232.012	12020
2234.032	12162
2236.054	12036
2238.074	12052
2240.095	11930
2242.116	12111
2244.135	12150
2246.153	11888
2248.171	12123
2250.188	12165
2252.208	12006
2254.223	12008
2256.239	12113
2258.255	12105
2260.269	12134
2262.283	12260
2264.3	12030
2266.312	12107
2268.325	12147
2270.336	12108
2272.349	12053
2274.362	12115
2276.372	11945
2278.383	11983
2280.392	11937
2282.402	12056
2284.409	12026
2286.418	11990
2288.427	12108
2290.433	11926
2292.441	12016
2294.446	11894
2296.453	12026
2298.459	11962
2300.463	11910
2302.466	11964
2304.471	11877
2306.475	11991
2308.477	11928
2310.478	11880
2312.481	12160
2314.481	11924
2316.481	11864
2318.482	12082
2320.482	11925
2322.48	11797
2324.48	11898
2326.478	11923
2328.476	11887
2330.473	11913
2332.469	12104
2334.465	11935
2336.46	11844
2338.454	11783
2340.45	11755
2342.444	11773
2344.437	11687
2346.43	11933
2348.421	11865
2350.414	11931
2352.405	11647
2354.396	11789
2356.386	11607
2358.376	11677
2360.366	11748
2362.355	11761
2364.343	11686
2366.331	11759
2368.317	11760
2370.304	11655
2372.292	11791
2374.278	11730
2376.262	11737
2378.247	11591
2380.23	11486
2382.216	11848
2384.199	11520
2386.181	11694
2388.163	11500
2390.144	11570
2392.127	11670
2394.107	11344
2396.087	11565
2398.066	11554
2400.046	11590
2402.023	11597
2404.004	11659
2405.981	11614
2407.957	11576
2409.934	11454
2411.91	11544
2413.886	11522
2415.862	11612
2417.836	11471
2419.809	11417
2421.784	11626
2423.756	11462
2425.73	11389
2427.701	11485
2429.672	11458
2431.644	11615
2433.615	11558
2435.586	11416
2437.555	11355
2439.523	11485
2441.491	11334
2443.459	11585
2445.428	11619
2447.395	11387
2449.361	11535
2451.327	11410
2453.292	11481
2455.257	11415
2457.223	11455
2459.187	11501
2461.15	11398
2463.113	11442
2465.076	11490
2467.039	11368
2468.999	11309
2470.96	11282
2472.921	11338
2474.881	11257
2476.841	11371
2478.8	11314
2480.759	11336
2482.717	11362
2484.675	11198
2486.63	11447
2488.589	11332
2490.545	11290
2492.5	11201
2494.455	11294
2496.408	11186
2498.364	11286
2500.318	11149
2502.27	11247
2504.223	11145
2506.174	11466
2508.126	11265
2510.078	11149
2512.03	11201
2513.979	11154
2515.927	11103
2517.877	11258
2519.826	11112
2521.775	11335
2523.722	11331
2525.668	11132
2527.616	11102
2529.561	11191
2531.508	11123
2533.452	11152
2535.398	11330
2537.342	11085
2539.284	11105
2541.229	11185
2543.173	11192
2545.114	11157
2547.055	11258
2548.996	11182
2550.938	10957
2552.878	11039
2554.817	11220
2556.756	11154
2558.695	11217
2560.633	11125
2562.572	11113
2564.509	11150
2566.445	11130
2568.382	11157
2570.317	10915
2572.254	11062
2574.189	11023
2576.123	11012
2578.057	11049
2579.99	11037
2581.923	11216
2583.855	11181
2585.788	11133
2587.719	11075
2589.65	11161
2591.579	11018
2593.511	11009
2595.44	11172
2597.37	11075
2599.297	11030
2601.225	11025
2603.153	11149
2605.08	11000
2607.007	11138
2608.932	11059
2610.858	10961
2612.782	11089
2614.709	11158
2616.632	11183
2618.556	11098
2620.478	11268
2622.401	10995
2624.324	11089
2626.247	11121
2628.167	11118
2630.088	11095
2632.008	10943
2633.928	11175
2635.848	10909
2637.766	11063
2639.684	11182
2641.603	11224
2643.519	11116
2645.437	10980
2647.353	11095
2649.27	11031
2651.184	10978
2653.099	11005
2655.014	10881
2656.928	11230
2658.842	10994
2660.755	11038
2662.667	11023
2664.579	10945
2666.491	10968
2668.402	10839
2670.312	10956
2672.222	10949
2674.132	10886
2676.042	11001
2677.951	10903
2679.859	10946
2681.766	10806
2683.674	10885
2685.582	10920
2687.488	10920
2689.392	10956
2691.298	11018
2693.202	10746
2695.107	10960
2697.012	11006
2698.914	10932
2700.817	10734
2702.72	10714
2704.622	10711
2706.524	10839
2708.425	10722
2710.326	10717
2712.225	10843
2714.125	10685
2716.024	10678
2717.923	10793
2719.822	10758
2721.719	10785
2723.616	10916
2725.512	10806
2727.41	10694
2729.305	10664
2731.201	10661
2733.095	10776
2734.99	10814
2736.884	10697
2738.778	10835
2740.67	10636
2742.562	10689
2744.455	10602
2746.346	10680
2748.238	10625
2750.129	10799
2752.018	10765
2753.907	10645
2755.797	10665
2757.687	10660
2759.575	10727
2761.462	10747
2763.349	10427
2765.237	10780
2767.124	10611
2769.009	10581
2770.894	10563
2772.779	10582
2774.663	10507
2776.547	10568
2778.431	10669
2780.314	10693
2782.197	10564
2784.078	10630
2785.96	10555
2787.842	10635
2789.723	10623
2791.603	10540
2793.483	10631
2795.362	10283
2797.241	10550
2799.121	10472
2800.997	10649
2802.874	10408
2804.751	10662
2806.628	10489
2808.506	10428
2810.38	10337
2812.255	10485
2814.13	10473
2816.003	10565
2817.878	10392
2819.752	10437
2821.623	10631
2823.496	10577
2825.368	10451
2827.238	10335
2829.111	10473
2830.98	10454
2832.851	10504
2834.719	10453
2836.589	10530
2838.458	10495
2840.327	10398
2842.193	10443
2844.061	10355
2845.927	10356
2847.794	10480
2849.66	10449
2851.525	10432
2853.39	10452
2855.254	10419
2857.117	10459
2858.983	10494
2860.845	10559
2862.707	10441
2864.569	10596
2866.431	10584
2868.293	10460
2870.154	10676
2872.013	10597
2873.873	10541
2875.733	10722
2877.592	10560
2879.451	10748
2881.309	10731
2883.166	10738
2885.022	10842
2886.879	10858
2888.736	10715
2890.591	10718
2892.446	10795
2894.301	10639
2896.155	10993
2898.009	10930
2899.863	10752
2901.716	10810
2903.568	10873
2905.419	10807
2907.27	10745
2909.123	10761
2910.973	10733
2912.824	10753
2914.673	10688
2916.521	10809
2918.372	10792
2920.22	10896
2922.067	10822
2923.914	10875
2925.761	11014
2927.607	11090
2929.455	10968
2931.301	11091
2933.144	11214
2934.99	11056
2936.833	11166
2938.678	11245
2940.522	11218
2942.364	11265
2944.207	11326
2946.048	11613
2947.891	11432
2949.731	11389
2951.571	11469
2953.412	11393
2955.25	11256
2957.09	11211
2958.93	11231
2960.767	11168
2962.606	11127
2964.443	11031
2966.279	11049
2968.116	10926
2969.953	10838
2971.788	10780
2973.623	10732
2975.457	10714
2977.292	10672
2979.127	10598
2980.959	10591
2982.792	10603
2984.624	10520
2986.455	10443
2988.288	10568
2990.119	10480
2991.949	10394
2993.779	10384
2995.608	10454
2997.439	10438
2999.268	10264
3001.096	10245
3002.923	10216
3004.751	10153
3006.578	10173
3008.406	10213
3010.232	9939
3012.057	10014
3013.883	9942
3015.706	9945
3017.532	9747
3019.356	9907
3021.179	9826
3023.002	9921
3024.823	9904
3026.646	9886
3028.469	9784
3030.289	9746
3032.11	9724
3033.93	9766
3035.749	9823
3037.57	9719
3039.39	9693
3041.207	9719
3043.026	9743
3044.842	9752
3046.661	9641
3048.477	9676
3050.294	9692
3052.109	9562
3053.925	9622
3055.739	9584
3057.555	9618
3059.368	9562
3061.181	9688
3062.995	9631
3064.807	9606
3066.62	9637
3068.433	9583
3070.243	9625
3072.054	9668
3073.865	9676
3075.675	9482
3077.485	9520
3079.293	9577
3081.102	9540
3082.911	9531
3084.719	9342
3086.527	9504
3088.333	9405
3090.139	9417
3091.945	9357
3093.75	9611
3095.557	9285
3097.361	9344
3099.165	9376
3100.969	9358
3102.772	9239
3104.575	9455
3106.379	9510
3108.181	9300
3109.982	9413
3111.783	9346
3113.584	9274
3115.386	9132
3117.186	9252
3118.985	9261
3120.783	9136
3122.582	9255
3124.381	9135
3126.179	9313
3127.975	9235
3129.772	9083
3131.569	9160
3133.365	9079
3135.161	9133
3136.956	9161
3138.751	9032
3140.544	9100
3142.338	9215
3144.132	9206
3145.925	9098
3147.717	9192
3149.509	9035
3151.301	8906
3153.091	9075
3154.884	8986
3156.673	8834
3158.462	8906
3160.252	9008
3162.041	8936
3163.831	8950
3165.618	8921
3167.405	8989
3169.193	8949
3170.979	9022
3172.767	8892
3174.553	8785
3176.338	8962
3178.123	9017
3179.907	8894
3181.692	8996
3183.477	8955
3185.259	8989
3187.042	8812
3188.824	9063
3190.607	8849
3192.389	8945
3194.17	8798
3195.951	8921
3197.73	8825
3199.51	8900
3201.289	8848
3203.07	8746
3204.848	8754
3206.626	8836
3208.403	8866
3210.18	8729
3211.959	8902
3213.735	8872
3215.511	8865
3217.285	8919
3219.06	8749
3220.836	8871
3222.611	8797
3224.384	8840
3226.158	8816
3227.929	8740
3229.702	8761
3231.476	8777
3233.248	8660
3235.018	8803
3236.789	8708
3238.56	8779
3240.33	8730
3242.1	8767
3243.869	8862
3245.637	8707
3247.405	8808
3249.172	8798
3250.941	8650
3252.707	8682
3254.474	8801
3256.24	8554
3258.006	8560
3259.772	8734
3261.537	8610
3263.301	8758
3265.065	8661
3266.828	8768
3268.592	8629
3270.355	8768
3272.117	8646
3273.878	8577
3275.64	8576
3277.401	8724
3279.162	8528
3280.922	8599
3282.682	8592
3284.441	8734
3286.199	8653
3287.959	8639
3289.716	8652
3291.475	8725
3293.232	8590
3294.988	8614
3296.744	8543
3298.501	8574
3300.256	8600
3302.011	8594
3303.766	8665
3305.52	8627
3307.275	8701
3309.028	8507
3310.781	8531
3312.533	8613
3314.285	8657
3316.038	8621
3317.789	8660
3319.54	8542
3321.289	8559
3323.039	8583
3324.789	8610
3326.539	8533
3328.288	8475
3330.035	8624
3331.783	8264
3333.531	8432
3335.28	8568
3337.025	8512
3338.771	8513
3340.518	8417
3342.262	8486
3344.009	8433
3345.753	8466
3347.497	8417
3349.24	8465
3350.983	8412
3352.726	8381
3354.469	8435
3356.212	8387
3357.952	8309
3359.694	8365
3361.434	8226
3363.176	8212
3364.916	8348
3366.654	8210
3368.394	8402
3370.132	8384
3371.871	8244
3373.61	8401
3375.346	8249
3377.083	8358
3378.82	8360
3380.556	8339
3382.292	8230
3384.027	8208
3385.763	8283
3387.497	8237
3389.231	8107
3390.965	8152
3392.698	8282
3394.431	8347
3396.164	8165
3397.896	8306
3399.627	8122
3401.36	8024
3403.09	8274
3404.82	8128
3406.55	8203
3408.279	8083
3410.01	8182
3411.738	8179
3413.467	8082
3415.194	8201
3416.92	8118
3418.647	8172
3420.375	8068
3422.102	8137
3423.827	8079
3425.553	8199
3427.277	8139
3429.003	8200
3430.727	8165
3432.451	8101
3434.173	7956
3435.896	7995
3437.62	7953
3439.343	8073
3441.063	8071
3442.785	8017
3444.505	7902
3446.226	8022
3447.948	7980
3449.666	7937
3451.386	7851
3453.104	7770
3454.823	8043
3456.541	7976
3458.259	7913
3459.976	7856
3461.693	8005
3463.408	7903
3465.125	7784
3466.841	7812
3468.556	7865
3470.271	7952
3471.985	7809
3473.698	7724
3475.414	7877
3477.126	7745
3478.838	7967
3480.55	7686
3482.263	7748
3483.975	7609
3485.686	7631
3487.396	7628
3489.106	7701
3490.817	7598
3492.526	7694
3494.236	7711
3495.944	7710
3497.652	7601
3499.359	7613
3501.066	7670
3502.775	7685
3504.481	7488
3506.187	7605
3507.893	7748
3509.598	7522
3511.304	7706
3513.009	7561
3514.713	7640
3516.417	7566
3518.12	7520
3519.821	7522
3521.525	7539
3523.228	7505
3524.929	7628
3526.631	7556
3528.33	7556
3530.032	7513
3531.733	7578
3533.433	7652
3535.131	7423
3536.83	7543
3538.529	7480
3540.227	7464
3541.925	7407
3543.623	7432
3545.319	7429
3547.016	7444
3548.712	7490
3550.408	7488
3552.103	7394
3553.798	7366
3555.491	7375
3557.188	7330
3558.88	7279
3560.574	7393
3562.266	7371
3563.959	7269
3565.651	7306
3567.343	7392
3569.035	7285
3570.725	7345
3572.415	7374
3574.106	7366
3575.797	7343
3577.485	7291
3579.174	7303
3580.863	7240
3582.551	7241
3584.238	7335
3585.926	7394
3587.613	7308
3589.3	7246
3590.986	7280
3592.671	7148
3594.357	7283
3596.042	7092
3597.726	7072
3599.41	7199
3601.094	7113
3602.778	7234
3604.461	7048
3606.143	7096
3607.825	7158
3609.507	7054
3611.188	7167
3612.87	7028
3614.551	7068
3616.229	7052
3617.909	7014
3619.589	7157
3621.269	7007
3622.948	6935
3624.625	6956
3626.302	6893
3627.98	6914
3629.657	7038
3631.334	6964
3633.01	6997
3634.686	7023
3636.361	6903
3638.036	6953
3639.712	6927
3641.385	6919
3643.06	6842
3644.732	6891
3646.405	6872
3648.08	6955
3649.751	6922
3651.424	6844
3653.094	6889
3654.766	6973
3656.436	6814
3658.106	6810
3659.777	6773
3661.446	6871
3663.115	6811
3664.783	6690
3666.452	6837
3668.121	6867
3669.788	6864
3671.454	6684
3673.121	6747
3674.789	6799
3676.455	6743
3678.12	6689
3679.784	6759
3681.45	6755
3683.114	6718
3684.779	6787
3686.442	6664
3688.105	6731
3689.768	6794
3691.43	6770
3693.093	6687
3694.754	6726
3696.415	6645
3698.076	6725
3699.736	6664
3701.396	6664
3703.057	6687
3704.716	6784
3706.375	6665
3708.034	6717
3709.692	6758
3711.351	6652
3713.008	6595
3714.665	6636
3716.321	6596
3717.977	6650
3719.634	6609
3721.29	6612
3722.945	6511
3724.598	6551
3726.253	6592
3727.907	6644
3729.561	6680
3731.214	6524
3732.867	6518
3734.518	6467
3736.171	6572
3737.824	6580
3739.474	6575
3741.125	6628
3742.775	6536
3744.425	6541
3746.074	6519
3747.725	6509
3749.373	6485
3751.022	6579
3752.669	6645
3754.318	6472
3755.966	6459
3757.612	6479
3759.259	6494
3760.905	6389
3762.55	6547
3764.197	6479
3765.842	6526
3767.486	6447
3769.131	6393
3770.774	6479
3772.417	6425
3774.061	6313
3775.705	6422
3777.347	6268
3778.988	6415
3780.629	6468
3782.271	6363
3783.912	6569
3785.552	6437
3787.192	6338
3788.831	6351
3790.472	6375
3792.112	6347
3793.75	6226
3795.388	6206
3797.024	6314
3798.661	6354
3800.3	6282
3801.936	6174
3803.572	6234
3805.208	6218
3806.844	6296
3808.48	6309
3810.115	6202
3811.748	6220
3813.382	6280
3815.016	6255
3816.649	6219
3818.283	6247
3819.914	6219
3821.547	6155
3823.178	6227
3824.809	6240
3826.441	6175
3828.072	6224
3829.701	6174
3831.331	6112
3832.96	6153
3834.591	6194
3836.219	6100
3837.847	6118
3839.475	6201
3841.102	6095
3842.729	6044
3844.357	6131
3845.984	6084
3847.609	6039
3849.234	6068
3850.86	6162
3852.485	6081
3854.11	6092
3855.734	6023
3857.357	5959
3858.981	6095
3860.603	6018
3862.227	6127
3863.848	5964
3865.471	5976
3867.092	6014
3868.713	5945
3870.334	5984
3871.954	5990
3873.575	5928
3875.194	5932
3876.813	5993
3878.433	5956
3880.051	5988
3881.669	5853
3883.286	5905
3884.904	5898
3886.52	5842
3888.138	5915
3889.754	5808
3891.37	6047
3892.985	5933
3894.6	5937
3896.216	5927
3897.831	5974
3899.444	5883
3901.058	5919
3902.67	5810
3904.283	5934
3905.897	5848
3907.509	5842
3909.121	5876
3910.731	5776
3912.342	5880
3913.954	5907
3915.563	5778
3917.174	5799
3918.783	5976
3920.391	5888
3922.002	5875
3923.611	5782
3925.218	5912
3926.826	5711
3928.432	5874
3930.039	5805
3931.647	5844
3933.253	5744
3934.859	5704
3936.464	5854
3938.068	5694
3939.675	5826
3941.278	5739
3942.883	5761
3944.486	5820
3946.089	5639
3947.692	5663
3949.295	5793
3950.898	5847
3952.499	5790
3954.1	5786
3955.7	5652
3957.303	5736
3958.903	5793
3960.502	5745
3962.101	5654
3963.7	5646
3965.301	5649
3966.899	5600
3968.497	5715
3970.094	5641
3971.691	5586
3973.288	5732
3974.885	5594
3976.481	5606
3978.077	5666
3979.672	5706
3981.267	5667
3982.863	5698
3984.457	5612
3986.051	5588
3987.645	5524
3989.238	5613
3990.831	5635
3992.425	5505
3994.017	5472
3995.607	5480
3997.199	5591
3998.79	5534
4000.382	5505
4001.973	5494
4003.561	5468
4005.151	5490
4006.741	5353
4008.331	5463
4009.918	5517
4011.507	5319
4013.095	5427
4014.681	5412
4016.269	5405
4017.856	5426
4019.443	5407
4021.028	5406
4022.614	5372
4024.199	5369
4025.785	5422
4027.37	5260
4028.953	5367
4030.536	5343
4032.12	5381
4033.704	5324
4035.287	5331
4036.869	5342
4038.45	5293
4040.032	5250
4041.613	5338
4043.195	5224
4044.776	5305
4046.356	5327
4047.935	5198
4049.515	5285
4051.095	5373
4052.674	5332
4054.251	5325
4055.829	5177
4057.406	5245
4058.985	5222
4060.562	5276
4062.139	5296
4063.715	5185
4065.29	5213
4066.865	5210
4068.442	5320
4070.016	5342
4071.59	5198
4073.164	5228
4074.738	5241
4076.312	5103
4077.885	5188
4079.458	5191
4081.03	5147
4082.602	5111
4084.173	5194
4085.745	5224
4087.315	5087
4088.886	5132
4090.456	5135
4092.026	4995
4093.596	5196
4095.165	5108
4096.734	5104
4098.301	5138
4099.869	5117
4101.437	5183
4103.006	5076
4104.572	5174
4106.139	5043
4107.704	5010
4109.27	5037
4110.837	5051
4112.401	5155
4113.966	5063
4115.53	4997
4117.094	5070
4118.659	5004
4120.223	5060
4121.785	5127
4123.347	5065
4124.909	5016
4126.471	4965
4128.034	5019
4129.595	5036
4131.155	4961
4132.716	4961
4134.275	4962
4135.836	5072
4137.395	4953
4138.955	4934
4140.513	4908
4142.071	4864
4143.628	4921
4145.188	4907
4146.745	4940
4148.302	4978
4149.858	4802
4151.414	4981
4152.971	4868
4154.526	4877
4156.081	4846
4157.635	4800
4159.189	4815
4160.745	4902
4162.298	4834
4163.852	4738
4165.405	4785
4166.957	4859
4168.51	4841
4170.063	4840
4171.614	4846
4173.166	4803
4174.717	4788
4176.267	4748
4177.817	4874
4179.368	4706
4180.917	4797
4182.466	4765
4184.016	4776
4185.564	4740
4187.112	4653
4188.66	4808
4190.207	4727
4191.754	4750
4193.301	4692
4194.848	4630
4196.394	4807
4197.94	4731
4199.484	4700
4201.03	4710
4202.575	4683
4204.12	4628
4205.663	4669
4207.207	4665
4208.75	4575
4210.292	4564
4211.836	4577
4213.378	4641
4214.92	4667
4216.46	4672
4218.002	4599
4219.544	4597
4221.083	4623
4222.625	4524
4224.164	4640
4225.703	4521
4227.244	4575
4228.782	4564
4230.32	4611
4231.857	4615
4233.395	4624
4234.933	4706
4236.471	4556
4238.007	4638
4239.542	4506
4241.078	4643
4242.614	4606
4244.15	4582
4245.685	4486
4247.219	4538
4248.753	4528
4250.287	4553
4251.82	4576
4253.354	4503
4254.887	4519
4256.419	4482
4257.951	4522
4259.483	4524
4261.016	4505
4262.547	4528
4264.078	4497
4265.608	4482
4267.137	4486
4268.668	4472
4270.197	4503
4271.727	4488
4273.254	4557
4274.783	4434
4276.311	4470
4277.84	4535
4279.366	4500
4280.894	4389
4282.42	4467
4283.946	4307
4285.473	4503
4286.998	4431
4288.523	4400
4290.047	4496
4291.572	4374
4293.096	4437
4294.622	4362
4296.144	4453
4297.668	4394
4299.19	4377
4300.713	4436
4302.236	4440
4303.758	4321
4305.279	4458
4306.799	4287
4308.321	4357
4309.842	4297
4311.361	4428
4312.882	4315
4314.401	4231
