400.0961	6617
402.6185	6612
405.1424	6583
407.6635	6542
410.1838	6612
412.7035	6585
415.2225	6656
417.7388	6633
420.2585	6695
422.7754	6889
425.2917	6936
427.8072	6872
430.3221	6869
432.8363	6923
435.3498	6959
437.8626	6975
440.3727	7003
442.8841	7080
445.3969	7020
447.907	7086
450.4142	7081
452.9229	6995
455.4289	7025
457.9362	7104
460.4449	6953
462.9488	6981
465.454	7023
467.9566	7064
470.4604	7094
472.9637	6998
475.4662	7113
477.966	7145
480.4671	7023
482.9656	7141
485.4633	7021
487.9645	7276
490.4608	7221
492.9566	7294
495.4536	7162
497.948	7254
500.4437	7172
502.9387	7196
505.431	7288
507.9226	7345
510.4136	7229
512.9079	7239
515.3975	7268
517.8864	7353
520.3746	7396
522.8622	7333
525.3491	7510
527.8394	7342
530.3249	7426
532.8098	7264
535.2939	7485
537.7774	7427
540.2623	7434
542.7444	7445
545.2259	7342
547.7067	7367
550.1868	7393
552.6683	7398
555.147	7459
557.6231	7530
560.1005	7403
562.5773	7428
565.0534	7439
567.5308	7439
570.0056	7518
572.4776	7488
574.951	7680
577.4237	7722
579.8978	7679
582.3671	7738
584.8378	7634
587.3079	7808
589.7773	7801
592.244	7637
594.714	7663
597.1793	7857
599.6461	7701
602.1121	7666
604.5754	7672
607.0421	7808
609.5042	7673
611.9675	7592
614.4282	7673
616.8902	7668
619.3515	7685
621.8122	7634
624.2702	7823
626.7296	7534
629.1863	7708
631.6423	7694
634.1017	7559
636.5563	7622
639.0104	7585
641.4658	7712
643.9185	7661
646.3725	7700
648.8239	7711
651.2766	7699
653.7266	7699
656.176	7832
658.6247	7987
661.0748	7785
663.5242	7813
665.9709	7886
668.417	7835
670.8624	7958
673.3092	7787
675.7533	7840
678.1968	7937
680.6395	8063
683.0817	7934
685.5251	7955
687.9659	8009
690.4061	8006
692.8456	7823
695.2844	8025
697.7226	8009
700.1621	7945
702.599	8027
705.0332	8080
707.4688	8073
709.9036	8229
712.3399	8040
714.7735	8185
717.2044	8159
719.6367	8270
722.0683	8107
724.4993	8148
726.9296	8177
729.3593	8140
731.7883	8105
734.2147	8378
736.6423	8228
739.0714	8220
741.4958	8310
743.9216	8373
746.3447	8456
748.7691	8437
751.1929	8420
753.616	8378
756.0366	8404
758.4584	8476
760.8776	8523
763.2982	8500
765.718	8529
768.1373	8619
770.5539	8489
772.9698	8652
775.3871	8651
777.8038	8530
780.2178	8441
782.6332	8550
785.0459	8398
787.458	8680
789.8714	8605
792.2842	8423
794.6943	8597
797.1038	8543
799.5127	8623
801.9209	8531
804.3324	8595
806.7393	8523
809.1456	8683
811.5513	8526
813.9562	8746
816.3625	8674
818.7663	8723
821.1693	8746
823.5718	8788
825.9735	8620
828.3746	8682
830.7771	8640
833.177	8604
835.5762	8626
837.9747	8754
840.3727	8649
842.772	8716
845.1666	8749
847.5626	8800
849.958	8746
852.3527	9008
854.7488	8911
857.1403	8817
859.5331	8893
861.9253	8816
864.3168	8895
866.7057	8782
869.098	8874
871.4876	8872
873.8746	8835
876.263	8865
878.6487	8695
881.0378	8839
883.4243	8871
885.8081	8808
888.1933	8737
890.5759	8577
892.9598	8850
895.343	8833
897.7256	8861
900.1057	8786
902.4871	8863
904.8659	8842
907.246	8940
909.6254	8882
912.0023	8878
914.3786	8937
916.7562	8917
919.1331	9097
921.5074	9219
923.8831	9282
926.2562	9268
928.6287	9240
931.0005	9129
933.3757	9192
935.7462	9174
938.1162	9270
940.4855	9292
942.8542	9398
945.2242	9482
947.5916	9441
949.9584	9589
952.3266	9977
954.6921	9995
957.0571	10181
959.4233	10559
961.787	10586
964.15	10606
966.5125	10426
968.8742	10134
971.2354	9930
973.5959	9707
975.9559	9411
978.3151	9272
980.6738	9372
983.0338	9269
985.3912	9259
987.7461	9300
990.1022	9203
992.4578	9110
994.8127	9077
997.1689	9118
999.5207	9235
1001.874	9234
1004.226	9280
1006.576	9168
1008.929	9190
1011.28	9102
1013.628	9094
1015.977	9188
1018.324	9421
1020.674	9050
1023.019	9256
1025.366	9242
1027.713	9295
1030.056	9185
1032.399	9397
1034.746	9315
1037.087	9175
1039.431	9312
1041.771	9234
1044.113	9350
1046.454	9387
1048.793	9376
1051.133	9331
1053.471	9371
1055.807	9337
1058.146	9444
1060.483	9346
1062.818	9406
1065.153	9409
1067.489	9509
1069.822	9337
1072.156	9469
1074.488	9525
1076.82	9568
1079.15	9557
1081.48	9465
1083.814	9361
1086.143	9456
1088.471	9411
1090.799	9434
1093.126	9396
1095.452	9409
1097.78	9305
1100.105	9480
1102.43	9359
1104.754	9434
1107.077	9494
1109.4	9335
1111.722	9556
1114.044	9405
1116.365	9431
1118.685	9422
1121.005	9455
1123.324	9571
1125.643	9539
1127.961	9498
1130.278	9412
1132.595	9453
1134.911	9465
1137.226	9469
1139.541	9433
1141.854	9447
1144.167	9418
1146.482	9319
1148.793	9408
1151.105	9409
1153.414	9554
1155.725	9373
1158.033	9462
1160.344	9336
1162.651	9487
1164.959	9312
1167.265	9489
1169.572	9554
1171.878	9504
1174.184	9428
1176.488	9392
1178.79	9538
1181.094	9653
1183.396	9587
1185.699	9441
1188.001	9468
1190.301	9473
1192.6	9468
1194.9	9454
1197.2	9442
1199.497	9566
1201.794	9403
1204.09	9548
1206.387	9599
1208.684	9462
1210.978	9377
1213.272	9410
1215.565	9520
1217.858	9537
1220.15	9506
1222.443	9538
1224.734	9477
1227.024	9650
1229.313	9622
1231.602	9643
1233.892	9664
1236.18	9763
1238.467	9579
1240.754	9802
1243.04	9933
1245.325	9770
1247.612	9872
1249.896	9778
1252.178	9795
1254.461	9749
1256.743	9754
1259.027	9835
1261.308	9895
1263.587	9611
1265.867	9858
1268.146	9883
1270.425	9770
1272.703	9796
1274.981	9814
1277.256	9776
1279.532	9709
1281.808	9839
1284.083	9797
1286.358	9769
1288.63	9727
1290.904	9724
1293.175	9694
1295.449	9683
1297.719	9807
1299.99	9585
1302.259	9668
1304.529	9583
1306.798	9607
1309.065	9653
1311.333	9818
1313.599	9690
1315.866	9678
1318.131	9642
1320.396	9608
1322.66	9733
1324.925	9792
1327.187	9698
1329.448	9785
1331.711	9757
1333.974	9812
1336.234	9836
1338.493	9662
1340.752	9713
1343.01	9617
1345.269	9710
1347.526	9822
1349.784	9759
1352.04	9697
1354.295	9703
1356.552	9690
1358.806	9642
1361.059	9841
1363.312	9671
1365.564	9691
1367.818	9719
1370.069	9836
1372.318	9719
1374.568	9778
1376.817	9860
1379.066	9778
1381.316	9822
1383.564	9768
1385.809	9908
1388.056	9819
1390.301	9901
1392.549	9823
1394.793	10120
1397.036	9957
1399.279	10052
1401.522	10044
1403.763	10123
1406.007	9975
1408.248	10090
1410.487	10148
1412.727	10138
1414.965	9933
1417.205	10102
1419.442	10058
1421.68	10024
1423.915	10041
1426.152	9930
1428.388	10160
1430.623	10095
1432.857	10001
1435.091	10041
1437.323	10063
1439.556	10234
1441.789	10225
1444.019	10050
1446.25	10019
1448.48	10128
1450.708	10161
1452.938	10068
1455.167	10107
1457.394	10216
1459.62	10102
1461.846	10154
1464.073	10187
1466.299	10089
1468.523	10040
1470.746	10138
1472.969	10106
1475.191	10065
1477.415	10038
1479.636	9912
1481.858	9919
1484.078	9664
1486.298	9975
1488.518	9859
1490.736	9818
1492.954	9822
1495.169	9676
1497.386	9747
1499.602	9736
1501.819	9727
1504.034	9788
1506.248	9738
1508.462	9715
1510.675	9846
1512.888	9669
1515.1	9639
1517.311	9856
1519.522	9652
1521.732	9732
1523.942	9777
1526.151	9760
1528.36	9681
1530.566	9734
1532.773	9829
1534.98	9667
1537.187	9712
1539.392	9856
1541.596	9719
1543.801	9897
1546.005	9715
1548.208	9779
1550.411	9920
1552.612	9945
1554.814	9921
1557.013	9771
1559.212	9928
1561.414	9956
1563.612	9855
1565.811	9829
1568.007	9923
1570.203	10095
1572.403	9790
1574.598	10022
1576.792	9918
1578.988	10071
1581.181	10044
1583.376	10033
1585.568	10206
1587.761	10215
1589.952	10028
1592.143	10102
1594.333	10166
1596.524	10104
1598.715	9982
1600.903	9962
1603.091	9975
1605.278	10156
1607.466	10031
1609.652	10033
1611.838	10137
1614.023	10114
1616.207	10221
1618.391	10138
1620.576	10039
1622.759	10136
1624.941	10073
1627.123	10177
1629.304	10125
1631.484	10177
1633.664	10234
1635.844	10111
1638.022	10171
1640.201	10144
1642.38	10221
1644.556	10192
1646.732	10206
1648.908	10093
1651.084	10275
1653.257	10167
1655.433	10162
1657.607	10198
1659.779	10120
1661.951	10090
1664.122	10268
1666.295	10208
1668.467	10301
1670.635	10274
1672.805	10307
1674.973	10163
1677.142	10155
1679.31	10280
1681.478	10008
1683.644	10231
1685.81	10258
1687.975	10233
1690.142	10207
1692.305	10142
1694.468	10099
1696.632	9937
1698.794	10084
1700.957	10188
1703.119	10177
1705.279	9964
1707.439	10118
1709.598	10006
1711.758	10038
1713.917	10061
1716.075	10007
1718.231	9942
1720.388	10052
1722.543	9994
1724.702	10069
1726.856	9935
1729.01	9861
1731.164	9973
1733.317	10042
1735.471	9857
1737.623	9966
1739.774	9900
1741.925	10137
1744.075	10148
1746.225	9984
1748.376	9923
1750.524	10198
1752.672	9999
1754.82	10096
1756.965	10008
1759.113	9859
1761.259	9985
1763.405	10071
1765.549	10119
1767.694	9962
1769.836	10043
1771.981	10008
1774.123	10059
1776.264	10168
1778.405	10047
1780.546	10194
1782.687	10127
1784.827	10177
1786.966	10184
1789.103	10129
1791.242	10288
1793.381	10028
1795.517	10028
1797.653	9977
1799.788	10192
1801.923	10110
1804.057	10153
1806.193	10124
1808.326	10107
1810.457	10107
1812.59	10124
1814.721	10196
1816.855	10161
1818.984	10145
1821.113	10096
1823.244	9962
1825.372	9879
1827.499	10147
1829.63	10092
1831.756	10209
1833.882	10006
1836.007	10056
1838.132	10060
1840.26	10165
1842.384	10039
1844.507	10056
1846.63	10138
1848.752	10013
1850.875	10057
1852.996	10082
1855.118	9921
1857.238	10069
1859.358	9944
1861.477	9933
1863.597	10029
1865.715	10075
1867.832	9922
1869.948	10173
1872.064	9994
1874.181	10018
1876.297	9930
1878.411	10123
1880.526	10092
1882.639	10002
1884.752	9936
1886.865	10049
1888.977	10011
1891.089	10062
1893.2	10123
1895.308	9918
1897.42	10148
1899.53	10118
1901.639	10077
1903.745	10116
1905.853	10122
1907.962	9989
1910.067	10094
1912.174	10186
1914.278	9991
1916.383	10110
1918.486	10055
1920.592	10136
1922.694	10066
1924.797	10127
1926.898	10041
1929	10210
1931.102	10137
1933.203	10110
1935.301	10056
1937.401	10227
1939.499	10173
1941.598	10151
1943.697	10132
1945.793	10053
1947.888	10115
1949.985	10105
1952.08	10216
1954.176	10135
1956.269	10195
1958.364	10030
1960.457	10116
1962.549	10176
1964.642	10038
1966.733	10131
1968.823	10052
1970.913	10091
1973.005	10160
1975.093	10028
1977.184	10032
1979.271	10081
1981.359	9996
1983.446	9979
1985.532	10114
1987.619	10153
1989.705	10074
1991.789	10119
1993.874	10117
1995.956	9885
1998.041	9964
2000.123	9937
2002.206	10025
2004.287	10058
2006.368	9986
2008.449	10005
2010.529	9921
2012.609	10122
2014.688	9882
2016.766	10021
2018.843	9922
2020.922	9985
2022.999	10027
2025.074	9961
2027.15	10046
2029.225	9995
2031.299	9930
2033.375	10017
2035.447	9935
2037.52	9934
2039.592	10046
2041.664	10020
2043.736	10020
2045.807	10020
2047.876	9960
2049.947	9965
2052.015	9931
2054.086	9897
2056.153	9966
2058.221	10116
2060.288	9973
2062.353	9916
2064.42	9984
2066.486	9950
2068.55	9912
2070.614	9828
2072.678	9943
2074.741	9921
2076.805	10016
2078.866	9864
2080.929	9967
2082.99	10032
2085.049	9959
2087.109	10021
2089.17	9801
2091.228	9948
2093.286	9923
2095.344	9881
2097.4	9939
2099.46	9961
2101.516	9808
2103.572	9984
2105.626	10080
2107.679	9897
2109.735	10034
2111.788	10041
2113.841	9992
2115.894	10026
2117.945	9965
2119.997	9901
2122.049	9894
2124.1	9987
2126.148	9917
2128.197	10026
2130.246	9943
2132.296	9774
2134.342	10051
2136.39	9977
2138.437	9681
2140.483	9891
2142.527	10068
2144.574	9876
2146.619	9984
2148.661	9846
2150.705	9804
2152.747	10033
2154.792	9815
2156.832	9885
2158.874	9938
2160.915	9774
2162.954	9725
2164.995	9891
2167.034	9763
2169.072	9873
2171.111	9754
2173.148	9750
2175.186	9726
2177.223	9819
2179.258	9713
2181.294	9866
2183.328	9775
2185.362	9721
2187.398	9895
2189.431	9754
2191.463	9544
2193.495	9827
2195.528	9704
2197.56	9814
2199.59	9708
2201.62	9766
2203.649	9703
2205.678	9738
2207.708	9751
2209.737	9635
2211.764	9734
2213.791	9816
2215.817	9603
2217.843	9549
2219.87	9674
2221.895	9548
2223.919	9570
2225.942	9762
2227.966	9547
2229.988	9698
2232.012	9623
2234.032	9797
2236.054	9584
2238.074	9657
2240.095	9834
2242.116	9615
2244.135	9671
2246.153	9501
2248.171	9653
2250.188	9657
2252.208	9717
2254.223	9593
2256.239	9622
2258.255	9654
2260.269	9574
2262.283	9685
2264.3	9609
2266.312	9604
2268.325	9645
2270.336	9624
2272.349	9554
2274.362	9642
2276.372	9525
2278.383	9664
2280.392	9511
2282.402	9505
2284.409	9661
2286.418	9549
2288.427	9661
2290.433	9676
2292.441	9628
2294.446	9647
2296.453	9606
2298.459	9555
2300.463	9341
2302.466	9540
2304.471	9567
2306.475	9479
2308.477	9712
2310.478	9560
2312.481	9581
2314.481	9461
2316.481	9388
2318.482	9560
2320.482	9484
2322.48	9611
2324.48	9494
2326.478	9409
2328.476	9506
2330.473	9465
2332.469	9447
2334.465	9433
2336.46	9454
2338.454	9432
2340.45	9371
2342.444	9372
2344.437	9448
2346.43	9518
2348.421	9345
2350.414	9402
2352.405	9381
2354.396	9314
2356.386	9192
2358.376	9268
2360.366	9357
2362.355	9468
2364.343	9254
2366.331	9362
2368.317	9470
2370.304	9216
2372.292	9404
2374.278	9253
2376.262	9363
2378.247	9219
2380.23	9233
2382.216	9226
2384.199	9224
2386.181	9279
2388.163	9329
2390.144	9174
2392.127	9247
2394.107	9200
2396.087	9070
2398.066	9205
2400.046	9311
2402.023	9133
2404.004	9025
2405.981	9160
2407.957	9194
2409.934	9186
2411.91	9075
2413.886	9345
2415.862	9036
2417.836	9234
2419.809	9162
2421.784	9109
2423.756	9231
2425.73	9160
2427.701	9248
2429.672	9211
2431.644	9292
2433.615	9094
2435.586	9242
2437.555	9140
2439.523	9225
2441.491	9077
2443.459	9159
2445.428	9169
2447.395	9123
2449.361	9141
2451.327	9158
2453.292	9135
2455.257	9274
2457.223	9144
2459.187	9060
2461.15	9107
2463.113	9083
2465.076	9148
2467.039	9166
2468.999	9096
2470.96	9158
2472.921	9070
2474.881	9098
2476.841	9000
2478.8	9131
2480.759	9071
2482.717	9043
2484.675	9065
2486.63	8953
2488.589	9104
2490.545	9068
2492.5	8940
2494.455	9009
2496.408	8966
2498.364	9026
2500.318	9042
2502.27	9026
2504.223	8899
2506.174	9098
2508.126	8927
2510.078	8743
2512.03	8952
2513.979	9067
2515.927	8918
2517.877	8997
2519.826	8969
2521.775	8945
2523.722	8882
2525.668	9004
2527.616	8941
2529.561	8902
2531.508	8891
2533.452	8906
2535.398	8961
2537.342	8949
2539.284	8998
2541.229	8902
2543.173	8887
2545.114	8863
2547.055	8889
2548.996	8944
2550.938	8866
2552.878	8874
2554.817	8861
2556.756	8838
2558.695	8964
2560.633	8862
2562.572	8843
2564.509	9108
2566.445	8906
2568.382	8933
2570.317	8858
2572.254	8879
2574.189	8868
2576.123	8826
2578.057	8886
2579.99	8707
2581.923	8784
2583.855	8889
2585.788	9001
2587.719	8821
2589.65	8813
2591.579	8837
2593.511	8792
2595.44	8873
2597.37	8742
2599.297	8882
2601.225	8906
2603.153	8886
2605.08	8894
2607.007	8838
2608.932	8913
2610.858	8821
2612.782	8900
2614.709	8834
2616.632	8851
2618.556	8866
2620.478	8990
2622.401	8733
2624.324	8930
2626.247	8784
2628.167	8978
2630.088	8851
2632.008	8862
2633.928	8888
2635.848	8801
2637.766	8757
2639.684	8881
2641.603	9029
2643.519	8830
2645.437	8962
2647.353	8891
2649.27	8877
2651.184	8940
2653.099	8871
2655.014	8781
2656.928	8923
2658.842	8819
2660.755	8957
2662.667	8952
2664.579	8784
2666.491	8899
2668.402	8849
2670.312	8804
2672.222	8785
2674.132	8768
2676.042	8776
2677.951	8859
2679.859	8627
2681.766	8676
2683.674	8593
2685.582	8726
2687.488	8690
2689.392	8737
2691.298	8779
2693.202	8707
2695.107	8740
2697.012	8654
2698.914	8895
2700.817	8711
2702.72	8618
2704.622	8585
2706.524	8814
2708.425	8605
2710.326	8568
2712.225	8670
2714.125	8590
2716.024	8905
2717.923	8537
2719.822	8598
2721.719	8534
2723.616	8548
2725.512	8670
2727.41	8657
2729.305	8476
2731.201	8573
2733.095	8655
2734.99	8620
2736.884	8621
2738.778	8469
2740.67	8398
2742.562	8560
2744.455	8567
2746.346	8543
2748.238	8603
2750.129	8439
2752.018	8571
2753.907	8580
2755.797	8601
2757.687	8473
2759.575	8400
2761.462	8514
2763.349	8471
2765.237	8652
2767.124	8513
2769.009	8410
2770.894	8520
2772.779	8700
2774.663	8412
2776.547	8603
2778.431	8504
2780.314	8380
2782.197	8516
2784.078	8460
2785.96	8493
2787.842	8525
2789.723	8595
2791.603	8414
2793.483	8471
2795.362	8334
2797.241	8507
2799.121	8388
2800.997	8401
2802.874	8422
2804.751	8444
2806.628	8407
2808.506	8432
2810.38	8388
2812.255	8511
2814.13	8411
2816.003	8432
2817.878	8423
2819.752	8337
2821.623	8470
2823.496	8311
2825.368	8425
2827.238	8469
2829.111	8467
2830.98	8376
2832.851	8392
2834.719	8386
2836.589	8364
2838.458	8481
2840.327	8453
2842.193	8372
2844.061	8457
2845.927	8488
2847.794	8387
2849.66	8340
2851.525	8461
2853.39	8327
2855.254	8487
2857.117	8505
2858.983	8344
2860.845	8409
2862.707	8524
2864.569	8552
2866.431	8449
2868.293	8545
2870.154	8595
2872.013	8666
2873.873	8571
2875.733	8692
2877.592	8874
2879.451	8747
2881.309	8897
2883.166	8956
2885.022	8893
2886.879	8941
2888.736	8966
2890.591	8846
2892.446	8951
2894.301	8932
2896.155	8944
2898.009	8913
2899.863	8948
2901.716	8863
2903.568	8892
2905.419	8915
2907.27	8993
2909.123	8962
2910.973	8918
2912.824	8869
2914.673	8859
2916.521	9056
2918.372	9137
2920.22	9134
2922.067	9082
2923.914	9159
2925.761	9208
2927.607	9363
2929.455	9180
2931.301	9287
2933.144	9416
2934.99	9335
2936.833	9359
2938.678	9451
2940.522	9500
2942.364	9682
2944.207	9796
2946.048	9700
2947.891	9711
2949.731	9872
2951.571	9659
2953.412	9817
2955.25	9639
2957.09	9645
2958.93	9596
2960.767	9710
2962.606	9381
2964.443	9473
2966.279	9352
2968.116	9168
2969.953	9161
2971.788	9136
2973.623	9060
2975.457	8998
2977.292	8912
2979.127	8975
2980.959	9005
2982.792	8784
2984.624	8794
2986.455	8797
2988.288	8731
2990.119	8670
2991.949	8660
2993.779	8690
2995.608	8585
2997.439	8583
2999.268	8614
3001.096	8385
3002.923	8318
3004.751	8290
3006.578	8305
3008.406	8268
3010.232	8256
3012.057	8236
3013.883	8182
3015.706	8092
3017.532	8194
3019.356	8307
3021.179	7998
3023.002	7989
3024.823	8050
3026.646	8072
3028.469	7881
3030.289	7905
3032.11	7886
3033.93	7972
3035.749	7885
3037.57	7888
3039.39	7950
3041.207	7908
3043.026	7925
3044.842	7879
3046.661	7849
3048.477	7909
3050.294	7766
3052.109	7815
3053.925	7871
3055.739	7778
3057.555	7980
3059.368	7907
3061.181	7857
3062.995	7726
3064.807	7714
3066.62	7708
3068.433	7815
3070.243	7661
3072.054	7711
3073.865	7795
3075.675	7666
3077.485	7717
3079.293	7712
3081.102	7748
3082.911	7716
3084.719	7789
3086.527	7703
3088.333	7711
3090.139	7722
3091.945	7550
3093.75	7727
3095.557	7520
3097.361	7524
3099.165	7569
3100.969	7513
3102.772	7560
3104.575	7556
3106.379	7538
3108.181	7590
3109.982	7546
3111.783	7526
3113.584	7567
3115.386	7501
3117.186	7498
3118.985	7481
3120.783	7431
3122.582	7461
3124.381	7408
3126.179	7456
3127.975	7460
3129.772	7416
3131.569	7339
3133.365	7397
3135.161	7405
3136.956	7376
3138.751	7392
3140.544	7459
3142.338	7472
3144.132	7205
3145.925	7426
3147.717	7387
3149.509	7264
3151.301	7337
3153.091	7336
3154.884	7329
3156.673	7290
3158.462	7373
3160.252	7263
3162.041	7275
3163.831	7255
3165.618	7220
3167.405	7288
3169.193	7288
3170.979	7245
3172.767	7216
3174.553	7348
3176.338	7184
3178.123	7404
3179.907	7173
3181.692	7104
3183.477	7240
3185.259	7217
3187.042	7098
3188.824	7228
3190.607	7126
3192.389	7233
3194.17	7245
3195.951	7313
3197.73	7180
3199.51	7254
3201.289	7180
3203.07	7143
3204.848	7247
3206.626	7198
3208.403	7238
3210.18	7192
3211.959	7214
3213.735	7172
3215.511	7176
3217.285	7146
3219.06	7048
3220.836	7160
3222.611	7139
3224.384	7118
3226.158	7178
3227.929	7109
3229.702	7145
3231.476	7144
3233.248	7021
3235.018	7133
3236.789	7052
3238.56	7126
3240.33	6995
3242.1	7142
3243.869	7058
3245.637	7132
3247.405	7087
3249.172	7053
3250.941	7147
3252.707	7216
3254.474	7151
3256.24	7165
3258.006	6977
3259.772	7083
3261.537	7060
3263.301	7117
3265.065	7063
3266.828	7142
3268.592	7150
3270.355	7133
3272.117	7069
3273.878	7098
3275.64	7034
3277.401	6950
3279.162	7053
3280.922	7098
3282.682	7114
3284.441	7144
3286.199	7198
3287.959	7020
3289.716	7030
3291.475	7028
3293.232	6935
3294.988	6974
3296.744	6988
3298.501	7119
3300.256	7105
3302.011	6908
3303.766	7064
3305.52	7026
3307.275	6960
3309.028	7057
3310.781	7050
3312.533	7028
3314.285	7053
3316.038	6961
3317.789	6967
3319.54	6928
3321.289	7003
3323.039	6921
3324.789	6962
3326.539	6985
3328.288	6935
3330.035	7078
3331.783	7036
3333.531	6976
3335.28	6944
3337.025	6986
3338.771	6859
3340.518	6903
3342.262	6764
3344.009	6999
3345.753	6855
3347.497	6751
3349.24	6926
3350.983	6882
3352.726	6958
3354.469	6743
3356.212	6868
3357.952	6897
3359.694	6936
3361.434	6867
3363.176	6702
3364.916	6819
3366.654	6802
3368.394	6797
3370.132	6784
3371.871	6763
3373.61	6742
3375.346	6776
3377.083	6864
3378.82	6745
3380.556	6804
3382.292	6802
3384.027	6793
3385.763	6722
3387.497	6761
3389.231	6735
3390.965	6760
3392.698	6643
3394.431	6705
3396.164	6614
3397.896	6680
3399.627	6608
3401.36	6626
3403.09	6713
3404.82	6594
3406.55	6705
3408.279	6568
3410.01	6657
3411.738	6754
3413.467	6621
3415.194	6653
3416.92	6693
3418.647	6704
3420.375	6585
3422.102	6549
3423.827	6556
3425.553	6596
3427.277	6674
3429.003	6607
3430.727	6591
3432.451	6543
3434.173	6482
3435.896	6594
3437.62	6593
3439.343	6652
3441.063	6498
3442.785	6636
3444.505	6435
3446.226	6536
3447.948	6637
3449.666	6443
3451.386	6550
3453.104	6461
3454.823	6576
3456.541	6293
3458.259	6367
3459.976	6369
3461.693	6417
3463.408	6330
3465.125	6329
3466.841	6330
3468.556	6325
3470.271	6255
3471.985	6333
3473.698	6372
3475.414	6385
3477.126	6272
3478.838	6377
3480.55	6331
3482.263	6323
3483.975	6205
3485.686	6270
3487.396	6251
3489.106	6236
3490.817	6263
3492.526	6185
3494.236	6303
3495.944	6197
3497.652	6345
3499.359	6206
3501.066	6194
3502.775	6256
3504.481	6233
3506.187	6168
3507.893	6284
3509.598	6106
3511.304	6178
3513.009	6135
3514.713	6084
3516.417	6172
3518.12	6139
3519.821	6211
3521.525	6063
3523.228	6162
3524.929	6056
3526.631	6032
3528.33	5976
3530.032	6054
3531.733	6112
3533.433	6037
3535.131	6107
3536.83	6039
3538.529	6097
3540.227	5998
3541.925	6065
3543.623	6001
3545.319	6120
3547.016	5923
3548.712	6084
3550.408	5959
3552.103	6059
3553.798	6073
3555.491	6027
3557.188	5929
3558.88	5952
3560.574	5865
3562.266	5944
3563.959	5972
3565.651	5939
3567.343	5983
3569.035	6020
3570.725	5942
3572.415	5987
3574.106	5830
3575.797	5929
3577.485	5828
3579.174	5910
3580.863	5945
3582.551	5894
3584.238	5933
3585.926	5905
3587.613	5818
3589.3	5804
3590.986	5778
3592.671	5743
3594.357	5858
3596.042	5844
3597.726	5772
3599.41	5759
3601.094	5764
3602.778	5692
3604.461	5697
3606.143	5733
3607.825	5781
3609.507	5673
3611.188	5767
3612.87	5788
3614.551	5754
3616.229	5661
3617.909	5661
3619.589	5652
3621.269	5672
3622.948	5637
3624.625	5676
3626.302	5682
3627.98	5613
3629.657	5540
3631.334	5666
3633.01	5588
3634.686	5587
3636.361	5559
3638.036	5658
3639.712	5574
3641.385	5496
3643.06	5584
3644.732	5517
3646.405	5545
3648.08	5533
3649.751	5529
3651.424	5625
3653.094	5582
3654.766	5481
3656.436	5495
3658.106	5559
3659.777	5485
3661.446	5473
3663.115	5449
3664.783	5477
3666.452	5520
3668.121	5263
3669.788	5470
3671.454	5451
3673.121	5439
3674.789	5382
3676.455	5551
3678.12	5402
3679.784	5493
3681.45	5335
3683.114	5478
3684.779	5383
3686.442	5381
3688.105	5442
3689.768	5445
3691.43	5325
3693.093	5458
3694.754	5291
3696.415	5357
3698.076	5365
3699.736	5399
3701.396	5360
3703.057	5372
3704.716	5341
3706.375	5365
3708.034	5356
3709.692	5317
3711.351	5303
3713.008	5330
3714.665	5357
3716.321	5390
3717.977	5339
3719.634	5260
3721.29	5317
3722.945	5389
3724.598	5349
3726.253	5296
3727.907	5221
3729.561	5296
3731.214	5210
3732.867	5333
3734.518	5356
3736.171	5323
3737.824	5325
3739.474	5208
3741.125	5174
3742.775	5205
3744.425	5223
3746.074	5215
3747.725	5113
3749.373	5185
3751.022	5216
3752.669	5197
3754.318	5250
3755.966	5177
3757.612	5162
3759.259	5225
3760.905	5183
3762.55	5099
3764.197	5170
3765.842	5181
3767.486	5034
3769.131	5169
3770.774	5149
3772.417	5117
3774.061	5121
3775.705	5234
3777.347	5173
3778.988	5087
3780.629	5041
3782.271	5086
3783.912	5105
3785.552	5104
3787.192	5033
3788.831	5112
3790.472	5156
3792.112	5211
3793.75	5087
3795.388	5089
3797.024	5207
3798.661	5090
3800.3	5075
3801.936	5066
3803.572	5051
3805.208	5035
3806.844	4965
3808.48	5078
3810.115	4985
3811.748	5048
3813.382	4962
3815.016	4954
3816.649	4983
3818.283	4968
3819.914	5016
3821.547	4940
3823.178	4875
3824.809	4908
3826.441	4890
3828.072	4952
3829.701	4941
3831.331	5007
3832.96	4960
3834.591	4931
3836.219	4916
3837.847	4878
3839.475	4898
3841.102	4960
3842.729	4864
3844.357	4882
3845.984	4800
3847.609	4903
3849.234	4875
3850.86	4829
3852.485	4847
3854.11	4773
3855.734	4893
3857.357	4874
3858.981	4801
3860.603	4842
3862.227	4766
3863.848	4788
3865.471	4894
3867.092	4879
3868.713	4758
3870.334	4869
3871.954	4777
3873.575	4787
3875.194	4744
3876.813	4791
3878.433	4836
3880.051	4796
3881.669	4710
3883.286	4828
3884.904	4748
3886.52	4726
3888.138	4766
3889.754	4663
3891.37	4797
3892.985	4829
3894.6	4629
3896.216	4723
3897.831	4750
3899.444	4675
3901.058	4683
3902.67	4552
3904.283	4780
3905.897	4851
3907.509	4690
3909.121	4672
3910.731	4643
3912.342	4669
3913.954	4777
3915.563	4613
3917.174	4680
3918.783	4615
3920.391	4778
3922.002	4618
3923.611	4627
3925.218	4641
3926.826	4658
3928.432	4635
3930.039	4560
3931.647	4648
3933.253	4717
3934.859	4539
3936.464	4700
3938.068	4610
3939.675	4669
3941.278	4535
3942.883	4685
3944.486	4603
3946.089	4630
3947.692	4553
3949.295	4649
3950.898	4616
3952.499	4600
3954.1	4669
3955.7	4605
3957.303	4530
3958.903	4658
3960.502	4630
3962.101	4553
3963.7	4563
3965.301	4554
3966.899	4515
3968.497	4553
3970.094	4502
3971.691	4565
3973.288	4594
3974.885	4493
3976.481	4560
3978.077	4459
3979.672	4564
3981.267	4496
3982.863	4444
3984.457	4484
3986.051	4574
3987.645	4541
3989.238	4404
3990.831	4411
3992.425	4430
3994.017	4491
3995.607	4377
3997.199	4408
3998.79	4403
4000.382	4410
4001.973	4569
4003.561	4370
4005.151	4408
4006.741	4370
4008.331	4432
4009.918	4386
4011.507	4263
4013.095	4435
4014.681	4387
4016.269	4373
4017.856	4297
4019.443	4312
4021.028	4388
4022.614	4233
4024.199	4350
4025.785	4273
4027.37	4291
4028.953	4318
4030.536	4380
4032.12	4324
4033.704	4293
4035.287	4260
4036.869	4258
4038.45	4243
4040.032	4256
4041.613	4289
4043.195	4223
4044.776	4378
4046.356	4205
4047.935	4249
4049.515	4253
4051.095	4277
4052.674	4218
4054.251	4234
4055.829	4293
4057.406	4261
4058.985	4273
4060.562	4185
4062.139	4206
4063.715	4175
4065.29	4182
4066.865	4211
4068.442	4224
4070.016	4165
4071.59	4177
4073.164	4214
4074.738	4206
4076.312	4141
4077.885	4033
4079.458	4176
4081.03	4203
4082.602	4153
4084.173	4134
4085.745	4187
4087.315	4117
4088.886	4173
4090.456	4059
4092.026	4105
4093.596	4135
4095.165	4197
4096.734	4145
4098.301	4113
4099.869	4116
4101.437	4071
4103.006	4100
4104.572	4119
4106.139	4078
4107.704	4188
4109.27	4102
4110.837	4116
4112.401	4049
4113.966	4056
4115.53	4063
4117.094	4095
4118.659	4077
4120.223	4075
4121.785	4016
4123.347	4019
4124.909	3997
4126.471	3984
4128.034	3995
4129.595	3956
4131.155	3992
4132.716	3950
4134.275	3945
4135.836	4002
4137.395	3913
4138.955	3988
4140.513	3903
4142.071	3941
4143.628	3863
4145.188	3863
4146.745	3956
4148.302	3914
4149.858	3935
4151.414	3873
4152.971	4006
4154.526	3947
4156.081	3838
4157.635	3945
4159.189	3926
4160.745	3862
4162.298	3976
4163.852	3889
4165.405	3852
4166.957	3990
4168.51	3865
4170.063	3878
4171.614	3910
4173.166	3884
4174.717	3848
4176.267	3884
4177.817	3818
4179.368	3812
4180.917	3893
4182.466	3808
4184.016	3921
4185.564	3865
4187.112	3775
4188.66	3788
4190.207	3669
4191.754	3871
4193.301	3749
4194.848	3804
4196.394	3848
4197.94	3831
4199.484	3701
4201.03	3727
4202.575	3713
4204.12	3664
4205.663	3749
4207.207	3690
4208.75	3787
4210.292	3696
4211.836	3718
4213.378	3713
4214.92	3722
4216.46	3732
4218.002	3775
4219.544	3793
4221.083	3673
4222.625	3773
4224.164	3760
4225.703	3697
4227.244	3718
4228.782	3816
4230.32	3726
4231.857	3700
4233.395	3650
4234.933	3736
4236.471	3727
4238.007	3726
4239.542	3671
4241.078	3642
4242.614	3612
4244.15	3618
4245.685	3698
4247.219	3604
4248.753	3620
4250.287	3662
4251.82	3718
4253.354	3706
4254.887	3681
4256.419	3672
4257.951	3598
4259.483	3635
4261.016	3665
4262.547	3594
4264.078	3673
4265.608	3613
4267.137	3577
4268.668	3626
4270.197	3623
4271.727	3571
4273.254	3567
4274.783	3606
4276.311	3604
4277.84	3655
4279.366	3639
4280.894	3537
4282.42	3501
4283.946	3564
4285.473	3552
4286.998	3499
4288.523	3619
4290.047	3539
4291.572	3541
4293.096	3525
4294.622	3503
4296.144	3538
4297.668	3558
4299.19	3518
4300.713	3563
4302.236	3460
4303.758	3447
4305.279	3520
4306.799	3477
4308.321	3521
4309.842	3496
4311.361	3491
4312.882	3556
4314.401	3598
