400.0961	4037
402.6185	4112
405.1424	4021
407.6635	4018
410.1838	4001
412.7035	4091
415.2225	4022
417.7388	4098
420.2585	4182
422.7754	4139
425.2917	4203
427.8072	4219
430.3221	4237
432.8363	4267
435.3498	4228
437.8626	4301
440.3727	4250
442.8841	4370
445.3969	4348
447.907	4354
450.4142	4296
452.9229	4266
455.4289	4261
457.9362	4299
460.4449	4248
462.9488	4244
465.454	4218
467.9566	4292
470.4604	4304
472.9637	4242
475.4662	4256
477.966	4251
480.4671	4357
482.9656	4316
485.4633	4323
487.9645	4366
490.4608	4304
492.9566	4310
495.4536	4321
497.948	4414
500.4437	4325
502.9387	4400
505.431	4353
507.9226	4324
510.4136	4388
512.9079	4380
515.3975	4394
517.8864	4460
520.3746	4415
522.8622	4398
525.3491	4389
527.8394	4445
530.3249	4435
532.8098	4453
535.2939	4455
537.7774	4506
540.2623	4445
542.7444	4513
545.2259	4494
547.7067	4420
550.1868	4389
552.6683	4466
555.147	4368
557.6231	4429
560.1005	4436
562.5773	4436
565.0534	4534
567.5308	4549
570.0056	4457
572.4776	4520
574.951	4574
577.4237	4619
579.8978	4675
582.3671	4649
584.8378	4596
587.3079	4555
589.7773	4649
592.244	4682
594.714	4600
597.1793	4673
599.6461	4600
602.1121	4601
604.5754	4646
607.0421	4619
609.5042	4614
611.9675	4584
614.4282	4625
616.8902	4587
619.3515	4590
621.8122	4576
624.2702	4602
626.7296	4616
629.1863	4619
631.6423	4667
634.1017	4536
636.5563	4575
639.0104	4528
641.4658	4623
643.9185	4643
646.3725	4595
648.8239	4643
651.2766	4600
653.7266	4678
656.176	4698
658.6247	4642
661.0748	4669
663.5242	4741
665.9709	4712
668.417	4780
670.8624	4660
673.3092	4679
675.7533	4719
678.1968	4687
680.6395	4782
683.0817	4853
685.5251	4748
687.9659	4826
690.4061	4736
692.8456	4749
695.2844	4824
697.7226	4810
700.1621	4765
702.599	4818
705.0332	4887
707.4688	4856
709.9036	4935
712.3399	4863
714.7735	4841
717.2044	4745
719.6367	4870
722.0683	4847
724.4993	4844
726.9296	4921
729.3593	4985
731.7883	4967
734.2147	4930
736.6423	5064
739.0714	4929
741.4958	4931
743.9216	4998
746.3447	4951
748.7691	4969
751.1929	4986
753.616	5087
756.0366	5119
758.4584	5074
760.8776	4990
763.2982	5146
765.718	5129
768.1373	5096
770.5539	4991
772.9698	5153
775.3871	5057
777.8038	5029
780.2178	5191
782.6332	5224
785.0459	5091
787.458	5172
789.8714	5206
792.2842	5096
794.6943	5192
797.1038	5111
799.5127	5067
801.9209	5077
804.3324	5069
806.7393	5165
809.1456	5208
811.5513	5136
813.9562	5226
816.3625	5179
818.7663	5238
821.1693	5233
823.5718	5174
825.9735	5217
828.3746	5250
830.7771	5244
833.177	5231
835.5762	5129
837.9747	5212
840.3727	5211
842.772	5320
845.1666	5223
847.5626	5279
849.958	5285
852.3527	5421
854.7488	5374
857.1403	5308
859.5331	5452
861.9253	5330
864.3168	5409
866.7057	5331
869.098	5332
871.4876	5455
873.8746	5363
876.263	5163
878.6487	5332
881.0378	5341
883.4243	5311
885.8081	5229
888.1933	5232
890.5759	5279
892.9598	5266
895.343	5321
897.7256	5273
900.1057	5287
902.4871	5304
904.8659	5344
907.246	5320
909.6254	5352
912.0023	5320
914.3786	5487
916.7562	5510
919.1331	5663
921.5074	5642
923.8831	5760
926.2562	5760
928.6287	5793
931.0005	5642
933.3757	5693
935.7462	5729
938.1162	5523
940.4855	5667
942.8542	5679
945.2242	5784
947.5916	5799
949.9584	5898
952.3266	6051
954.6921	6088
957.0571	6363
959.4233	6591
961.787	6714
964.15	6633
966.5125	6397
968.8742	6316
971.2354	5990
973.5959	5936
975.9559	5789
978.3151	5687
980.6738	5605
983.0338	5534
985.3912	5564
987.7461	5548
990.1022	5509
992.4578	5506
994.8127	5545
997.1689	5552
999.5207	5425
1001.874	5623
1004.226	5656
1006.576	5513
1008.929	5570
1011.28	5574
1013.628	5459
1015.977	5574
1018.324	5552
1020.674	5522
1023.019	5508
1025.366	5605
1027.713	5536
1030.056	5701
1032.399	5580
1034.746	5635
1037.087	5609
1039.431	5625
1041.771	5583
1044.113	5569
1046.454	5470
1048.793	5664
1051.133	5539
1053.471	5548
1055.807	5670
1058.146	5730
1060.483	5554
1062.818	5636
1065.153	5677
1067.489	5649
1069.822	5638
1072.156	5737
1074.488	5741
1076.82	5684
1079.15	5691
1081.48	5758
1083.814	5711
1086.143	5633
1088.471	5606
1090.799	5606
1093.126	5661
1095.452	5791
1097.78	5608
1100.105	5669
1102.43	5636
1104.754	5610
1107.077	5658
1109.4	5584
1111.722	5583
1114.044	5627
1116.365	5747
1118.685	5626
1121.005	5662
1123.324	5655
1125.643	5671
1127.961	5655
1130.278	5781
1132.595	5712
1134.911	5672
1137.226	5611
1139.541	5594
1141.854	5665
1144.167	5594
1146.482	5648
1148.793	5565
1151.105	5701
1153.414	5687
1155.725	5673
1158.033	5651
1160.344	5718
1162.651	5756
1164.959	5709
1167.265	5716
1169.572	5672
1171.878	5720
1174.184	5819
1176.488	5760
1178.79	5682
1181.094	5706
1183.396	5633
1185.699	5717
1188.001	5747
1190.301	5745
1192.6	5720
1194.9	5707
1197.2	5641
1199.497	5676
1201.794	5703
1204.09	5589
1206.387	5705
1208.684	5726
1210.978	5678
1213.272	5666
1215.565	5791
1217.858	5715
1220.15	5691
1222.443	5749
1224.734	5697
1227.024	5739
1229.313	5803
1231.602	5748
1233.892	5828
1236.18	5961
1238.467	5866
1240.754	5899
1243.04	5922
1245.325	5963
1247.612	5937
1249.896	5979
1252.178	5958
1254.461	5975
1256.743	6068
1259.027	6027
1261.308	5865
1263.587	6072
1265.867	5971
1268.146	5934
1270.425	6061
1272.703	5896
1274.981	5953
1277.256	5873
1279.532	5896
1281.808	5849
1284.083	6019
1286.358	5872
1288.63	5879
1290.904	5762
1293.175	5889
1295.449	5861
1297.719	5892
1299.99	5836
1302.259	5840
1304.529	5829
1306.798	5864
1309.065	5893
1311.333	5972
1313.599	5915
1315.866	5922
1318.131	5907
1320.396	5931
1322.66	5880
1324.925	5994
1327.187	5821
1329.448	5923
1331.711	6015
1333.974	5967
1336.234	5937
1338.493	6008
1340.752	5890
1343.01	5831
1345.269	5844
1347.526	5892
1349.784	5928
1352.04	5925
1354.295	5819
1356.552	5942
1358.806	5766
1361.059	5957
1363.312	5904
1365.564	5920
1367.818	5763
1370.069	5885
1372.318	5896
1374.568	5867
1376.817	5954
1379.066	5880
1381.316	5883
1383.564	5982
1385.809	5837
1388.056	6020
1390.301	6080
1392.549	6016
1394.793	6197
1397.036	6200
1399.279	6331
1401.522	6278
1403.763	6222
1406.007	6209
1408.248	6155
1410.487	6126
1412.727	6244
1414.965	6136
1417.205	6128
1419.442	6128
1421.68	6134
1423.915	6122
1426.152	6077
1428.388	6110
1430.623	6090
1432.857	6208
1435.091	6106
1437.323	6099
1439.556	6311
1441.789	6226
1444.019	6248
1446.25	6301
1448.48	6216
1450.708	6156
1452.938	6374
1455.167	6356
1457.394	6461
1459.62	6329
1461.846	6357
1464.073	6209
1466.299	6270
1468.523	6285
1470.746	6064
1472.969	6133
1475.191	6193
1477.415	6050
1479.636	6043
1481.858	5949
1484.078	5923
1486.298	5932
1488.518	5907
1490.736	5912
1492.954	5890
1495.169	5827
1497.386	5909
1499.602	5923
1501.819	5862
1504.034	5826
1506.248	5899
1508.462	5926
1510.675	5936
1512.888	5738
1515.1	5900
1517.311	5930
1519.522	5949
1521.732	5811
1523.942	5834
1526.151	5823
1528.36	5842
1530.566	5779
1532.773	5805
1534.98	5845
1537.187	5880
1539.392	5867
1541.596	5944
1543.801	5927
1546.005	5920
1548.208	5839
1550.411	5966
1552.612	5924
1554.814	5995
1557.013	5923
1559.212	5977
1561.414	6086
1563.612	5973
1565.811	6052
1568.007	6080
1570.203	6087
1572.403	6005
1574.598	6008
1576.792	5943
1578.988	6045
1581.181	5892
1583.376	6042
1585.568	6105
1587.761	6095
1589.952	6096
1592.143	5981
1594.333	6123
1596.524	6038
1598.715	6195
1600.903	6116
1603.091	6007
1605.278	6233
1607.466	6016
1609.652	6063
1611.838	6050
1614.023	6054
1616.207	6024
1618.391	6150
1620.576	6099
1622.759	6054
1624.941	6036
1627.123	6146
1629.304	6064
1631.484	6161
1633.664	6115
1635.844	6172
1638.022	6177
1640.201	6109
1642.38	6274
1644.556	6121
1646.732	6081
1648.908	6143
1651.084	6165
1653.257	6173
1655.433	6132
1657.607	6175
1659.779	6243
1661.951	6297
1664.122	6345
1666.295	6249
1668.467	6183
1670.635	6186
1672.805	6297
1674.973	6207
1677.142	6287
1679.31	6167
1681.478	6241
1683.644	6177
1685.81	6152
1687.975	6064
1690.142	6238
1692.305	6218
1694.468	6106
1696.632	6118
1698.794	6122
1700.957	6213
1703.119	6107
1705.279	6075
1707.439	6096
1709.598	6100
1711.758	6092
1713.917	6130
1716.075	6066
1718.231	6097
1720.388	5999
1722.543	5986
1724.702	5993
1726.856	5951
1729.01	5978
1731.164	6062
1733.317	6033
1735.471	6096
1737.623	6091
1739.774	6050
1741.925	6176
1744.075	6027
1746.225	6063
1748.376	6048
1750.524	6055
1752.672	6059
1754.82	6002
1756.965	6173
1759.113	6122
1761.259	6066
1763.405	6178
1765.549	6042
1767.694	6048
1769.836	6162
1771.981	6055
1774.123	6149
1776.264	6119
1778.405	6155
1780.546	6103
1782.687	6111
1784.827	6095
1786.966	6116
1789.103	6119
1791.242	6179
1793.381	6132
1795.517	6127
1797.653	6085
1799.788	6158
1801.923	6229
1804.057	6071
1806.193	6101
1808.326	6069
1810.457	6045
1812.59	6045
1814.721	6206
1816.855	6080
1818.984	6187
1821.113	5977
1823.244	6096
1825.372	6007
1827.499	6015
1829.63	6106
1831.756	6072
1833.882	6093
1836.007	6066
1838.132	6032
1840.26	6123
1842.384	6079
1844.507	6127
1846.63	6104
1848.752	6085
1850.875	6037
1852.996	6038
1855.118	6071
1857.238	6084
1859.358	6013
1861.477	6017
1863.597	6097
1865.715	5949
1867.832	6174
1869.948	6038
1872.064	6024
1874.181	6146
1876.297	6132
1878.411	6012
1880.526	6124
1882.639	6007
1884.752	6004
1886.865	6037
1888.977	6008
1891.089	6062
1893.2	6037
1895.308	6042
1897.42	6022
1899.53	6073
1901.639	6182
1903.745	6058
1905.853	6204
1907.962	6020
1910.067	6079
1912.174	6086
1914.278	6273
1916.383	6145
1918.486	6109
1920.592	6071
1922.694	6092
1924.797	6185
1926.898	6122
1929	6175
1931.102	6044
1933.203	6162
1935.301	6176
1937.401	6247
1939.499	6134
1941.598	6216
1943.697	6178
1945.793	6121
1947.888	6248
1949.985	6165
1952.08	6176
1954.176	6108
1956.269	6148
1958.364	6018
1960.457	6065
1962.549	6198
1964.642	6173
1966.733	6260
1968.823	6100
1970.913	6108
1973.005	6129
1975.093	6124
1977.184	6143
1979.271	6188
1981.359	6171
1983.446	6108
1985.532	6159
1987.619	6077
1989.705	6025
1991.789	6057
1993.874	6123
1995.956	6121
1998.041	6083
2000.123	6108
2002.206	6068
2004.287	6080
2006.368	5974
2008.449	6033
2010.529	6147
2012.609	6014
2014.688	5969
2016.766	6108
2018.843	6023
2020.922	6014
2022.999	6129
2025.074	6061
2027.15	6015
2029.225	5962
2031.299	6084
2033.375	6097
2035.447	6130
2037.52	6021
2039.592	6085
2041.664	5975
2043.736	6075
2045.807	6073
2047.876	6106
2049.947	6049
2052.015	6156
2054.086	6081
2056.153	6123
2058.221	6089
2060.288	5980
2062.353	5932
2064.42	6069
2066.486	6065
2068.55	6162
2070.614	6116
2072.678	6039
2074.741	6025
2076.805	5986
2078.866	6244
2080.929	5871
2082.99	6089
2085.049	6012
2087.109	6122
2089.17	6051
2091.228	6071
2093.286	6063
2095.344	6015
2097.4	6119
2099.46	5949
2101.516	5991
2103.572	6178
2105.626	6064
2107.679	6063
2109.735	6149
2111.788	6042
2113.841	5998
2115.894	6122
2117.945	6000
2119.997	6046
2122.049	5996
2124.1	6054
2126.148	6009
2128.197	6134
2130.246	6043
2132.296	6077
2134.342	6074
2136.39	6076
2138.437	6026
2140.483	6060
2142.527	5996
2144.574	6037
2146.619	6016
2148.661	6085
2150.705	6037
2152.747	6017
2154.792	5933
2156.832	5968
2158.874	5965
2160.915	5969
2162.954	5969
2164.995	6033
2167.034	5994
2169.072	5982
2171.111	6059
2173.148	6061
2175.186	5964
2177.223	5881
2179.258	5944
2181.294	5942
2183.328	5917
2185.362	5850
2187.398	5955
2189.431	5973
2191.463	5978
2193.495	5912
2195.528	5931
2197.56	5890
2199.59	5936
2201.62	5853
2203.649	5889
2205.678	6011
2207.708	5876
2209.737	5877
2211.764	5914
2213.791	5843
2215.817	5939
2217.843	5933
2219.87	5925
2221.895	5931
2223.919	5952
2225.942	5951
2227.966	5923
2229.988	5877
2232.012	5922
2234.032	5896
2236.054	5878
2238.074	5919
2240.095	5990
2242.116	5885
2244.135	5882
2246.153	5868
2248.171	5838
2250.188	5897
2252.208	5811
2254.223	5913
2256.239	5941
2258.255	5784
2260.269	5892
2262.283	5857
2264.3	5908
2266.312	5925
2268.325	5795
2270.336	5807
2272.349	5835
2274.362	5826
2276.372	5869
2278.383	5830
2280.392	5882
2282.402	5865
2284.409	5856
2286.418	5894
2288.427	5873
2290.433	5921
2292.441	5922
2294.446	5937
2296.453	5791
2298.459	5750
2300.463	5906
2302.466	5866
2304.471	5812
2306.475	5919
2308.477	5902
2310.478	5891
2312.481	5848
2314.481	5818
2316.481	5820
2318.482	5810
2320.482	5782
2322.48	5840
2324.48	5711
2326.478	5869
2328.476	5790
2330.473	5773
2332.469	5814
2334.465	5765
2336.46	5801
2338.454	5781
2340.45	5731
2342.444	5768
2344.437	5757
2346.43	5884
2348.421	5782
2350.414	5822
2352.405	5758
2354.396	5835
2356.386	5592
2358.376	5735
2360.366	5856
2362.355	5778
2364.343	5741
2366.331	5716
2368.317	5851
2370.304	5683
2372.292	5732
2374.278	5710
2376.262	5764
2378.247	5642
2380.23	5799
2382.216	5793
2384.199	5661
2386.181	5728
2388.163	5573
2390.144	5599
2392.127	5718
2394.107	5631
2396.087	5780
2398.066	5733
2400.046	5736
2402.023	5668
2404.004	5551
2405.981	5685
2407.957	5638
2409.934	5700
2411.91	5613
2413.886	5626
2415.862	5679
2417.836	5622
2419.809	5816
2421.784	5620
2423.756	5669
2425.73	5572
2427.701	5649
2429.672	5609
2431.644	5720
2433.615	5633
2435.586	5724
2437.555	5694
2439.523	5683
2441.491	5620
2443.459	5588
2445.428	5725
2447.395	5601
2449.361	5587
2451.327	5559
2453.292	5555
2455.257	5550
2457.223	5596
2459.187	5621
2461.15	5621
2463.113	5665
2465.076	5538
2467.039	5651
2468.999	5672
2470.96	5578
2472.921	5637
2474.881	5626
2476.841	5554
2478.8	5574
2480.759	5615
2482.717	5521
2484.675	5537
2486.63	5558
2488.589	5622
2490.545	5577
2492.5	5546
2494.455	5509
2496.408	5514
2498.364	5517
2500.318	5609
2502.27	5468
2504.223	5495
2506.174	5563
2508.126	5512
2510.078	5518
2512.03	5480
2513.979	5542
2515.927	5539
2517.877	5585
2519.826	5501
2521.775	5510
2523.722	5529
2525.668	5555
2527.616	5535
2529.561	5480
2531.508	5501
2533.452	5522
2535.398	5626
2537.342	5414
2539.284	5550
2541.229	5494
2543.173	5574
2545.114	5496
2547.055	5563
2548.996	5503
2550.938	5432
2552.878	5433
2554.817	5460
2556.756	5385
2558.695	5528
2560.633	5517
2562.572	5398
2564.509	5473
2566.445	5474
2568.382	5428
2570.317	5520
2572.254	5435
2574.189	5473
2576.123	5548
2578.057	5497
2579.99	5500
2581.923	5565
2583.855	5472
2585.788	5504
2587.719	5482
2589.65	5578
2591.579	5524
2593.511	5539
2595.44	5598
2597.37	5445
2599.297	5494
2601.225	5514
2603.153	5494
2605.08	5423
2607.007	5500
2608.932	5398
2610.858	5471
2612.782	5413
2614.709	5456
2616.632	5499
2618.556	5443
2620.478	5447
2622.401	5545
2624.324	5462
2626.247	5457
2628.167	5374
2630.088	5579
2632.008	5511
2633.928	5507
2635.848	5504
2637.766	5515
2639.684	5449
2641.603	5406
2643.519	5601
2645.437	5555
2647.353	5465
2649.27	5563
2651.184	5550
2653.099	5515
2655.014	5481
2656.928	5540
2658.842	5597
2660.755	5574
2662.667	5478
2664.579	5505
2666.491	5382
2668.402	5532
2670.312	5352
2672.222	5448
2674.132	5458
2676.042	5438
2677.951	5487
2679.859	5482
2681.766	5466
2683.674	5439
2685.582	5397
2687.488	5431
2689.392	5462
2691.298	5470
2693.202	5392
2695.107	5381
2697.012	5355
2698.914	5438
2700.817	5457
2702.72	5515
2704.622	5440
2706.524	5290
2708.425	5411
2710.326	5307
2712.225	5488
2714.125	5398
2716.024	5360
2717.923	5395
2719.822	5281
2721.719	5480
2723.616	5273
2725.512	5429
2727.41	5262
2729.305	5429
2731.201	5378
2733.095	5325
2734.99	5445
2736.884	5323
2738.778	5452
2740.67	5496
2742.562	5342
2744.455	5350
2746.346	5373
2748.238	5274
2750.129	5351
2752.018	5324
2753.907	5346
2755.797	5378
2757.687	5423
2759.575	5301
2761.462	5356
2763.349	5301
2765.237	5441
2767.124	5263
2769.009	5212
2770.894	5297
2772.779	5391
2774.663	5329
2776.547	5270
2778.431	5267
2780.314	5333
2782.197	5324
2784.078	5263
2785.96	5255
2787.842	5204
2789.723	5295
2791.603	5281
2793.483	5307
2795.362	5362
2797.241	5364
2799.121	5310
2800.997	5372
2802.874	5183
2804.751	5235
2806.628	5268
2808.506	5370
2810.38	5337
2812.255	5307
2814.13	5272
2816.003	5193
2817.878	5285
2819.752	5358
2821.623	5307
2823.496	5285
2825.368	5317
2827.238	5307
2829.111	5288
2830.98	5261
2832.851	5220
2834.719	5338
2836.589	5343
2838.458	5417
2840.327	5213
2842.193	5295
2844.061	5314
2845.927	5360
2847.794	5311
2849.66	5357
2851.525	5339
2853.39	5384
2855.254	5395
2857.117	5430
2858.983	5384
2860.845	5496
2862.707	5392
2864.569	5601
2866.431	5508
2868.293	5548
2870.154	5588
2872.013	5688
2873.873	5689
2875.733	5736
2877.592	5709
2879.451	5885
2881.309	5869
2883.166	5863
2885.022	5895
2886.879	5997
2888.736	6014
2890.591	6027
2892.446	5974
2894.301	5951
2896.155	6046
2898.009	6007
2899.863	5924
2901.716	6027
2903.568	5959
2905.419	5975
2907.27	5903
2909.123	5903
2910.973	5934
2912.824	6012
2914.673	5954
2916.521	6188
2918.372	6123
2920.22	6290
2922.067	6168
2923.914	6214
2925.761	6279
2927.607	6367
2929.455	6378
2931.301	6346
2933.144	6513
2934.99	6462
2936.833	6503
2938.678	6479
2940.522	6558
2942.364	6713
2944.207	6700
2946.048	6698
2947.891	6891
2949.731	6857
2951.571	7034
2953.412	6983
2955.25	6823
2957.09	6820
2958.93	6775
2960.767	6812
2962.606	6700
2964.443	6583
2966.279	6580
2968.116	6489
2969.953	6334
2971.788	6282
2973.623	6242
2975.457	6135
2977.292	6161
2979.127	6055
2980.959	5983
2982.792	5881
2984.624	5837
2986.455	5869
2988.288	5922
2990.119	5784
2991.949	5615
2993.779	5730
2995.608	5654
2997.439	5736
2999.268	5726
3001.096	5533
3002.923	5462
3004.751	5436
3006.578	5409
3008.406	5478
3010.232	5290
3012.057	5347
3013.883	5464
3015.706	5218
3017.532	5230
3019.356	5251
3021.179	5187
3023.002	5159
3024.823	5187
3026.646	5095
3028.469	5167
3030.289	5138
3032.11	5099
3033.93	5176
3035.749	5024
3037.57	5045
3039.39	5097
3041.207	5018
3043.026	5149
3044.842	5035
3046.661	4999
3048.477	5044
3050.294	5048
3052.109	4989
3053.925	5101
3055.739	4870
3057.555	4998
3059.368	4894
3061.181	5027
3062.995	5034
3064.807	4968
3066.62	5007
3068.433	5038
3070.243	4953
3072.054	5034
3073.865	4900
3075.675	4938
3077.485	5108
3079.293	5014
3081.102	4871
3082.911	4896
3084.719	4928
3086.527	4895
3088.333	4930
3090.139	4911
3091.945	4891
3093.75	4922
3095.557	4841
3097.361	4781
3099.165	4866
3100.969	4822
3102.772	4851
3104.575	4807
3106.379	4855
3108.181	4772
3109.982	4921
3111.783	4825
3113.584	4827
3115.386	4771
3117.186	4829
3118.985	4757
3120.783	4789
3122.582	4767
3124.381	4787
3126.179	4776
3127.975	4738
3129.772	4746
3131.569	4839
3133.365	4724
3135.161	4760
3136.956	4721
3138.751	4874
3140.544	4799
3142.338	4814
3144.132	4721
3145.925	4692
3147.717	4744
3149.509	4725
3151.301	4706
3153.091	4821
3154.884	4699
3156.673	4672
3158.462	4747
3160.252	4787
3162.041	4688
3163.831	4769
3165.618	4614
3167.405	4662
3169.193	4611
3170.979	4626
3172.767	4724
3174.553	4730
3176.338	4621
3178.123	4679
3179.907	4652
3181.692	4690
3183.477	4584
3185.259	4664
3187.042	4667
3188.824	4648
3190.607	4711
3192.389	4667
3194.17	4658
3195.951	4635
3197.73	4683
3199.51	4581
3201.289	4598
3203.07	4715
3204.848	4633
3206.626	4747
3208.403	4815
3210.18	4612
3211.959	4610
3213.735	4718
3215.511	4633
3217.285	4650
3219.06	4664
3220.836	4688
3222.611	4660
3224.384	4639
3226.158	4572
3227.929	4584
3229.702	4633
3231.476	4663
3233.248	4643
3235.018	4581
3236.789	4639
3238.56	4633
3240.33	4546
3242.1	4620
3243.869	4526
3245.637	4552
3247.405	4595
3249.172	4663
3250.941	4592
3252.707	4605
3254.474	4595
3256.24	4573
3258.006	4514
3259.772	4570
3261.537	4652
3263.301	4678
3265.065	4601
3266.828	4530
3268.592	4617
3270.355	4551
3272.117	4609
3273.878	4589
3275.64	4663
3277.401	4607
3279.162	4580
3280.922	4538
3282.682	4555
3284.441	4599
3286.199	4660
3287.959	4635
3289.716	4523
3291.475	4637
3293.232	4629
3294.988	4671
3296.744	4569
3298.501	4687
3300.256	4542
3302.011	4570
3303.766	4623
3305.52	4578
3307.275	4571
3309.028	4568
3310.781	4570
3312.533	4551
3314.285	4570
3316.038	4476
3317.789	4608
3319.54	4529
3321.289	4575
3323.039	4570
3324.789	4546
3326.539	4482
3328.288	4492
3330.035	4503
3331.783	4580
3333.531	4496
3335.28	4600
3337.025	4534
3338.771	4581
3340.518	4553
3342.262	4604
3344.009	4418
3345.753	4547
3347.497	4503
3349.24	4480
3350.983	4536
3352.726	4529
3354.469	4517
3356.212	4501
3357.952	4514
3359.694	4561
3361.434	4491
3363.176	4451
3364.916	4476
3366.654	4405
3368.394	4454
3370.132	4475
3371.871	4417
3373.61	4465
3375.346	4397
3377.083	4519
3378.82	4408
3380.556	4459
3382.292	4415
3384.027	4404
3385.763	4454
3387.497	4433
3389.231	4428
3390.965	4404
3392.698	4406
3394.431	4291
3396.164	4401
3397.896	4375
3399.627	4379
3401.36	4323
3403.09	4544
3404.82	4355
3406.55	4443
3408.279	4360
3410.01	4377
3411.738	4384
3413.467	4328
3415.194	4276
3416.92	4484
3418.647	4326
3420.375	4342
3422.102	4268
3423.827	4363
3425.553	4324
3427.277	4376
3429.003	4325
3430.727	4302
3432.451	4368
3434.173	4300
3435.896	4206
3437.62	4350
3439.343	4241
3441.063	4191
3442.785	4341
3444.505	4248
3446.226	4233
3447.948	4279
3449.666	4241
3451.386	4291
3453.104	4144
3454.823	4263
3456.541	4234
3458.259	4178
3459.976	4292
3461.693	4305
3463.408	4236
3465.125	4206
3466.841	4151
3468.556	4120
3470.271	4181
3471.985	4172
3473.698	4132
3475.414	4171
3477.126	4131
3478.838	4102
3480.55	4133
3482.263	4133
3483.975	4126
3485.686	4122
3487.396	4159
3489.106	4065
3490.817	4159
3492.526	4144
3494.236	4142
3495.944	4035
3497.652	4124
3499.359	4067
3501.066	3977
3502.775	4082
3504.481	4057
3506.187	4011
3507.893	4006
3509.598	4060
3511.304	4028
3513.009	4063
3514.713	3972
3516.417	3998
3518.12	4015
3519.821	4023
3521.525	3979
3523.228	3942
3524.929	3869
3526.631	3929
3528.33	3967
3530.032	4059
3531.733	3892
3533.433	3897
3535.131	3958
3536.83	4014
3538.529	3914
3540.227	3974
3541.925	3904
3543.623	3897
3545.319	3918
3547.016	3971
3548.712	3887
3550.408	3865
3552.103	3866
3553.798	4033
3555.491	3928
3557.188	3909
3558.88	3900
3560.574	3912
3562.266	3884
3563.959	3961
3565.651	3836
3567.343	3853
3569.035	3791
3570.725	3902
3572.415	3865
3574.106	3780
3575.797	3858
3577.485	3845
3579.174	3877
3580.863	3924
3582.551	3824
3584.238	3787
3585.926	3816
3587.613	3781
3589.3	3818
3590.986	3777
3592.671	3824
3594.357	3774
3596.042	3651
3597.726	3685
3599.41	3726
3601.094	3749
3602.778	3741
3604.461	3754
3606.143	3782
3607.825	3762
3609.507	3735
3611.188	3699
3612.87	3599
3614.551	3669
3616.229	3735
3617.909	3680
3619.589	3732
3621.269	3716
3622.948	3640
3624.625	3717
3626.302	3664
3627.98	3647
3629.657	3631
3631.334	3593
3633.01	3660
3634.686	3587
3636.361	3587
3638.036	3671
3639.712	3588
3641.385	3565
3643.06	3570
3644.732	3645
3646.405	3672
3648.08	3691
3649.751	3604
3651.424	3545
3653.094	3498
3654.766	3619
3656.436	3641
3658.106	3593
3659.777	3529
3661.446	3490
3663.115	3510
3664.783	3542
3666.452	3557
3668.121	3524
3669.788	3606
3671.454	3591
3673.121	3538
3674.789	3492
3676.455	3482
3678.12	3558
3679.784	3521
3681.45	3536
3683.114	3513
3684.779	3482
3686.442	3508
3688.105	3482
3689.768	3485
3691.43	3432
3693.093	3405
3694.754	3511
3696.415	3435
3698.076	3474
3699.736	3427
3701.396	3507
3703.057	3389
3704.716	3490
3706.375	3391
3708.034	3463
3709.692	3484
3711.351	3446
3713.008	3497
3714.665	3428
3716.321	3421
3717.977	3468
3719.634	3457
3721.29	3466
3722.945	3439
3724.598	3430
3726.253	3393
3727.907	3452
3729.561	3387
3731.214	3436
3732.867	3396
3734.518	3420
3736.171	3470
3737.824	3427
3739.474	3374
3741.125	3470
3742.775	3364
3744.425	3388
3746.074	3386
3747.725	3366
3749.373	3357
3751.022	3386
3752.669	3364
3754.318	3452
3755.966	3390
3757.612	3376
3759.259	3358
3760.905	3372
3762.55	3465
3764.197	3338
3765.842	3314
3767.486	3357
3769.131	3420
3770.774	3335
3772.417	3327
3774.061	3305
3775.705	3345
3777.347	3320
3778.988	3362
3780.629	3301
3782.271	3311
3783.912	3279
3785.552	3339
3787.192	3286
3788.831	3283
3790.472	3328
3792.112	3308
3793.75	3306
3795.388	3261
3797.024	3324
3798.661	3342
3800.3	3276
3801.936	3150
3803.572	3267
3805.208	3266
3806.844	3252
3808.48	3215
3810.115	3247
3811.748	3283
3813.382	3266
3815.016	3144
3816.649	3197
3818.283	3253
3819.914	3258
3821.547	3236
3823.178	3250
3824.809	3248
3826.441	3211
3828.072	3239
3829.701	3212
3831.331	3124
3832.96	3326
3834.591	3177
3836.219	3255
3837.847	3190
3839.475	3166
3841.102	3204
3842.729	3198
3844.357	3161
3845.984	3189
3847.609	3121
3849.234	3161
3850.86	3202
3852.485	3092
3854.11	3074
3855.734	3234
3857.357	3122
3858.981	3195
3860.603	3168
3862.227	3149
3863.848	3177
3865.471	3209
3867.092	3070
3868.713	3146
3870.334	3074
3871.954	3145
3873.575	3174
3875.194	3123
3876.813	3140
3878.433	3110
3880.051	3194
3881.669	3148
3883.286	3101
3884.904	3147
3886.52	3161
3888.138	3107
3889.754	3118
3891.37	3149
3892.985	3117
3894.6	3059
3896.216	3132
3897.831	3116
3899.444	3128
3901.058	3136
3902.67	3102
3904.283	3100
3905.897	3061
3907.509	3076
3909.121	3101
3910.731	3115
3912.342	3105
3913.954	3089
3915.563	3100
3917.174	3091
3918.783	3085
3920.391	3084
3922.002	3069
3923.611	3100
3925.218	3133
3926.826	3078
3928.432	3063
3930.039	3042
3931.647	3033
3933.253	3088
3934.859	3078
3936.464	3030
3938.068	3033
3939.675	3004
3941.278	2999
3942.883	3041
3944.486	3069
3946.089	3090
3947.692	2955
3949.295	3137
3950.898	3039
3952.499	3002
3954.1	3059
3955.7	2966
3957.303	3034
3958.903	3013
3960.502	2992
3962.101	3028
3963.7	3047
3965.301	2943
3966.899	3066
3968.497	2967
3970.094	2947
3971.691	2925
3973.288	3057
3974.885	2966
3976.481	2929
3978.077	2906
3979.672	2958
3981.267	2962
3982.863	2991
3984.457	2909
3986.051	2915
3987.645	2965
3989.238	2955
3990.831	2856
3992.425	2974
3994.017	2911
3995.607	2898
3997.199	2926
3998.79	2898
4000.382	2864
4001.973	2893
4003.561	2885
4005.151	2978
4006.741	2877
4008.331	2877
4009.918	2867
4011.507	2871
4013.095	2902
4014.681	2860
4016.269	2871
4017.856	2886
4019.443	2855
4021.028	2891
4022.614	2906
4024.199	2862
4025.785	2885
4027.37	2865
4028.953	2824
4030.536	2847
4032.12	2779
4033.704	2863
4035.287	2854
4036.869	2847
4038.45	2811
4040.032	2786
4041.613	2837
4043.195	2877
4044.776	2770
4046.356	2829
4047.935	2817
4049.515	2878
4051.095	2757
4052.674	2827
4054.251	2793
4055.829	2804
4057.406	2742
4058.985	2811
4060.562	2809
4062.139	2813
4063.715	2742
4065.29	2790
4066.865	2790
4068.442	2742
4070.016	2751
4071.59	2751
4073.164	2753
4074.738	2723
4076.312	2770
4077.885	2700
4079.458	2751
4081.03	2774
4082.602	2749
4084.173	2759
4085.745	2755
4087.315	2695
4088.886	2732
4090.456	2766
4092.026	2680
4093.596	2696
4095.165	2720
4096.734	2743
4098.301	2698
4099.869	2702
4101.437	2693
4103.006	2698
4104.572	2696
4106.139	2687
4107.704	2760
4109.27	2679
4110.837	2667
4112.401	2788
4113.966	2668
4115.53	2665
4117.094	2701
4118.659	2708
4120.223	2637
4121.785	2709
4123.347	2711
4124.909	2654
4126.471	2660
4128.034	2647
4129.595	2676
4131.155	2616
4132.716	2652
4134.275	2622
4135.836	2652
4137.395	2623
4138.955	2637
4140.513	2567
4142.071	2582
4143.628	2667
4145.188	2568
4146.745	2611
4148.302	2670
4149.858	2600
4151.414	2627
4152.971	2723
4154.526	2602
4156.081	2665
4157.635	2597
4159.189	2573
4160.745	2651
4162.298	2583
4163.852	2559
4165.405	2571
4166.957	2618
4168.51	2555
4170.063	2539
4171.614	2572
4173.166	2595
4174.717	2606
4176.267	2594
4177.817	2560
4179.368	2558
4180.917	2525
4182.466	2540
4184.016	2552
4185.564	2543
4187.112	2574
4188.66	2551
4190.207	2517
4191.754	2503
4193.301	2528
4194.848	2559
4196.394	2616
4197.94	2508
4199.484	2447
4201.03	2420
4202.575	2463
4204.12	2514
4205.663	2487
4207.207	2481
4208.75	2511
4210.292	2473
4211.836	2465
4213.378	2472
4214.92	2518
4216.46	2484
4218.002	2464
4219.544	2483
4221.083	2428
4222.625	2475
4224.164	2529
4225.703	2502
4227.244	2416
4228.782	2490
4230.32	2517
4231.857	2439
4233.395	2487
4234.933	2473
4236.471	2481
4238.007	2487
4239.542	2459
4241.078	2473
4242.614	2481
4244.15	2491
4245.685	2487
4247.219	2462
4248.753	2417
4250.287	2416
4251.82	2527
4253.354	2477
4254.887	2448
4256.419	2400
4257.951	2449
4259.483	2435
4261.016	2427
4262.547	2451
4264.078	2495
4265.608	2372
4267.137	2444
4268.668	2356
4270.197	2385
4271.727	2418
4273.254	2396
4274.783	2423
4276.311	2408
4277.84	2397
4279.366	2418
4280.894	2360
4282.42	2342
4283.946	2383
4285.473	2415
4286.998	2356
4288.523	2355
4290.047	2412
4291.572	2429
4293.096	2365
4294.622	2334
4296.144	2345
4297.668	2403
4299.19	2423
4300.713	2363
4302.236	2372
4303.758	2413
4305.279	2390
4306.799	2387
4308.321	2363
4309.842	2347
4311.361	2381
4312.882	2396
4314.401	2340
