400.0961	4965
402.6185	4981
405.1424	4997
407.6635	5034
410.1838	5072
412.7035	5039
415.2225	5019
417.7388	5070
420.2585	5194
422.7754	5280
425.2917	5283
427.8072	5327
430.3221	5277
432.8363	5288
435.3498	5385
437.8626	5375
440.3727	5347
442.8841	5403
445.3969	5347
447.907	5289
450.4142	5317
452.9229	5370
455.4289	5343
457.9362	5381
460.4449	5253
462.9488	5344
465.454	5329
467.9566	5252
470.4604	5310
472.9637	5248
475.4662	5307
477.966	5241
480.4671	5157
482.9656	5283
485.4633	5280
487.9645	5321
490.4608	5302
492.9566	5304
495.4536	5290
497.948	5350
500.4437	5325
502.9387	5340
505.431	5417
507.9226	5325
510.4136	5383
512.9079	5451
515.3975	5472
517.8864	5496
520.3746	5525
522.8622	5366
525.3491	5479
527.8394	5390
530.3249	5443
532.8098	5508
535.2939	5532
537.7774	5590
540.2623	5518
542.7444	5535
545.2259	5502
547.7067	5640
550.1868	5485
552.6683	5499
555.147	5592
557.6231	5611
560.1005	5557
562.5773	5532
565.0534	5541
567.5308	5639
570.0056	5609
572.4776	5674
574.951	5708
577.4237	5845
579.8978	5740
582.3671	5829
584.8378	5819
587.3079	5766
589.7773	5817
592.244	5851
594.714	5815
597.1793	5849
599.6461	5714
602.1121	5654
604.5754	5722
607.0421	5656
609.5042	5663
611.9675	5832
614.4282	5739
616.8902	5731
619.3515	5786
621.8122	5780
624.2702	5548
626.7296	5701
629.1863	5709
631.6423	5625
634.1017	5719
636.5563	5652
639.0104	5689
641.4658	5676
643.9185	5625
646.3725	5622
648.8239	5686
651.2766	5833
653.7266	5684
656.176	5852
658.6247	5711
661.0748	5722
663.5242	5813
665.9709	5695
668.417	5884
670.8624	5869
673.3092	5900
675.7533	5817
678.1968	5748
680.6395	5965
683.0817	5770
685.5251	5913
687.9659	5823
690.4061	5901
692.8456	5982
695.2844	5933
697.7226	5894
700.1621	6014
702.599	5883
705.0332	6025
707.4688	5940
709.9036	6007
712.3399	5989
714.7735	6034
717.2044	6043
719.6367	6095
722.0683	6091
724.4993	6070
726.9296	6132
729.3593	6032
731.7883	6034
734.2147	6088
736.6423	6073
739.0714	6095
741.4958	6038
743.9216	6205
746.3447	6231
748.7691	6251
751.1929	6198
753.616	6156
756.0366	6295
758.4584	6399
760.8776	6350
763.2982	6241
765.718	6360
768.1373	6213
770.5539	6280
772.9698	6463
775.3871	6359
777.8038	6308
780.2178	6308
782.6332	6385
785.0459	6313
787.458	6362
789.8714	6344
792.2842	6379
794.6943	6205
797.1038	6250
799.5127	6324
801.9209	6342
804.3324	6394
806.7393	6358
809.1456	6357
811.5513	6499
813.9562	6397
816.3625	6425
818.7663	6409
821.1693	6445
823.5718	6538
825.9735	6494
828.3746	6470
830.7771	6472
833.177	6450
835.5762	6392
837.9747	6491
840.3727	6477
842.772	6397
845.1666	6518
847.5626	6681
849.958	6707
852.3527	6622
854.7488	6663
857.1403	6614
859.5331	6709
861.9253	6672
864.3168	6573
866.7057	6689
869.098	6593
871.4876	6548
873.8746	6615
876.263	6705
878.6487	6550
881.0378	6756
883.4243	6662
885.8081	6573
888.1933	6547
890.5759	6660
892.9598	6524
895.343	6608
897.7256	6663
900.1057	6525
902.4871	6660
904.8659	6635
907.246	6634
909.6254	6615
912.0023	6880
914.3786	6830
916.7562	6991
919.1331	7047
921.5074	7079
923.8831	7103
926.2562	7072
928.6287	7183
931.0005	7148
933.3757	7025
935.7462	7218
938.1162	7054
940.4855	7152
942.8542	7138
945.2242	7322
947.5916	7377
949.9584	7607
952.3266	7864
954.6921	8041
957.0571	8530
959.4233	8786
961.787	8870
964.15	8801
966.5125	8615
968.8742	8337
971.2354	7971
973.5959	7640
975.9559	7340
978.3151	7235
980.6738	7099
983.0338	7097
985.3912	6926
987.7461	6929
990.1022	7044
992.4578	6918
994.8127	6969
997.1689	6919
999.5207	6951
1001.874	6945
1004.226	6942
1006.576	6976
1008.929	6899
1011.28	6936
1013.628	6915
1015.977	6932
1018.324	6824
1020.674	6982
1023.019	6948
1025.366	6916
1027.713	6972
1030.056	7052
1032.399	7060
1034.746	7047
1037.087	7030
1039.431	7027
1041.771	6952
1044.113	7032
1046.454	7080
1048.793	7005
1051.133	7081
1053.471	6982
1055.807	7062
1058.146	7052
1060.483	7158
1062.818	7040
1065.153	7032
1067.489	7246
1069.822	7149
1072.156	7192
1074.488	7263
1076.82	7195
1079.15	7083
1081.48	7193
1083.814	7063
1086.143	7086
1088.471	7052
1090.799	6930
1093.126	6999
1095.452	7113
1097.78	7036
1100.105	7095
1102.43	7106
1104.754	6848
1107.077	7105
1109.4	7093
1111.722	7051
1114.044	7043
1116.365	7035
1118.685	7004
1121.005	6951
1123.324	7076
1125.643	7054
1127.961	6987
1130.278	7070
1132.595	7055
1134.911	7064
1137.226	7009
1139.541	7008
1141.854	7057
1144.167	6911
1146.482	7084
1148.793	7054
1151.105	7000
1153.414	7047
1155.725	7083
1158.033	6992
1160.344	7112
1162.651	7113
1164.959	6997
1167.265	7109
1169.572	7104
1171.878	7102
1174.184	7066
1176.488	7118
1178.79	7257
1181.094	7184
1183.396	7277
1185.699	7069
1188.001	7177
1190.301	7140
1192.6	7114
1194.9	7039
1197.2	7108
1199.497	6974
1201.794	7094
1204.09	7037
1206.387	7154
1208.684	7046
1210.978	7245
1213.272	7101
1215.565	7002
1217.858	7023
1220.15	7214
1222.443	7182
1224.734	7219
1227.024	7127
1229.313	7175
1231.602	7281
1233.892	7202
1236.18	7273
1238.467	7352
1240.754	7369
1243.04	7498
1245.325	7386
1247.612	7507
1249.896	7381
1252.178	7322
1254.461	7454
1256.743	7551
1259.027	7385
1261.308	7488
1263.587	7460
1265.867	7598
1268.146	7380
1270.425	7540
1272.703	7449
1274.981	7640
1277.256	7457
1279.532	7453
1281.808	7309
1284.083	7327
1286.358	7302
1288.63	7444
1290.904	7139
1293.175	7331
1295.449	7402
1297.719	7229
1299.99	7285
1302.259	7270
1304.529	7315
1306.798	7323
1309.065	7278
1311.333	7249
1313.599	7335
1315.866	7339
1318.131	7324
1320.396	7282
1322.66	7294
1324.925	7316
1327.187	7401
1329.448	7330
1331.711	7538
1333.974	7409
1336.234	7216
1338.493	7385
1340.752	7337
1343.01	7339
1345.269	7300
1347.526	7266
1349.784	7348
1352.04	7355
1354.295	7354
1356.552	7292
1358.806	7324
1361.059	7245
1363.312	7345
1365.564	7323
1367.818	7283
1370.069	7321
1372.318	7431
1374.568	7360
1376.817	7399
1379.066	7344
1381.316	7291
1383.564	7483
1385.809	7526
1388.056	7353
1390.301	7380
1392.549	7618
1394.793	7603
1397.036	7718
1399.279	7716
1401.522	7745
1403.763	7706
1406.007	7728
1408.248	7782
1410.487	7696
1412.727	7868
1414.965	7775
1417.205	7786
1419.442	7674
1421.68	7581
1423.915	7622
1426.152	7614
1428.388	7664
1430.623	7550
1432.857	7435
1435.091	7609
1437.323	7713
1439.556	7712
1441.789	7818
1444.019	7716
1446.25	7799
1448.48	7689
1450.708	7889
1452.938	7750
1455.167	7832
1457.394	7688
1459.62	7867
1461.846	7901
1464.073	7787
1466.299	7664
1468.523	7764
1470.746	7693
1472.969	7507
1475.191	7590
1477.415	7537
1479.636	7414
1481.858	7458
1484.078	7364
1486.298	7330
1488.518	7194
1490.736	7351
1492.954	7403
1495.169	7379
1497.386	7392
1499.602	7298
1501.819	7347
1504.034	7220
1506.248	7323
1508.462	7339
1510.675	7231
1512.888	7204
1515.1	7286
1517.311	7334
1519.522	7315
1521.732	7243
1523.942	7230
1526.151	7282
1528.36	7137
1530.566	7264
1532.773	7308
1534.98	7272
1537.187	7321
1539.392	7414
1541.596	7284
1543.801	7358
1546.005	7234
1548.208	7377
1550.411	7425
1552.612	7444
1554.814	7422
1557.013	7468
1559.212	7295
1561.414	7405
1563.612	7499
1565.811	7409
1568.007	7405
1570.203	7397
1572.403	7372
1574.598	7452
1576.792	7424
1578.988	7508
1581.181	7420
1583.376	7507
1585.568	7539
1587.761	7485
1589.952	7491
1592.143	7601
1594.333	7512
1596.524	7542
1598.715	7476
1600.903	7566
1603.091	7540
1605.278	7610
1607.466	7628
1609.652	7616
1611.838	7442
1614.023	7628
1616.207	7589
1618.391	7608
1620.576	7667
1622.759	7637
1624.941	7640
1627.123	7518
1629.304	7568
1631.484	7591
1633.664	7626
1635.844	7651
1638.022	7682
1640.201	7681
1642.38	7744
1644.556	7668
1646.732	7819
1648.908	7595
1651.084	7752
1653.257	7788
1655.433	7698
1657.607	7753
1659.779	7734
1661.951	7811
1664.122	7935
1666.295	7758
1668.467	7797
1670.635	7856
1672.805	7792
1674.973	7791
1677.142	7793
1679.31	7686
1681.478	7731
1683.644	7779
1685.81	7811
1687.975	7808
1690.142	7715
1692.305	7799
1694.468	7733
1696.632	7588
1698.794	7676
1700.957	7456
1703.119	7755
1705.279	7576
1707.439	7483
1709.598	7523
1711.758	7512
1713.917	7491
1716.075	7562
1718.231	7574
1720.388	7558
1722.543	7708
1724.702	7508
1726.856	7449
1729.01	7465
1731.164	7633
1733.317	7489
1735.471	7576
1737.623	7508
1739.774	7420
1741.925	7492
1744.075	7590
1746.225	7552
1748.376	7571
1750.524	7589
1752.672	7457
1754.82	7625
1756.965	7714
1759.113	7616
1761.259	7460
1763.405	7581
1765.549	7595
1767.694	7610
1769.836	7567
1771.981	7560
1774.123	7568
1776.264	7521
1778.405	7545
1780.546	7668
1782.687	7440
1784.827	7579
1786.966	7711
1789.103	7551
1791.242	7489
1793.381	7601
1795.517	7581
1797.653	7630
1799.788	7643
1801.923	7755
1804.057	7612
1806.193	7670
1808.326	7569
1810.457	7516
1812.59	7616
1814.721	7651
1816.855	7546
1818.984	7588
1821.113	7546
1823.244	7553
1825.372	7685
1827.499	7549
1829.63	7537
1831.756	7396
1833.882	7428
1836.007	7575
1838.132	7536
1840.26	7625
1842.384	7574
1844.507	7613
1846.63	7620
1848.752	7622
1850.875	7606
1852.996	7519
1855.118	7589
1857.238	7533
1859.358	7521
1861.477	7517
1863.597	7358
1865.715	7607
1867.832	7567
1869.948	7583
1872.064	7565
1874.181	7385
1876.297	7510
1878.411	7451
1880.526	7530
1882.639	7543
1884.752	7553
1886.865	7578
1888.977	7574
1891.089	7479
1893.2	7639
1895.308	7480
1897.42	7610
1899.53	7557
1901.639	7461
1903.745	7503
1905.853	7566
1907.962	7590
1910.067	7525
1912.174	7530
1914.278	7667
1916.383	7552
1918.486	7635
1920.592	7722
1922.694	7620
1924.797	7603
1926.898	7746
1929	7841
1931.102	7718
1933.203	7601
1935.301	7677
1937.401	7712
1939.499	7712
1941.598	7736
1943.697	7708
1945.793	7501
1947.888	7682
1949.985	7577
1952.08	7680
1954.176	7621
1956.269	7641
1958.364	7675
1960.457	7696
1962.549	7733
1964.642	7639
1966.733	7607
1968.823	7563
1970.913	7555
1973.005	7650
1975.093	7604
1977.184	7649
1979.271	7557
1981.359	7589
1983.446	7677
1985.532	7611
1987.619	7671
1989.705	7668
1991.789	7553
1993.874	7572
1995.956	7461
1998.041	7464
2000.123	7413
2002.206	7478
2004.287	7637
2006.368	7494
2008.449	7584
2010.529	7681
2012.609	7553
2014.688	7481
2016.766	7609
2018.843	7512
2020.922	7564
2022.999	7578
2025.074	7576
2027.15	7503
2029.225	7559
2031.299	7592
2033.375	7606
2035.447	7590
2037.52	7605
2039.592	7550
2041.664	7495
2043.736	7465
2045.807	7569
2047.876	7549
2049.947	7544
2052.015	7444
2054.086	7573
2056.153	7615
2058.221	7520
2060.288	7573
2062.353	7471
2064.42	7535
2066.486	7566
2068.55	7573
2070.614	7481
2072.678	7470
2074.741	7595
2076.805	7475
2078.866	7558
2080.929	7575
2082.99	7489
2085.049	7566
2087.109	7575
2089.17	7532
2091.228	7654
2093.286	7554
2095.344	7558
2097.4	7547
2099.46	7540
2101.516	7601
2103.572	7554
2105.626	7533
2107.679	7657
2109.735	7648
2111.788	7498
2113.841	7602
2115.894	7611
2117.945	7491
2119.997	7741
2122.049	7448
2124.1	7621
2126.148	7525
2128.197	7479
2130.246	7550
2132.296	7443
2134.342	7569
2136.39	7458
2138.437	7508
2140.483	7478
2142.527	7348
2144.574	7467
2146.619	7464
2148.661	7462
2150.705	7433
2152.747	7355
2154.792	7477
2156.832	7499
2158.874	7547
2160.915	7422
2162.954	7407
2164.995	7460
2167.034	7567
2169.072	7576
2171.111	7280
2173.148	7469
2175.186	7523
2177.223	7506
2179.258	7438
2181.294	7508
2183.328	7481
2185.362	7450
2187.398	7323
2189.431	7453
2191.463	7508
2193.495	7350
2195.528	7504
2197.56	7390
2199.59	7481
2201.62	7396
2203.649	7253
2205.678	7472
2207.708	7400
2209.737	7416
2211.764	7471
2213.791	7356
2215.817	7332
2217.843	7346
2219.87	7409
2221.895	7424
2223.919	7431
2225.942	7292
2227.966	7316
2229.988	7345
2232.012	7400
2234.032	7304
2236.054	7187
2238.074	7234
2240.095	7254
2242.116	7320
2244.135	7394
2246.153	7400
2248.171	7279
2250.188	7336
2252.208	7314
2254.223	7318
2256.239	7359
2258.255	7524
2260.269	7342
2262.283	7258
2264.3	7301
2266.312	7281
2268.325	7373
2270.336	7374
2272.349	7404
2274.362	7433
2276.372	7255
2278.383	7338
2280.392	7319
2282.402	7371
2284.409	7333
2286.418	7275
2288.427	7347
2290.433	7418
2292.441	7286
2294.446	7284
2296.453	7303
2298.459	7374
2300.463	7168
2302.466	7321
2304.471	7350
2306.475	7343
2308.477	7295
2310.478	7245
2312.481	7378
2314.481	7272
2316.481	7245
2318.482	7405
2320.482	7165
2322.48	7257
2324.48	7274
2326.478	7203
2328.476	7261
2330.473	7145
2332.469	7261
2334.465	7333
2336.46	7307
2338.454	7264
2340.45	7311
2342.444	7195
2344.437	7228
2346.43	7256
2348.421	7266
2350.414	7177
2352.405	7272
2354.396	7218
2356.386	7141
2358.376	7118
2360.366	7178
2362.355	7249
2364.343	7151
2366.331	7165
2368.317	7099
2370.304	7066
2372.292	7228
2374.278	7008
2376.262	7105
2378.247	7165
2380.23	7211
2382.216	7035
2384.199	7070
2386.181	7117
2388.163	7088
2390.144	7129
2392.127	7190
2394.107	7103
2396.087	7080
2398.066	7120
2400.046	7109
2402.023	6915
2404.004	7071
2405.981	7079
2407.957	7154
2409.934	7097
2411.91	7095
2413.886	7085
2415.862	6980
2417.836	7042
2419.809	7149
2421.784	7029
2423.756	7095
2425.73	7016
2427.701	7017
2429.672	7146
2431.644	6888
2433.615	7042
2435.586	7080
2437.555	6969
2439.523	7085
2441.491	7096
2443.459	7036
2445.428	7068
2447.395	6952
2449.361	7169
2451.327	7007
2453.292	7106
2455.257	7040
2457.223	7013
2459.187	6983
2461.15	7055
2463.113	6913
2465.076	6928
2467.039	7074
2468.999	7065
2470.96	6858
2472.921	6964
2474.881	7010
2476.841	7031
2478.8	6957
2480.759	6963
2482.717	6865
2484.675	6993
2486.63	6918
2488.589	6996
2490.545	6861
2492.5	6923
2494.455	6940
2496.408	6803
2498.364	6910
2500.318	6921
2502.27	6909
2504.223	6800
2506.174	6937
2508.126	7052
2510.078	6846
2512.03	6923
2513.979	6796
2515.927	6790
2517.877	6952
2519.826	6894
2521.775	6938
2523.722	6859
2525.668	7022
2527.616	6868
2529.561	6952
2531.508	6888
2533.452	6903
2535.398	6871
2537.342	6813
2539.284	6894
2541.229	6901
2543.173	6835
2545.114	6941
2547.055	7007
2548.996	6777
2550.938	6862
2552.878	6820
2554.817	6913
2556.756	6841
2558.695	6938
2560.633	6792
2562.572	6879
2564.509	6910
2566.445	6884
2568.382	6814
2570.317	6809
2572.254	7003
2574.189	7078
2576.123	6879
2578.057	6861
2579.99	6877
2581.923	6853
2583.855	6828
2585.788	6894
2587.719	6852
2589.65	6959
2591.579	6815
2593.511	6968
2595.44	6887
2597.37	6904
2599.297	6900
2601.225	7003
2603.153	6942
2605.08	6888
2607.007	6862
2608.932	6848
2610.858	6830
2612.782	6866
2614.709	6908
2616.632	6849
2618.556	6891
2620.478	6837
2622.401	6962
2624.324	6997
2626.247	6977
2628.167	6897
2630.088	6858
2632.008	6952
2633.928	6919
2635.848	6972
2637.766	6985
2639.684	6947
2641.603	6843
2643.519	6843
2645.437	6854
2647.353	6891
2649.27	6764
2651.184	6909
2653.099	6722
2655.014	6918
2656.928	6862
2658.842	6895
2660.755	6867
2662.667	6903
2664.579	6773
2666.491	6950
2668.402	6817
2670.312	6810
2672.222	6860
2674.132	6765
2676.042	6896
2677.951	6825
2679.859	6819
2681.766	6823
2683.674	6864
2685.582	6787
2687.488	6747
2689.392	6738
2691.298	6901
2693.202	6797
2695.107	6791
2697.012	6795
2698.914	6760
2700.817	6664
2702.72	6670
2704.622	6842
2706.524	6749
2708.425	6684
2710.326	6749
2712.225	6766
2714.125	6826
2716.024	6774
2717.923	6675
2719.822	6823
2721.719	6706
2723.616	6691
2725.512	6757
2727.41	6774
2729.305	6706
2731.201	6511
2733.095	6750
2734.99	6745
2736.884	6676
2738.778	6823
2740.67	6655
2742.562	6697
2744.455	6656
2746.346	6684
2748.238	6703
2750.129	6675
2752.018	6659
2753.907	6646
2755.797	6746
2757.687	6586
2759.575	6633
2761.462	6678
2763.349	6692
2765.237	6662
2767.124	6690
2769.009	6736
2770.894	6695
2772.779	6664
2774.663	6756
2776.547	6685
2778.431	6540
2780.314	6742
2782.197	6737
2784.078	6678
2785.96	6719
2787.842	6805
2789.723	6705
2791.603	6639
2793.483	6599
2795.362	6580
2797.241	6760
2799.121	6573
2800.997	6655
2802.874	6658
2804.751	6565
2806.628	6659
2808.506	6712
2810.38	6543
2812.255	6634
2814.13	6568
2816.003	6680
2817.878	6630
2819.752	6605
2821.623	6756
2823.496	6580
2825.368	6634
2827.238	6626
2829.111	6692
2830.98	6654
2832.851	6731
2834.719	6607
2836.589	6746
2838.458	6645
2840.327	6588
2842.193	6708
2844.061	6803
2845.927	6720
2847.794	6742
2849.66	6708
2851.525	6821
2853.39	6712
2855.254	6861
2857.117	6698
2858.983	6752
2860.845	6909
2862.707	6897
2864.569	6943
2866.431	6965
2868.293	7010
2870.154	6952
2872.013	7075
2873.873	7010
2875.733	7183
2877.592	7173
2879.451	7341
2881.309	7471
2883.166	7305
2885.022	7507
2886.879	7491
2888.736	7490
2890.591	7496
2892.446	7532
2894.301	7541
2896.155	7602
2898.009	7568
2899.863	7564
2901.716	7603
2903.568	7473
2905.419	7593
2907.27	7460
2909.123	7623
2910.973	7556
2912.824	7573
2914.673	7664
2916.521	7772
2918.372	7818
2920.22	7971
2922.067	7896
2923.914	8132
2925.761	8219
2927.607	8082
2929.455	8179
2931.301	8266
2933.144	8310
2934.99	8318
2936.833	8430
2938.678	8480
2940.522	8546
2942.364	8643
2944.207	8796
2946.048	8828
2947.891	8878
2949.731	8958
2951.571	8867
2953.412	8932
2955.25	8799
2957.09	8610
2958.93	8618
2960.767	8492
2962.606	8505
2964.443	8327
2966.279	8280
2968.116	8190
2969.953	8040
2971.788	7944
2973.623	7747
2975.457	7846
2977.292	7696
2979.127	7708
2980.959	7659
2982.792	7581
2984.624	7530
2986.455	7549
2988.288	7555
2990.119	7358
2991.949	7503
2993.779	7319
2995.608	7240
2997.439	7252
2999.268	7219
3001.096	7187
3002.923	7014
3004.751	6959
3006.578	6913
3008.406	6877
3010.232	6872
3012.057	6857
3013.883	6667
3015.706	6682
3017.532	6695
3019.356	6674
3021.179	6622
3023.002	6577
3024.823	6455
3026.646	6543
3028.469	6521
3030.289	6647
3032.11	6483
3033.93	6583
3035.749	6314
3037.57	6366
3039.39	6444
3041.207	6336
3043.026	6481
3044.842	6373
3046.661	6342
3048.477	6465
3050.294	6250
3052.109	6342
3053.925	6485
3055.739	6364
3057.555	6340
3059.368	6431
3061.181	6354
3062.995	6330
3064.807	6381
3066.62	6346
3068.433	6375
3070.243	6266
3072.054	6286
3073.865	6322
3075.675	6293
3077.485	6258
3079.293	6317
3081.102	6274
3082.911	6200
3084.719	6223
3086.527	6261
3088.333	6263
3090.139	6216
3091.945	6277
3093.75	6188
3095.557	6107
3097.361	6151
3099.165	6148
3100.969	6197
3102.772	6033
3104.575	6152
3106.379	6173
3108.181	6038
3109.982	6127
3111.783	5954
3113.584	6083
3115.386	6077
3117.186	6081
3118.985	6101
3120.783	6108
3122.582	6024
3124.381	6090
3126.179	6090
3127.975	6049
3129.772	5975
3131.569	5952
3133.365	6030
3135.161	5972
3136.956	5996
3138.751	5988
3140.544	5954
3142.338	5946
3144.132	5975
3145.925	5957
3147.717	5912
3149.509	5942
3151.301	6058
3153.091	6007
3154.884	5928
3156.673	5862
3158.462	5913
3160.252	5972
3162.041	5829
3163.831	5924
3165.618	5901
3167.405	5903
3169.193	5876
3170.979	5862
3172.767	5918
3174.553	5953
3176.338	5921
3178.123	5909
3179.907	5893
3181.692	5989
3183.477	5859
3185.259	5954
3187.042	5960
3188.824	5818
3190.607	5858
3192.389	5938
3194.17	6028
3195.951	5812
3197.73	5886
3199.51	5914
3201.289	5990
3203.07	5895
3204.848	5918
3206.626	5883
3208.403	5823
3210.18	5813
3211.959	5923
3213.735	5857
3215.511	5802
3217.285	5920
3219.06	5929
3220.836	5830
3222.611	5807
3224.384	5852
3226.158	5890
3227.929	5853
3229.702	5726
3231.476	5930
3233.248	5793
3235.018	6047
3236.789	5813
3238.56	5873
3240.33	5817
3242.1	5761
3243.869	5845
3245.637	6004
3247.405	5846
3249.172	5986
3250.941	5877
3252.707	5927
3254.474	6031
3256.24	5939
3258.006	5886
3259.772	5965
3261.537	5811
3263.301	5850
3265.065	5805
3266.828	5920
3268.592	5851
3270.355	5996
3272.117	5877
3273.878	5889
3275.64	5869
3277.401	5915
3279.162	5878
3280.922	5920
3282.682	5814
3284.441	5898
3286.199	5879
3287.959	5950
3289.716	5751
3291.475	5919
3293.232	5866
3294.988	5902
3296.744	5960
3298.501	5880
3300.256	5954
3302.011	5892
3303.766	5821
3305.52	5931
3307.275	5793
3309.028	5885
3310.781	5928
3312.533	5918
3314.285	5871
3316.038	5948
3317.789	5827
3319.54	5786
3321.289	5972
3323.039	5906
3324.789	5927
3326.539	5763
3328.288	5828
3330.035	5936
3331.783	5812
3333.531	5846
3335.28	5904
3337.025	5735
3338.771	5847
3340.518	5871
3342.262	5794
3344.009	5694
3345.753	5849
3347.497	5791
3349.24	5869
3350.983	5797
3352.726	5721
3354.469	5869
3356.212	5714
3357.952	5694
3359.694	5724
3361.434	5764
3363.176	5664
3364.916	5695
3366.654	5700
3368.394	5691
3370.132	5708
3371.871	5754
3373.61	5755
3375.346	5711
3377.083	5680
3378.82	5706
3380.556	5621
3382.292	5685
3384.027	5811
3385.763	5633
3387.497	5711
3389.231	5627
3390.965	5593
3392.698	5658
3394.431	5563
3396.164	5720
3397.896	5673
3399.627	5598
3401.36	5686
3403.09	5635
3404.82	5526
3406.55	5640
3408.279	5577
3410.01	5559
3411.738	5557
3413.467	5586
3415.194	5576
3416.92	5696
3418.647	5645
3420.375	5555
3422.102	5560
3423.827	5602
3425.553	5522
3427.277	5521
3429.003	5587
3430.727	5597
3432.451	5563
3434.173	5469
3435.896	5475
3437.62	5536
3439.343	5539
3441.063	5410
3442.785	5549
3444.505	5401
3446.226	5474
3447.948	5493
3449.666	5388
3451.386	5477
3453.104	5331
3454.823	5443
3456.541	5383
3458.259	5375
3459.976	5315
3461.693	5268
3463.408	5333
3465.125	5400
3466.841	5453
3468.556	5423
3470.271	5308
3471.985	5301
3473.698	5322
3475.414	5385
3477.126	5328
3478.838	5254
3480.55	5140
3482.263	5311
3483.975	5318
3485.686	5290
3487.396	5241
3489.106	5305
3490.817	5262
3492.526	5184
3494.236	5236
3495.944	5341
3497.652	5297
3499.359	5213
3501.066	5255
3502.775	5227
3504.481	5232
3506.187	5192
3507.893	5254
3509.598	5253
3511.304	5193
3513.009	5047
3514.713	5089
3516.417	5173
3518.12	5124
3519.821	5103
3521.525	5203
3523.228	5092
3524.929	5024
3526.631	5161
3528.33	4978
3530.032	5055
3531.733	5051
3533.433	5087
3535.131	5110
3536.83	5095
3538.529	5066
3540.227	5087
3541.925	4985
3543.623	5040
3545.319	5085
3547.016	4947
3548.712	4993
3550.408	4982
3552.103	5091
3553.798	4973
3555.491	4888
3557.188	4984
3558.88	4974
3560.574	4994
3562.266	4951
3563.959	4905
3565.651	4901
3567.343	4949
3569.035	4980
3570.725	4860
3572.415	4985
3574.106	4937
3575.797	4950
3577.485	4996
3579.174	5031
3580.863	4917
3582.551	4895
3584.238	4912
3585.926	4833
3587.613	4905
3589.3	4895
3590.986	4842
3592.671	4816
3594.357	4805
3596.042	4864
3597.726	4796
3599.41	4945
3601.094	4757
3602.778	4695
3604.461	4690
3606.143	4779
3607.825	4754
3609.507	4739
3611.188	4782
3612.87	4728
3614.551	4655
3616.229	4705
3617.909	4672
3619.589	4748
3621.269	4707
3622.948	4753
3624.625	4736
3626.302	4807
3627.98	4690
3629.657	4651
3631.334	4741
3633.01	4635
3634.686	4778
3636.361	4566
3638.036	4635
3639.712	4655
3641.385	4693
3643.06	4538
3644.732	4631
3646.405	4535
3648.08	4559
3649.751	4682
3651.424	4534
3653.094	4480
3654.766	4537
3656.436	4579
3658.106	4600
3659.777	4598
3661.446	4535
3663.115	4483
3664.783	4610
3666.452	4456
3668.121	4582
3669.788	4441
3671.454	4473
3673.121	4504
3674.789	4459
3676.455	4480
3678.12	4564
3679.784	4505
3681.45	4590
3683.114	4494
3684.779	4513
3686.442	4478
3688.105	4438
3689.768	4504
3691.43	4507
3693.093	4523
3694.754	4429
3696.415	4460
3698.076	4465
3699.736	4566
3701.396	4400
3703.057	4520
3704.716	4391
3706.375	4416
3708.034	4465
3709.692	4459
3711.351	4419
3713.008	4461
3714.665	4492
3716.321	4460
3717.977	4430
3719.634	4364
3721.29	4411
3722.945	4344
3724.598	4420
3726.253	4388
3727.907	4307
3729.561	4434
3731.214	4362
3732.867	4495
3734.518	4322
3736.171	4376
3737.824	4398
3739.474	4374
3741.125	4423
3742.775	4304
3744.425	4330
3746.074	4340
3747.725	4330
3749.373	4346
3751.022	4353
3752.669	4332
3754.318	4316
3755.966	4371
3757.612	4285
3759.259	4332
3760.905	4299
3762.55	4338
3764.197	4306
3765.842	4380
3767.486	4204
3769.131	4333
3770.774	4352
3772.417	4251
3774.061	4298
3775.705	4260
3777.347	4350
3778.988	4318
3780.629	4331
3782.271	4260
3783.912	4258
3785.552	4259
3787.192	4280
3788.831	4302
3790.472	4224
3792.112	4281
3793.75	4253
3795.388	4277
3797.024	4217
3798.661	4193
3800.3	4239
3801.936	4109
3803.572	4197
3805.208	4240
3806.844	4225
3808.48	4230
3810.115	4070
3811.748	4155
3813.382	4212
3815.016	4116
3816.649	4084
3818.283	4088
3819.914	4129
3821.547	4182
3823.178	4068
3824.809	4143
3826.441	4148
3828.072	4140
3829.701	4225
3831.331	4252
3832.96	4130
3834.591	4144
3836.219	4128
3837.847	4247
3839.475	4178
3841.102	4154
3842.729	4134
3844.357	4061
3845.984	4159
3847.609	4017
3849.234	4039
3850.86	4073
3852.485	4089
3854.11	4064
3855.734	4093
3857.357	4140
3858.981	4144
3860.603	4076
3862.227	4269
3863.848	4072
3865.471	4070
3867.092	4087
3868.713	4106
3870.334	4010
3871.954	4012
3873.575	4042
3875.194	4029
3876.813	4010
3878.433	3983
3880.051	3996
3881.669	4008
3883.286	4094
3884.904	4039
3886.52	3969
3888.138	4014
3889.754	4076
3891.37	4079
3892.985	4060
3894.6	4001
3896.216	4058
3897.831	3939
3899.444	3990
3901.058	3994
3902.67	3947
3904.283	4031
3905.897	4027
3907.509	3943
3909.121	3969
3910.731	3976
3912.342	3970
3913.954	4038
3915.563	3965
3917.174	3946
3918.783	3913
3920.391	3976
3922.002	3972
3923.611	4028
3925.218	3954
3926.826	3987
3928.432	3908
3930.039	3943
3931.647	3988
3933.253	4058
3934.859	3975
3936.464	3977
3938.068	3884
3939.675	3949
3941.278	4002
3942.883	3936
3944.486	3950
3946.089	3924
3947.692	3949
3949.295	3941
3950.898	4044
3952.499	3852
3954.1	3968
3955.7	3952
3957.303	3873
3958.903	3874
3960.502	3857
3962.101	3999
3963.7	3918
3965.301	3911
3966.899	3909
3968.497	3895
3970.094	3884
3971.691	3822
3973.288	3850
3974.885	3834
3976.481	3894
3978.077	3863
3979.672	3899
3981.267	3877
3982.863	3848
3984.457	3846
3986.051	3871
3987.645	3806
3989.238	3874
3990.831	3900
3992.425	3758
3994.017	3832
3995.607	3793
3997.199	3822
3998.79	3761
4000.382	3793
4001.973	3742
4003.561	3800
4005.151	3757
4006.741	3752
4008.331	3747
4009.918	3737
4011.507	3712
4013.095	3763
4014.681	3728
4016.269	3691
4017.856	3673
4019.443	3732
4021.028	3694
4022.614	3628
4024.199	3758
4025.785	3709
4027.37	3759
4028.953	3763
4030.536	3722
4032.12	3737
4033.704	3782
4035.287	3726
4036.869	3674
4038.45	3649
4040.032	3658
4041.613	3718
4043.195	3651
4044.776	3669
4046.356	3620
4047.935	3664
4049.515	3655
4051.095	3634
4052.674	3639
4054.251	3652
4055.829	3620
4057.406	3664
4058.985	3541
4060.562	3597
4062.139	3646
4063.715	3689
4065.29	3591
4066.865	3727
4068.442	3604
4070.016	3627
4071.59	3590
4073.164	3626
4074.738	3659
4076.312	3632
4077.885	3631
4079.458	3597
4081.03	3639
4082.602	3703
4084.173	3540
4085.745	3643
4087.315	3598
4088.886	3577
4090.456	3605
4092.026	3576
4093.596	3578
4095.165	3575
4096.734	3597
4098.301	3607
4099.869	3547
4101.437	3552
4103.006	3552
4104.572	3570
4106.139	3564
4107.704	3606
4109.27	3549
4110.837	3554
4112.401	3597
4113.966	3555
4115.53	3558
4117.094	3513
4118.659	3509
4120.223	3477
4121.785	3489
4123.347	3648
4124.909	3469
4126.471	3568
4128.034	3518
4129.595	3525
4131.155	3523
4132.716	3484
4134.275	3433
4135.836	3532
4137.395	3426
4138.955	3490
4140.513	3519
4142.071	3599
4143.628	3454
4145.188	3472
4146.745	3478
4148.302	3491
4149.858	3479
4151.414	3327
4152.971	3465
4154.526	3377
4156.081	3441
4157.635	3339
4159.189	3356
4160.745	3416
4162.298	3423
4163.852	3369
4165.405	3484
4166.957	3475
4168.51	3367
4170.063	3391
4171.614	3440
4173.166	3361
4174.717	3511
4176.267	3379
4177.817	3364
4179.368	3376
4180.917	3371
4182.466	3439
4184.016	3318
4185.564	3367
4187.112	3331
4188.66	3354
4190.207	3363
4191.754	3314
4193.301	3372
4194.848	3373
4196.394	3373
4197.94	3365
4199.484	3242
4201.03	3345
4202.575	3252
4204.12	3294
4205.663	3364
4207.207	3312
4208.75	3364
4210.292	3295
4211.836	3299
4213.378	3245
4214.92	3341
4216.46	3280
4218.002	3295
4219.544	3281
4221.083	3174
4222.625	3241
4224.164	3297
4225.703	3239
4227.244	3257
4228.782	3204
4230.32	3321
4231.857	3249
4233.395	3290
4234.933	3244
4236.471	3259
4238.007	3248
4239.542	3286
4241.078	3217
4242.614	3315
4244.15	3253
4245.685	3227
4247.219	3211
4248.753	3269
4250.287	3207
4251.82	3213
4253.354	3239
4254.887	3197
4256.419	3229
4257.951	3224
4259.483	3296
4261.016	3238
4262.547	3177
4264.078	3264
4265.608	3259
4267.137	3250
4268.668	3184
4270.197	3191
4271.727	3150
4273.254	3218
4274.783	3184
4276.311	3109
4277.84	3202
4279.366	3152
4280.894	3270
4282.42	3231
4283.946	3258
4285.473	3173
4286.998	3154
4288.523	3136
4290.047	3147
4291.572	3168
4293.096	3167
4294.622	3188
4296.144	3147
4297.668	3181
4299.19	3147
4300.713	3143
4302.236	3168
4303.758	3175
4305.279	3159
4306.799	3127
4308.321	3123
4309.842	3178
4311.361	3192
4312.882	3150
4314.401	3086
