400.0961	3697
402.6185	3737
405.1424	3661
407.6635	3798
410.1838	3710
412.7035	3746
415.2225	3733
417.7388	3819
420.2585	3830
422.7754	3844
425.2917	3934
427.8072	3904
430.3221	3960
432.8363	3841
435.3498	3944
437.8626	3993
440.3727	3986
442.8841	3952
445.3969	4003
447.907	3931
450.4142	3962
452.9229	3932
455.4289	3929
457.9362	4024
460.4449	3894
462.9488	3936
465.454	3875
467.9566	3904
470.4604	3965
472.9637	3923
475.4662	3970
477.966	4023
480.4671	3971
482.9656	3990
485.4633	4055
487.9645	3928
490.4608	4016
492.9566	4068
495.4536	4062
497.948	3939
500.4437	4050
502.9387	4021
505.431	4073
507.9226	4077
510.4136	3934
512.9079	4101
515.3975	3996
517.8864	4084
520.3746	4070
522.8622	4050
525.3491	4137
527.8394	4089
530.3249	4038
532.8098	4082
535.2939	4164
537.7774	4078
540.2623	4097
542.7444	4126
545.2259	4104
547.7067	4052
550.1868	4185
552.6683	4024
555.147	4142
557.6231	4108
560.1005	4089
562.5773	4217
565.0534	4210
567.5308	4163
570.0056	4187
572.4776	4149
574.951	4103
577.4237	4267
579.8978	4307
582.3671	4324
584.8378	4325
587.3079	4286
589.7773	4247
592.244	4280
594.714	4268
597.1793	4227
599.6461	4202
602.1121	4204
604.5754	4257
607.0421	4238
609.5042	4205
611.9675	4289
614.4282	4236
616.8902	4304
619.3515	4225
621.8122	4253
624.2702	4189
626.7296	4263
629.1863	4117
631.6423	4232
634.1017	4160
636.5563	4335
639.0104	4219
641.4658	4228
643.9185	4212
646.3725	4293
648.8239	4290
651.2766	4352
653.7266	4324
656.176	4315
658.6247	4250
661.0748	4301
663.5242	4305
665.9709	4338
668.417	4353
670.8624	4339
673.3092	4408
675.7533	4401
678.1968	4444
680.6395	4364
683.0817	4272
685.5251	4500
687.9659	4353
690.4061	4366
692.8456	4354
695.2844	4374
697.7226	4451
700.1621	4417
702.599	4466
705.0332	4503
707.4688	4449
709.9036	4421
712.3399	4454
714.7735	4508
717.2044	4494
719.6367	4401
722.0683	4606
724.4993	4529
726.9296	4580
729.3593	4474
731.7883	4517
734.2147	4518
736.6423	4568
739.0714	4580
741.4958	4612
743.9216	4576
746.3447	4607
748.7691	4658
751.1929	4705
753.616	4624
756.0366	4679
758.4584	4656
760.8776	4728
763.2982	4612
765.718	4665
768.1373	4708
770.5539	4683
772.9698	4737
775.3871	4688
777.8038	4811
780.2178	4749
782.6332	4659
785.0459	4752
787.458	4671
789.8714	4651
792.2842	4802
794.6943	4690
797.1038	4778
799.5127	4781
801.9209	4755
804.3324	4718
806.7393	4757
809.1456	4656
811.5513	4782
813.9562	4759
816.3625	4793
818.7663	4824
821.1693	4811
823.5718	4882
825.9735	4867
828.3746	4734
830.7771	4787
833.177	4765
835.5762	4807
837.9747	4769
840.3727	4782
842.772	4756
845.1666	4810
847.5626	4918
849.958	4874
852.3527	4882
854.7488	4999
857.1403	4952
859.5331	4906
861.9253	4885
864.3168	4955
866.7057	4945
869.098	4816
871.4876	4882
873.8746	4858
876.263	4885
878.6487	4896
881.0378	4927
883.4243	4818
885.8081	4899
888.1933	4892
890.5759	4844
892.9598	4792
895.343	4838
897.7256	4936
900.1057	4817
902.4871	4806
904.8659	4934
907.246	4936
909.6254	4944
912.0023	4995
914.3786	5100
916.7562	5117
919.1331	5144
921.5074	5296
923.8831	5256
926.2562	5150
928.6287	5270
931.0005	5138
933.3757	5115
935.7462	5207
938.1162	5263
940.4855	5266
942.8542	5204
945.2242	5165
947.5916	5265
949.9584	5498
952.3266	5397
954.6921	5820
957.0571	5886
959.4233	5947
961.787	6120
964.15	5989
966.5125	5900
968.8742	5690
971.2354	5591
973.5959	5405
975.9559	5285
978.3151	5203
980.6738	5245
983.0338	5212
985.3912	5140
987.7461	5098
990.1022	4997
992.4578	5145
994.8127	5148
997.1689	5107
999.5207	5171
1001.874	5156
1004.226	5173
1006.576	5098
1008.929	5179
1011.28	5188
1013.628	5196
1015.977	5040
1018.324	5101
1020.674	5069
1023.019	5047
1025.366	5027
1027.713	5184
1030.056	5097
1032.399	5094
1034.746	5198
1037.087	5124
1039.431	5163
1041.771	5203
1044.113	5205
1046.454	5187
1048.793	5184
1051.133	5190
1053.471	5184
1055.807	5189
1058.146	5207
1060.483	5266
1062.818	5242
1065.153	5376
1067.489	5224
1069.822	5239
1072.156	5231
1074.488	5333
1076.82	5287
1079.15	5193
1081.48	5219
1083.814	5269
1086.143	5170
1088.471	5264
1090.799	5103
1093.126	5166
1095.452	5161
1097.78	5172
1100.105	5143
1102.43	5208
1104.754	5282
1107.077	5135
1109.4	5225
1111.722	5120
1114.044	5300
1116.365	5218
1118.685	5187
1121.005	5218
1123.324	5201
1125.643	5169
1127.961	5270
1130.278	5323
1132.595	5319
1134.911	5260
1137.226	5230
1139.541	5286
1141.854	5219
1144.167	5246
1146.482	5190
1148.793	5246
1151.105	5172
1153.414	5236
1155.725	5238
1158.033	5164
1160.344	5278
1162.651	5216
1164.959	5121
1167.265	5228
1169.572	5277
1171.878	5279
1174.184	5112
1176.488	5216
1178.79	5315
1181.094	5292
1183.396	5304
1185.699	5345
1188.001	5319
1190.301	5213
1192.6	5338
1194.9	5399
1197.2	5146
1199.497	5271
1201.794	5266
1204.09	5272
1206.387	5207
1208.684	5127
1210.978	5306
1213.272	5296
1215.565	5275
1217.858	5238
1220.15	5334
1222.443	5270
1224.734	5320
1227.024	5450
1229.313	5399
1231.602	5332
1233.892	5349
1236.18	5366
1238.467	5461
1240.754	5376
1243.04	5512
1245.325	5508
1247.612	5447
1249.896	5553
1252.178	5484
1254.461	5496
1256.743	5451
1259.027	5421
1261.308	5483
1263.587	5388
1265.867	5542
1268.146	5552
1270.425	5483
1272.703	5513
1274.981	5455
1277.256	5463
1279.532	5383
1281.808	5377
1284.083	5385
1286.358	5438
1288.63	5471
1290.904	5309
1293.175	5355
1295.449	5526
1297.719	5495
1299.99	5447
1302.259	5416
1304.529	5370
1306.798	5411
1309.065	5376
1311.333	5409
1313.599	5456
1315.866	5420
1318.131	5376
1320.396	5440
1322.66	5494
1324.925	5437
1327.187	5443
1329.448	5462
1331.711	5488
1333.974	5455
1336.234	5287
1338.493	5434
1340.752	5416
1343.01	5333
1345.269	5421
1347.526	5458
1349.784	5540
1352.04	5324
1354.295	5307
1356.552	5401
1358.806	5393
1361.059	5396
1363.312	5442
1365.564	5438
1367.818	5375
1370.069	5523
1372.318	5356
1374.568	5577
1376.817	5514
1379.066	5384
1381.316	5524
1383.564	5384
1385.809	5548
1388.056	5488
1390.301	5511
1392.549	5570
1394.793	5586
1397.036	5565
1399.279	5573
1401.522	5723
1403.763	5621
1406.007	5653
1408.248	5539
1410.487	5610
1412.727	5640
1414.965	5702
1417.205	5582
1419.442	5669
1421.68	5668
1423.915	5623
1426.152	5687
1428.388	5582
1430.623	5605
1432.857	5621
1435.091	5589
1437.323	5714
1439.556	5794
1441.789	5702
1444.019	5628
1446.25	5687
1448.48	5736
1450.708	5752
1452.938	5711
1455.167	5846
1457.394	5733
1459.62	5730
1461.846	5686
1464.073	5737
1466.299	5695
1468.523	5692
1470.746	5678
1472.969	5724
1475.191	5600
1477.415	5659
1479.636	5584
1481.858	5545
1484.078	5500
1486.298	5525
1488.518	5616
1490.736	5475
1492.954	5467
1495.169	5451
1497.386	5327
1499.602	5455
1501.819	5437
1504.034	5467
1506.248	5414
1508.462	5501
1510.675	5376
1512.888	5460
1515.1	5443
1517.311	5385
1519.522	5478
1521.732	5319
1523.942	5488
1526.151	5379
1528.36	5412
1530.566	5452
1532.773	5410
1534.98	5493
1537.187	5393
1539.392	5421
1541.596	5467
1543.801	5557
1546.005	5342
1548.208	5476
1550.411	5438
1552.612	5484
1554.814	5577
1557.013	5489
1559.212	5527
1561.414	5662
1563.612	5632
1565.811	5527
1568.007	5511
1570.203	5779
1572.403	5607
1574.598	5638
1576.792	5627
1578.988	5579
1581.181	5545
1583.376	5597
1585.568	5589
1587.761	5567
1589.952	5613
1592.143	5616
1594.333	5610
1596.524	5618
1598.715	5542
1600.903	5639
1603.091	5539
1605.278	5724
1607.466	5558
1609.652	5717
1611.838	5596
1614.023	5610
1616.207	5551
1618.391	5619
1620.576	5548
1622.759	5697
1624.941	5634
1627.123	5619
1629.304	5706
1631.484	5607
1633.664	5693
1635.844	5736
1638.022	5619
1640.201	5633
1642.38	5678
1644.556	5676
1646.732	5705
1648.908	5631
1651.084	5680
1653.257	5754
1655.433	5783
1657.607	5771
1659.779	5659
1661.951	5776
1664.122	5807
1666.295	5737
1668.467	5796
1670.635	5793
1672.805	5713
1674.973	5775
1677.142	5854
1679.31	5808
1681.478	5658
1683.644	5716
1685.81	5788
1687.975	5801
1690.142	5712
1692.305	5742
1694.468	5704
1696.632	5652
1698.794	5656
1700.957	5682
1703.119	5692
1705.279	5673
1707.439	5652
1709.598	5577
1711.758	5527
1713.917	5560
1716.075	5562
1718.231	5605
1720.388	5587
1722.543	5650
1724.702	5682
1726.856	5606
1729.01	5565
1731.164	5623
1733.317	5558
1735.471	5507
1737.623	5619
1739.774	5670
1741.925	5607
1744.075	5676
1746.225	5682
1748.376	5540
1750.524	5611
1752.672	5679
1754.82	5556
1756.965	5653
1759.113	5566
1761.259	5710
1763.405	5672
1765.549	5640
1767.694	5645
1769.836	5742
1771.981	5633
1774.123	5674
1776.264	5564
1778.405	5690
1780.546	5742
1782.687	5604
1784.827	5572
1786.966	5649
1789.103	5640
1791.242	5672
1793.381	5760
1795.517	5689
1797.653	5678
1799.788	5615
1801.923	5666
1804.057	5682
1806.193	5658
1808.326	5653
1810.457	5651
1812.59	5634
1814.721	5692
1816.855	5616
1818.984	5698
1821.113	5662
1823.244	5691
1825.372	5644
1827.499	5660
1829.63	5688
1831.756	5594
1833.882	5516
1836.007	5562
1838.132	5581
1840.26	5635
1842.384	5685
1844.507	5629
1846.63	5690
1848.752	5642
1850.875	5533
1852.996	5605
1855.118	5481
1857.238	5594
1859.358	5581
1861.477	5667
1863.597	5613
1865.715	5624
1867.832	5608
1869.948	5535
1872.064	5657
1874.181	5617
1876.297	5664
1878.411	5595
1880.526	5710
1882.639	5579
1884.752	5640
1886.865	5608
1888.977	5518
1891.089	5606
1893.2	5732
1895.308	5657
1897.42	5618
1899.53	5601
1901.639	5618
1903.745	5628
1905.853	5673
1907.962	5707
1910.067	5666
1912.174	5635
1914.278	5729
1916.383	5708
1918.486	5738
1920.592	5615
1922.694	5654
1924.797	5754
1926.898	5664
1929	5698
1931.102	5607
1933.203	5647
1935.301	5687
1937.401	5725
1939.499	5675
1941.598	5772
1943.697	5764
1945.793	5721
1947.888	5726
1949.985	5725
1952.08	5747
1954.176	5644
1956.269	5695
1958.364	5752
1960.457	5710
1962.549	5646
1964.642	5668
1966.733	5717
1968.823	5724
1970.913	5810
1973.005	5696
1975.093	5671
1977.184	5765
1979.271	5692
1981.359	5753
1983.446	5642
1985.532	5577
1987.619	5696
1989.705	5642
1991.789	5683
1993.874	5708
1995.956	5677
1998.041	5614
2000.123	5562
2002.206	5746
2004.287	5481
2006.368	5652
2008.449	5565
2010.529	5633
2012.609	5607
2014.688	5678
2016.766	5574
2018.843	5735
2020.922	5627
2022.999	5727
2025.074	5592
2027.15	5621
2029.225	5577
2031.299	5598
2033.375	5635
2035.447	5672
2037.52	5542
2039.592	5531
2041.664	5536
2043.736	5664
2045.807	5679
2047.876	5626
2049.947	5674
2052.015	5623
2054.086	5672
2056.153	5648
2058.221	5661
2060.288	5700
2062.353	5736
2064.42	5623
2066.486	5645
2068.55	5650
2070.614	5756
2072.678	5675
2074.741	5610
2076.805	5670
2078.866	5717
2080.929	5621
2082.99	5723
2085.049	5634
2087.109	5679
2089.17	5571
2091.228	5663
2093.286	5700
2095.344	5654
2097.4	5711
2099.46	5530
2101.516	5646
2103.572	5524
2105.626	5615
2107.679	5687
2109.735	5617
2111.788	5618
2113.841	5682
2115.894	5689
2117.945	5642
2119.997	5616
2122.049	5569
2124.1	5656
2126.148	5728
2128.197	5765
2130.246	5662
2132.296	5548
2134.342	5652
2136.39	5674
2138.437	5634
2140.483	5703
2142.527	5589
2144.574	5629
2146.619	5717
2148.661	5549
2150.705	5596
2152.747	5496
2154.792	5581
2156.832	5562
2158.874	5595
2160.915	5683
2162.954	5689
2164.995	5591
2167.034	5601
2169.072	5505
2171.111	5631
2173.148	5597
2175.186	5678
2177.223	5566
2179.258	5557
2181.294	5524
2183.328	5435
2185.362	5580
2187.398	5597
2189.431	5481
2191.463	5507
2193.495	5480
2195.528	5490
2197.56	5613
2199.59	5610
2201.62	5554
2203.649	5499
2205.678	5550
2207.708	5477
2209.737	5566
2211.764	5421
2213.791	5535
2215.817	5451
2217.843	5492
2219.87	5428
2221.895	5491
2223.919	5468
2225.942	5449
2227.966	5513
2229.988	5474
2232.012	5437
2234.032	5451
2236.054	5409
2238.074	5460
2240.095	5428
2242.116	5518
2244.135	5529
2246.153	5429
2248.171	5453
2250.188	5455
2252.208	5443
2254.223	5551
2256.239	5575
2258.255	5521
2260.269	5469
2262.283	5487
2264.3	5326
2266.312	5439
2268.325	5546
2270.336	5451
2272.349	5472
2274.362	5458
2276.372	5384
2278.383	5541
2280.392	5440
2282.402	5485
2284.409	5477
2286.418	5383
2288.427	5579
2290.433	5368
2292.441	5470
2294.446	5406
2296.453	5496
2298.459	5422
2300.463	5496
2302.466	5363
2304.471	5499
2306.475	5434
2308.477	5485
2310.478	5399
2312.481	5459
2314.481	5383
2316.481	5380
2318.482	5462
2320.482	5377
2322.48	5443
2324.48	5453
2326.478	5385
2328.476	5408
2330.473	5398
2332.469	5378
2334.465	5357
2336.46	5386
2338.454	5304
2340.45	5297
2342.444	5290
2344.437	5374
2346.43	5410
2348.421	5370
2350.414	5406
2352.405	5423
2354.396	5314
2356.386	5343
2358.376	5354
2360.366	5271
2362.355	5392
2364.343	5379
2366.331	5302
2368.317	5287
2370.304	5473
2372.292	5365
2374.278	5260
2376.262	5347
2378.247	5295
2380.23	5333
2382.216	5304
2384.199	5249
2386.181	5396
2388.163	5295
2390.144	5285
2392.127	5340
2394.107	5315
2396.087	5270
2398.066	5276
2400.046	5335
2402.023	5304
2404.004	5222
2405.981	5220
2407.957	5370
2409.934	5309
2411.91	5347
2413.886	5283
2415.862	5342
2417.836	5188
2419.809	5277
2421.784	5304
2423.756	5258
2425.73	5322
2427.701	5293
2429.672	5151
2431.644	5303
2433.615	5240
2435.586	5180
2437.555	5277
2439.523	5305
2441.491	5268
2443.459	5230
2445.428	5240
2447.395	5309
2449.361	5346
2451.327	5252
2453.292	5287
2455.257	5234
2457.223	5210
2459.187	5195
2461.15	5200
2463.113	5240
2465.076	5313
2467.039	5163
2468.999	5307
2470.96	5303
2472.921	5205
2474.881	5254
2476.841	5245
2478.8	5254
2480.759	5290
2482.717	5041
2484.675	5215
2486.63	5165
2488.589	5121
2490.545	5201
2492.5	5254
2494.455	5308
2496.408	5220
2498.364	5227
2500.318	5241
2502.27	5141
2504.223	5068
2506.174	5162
2508.126	5201
2510.078	5171
2512.03	5221
2513.979	5222
2515.927	5116
2517.877	5177
2519.826	5116
2521.775	5133
2523.722	5162
2525.668	4995
2527.616	5160
2529.561	5100
2531.508	5054
2533.452	5041
2535.398	5155
2537.342	5146
2539.284	5108
2541.229	5216
2543.173	5166
2545.114	5051
2547.055	5070
2548.996	5078
2550.938	5119
2552.878	5096
2554.817	5216
2556.756	5173
2558.695	5166
2560.633	5139
2562.572	5117
2564.509	5195
2566.445	5004
2568.382	5039
2570.317	5109
2572.254	5138
2574.189	5239
2576.123	5210
2578.057	5218
2579.99	5138
2581.923	5048
2583.855	5130
2585.788	5128
2587.719	5146
2589.65	5142
2591.579	5103
2593.511	5147
2595.44	5131
2597.37	5092
2599.297	5073
2601.225	5222
2603.153	5088
2605.08	5228
2607.007	5098
2608.932	5107
2610.858	5262
2612.782	5114
2614.709	5180
2616.632	5036
2618.556	5104
2620.478	5152
2622.401	5158
2624.324	5152
2626.247	5224
2628.167	5196
2630.088	5167
2632.008	5166
2633.928	5121
2635.848	5086
2637.766	5009
2639.684	5083
2641.603	5073
2643.519	5139
2645.437	5070
2647.353	5153
2649.27	5131
2651.184	5075
2653.099	5153
2655.014	5148
2656.928	5183
2658.842	5135
2660.755	5169
2662.667	5228
2664.579	5036
2666.491	5140
2668.402	5028
2670.312	5171
2672.222	5093
2674.132	5139
2676.042	5112
2677.951	5068
2679.859	5107
2681.766	5090
2683.674	5128
2685.582	5060
2687.488	5017
2689.392	5178
2691.298	5080
2693.202	5063
2695.107	5036
2697.012	5071
2698.914	5086
2700.817	5025
2702.72	5043
2704.622	5087
2706.524	5190
2708.425	5107
2710.326	5049
2712.225	4959
2714.125	5044
2716.024	5093
2717.923	5043
2719.822	5104
2721.719	5068
2723.616	5046
2725.512	4966
2727.41	4994
2729.305	5039
2731.201	4993
2733.095	4992
2734.99	5164
2736.884	4964
2738.778	5000
2740.67	5052
2742.562	5000
2744.455	4907
2746.346	5090
2748.238	4968
2750.129	4982
2752.018	4987
2753.907	4923
2755.797	4911
2757.687	5083
2759.575	4993
2761.462	4977
2763.349	5004
2765.237	4974
2767.124	4978
2769.009	4915
2770.894	4961
2772.779	5006
2774.663	4962
2776.547	4905
2778.431	4897
2780.314	4927
2782.197	5059
2784.078	4970
2785.96	4912
2787.842	4953
2789.723	5039
2791.603	4844
2793.483	4955
2795.362	4911
2797.241	4979
2799.121	4940
2800.997	4891
2802.874	4973
2804.751	4953
2806.628	4995
2808.506	4952
2810.38	4833
2812.255	4968
2814.13	4852
2816.003	4961
2817.878	4906
2819.752	4971
2821.623	4917
2823.496	4940
2825.368	4996
2827.238	4857
2829.111	4994
2830.98	4881
2832.851	4839
2834.719	5007
2836.589	4882
2838.458	5042
2840.327	4994
2842.193	4875
2844.061	5003
2845.927	4927
2847.794	4910
2849.66	4935
2851.525	4951
2853.39	4955
2855.254	5046
2857.117	4901
2858.983	5066
2860.845	5055
2862.707	5054
2864.569	5050
2866.431	5053
2868.293	5087
2870.154	5155
2872.013	5151
2873.873	5211
2875.733	5192
2877.592	5310
2879.451	5345
2881.309	5325
2883.166	5354
2885.022	5428
2886.879	5411
2888.736	5344
2890.591	5486
2892.446	5472
2894.301	5489
2896.155	5449
2898.009	5378
2899.863	5417
2901.716	5468
2903.568	5405
2905.419	5320
2907.27	5502
2909.123	5400
2910.973	5435
2912.824	5509
2914.673	5483
2916.521	5409
2918.372	5499
2920.22	5492
2922.067	5619
2923.914	5709
2925.761	5655
2927.607	5637
2929.455	5786
2931.301	5721
2933.144	5713
2934.99	5779
2936.833	5903
2938.678	5793
2940.522	5892
2942.364	5959
2944.207	6047
2946.048	6041
2947.891	6210
2949.731	6220
2951.571	6133
2953.412	6095
2955.25	6029
2957.09	6027
2958.93	5906
2960.767	5963
2962.606	5891
2964.443	5907
2966.279	5777
2968.116	5668
2969.953	5595
2971.788	5637
2973.623	5534
2975.457	5500
2977.292	5521
2979.127	5375
2980.959	5420
2982.792	5396
2984.624	5441
2986.455	5480
2988.288	5355
2990.119	5303
2991.949	5209
2993.779	5287
2995.608	5111
2997.439	5111
2999.268	5140
3001.096	5155
3002.923	5112
3004.751	5002
3006.578	5002
3008.406	4948
3010.232	5008
3012.057	4907
3013.883	4884
3015.706	4841
3017.532	4869
3019.356	4863
3021.179	4820
3023.002	4832
3024.823	4787
3026.646	4686
3028.469	4640
3030.289	4772
3032.11	4737
3033.93	4763
3035.749	4700
3037.57	4702
3039.39	4747
3041.207	4708
3043.026	4667
3044.842	4606
3046.661	4660
3048.477	4738
3050.294	4673
3052.109	4685
3053.925	4607
3055.739	4673
3057.555	4677
3059.368	4654
3061.181	4622
3062.995	4650
3064.807	4694
3066.62	4669
3068.433	4648
3070.243	4654
3072.054	4624
3073.865	4537
3075.675	4595
3077.485	4624
3079.293	4639
3081.102	4559
3082.911	4521
3084.719	4636
3086.527	4592
3088.333	4482
3090.139	4602
3091.945	4595
3093.75	4607
3095.557	4426
3097.361	4522
3099.165	4452
3100.969	4482
3102.772	4447
3104.575	4468
3106.379	4461
3108.181	4530
3109.982	4445
3111.783	4469
3113.584	4455
3115.386	4482
3117.186	4454
3118.985	4432
3120.783	4549
3122.582	4459
3124.381	4458
3126.179	4465
3127.975	4493
3129.772	4421
3131.569	4410
3133.365	4387
3135.161	4387
3136.956	4521
3138.751	4374
3140.544	4408
3142.338	4317
3144.132	4353
3145.925	4438
3147.717	4391
3149.509	4415
3151.301	4419
3153.091	4401
3154.884	4389
3156.673	4363
3158.462	4376
3160.252	4482
3162.041	4336
3163.831	4351
3165.618	4349
3167.405	4405
3169.193	4355
3170.979	4308
3172.767	4322
3174.553	4388
3176.338	4380
3178.123	4293
3179.907	4394
3181.692	4334
3183.477	4287
3185.259	4258
3187.042	4343
3188.824	4258
3190.607	4319
3192.389	4290
3194.17	4368
3195.951	4417
3197.73	4352
3199.51	4335
3201.289	4284
3203.07	4362
3204.848	4370
3206.626	4271
3208.403	4316
3210.18	4324
3211.959	4321
3213.735	4317
3215.511	4253
3217.285	4289
3219.06	4309
3220.836	4262
3222.611	4278
3224.384	4352
3226.158	4214
3227.929	4408
3229.702	4318
3231.476	4342
3233.248	4319
3235.018	4263
3236.789	4308
3238.56	4356
3240.33	4271
3242.1	4356
3243.869	4374
3245.637	4288
3247.405	4351
3249.172	4313
3250.941	4324
3252.707	4322
3254.474	4232
3256.24	4313
3258.006	4331
3259.772	4282
3261.537	4293
3263.301	4330
3265.065	4296
3266.828	4349
3268.592	4302
3270.355	4272
3272.117	4295
3273.878	4311
3275.64	4231
3277.401	4257
3279.162	4238
3280.922	4251
3282.682	4255
3284.441	4205
3286.199	4267
3287.959	4232
3289.716	4355
3291.475	4203
3293.232	4270
3294.988	4351
3296.744	4191
3298.501	4243
3300.256	4263
3302.011	4265
3303.766	4246
3305.52	4225
3307.275	4234
3309.028	4199
3310.781	4370
3312.533	4262
3314.285	4303
3316.038	4235
3317.789	4203
3319.54	4302
3321.289	4278
3323.039	4290
3324.789	4222
3326.539	4263
3328.288	4286
3330.035	4232
3331.783	4222
3333.531	4244
3335.28	4287
3337.025	4105
3338.771	4194
3340.518	4269
3342.262	4193
3344.009	4204
3345.753	4186
3347.497	4256
3349.24	4206
3350.983	4222
3352.726	4125
3354.469	4120
3356.212	4066
3357.952	4234
3359.694	4105
3361.434	4170
3363.176	4125
3364.916	4163
3366.654	4167
3368.394	4132
3370.132	4073
3371.871	4142
3373.61	4153
3375.346	4109
3377.083	4146
3378.82	4145
3380.556	4167
3382.292	4174
3384.027	4171
3385.763	4113
3387.497	4113
3389.231	4064
3390.965	4079
3392.698	4148
3394.431	4086
3396.164	4098
3397.896	4093
3399.627	4082
3401.36	4079
3403.09	4040
3404.82	4084
3406.55	4023
3408.279	4127
3410.01	4062
3411.738	4094
3413.467	4058
3415.194	3963
3416.92	3911
3418.647	4123
3420.375	4067
3422.102	4065
3423.827	4111
3425.553	4037
3427.277	4031
3429.003	3984
3430.727	3961
3432.451	3967
3434.173	4035
3435.896	3924
3437.62	4051
3439.343	4021
3441.063	3942
3442.785	3966
3444.505	3896
3446.226	4002
3447.948	3963
3449.666	3885
3451.386	3943
3453.104	3972
3454.823	3927
3456.541	3917
3458.259	3797
3459.976	3916
3461.693	3970
3463.408	3911
3465.125	3898
3466.841	3884
3468.556	3895
3470.271	3876
3471.985	3909
3473.698	3847
3475.414	3811
3477.126	3863
3478.838	3893
3480.55	3769
3482.263	3862
3483.975	3928
3485.686	3805
3487.396	3821
3489.106	3795
3490.817	3909
3492.526	3790
3494.236	3791
3495.944	3779
3497.652	3875
3499.359	3744
3501.066	3817
3502.775	3779
3504.481	3791
3506.187	3789
3507.893	3779
3509.598	3770
3511.304	3726
3513.009	3701
3514.713	3710
3516.417	3671
3518.12	3756
3519.821	3732
3521.525	3747
3523.228	3759
3524.929	3760
3526.631	3729
3528.33	3704
3530.032	3617
3531.733	3643
3533.433	3746
3535.131	3707
3536.83	3681
3538.529	3755
3540.227	3744
3541.925	3598
3543.623	3725
3545.319	3729
3547.016	3756
3548.712	3668
3550.408	3632
3552.103	3736
3553.798	3724
3555.491	3653
3557.188	3594
3558.88	3640
3560.574	3677
3562.266	3701
3563.959	3631
3565.651	3613
3567.343	3580
3569.035	3580
3570.725	3597
3572.415	3600
3574.106	3563
3575.797	3623
3577.485	3632
3579.174	3640
3580.863	3615
3582.551	3624
3584.238	3587
3585.926	3643
3587.613	3514
3589.3	3512
3590.986	3576
3592.671	3544
3594.357	3578
3596.042	3564
3597.726	3569
3599.41	3618
3601.094	3540
3602.778	3467
3604.461	3470
3606.143	3574
3607.825	3452
3609.507	3582
3611.188	3491
3612.87	3545
3614.551	3467
3616.229	3447
3617.909	3458
3619.589	3469
3621.269	3514
3622.948	3474
3624.625	3442
3626.302	3478
3627.98	3486
3629.657	3385
3631.334	3415
3633.01	3470
3634.686	3413
3636.361	3403
3638.036	3464
3639.712	3478
3641.385	3470
3643.06	3389
3644.732	3388
3646.405	3452
3648.08	3334
3649.751	3396
3651.424	3304
3653.094	3466
3654.766	3329
3656.436	3397
3658.106	3400
3659.777	3331
3661.446	3417
3663.115	3386
3664.783	3310
3666.452	3319
3668.121	3366
3669.788	3442
3671.454	3322
3673.121	3290
3674.789	3398
3676.455	3292
3678.12	3435
3679.784	3324
3681.45	3263
3683.114	3342
3684.779	3384
3686.442	3297
3688.105	3319
3689.768	3321
3691.43	3338
3693.093	3278
3694.754	3383
3696.415	3215
3698.076	3377
3699.736	3281
3701.396	3321
3703.057	3274
3704.716	3332
3706.375	3233
3708.034	3206
3709.692	3219
3711.351	3290
3713.008	3269
3714.665	3253
3716.321	3239
3717.977	3284
3719.634	3290
3721.29	3255
3722.945	3402
3724.598	3281
3726.253	3241
3727.907	3249
3729.561	3242
3731.214	3233
3732.867	3190
3734.518	3200
3736.171	3302
3737.824	3235
3739.474	3254
3741.125	3243
3742.775	3172
3744.425	3222
3746.074	3275
3747.725	3184
3749.373	3243
3751.022	3220
3752.669	3236
3754.318	3162
3755.966	3282
3757.612	3134
3759.259	3208
3760.905	3209
3762.55	3290
3764.197	3141
3765.842	3196
3767.486	3194
3769.131	3178
3770.774	3138
3772.417	3226
3774.061	3142
3775.705	3163
3777.347	3186
3778.988	3033
3780.629	3129
3782.271	3197
3783.912	3053
3785.552	3146
3787.192	3145
3788.831	3170
3790.472	3179
3792.112	3156
3793.75	3207
3795.388	3086
3797.024	3071
3798.661	3108
3800.3	3162
3801.936	3040
3803.572	3121
3805.208	3099
3806.844	3089
3808.48	3084
3810.115	3053
3811.748	3049
3813.382	3081
3815.016	3040
3816.649	3107
3818.283	3099
3819.914	3039
3821.547	3092
3823.178	3027
3824.809	3099
3826.441	3019
3828.072	3035
3829.701	3080
3831.331	3105
3832.96	3052
3834.591	2974
3836.219	3031
3837.847	3083
3839.475	2967
3841.102	2964
3842.729	3027
3844.357	3098
3845.984	3014
3847.609	3019
3849.234	3007
3850.86	3035
3852.485	3081
3854.11	3090
3855.734	2934
3857.357	3005
3858.981	2983
3860.603	3047
3862.227	3003
3863.848	3040
3865.471	2999
3867.092	2980
3868.713	2988
3870.334	3001
3871.954	2971
3873.575	2977
3875.194	3007
3876.813	3022
3878.433	2907
3880.051	2976
3881.669	2987
3883.286	3023
3884.904	2988
3886.52	2923
3888.138	2987
3889.754	2941
3891.37	2918
3892.985	2926
3894.6	2899
3896.216	2940
3897.831	2989
3899.444	2974
3901.058	2951
3902.67	2873
3904.283	2930
3905.897	2947
3907.509	2898
3909.121	2947
3910.731	2924
3912.342	2934
3913.954	2943
3915.563	3015
3917.174	2852
3918.783	2984
3920.391	2925
3922.002	2967
3923.611	2948
3925.218	2959
3926.826	2929
3928.432	2926
3930.039	2916
3931.647	2897
3933.253	2901
3934.859	2906
3936.464	2947
3938.068	2784
3939.675	2891
3941.278	2891
3942.883	2953
3944.486	2854
3946.089	2950
3947.692	2885
3949.295	2820
3950.898	2933
3952.499	2870
3954.1	2983
3955.7	2830
3957.303	2932
3958.903	2847
3960.502	2888
3962.101	2834
3963.7	2895
3965.301	2939
3966.899	2819
3968.497	2845
3970.094	2887
3971.691	2841
3973.288	2884
3974.885	2729
3976.481	2839
3978.077	2861
3979.672	2821
3981.267	2849
3982.863	2860
3984.457	2802
3986.051	2778
3987.645	2847
3989.238	2837
3990.831	2835
3992.425	2838
3994.017	2776
3995.607	2786
3997.199	2789
3998.79	2797
4000.382	2804
4001.973	2739
4003.561	2770
4005.151	2728
4006.741	2759
4008.331	2712
4009.918	2694
4011.507	2735
4013.095	2729
4014.681	2739
4016.269	2706
4017.856	2737
4019.443	2756
4021.028	2757
4022.614	2718
4024.199	2700
4025.785	2688
4027.37	2724
4028.953	2703
4030.536	2708
4032.12	2713
4033.704	2697
4035.287	2756
4036.869	2722
4038.45	2688
4040.032	2711
4041.613	2697
4043.195	2686
4044.776	2707
4046.356	2680
4047.935	2749
4049.515	2698
4051.095	2695
4052.674	2611
4054.251	2654
4055.829	2651
4057.406	2642
4058.985	2634
4060.562	2690
4062.139	2662
4063.715	2668
4065.29	2592
4066.865	2643
4068.442	2671
4070.016	2654
4071.59	2620
4073.164	2596
4074.738	2609
4076.312	2580
4077.885	2598
4079.458	2613
4081.03	2615
4082.602	2610
4084.173	2648
4085.745	2612
4087.315	2631
4088.886	2568
4090.456	2644
4092.026	2595
4093.596	2599
4095.165	2608
4096.734	2582
4098.301	2585
4099.869	2621
4101.437	2613
4103.006	2611
4104.572	2662
4106.139	2633
4107.704	2544
4109.27	2636
4110.837	2534
4112.401	2553
4113.966	2597
4115.53	2610
4117.094	2521
4118.659	2612
4120.223	2513
4121.785	2605
4123.347	2509
4124.909	2547
4126.471	2478
4128.034	2588
4129.595	2499
4131.155	2546
4132.716	2526
4134.275	2525
4135.836	2501
4137.395	2551
4138.955	2526
4140.513	2535
4142.071	2513
4143.628	2500
4145.188	2509
4146.745	2518
4148.302	2520
4149.858	2490
4151.414	2535
4152.971	2453
4154.526	2493
4156.081	2483
4157.635	2529
4159.189	2475
4160.745	2409
4162.298	2521
4163.852	2487
4165.405	2454
4166.957	2398
4168.51	2438
4170.063	2478
4171.614	2450
4173.166	2434
4174.717	2469
4176.267	2475
4177.817	2438
4179.368	2439
4180.917	2467
4182.466	2446
4184.016	2418
4185.564	2468
4187.112	2390
4188.66	2402
4190.207	2406
4191.754	2330
4193.301	2439
4194.848	2444
4196.394	2418
4197.94	2333
4199.484	2436
4201.03	2429
4202.575	2419
4204.12	2410
4205.663	2413
4207.207	2373
4208.75	2363
4210.292	2360
4211.836	2386
4213.378	2310
4214.92	2378
4216.46	2437
4218.002	2408
4219.544	2338
4221.083	2374
4222.625	2345
4224.164	2409
4225.703	2341
4227.244	2361
4228.782	2312
4230.32	2397
4231.857	2327
4233.395	2314
4234.933	2384
4236.471	2351
4238.007	2370
4239.542	2351
4241.078	2313
4242.614	2375
4244.15	2318
4245.685	2418
4247.219	2325
4248.753	2389
4250.287	2274
4251.82	2352
4253.354	2279
4254.887	2304
4256.419	2367
4257.951	2358
4259.483	2349
4261.016	2305
4262.547	2321
4264.078	2354
4265.608	2298
4267.137	2314
4268.668	2324
4270.197	2300
4271.727	2275
4273.254	2247
4274.783	2345
4276.311	2390
4277.84	2319
4279.366	2270
4280.894	2343
4282.42	2278
4283.946	2375
4285.473	2302
4286.998	2289
4288.523	2268
4290.047	2295
4291.572	2231
4293.096	2270
4294.622	2300
4296.144	2263
4297.668	2225
4299.19	2282
4300.713	2285
4302.236	2249
4303.758	2238
4305.279	2290
4306.799	2279
4308.321	2235
4309.842	2275
4311.361	2318
4312.882	2242
4314.401	2280
