400.0961	4414
402.6185	4179
405.1424	4336
407.6635	4318
410.1838	4278
412.7035	4283
415.2225	4340
417.7388	4364
420.2585	4342
422.7754	4466
425.2917	4439
427.8072	4501
430.3221	4459
432.8363	4528
435.3498	4537
437.8626	4491
440.3727	4539
442.8841	4595
445.3969	4588
447.907	4652
450.4142	4545
452.9229	4594
455.4289	4663
457.9362	4605
460.4449	4651
462.9488	4653
465.454	4532
467.9566	4631
470.4604	4636
472.9637	4630
475.4662	4646
477.966	4563
480.4671	4606
482.9656	4670
485.4633	4678
487.9645	4603
490.4608	4728
492.9566	4585
495.4536	4656
497.948	4766
500.4437	4818
502.9387	4724
505.431	4648
507.9226	4648
510.4136	4778
512.9079	4763
515.3975	4799
517.8864	4784
520.3746	4758
522.8622	4745
525.3491	4819
527.8394	4776
530.3249	4757
532.8098	4821
535.2939	4762
537.7774	4828
540.2623	4834
542.7444	4873
545.2259	4824
547.7067	4847
550.1868	4816
552.6683	4854
555.147	4864
557.6231	4786
560.1005	4840
562.5773	4805
565.0534	4832
567.5308	4819
570.0056	4879
572.4776	4965
574.951	4899
577.4237	4941
579.8978	4981
582.3671	5002
584.8378	4888
587.3079	4963
589.7773	4979
592.244	5042
594.714	5040
597.1793	4972
599.6461	4964
602.1121	4861
604.5754	5019
607.0421	4991
609.5042	4961
611.9675	4975
614.4282	5082
616.8902	5026
619.3515	5073
621.8122	4933
624.2702	4977
626.7296	4927
629.1863	5043
631.6423	4971
634.1017	4952
636.5563	5052
639.0104	4992
641.4658	5080
643.9185	5003
646.3725	5058
648.8239	5004
651.2766	4954
653.7266	4984
656.176	5066
658.6247	5002
661.0748	5095
663.5242	5171
665.9709	5135
668.417	5167
670.8624	5073
673.3092	5098
675.7533	5134
678.1968	5102
680.6395	5208
683.0817	5125
685.5251	5215
687.9659	5203
690.4061	5297
692.8456	5242
695.2844	5219
697.7226	5199
700.1621	5306
702.599	5195
705.0332	5254
707.4688	5247
709.9036	5213
712.3399	5277
714.7735	5342
717.2044	5334
719.6367	5357
722.0683	5229
724.4993	5323
726.9296	5246
729.3593	5294
731.7883	5432
734.2147	5321
736.6423	5258
739.0714	5494
741.4958	5325
743.9216	5486
746.3447	5477
748.7691	5461
751.1929	5541
753.616	5596
756.0366	5512
758.4584	5533
760.8776	5487
763.2982	5505
765.718	5523
768.1373	5524
770.5539	5569
772.9698	5584
775.3871	5543
777.8038	5425
780.2178	5622
782.6332	5595
785.0459	5524
787.458	5561
789.8714	5588
792.2842	5572
794.6943	5609
797.1038	5660
799.5127	5649
801.9209	5540
804.3324	5638
806.7393	5677
809.1456	5561
811.5513	5609
813.9562	5683
816.3625	5578
818.7663	5625
821.1693	5658
823.5718	5637
825.9735	5610
828.3746	5741
830.7771	5644
833.177	5535
835.5762	5617
837.9747	5702
840.3727	5600
842.772	5590
845.1666	5748
847.5626	5687
849.958	5713
852.3527	5832
854.7488	5783
857.1403	5712
859.5331	5697
861.9253	5744
864.3168	5752
866.7057	5748
869.098	5754
871.4876	5787
873.8746	5794
876.263	5750
878.6487	5805
881.0378	5775
883.4243	5713
885.8081	5804
888.1933	5712
890.5759	5680
892.9598	5673
895.343	5826
897.7256	5798
900.1057	5677
902.4871	5767
904.8659	5809
907.246	5830
909.6254	5883
912.0023	5858
914.3786	5831
916.7562	5785
919.1331	5846
921.5074	6048
923.8831	5967
926.2562	5989
928.6287	5893
931.0005	5964
933.3757	5975
935.7462	5976
938.1162	5904
940.4855	6039
942.8542	6221
945.2242	6068
947.5916	6118
949.9584	6282
952.3266	6323
954.6921	6476
957.0571	6588
959.4233	6808
961.787	6862
964.15	6937
966.5125	6803
968.8742	6633
971.2354	6408
973.5959	6347
975.9559	6113
978.3151	6059
980.6738	6137
983.0338	6038
985.3912	5887
987.7461	5915
990.1022	5917
992.4578	6005
994.8127	5884
997.1689	5918
999.5207	5939
1001.874	5972
1004.226	5965
1006.576	6053
1008.929	5945
1011.28	5976
1013.628	5935
1015.977	6082
1018.324	6043
1020.674	6091
1023.019	6056
1025.366	6052
1027.713	5989
1030.056	6072
1032.399	6088
1034.746	6135
1037.087	5996
1039.431	5979
1041.771	6153
1044.113	6054
1046.454	6145
1048.793	6020
1051.133	6141
1053.471	6177
1055.807	6156
1058.146	6078
1060.483	6202
1062.818	6059
1065.153	6132
1067.489	6084
1069.822	6069
1072.156	6099
1074.488	6341
1076.82	6245
1079.15	6103
1081.48	6145
1083.814	6171
1086.143	6142
1088.471	6170
1090.799	6064
1093.126	6043
1095.452	6172
1097.78	6152
1100.105	6286
1102.43	6053
1104.754	6091
1107.077	6089
1109.4	6262
1111.722	6141
1114.044	6136
1116.365	6175
1118.685	6073
1121.005	6161
1123.324	6145
1125.643	6182
1127.961	6176
1130.278	6171
1132.595	6122
1134.911	6120
1137.226	6113
1139.541	6235
1141.854	6109
1144.167	6175
1146.482	6179
1148.793	6141
1151.105	6179
1153.414	6211
1155.725	6142
1158.033	6222
1160.344	6195
1162.651	6079
1164.959	6144
1167.265	6195
1169.572	6212
1171.878	6090
1174.184	6258
1176.488	6155
1178.79	6127
1181.094	6165
1183.396	6300
1185.699	6215
1188.001	6175
1190.301	6190
1192.6	6197
1194.9	6110
1197.2	6241
1199.497	6114
1201.794	6208
1204.09	6216
1206.387	6141
1208.684	6174
1210.978	6069
1213.272	6216
1215.565	6228
1217.858	6089
1220.15	6244
1222.443	6241
1224.734	6169
1227.024	6290
1229.313	6205
1231.602	6341
1233.892	6307
1236.18	6314
1238.467	6275
1240.754	6365
1243.04	6358
1245.325	6449
1247.612	6335
1249.896	6501
1252.178	6409
1254.461	6415
1256.743	6388
1259.027	6356
1261.308	6337
1263.587	6389
1265.867	6484
1268.146	6406
1270.425	6410
1272.703	6451
1274.981	6462
1277.256	6388
1279.532	6432
1281.808	6419
1284.083	6366
1286.358	6335
1288.63	6426
1290.904	6255
1293.175	6236
1295.449	6312
1297.719	6248
1299.99	6373
1302.259	6306
1304.529	6292
1306.798	6314
1309.065	6402
1311.333	6393
1313.599	6371
1315.866	6349
1318.131	6406
1320.396	6381
1322.66	6316
1324.925	6432
1327.187	6322
1329.448	6329
1331.711	6331
1333.974	6331
1336.234	6224
1338.493	6371
1340.752	6311
1343.01	6473
1345.269	6359
1347.526	6357
1349.784	6405
1352.04	6344
1354.295	6327
1356.552	6386
1358.806	6317
1361.059	6443
1363.312	6385
1365.564	6306
1367.818	6413
1370.069	6467
1372.318	6393
1374.568	6439
1376.817	6531
1379.066	6437
1381.316	6338
1383.564	6376
1385.809	6348
1388.056	6432
1390.301	6460
1392.549	6519
1394.793	6503
1397.036	6496
1399.279	6529
1401.522	6454
1403.763	6552
1406.007	6519
1408.248	6664
1410.487	6463
1412.727	6537
1414.965	6459
1417.205	6546
1419.442	6542
1421.68	6494
1423.915	6540
1426.152	6614
1428.388	6578
1430.623	6453
1432.857	6610
1435.091	6553
1437.323	6655
1439.556	6643
1441.789	6630
1444.019	6614
1446.25	6611
1448.48	6598
1450.708	6730
1452.938	6567
1455.167	6566
1457.394	6591
1459.62	6772
1461.846	6579
1464.073	6703
1466.299	6623
1468.523	6555
1470.746	6643
1472.969	6576
1475.191	6571
1477.415	6640
1479.636	6555
1481.858	6448
1484.078	6542
1486.298	6547
1488.518	6305
1490.736	6419
1492.954	6413
1495.169	6382
1497.386	6402
1499.602	6365
1501.819	6364
1504.034	6521
1506.248	6383
1508.462	6521
1510.675	6454
1512.888	6397
1515.1	6437
1517.311	6384
1519.522	6264
1521.732	6433
1523.942	6422
1526.151	6351
1528.36	6347
1530.566	6454
1532.773	6450
1534.98	6486
1537.187	6362
1539.392	6462
1541.596	6607
1543.801	6418
1546.005	6565
1548.208	6505
1550.411	6557
1552.612	6404
1554.814	6564
1557.013	6474
1559.212	6458
1561.414	6543
1563.612	6542
1565.811	6599
1568.007	6588
1570.203	6520
1572.403	6486
1574.598	6557
1576.792	6447
1578.988	6547
1581.181	6477
1583.376	6563
1585.568	6739
1587.761	6723
1589.952	6690
1592.143	6719
1594.333	6620
1596.524	6600
1598.715	6553
1600.903	6592
1603.091	6590
1605.278	6656
1607.466	6604
1609.652	6513
1611.838	6588
1614.023	6717
1616.207	6733
1618.391	6595
1620.576	6683
1622.759	6616
1624.941	6695
1627.123	6599
1629.304	6616
1631.484	6717
1633.664	6704
1635.844	6533
1638.022	6683
1640.201	6808
1642.38	6647
1644.556	6794
1646.732	6666
1648.908	6654
1651.084	6617
1653.257	6593
1655.433	6743
1657.607	6633
1659.779	6686
1661.951	6718
1664.122	6803
1666.295	6738
1668.467	6675
1670.635	6749
1672.805	6871
1674.973	6765
1677.142	6721
1679.31	6725
1681.478	6738
1683.644	6718
1685.81	6803
1687.975	6655
1690.142	6667
1692.305	6642
1694.468	6706
1696.632	6560
1698.794	6738
1700.957	6515
1703.119	6506
1705.279	6605
1707.439	6614
1709.598	6585
1711.758	6605
1713.917	6630
1716.075	6659
1718.231	6698
1720.388	6690
1722.543	6530
1724.702	6721
1726.856	6647
1729.01	6528
1731.164	6607
1733.317	6580
1735.471	6623
1737.623	6697
1739.774	6560
1741.925	6644
1744.075	6653
1746.225	6681
1748.376	6673
1750.524	6651
1752.672	6777
1754.82	6653
1756.965	6572
1759.113	6671
1761.259	6633
1763.405	6699
1765.549	6638
1767.694	6616
1769.836	6829
1771.981	6668
1774.123	6542
1776.264	6667
1778.405	6674
1780.546	6684
1782.687	6630
1784.827	6635
1786.966	6587
1789.103	6661
1791.242	6619
1793.381	6775
1795.517	6697
1797.653	6691
1799.788	6640
1801.923	6682
1804.057	6647
1806.193	6651
1808.326	6632
1810.457	6790
1812.59	6595
1814.721	6749
1816.855	6585
1818.984	6600
1821.113	6691
1823.244	6699
1825.372	6642
1827.499	6739
1829.63	6600
1831.756	6703
1833.882	6688
1836.007	6690
1838.132	6642
1840.26	6672
1842.384	6659
1844.507	6619
1846.63	6610
1848.752	6651
1850.875	6536
1852.996	6545
1855.118	6549
1857.238	6596
1859.358	6623
1861.477	6563
1863.597	6614
1865.715	6511
1867.832	6565
1869.948	6673
1872.064	6557
1874.181	6556
1876.297	6591
1878.411	6565
1880.526	6602
1882.639	6688
1884.752	6548
1886.865	6511
1888.977	6603
1891.089	6608
1893.2	6560
1895.308	6654
1897.42	6635
1899.53	6627
1901.639	6729
1903.745	6599
1905.853	6561
1907.962	6701
1910.067	6697
1912.174	6706
1914.278	6740
1916.383	6717
1918.486	6635
1920.592	6580
1922.694	6629
1924.797	6713
1926.898	6694
1929	6643
1931.102	6769
1933.203	6657
1935.301	6766
1937.401	6751
1939.499	6641
1941.598	6590
1943.697	6741
1945.793	6696
1947.888	6691
1949.985	6730
1952.08	6787
1954.176	6637
1956.269	6733
1958.364	6729
1960.457	6677
1962.549	6751
1964.642	6665
1966.733	6747
1968.823	6768
1970.913	6637
1973.005	6719
1975.093	6752
1977.184	6563
1979.271	6731
1981.359	6771
1983.446	6650
1985.532	6676
1987.619	6692
1989.705	6690
1991.789	6654
1993.874	6717
1995.956	6554
1998.041	6659
2000.123	6660
2002.206	6621
2004.287	6701
2006.368	6616
2008.449	6623
2010.529	6626
2012.609	6562
2014.688	6716
2016.766	6678
2018.843	6704
2020.922	6703
2022.999	6588
2025.074	6642
2027.15	6610
2029.225	6632
2031.299	6586
2033.375	6658
2035.447	6606
2037.52	6574
2039.592	6568
2041.664	6560
2043.736	6572
2045.807	6586
2047.876	6725
2049.947	6552
2052.015	6590
2054.086	6665
2056.153	6527
2058.221	6641
2060.288	6618
2062.353	6575
2064.42	6625
2066.486	6571
2068.55	6605
2070.614	6562
2072.678	6596
2074.741	6654
2076.805	6668
2078.866	6613
2080.929	6695
2082.99	6661
2085.049	6639
2087.109	6616
2089.17	6622
2091.228	6547
2093.286	6594
2095.344	6636
2097.4	6615
2099.46	6718
2101.516	6573
2103.572	6684
2105.626	6571
2107.679	6575
2109.735	6689
2111.788	6651
2113.841	6620
2115.894	6573
2117.945	6626
2119.997	6704
2122.049	6616
2124.1	6664
2126.148	6570
2128.197	6634
2130.246	6644
2132.296	6601
2134.342	6681
2136.39	6529
2138.437	6522
2140.483	6550
2142.527	6622
2144.574	6590
2146.619	6573
2148.661	6543
2150.705	6618
2152.747	6524
2154.792	6576
2156.832	6608
2158.874	6554
2160.915	6574
2162.954	6524
2164.995	6523
2167.034	6484
2169.072	6509
2171.111	6400
2173.148	6508
2175.186	6443
2177.223	6391
2179.258	6562
2181.294	6488
2183.328	6534
2185.362	6497
2187.398	6458
2189.431	6517
2191.463	6428
2193.495	6550
2195.528	6453
2197.56	6388
2199.59	6393
2201.62	6474
2203.649	6473
2205.678	6387
2207.708	6434
2209.737	6418
2211.764	6410
2213.791	6387
2215.817	6463
2217.843	6476
2219.87	6403
2221.895	6497
2223.919	6357
2225.942	6331
2227.966	6515
2229.988	6368
2232.012	6415
2234.032	6494
2236.054	6453
2238.074	6386
2240.095	6319
2242.116	6496
2244.135	6353
2246.153	6362
2248.171	6500
2250.188	6456
2252.208	6373
2254.223	6440
2256.239	6602
2258.255	6391
2260.269	6317
2262.283	6389
2264.3	6338
2266.312	6365
2268.325	6403
2270.336	6386
2272.349	6381
2274.362	6493
2276.372	6419
2278.383	6459
2280.392	6309
2282.402	6474
2284.409	6393
2286.418	6368
2288.427	6417
2290.433	6408
2292.441	6341
2294.446	6497
2296.453	6320
2298.459	6350
2300.463	6353
2302.466	6400
2304.471	6319
2306.475	6367
2308.477	6392
2310.478	6182
2312.481	6491
2314.481	6306
2316.481	6314
2318.482	6274
2320.482	6291
2322.48	6400
2324.48	6422
2326.478	6387
2328.476	6228
2330.473	6362
2332.469	6340
2334.465	6364
2336.46	6363
2338.454	6402
2340.45	6319
2342.444	6211
2344.437	6318
2346.43	6364
2348.421	6219
2350.414	6238
2352.405	6369
2354.396	6253
2356.386	6239
2358.376	6279
2360.366	6281
2362.355	6182
2364.343	6231
2366.331	6191
2368.317	6263
2370.304	6231
2372.292	6185
2374.278	6288
2376.262	6208
2378.247	6263
2380.23	6184
2382.216	6330
2384.199	6209
2386.181	6208
2388.163	6239
2390.144	6234
2392.127	6214
2394.107	6214
2396.087	6175
2398.066	6218
2400.046	6143
2402.023	6132
2404.004	6097
2405.981	6247
2407.957	6066
2409.934	6175
2411.91	6170
2413.886	6080
2415.862	6072
2417.836	6127
2419.809	6208
2421.784	6182
2423.756	6129
2425.73	6095
2427.701	6195
2429.672	6200
2431.644	6130
2433.615	6188
2435.586	6176
2437.555	6120
2439.523	6151
2441.491	6231
2443.459	6095
2445.428	6223
2447.395	6126
2449.361	6191
2451.327	5931
2453.292	6259
2455.257	6111
2457.223	6085
2459.187	6085
2461.15	6041
2463.113	6077
2465.076	6091
2467.039	6101
2468.999	6023
2470.96	6056
2472.921	6122
2474.881	6149
2476.841	6051
2478.8	5993
2480.759	6107
2482.717	5935
2484.675	6141
2486.63	5996
2488.589	5973
2490.545	6061
2492.5	5990
2494.455	6086
2496.408	6018
2498.364	6117
2500.318	6046
2502.27	5935
2504.223	6030
2506.174	6014
2508.126	6019
2510.078	5986
2512.03	6061
2513.979	6037
2515.927	6007
2517.877	5949
2519.826	5955
2521.775	6167
2523.722	6039
2525.668	5965
2527.616	5930
2529.561	5966
2531.508	5955
2533.452	5962
2535.398	6010
2537.342	5971
2539.284	5985
2541.229	5883
2543.173	5973
2545.114	5986
2547.055	6031
2548.996	5956
2550.938	5926
2552.878	5930
2554.817	6012
2556.756	5942
2558.695	5897
2560.633	5866
2562.572	5982
2564.509	5820
2566.445	5990
2568.382	5900
2570.317	5885
2572.254	5999
2574.189	5894
2576.123	5954
2578.057	5918
2579.99	6036
2581.923	5991
2583.855	6059
2585.788	6003
2587.719	5876
2589.65	5967
2591.579	5919
2593.511	6028
2595.44	5987
2597.37	5940
2599.297	5981
2601.225	6033
2603.153	5963
2605.08	5902
2607.007	6090
2608.932	6037
2610.858	5861
2612.782	6010
2614.709	5951
2616.632	6051
2618.556	6021
2620.478	5855
2622.401	6003
2624.324	5884
2626.247	5967
2628.167	6009
2630.088	5941
2632.008	5897
2633.928	5889
2635.848	6067
2637.766	5992
2639.684	5908
2641.603	5876
2643.519	5944
2645.437	5876
2647.353	5997
2649.27	5858
2651.184	6016
2653.099	5985
2655.014	5882
2656.928	5874
2658.842	5941
2660.755	5877
2662.667	5865
2664.579	5959
2666.491	5926
2668.402	5994
2670.312	5974
2672.222	5893
2674.132	5847
2676.042	5910
2677.951	5896
2679.859	5829
2681.766	5846
2683.674	5841
2685.582	5941
2687.488	5904
2689.392	5968
2691.298	5893
2693.202	5854
2695.107	5811
2697.012	5933
2698.914	5878
2700.817	5728
2702.72	5842
2704.622	5849
2706.524	5730
2708.425	5766
2710.326	5793
2712.225	5719
2714.125	5803
2716.024	5727
2717.923	5716
2719.822	5814
2721.719	5777
2723.616	5815
2725.512	5743
2727.41	5802
2729.305	5899
2731.201	5764
2733.095	5688
2734.99	5791
2736.884	5686
2738.778	5651
2740.67	5728
2742.562	5868
2744.455	5712
2746.346	5800
2748.238	5695
2750.129	5757
2752.018	5759
2753.907	5708
2755.797	5790
2757.687	5790
2759.575	5822
2761.462	5746
2763.349	5777
2765.237	5744
2767.124	5727
2769.009	5784
2770.894	5707
2772.779	5683
2774.663	5699
2776.547	5734
2778.431	5737
2780.314	5747
2782.197	5702
2784.078	5760
2785.96	5632
2787.842	5639
2789.723	5690
2791.603	5707
2793.483	5692
2795.362	5608
2797.241	5731
2799.121	5637
2800.997	5734
2802.874	5641
2804.751	5633
2806.628	5646
2808.506	5641
2810.38	5726
2812.255	5644
2814.13	5578
2816.003	5644
2817.878	5661
2819.752	5653
2821.623	5600
2823.496	5562
2825.368	5669
2827.238	5618
2829.111	5717
2830.98	5677
2832.851	5706
2834.719	5612
2836.589	5647
2838.458	5644
2840.327	5606
2842.193	5663
2844.061	5673
2845.927	5700
2847.794	5601
2849.66	5670
2851.525	5699
2853.39	5646
2855.254	5715
2857.117	5574
2858.983	5726
2860.845	5688
2862.707	5711
2864.569	5736
2866.431	5705
2868.293	5712
2870.154	5676
2872.013	5810
2873.873	5749
2875.733	5770
2877.592	5840
2879.451	5866
2881.309	5815
2883.166	5895
2885.022	5936
2886.879	5825
2888.736	5887
2890.591	5930
2892.446	5947
2894.301	5930
2896.155	6011
2898.009	5922
2899.863	5903
2901.716	5928
2903.568	5870
2905.419	5879
2907.27	5817
2909.123	5813
2910.973	5860
2912.824	5915
2914.673	5961
2916.521	6007
2918.372	6126
2920.22	6039
2922.067	6072
2923.914	6129
2925.761	5997
2927.607	6093
2929.455	6153
2931.301	6254
2933.144	6151
2934.99	6259
2936.833	6126
2938.678	6257
2940.522	6281
2942.364	6263
2944.207	6321
2946.048	6400
2947.891	6433
2949.731	6358
2951.571	6277
2953.412	6385
2955.25	6439
2957.09	6299
2958.93	6293
2960.767	6360
2962.606	6336
2964.443	6212
2966.279	6091
2968.116	6124
2969.953	6003
2971.788	5955
2973.623	6063
2975.457	5866
2977.292	6028
2979.127	5912
2980.959	5971
2982.792	5802
2984.624	5841
2986.455	5873
2988.288	5843
2990.119	5810
2991.949	5728
2993.779	5791
2995.608	5696
2997.439	5810
2999.268	5793
3001.096	5696
3002.923	5561
3004.751	5586
3006.578	5588
3008.406	5576
3010.232	5487
3012.057	5515
3013.883	5485
3015.706	5435
3017.532	5407
3019.356	5446
3021.179	5410
3023.002	5328
3024.823	5305
3026.646	5364
3028.469	5418
3030.289	5319
3032.11	5363
3033.93	5301
3035.749	5335
3037.57	5276
3039.39	5280
3041.207	5281
3043.026	5161
3044.842	5264
3046.661	5267
3048.477	5374
3050.294	5362
3052.109	5260
3053.925	5237
3055.739	5288
3057.555	5269
3059.368	5314
3061.181	5313
3062.995	5258
3064.807	5251
3066.62	5262
3068.433	5293
3070.243	5221
3072.054	5187
3073.865	5260
3075.675	5164
3077.485	5159
3079.293	5130
3081.102	5234
3082.911	5175
3084.719	5134
3086.527	5106
3088.333	5152
3090.139	5142
3091.945	5124
3093.75	5145
3095.557	5035
3097.361	5064
3099.165	5180
3100.969	5135
3102.772	5076
3104.575	5068
3106.379	5089
3108.181	5108
3109.982	5101
3111.783	5086
3113.584	5048
3115.386	4987
3117.186	5052
3118.985	4984
3120.783	5010
3122.582	5070
3124.381	5058
3126.179	5006
3127.975	5010
3129.772	4968
3131.569	5056
3133.365	4998
3135.161	4978
3136.956	4963
3138.751	5052
3140.544	4925
3142.338	5012
3144.132	4937
3145.925	4911
3147.717	4909
3149.509	4974
3151.301	4922
3153.091	4955
3154.884	4866
3156.673	4952
3158.462	4916
3160.252	4970
3162.041	4906
3163.831	4886
3165.618	4883
3167.405	4892
3169.193	4913
3170.979	4860
3172.767	4933
3174.553	4989
3176.338	4777
3178.123	4942
3179.907	4879
3181.692	4845
3183.477	4891
3185.259	4862
3187.042	4867
3188.824	4807
3190.607	4888
3192.389	4873
3194.17	4813
3195.951	4896
3197.73	4865
3199.51	4791
3201.289	4865
3203.07	4892
3204.848	4860
3206.626	4897
3208.403	4811
3210.18	4841
3211.959	4768
3213.735	4843
3215.511	4828
3217.285	4802
3219.06	4797
3220.836	4819
3222.611	4815
3224.384	4780
3226.158	4776
3227.929	4738
3229.702	4779
3231.476	4726
3233.248	4737
3235.018	4838
3236.789	4888
3238.56	4809
3240.33	4840
3242.1	4762
3243.869	4790
3245.637	4900
3247.405	4739
3249.172	4851
3250.941	4815
3252.707	4781
3254.474	4735
3256.24	4737
3258.006	4706
3259.772	4879
3261.537	4773
3263.301	4881
3265.065	4864
3266.828	4838
3268.592	4732
3270.355	4825
3272.117	4766
3273.878	4705
3275.64	4792
3277.401	4822
3279.162	4790
3280.922	4756
3282.682	4721
3284.441	4823
3286.199	4816
3287.959	4747
3289.716	4711
3291.475	4745
3293.232	4772
3294.988	4823
3296.744	4758
3298.501	4831
3300.256	4801
3302.011	4821
3303.766	4664
3305.52	4691
3307.275	4717
3309.028	4638
3310.781	4713
3312.533	4809
3314.285	4727
3316.038	4646
3317.789	4777
3319.54	4562
3321.289	4734
3323.039	4654
3324.789	4724
3326.539	4633
3328.288	4699
3330.035	4727
3331.783	4635
3333.531	4655
3335.28	4723
3337.025	4616
3338.771	4729
3340.518	4734
3342.262	4595
3344.009	4621
3345.753	4721
3347.497	4639
3349.24	4706
3350.983	4593
3352.726	4618
3354.469	4672
3356.212	4653
3357.952	4590
3359.694	4698
3361.434	4704
3363.176	4577
3364.916	4666
3366.654	4599
3368.394	4624
3370.132	4646
3371.871	4659
3373.61	4665
3375.346	4570
3377.083	4580
3378.82	4603
3380.556	4625
3382.292	4578
3384.027	4554
3385.763	4538
3387.497	4568
3389.231	4591
3390.965	4663
3392.698	4579
3394.431	4606
3396.164	4513
3397.896	4669
3399.627	4590
3401.36	4602
3403.09	4608
3404.82	4451
3406.55	4615
3408.279	4471
3410.01	4563
3411.738	4612
3413.467	4531
3415.194	4523
3416.92	4483
3418.647	4508
3420.375	4614
3422.102	4398
3423.827	4467
3425.553	4429
3427.277	4420
3429.003	4491
3430.727	4478
3432.451	4454
3434.173	4452
3435.896	4451
3437.62	4403
3439.343	4472
3441.063	4504
3442.785	4496
3444.505	4431
3446.226	4381
3447.948	4406
3449.666	4345
3451.386	4423
3453.104	4360
3454.823	4461
3456.541	4383
3458.259	4434
3459.976	4250
3461.693	4351
3463.408	4421
3465.125	4339
3466.841	4398
3468.556	4330
3470.271	4334
3471.985	4420
3473.698	4293
3475.414	4377
3477.126	4281
3478.838	4362
3480.55	4275
3482.263	4294
3483.975	4286
3485.686	4319
3487.396	4271
3489.106	4312
3490.817	4312
3492.526	4330
3494.236	4351
3495.944	4219
3497.652	4222
3499.359	4275
3501.066	4227
3502.775	4289
3504.481	4285
3506.187	4292
3507.893	4240
3509.598	4183
3511.304	4153
3513.009	4152
3514.713	4260
3516.417	4156
3518.12	4244
3519.821	4153
3521.525	4178
3523.228	4210
3524.929	4164
3526.631	4252
3528.33	4122
3530.032	4182
3531.733	4176
3533.433	4174
3535.131	4173
3536.83	4085
3538.529	4192
3540.227	4125
3541.925	4161
3543.623	4098
3545.319	4140
3547.016	4033
3548.712	4131
3550.408	4112
3552.103	4154
3553.798	4038
3555.491	4097
3557.188	4222
3558.88	4140
3560.574	3983
3562.266	4038
3563.959	4062
3565.651	4117
3567.343	4104
3569.035	4065
3570.725	4108
3572.415	4092
3574.106	4104
3575.797	4047
3577.485	4079
3579.174	4008
3580.863	4095
3582.551	4030
3584.238	4015
3585.926	4076
3587.613	4024
3589.3	3927
3590.986	4075
3592.671	4013
3594.357	3977
3596.042	3981
3597.726	3982
3599.41	4016
3601.094	3968
3602.778	3984
3604.461	3965
3606.143	4070
3607.825	3908
3609.507	3988
3611.188	3883
3612.87	3971
3614.551	3926
3616.229	4023
3617.909	3889
3619.589	3931
3621.269	3911
3622.948	3903
3624.625	3876
3626.302	3944
3627.98	3857
3629.657	3866
3631.334	3935
3633.01	3944
3634.686	3811
3636.361	3842
3638.036	3751
3639.712	3844
3641.385	3873
3643.06	3730
3644.732	3815
3646.405	3769
3648.08	3909
3649.751	3867
3651.424	3793
3653.094	3846
3654.766	3795
3656.436	3784
3658.106	3762
3659.777	3754
3661.446	3853
3663.115	3834
3664.783	3859
3666.452	3760
3668.121	3828
3669.788	3808
3671.454	3781
3673.121	3757
3674.789	3771
3676.455	3764
3678.12	3726
3679.784	3854
3681.45	3739
3683.114	3832
3684.779	3805
3686.442	3679
3688.105	3675
3689.768	3742
3691.43	3767
3693.093	3686
3694.754	3735
3696.415	3771
3698.076	3713
3699.736	3746
3701.396	3657
3703.057	3662
3704.716	3670
3706.375	3761
3708.034	3707
3709.692	3701
3711.351	3675
3713.008	3716
3714.665	3696
3716.321	3643
3717.977	3620
3719.634	3623
3721.29	3659
3722.945	3616
3724.598	3621
3726.253	3721
3727.907	3716
3729.561	3706
3731.214	3732
3732.867	3645
3734.518	3648
3736.171	3604
3737.824	3599
3739.474	3633
3741.125	3633
3742.775	3624
3744.425	3659
3746.074	3585
3747.725	3538
3749.373	3581
3751.022	3600
3752.669	3588
3754.318	3605
3755.966	3573
3757.612	3559
3759.259	3557
3760.905	3635
3762.55	3554
3764.197	3597
3765.842	3561
3767.486	3655
3769.131	3535
3770.774	3591
3772.417	3588
3774.061	3562
3775.705	3556
3777.347	3531
3778.988	3587
3780.629	3566
3782.271	3524
3783.912	3554
3785.552	3551
3787.192	3554
3788.831	3491
3790.472	3478
3792.112	3529
3793.75	3509
3795.388	3479
3797.024	3497
3798.661	3497
3800.3	3497
3801.936	3519
3803.572	3567
3805.208	3506
3806.844	3573
3808.48	3468
3810.115	3483
3811.748	3487
3813.382	3520
3815.016	3459
3816.649	3416
3818.283	3541
3819.914	3424
3821.547	3454
3823.178	3483
3824.809	3417
3826.441	3380
3828.072	3369
3829.701	3396
3831.331	3462
3832.96	3406
3834.591	3446
3836.219	3437
3837.847	3427
3839.475	3423
3841.102	3422
3842.729	3379
3844.357	3367
3845.984	3353
3847.609	3452
3849.234	3445
3850.86	3442
3852.485	3420
3854.11	3395
3855.734	3335
3857.357	3420
3858.981	3370
3860.603	3436
3862.227	3411
3863.848	3353
3865.471	3304
3867.092	3391
3868.713	3422
3870.334	3423
3871.954	3299
3873.575	3308
3875.194	3295
3876.813	3291
3878.433	3227
3880.051	3394
3881.669	3332
3883.286	3291
3884.904	3305
3886.52	3310
3888.138	3310
3889.754	3310
3891.37	3304
3892.985	3344
3894.6	3369
3896.216	3278
3897.831	3209
3899.444	3295
3901.058	3308
3902.67	3236
3904.283	3351
3905.897	3308
3907.509	3252
3909.121	3324
3910.731	3331
3912.342	3277
3913.954	3304
3915.563	3268
3917.174	3303
3918.783	3276
3920.391	3240
3922.002	3318
3923.611	3262
3925.218	3253
3926.826	3230
3928.432	3230
3930.039	3192
3931.647	3200
3933.253	3275
3934.859	3159
3936.464	3148
3938.068	3266
3939.675	3331
3941.278	3291
3942.883	3250
3944.486	3192
3946.089	3222
3947.692	3154
3949.295	3234
3950.898	3191
3952.499	3198
3954.1	3192
3955.7	3182
3957.303	3253
3958.903	3185
3960.502	3263
3962.101	3218
3963.7	3188
3965.301	3143
3966.899	3198
3968.497	3215
3970.094	3131
3971.691	3148
3973.288	3168
3974.885	3194
3976.481	3135
3978.077	3145
3979.672	3212
3981.267	3206
3982.863	3106
3984.457	3102
3986.051	3098
3987.645	3135
3989.238	3164
3990.831	3121
3992.425	3111
3994.017	3141
3995.607	3117
3997.199	3130
3998.79	3117
4000.382	3089
4001.973	3084
4003.561	3060
4005.151	3051
4006.741	3112
4008.331	3119
4009.918	3067
4011.507	3023
4013.095	3061
4014.681	3019
4016.269	3074
4017.856	3003
4019.443	2988
4021.028	3027
4022.614	3042
4024.199	2996
4025.785	2987
4027.37	3048
4028.953	3025
4030.536	3027
4032.12	3077
4033.704	2948
4035.287	2982
4036.869	3000
4038.45	2987
4040.032	3020
4041.613	3060
4043.195	3008
4044.776	2946
4046.356	2969
4047.935	2937
4049.515	3023
4051.095	2980
4052.674	2911
4054.251	2916
4055.829	2950
4057.406	2966
4058.985	2920
4060.562	2966
4062.139	2969
4063.715	2906
4065.29	2980
4066.865	3014
4068.442	2973
4070.016	2983
4071.59	2909
4073.164	2890
4074.738	2977
4076.312	2952
4077.885	2929
4079.458	2890
4081.03	2925
4082.602	2899
4084.173	2905
4085.745	2886
4087.315	2941
4088.886	2905
4090.456	2867
4092.026	2950
4093.596	2944
4095.165	2923
4096.734	2940
4098.301	2837
4099.869	2889
4101.437	2854
4103.006	2880
4104.572	2884
4106.139	2849
4107.704	2864
4109.27	2931
4110.837	2879
4112.401	2876
4113.966	2877
4115.53	2829
4117.094	2773
4118.659	2883
4120.223	2856
4121.785	2821
4123.347	2869
4124.909	2845
4126.471	2833
4128.034	2832
4129.595	2794
4131.155	2862
4132.716	2777
4134.275	2793
4135.836	2820
4137.395	2733
4138.955	2871
4140.513	2814
4142.071	2795
4143.628	2785
4145.188	2803
4146.745	2757
4148.302	2784
4149.858	2700
4151.414	2862
4152.971	2750
4154.526	2696
4156.081	2689
4157.635	2743
4159.189	2754
4160.745	2703
4162.298	2779
4163.852	2787
4165.405	2668
4166.957	2753
4168.51	2728
4170.063	2708
4171.614	2704
4173.166	2722
4174.717	2710
4176.267	2713
4177.817	2685
4179.368	2716
4180.917	2681
4182.466	2720
4184.016	2750
4185.564	2725
4187.112	2638
4188.66	2644
4190.207	2712
4191.754	2662
4193.301	2689
4194.848	2687
4196.394	2784
4197.94	2669
4199.484	2656
4201.03	2710
4202.575	2674
4204.12	2657
4205.663	2651
4207.207	2621
4208.75	2680
4210.292	2593
4211.836	2643
4213.378	2610
4214.92	2662
4216.46	2649
4218.002	2699
4219.544	2617
4221.083	2536
4222.625	2625
4224.164	2574
4225.703	2628
4227.244	2613
4228.782	2665
4230.32	2616
4231.857	2564
4233.395	2617
4234.933	2603
4236.471	2646
4238.007	2581
4239.542	2578
4241.078	2610
4242.614	2609
4244.15	2618
4245.685	2577
4247.219	2555
4248.753	2662
4250.287	2593
4251.82	2619
4253.354	2607
4254.887	2560
4256.419	2614
4257.951	2565
4259.483	2564
4261.016	2615
4262.547	2518
4264.078	2588
4265.608	2553
4267.137	2526
4268.668	2594
4270.197	2579
4271.727	2570
4273.254	2551
4274.783	2606
4276.311	2625
4277.84	2601
4279.366	2494
4280.894	2542
4282.42	2567
4283.946	2550
4285.473	2506
4286.998	2485
4288.523	2513
4290.047	2493
4291.572	2480
4293.096	2546
4294.622	2562
4296.144	2508
4297.668	2533
4299.19	2527
4300.713	2562
4302.236	2462
4303.758	2562
4305.279	2499
4306.799	2500
4308.321	2435
4309.842	2424
4311.361	2511
4312.882	2493
4314.401	2490
