400.0961	4332
402.6185	4321
405.1424	4376
407.6635	4374
410.1838	4356
412.7035	4445
415.2225	4389
417.7388	4433
420.2585	4340
422.7754	4389
425.2917	4462
427.8072	4496
430.3221	4522
432.8363	4530
435.3498	4522
437.8626	4521
440.3727	4577
442.8841	4602
445.3969	4606
447.907	4601
450.4142	4584
452.9229	4558
455.4289	4681
457.9362	4612
460.4449	4536
462.9488	4525
465.454	4615
467.9566	4534
470.4604	4648
472.9637	4610
475.4662	4696
477.966	4682
480.4671	4689
482.9656	4644
485.4633	4727
487.9645	4779
490.4608	4767
492.9566	4889
495.4536	4764
497.948	4751
500.4437	4867
502.9387	4745
505.431	4832
507.9226	4803
510.4136	4821
512.9079	4793
515.3975	4884
517.8864	4852
520.3746	4838
522.8622	4800
525.3491	4814
527.8394	4840
530.3249	4846
532.8098	4803
535.2939	4821
537.7774	4908
540.2623	4931
542.7444	4926
545.2259	4914
547.7067	4830
550.1868	4898
552.6683	4830
555.147	4817
557.6231	4877
560.1005	5040
562.5773	4849
565.0534	4926
567.5308	4805
570.0056	4993
572.4776	5034
574.951	4972
577.4237	4908
579.8978	5023
582.3671	4938
584.8378	4985
587.3079	4989
589.7773	4997
592.244	4933
594.714	4996
597.1793	4943
599.6461	4921
602.1121	4999
604.5754	5115
607.0421	5012
609.5042	5010
611.9675	4983
614.4282	4986
616.8902	5010
619.3515	5082
621.8122	5053
624.2702	5039
626.7296	5032
629.1863	5027
631.6423	4919
634.1017	5040
636.5563	5014
639.0104	4928
641.4658	5091
643.9185	5099
646.3725	5196
648.8239	5068
651.2766	5164
653.7266	5048
656.176	5128
658.6247	5044
661.0748	5117
663.5242	5228
665.9709	5125
668.417	5198
670.8624	5151
673.3092	5217
675.7533	5320
678.1968	5300
680.6395	5076
683.0817	5173
685.5251	5118
687.9659	5248
690.4061	5337
692.8456	5225
695.2844	5219
697.7226	5176
700.1621	5204
702.599	5258
705.0332	5353
707.4688	5262
709.9036	5297
712.3399	5305
714.7735	5241
717.2044	5282
719.6367	5345
722.0683	5399
724.4993	5350
726.9296	5453
729.3593	5409
731.7883	5416
734.2147	5377
736.6423	5575
739.0714	5449
741.4958	5483
743.9216	5447
746.3447	5434
748.7691	5588
751.1929	5556
753.616	5668
756.0366	5637
758.4584	5605
760.8776	5609
763.2982	5623
765.718	5606
768.1373	5709
770.5539	5642
772.9698	5552
775.3871	5554
777.8038	5545
780.2178	5537
782.6332	5675
785.0459	5628
787.458	5564
789.8714	5571
792.2842	5660
794.6943	5587
797.1038	5649
799.5127	5586
801.9209	5548
804.3324	5614
806.7393	5683
809.1456	5640
811.5513	5612
813.9562	5682
816.3625	5749
818.7663	5727
821.1693	5703
823.5718	5743
825.9735	5708
828.3746	5718
830.7771	5697
833.177	5732
835.5762	5755
837.9747	5756
840.3727	5780
842.772	5730
845.1666	5658
847.5626	5773
849.958	5780
852.3527	5838
854.7488	5869
857.1403	5817
859.5331	5817
861.9253	5858
864.3168	5757
866.7057	5756
869.098	5829
871.4876	5727
873.8746	5873
876.263	5761
878.6487	5772
881.0378	5771
883.4243	5871
885.8081	5757
888.1933	5798
890.5759	5791
892.9598	5768
895.343	5730
897.7256	5799
900.1057	5717
902.4871	5884
904.8659	5919
907.246	5748
909.6254	5810
912.0023	5887
914.3786	5831
916.7562	6037
919.1331	6138
921.5074	6047
923.8831	6158
926.2562	5962
928.6287	6017
931.0005	6098
933.3757	6085
935.7462	6060
938.1162	6092
940.4855	6028
942.8542	5930
945.2242	6050
947.5916	6099
949.9584	6227
952.3266	6081
954.6921	6226
957.0571	6323
959.4233	6338
961.787	6406
964.15	6247
966.5125	6388
968.8742	6229
971.2354	6195
973.5959	6038
975.9559	6105
978.3151	6078
980.6738	6033
983.0338	5946
985.3912	6009
987.7461	6055
990.1022	5987
992.4578	5958
994.8127	5960
997.1689	5925
999.5207	6054
1001.874	5932
1004.226	6034
1006.576	5945
1008.929	6017
1011.28	6045
1013.628	5942
1015.977	5966
1018.324	6036
1020.674	5975
1023.019	5969
1025.366	6019
1027.713	5994
1030.056	5974
1032.399	6065
1034.746	6047
1037.087	6047
1039.431	6079
1041.771	6182
1044.113	6036
1046.454	6093
1048.793	6016
1051.133	6056
1053.471	6142
1055.807	6114
1058.146	6191
1060.483	5991
1062.818	5975
1065.153	6106
1067.489	6208
1069.822	6155
1072.156	6129
1074.488	6136
1076.82	6155
1079.15	6146
1081.48	6178
1083.814	6067
1086.143	6069
1088.471	6125
1090.799	6140
1093.126	6014
1095.452	6270
1097.78	6096
1100.105	6063
1102.43	6241
1104.754	6088
1107.077	6176
1109.4	6116
1111.722	6214
1114.044	6272
1116.365	6235
1118.685	6237
1121.005	6222
1123.324	6127
1125.643	6258
1127.961	6208
1130.278	6312
1132.595	6207
1134.911	6372
1137.226	6244
1139.541	6160
1141.854	6273
1144.167	6227
1146.482	6151
1148.793	6183
1151.105	6202
1153.414	6200
1155.725	6310
1158.033	6330
1160.344	6204
1162.651	6228
1164.959	6269
1167.265	6258
1169.572	6186
1171.878	6257
1174.184	6246
1176.488	6150
1178.79	6282
1181.094	6347
1183.396	6342
1185.699	6371
1188.001	6238
1190.301	6282
1192.6	6238
1194.9	6230
1197.2	6099
1199.497	6279
1201.794	6154
1204.09	6360
1206.387	6218
1208.684	6234
1210.978	6264
1213.272	6318
1215.565	6268
1217.858	6391
1220.15	6338
1222.443	6257
1224.734	6359
1227.024	6372
1229.313	6332
1231.602	6335
1233.892	6202
1236.18	6310
1238.467	6390
1240.754	6361
1243.04	6445
1245.325	6445
1247.612	6447
1249.896	6477
1252.178	6509
1254.461	6488
1256.743	6421
1259.027	6531
1261.308	6396
1263.587	6464
1265.867	6435
1268.146	6468
1270.425	6405
1272.703	6406
1274.981	6500
1277.256	6533
1279.532	6360
1281.808	6477
1284.083	6403
1286.358	6513
1288.63	6397
1290.904	6369
1293.175	6417
1295.449	6329
1297.719	6408
1299.99	6328
1302.259	6342
1304.529	6545
1306.798	6290
1309.065	6344
1311.333	6314
1313.599	6392
1315.866	6321
1318.131	6415
1320.396	6327
1322.66	6380
1324.925	6427
1327.187	6356
1329.448	6479
1331.711	6451
1333.974	6400
1336.234	6302
1338.493	6412
1340.752	6426
1343.01	6475
1345.269	6444
1347.526	6502
1349.784	6428
1352.04	6461
1354.295	6472
1356.552	6382
1358.806	6317
1361.059	6484
1363.312	6398
1365.564	6482
1367.818	6550
1370.069	6380
1372.318	6496
1374.568	6499
1376.817	6412
1379.066	6463
1381.316	6481
1383.564	6493
1385.809	6567
1388.056	6499
1390.301	6520
1392.549	6596
1394.793	6570
1397.036	6547
1399.279	6530
1401.522	6565
1403.763	6605
1406.007	6731
1408.248	6733
1410.487	6682
1412.727	6622
1414.965	6674
1417.205	6571
1419.442	6626
1421.68	6637
1423.915	6756
1426.152	6639
1428.388	6594
1430.623	6601
1432.857	6540
1435.091	6674
1437.323	6717
1439.556	6779
1441.789	6670
1444.019	6717
1446.25	6834
1448.48	6604
1450.708	6637
1452.938	6795
1455.167	6768
1457.394	6747
1459.62	6776
1461.846	6629
1464.073	6655
1466.299	6810
1468.523	6655
1470.746	6768
1472.969	6531
1475.191	6541
1477.415	6492
1479.636	6603
1481.858	6485
1484.078	6528
1486.298	6511
1488.518	6500
1490.736	6462
1492.954	6496
1495.169	6382
1497.386	6513
1499.602	6428
1501.819	6582
1504.034	6493
1506.248	6432
1508.462	6446
1510.675	6451
1512.888	6494
1515.1	6416
1517.311	6465
1519.522	6548
1521.732	6447
1523.942	6479
1526.151	6402
1528.36	6462
1530.566	6610
1532.773	6545
1534.98	6461
1537.187	6450
1539.392	6497
1541.596	6452
1543.801	6525
1546.005	6468
1548.208	6501
1550.411	6519
1552.612	6569
1554.814	6501
1557.013	6604
1559.212	6533
1561.414	6600
1563.612	6552
1565.811	6638
1568.007	6645
1570.203	6672
1572.403	6610
1574.598	6569
1576.792	6678
1578.988	6667
1581.181	6697
1583.376	6632
1585.568	6639
1587.761	6639
1589.952	6591
1592.143	6618
1594.333	6619
1596.524	6782
1598.715	6694
1600.903	6736
1603.091	6723
1605.278	6628
1607.466	6776
1609.652	6696
1611.838	6676
1614.023	6742
1616.207	6809
1618.391	6705
1620.576	6657
1622.759	6671
1624.941	6634
1627.123	6700
1629.304	6577
1631.484	6682
1633.664	6791
1635.844	6693
1638.022	6681
1640.201	6708
1642.38	6728
1644.556	6761
1646.732	6698
1648.908	6682
1651.084	6674
1653.257	6655
1655.433	6816
1657.607	6678
1659.779	6658
1661.951	6682
1664.122	6773
1666.295	6684
1668.467	6803
1670.635	6797
1672.805	6784
1674.973	6683
1677.142	6816
1679.31	6708
1681.478	6723
1683.644	6738
1685.81	6795
1687.975	6635
1690.142	6724
1692.305	6746
1694.468	6784
1696.632	6686
1698.794	6575
1700.957	6625
1703.119	6722
1705.279	6686
1707.439	6723
1709.598	6647
1711.758	6668
1713.917	6538
1716.075	6685
1718.231	6744
1720.388	6690
1722.543	6666
1724.702	6588
1726.856	6705
1729.01	6734
1731.164	6659
1733.317	6723
1735.471	6763
1737.623	6667
1739.774	6658
1741.925	6762
1744.075	6631
1746.225	6576
1748.376	6571
1750.524	6670
1752.672	6728
1754.82	6672
1756.965	6749
1759.113	6678
1761.259	6668
1763.405	6612
1765.549	6718
1767.694	6726
1769.836	6740
1771.981	6762
1774.123	6677
1776.264	6767
1778.405	6721
1780.546	6681
1782.687	6761
1784.827	6722
1786.966	6788
1789.103	6806
1791.242	6769
1793.381	6772
1795.517	6780
1797.653	6754
1799.788	6632
1801.923	6826
1804.057	6737
1806.193	6775
1808.326	6828
1810.457	6797
1812.59	6738
1814.721	6736
1816.855	6803
1818.984	6783
1821.113	6729
1823.244	6643
1825.372	6709
1827.499	6685
1829.63	6689
1831.756	6693
1833.882	6592
1836.007	6706
1838.132	6597
1840.26	6641
1842.384	6692
1844.507	6729
1846.63	6674
1848.752	6752
1850.875	6711
1852.996	6696
1855.118	6677
1857.238	6643
1859.358	6640
1861.477	6732
1863.597	6679
1865.715	6686
1867.832	6717
1869.948	6691
1872.064	6661
1874.181	6735
1876.297	6628
1878.411	6665
1880.526	6633
1882.639	6617
1884.752	6623
1886.865	6693
1888.977	6713
1891.089	6673
1893.2	6661
1895.308	6738
1897.42	6674
1899.53	6686
1901.639	6739
1903.745	6815
1905.853	6813
1907.962	6694
1910.067	6770
1912.174	6662
1914.278	6733
1916.383	6833
1918.486	6798
1920.592	6817
1922.694	6783
1924.797	6882
1926.898	6801
1929	6754
1931.102	6648
1933.203	6897
1935.301	6736
1937.401	6753
1939.499	6753
1941.598	6823
1943.697	6793
1945.793	6773
1947.888	6813
1949.985	6801
1952.08	6741
1954.176	6756
1956.269	6745
1958.364	6698
1960.457	6753
1962.549	6730
1964.642	6759
1966.733	6725
1968.823	6759
1970.913	6687
1973.005	6658
1975.093	6656
1977.184	6669
1979.271	6789
1981.359	6820
1983.446	6842
1985.532	6669
1987.619	6749
1989.705	6594
1991.789	6727
1993.874	6780
1995.956	6749
1998.041	6731
2000.123	6587
2002.206	6818
2004.287	6577
2006.368	6621
2008.449	6704
2010.529	6701
2012.609	6671
2014.688	6691
2016.766	6688
2018.843	6656
2020.922	6729
2022.999	6696
2025.074	6682
2027.15	6670
2029.225	6698
2031.299	6691
2033.375	6674
2035.447	6611
2037.52	6633
2039.592	6790
2041.664	6685
2043.736	6696
2045.807	6603
2047.876	6674
2049.947	6561
2052.015	6685
2054.086	6791
2056.153	6701
2058.221	6659
2060.288	6618
2062.353	6740
2064.42	6719
2066.486	6689
2068.55	6727
2070.614	6649
2072.678	6818
2074.741	6588
2076.805	6732
2078.866	6774
2080.929	6585
2082.99	6645
2085.049	6790
2087.109	6581
2089.17	6703
2091.228	6570
2093.286	6527
2095.344	6649
2097.4	6730
2099.46	6736
2101.516	6622
2103.572	6696
2105.626	6653
2107.679	6669
2109.735	6756
2111.788	6623
2113.841	6772
2115.894	6675
2117.945	6734
2119.997	6660
2122.049	6719
2124.1	6678
2126.148	6583
2128.197	6656
2130.246	6618
2132.296	6667
2134.342	6663
2136.39	6644
2138.437	6672
2140.483	6608
2142.527	6763
2144.574	6645
2146.619	6656
2148.661	6570
2150.705	6677
2152.747	6549
2154.792	6644
2156.832	6658
2158.874	6623
2160.915	6577
2162.954	6638
2164.995	6534
2167.034	6663
2169.072	6495
2171.111	6645
2173.148	6539
2175.186	6585
2177.223	6540
2179.258	6519
2181.294	6610
2183.328	6548
2185.362	6581
2187.398	6503
2189.431	6423
2191.463	6670
2193.495	6424
2195.528	6496
2197.56	6582
2199.59	6474
2201.62	6566
2203.649	6467
2205.678	6499
2207.708	6410
2209.737	6453
2211.764	6575
2213.791	6450
2215.817	6609
2217.843	6427
2219.87	6477
2221.895	6367
2223.919	6369
2225.942	6588
2227.966	6347
2229.988	6497
2232.012	6337
2234.032	6428
2236.054	6604
2238.074	6403
2240.095	6527
2242.116	6507
2244.135	6522
2246.153	6420
2248.171	6435
2250.188	6377
2252.208	6338
2254.223	6460
2256.239	6470
2258.255	6600
2260.269	6396
2262.283	6449
2264.3	6422
2266.312	6480
2268.325	6504
2270.336	6410
2272.349	6467
2274.362	6433
2276.372	6421
2278.383	6284
2280.392	6329
2282.402	6448
2284.409	6379
2286.418	6441
2288.427	6496
2290.433	6422
2292.441	6463
2294.446	6445
2296.453	6404
2298.459	6429
2300.463	6349
2302.466	6483
2304.471	6393
2306.475	6346
2308.477	6360
2310.478	6315
2312.481	6400
2314.481	6409
2316.481	6494
2318.482	6396
2320.482	6457
2322.48	6386
2324.48	6407
2326.478	6356
2328.476	6304
2330.473	6361
2332.469	6269
2334.465	6393
2336.46	6296
2338.454	6371
2340.45	6267
2342.444	6390
2344.437	6268
2346.43	6258
2348.421	6429
2350.414	6331
2352.405	6390
2354.396	6374
2356.386	6264
2358.376	6312
2360.366	6270
2362.355	6278
2364.343	6260
2366.331	6405
2368.317	6247
2370.304	6250
2372.292	6244
2374.278	6262
2376.262	6200
2378.247	6248
2380.23	6257
2382.216	6335
2384.199	6174
2386.181	6281
2388.163	6217
2390.144	6223
2392.127	6235
2394.107	6170
2396.087	6246
2398.066	6275
2400.046	6228
2402.023	6178
2404.004	6131
2405.981	6221
2407.957	6184
2409.934	6092
2411.91	6205
2413.886	6216
2415.862	6183
2417.836	6186
2419.809	6135
2421.784	6264
2423.756	6166
2425.73	6239
2427.701	6224
2429.672	6237
2431.644	6263
2433.615	6147
2435.586	6190
2437.555	6132
2439.523	6126
2441.491	6203
2443.459	6226
2445.428	6161
2447.395	6121
2449.361	6169
2451.327	6140
2453.292	6147
2455.257	6063
2457.223	6161
2459.187	6132
2461.15	6146
2463.113	6043
2465.076	6133
2467.039	6165
2468.999	6096
2470.96	6188
2472.921	6025
2474.881	6104
2476.841	6179
2478.8	6082
2480.759	6136
2482.717	6065
2484.675	6113
2486.63	5989
2488.589	6101
2490.545	6084
2492.5	6072
2494.455	6041
2496.408	6059
2498.364	5993
2500.318	5951
2502.27	6055
2504.223	5968
2506.174	6125
2508.126	6024
2510.078	5920
2512.03	6073
2513.979	6040
2515.927	6041
2517.877	6034
2519.826	6091
2521.775	5919
2523.722	5982
2525.668	5981
2527.616	6045
2529.561	6043
2531.508	6076
2533.452	6158
2535.398	6057
2537.342	5919
2539.284	5874
2541.229	5992
2543.173	6038
2545.114	6031
2547.055	6006
2548.996	6093
2550.938	6015
2552.878	5988
2554.817	5942
2556.756	6015
2558.695	5888
2560.633	6008
2562.572	6089
2564.509	5922
2566.445	6002
2568.382	5987
2570.317	5986
2572.254	6059
2574.189	6020
2576.123	6060
2578.057	5908
2579.99	5963
2581.923	5895
2583.855	5968
2585.788	6027
2587.719	5879
2589.65	6028
2591.579	5897
2593.511	6175
2595.44	6046
2597.37	5924
2599.297	5981
2601.225	5849
2603.153	6047
2605.08	5985
2607.007	5933
2608.932	5971
2610.858	6007
2612.782	6053
2614.709	5996
2616.632	5847
2618.556	5974
2620.478	6099
2622.401	5979
2624.324	6015
2626.247	6028
2628.167	5940
2630.088	6035
2632.008	5958
2633.928	6048
2635.848	5867
2637.766	5861
2639.684	5988
2641.603	6018
2643.519	5973
2645.437	6052
2647.353	6059
2649.27	5816
2651.184	5856
2653.099	5964
2655.014	5999
2656.928	6082
2658.842	6091
2660.755	5903
2662.667	5980
2664.579	5955
2666.491	5907
2668.402	5883
2670.312	5947
2672.222	5953
2674.132	5955
2676.042	5970
2677.951	6053
2679.859	5971
2681.766	6017
2683.674	5885
2685.582	5950
2687.488	5874
2689.392	5932
2691.298	5910
2693.202	5854
2695.107	5795
2697.012	5937
2698.914	6005
2700.817	5836
2702.72	5915
2704.622	5843
2706.524	5830
2708.425	5841
2710.326	5785
2712.225	5855
2714.125	5808
2716.024	5857
2717.923	5778
2719.822	5763
2721.719	5911
2723.616	5869
2725.512	5942
2727.41	5892
2729.305	5809
2731.201	5691
2733.095	5910
2734.99	5863
2736.884	5803
2738.778	5799
2740.67	5827
2742.562	5957
2744.455	5871
2746.346	5799
2748.238	5860
2750.129	5810
2752.018	5806
2753.907	5690
2755.797	5827
2757.687	5735
2759.575	5762
2761.462	5819
2763.349	5731
2765.237	5716
2767.124	5765
2769.009	5752
2770.894	5765
2772.779	5810
2774.663	5773
2776.547	5827
2778.431	5816
2780.314	5691
2782.197	5666
2784.078	5744
2785.96	5727
2787.842	5621
2789.723	5861
2791.603	5737
2793.483	5633
2795.362	5587
2797.241	5812
2799.121	5675
2800.997	5748
2802.874	5817
2804.751	5672
2806.628	5645
2808.506	5694
2810.38	5775
2812.255	5747
2814.13	5742
2816.003	5596
2817.878	5725
2819.752	5541
2821.623	5646
2823.496	5787
2825.368	5694
2827.238	5725
2829.111	5613
2830.98	5697
2832.851	5736
2834.719	5691
2836.589	5793
2838.458	5770
2840.327	5677
2842.193	5646
2844.061	5680
2845.927	5687
2847.794	5718
2849.66	5654
2851.525	5711
2853.39	5667
2855.254	5742
2857.117	5631
2858.983	5721
2860.845	5737
2862.707	5733
2864.569	5850
2866.431	5741
2868.293	5741
2870.154	5804
2872.013	5749
2873.873	5941
2875.733	5761
2877.592	5867
2879.451	5830
2881.309	5902
2883.166	5931
2885.022	5970
2886.879	6023
2888.736	6055
2890.591	5953
2892.446	5948
2894.301	6125
2896.155	6104
2898.009	6136
2899.863	5994
2901.716	5944
2903.568	6064
2905.419	5914
2907.27	6005
2909.123	6005
2910.973	5987
2912.824	5947
2914.673	5915
2916.521	6055
2918.372	6111
2920.22	5984
2922.067	5981
2923.914	6081
2925.761	6107
2927.607	6256
2929.455	6177
2931.301	6072
2933.144	6162
2934.99	6211
2936.833	6150
2938.678	6219
2940.522	6220
2942.364	6270
2944.207	6294
2946.048	6422
2947.891	6540
2949.731	6424
2951.571	6353
2953.412	6448
2955.25	6340
2957.09	6308
2958.93	6382
2960.767	6355
2962.606	6309
2964.443	6283
2966.279	6103
2968.116	6047
2969.953	6157
2971.788	6013
2973.623	5789
2975.457	5908
2977.292	5957
2979.127	5828
2980.959	5941
2982.792	5900
2984.624	5784
2986.455	5753
2988.288	5767
2990.119	5778
2991.949	5681
2993.779	5695
2995.608	5823
2997.439	5631
2999.268	5699
3001.096	5718
3002.923	5616
3004.751	5623
3006.578	5587
3008.406	5527
3010.232	5609
3012.057	5436
3013.883	5473
3015.706	5489
3017.532	5478
3019.356	5371
3021.179	5369
3023.002	5343
3024.823	5303
3026.646	5423
3028.469	5363
3030.289	5370
3032.11	5439
3033.93	5345
3035.749	5382
3037.57	5344
3039.39	5422
3041.207	5270
3043.026	5369
3044.842	5240
3046.661	5281
3048.477	5269
3050.294	5363
3052.109	5257
3053.925	5186
3055.739	5284
3057.555	5323
3059.368	5334
3061.181	5286
3062.995	5260
3064.807	5210
3066.62	5251
3068.433	5231
3070.243	5204
3072.054	5266
3073.865	5211
3075.675	5158
3077.485	5264
3079.293	5236
3081.102	5215
3082.911	5213
3084.719	5128
3086.527	5186
3088.333	5214
3090.139	5085
3091.945	5203
3093.75	5221
3095.557	5126
3097.361	5140
3099.165	5180
3100.969	5082
3102.772	5095
3104.575	5155
3106.379	5103
3108.181	5134
3109.982	5145
3111.783	4994
3113.584	5162
3115.386	5162
3117.186	5149
3118.985	5004
3120.783	4944
3122.582	5038
3124.381	5017
3126.179	5028
3127.975	5028
3129.772	4953
3131.569	5010
3133.365	4978
3135.161	5077
3136.956	5026
3138.751	5032
3140.544	4973
3142.338	4981
3144.132	5081
3145.925	4975
3147.717	4913
3149.509	5020
3151.301	4996
3153.091	4987
3154.884	5047
3156.673	4932
3158.462	4961
3160.252	4966
3162.041	4974
3163.831	4933
3165.618	4848
3167.405	4921
3169.193	4929
3170.979	5025
3172.767	4979
3174.553	4795
3176.338	4965
3178.123	4948
3179.907	4983
3181.692	4806
3183.477	4933
3185.259	4852
3187.042	4886
3188.824	4903
3190.607	4962
3192.389	4900
3194.17	4909
3195.951	4754
3197.73	4777
3199.51	4908
3201.289	4817
3203.07	4894
3204.848	4819
3206.626	4801
3208.403	4825
3210.18	4887
3211.959	4857
3213.735	4860
3215.511	4796
3217.285	4820
3219.06	4908
3220.836	4806
3222.611	4791
3224.384	4860
3226.158	4879
3227.929	4746
3229.702	4815
3231.476	4782
3233.248	4809
3235.018	4902
3236.789	4839
3238.56	4752
3240.33	4873
3242.1	4828
3243.869	4884
3245.637	4828
3247.405	4779
3249.172	4858
3250.941	4786
3252.707	4861
3254.474	4821
3256.24	4856
3258.006	4785
3259.772	4909
3261.537	4834
3263.301	4815
3265.065	4758
3266.828	4735
3268.592	4840
3270.355	4744
3272.117	4653
3273.878	4767
3275.64	4761
3277.401	4803
3279.162	4758
3280.922	4756
3282.682	4681
3284.441	4803
3286.199	4802
3287.959	4718
3289.716	4715
3291.475	4741
3293.232	4783
3294.988	4637
3296.744	4697
3298.501	4837
3300.256	4788
3302.011	4641
3303.766	4734
3305.52	4782
3307.275	4697
3309.028	4727
3310.781	4700
3312.533	4657
3314.285	4776
3316.038	4708
3317.789	4774
3319.54	4757
3321.289	4747
3323.039	4678
3324.789	4705
3326.539	4693
3328.288	4754
3330.035	4689
3331.783	4614
3333.531	4624
3335.28	4638
3337.025	4744
3338.771	4620
3340.518	4574
3342.262	4604
3344.009	4709
3345.753	4618
3347.497	4642
3349.24	4641
3350.983	4627
3352.726	4678
3354.469	4539
3356.212	4664
3357.952	4626
3359.694	4693
3361.434	4670
3363.176	4583
3364.916	4526
3366.654	4481
3368.394	4512
3370.132	4635
3371.871	4552
3373.61	4611
3375.346	4503
3377.083	4558
3378.82	4562
3380.556	4512
3382.292	4560
3384.027	4473
3385.763	4550
3387.497	4506
3389.231	4568
3390.965	4476
3392.698	4532
3394.431	4490
3396.164	4597
3397.896	4525
3399.627	4513
3401.36	4495
3403.09	4515
3404.82	4521
3406.55	4594
3408.279	4471
3410.01	4547
3411.738	4510
3413.467	4516
3415.194	4500
3416.92	4418
3418.647	4531
3420.375	4487
3422.102	4420
3423.827	4485
3425.553	4468
3427.277	4444
3429.003	4416
3430.727	4434
3432.451	4517
3434.173	4430
3435.896	4494
3437.62	4415
3439.343	4413
3441.063	4356
3442.785	4369
3444.505	4336
3446.226	4415
3447.948	4490
3449.666	4310
3451.386	4350
3453.104	4315
3454.823	4378
3456.541	4388
3458.259	4279
3459.976	4391
3461.693	4320
3463.408	4402
3465.125	4360
3466.841	4285
3468.556	4327
3470.271	4309
3471.985	4334
3473.698	4350
3475.414	4282
3477.126	4400
3478.838	4348
3480.55	4287
3482.263	4253
3483.975	4266
3485.686	4268
3487.396	4309
3489.106	4346
3490.817	4238
3492.526	4229
3494.236	4213
3495.944	4271
3497.652	4289
3499.359	4256
3501.066	4167
3502.775	4200
3504.481	4231
3506.187	4159
3507.893	4138
3509.598	4231
3511.304	4255
3513.009	4188
3514.713	4195
3516.417	4234
3518.12	4188
3519.821	4131
3521.525	4129
3523.228	4158
3524.929	4120
3526.631	4190
3528.33	4131
3530.032	4174
3531.733	4260
3533.433	4303
3535.131	4114
3536.83	4060
3538.529	4117
3540.227	4119
3541.925	4134
3543.623	4088
3545.319	4169
3547.016	4049
3548.712	4107
3550.408	4107
3552.103	4127
3553.798	4128
3555.491	4100
3557.188	3981
3558.88	4165
3560.574	3968
3562.266	4067
3563.959	4140
3565.651	4026
3567.343	4088
3569.035	4073
3570.725	4172
3572.415	3997
3574.106	4049
3575.797	4030
3577.485	4005
3579.174	4019
3580.863	3984
3582.551	4070
3584.238	4024
3585.926	4082
3587.613	4096
3589.3	3916
3590.986	4016
3592.671	3994
3594.357	4015
3596.042	3889
3597.726	4016
3599.41	4014
3601.094	3967
3602.778	3947
3604.461	3989
3606.143	3969
3607.825	4005
3609.507	3901
3611.188	3924
3612.87	3884
3614.551	3870
3616.229	3984
3617.909	3964
3619.589	3881
3621.269	3963
3622.948	3822
3624.625	3857
3626.302	3918
3627.98	3867
3629.657	3871
3631.334	3903
3633.01	3790
3634.686	3859
3636.361	3855
3638.036	3843
3639.712	3985
3641.385	3850
3643.06	3884
3644.732	3850
3646.405	3911
3648.08	3774
3649.751	3851
3651.424	3876
3653.094	3810
3654.766	3828
3656.436	3842
3658.106	3859
3659.777	3777
3661.446	3875
3663.115	3789
3664.783	3677
3666.452	3710
3668.121	3783
3669.788	3852
3671.454	3814
3673.121	3802
3674.789	3772
3676.455	3803
3678.12	3760
3679.784	3706
3681.45	3749
3683.114	3721
3684.779	3736
3686.442	3728
3688.105	3688
3689.768	3827
3691.43	3727
3693.093	3761
3694.754	3718
3696.415	3781
3698.076	3783
3699.736	3692
3701.396	3733
3703.057	3747
3704.716	3676
3706.375	3739
3708.034	3702
3709.692	3725
3711.351	3696
3713.008	3759
3714.665	3769
3716.321	3716
3717.977	3656
3719.634	3665
3721.29	3702
3722.945	3699
3724.598	3711
3726.253	3666
3727.907	3763
3729.561	3676
3731.214	3722
3732.867	3684
3734.518	3662
3736.171	3663
3737.824	3626
3739.474	3656
3741.125	3542
3742.775	3643
3744.425	3649
3746.074	3660
3747.725	3588
3749.373	3684
3751.022	3595
3752.669	3708
3754.318	3648
3755.966	3661
3757.612	3592
3759.259	3589
3760.905	3633
3762.55	3687
3764.197	3574
3765.842	3591
3767.486	3618
3769.131	3605
3770.774	3616
3772.417	3584
3774.061	3616
3775.705	3577
3777.347	3585
3778.988	3618
3780.629	3488
3782.271	3581
3783.912	3513
3785.552	3565
3787.192	3611
3788.831	3515
3790.472	3529
3792.112	3506
3793.75	3516
3795.388	3535
3797.024	3577
3798.661	3485
3800.3	3592
3801.936	3514
3803.572	3558
3805.208	3533
3806.844	3464
3808.48	3491
3810.115	3441
3811.748	3460
3813.382	3534
3815.016	3539
3816.649	3461
3818.283	3448
3819.914	3427
3821.547	3492
3823.178	3474
3824.809	3469
3826.441	3425
3828.072	3547
3829.701	3440
3831.331	3397
3832.96	3440
3834.591	3305
3836.219	3473
3837.847	3461
3839.475	3395
3841.102	3460
3842.729	3460
3844.357	3511
3845.984	3416
3847.609	3355
3849.234	3443
3850.86	3474
3852.485	3473
3854.11	3373
3855.734	3448
3857.357	3402
3858.981	3393
3860.603	3337
3862.227	3412
3863.848	3294
3865.471	3373
3867.092	3359
3868.713	3439
3870.334	3331
3871.954	3373
3873.575	3458
3875.194	3393
3876.813	3384
3878.433	3327
3880.051	3337
3881.669	3363
3883.286	3333
3884.904	3366
3886.52	3383
3888.138	3367
3889.754	3381
3891.37	3403
3892.985	3302
3894.6	3280
3896.216	3303
3897.831	3265
3899.444	3335
3901.058	3382
3902.67	3290
3904.283	3314
3905.897	3323
3907.509	3298
3909.121	3283
3910.731	3433
3912.342	3307
3913.954	3225
3915.563	3424
3917.174	3184
3918.783	3311
3920.391	3330
3922.002	3274
3923.611	3273
3925.218	3308
3926.826	3252
3928.432	3246
3930.039	3292
3931.647	3197
3933.253	3257
3934.859	3263
3936.464	3228
3938.068	3277
3939.675	3343
3941.278	3225
3942.883	3271
3944.486	3267
3946.089	3256
3947.692	3259
3949.295	3204
3950.898	3241
3952.499	3204
3954.1	3171
3955.7	3252
3957.303	3252
3958.903	3277
3960.502	3165
3962.101	3203
3963.7	3286
3965.301	3192
3966.899	3216
3968.497	3223
3970.094	3285
3971.691	3174
3973.288	3180
3974.885	3197
3976.481	3224
3978.077	3236
3979.672	3159
3981.267	3174
3982.863	3092
3984.457	3149
3986.051	3196
3987.645	3130
3989.238	3095
3990.831	3148
3992.425	3095
3994.017	3132
3995.607	3050
3997.199	3103
3998.79	3090
4000.382	3125
4001.973	3137
4003.561	3065
4005.151	3065
4006.741	3127
4008.331	2988
4009.918	3109
4011.507	3075
4013.095	3039
4014.681	3112
4016.269	3111
4017.856	3088
4019.443	3029
4021.028	3011
4022.614	3102
4024.199	3091
4025.785	3022
4027.37	3039
4028.953	3052
4030.536	3023
4032.12	3048
4033.704	3142
4035.287	3031
4036.869	3017
4038.45	3076
4040.032	2901
4041.613	3044
4043.195	2939
4044.776	2921
4046.356	3053
4047.935	3010
4049.515	2973
4051.095	2992
4052.674	2973
4054.251	2929
4055.829	2966
4057.406	3032
4058.985	3018
4060.562	2989
4062.139	3020
4063.715	2892
4065.29	2988
4066.865	3018
4068.442	3002
4070.016	2969
4071.59	2955
4073.164	2938
4074.738	2979
4076.312	3002
4077.885	3006
4079.458	2966
4081.03	2934
4082.602	2846
4084.173	2946
4085.745	2960
4087.315	2945
4088.886	2927
4090.456	2933
4092.026	2919
4093.596	2922
4095.165	2863
4096.734	2951
4098.301	2906
4099.869	2973
4101.437	2901
4103.006	2896
4104.572	2938
4106.139	2950
4107.704	2883
4109.27	2868
4110.837	2884
4112.401	2839
4113.966	2902
4115.53	2873
4117.094	2819
4118.659	2839
4120.223	2859
4121.785	2865
4123.347	2906
4124.909	2864
4126.471	2902
4128.034	2828
4129.595	2852
4131.155	2884
4132.716	2838
4134.275	2863
4135.836	2836
4137.395	2809
4138.955	2813
4140.513	2871
4142.071	2775
4143.628	2814
4145.188	2808
4146.745	2799
4148.302	2801
4149.858	2755
4151.414	2803
4152.971	2752
4154.526	2795
4156.081	2774
4157.635	2795
4159.189	2776
4160.745	2834
4162.298	2739
4163.852	2757
4165.405	2751
4166.957	2738
4168.51	2778
4170.063	2753
4171.614	2826
4173.166	2783
4174.717	2776
4176.267	2784
4177.817	2750
4179.368	2722
4180.917	2722
4182.466	2779
4184.016	2735
4185.564	2708
4187.112	2704
4188.66	2735
4190.207	2684
4191.754	2719
4193.301	2711
4194.848	2727
4196.394	2696
4197.94	2676
4199.484	2694
4201.03	2657
4202.575	2695
4204.12	2692
4205.663	2638
4207.207	2705
4208.75	2671
4210.292	2702
4211.836	2676
4213.378	2617
4214.92	2724
4216.46	2676
4218.002	2682
4219.544	2626
4221.083	2616
4222.625	2703
4224.164	2698
4225.703	2639
4227.244	2660
4228.782	2654
4230.32	2661
4231.857	2639
4233.395	2639
4234.933	2628
4236.471	2691
4238.007	2627
4239.542	2683
4241.078	2554
4242.614	2642
4244.15	2609
4245.685	2741
4247.219	2674
4248.753	2603
4250.287	2613
4251.82	2723
4253.354	2623
4254.887	2551
4256.419	2620
4257.951	2603
4259.483	2678
4261.016	2594
4262.547	2629
4264.078	2629
4265.608	2617
4267.137	2615
4268.668	2589
4270.197	2579
4271.727	2628
4273.254	2608
4274.783	2505
4276.311	2576
4277.84	2600
4279.366	2515
4280.894	2569
4282.42	2535
4283.946	2541
4285.473	2564
4286.998	2478
4288.523	2596
4290.047	2596
4291.572	2584
4293.096	2514
4294.622	2575
4296.144	2577
4297.668	2511
4299.19	2548
4300.713	2548
4302.236	2521
4303.758	2510
4305.279	2528
4306.799	2517
4308.321	2558
4309.842	2536
4311.361	2518
4312.882	2494
4314.401	2482
