400.0961	4183
402.6185	4248
405.1424	4202
407.6635	4163
410.1838	4225
412.7035	4298
415.2225	4248
417.7388	4291
420.2585	4301
422.7754	4348
425.2917	4309
427.8072	4351
430.3221	4442
432.8363	4423
435.3498	4466
437.8626	4419
440.3727	4434
442.8841	4413
445.3969	4441
447.907	4437
450.4142	4404
452.9229	4385
455.4289	4443
457.9362	4414
460.4449	4386
462.9488	4406
465.454	4457
467.9566	4359
470.4604	4399
472.9637	4476
475.4662	4493
477.966	4457
480.4671	4389
482.9656	4407
485.4633	4512
487.9645	4481
490.4608	4477
492.9566	4456
495.4536	4505
497.948	4480
500.4437	4519
502.9387	4617
505.431	4491
507.9226	4494
510.4136	4582
512.9079	4561
515.3975	4604
517.8864	4498
520.3746	4675
522.8622	4554
525.3491	4632
527.8394	4635
530.3249	4415
532.8098	4640
535.2939	4537
537.7774	4596
540.2623	4627
542.7444	4567
545.2259	4636
547.7067	4648
550.1868	4509
552.6683	4625
555.147	4594
557.6231	4626
560.1005	4590
562.5773	4709
565.0534	4601
567.5308	4668
570.0056	4833
572.4776	4718
574.951	4856
577.4237	4737
579.8978	4770
582.3671	4897
584.8378	4804
587.3079	4776
589.7773	4825
592.244	4931
594.714	4855
597.1793	4922
599.6461	4852
602.1121	4790
604.5754	4829
607.0421	4782
609.5042	4752
611.9675	4777
614.4282	4773
616.8902	4774
619.3515	4786
621.8122	4731
624.2702	4684
626.7296	4829
629.1863	4701
631.6423	4812
634.1017	4757
636.5563	4754
639.0104	4682
641.4658	4782
643.9185	4755
646.3725	4767
648.8239	4802
651.2766	4744
653.7266	4761
656.176	4815
658.6247	4731
661.0748	4871
663.5242	4827
665.9709	4846
668.417	4950
670.8624	4862
673.3092	4893
675.7533	4813
678.1968	4971
680.6395	4864
683.0817	4825
685.5251	4901
687.9659	4855
690.4061	4857
692.8456	4851
695.2844	4879
697.7226	4894
700.1621	4992
702.599	4963
705.0332	4995
707.4688	4958
709.9036	4976
712.3399	5033
714.7735	5039
717.2044	4908
719.6367	5050
722.0683	5031
724.4993	5031
726.9296	5121
729.3593	5030
731.7883	4988
734.2147	5111
736.6423	5074
739.0714	5151
741.4958	5115
743.9216	5187
746.3447	5148
748.7691	5242
751.1929	5219
753.616	5115
756.0366	5288
758.4584	5337
760.8776	5175
763.2982	5271
765.718	5259
768.1373	5248
770.5539	5290
772.9698	5310
775.3871	5288
777.8038	5312
780.2178	5312
782.6332	5348
785.0459	5222
787.458	5286
789.8714	5217
792.2842	5334
794.6943	5377
797.1038	5290
799.5127	5285
801.9209	5300
804.3324	5339
806.7393	5474
809.1456	5378
811.5513	5369
813.9562	5336
816.3625	5371
818.7663	5428
821.1693	5426
823.5718	5307
825.9735	5417
828.3746	5476
830.7771	5301
833.177	5264
835.5762	5350
837.9747	5352
840.3727	5424
842.772	5488
845.1666	5479
847.5626	5447
849.958	5562
852.3527	5570
854.7488	5567
857.1403	5536
859.5331	5514
861.9253	5575
864.3168	5433
866.7057	5539
869.098	5406
871.4876	5589
873.8746	5493
876.263	5557
878.6487	5422
881.0378	5404
883.4243	5534
885.8081	5560
888.1933	5513
890.5759	5453
892.9598	5515
895.343	5591
897.7256	5456
900.1057	5496
902.4871	5508
904.8659	5451
907.246	5559
909.6254	5573
912.0023	5597
914.3786	5699
916.7562	5679
919.1331	5765
921.5074	5886
923.8831	5891
926.2562	5993
928.6287	6049
931.0005	5839
933.3757	5815
935.7462	5818
938.1162	5820
940.4855	5927
942.8542	5925
945.2242	6005
947.5916	6192
949.9584	6253
952.3266	6264
954.6921	6611
957.0571	6651
959.4233	6966
961.787	7110
964.15	7203
966.5125	6898
968.8742	6706
971.2354	6365
973.5959	6185
975.9559	6210
978.3151	5972
980.6738	5792
983.0338	5855
985.3912	5797
987.7461	5659
990.1022	5802
992.4578	5715
994.8127	5743
997.1689	5745
999.5207	5700
1001.874	5848
1004.226	5814
1006.576	5734
1008.929	5758
1011.28	5683
1013.628	5638
1015.977	5593
1018.324	5828
1020.674	5749
1023.019	5859
1025.366	5735
1027.713	5790
1030.056	5745
1032.399	5856
1034.746	5843
1037.087	5820
1039.431	5897
1041.771	5864
1044.113	5889
1046.454	5845
1048.793	5822
1051.133	5835
1053.471	5844
1055.807	5817
1058.146	5959
1060.483	5863
1062.818	5871
1065.153	5885
1067.489	5890
1069.822	5986
1072.156	6015
1074.488	6051
1076.82	5941
1079.15	5952
1081.48	5995
1083.814	5945
1086.143	5983
1088.471	5824
1090.799	5894
1093.126	5852
1095.452	5820
1097.78	5937
1100.105	5796
1102.43	5934
1104.754	5794
1107.077	5846
1109.4	5839
1111.722	5916
1114.044	5810
1116.365	5852
1118.685	5835
1121.005	5873
1123.324	5935
1125.643	5913
1127.961	5823
1130.278	5895
1132.595	5842
1134.911	5961
1137.226	5823
1139.541	5888
1141.854	5851
1144.167	5924
1146.482	5828
1148.793	5844
1151.105	5870
1153.414	5822
1155.725	5858
1158.033	5939
1160.344	5825
1162.651	5875
1164.959	5786
1167.265	5958
1169.572	5903
1171.878	5864
1174.184	5941
1176.488	5877
1178.79	5995
1181.094	5862
1183.396	6001
1185.699	5946
1188.001	5895
1190.301	5909
1192.6	5822
1194.9	5919
1197.2	5898
1199.497	5891
1201.794	5955
1204.09	5955
1206.387	5922
1208.684	5839
1210.978	5886
1213.272	5999
1215.565	5866
1217.858	5818
1220.15	5891
1222.443	5979
1224.734	5868
1227.024	5997
1229.313	6032
1231.602	5931
1233.892	6092
1236.18	6188
1238.467	6192
1240.754	6210
1243.04	6279
1245.325	6160
1247.612	6157
1249.896	6085
1252.178	6203
1254.461	6254
1256.743	6156
1259.027	6170
1261.308	6194
1263.587	6174
1265.867	6164
1268.146	6161
1270.425	6230
1272.703	6185
1274.981	6273
1277.256	6118
1279.532	6175
1281.808	6176
1284.083	6130
1286.358	6134
1288.63	6164
1290.904	6023
1293.175	6182
1295.449	5965
1297.719	6147
1299.99	6062
1302.259	6215
1304.529	6109
1306.798	6054
1309.065	6077
1311.333	6109
1313.599	6046
1315.866	5901
1318.131	6116
1320.396	6100
1322.66	6096
1324.925	6110
1327.187	6149
1329.448	6159
1331.711	6251
1333.974	6062
1336.234	6042
1338.493	6105
1340.752	6067
1343.01	6117
1345.269	6058
1347.526	6083
1349.784	6153
1352.04	6058
1354.295	5983
1356.552	6053
1358.806	6025
1361.059	6107
1363.312	6017
1365.564	5987
1367.818	6070
1370.069	6122
1372.318	6115
1374.568	6051
1376.817	6133
1379.066	6075
1381.316	6250
1383.564	6178
1385.809	6201
1388.056	6229
1390.301	6161
1392.549	6197
1394.793	6335
1397.036	6280
1399.279	6492
1401.522	6400
1403.763	6401
1406.007	6379
1408.248	6572
1410.487	6431
1412.727	6380
1414.965	6357
1417.205	6376
1419.442	6462
1421.68	6323
1423.915	6369
1426.152	6522
1428.388	6267
1430.623	6232
1432.857	6335
1435.091	6376
1437.323	6461
1439.556	6493
1441.789	6452
1444.019	6362
1446.25	6368
1448.48	6382
1450.708	6478
1452.938	6564
1455.167	6488
1457.394	6493
1459.62	6444
1461.846	6439
1464.073	6466
1466.299	6448
1468.523	6342
1470.746	6403
1472.969	6271
1475.191	6248
1477.415	6409
1479.636	6224
1481.858	6101
1484.078	6135
1486.298	6257
1488.518	6080
1490.736	6215
1492.954	6073
1495.169	6154
1497.386	6159
1499.602	6070
1501.819	6081
1504.034	6165
1506.248	6115
1508.462	6073
1510.675	6037
1512.888	5968
1515.1	5984
1517.311	6000
1519.522	6025
1521.732	6085
1523.942	6004
1526.151	6069
1528.36	6057
1530.566	6124
1532.773	6034
1534.98	6028
1537.187	6023
1539.392	6224
1541.596	6071
1543.801	6100
1546.005	6019
1548.208	6111
1550.411	6202
1552.612	6194
1554.814	6064
1557.013	6198
1559.212	6225
1561.414	6119
1563.612	6239
1565.811	6139
1568.007	6177
1570.203	6315
1572.403	6293
1574.598	6300
1576.792	6238
1578.988	6290
1581.181	6291
1583.376	6161
1585.568	6184
1587.761	6240
1589.952	6284
1592.143	6310
1594.333	6349
1596.524	6287
1598.715	6297
1600.903	6323
1603.091	6324
1605.278	6323
1607.466	6313
1609.652	6289
1611.838	6344
1614.023	6422
1616.207	6242
1618.391	6405
1620.576	6390
1622.759	6385
1624.941	6249
1627.123	6293
1629.304	6421
1631.484	6414
1633.664	6376
1635.844	6405
1638.022	6365
1640.201	6344
1642.38	6452
1644.556	6449
1646.732	6462
1648.908	6323
1651.084	6431
1653.257	6404
1655.433	6393
1657.607	6428
1659.779	6461
1661.951	6502
1664.122	6374
1666.295	6532
1668.467	6502
1670.635	6596
1672.805	6468
1674.973	6484
1677.142	6552
1679.31	6524
1681.478	6458
1683.644	6448
1685.81	6541
1687.975	6498
1690.142	6346
1692.305	6482
1694.468	6433
1696.632	6339
1698.794	6244
1700.957	6461
1703.119	6354
1705.279	6433
1707.439	6316
1709.598	6354
1711.758	6441
1713.917	6227
1716.075	6254
1718.231	6315
1720.388	6182
1722.543	6308
1724.702	6420
1726.856	6345
1729.01	6283
1731.164	6296
1733.317	6249
1735.471	6276
1737.623	6235
1739.774	6365
1741.925	6401
1744.075	6285
1746.225	6356
1748.376	6192
1750.524	6307
1752.672	6391
1754.82	6257
1756.965	6379
1759.113	6270
1761.259	6354
1763.405	6289
1765.549	6251
1767.694	6213
1769.836	6436
1771.981	6339
1774.123	6364
1776.264	6272
1778.405	6396
1780.546	6424
1782.687	6463
1784.827	6361
1786.966	6449
1789.103	6305
1791.242	6360
1793.381	6404
1795.517	6379
1797.653	6388
1799.788	6317
1801.923	6285
1804.057	6456
1806.193	6492
1808.326	6465
1810.457	6394
1812.59	6333
1814.721	6392
1816.855	6328
1818.984	6435
1821.113	6304
1823.244	6225
1825.372	6371
1827.499	6390
1829.63	6357
1831.756	6338
1833.882	6306
1836.007	6345
1838.132	6350
1840.26	6440
1842.384	6402
1844.507	6279
1846.63	6302
1848.752	6414
1850.875	6317
1852.996	6290
1855.118	6326
1857.238	6362
1859.358	6366
1861.477	6269
1863.597	6321
1865.715	6278
1867.832	6268
1869.948	6155
1872.064	6227
1874.181	6355
1876.297	6238
1878.411	6334
1880.526	6245
1882.639	6279
1884.752	6174
1886.865	6159
1888.977	6289
1891.089	6379
1893.2	6443
1895.308	6407
1897.42	6335
1899.53	6274
1901.639	6338
1903.745	6400
1905.853	6297
1907.962	6330
1910.067	6260
1912.174	6350
1914.278	6456
1916.383	6387
1918.486	6378
1920.592	6390
1922.694	6432
1924.797	6416
1926.898	6402
1929	6453
1931.102	6389
1933.203	6447
1935.301	6428
1937.401	6410
1939.499	6543
1941.598	6495
1943.697	6556
1945.793	6366
1947.888	6444
1949.985	6375
1952.08	6434
1954.176	6442
1956.269	6357
1958.364	6389
1960.457	6496
1962.549	6371
1964.642	6374
1966.733	6372
1968.823	6331
1970.913	6465
1973.005	6332
1975.093	6321
1977.184	6445
1979.271	6283
1981.359	6374
1983.446	6443
1985.532	6265
1987.619	6414
1989.705	6376
1991.789	6287
1993.874	6403
1995.956	6244
1998.041	6402
2000.123	6270
2002.206	6271
2004.287	6398
2006.368	6294
2008.449	6286
2010.529	6301
2012.609	6416
2014.688	6217
2016.766	6298
2018.843	6337
2020.922	6208
2022.999	6369
2025.074	6264
2027.15	6397
2029.225	6333
2031.299	6256
2033.375	6348
2035.447	6395
2037.52	6448
2039.592	6202
2041.664	6281
2043.736	6256
2045.807	6277
2047.876	6301
2049.947	6410
2052.015	6406
2054.086	6337
2056.153	6251
2058.221	6400
2060.288	6377
2062.353	6387
2064.42	6300
2066.486	6298
2068.55	6425
2070.614	6418
2072.678	6348
2074.741	6228
2076.805	6270
2078.866	6281
2080.929	6294
2082.99	6344
2085.049	6372
2087.109	6391
2089.17	6395
2091.228	6288
2093.286	6397
2095.344	6382
2097.4	6329
2099.46	6353
2101.516	6235
2103.572	6301
2105.626	6232
2107.679	6267
2109.735	6360
2111.788	6412
2113.841	6252
2115.894	6428
2117.945	6368
2119.997	6405
2122.049	6266
2124.1	6372
2126.148	6300
2128.197	6303
2130.246	6325
2132.296	6254
2134.342	6309
2136.39	6392
2138.437	6157
2140.483	6398
2142.527	6108
2144.574	6352
2146.619	6333
2148.661	6338
2150.705	6317
2152.747	6278
2154.792	6219
2156.832	6384
2158.874	6268
2160.915	6310
2162.954	6247
2164.995	6216
2167.034	6223
2169.072	6217
2171.111	6193
2173.148	6214
2175.186	6242
2177.223	6184
2179.258	6169
2181.294	6259
2183.328	6221
2185.362	6258
2187.398	6193
2189.431	6292
2191.463	6305
2193.495	6206
2195.528	6179
2197.56	6297
2199.59	6312
2201.62	6248
2203.649	6238
2205.678	6140
2207.708	6143
2209.737	6186
2211.764	6109
2213.791	5987
2215.817	6248
2217.843	6177
2219.87	6181
2221.895	6105
2223.919	6157
2225.942	6069
2227.966	6155
2229.988	6191
2232.012	6193
2234.032	6178
2236.054	6182
2238.074	6185
2240.095	6224
2242.116	6182
2244.135	6025
2246.153	6105
2248.171	6120
2250.188	6110
2252.208	6111
2254.223	6244
2256.239	6170
2258.255	6189
2260.269	6175
2262.283	6212
2264.3	6123
2266.312	6189
2268.325	6116
2270.336	6081
2272.349	6180
2274.362	6266
2276.372	6103
2278.383	6187
2280.392	6230
2282.402	6169
2284.409	6224
2286.418	6103
2288.427	6143
2290.433	6154
2292.441	6217
2294.446	6160
2296.453	6198
2298.459	6071
2300.463	6151
2302.466	6098
2304.471	6058
2306.475	6112
2308.477	6058
2310.478	6156
2312.481	6084
2314.481	5998
2316.481	6214
2318.482	6049
2320.482	6128
2322.48	6066
2324.48	6155
2326.478	6024
2328.476	6152
2330.473	6050
2332.469	6099
2334.465	6077
2336.46	6034
2338.454	6094
2340.45	6185
2342.444	5995
2344.437	6018
2346.43	6002
2348.421	6070
2350.414	6003
2352.405	6006
2354.396	6066
2356.386	5967
2358.376	5979
2360.366	6074
2362.355	6022
2364.343	6076
2366.331	6012
2368.317	6061
2370.304	5953
2372.292	5938
2374.278	5846
2376.262	6038
2378.247	6151
2380.23	5959
2382.216	5952
2384.199	5915
2386.181	6015
2388.163	5955
2390.144	5851
2392.127	6099
2394.107	5937
2396.087	5961
2398.066	5979
2400.046	6033
2402.023	5975
2404.004	5880
2405.981	5920
2407.957	5932
2409.934	5900
2411.91	5859
2413.886	5893
2415.862	5973
2417.836	5866
2419.809	5923
2421.784	5934
2423.756	5890
2425.73	5991
2427.701	5896
2429.672	6057
2431.644	5960
2433.615	5914
2435.586	5866
2437.555	5840
2439.523	5928
2441.491	5860
2443.459	5982
2445.428	5934
2447.395	5924
2449.361	5908
2451.327	5905
2453.292	5890
2455.257	5876
2457.223	5900
2459.187	5903
2461.15	5896
2463.113	5894
2465.076	6004
2467.039	5821
2468.999	5896
2470.96	5766
2472.921	5773
2474.881	5880
2476.841	5817
2478.8	5833
2480.759	5821
2482.717	5776
2484.675	5898
2486.63	5721
2488.589	5879
2490.545	5735
2492.5	5777
2494.455	5868
2496.408	5811
2498.364	5828
2500.318	5741
2502.27	5805
2504.223	5880
2506.174	5760
2508.126	5819
2510.078	5886
2512.03	5844
2513.979	5770
2515.927	5677
2517.877	5819
2519.826	5822
2521.775	5709
2523.722	5757
2525.668	5788
2527.616	5854
2529.561	5762
2531.508	5810
2533.452	5767
2535.398	5687
2537.342	5713
2539.284	5847
2541.229	5794
2543.173	5831
2545.114	5824
2547.055	5782
2548.996	5724
2550.938	5814
2552.878	5711
2554.817	5723
2556.756	5683
2558.695	5770
2560.633	5743
2562.572	5834
2564.509	5714
2566.445	5743
2568.382	5762
2570.317	5731
2572.254	5625
2574.189	5831
2576.123	5818
2578.057	5726
2579.99	5814
2581.923	5883
2583.855	5715
2585.788	5745
2587.719	5710
2589.65	5768
2591.579	5695
2593.511	5834
2595.44	5750
2597.37	5808
2599.297	5774
2601.225	5869
2603.153	5735
2605.08	5757
2607.007	5811
2608.932	5758
2610.858	5786
2612.782	5745
2614.709	5706
2616.632	5873
2618.556	5803
2620.478	5855
2622.401	5770
2624.324	5761
2626.247	5706
2628.167	5729
2630.088	5746
2632.008	5814
2633.928	5798
2635.848	5751
2637.766	5713
2639.684	5732
2641.603	5931
2643.519	5717
2645.437	5677
2647.353	5891
2649.27	5855
2651.184	5828
2653.099	5821
2655.014	5764
2656.928	5766
2658.842	5905
2660.755	5729
2662.667	5700
2664.579	5732
2666.491	5751
2668.402	5699
2670.312	5739
2672.222	5720
2674.132	5689
2676.042	5733
2677.951	5724
2679.859	5686
2681.766	5878
2683.674	5758
2685.582	5677
2687.488	5757
2689.392	5714
2691.298	5664
2693.202	5620
2695.107	5634
2697.012	5750
2698.914	5802
2700.817	5646
2702.72	5653
2704.622	5696
2706.524	5675
2708.425	5620
2710.326	5760
2712.225	5617
2714.125	5559
2716.024	5570
2717.923	5625
2719.822	5762
2721.719	5693
2723.616	5623
2725.512	5693
2727.41	5674
2729.305	5630
2731.201	5576
2733.095	5662
2734.99	5725
2736.884	5648
2738.778	5760
2740.67	5650
2742.562	5631
2744.455	5617
2746.346	5659
2748.238	5620
2750.129	5538
2752.018	5582
2753.907	5728
2755.797	5644
2757.687	5613
2759.575	5665
2761.462	5677
2763.349	5649
2765.237	5684
2767.124	5651
2769.009	5653
2770.894	5603
2772.779	5557
2774.663	5671
2776.547	5711
2778.431	5565
2780.314	5596
2782.197	5501
2784.078	5667
2785.96	5643
2787.842	5558
2789.723	5500
2791.603	5611
2793.483	5511
2795.362	5558
2797.241	5652
2799.121	5566
2800.997	5536
2802.874	5592
2804.751	5607
2806.628	5618
2808.506	5571
2810.38	5489
2812.255	5560
2814.13	5540
2816.003	5522
2817.878	5552
2819.752	5579
2821.623	5655
2823.496	5526
2825.368	5637
2827.238	5601
2829.111	5664
2830.98	5649
2832.851	5592
2834.719	5666
2836.589	5574
2838.458	5602
2840.327	5644
2842.193	5560
2844.061	5648
2845.927	5547
2847.794	5606
2849.66	5644
2851.525	5655
2853.39	5682
2855.254	5681
2857.117	5695
2858.983	5725
2860.845	5701
2862.707	5757
2864.569	5802
2866.431	5805
2868.293	5882
2870.154	5877
2872.013	5969
2873.873	5963
2875.733	5945
2877.592	6025
2879.451	6061
2881.309	6119
2883.166	6213
2885.022	6127
2886.879	6196
2888.736	6216
2890.591	6354
2892.446	6316
2894.301	6279
2896.155	6226
2898.009	6303
2899.863	6269
2901.716	6190
2903.568	6276
2905.419	6219
2907.27	6313
2909.123	6255
2910.973	6327
2912.824	6300
2914.673	6406
2916.521	6473
2918.372	6474
2920.22	6626
2922.067	6474
2923.914	6588
2925.761	6706
2927.607	6718
2929.455	6678
2931.301	6784
2933.144	6761
2934.99	6890
2936.833	6866
2938.678	7008
2940.522	6934
2942.364	7165
2944.207	7199
2946.048	7345
2947.891	7314
2949.731	7173
2951.571	7446
2953.412	7413
2955.25	7153
2957.09	7170
2958.93	7132
2960.767	7095
2962.606	6897
2964.443	6914
2966.279	6824
2968.116	6733
2969.953	6617
2971.788	6568
2973.623	6389
2975.457	6493
2977.292	6396
2979.127	6336
2980.959	6397
2982.792	6357
2984.624	6298
2986.455	6326
2988.288	6306
2990.119	6165
2991.949	6094
2993.779	6037
2995.608	6043
2997.439	5943
2999.268	6030
3001.096	5926
3002.923	5782
3004.751	5890
3006.578	5725
3008.406	5764
3010.232	5679
3012.057	5710
3013.883	5679
3015.706	5564
3017.532	5470
3019.356	5560
3021.179	5499
3023.002	5576
3024.823	5419
3026.646	5430
3028.469	5372
3030.289	5444
3032.11	5386
3033.93	5298
3035.749	5446
3037.57	5356
3039.39	5288
3041.207	5387
3043.026	5450
3044.842	5308
3046.661	5216
3048.477	5241
3050.294	5369
3052.109	5320
3053.925	5219
3055.739	5301
3057.555	5227
3059.368	5334
3061.181	5187
3062.995	5290
3064.807	5258
3066.62	5256
3068.433	5326
3070.243	5159
3072.054	5307
3073.865	5281
3075.675	5315
3077.485	5238
3079.293	5271
3081.102	5195
3082.911	5224
3084.719	5283
3086.527	5162
3088.333	5149
3090.139	5128
3091.945	5186
3093.75	5157
3095.557	5163
3097.361	5233
3099.165	5149
3100.969	5089
3102.772	5210
3104.575	5018
3106.379	5017
3108.181	5093
3109.982	5120
3111.783	5091
3113.584	5129
3115.386	4983
3117.186	5137
3118.985	5043
3120.783	5045
3122.582	5159
3124.381	5051
3126.179	5040
3127.975	5041
3129.772	5119
3131.569	5076
3133.365	4939
3135.161	5059
3136.956	5022
3138.751	5026
3140.544	4992
3142.338	5099
3144.132	4979
3145.925	5061
3147.717	4928
3149.509	5023
3151.301	4952
3153.091	4986
3154.884	4973
3156.673	4888
3158.462	4861
3160.252	4975
3162.041	5015
3163.831	4989
3165.618	5037
3167.405	5031
3169.193	4906
3170.979	4919
3172.767	4971
3174.553	5044
3176.338	4958
3178.123	4963
3179.907	4850
3181.692	5064
3183.477	4916
3185.259	4948
3187.042	4957
3188.824	4863
3190.607	4887
3192.389	4907
3194.17	4962
3195.951	4943
3197.73	4920
3199.51	5023
3201.289	4938
3203.07	4928
3204.848	4879
3206.626	4984
3208.403	4934
3210.18	4818
3211.959	4965
3213.735	5001
3215.511	4990
3217.285	4874
3219.06	4907
3220.836	4856
3222.611	4857
3224.384	4823
3226.158	4962
3227.929	4963
3229.702	4975
3231.476	4963
3233.248	4866
3235.018	4923
3236.789	4950
3238.56	4899
3240.33	4970
3242.1	4926
3243.869	4848
3245.637	4837
3247.405	4887
3249.172	4900
3250.941	4921
3252.707	4863
3254.474	4852
3256.24	4944
3258.006	4917
3259.772	4910
3261.537	4974
3263.301	4858
3265.065	4928
3266.828	4865
3268.592	4855
3270.355	4940
3272.117	4821
3273.878	4891
3275.64	4967
3277.401	4886
3279.162	4842
3280.922	4833
3282.682	4877
3284.441	4909
3286.199	4860
3287.959	4942
3289.716	4871
3291.475	4901
3293.232	4931
3294.988	4910
3296.744	4939
3298.501	4851
3300.256	4890
3302.011	4983
3303.766	4858
3305.52	4979
3307.275	4827
3309.028	4887
3310.781	4836
3312.533	4983
3314.285	4838
3316.038	4824
3317.789	4944
3319.54	4964
3321.289	4864
3323.039	4888
3324.789	4758
3326.539	4835
3328.288	4759
3330.035	4882
3331.783	4777
3333.531	4898
3335.28	4821
3337.025	4859
3338.771	4833
3340.518	4815
3342.262	4767
3344.009	4957
3345.753	4815
3347.497	4847
3349.24	4808
3350.983	4858
3352.726	4789
3354.469	4779
3356.212	4786
3357.952	4778
3359.694	4808
3361.434	4703
3363.176	4734
3364.916	4849
3366.654	4833
3368.394	4767
3370.132	4776
3371.871	4773
3373.61	4760
3375.346	4738
3377.083	4769
3378.82	4788
3380.556	4704
3382.292	4779
3384.027	4678
3385.763	4794
3387.497	4675
3389.231	4758
3390.965	4738
3392.698	4642
3394.431	4705
3396.164	4677
3397.896	4677
3399.627	4733
3401.36	4631
3403.09	4752
3404.82	4688
3406.55	4658
3408.279	4587
3410.01	4670
3411.738	4623
3413.467	4688
3415.194	4638
3416.92	4663
3418.647	4693
3420.375	4623
3422.102	4611
3423.827	4581
3425.553	4593
3427.277	4627
3429.003	4620
3430.727	4535
3432.451	4638
3434.173	4548
3435.896	4622
3437.62	4602
3439.343	4489
3441.063	4615
3442.785	4584
3444.505	4466
3446.226	4568
3447.948	4576
3449.666	4548
3451.386	4527
3453.104	4578
3454.823	4517
3456.541	4557
3458.259	4440
3459.976	4441
3461.693	4524
3463.408	4402
3465.125	4473
3466.841	4513
3468.556	4411
3470.271	4467
3471.985	4461
3473.698	4359
3475.414	4377
3477.126	4399
3478.838	4425
3480.55	4365
3482.263	4354
3483.975	4342
3485.686	4430
3487.396	4436
3489.106	4366
3490.817	4382
3492.526	4324
3494.236	4378
3495.944	4475
3497.652	4290
3499.359	4330
3501.066	4334
3502.775	4337
3504.481	4371
3506.187	4297
3507.893	4403
3509.598	4311
3511.304	4351
3513.009	4285
3514.713	4224
3516.417	4219
3518.12	4335
3519.821	4275
3521.525	4229
3523.228	4324
3524.929	4282
3526.631	4293
3528.33	4297
3530.032	4259
3531.733	4303
3533.433	4264
3535.131	4309
3536.83	4223
3538.529	4287
3540.227	4270
3541.925	4150
3543.623	4212
3545.319	4177
3547.016	4168
3548.712	4184
3550.408	4127
3552.103	4203
3553.798	4179
3555.491	4084
3557.188	4172
3558.88	4157
3560.574	4125
3562.266	4109
3563.959	4159
3565.651	4067
3567.343	4081
3569.035	4149
3570.725	4078
3572.415	4021
3574.106	3938
3575.797	4085
3577.485	4059
3579.174	4059
3580.863	4120
3582.551	4039
3584.238	4075
3585.926	4009
3587.613	4028
3589.3	4012
3590.986	4127
3592.671	4054
3594.357	4081
3596.042	4084
3597.726	3981
3599.41	4066
3601.094	4030
3602.778	3994
3604.461	3921
3606.143	3984
3607.825	3993
3609.507	3947
3611.188	4001
3612.87	3916
3614.551	4012
3616.229	3870
3617.909	3898
3619.589	4000
3621.269	3999
3622.948	3897
3624.625	3942
3626.302	3867
3627.98	3908
3629.657	3921
3631.334	3877
3633.01	3910
3634.686	3844
3636.361	3833
3638.036	3924
3639.712	3869
3641.385	3921
3643.06	3818
3644.732	3841
3646.405	3867
3648.08	3816
3649.751	3727
3651.424	3840
3653.094	3787
3654.766	3861
3656.436	3798
3658.106	3834
3659.777	3828
3661.446	3764
3663.115	3797
3664.783	3765
3666.452	3682
3668.121	3751
3669.788	3726
3671.454	3781
3673.121	3770
3674.789	3776
3676.455	3751
3678.12	3790
3679.784	3713
3681.45	3724
3683.114	3740
3684.779	3721
3686.442	3714
3688.105	3725
3689.768	3798
3691.43	3745
3693.093	3711
3694.754	3786
3696.415	3747
3698.076	3786
3699.736	3765
3701.396	3763
3703.057	3662
3704.716	3776
3706.375	3730
3708.034	3674
3709.692	3681
3711.351	3708
3713.008	3783
3714.665	3651
3716.321	3662
3717.977	3643
3719.634	3698
3721.29	3665
3722.945	3726
3724.598	3605
3726.253	3652
3727.907	3744
3729.561	3621
3731.214	3647
3732.867	3572
3734.518	3626
3736.171	3656
3737.824	3670
3739.474	3546
3741.125	3717
3742.775	3580
3744.425	3631
3746.074	3666
3747.725	3649
3749.373	3608
3751.022	3592
3752.669	3572
3754.318	3618
3755.966	3635
3757.612	3608
3759.259	3533
3760.905	3555
3762.55	3591
3764.197	3607
3765.842	3567
3767.486	3578
3769.131	3539
3770.774	3538
3772.417	3572
3774.061	3535
3775.705	3493
3777.347	3515
3778.988	3570
3780.629	3617
3782.271	3541
3783.912	3556
3785.552	3561
3787.192	3567
3788.831	3584
3790.472	3548
3792.112	3537
3793.75	3605
3795.388	3474
3797.024	3560
3798.661	3470
3800.3	3414
3801.936	3454
3803.572	3525
3805.208	3419
3806.844	3485
3808.48	3469
3810.115	3497
3811.748	3459
3813.382	3456
3815.016	3461
3816.649	3538
3818.283	3375
3819.914	3408
3821.547	3416
3823.178	3423
3824.809	3397
3826.441	3454
3828.072	3448
3829.701	3441
3831.331	3430
3832.96	3471
3834.591	3333
3836.219	3410
3837.847	3428
3839.475	3426
3841.102	3394
3842.729	3331
3844.357	3369
3845.984	3436
3847.609	3392
3849.234	3368
3850.86	3319
3852.485	3404
3854.11	3367
3855.734	3404
3857.357	3409
3858.981	3435
3860.603	3324
3862.227	3380
3863.848	3422
3865.471	3326
3867.092	3390
3868.713	3336
3870.334	3333
3871.954	3355
3873.575	3358
3875.194	3413
3876.813	3368
3878.433	3362
3880.051	3371
3881.669	3336
3883.286	3346
3884.904	3350
3886.52	3261
3888.138	3332
3889.754	3347
3891.37	3331
3892.985	3276
3894.6	3330
3896.216	3320
3897.831	3360
3899.444	3319
3901.058	3244
3902.67	3375
3904.283	3347
3905.897	3400
3907.509	3237
3909.121	3287
3910.731	3305
3912.342	3287
3913.954	3228
3915.563	3264
3917.174	3287
3918.783	3250
3920.391	3298
3922.002	3321
3923.611	3324
3925.218	3274
3926.826	3329
3928.432	3268
3930.039	3330
3931.647	3256
3933.253	3307
3934.859	3282
3936.464	3341
3938.068	3315
3939.675	3211
3941.278	3196
3942.883	3283
3944.486	3242
3946.089	3180
3947.692	3282
3949.295	3225
3950.898	3297
3952.499	3204
3954.1	3224
3955.7	3176
3957.303	3260
3958.903	3137
3960.502	3212
3962.101	3156
3963.7	3151
3965.301	3208
3966.899	3242
3968.497	3160
3970.094	3214
3971.691	3209
3973.288	3182
3974.885	3217
3976.481	3133
3978.077	3205
3979.672	3152
3981.267	3155
3982.863	3205
3984.457	3175
3986.051	3165
3987.645	3167
3989.238	3104
3990.831	3088
3992.425	3182
3994.017	3158
3995.607	3172
3997.199	3089
3998.79	3156
4000.382	3135
4001.973	3097
4003.561	3085
4005.151	3114
4006.741	3109
4008.331	3092
4009.918	3106
4011.507	3136
4013.095	3055
4014.681	3030
4016.269	3069
4017.856	3076
4019.443	3057
4021.028	3044
4022.614	3063
4024.199	3135
4025.785	3052
4027.37	3087
4028.953	2983
4030.536	3075
4032.12	3058
4033.704	2983
4035.287	3003
4036.869	3061
4038.45	2969
4040.032	3025
4041.613	3075
4043.195	2950
4044.776	3035
4046.356	2928
4047.935	3007
4049.515	2971
4051.095	2971
4052.674	2973
4054.251	2989
4055.829	2989
4057.406	3009
4058.985	2938
4060.562	2920
4062.139	2992
4063.715	2961
4065.29	2954
4066.865	2964
4068.442	2973
4070.016	2984
4071.59	2970
4073.164	2988
4074.738	2998
4076.312	2900
4077.885	2985
4079.458	2943
4081.03	2927
4082.602	2936
4084.173	2920
4085.745	2924
4087.315	2923
4088.886	2899
4090.456	2853
4092.026	3000
4093.596	2963
4095.165	2927
4096.734	2852
4098.301	2928
4099.869	2928
4101.437	2920
4103.006	2888
4104.572	2873
4106.139	2847
4107.704	2972
4109.27	2878
4110.837	2918
4112.401	2922
4113.966	2901
4115.53	2884
4117.094	2884
4118.659	2823
4120.223	2935
4121.785	2885
4123.347	2875
4124.909	2842
4126.471	2910
4128.034	2873
4129.595	2892
4131.155	2894
4132.716	2845
4134.275	2757
4135.836	2876
4137.395	2833
4138.955	2889
4140.513	2783
4142.071	2792
4143.628	2821
4145.188	2828
4146.745	2807
4148.302	2770
4149.858	2767
4151.414	2801
4152.971	2738
4154.526	2747
4156.081	2766
4157.635	2832
4159.189	2793
4160.745	2791
4162.298	2813
4163.852	2735
4165.405	2827
4166.957	2814
4168.51	2729
4170.063	2754
4171.614	2767
4173.166	2703
4174.717	2728
4176.267	2748
4177.817	2746
4179.368	2758
4180.917	2776
4182.466	2787
4184.016	2719
4185.564	2685
4187.112	2716
4188.66	2738
4190.207	2669
4191.754	2676
4193.301	2832
4194.848	2717
4196.394	2696
4197.94	2698
4199.484	2727
4201.03	2729
4202.575	2685
4204.12	2737
4205.663	2667
4207.207	2626
4208.75	2679
4210.292	2696
4211.836	2632
4213.378	2680
4214.92	2664
4216.46	2690
4218.002	2672
4219.544	2727
4221.083	2693
4222.625	2624
4224.164	2701
4225.703	2711
4227.244	2666
4228.782	2616
4230.32	2687
4231.857	2603
4233.395	2646
4234.933	2666
4236.471	2650
4238.007	2695
4239.542	2653
4241.078	2652
4242.614	2617
4244.15	2599
4245.685	2648
4247.219	2541
4248.753	2589
4250.287	2647
4251.82	2668
4253.354	2552
4254.887	2550
4256.419	2651
4257.951	2616
4259.483	2634
4261.016	2600
4262.547	2591
4264.078	2623
4265.608	2580
4267.137	2560
4268.668	2538
4270.197	2603
4271.727	2615
4273.254	2551
4274.783	2618
4276.311	2542
4277.84	2534
4279.366	2538
4280.894	2576
4282.42	2541
4283.946	2576
4285.473	2543
4286.998	2558
4288.523	2517
4290.047	2603
4291.572	2563
4293.096	2452
4294.622	2483
4296.144	2632
4297.668	2533
4299.19	2577
4300.713	2518
4302.236	2471
4303.758	2592
4305.279	2529
4306.799	2537
4308.321	2558
4309.842	2539
4311.361	2463
4312.882	2478
4314.401	2516
