400.0961	4342
402.6185	4390
405.1424	4397
407.6635	4343
410.1838	4366
412.7035	4437
415.2225	4480
417.7388	4476
420.2585	4429
422.7754	4451
425.2917	4548
427.8072	4539
430.3221	4603
432.8363	4599
435.3498	4641
437.8626	4665
440.3727	4605
442.8841	4700
445.3969	4616
447.907	4658
450.4142	4594
452.9229	4714
455.4289	4602
457.9362	4625
460.4449	4644
462.9488	4641
465.454	4626
467.9566	4598
470.4604	4622
472.9637	4591
475.4662	4560
477.966	4600
480.4671	4608
482.9656	4670
485.4633	4637
487.9645	4649
490.4608	4682
492.9566	4645
495.4536	4661
497.948	4654
500.4437	4716
502.9387	4726
505.431	4666
507.9226	4712
510.4136	4746
512.9079	4740
515.3975	4799
517.8864	4758
520.3746	4758
522.8622	4780
525.3491	4800
527.8394	4803
530.3249	4868
532.8098	4787
535.2939	4756
537.7774	4769
540.2623	4909
542.7444	4864
545.2259	4864
547.7067	4825
550.1868	4819
552.6683	4884
555.147	4861
557.6231	4779
560.1005	4817
562.5773	4904
565.0534	4874
567.5308	4885
570.0056	4829
572.4776	4989
574.951	4827
577.4237	4974
579.8978	4998
582.3671	4937
584.8378	4960
587.3079	5069
589.7773	4912
592.244	5003
594.714	4998
597.1793	5003
599.6461	5014
602.1121	4972
604.5754	5005
607.0421	4966
609.5042	4994
611.9675	5047
614.4282	4944
616.8902	5011
619.3515	4974
621.8122	5068
624.2702	4992
626.7296	5028
629.1863	4938
631.6423	4940
634.1017	4883
636.5563	4973
639.0104	4970
641.4658	5072
643.9185	5016
646.3725	4921
648.8239	4937
651.2766	5037
653.7266	4992
656.176	5159
658.6247	5022
661.0748	5078
663.5242	5161
665.9709	5152
668.417	5122
670.8624	5079
673.3092	5066
675.7533	5154
678.1968	5077
680.6395	5128
683.0817	5101
685.5251	5117
687.9659	5099
690.4061	5243
692.8456	5088
695.2844	5184
697.7226	5175
700.1621	5166
702.599	5150
705.0332	5222
707.4688	5254
709.9036	5245
712.3399	5348
714.7735	5202
717.2044	5304
719.6367	5262
722.0683	5237
724.4993	5387
726.9296	5315
729.3593	5299
731.7883	5264
734.2147	5402
736.6423	5358
739.0714	5467
741.4958	5372
743.9216	5413
746.3447	5372
748.7691	5497
751.1929	5400
753.616	5485
756.0366	5480
758.4584	5532
760.8776	5412
763.2982	5530
765.718	5531
768.1373	5464
770.5539	5516
772.9698	5485
775.3871	5511
777.8038	5484
780.2178	5418
782.6332	5469
785.0459	5497
787.458	5556
789.8714	5593
792.2842	5528
794.6943	5586
797.1038	5526
799.5127	5547
801.9209	5575
804.3324	5490
806.7393	5551
809.1456	5528
811.5513	5662
813.9562	5520
816.3625	5531
818.7663	5624
821.1693	5591
823.5718	5616
825.9735	5696
828.3746	5642
830.7771	5636
833.177	5590
835.5762	5618
837.9747	5687
840.3727	5566
842.772	5536
845.1666	5634
847.5626	5660
849.958	5747
852.3527	5824
854.7488	5875
857.1403	5752
859.5331	5866
861.9253	5781
864.3168	5819
866.7057	5707
869.098	5699
871.4876	5852
873.8746	5717
876.263	5728
878.6487	5831
881.0378	5719
883.4243	5750
885.8081	5660
888.1933	5735
890.5759	5766
892.9598	5711
895.343	5680
897.7256	5699
900.1057	5655
902.4871	5759
904.8659	5788
907.246	5680
909.6254	5894
912.0023	5825
914.3786	6047
916.7562	5961
919.1331	6076
921.5074	6172
923.8831	6311
926.2562	6132
928.6287	6116
931.0005	6122
933.3757	6211
935.7462	6157
938.1162	6082
940.4855	6156
942.8542	6177
945.2242	6240
947.5916	6326
949.9584	6459
952.3266	6567
954.6921	6679
957.0571	6942
959.4233	7043
961.787	7231
964.15	7113
966.5125	6986
968.8742	6745
971.2354	6601
973.5959	6485
975.9559	6297
978.3151	6233
980.6738	6166
983.0338	6104
985.3912	6045
987.7461	5886
990.1022	5936
992.4578	6053
994.8127	5924
997.1689	6021
999.5207	5974
1001.874	6108
1004.226	6085
1006.576	5853
1008.929	6026
1011.28	5902
1013.628	5960
1015.977	5990
1018.324	6050
1020.674	5976
1023.019	5998
1025.366	5950
1027.713	6062
1030.056	6059
1032.399	6050
1034.746	5984
1037.087	6086
1039.431	5978
1041.771	6120
1044.113	6030
1046.454	6045
1048.793	6053
1051.133	6089
1053.471	5966
1055.807	6202
1058.146	6135
1060.483	6056
1062.818	6174
1065.153	6188
1067.489	6172
1069.822	6177
1072.156	6119
1074.488	6209
1076.82	6276
1079.15	6130
1081.48	6271
1083.814	6131
1086.143	6115
1088.471	6154
1090.799	6014
1093.126	6108
1095.452	6169
1097.78	6112
1100.105	6193
1102.43	6151
1104.754	6086
1107.077	6121
1109.4	6146
1111.722	6097
1114.044	6078
1116.365	6208
1118.685	6167
1121.005	6151
1123.324	6152
1125.643	6197
1127.961	6286
1130.278	6308
1132.595	6099
1134.911	6119
1137.226	6118
1139.541	6182
1141.854	6110
1144.167	6228
1146.482	6151
1148.793	6113
1151.105	6118
1153.414	6105
1155.725	6054
1158.033	6184
1160.344	6166
1162.651	6151
1164.959	6092
1167.265	6105
1169.572	6073
1171.878	6209
1174.184	6235
1176.488	6115
1178.79	6175
1181.094	6236
1183.396	6330
1185.699	6300
1188.001	6177
1190.301	6143
1192.6	6155
1194.9	6146
1197.2	6072
1199.497	6254
1201.794	6201
1204.09	6130
1206.387	6172
1208.684	6102
1210.978	6183
1213.272	6076
1215.565	6251
1217.858	6287
1220.15	6222
1222.443	6151
1224.734	6213
1227.024	6167
1229.313	6259
1231.602	6329
1233.892	6396
1236.18	6392
1238.467	6332
1240.754	6360
1243.04	6416
1245.325	6415
1247.612	6474
1249.896	6340
1252.178	6574
1254.461	6504
1256.743	6538
1259.027	6352
1261.308	6467
1263.587	6493
1265.867	6523
1268.146	6546
1270.425	6532
1272.703	6472
1274.981	6442
1277.256	6453
1279.532	6504
1281.808	6418
1284.083	6361
1286.358	6292
1288.63	6364
1290.904	6354
1293.175	6290
1295.449	6396
1297.719	6409
1299.99	6349
1302.259	6216
1304.529	6292
1306.798	6408
1309.065	6340
1311.333	6482
1313.599	6403
1315.866	6375
1318.131	6282
1320.396	6335
1322.66	6316
1324.925	6440
1327.187	6513
1329.448	6498
1331.711	6522
1333.974	6383
1336.234	6382
1338.493	6415
1340.752	6417
1343.01	6293
1345.269	6279
1347.526	6379
1349.784	6373
1352.04	6320
1354.295	6352
1356.552	6405
1358.806	6300
1361.059	6391
1363.312	6347
1365.564	6369
1367.818	6323
1370.069	6470
1372.318	6402
1374.568	6388
1376.817	6471
1379.066	6535
1381.316	6333
1383.564	6567
1385.809	6405
1388.056	6522
1390.301	6477
1392.549	6659
1394.793	6731
1397.036	6687
1399.279	6753
1401.522	6695
1403.763	6791
1406.007	6705
1408.248	6699
1410.487	6669
1412.727	6723
1414.965	6826
1417.205	6707
1419.442	6717
1421.68	6567
1423.915	6625
1426.152	6682
1428.388	6677
1430.623	6602
1432.857	6664
1435.091	6561
1437.323	6743
1439.556	6716
1441.789	6715
1444.019	6750
1446.25	6871
1448.48	6713
1450.708	6715
1452.938	6828
1455.167	6881
1457.394	6860
1459.62	6921
1461.846	6681
1464.073	6858
1466.299	6687
1468.523	6595
1470.746	6699
1472.969	6646
1475.191	6476
1477.415	6565
1479.636	6430
1481.858	6512
1484.078	6412
1486.298	6333
1488.518	6368
1490.736	6401
1492.954	6366
1495.169	6424
1497.386	6468
1499.602	6387
1501.819	6268
1504.034	6331
1506.248	6419
1508.462	6303
1510.675	6235
1512.888	6461
1515.1	6313
1517.311	6327
1519.522	6346
1521.732	6286
1523.942	6367
1526.151	6372
1528.36	6375
1530.566	6284
1532.773	6360
1534.98	6359
1537.187	6343
1539.392	6290
1541.596	6376
1543.801	6257
1546.005	6471
1548.208	6341
1550.411	6387
1552.612	6538
1554.814	6629
1557.013	6444
1559.212	6404
1561.414	6421
1563.612	6439
1565.811	6445
1568.007	6525
1570.203	6615
1572.403	6469
1574.598	6596
1576.792	6542
1578.988	6592
1581.181	6481
1583.376	6564
1585.568	6558
1587.761	6530
1589.952	6520
1592.143	6626
1594.333	6516
1596.524	6616
1598.715	6540
1600.903	6712
1603.091	6557
1605.278	6603
1607.466	6607
1609.652	6599
1611.838	6621
1614.023	6546
1616.207	6717
1618.391	6667
1620.576	6583
1622.759	6614
1624.941	6607
1627.123	6627
1629.304	6751
1631.484	6620
1633.664	6694
1635.844	6714
1638.022	6584
1640.201	6539
1642.38	6664
1644.556	6583
1646.732	6688
1648.908	6702
1651.084	6649
1653.257	6647
1655.433	6706
1657.607	6782
1659.779	6806
1661.951	6754
1664.122	6809
1666.295	6711
1668.467	6773
1670.635	6773
1672.805	6823
1674.973	6743
1677.142	6770
1679.31	6803
1681.478	6689
1683.644	6795
1685.81	6834
1687.975	6671
1690.142	6794
1692.305	6743
1694.468	6734
1696.632	6614
1698.794	6649
1700.957	6658
1703.119	6585
1705.279	6529
1707.439	6587
1709.598	6671
1711.758	6608
1713.917	6602
1716.075	6740
1718.231	6613
1720.388	6516
1722.543	6539
1724.702	6582
1726.856	6593
1729.01	6535
1731.164	6537
1733.317	6622
1735.471	6578
1737.623	6457
1739.774	6613
1741.925	6510
1744.075	6600
1746.225	6517
1748.376	6573
1750.524	6618
1752.672	6529
1754.82	6612
1756.965	6514
1759.113	6596
1761.259	6681
1763.405	6594
1765.549	6614
1767.694	6575
1769.836	6667
1771.981	6593
1774.123	6689
1776.264	6454
1778.405	6669
1780.546	6773
1782.687	6737
1784.827	6569
1786.966	6665
1789.103	6615
1791.242	6681
1793.381	6577
1795.517	6718
1797.653	6559
1799.788	6622
1801.923	6658
1804.057	6779
1806.193	6578
1808.326	6752
1810.457	6604
1812.59	6604
1814.721	6680
1816.855	6676
1818.984	6692
1821.113	6718
1823.244	6605
1825.372	6707
1827.499	6599
1829.63	6625
1831.756	6646
1833.882	6630
1836.007	6536
1838.132	6599
1840.26	6617
1842.384	6538
1844.507	6504
1846.63	6573
1848.752	6556
1850.875	6580
1852.996	6632
1855.118	6621
1857.238	6564
1859.358	6598
1861.477	6545
1863.597	6520
1865.715	6629
1867.832	6521
1869.948	6421
1872.064	6568
1874.181	6484
1876.297	6532
1878.411	6517
1880.526	6467
1882.639	6601
1884.752	6591
1886.865	6596
1888.977	6566
1891.089	6556
1893.2	6542
1895.308	6519
1897.42	6614
1899.53	6558
1901.639	6596
1903.745	6685
1905.853	6659
1907.962	6552
1910.067	6531
1912.174	6692
1914.278	6653
1916.383	6720
1918.486	6671
1920.592	6602
1922.694	6737
1924.797	6624
1926.898	6692
1929	6721
1931.102	6656
1933.203	6750
1935.301	6610
1937.401	6654
1939.499	6673
1941.598	6742
1943.697	6743
1945.793	6695
1947.888	6654
1949.985	6730
1952.08	6585
1954.176	6686
1956.269	6618
1958.364	6763
1960.457	6798
1962.549	6590
1964.642	6716
1966.733	6687
1968.823	6636
1970.913	6662
1973.005	6614
1975.093	6573
1977.184	6633
1979.271	6644
1981.359	6647
1983.446	6627
1985.532	6689
1987.619	6668
1989.705	6641
1991.789	6552
1993.874	6672
1995.956	6517
1998.041	6602
2000.123	6529
2002.206	6730
2004.287	6605
2006.368	6561
2008.449	6606
2010.529	6730
2012.609	6589
2014.688	6618
2016.766	6618
2018.843	6489
2020.922	6613
2022.999	6540
2025.074	6634
2027.15	6618
2029.225	6585
2031.299	6557
2033.375	6636
2035.447	6515
2037.52	6627
2039.592	6547
2041.664	6682
2043.736	6598
2045.807	6525
2047.876	6604
2049.947	6684
2052.015	6597
2054.086	6632
2056.153	6597
2058.221	6591
2060.288	6625
2062.353	6646
2064.42	6660
2066.486	6686
2068.55	6530
2070.614	6645
2072.678	6584
2074.741	6631
2076.805	6455
2078.866	6592
2080.929	6617
2082.99	6622
2085.049	6520
2087.109	6639
2089.17	6570
2091.228	6611
2093.286	6480
2095.344	6636
2097.4	6686
2099.46	6517
2101.516	6658
2103.572	6535
2105.626	6606
2107.679	6618
2109.735	6549
2111.788	6538
2113.841	6528
2115.894	6484
2117.945	6524
2119.997	6597
2122.049	6502
2124.1	6679
2126.148	6562
2128.197	6602
2130.246	6638
2132.296	6594
2134.342	6484
2136.39	6567
2138.437	6467
2140.483	6554
2142.527	6585
2144.574	6440
2146.619	6626
2148.661	6596
2150.705	6531
2152.747	6487
2154.792	6587
2156.832	6544
2158.874	6642
2160.915	6576
2162.954	6518
2164.995	6537
2167.034	6540
2169.072	6500
2171.111	6478
2173.148	6478
2175.186	6494
2177.223	6432
2179.258	6467
2181.294	6536
2183.328	6413
2185.362	6595
2187.398	6405
2189.431	6517
2191.463	6454
2193.495	6430
2195.528	6310
2197.56	6453
2199.59	6504
2201.62	6531
2203.649	6391
2205.678	6417
2207.708	6361
2209.737	6414
2211.764	6374
2213.791	6380
2215.817	6331
2217.843	6341
2219.87	6441
2221.895	6348
2223.919	6300
2225.942	6346
2227.966	6375
2229.988	6476
2232.012	6344
2234.032	6416
2236.054	6476
2238.074	6358
2240.095	6441
2242.116	6382
2244.135	6270
2246.153	6402
2248.171	6367
2250.188	6445
2252.208	6472
2254.223	6430
2256.239	6400
2258.255	6397
2260.269	6375
2262.283	6554
2264.3	6435
2266.312	6434
2268.325	6417
2270.336	6408
2272.349	6419
2274.362	6422
2276.372	6452
2278.383	6313
2280.392	6467
2282.402	6443
2284.409	6482
2286.418	6374
2288.427	6271
2290.433	6425
2292.441	6318
2294.446	6403
2296.453	6446
2298.459	6422
2300.463	6423
2302.466	6359
2304.471	6424
2306.475	6375
2308.477	6401
2310.478	6264
2312.481	6401
2314.481	6264
2316.481	6306
2318.482	6372
2320.482	6390
2322.48	6303
2324.48	6370
2326.478	6242
2328.476	6315
2330.473	6225
2332.469	6282
2334.465	6272
2336.46	6291
2338.454	6403
2340.45	6280
2342.444	6272
2344.437	6265
2346.43	6278
2348.421	6277
2350.414	6162
2352.405	6192
2354.396	6322
2356.386	6209
2358.376	6389
2360.366	6248
2362.355	6313
2364.343	6216
2366.331	6256
2368.317	6228
2370.304	6198
2372.292	6208
2374.278	6183
2376.262	6252
2378.247	6200
2380.23	6307
2382.216	6204
2384.199	6117
2386.181	6289
2388.163	6082
2390.144	6148
2392.127	6130
2394.107	6247
2396.087	6198
2398.066	6129
2400.046	6275
2402.023	6123
2404.004	6237
2405.981	6151
2407.957	6257
2409.934	6111
2411.91	6111
2413.886	6194
2415.862	6143
2417.836	6170
2419.809	6233
2421.784	6010
2423.756	6066
2425.73	6193
2427.701	6024
2429.672	6175
2431.644	6138
2433.615	6078
2435.586	6189
2437.555	6150
2439.523	6140
2441.491	6085
2443.459	6119
2445.428	6245
2447.395	6001
2449.361	6144
2451.327	6104
2453.292	6092
2455.257	6162
2457.223	6112
2459.187	6051
2461.15	6022
2463.113	5970
2465.076	6043
2467.039	6154
2468.999	6118
2470.96	6050
2472.921	6030
2474.881	6067
2476.841	6099
2478.8	6021
2480.759	6151
2482.717	6009
2484.675	6043
2486.63	5963
2488.589	5956
2490.545	6069
2492.5	5979
2494.455	5968
2496.408	6030
2498.364	5943
2500.318	5986
2502.27	6035
2504.223	6069
2506.174	6066
2508.126	5994
2510.078	6037
2512.03	6136
2513.979	6041
2515.927	5999
2517.877	6007
2519.826	5985
2521.775	6029
2523.722	6051
2525.668	5909
2527.616	5999
2529.561	5943
2531.508	5985
2533.452	6076
2535.398	6004
2537.342	5935
2539.284	5941
2541.229	5936
2543.173	5932
2545.114	5896
2547.055	5921
2548.996	5871
2550.938	5840
2552.878	6005
2554.817	5939
2556.756	6015
2558.695	5940
2560.633	5925
2562.572	5888
2564.509	5883
2566.445	5929
2568.382	6007
2570.317	5960
2572.254	5952
2574.189	6076
2576.123	5911
2578.057	5973
2579.99	5937
2581.923	5881
2583.855	6035
2585.788	5852
2587.719	5948
2589.65	6035
2591.579	5897
2593.511	5963
2595.44	5943
2597.37	5950
2599.297	6020
2601.225	5894
2603.153	5905
2605.08	6024
2607.007	6032
2608.932	5919
2610.858	5964
2612.782	6054
2614.709	5985
2616.632	6015
2618.556	6016
2620.478	5972
2622.401	5880
2624.324	6022
2626.247	6025
2628.167	5958
2630.088	5941
2632.008	5994
2633.928	5928
2635.848	5952
2637.766	6030
2639.684	5966
2641.603	6012
2643.519	5959
2645.437	5999
2647.353	6080
2649.27	5968
2651.184	5978
2653.099	5958
2655.014	5876
2656.928	5895
2658.842	6047
2660.755	5935
2662.667	5969
2664.579	5930
2666.491	5911
2668.402	5915
2670.312	5910
2672.222	5870
2674.132	5942
2676.042	5926
2677.951	5891
2679.859	5862
2681.766	5949
2683.674	5949
2685.582	5986
2687.488	5924
2689.392	5919
2691.298	5756
2693.202	5871
2695.107	5848
2697.012	5778
2698.914	5995
2700.817	5857
2702.72	5954
2704.622	5900
2706.524	5852
2708.425	5752
2710.326	5880
2712.225	5760
2714.125	5894
2716.024	5826
2717.923	5805
2719.822	5887
2721.719	5885
2723.616	5837
2725.512	5802
2727.41	5822
2729.305	5826
2731.201	5815
2733.095	5877
2734.99	5847
2736.884	5725
2738.778	5847
2740.67	5851
2742.562	5688
2744.455	5791
2746.346	5864
2748.238	5782
2750.129	5753
2752.018	5885
2753.907	5863
2755.797	5810
2757.687	5832
2759.575	5792
2761.462	5824
2763.349	5748
2765.237	5743
2767.124	5766
2769.009	5783
2770.894	5771
2772.779	5799
2774.663	5701
2776.547	5921
2778.431	5840
2780.314	5699
2782.197	5776
2784.078	5841
2785.96	5825
2787.842	5704
2789.723	5844
2791.603	5752
2793.483	5742
2795.362	5661
2797.241	5745
2799.121	5664
2800.997	5740
2802.874	5744
2804.751	5777
2806.628	5784
2808.506	5812
2810.38	5682
2812.255	5822
2814.13	5702
2816.003	5701
2817.878	5719
2819.752	5742
2821.623	5748
2823.496	5688
2825.368	5651
2827.238	5800
2829.111	5740
2830.98	5699
2832.851	5804
2834.719	5641
2836.589	5721
2838.458	5774
2840.327	5788
2842.193	5733
2844.061	5805
2845.927	5744
2847.794	5818
2849.66	5747
2851.525	5826
2853.39	5819
2855.254	5893
2857.117	5815
2858.983	5940
2860.845	6027
2862.707	5957
2864.569	5984
2866.431	5807
2868.293	6018
2870.154	6109
2872.013	6075
2873.873	6078
2875.733	6255
2877.592	6143
2879.451	6308
2881.309	6313
2883.166	6457
2885.022	6409
2886.879	6479
2888.736	6364
2890.591	6565
2892.446	6530
2894.301	6558
2896.155	6513
2898.009	6459
2899.863	6554
2901.716	6574
2903.568	6475
2905.419	6421
2907.27	6471
2909.123	6486
2910.973	6430
2912.824	6608
2914.673	6501
2916.521	6643
2918.372	6592
2920.22	6656
2922.067	6669
2923.914	6765
2925.761	6794
2927.607	6795
2929.455	6820
2931.301	6787
2933.144	6851
2934.99	6953
2936.833	7040
2938.678	6980
2940.522	7135
2942.364	7169
2944.207	7291
2946.048	7294
2947.891	7416
2949.731	7458
2951.571	7550
2953.412	7419
2955.25	7399
2957.09	7275
2958.93	7242
2960.767	7323
2962.606	7073
2964.443	7070
2966.279	7054
2968.116	6863
2969.953	6852
2971.788	6674
2973.623	6644
2975.457	6649
2977.292	6547
2979.127	6606
2980.959	6375
2982.792	6409
2984.624	6385
2986.455	6378
2988.288	6262
2990.119	6321
2991.949	6181
2993.779	6170
2995.608	6189
2997.439	6065
2999.268	6140
3001.096	6014
3002.923	5984
3004.751	5929
3006.578	5955
3008.406	5814
3010.232	5792
3012.057	5688
3013.883	5699
3015.706	5737
3017.532	5674
3019.356	5635
3021.179	5632
3023.002	5658
3024.823	5599
3026.646	5555
3028.469	5546
3030.289	5535
3032.11	5397
3033.93	5539
3035.749	5464
3037.57	5514
3039.39	5468
3041.207	5544
3043.026	5468
3044.842	5558
3046.661	5442
3048.477	5328
3050.294	5417
3052.109	5472
3053.925	5490
3055.739	5471
3057.555	5402
3059.368	5445
3061.181	5419
3062.995	5364
3064.807	5430
3066.62	5519
3068.433	5445
3070.243	5434
3072.054	5476
3073.865	5384
3075.675	5392
3077.485	5393
3079.293	5324
3081.102	5376
3082.911	5413
3084.719	5307
3086.527	5403
3088.333	5370
3090.139	5354
3091.945	5270
3093.75	5209
3095.557	5207
3097.361	5303
3099.165	5255
3100.969	5208
3102.772	5215
3104.575	5223
3106.379	5326
3108.181	5167
3109.982	5202
3111.783	5227
3113.584	5346
3115.386	5147
3117.186	5206
3118.985	5211
3120.783	5244
3122.582	5169
3124.381	5258
3126.179	5142
3127.975	5206
3129.772	5229
3131.569	5166
3133.365	5096
3135.161	5232
3136.956	5171
3138.751	5119
3140.544	5097
3142.338	5105
3144.132	5099
3145.925	5124
3147.717	5054
3149.509	5156
3151.301	5154
3153.091	5139
3154.884	5102
3156.673	5092
3158.462	5102
3160.252	5139
3162.041	5052
3163.831	5118
3165.618	5104
3167.405	5148
3169.193	5077
3170.979	5068
3172.767	5031
3174.553	5017
3176.338	5128
3178.123	5133
3179.907	5097
3181.692	5063
3183.477	5073
3185.259	5105
3187.042	5020
3188.824	5111
3190.607	5087
3192.389	5066
3194.17	5123
3195.951	5008
3197.73	4988
3199.51	5089
3201.289	5078
3203.07	5054
3204.848	5083
3206.626	5064
3208.403	5058
3210.18	4982
3211.959	4994
3213.735	5091
3215.511	5050
3217.285	4976
3219.06	5013
3220.836	4967
3222.611	5023
3224.384	4965
3226.158	4985
3227.929	5028
3229.702	5047
3231.476	5009
3233.248	4973
3235.018	5005
3236.789	5028
3238.56	5047
3240.33	5049
3242.1	5043
3243.869	5050
3245.637	5061
3247.405	4925
3249.172	5055
3250.941	5094
3252.707	4995
3254.474	5094
3256.24	5022
3258.006	4921
3259.772	4956
3261.537	5020
3263.301	5097
3265.065	4925
3266.828	5133
3268.592	5008
3270.355	5025
3272.117	5131
3273.878	5070
3275.64	5026
3277.401	4983
3279.162	5112
3280.922	5034
3282.682	5017
3284.441	4964
3286.199	5047
3287.959	4939
3289.716	5092
3291.475	4984
3293.232	5050
3294.988	4992
3296.744	4985
3298.501	5023
3300.256	4973
3302.011	5000
3303.766	4919
3305.52	5006
3307.275	4978
3309.028	4926
3310.781	4950
3312.533	4929
3314.285	5006
3316.038	4920
3317.789	4988
3319.54	5005
3321.289	4908
3323.039	5078
3324.789	4889
3326.539	4881
3328.288	4906
3330.035	4964
3331.783	4911
3333.531	4938
3335.28	4970
3337.025	4972
3338.771	4928
3340.518	5013
3342.262	4902
3344.009	4901
3345.753	4872
3347.497	4855
3349.24	4835
3350.983	4867
3352.726	4852
3354.469	4916
3356.212	4845
3357.952	4824
3359.694	4903
3361.434	4902
3363.176	4866
3364.916	4875
3366.654	4748
3368.394	4865
3370.132	4801
3371.871	4844
3373.61	4906
3375.346	4830
3377.083	4825
3378.82	4871
3380.556	4869
3382.292	4813
3384.027	4801
3385.763	4775
3387.497	4718
3389.231	4805
3390.965	4733
3392.698	4715
3394.431	4796
3396.164	4709
3397.896	4805
3399.627	4684
3401.36	4803
3403.09	4760
3404.82	4741
3406.55	4741
3408.279	4725
3410.01	4753
3411.738	4761
3413.467	4755
3415.194	4727
3416.92	4646
3418.647	4672
3420.375	4721
3422.102	4780
3423.827	4772
3425.553	4727
3427.277	4668
3429.003	4690
3430.727	4643
3432.451	4634
3434.173	4650
3435.896	4645
3437.62	4690
3439.343	4675
3441.063	4674
3442.785	4572
3444.505	4637
3446.226	4624
3447.948	4619
3449.666	4547
3451.386	4595
3453.104	4625
3454.823	4559
3456.541	4513
3458.259	4507
3459.976	4617
3461.693	4450
3463.408	4464
3465.125	4596
3466.841	4624
3468.556	4627
3470.271	4565
3471.985	4581
3473.698	4565
3475.414	4486
3477.126	4427
3478.838	4516
3480.55	4501
3482.263	4471
3483.975	4466
3485.686	4478
3487.396	4448
3489.106	4473
3490.817	4498
3492.526	4447
3494.236	4433
3495.944	4371
3497.652	4408
3499.359	4445
3501.066	4443
3502.775	4426
3504.481	4401
3506.187	4354
3507.893	4453
3509.598	4259
3511.304	4371
3513.009	4277
3514.713	4238
3516.417	4310
3518.12	4354
3519.821	4378
3521.525	4324
3523.228	4325
3524.929	4321
3526.631	4326
3528.33	4395
3530.032	4265
3531.733	4257
3533.433	4354
3535.131	4320
3536.83	4257
3538.529	4267
3540.227	4405
3541.925	4297
3543.623	4219
3545.319	4180
3547.016	4244
3548.712	4248
3550.408	4201
3552.103	4246
3553.798	4252
3555.491	4192
3557.188	4214
3558.88	4232
3560.574	4178
3562.266	4386
3563.959	4188
3565.651	4248
3567.343	4189
3569.035	4197
3570.725	4211
3572.415	4235
3574.106	4152
3575.797	4217
3577.485	4231
3579.174	4126
3580.863	4152
3582.551	4144
3584.238	4105
3585.926	4210
3587.613	4052
3589.3	4090
3590.986	4184
3592.671	4147
3594.357	4161
3596.042	4041
3597.726	4073
3599.41	4092
3601.094	4051
3602.778	4051
3604.461	4107
3606.143	3903
3607.825	4089
3609.507	4014
3611.188	4117
3612.87	4098
3614.551	4046
3616.229	3997
3617.909	3978
3619.589	4087
3621.269	4050
3622.948	3932
3624.625	4021
3626.302	4019
3627.98	4000
3629.657	3913
3631.334	3977
3633.01	3926
3634.686	3988
3636.361	3880
3638.036	3942
3639.712	3940
3641.385	3931
3643.06	3902
3644.732	3918
3646.405	3879
3648.08	3905
3649.751	3933
3651.424	3843
3653.094	3911
3654.766	3890
3656.436	3969
3658.106	3851
3659.777	3848
3661.446	3811
3663.115	3879
3664.783	3890
3666.452	3860
3668.121	3826
3669.788	3873
3671.454	3898
3673.121	3805
3674.789	3863
3676.455	3908
3678.12	3808
3679.784	3795
3681.45	3859
3683.114	3776
3684.779	3838
3686.442	3795
3688.105	3843
3689.768	3848
3691.43	3722
3693.093	3742
3694.754	3733
3696.415	3807
3698.076	3807
3699.736	3746
3701.396	3794
3703.057	3814
3704.716	3784
3706.375	3822
3708.034	3827
3709.692	3711
3711.351	3803
3713.008	3727
3714.665	3714
3716.321	3698
3717.977	3724
3719.634	3671
3721.29	3730
3722.945	3783
3724.598	3769
3726.253	3745
3727.907	3670
3729.561	3728
3731.214	3684
3732.867	3732
3734.518	3710
3736.171	3750
3737.824	3648
3739.474	3619
3741.125	3710
3742.775	3622
3744.425	3664
3746.074	3671
3747.725	3641
3749.373	3618
3751.022	3659
3752.669	3724
3754.318	3695
3755.966	3565
3757.612	3659
3759.259	3697
3760.905	3723
3762.55	3601
3764.197	3569
3765.842	3661
3767.486	3613
3769.131	3609
3770.774	3610
3772.417	3636
3774.061	3622
3775.705	3588
3777.347	3645
3778.988	3586
3780.629	3632
3782.271	3613
3783.912	3668
3785.552	3650
3787.192	3631
3788.831	3567
3790.472	3559
3792.112	3528
3793.75	3659
3795.388	3509
3797.024	3534
3798.661	3591
3800.3	3570
3801.936	3497
3803.572	3520
3805.208	3611
3806.844	3577
3808.48	3542
3810.115	3541
3811.748	3532
3813.382	3520
3815.016	3490
3816.649	3548
3818.283	3484
3819.914	3626
3821.547	3485
3823.178	3504
3824.809	3506
3826.441	3532
3828.072	3470
3829.701	3454
3831.331	3490
3832.96	3492
3834.591	3526
3836.219	3522
3837.847	3548
3839.475	3454
3841.102	3475
3842.729	3445
3844.357	3488
3845.984	3405
3847.609	3448
3849.234	3488
3850.86	3486
3852.485	3483
3854.11	3470
3855.734	3461
3857.357	3414
3858.981	3428
3860.603	3462
3862.227	3454
3863.848	3347
3865.471	3412
3867.092	3446
3868.713	3385
3870.334	3443
3871.954	3403
3873.575	3384
3875.194	3400
3876.813	3372
3878.433	3377
3880.051	3351
3881.669	3445
3883.286	3397
3884.904	3375
3886.52	3448
3888.138	3303
3889.754	3357
3891.37	3369
3892.985	3379
3894.6	3410
3896.216	3284
3897.831	3365
3899.444	3454
3901.058	3335
3902.67	3382
3904.283	3341
3905.897	3299
3907.509	3361
3909.121	3295
3910.731	3320
3912.342	3313
3913.954	3358
3915.563	3338
3917.174	3316
3918.783	3294
3920.391	3381
3922.002	3336
3923.611	3337
3925.218	3338
3926.826	3364
3928.432	3335
3930.039	3362
3931.647	3282
3933.253	3330
3934.859	3222
3936.464	3267
3938.068	3305
3939.675	3301
3941.278	3326
3942.883	3296
3944.486	3272
3946.089	3337
3947.692	3279
3949.295	3289
3950.898	3266
3952.499	3254
3954.1	3209
3955.7	3320
3957.303	3186
3958.903	3257
3960.502	3266
3962.101	3241
3963.7	3240
3965.301	3242
3966.899	3280
3968.497	3259
3970.094	3323
3971.691	3262
3973.288	3207
3974.885	3293
3976.481	3210
3978.077	3119
3979.672	3264
3981.267	3185
3982.863	3214
3984.457	3208
3986.051	3172
3987.645	3241
3989.238	3254
3990.831	3202
3992.425	3162
3994.017	3178
3995.607	3172
3997.199	3105
3998.79	3170
4000.382	3131
4001.973	3147
4003.561	3159
4005.151	3204
4006.741	3200
4008.331	3176
4009.918	3088
4011.507	3116
4013.095	3125
4014.681	3066
4016.269	3117
4017.856	3079
4019.443	3194
4021.028	3117
4022.614	3064
4024.199	3189
4025.785	3003
4027.37	3090
4028.953	3093
4030.536	3013
4032.12	3105
4033.704	3057
4035.287	2995
4036.869	3068
4038.45	3043
4040.032	3057
4041.613	3062
4043.195	3014
4044.776	3102
4046.356	3013
4047.935	3044
4049.515	3097
4051.095	3051
4052.674	2996
4054.251	2969
4055.829	3051
4057.406	3005
4058.985	2987
4060.562	2976
4062.139	2949
4063.715	3003
4065.29	3030
4066.865	3019
4068.442	3038
4070.016	3084
4071.59	3080
4073.164	3063
4074.738	3020
4076.312	2958
4077.885	3020
4079.458	2984
4081.03	2993
4082.602	2995
4084.173	3041
4085.745	2972
4087.315	2984
4088.886	2931
4090.456	2865
4092.026	3054
4093.596	3023
4095.165	2942
4096.734	2948
4098.301	2967
4099.869	2948
4101.437	2942
4103.006	2913
4104.572	2957
4106.139	2945
4107.704	3016
4109.27	2915
4110.837	2980
4112.401	2864
4113.966	2956
4115.53	2932
4117.094	2955
4118.659	2919
4120.223	2919
4121.785	2897
4123.347	2892
4124.909	2855
4126.471	2908
4128.034	2969
4129.595	2930
4131.155	2845
4132.716	2901
4134.275	2829
4135.836	2897
4137.395	2923
4138.955	2859
4140.513	2916
4142.071	2842
4143.628	2806
4145.188	2832
4146.745	2865
4148.302	2900
4149.858	2807
4151.414	2856
4152.971	2918
4154.526	2855
4156.081	2848
4157.635	2818
4159.189	2766
4160.745	2756
4162.298	2811
4163.852	2843
4165.405	2838
4166.957	2865
4168.51	2767
4170.063	2810
4171.614	2745
4173.166	2819
4174.717	2824
4176.267	2829
4177.817	2730
4179.368	2754
4180.917	2768
4182.466	2796
4184.016	2794
4185.564	2823
4187.112	2729
4188.66	2734
4190.207	2672
4191.754	2832
4193.301	2743
4194.848	2769
4196.394	2772
4197.94	2769
4199.484	2694
4201.03	2717
4202.575	2763
4204.12	2744
4205.663	2715
4207.207	2728
4208.75	2737
4210.292	2742
4211.836	2738
4213.378	2673
4214.92	2698
4216.46	2776
4218.002	2657
4219.544	2657
4221.083	2681
4222.625	2688
4224.164	2759
4225.703	2720
4227.244	2598
4228.782	2669
4230.32	2689
4231.857	2677
4233.395	2696
4234.933	2669
4236.471	2646
4238.007	2583
4239.542	2629
4241.078	2688
4242.614	2704
4244.15	2696
4245.685	2669
4247.219	2685
4248.753	2700
4250.287	2631
4251.82	2646
4253.354	2619
4254.887	2665
4256.419	2701
4257.951	2709
4259.483	2617
4261.016	2679
4262.547	2624
4264.078	2615
4265.608	2650
4267.137	2652
4268.668	2669
4270.197	2574
4271.727	2603
4273.254	2614
4274.783	2641
4276.311	2633
4277.84	2578
4279.366	2630
4280.894	2626
4282.42	2591
4283.946	2566
4285.473	2592
4286.998	2617
4288.523	2556
4290.047	2600
4291.572	2623
4293.096	2617
4294.622	2600
4296.144	2603
4297.668	2551
4299.19	2546
4300.713	2549
4302.236	2539
4303.758	2606
4305.279	2622
4306.799	2536
4308.321	2518
4309.842	2557
4311.361	2514
4312.882	2552
4314.401	2475
