400.0961	4452
402.6185	4630
405.1424	4580
407.6635	4537
410.1838	4567
412.7035	4607
415.2225	4594
417.7388	4574
420.2585	4767
422.7754	4773
425.2917	4762
427.8072	4830
430.3221	4856
432.8363	4839
435.3498	4886
437.8626	4913
440.3727	4782
442.8841	4844
445.3969	4861
447.907	4923
450.4142	4837
452.9229	4813
455.4289	4818
457.9362	4785
460.4449	4899
462.9488	4851
465.454	4816
467.9566	4745
470.4604	4848
472.9637	4806
475.4662	4713
477.966	4832
480.4671	4900
482.9656	4875
485.4633	4896
487.9645	4887
490.4608	4941
492.9566	4999
495.4536	4948
497.948	4896
500.4437	4954
502.9387	4940
505.431	4943
507.9226	4937
510.4136	4927
512.9079	5003
515.3975	5066
517.8864	5001
520.3746	5068
522.8622	5021
525.3491	5079
527.8394	4989
530.3249	5005
532.8098	5019
535.2939	5054
537.7774	4985
540.2623	5027
542.7444	5067
545.2259	5068
547.7067	5087
550.1868	5009
552.6683	4971
555.147	5039
557.6231	5092
560.1005	5197
562.5773	5096
565.0534	5100
567.5308	5089
570.0056	5160
572.4776	5060
574.951	5156
577.4237	5242
579.8978	5286
582.3671	5322
584.8378	5401
587.3079	5338
589.7773	5271
592.244	5327
594.714	5393
597.1793	5336
599.6461	5282
602.1121	5204
604.5754	5300
607.0421	5197
609.5042	5243
611.9675	5202
614.4282	5207
616.8902	5270
619.3515	5307
621.8122	5193
624.2702	5233
626.7296	5187
629.1863	5229
631.6423	5252
634.1017	5272
636.5563	5207
639.0104	5191
641.4658	5238
643.9185	5190
646.3725	5337
648.8239	5223
651.2766	5289
653.7266	5250
656.176	5235
658.6247	5299
661.0748	5290
663.5242	5306
665.9709	5336
668.417	5437
670.8624	5347
673.3092	5362
675.7533	5419
678.1968	5335
680.6395	5397
683.0817	5398
685.5251	5349
687.9659	5288
690.4061	5442
692.8456	5403
695.2844	5432
697.7226	5460
700.1621	5377
702.599	5472
705.0332	5374
707.4688	5495
709.9036	5520
712.3399	5533
714.7735	5601
717.2044	5411
719.6367	5523
722.0683	5541
724.4993	5613
726.9296	5678
729.3593	5580
731.7883	5485
734.2147	5528
736.6423	5583
739.0714	5562
741.4958	5588
743.9216	5711
746.3447	5668
748.7691	5745
751.1929	5802
753.616	5741
756.0366	5718
758.4584	5819
760.8776	5745
763.2982	5730
765.718	5797
768.1373	5750
770.5539	5807
772.9698	5755
775.3871	5771
777.8038	5914
780.2178	5737
782.6332	5775
785.0459	5827
787.458	5886
789.8714	5867
792.2842	5721
794.6943	5816
797.1038	5767
799.5127	5829
801.9209	5788
804.3324	5879
806.7393	5857
809.1456	5937
811.5513	5760
813.9562	5851
816.3625	5895
818.7663	5994
821.1693	5875
823.5718	5853
825.9735	5916
828.3746	5886
830.7771	5962
833.177	5808
835.5762	5823
837.9747	6011
840.3727	5915
842.772	5918
845.1666	6017
847.5626	6024
849.958	5990
852.3527	6069
854.7488	6089
857.1403	6010
859.5331	6193
861.9253	6100
864.3168	6010
866.7057	6075
869.098	6016
871.4876	6050
873.8746	6012
876.263	5946
878.6487	6002
881.0378	6004
883.4243	5983
885.8081	6016
888.1933	6042
890.5759	5959
892.9598	6046
895.343	6096
897.7256	6126
900.1057	5949
902.4871	6046
904.8659	6022
907.246	5973
909.6254	5998
912.0023	6208
914.3786	6073
916.7562	6356
919.1331	6233
921.5074	6171
923.8831	6273
926.2562	6293
928.6287	6369
931.0005	6296
933.3757	6253
935.7462	6402
938.1162	6369
940.4855	6439
942.8542	6377
945.2242	6630
947.5916	6693
949.9584	6853
952.3266	6967
954.6921	7177
957.0571	7446
959.4233	7630
961.787	7828
964.15	7851
966.5125	7608
968.8742	7404
971.2354	7144
973.5959	6851
975.9559	6656
978.3151	6458
980.6738	6470
983.0338	6310
985.3912	6316
987.7461	6338
990.1022	6256
992.4578	6319
994.8127	6310
997.1689	6233
999.5207	6259
1001.874	6272
1004.226	6398
1006.576	6382
1008.929	6332
1011.28	6328
1013.628	6282
1015.977	6297
1018.324	6225
1020.674	6276
1023.019	6263
1025.366	6307
1027.713	6318
1030.056	6321
1032.399	6392
1034.746	6404
1037.087	6347
1039.431	6338
1041.771	6335
1044.113	6358
1046.454	6363
1048.793	6352
1051.133	6409
1053.471	6384
1055.807	6401
1058.146	6487
1060.483	6412
1062.818	6608
1065.153	6434
1067.489	6511
1069.822	6457
1072.156	6612
1074.488	6479
1076.82	6539
1079.15	6609
1081.48	6447
1083.814	6536
1086.143	6361
1088.471	6374
1090.799	6423
1093.126	6375
1095.452	6401
1097.78	6376
1100.105	6290
1102.43	6349
1104.754	6347
1107.077	6529
1109.4	6399
1111.722	6321
1114.044	6364
1116.365	6405
1118.685	6475
1121.005	6484
1123.324	6340
1125.643	6371
1127.961	6437
1130.278	6452
1132.595	6315
1134.911	6460
1137.226	6419
1139.541	6356
1141.854	6415
1144.167	6474
1146.482	6338
1148.793	6422
1151.105	6364
1153.414	6441
1155.725	6416
1158.033	6510
1160.344	6396
1162.651	6258
1164.959	6414
1167.265	6405
1169.572	6429
1171.878	6550
1174.184	6400
1176.488	6501
1178.79	6441
1181.094	6521
1183.396	6433
1185.699	6495
1188.001	6522
1190.301	6491
1192.6	6355
1194.9	6431
1197.2	6445
1199.497	6469
1201.794	6307
1204.09	6467
1206.387	6458
1208.684	6533
1210.978	6571
1213.272	6428
1215.565	6490
1217.858	6386
1220.15	6424
1222.443	6451
1224.734	6475
1227.024	6554
1229.313	6605
1231.602	6629
1233.892	6610
1236.18	6597
1238.467	6647
1240.754	6649
1243.04	6614
1245.325	6766
1247.612	6704
1249.896	6755
1252.178	6707
1254.461	6641
1256.743	6657
1259.027	6681
1261.308	6722
1263.587	6781
1265.867	6734
1268.146	6733
1270.425	6749
1272.703	6662
1274.981	6713
1277.256	6523
1279.532	6697
1281.808	6629
1284.083	6620
1286.358	6713
1288.63	6642
1290.904	6623
1293.175	6548
1295.449	6585
1297.719	6630
1299.99	6557
1302.259	6614
1304.529	6659
1306.798	6660
1309.065	6723
1311.333	6498
1313.599	6606
1315.866	6674
1318.131	6638
1320.396	6546
1322.66	6661
1324.925	6660
1327.187	6572
1329.448	6575
1331.711	6543
1333.974	6668
1336.234	6504
1338.493	6620
1340.752	6642
1343.01	6624
1345.269	6646
1347.526	6677
1349.784	6647
1352.04	6635
1354.295	6649
1356.552	6672
1358.806	6662
1361.059	6525
1363.312	6559
1365.564	6744
1367.818	6795
1370.069	6722
1372.318	6756
1374.568	6553
1376.817	6669
1379.066	6651
1381.316	6692
1383.564	6693
1385.809	6730
1388.056	6727
1390.301	6713
1392.549	6666
1394.793	6757
1397.036	6777
1399.279	6848
1401.522	6830
1403.763	6791
1406.007	6872
1408.248	6766
1410.487	6862
1412.727	6864
1414.965	6788
1417.205	6734
1419.442	6817
1421.68	6904
1423.915	6870
1426.152	6755
1428.388	6793
1430.623	6840
1432.857	6858
1435.091	6896
1437.323	6897
1439.556	6950
1441.789	7016
1444.019	6931
1446.25	6880
1448.48	6941
1450.708	6932
1452.938	6970
1455.167	7090
1457.394	6924
1459.62	6977
1461.846	6994
1464.073	6991
1466.299	7014
1468.523	6917
1470.746	6882
1472.969	6842
1475.191	6826
1477.415	6849
1479.636	6765
1481.858	6841
1484.078	6727
1486.298	6794
1488.518	6761
1490.736	6737
1492.954	6550
1495.169	6541
1497.386	6699
1499.602	6638
1501.819	6676
1504.034	6605
1506.248	6550
1508.462	6569
1510.675	6626
1512.888	6549
1515.1	6595
1517.311	6573
1519.522	6556
1521.732	6656
1523.942	6599
1526.151	6662
1528.36	6653
1530.566	6704
1532.773	6642
1534.98	6606
1537.187	6772
1539.392	6669
1541.596	6637
1543.801	6662
1546.005	6654
1548.208	6702
1550.411	6778
1552.612	6685
1554.814	6851
1557.013	6797
1559.212	6821
1561.414	6687
1563.612	6680
1565.811	6819
1568.007	6720
1570.203	6825
1572.403	6766
1574.598	6859
1576.792	6792
1578.988	6834
1581.181	6830
1583.376	6834
1585.568	6828
1587.761	6845
1589.952	6944
1592.143	6894
1594.333	6867
1596.524	6894
1598.715	6849
1600.903	6891
1603.091	6771
1605.278	6891
1607.466	6835
1609.652	7034
1611.838	6820
1614.023	6962
1616.207	6912
1618.391	6862
1620.576	6835
1622.759	6923
1624.941	6799
1627.123	6901
1629.304	6941
1631.484	6935
1633.664	7033
1635.844	7044
1638.022	6937
1640.201	6923
1642.38	7064
1644.556	6864
1646.732	6943
1648.908	6906
1651.084	6886
1653.257	7008
1655.433	7133
1657.607	6927
1659.779	7082
1661.951	6995
1664.122	6929
1666.295	7002
1668.467	7066
1670.635	7103
1672.805	7026
1674.973	7031
1677.142	6931
1679.31	7091
1681.478	6942
1683.644	6961
1685.81	6991
1687.975	6936
1690.142	6974
1692.305	6939
1694.468	6895
1696.632	6884
1698.794	6924
1700.957	6811
1703.119	6851
1705.279	6879
1707.439	6846
1709.598	6934
1711.758	6882
1713.917	6855
1716.075	6881
1718.231	6859
1720.388	6873
1722.543	6888
1724.702	6820
1726.856	6905
1729.01	6800
1731.164	6859
1733.317	6856
1735.471	6879
1737.623	6819
1739.774	6807
1741.925	6721
1744.075	6861
1746.225	6951
1748.376	6829
1750.524	6822
1752.672	6863
1754.82	6912
1756.965	6853
1759.113	6858
1761.259	6848
1763.405	6956
1765.549	6825
1767.694	6851
1769.836	6920
1771.981	6932
1774.123	6974
1776.264	6911
1778.405	6935
1780.546	6861
1782.687	6960
1784.827	6972
1786.966	7008
1789.103	6944
1791.242	7075
1793.381	6952
1795.517	6789
1797.653	6785
1799.788	6988
1801.923	6841
1804.057	6975
1806.193	6958
1808.326	6876
1810.457	6919
1812.59	6874
1814.721	6851
1816.855	6715
1818.984	6906
1821.113	6924
1823.244	6924
1825.372	6939
1827.499	6955
1829.63	6938
1831.756	6798
1833.882	6916
1836.007	6885
1838.132	6872
1840.26	6920
1842.384	6811
1844.507	6952
1846.63	6940
1848.752	6816
1850.875	7024
1852.996	6781
1855.118	6843
1857.238	6933
1859.358	6832
1861.477	6933
1863.597	6869
1865.715	6859
1867.832	6838
1869.948	6914
1872.064	6727
1874.181	6923
1876.297	6805
1878.411	6831
1880.526	6757
1882.639	6832
1884.752	6896
1886.865	6852
1888.977	6870
1891.089	6806
1893.2	6964
1895.308	6885
1897.42	6883
1899.53	6864
1901.639	6982
1903.745	6849
1905.853	6907
1907.962	6955
1910.067	6925
1912.174	6950
1914.278	6886
1916.383	6822
1918.486	6902
1920.592	6914
1922.694	6927
1924.797	6934
1926.898	7009
1929	6834
1931.102	6808
1933.203	6919
1935.301	6976
1937.401	7032
1939.499	6949
1941.598	6987
1943.697	6942
1945.793	6894
1947.888	7051
1949.985	7001
1952.08	6889
1954.176	6942
1956.269	7121
1958.364	6878
1960.457	6990
1962.549	7028
1964.642	6913
1966.733	7001
1968.823	6999
1970.913	6872
1973.005	6869
1975.093	6995
1977.184	6961
1979.271	6983
1981.359	7070
1983.446	6970
1985.532	6903
1987.619	6793
1989.705	6956
1991.789	6984
1993.874	6791
1995.956	6889
1998.041	7041
2000.123	6906
2002.206	6866
2004.287	6742
2006.368	6825
2008.449	6916
2010.529	6904
2012.609	6984
2014.688	6958
2016.766	6879
2018.843	6920
2020.922	6926
2022.999	6802
2025.074	6830
2027.15	6926
2029.225	6896
2031.299	6832
2033.375	6906
2035.447	6881
2037.52	6938
2039.592	6930
2041.664	6843
2043.736	6808
2045.807	6905
2047.876	6747
2049.947	6987
2052.015	6963
2054.086	6813
2056.153	6778
2058.221	6902
2060.288	6917
2062.353	6817
2064.42	6900
2066.486	6826
2068.55	7026
2070.614	7011
2072.678	6787
2074.741	6879
2076.805	6931
2078.866	6757
2080.929	6765
2082.99	6849
2085.049	6904
2087.109	6979
2089.17	6823
2091.228	6959
2093.286	6794
2095.344	6936
2097.4	6872
2099.46	6932
2101.516	6877
2103.572	6914
2105.626	6933
2107.679	6853
2109.735	6964
2111.788	6835
2113.841	6990
2115.894	6913
2117.945	6898
2119.997	6711
2122.049	6840
2124.1	6919
2126.148	6901
2128.197	6760
2130.246	6981
2132.296	6772
2134.342	6862
2136.39	6828
2138.437	6812
2140.483	6866
2142.527	6755
2144.574	6877
2146.619	6768
2148.661	6919
2150.705	6724
2152.747	6706
2154.792	6837
2156.832	6934
2158.874	6802
2160.915	6672
2162.954	6757
2164.995	6917
2167.034	6787
2169.072	6751
2171.111	6858
2173.148	6796
2175.186	6722
2177.223	6755
2179.258	6728
2181.294	6676
2183.328	6765
2185.362	6749
2187.398	6583
2189.431	6769
2191.463	6633
2193.495	6686
2195.528	6710
2197.56	6622
2199.59	6711
2201.62	6658
2203.649	6619
2205.678	6722
2207.708	6744
2209.737	6634
2211.764	6779
2213.791	6717
2215.817	6642
2217.843	6541
2219.87	6657
2221.895	6732
2223.919	6668
2225.942	6672
2227.966	6577
2229.988	6512
2232.012	6662
2234.032	6659
2236.054	6743
2238.074	6644
2240.095	6649
2242.116	6598
2244.135	6589
2246.153	6573
2248.171	6589
2250.188	6658
2252.208	6647
2254.223	6588
2256.239	6741
2258.255	6593
2260.269	6586
2262.283	6789
2264.3	6647
2266.312	6608
2268.325	6662
2270.336	6534
2272.349	6643
2274.362	6723
2276.372	6520
2278.383	6616
2280.392	6748
2282.402	6717
2284.409	6674
2286.418	6617
2288.427	6633
2290.433	6561
2292.441	6662
2294.446	6552
2296.453	6656
2298.459	6602
2300.463	6625
2302.466	6648
2304.471	6655
2306.475	6714
2308.477	6581
2310.478	6585
2312.481	6671
2314.481	6502
2316.481	6601
2318.482	6549
2320.482	6565
2322.48	6581
2324.48	6510
2326.478	6627
2328.476	6612
2330.473	6553
2332.469	6523
2334.465	6562
2336.46	6539
2338.454	6462
2340.45	6488
2342.444	6557
2344.437	6503
2346.43	6552
2348.421	6504
2350.414	6440
2352.405	6565
2354.396	6515
2356.386	6403
2358.376	6452
2360.366	6472
2362.355	6509
2364.343	6507
2366.331	6536
2368.317	6470
2370.304	6455
2372.292	6488
2374.278	6596
2376.262	6662
2378.247	6372
2380.23	6437
2382.216	6462
2384.199	6408
2386.181	6426
2388.163	6433
2390.144	6406
2392.127	6399
2394.107	6339
2396.087	6418
2398.066	6448
2400.046	6442
2402.023	6267
2404.004	6396
2405.981	6383
2407.957	6475
2409.934	6443
2411.91	6281
2413.886	6337
2415.862	6357
2417.836	6448
2419.809	6343
2421.784	6370
2423.756	6328
2425.73	6343
2427.701	6347
2429.672	6411
2431.644	6438
2433.615	6292
2435.586	6288
2437.555	6330
2439.523	6306
2441.491	6436
2443.459	6367
2445.428	6292
2447.395	6425
2449.361	6399
2451.327	6340
2453.292	6401
2455.257	6279
2457.223	6270
2459.187	6327
2461.15	6255
2463.113	6458
2465.076	6386
2467.039	6323
2468.999	6416
2470.96	6381
2472.921	6360
2474.881	6254
2476.841	6231
2478.8	6363
2480.759	6265
2482.717	6262
2484.675	6228
2486.63	6238
2488.589	6204
2490.545	6319
2492.5	6196
2494.455	6343
2496.408	6277
2498.364	6257
2500.318	6219
2502.27	6223
2504.223	6298
2506.174	6212
2508.126	6176
2510.078	6149
2512.03	6220
2513.979	6197
2515.927	6200
2517.877	6270
2519.826	6170
2521.775	6230
2523.722	6378
2525.668	6163
2527.616	6246
2529.561	6324
2531.508	6182
2533.452	6218
2535.398	6187
2537.342	6221
2539.284	6160
2541.229	6292
2543.173	6247
2545.114	6221
2547.055	6171
2548.996	6142
2550.938	6205
2552.878	6217
2554.817	6231
2556.756	6260
2558.695	6149
2560.633	6189
2562.572	6218
2564.509	6301
2566.445	6249
2568.382	6277
2570.317	6247
2572.254	6256
2574.189	6195
2576.123	6153
2578.057	6113
2579.99	6293
2581.923	6045
2583.855	6033
2585.788	6162
2587.719	6156
2589.65	6235
2591.579	6277
2593.511	6250
2595.44	6215
2597.37	6192
2599.297	6101
2601.225	6216
2603.153	6067
2605.08	6195
2607.007	6185
2608.932	6177
2610.858	6156
2612.782	6282
2614.709	6270
2616.632	6234
2618.556	6195
2620.478	6202
2622.401	6128
2624.324	6306
2626.247	6155
2628.167	6158
2630.088	6193
2632.008	6336
2633.928	6094
2635.848	6184
2637.766	6197
2639.684	6135
2641.603	6115
2643.519	6177
2645.437	6139
2647.353	6223
2649.27	6049
2651.184	6078
2653.099	6151
2655.014	6144
2656.928	6231
2658.842	6170
2660.755	6194
2662.667	6208
2664.579	6144
2666.491	6138
2668.402	6228
2670.312	6160
2672.222	6229
2674.132	6140
2676.042	6121
2677.951	6148
2679.859	6161
2681.766	6025
2683.674	6181
2685.582	6163
2687.488	6105
2689.392	6153
2691.298	6117
2693.202	6097
2695.107	6046
2697.012	6123
2698.914	6034
2700.817	6126
2702.72	6086
2704.622	6085
2706.524	6130
2708.425	6159
2710.326	6144
2712.225	6238
2714.125	6065
2716.024	6197
2717.923	6154
2719.822	6108
2721.719	6068
2723.616	6085
2725.512	6069
2727.41	6078
2729.305	5986
2731.201	5969
2733.095	6037
2734.99	6080
2736.884	5943
2738.778	6086
2740.67	5964
2742.562	6010
2744.455	6100
2746.346	6035
2748.238	6032
2750.129	5957
2752.018	6063
2753.907	6073
2755.797	5986
2757.687	6016
2759.575	5935
2761.462	6000
2763.349	5905
2765.237	6021
2767.124	6005
2769.009	6061
2770.894	6063
2772.779	5906
2774.663	6064
2776.547	5980
2778.431	5975
2780.314	6015
2782.197	5797
2784.078	5956
2785.96	5938
2787.842	5896
2789.723	6002
2791.603	6069
2793.483	5901
2795.362	5892
2797.241	5937
2799.121	5946
2800.997	5812
2802.874	5997
2804.751	5845
2806.628	5957
2808.506	5976
2810.38	5923
2812.255	5904
2814.13	5899
2816.003	5953
2817.878	5811
2819.752	5908
2821.623	5988
2823.496	5926
2825.368	5974
2827.238	5951
2829.111	5938
2830.98	5880
2832.851	5951
2834.719	5859
2836.589	5890
2838.458	5918
2840.327	6000
2842.193	5867
2844.061	5883
2845.927	5863
2847.794	5934
2849.66	5874
2851.525	6001
2853.39	5927
2855.254	5941
2857.117	5940
2858.983	5967
2860.845	5879
2862.707	6012
2864.569	6091
2866.431	5976
2868.293	6059
2870.154	6015
2872.013	6191
2873.873	6124
2875.733	6190
2877.592	6265
2879.451	6242
2881.309	6285
2883.166	6338
2885.022	6406
2886.879	6378
2888.736	6333
2890.591	6417
2892.446	6437
2894.301	6439
2896.155	6426
2898.009	6412
2899.863	6440
2901.716	6319
2903.568	6493
2905.419	6389
2907.27	6436
2909.123	6400
2910.973	6359
2912.824	6392
2914.673	6567
2916.521	6364
2918.372	6422
2920.22	6543
2922.067	6571
2923.914	6554
2925.761	6686
2927.607	6767
2929.455	6872
2931.301	6850
2933.144	6810
2934.99	7004
2936.833	6794
2938.678	6977
2940.522	6999
2942.364	7198
2944.207	7159
2946.048	7204
2947.891	7151
2949.731	7180
2951.571	7283
2953.412	7172
2955.25	7133
2957.09	7014
2958.93	7090
2960.767	7089
2962.606	6769
2964.443	6888
2966.279	6709
2968.116	6736
2969.953	6573
2971.788	6462
2973.623	6603
2975.457	6533
2977.292	6571
2979.127	6404
2980.959	6479
2982.792	6555
2984.624	6382
2986.455	6412
2988.288	6366
2990.119	6335
2991.949	6291
2993.779	6254
2995.608	6327
2997.439	6168
2999.268	6117
3001.096	6137
3002.923	6091
3004.751	5991
3006.578	6071
3008.406	5980
3010.232	5934
3012.057	5831
3013.883	5825
3015.706	5845
3017.532	5790
3019.356	5701
3021.179	5736
3023.002	5768
3024.823	5747
3026.646	5641
3028.469	5644
3030.289	5682
3032.11	5595
3033.93	5712
3035.749	5478
3037.57	5578
3039.39	5579
3041.207	5578
3043.026	5663
3044.842	5542
3046.661	5627
3048.477	5544
3050.294	5599
3052.109	5489
3053.925	5508
3055.739	5571
3057.555	5659
3059.368	5487
3061.181	5560
3062.995	5486
3064.807	5596
3066.62	5546
3068.433	5493
3070.243	5512
3072.054	5439
3073.865	5623
3075.675	5521
3077.485	5443
3079.293	5467
3081.102	5516
3082.911	5508
3084.719	5492
3086.527	5481
3088.333	5402
3090.139	5445
3091.945	5505
3093.75	5500
3095.557	5334
3097.361	5306
3099.165	5381
3100.969	5370
3102.772	5445
3104.575	5358
3106.379	5345
3108.181	5418
3109.982	5290
3111.783	5325
3113.584	5379
3115.386	5364
3117.186	5394
3118.985	5387
3120.783	5289
3122.582	5329
3124.381	5285
3126.179	5403
3127.975	5321
3129.772	5266
3131.569	5379
3133.365	5267
3135.161	5283
3136.956	5286
3138.751	5248
3140.544	5245
3142.338	5233
3144.132	5446
3145.925	5343
3147.717	5147
3149.509	5295
3151.301	5266
3153.091	5304
3154.884	5192
3156.673	5321
3158.462	5185
3160.252	5323
3162.041	5258
3163.831	5279
3165.618	5255
3167.405	5247
3169.193	5166
3170.979	5199
3172.767	5070
3174.553	5203
3176.338	5198
3178.123	5221
3179.907	5139
3181.692	5215
3183.477	5220
3185.259	5116
3187.042	5276
3188.824	5122
3190.607	5105
3192.389	5122
3194.17	5231
3195.951	5242
3197.73	5192
3199.51	5127
3201.289	5194
3203.07	5206
3204.848	5123
3206.626	5122
3208.403	5122
3210.18	5129
3211.959	5195
3213.735	5206
3215.511	5093
3217.285	5135
3219.06	5160
3220.836	5197
3222.611	5105
3224.384	5050
3226.158	5232
3227.929	5191
3229.702	5226
3231.476	5176
3233.248	5041
3235.018	5127
3236.789	5151
3238.56	5116
3240.33	5075
3242.1	5065
3243.869	5162
3245.637	5167
3247.405	5124
3249.172	5129
3250.941	5144
3252.707	5142
3254.474	5104
3256.24	5160
3258.006	5147
3259.772	5121
3261.537	5069
3263.301	5133
3265.065	5105
3266.828	5138
3268.592	5089
3270.355	5120
3272.117	5170
3273.878	5116
3275.64	5155
3277.401	5074
3279.162	4948
3280.922	5147
3282.682	5162
3284.441	5087
3286.199	5157
3287.959	5072
3289.716	5150
3291.475	5119
3293.232	5162
3294.988	5063
3296.744	5146
3298.501	5183
3300.256	5169
3302.011	5146
3303.766	5046
3305.52	5132
3307.275	5068
3309.028	5122
3310.781	5125
3312.533	5051
3314.285	5118
3316.038	5054
3317.789	5103
3319.54	5120
3321.289	5042
3323.039	5077
3324.789	5059
3326.539	5035
3328.288	5122
3330.035	5127
3331.783	5059
3333.531	5080
3335.28	5119
3337.025	4985
3338.771	5131
3340.518	5027
3342.262	4924
3344.009	5012
3345.753	5143
3347.497	5007
3349.24	5100
3350.983	4921
3352.726	4968
3354.469	5067
3356.212	4982
3357.952	4970
3359.694	5029
3361.434	4988
3363.176	4924
3364.916	4962
3366.654	4947
3368.394	4959
3370.132	4890
3371.871	4979
3373.61	4926
3375.346	4944
3377.083	4961
3378.82	4888
3380.556	4949
3382.292	4910
3384.027	4935
3385.763	4880
3387.497	4900
3389.231	4879
3390.965	4893
3392.698	4971
3394.431	4845
3396.164	4806
3397.896	4967
3399.627	4792
3401.36	4833
3403.09	4891
3404.82	4826
3406.55	4865
3408.279	4839
3410.01	4821
3411.738	4850
3413.467	4866
3415.194	4825
3416.92	4810
3418.647	4878
3420.375	4865
3422.102	4807
3423.827	4778
3425.553	4852
3427.277	4750
3429.003	4832
3430.727	4829
3432.451	4782
3434.173	4832
3435.896	4871
3437.62	4738
3439.343	4781
3441.063	4703
3442.785	4813
3444.505	4700
3446.226	4736
3447.948	4783
3449.666	4708
3451.386	4782
3453.104	4709
3454.823	4736
3456.541	4599
3458.259	4730
3459.976	4635
3461.693	4676
3463.408	4652
3465.125	4614
3466.841	4654
3468.556	4627
3470.271	4617
3471.985	4731
3473.698	4538
3475.414	4689
3477.126	4641
3478.838	4597
3480.55	4691
3482.263	4632
3483.975	4601
3485.686	4612
3487.396	4590
3489.106	4564
3490.817	4566
3492.526	4540
3494.236	4533
3495.944	4518
3497.652	4566
3499.359	4573
3501.066	4468
3502.775	4514
3504.481	4533
3506.187	4473
3507.893	4551
3509.598	4452
3511.304	4415
3513.009	4549
3514.713	4503
3516.417	4550
3518.12	4428
3519.821	4507
3521.525	4459
3523.228	4467
3524.929	4453
3526.631	4478
3528.33	4368
3530.032	4431
3531.733	4438
3533.433	4451
3535.131	4402
3536.83	4387
3538.529	4531
3540.227	4442
3541.925	4461
3543.623	4295
3545.319	4407
3547.016	4349
3548.712	4370
3550.408	4300
3552.103	4426
3553.798	4395
3555.491	4453
3557.188	4350
3558.88	4318
3560.574	4313
3562.266	4333
3563.959	4376
3565.651	4392
3567.343	4325
3569.035	4358
3570.725	4411
3572.415	4357
3574.106	4276
3575.797	4317
3577.485	4275
3579.174	4379
3580.863	4371
3582.551	4261
3584.238	4222
3585.926	4288
3587.613	4356
3589.3	4185
3590.986	4291
3592.671	4228
3594.357	4292
3596.042	4285
3597.726	4261
3599.41	4202
3601.094	4171
3602.778	4319
3604.461	4169
3606.143	4124
3607.825	4333
3609.507	4181
3611.188	4140
3612.87	4170
3614.551	4169
3616.229	4112
3617.909	4166
3619.589	4085
3621.269	4147
3622.948	4112
3624.625	4159
3626.302	4103
3627.98	4014
3629.657	4228
3631.334	4077
3633.01	4057
3634.686	3979
3636.361	4079
3638.036	4116
3639.712	4107
3641.385	4078
3643.06	4038
3644.732	4050
3646.405	4026
3648.08	4061
3649.751	4097
3651.424	4001
3653.094	4025
3654.766	4014
3656.436	4058
3658.106	4020
3659.777	3936
3661.446	4064
3663.115	4070
3664.783	3936
3666.452	3960
3668.121	4057
3669.788	3967
3671.454	3989
3673.121	4009
3674.789	3937
3676.455	3903
3678.12	3956
3679.784	3930
3681.45	3934
3683.114	3975
3684.779	3966
3686.442	3974
3688.105	3916
3689.768	3973
3691.43	3910
3693.093	3884
3694.754	3874
3696.415	3915
3698.076	3900
3699.736	3886
3701.396	3943
3703.057	3771
3704.716	3931
3706.375	3891
3708.034	3916
3709.692	3885
3711.351	3840
3713.008	3901
3714.665	3902
3716.321	3924
3717.977	3921
3719.634	3876
3721.29	3863
3722.945	3924
3724.598	3805
3726.253	3914
3727.907	3876
3729.561	3900
3731.214	3831
3732.867	3802
3734.518	3878
3736.171	3857
3737.824	3850
3739.474	3917
3741.125	3776
3742.775	3862
3744.425	3899
3746.074	3827
3747.725	3778
3749.373	3778
3751.022	3788
3752.669	3768
3754.318	3867
3755.966	3729
3757.612	3767
3759.259	3724
3760.905	3826
3762.55	3794
3764.197	3800
3765.842	3810
3767.486	3734
3769.131	3780
3770.774	3688
3772.417	3749
3774.061	3694
3775.705	3790
3777.347	3772
3778.988	3658
3780.629	3681
3782.271	3720
3783.912	3739
3785.552	3755
3787.192	3760
3788.831	3716
3790.472	3652
3792.112	3686
3793.75	3727
3795.388	3742
3797.024	3768
3798.661	3657
3800.3	3653
3801.936	3716
3803.572	3729
3805.208	3641
3806.844	3707
3808.48	3674
3810.115	3584
3811.748	3662
3813.382	3678
3815.016	3675
3816.649	3642
3818.283	3611
3819.914	3632
3821.547	3715
3823.178	3713
3824.809	3646
3826.441	3638
3828.072	3621
3829.701	3601
3831.331	3588
3832.96	3581
3834.591	3553
3836.219	3647
3837.847	3536
3839.475	3603
3841.102	3543
3842.729	3612
3844.357	3601
3845.984	3564
3847.609	3586
3849.234	3594
3850.86	3566
3852.485	3644
3854.11	3571
3855.734	3581
3857.357	3505
3858.981	3524
3860.603	3555
3862.227	3581
3863.848	3558
3865.471	3498
3867.092	3571
3868.713	3535
3870.334	3523
3871.954	3589
3873.575	3494
3875.194	3467
3876.813	3546
3878.433	3532
3880.051	3564
3881.669	3467
3883.286	3543
3884.904	3524
3886.52	3519
3888.138	3522
3889.754	3558
3891.37	3554
3892.985	3432
3894.6	3403
3896.216	3538
3897.831	3507
3899.444	3497
3901.058	3531
3902.67	3446
3904.283	3413
3905.897	3481
3907.509	3395
3909.121	3410
3910.731	3463
3912.342	3439
3913.954	3497
3915.563	3437
3917.174	3347
3918.783	3351
3920.391	3463
3922.002	3423
3923.611	3385
3925.218	3404
3926.826	3422
3928.432	3499
3930.039	3415
3931.647	3467
3933.253	3465
3934.859	3501
3936.464	3352
3938.068	3416
3939.675	3458
3941.278	3465
3942.883	3438
3944.486	3313
3946.089	3451
3947.692	3421
3949.295	3342
3950.898	3382
3952.499	3275
3954.1	3379
3955.7	3413
3957.303	3356
3958.903	3397
3960.502	3416
3962.101	3372
3963.7	3340
3965.301	3390
3966.899	3405
3968.497	3355
3970.094	3373
3971.691	3362
3973.288	3385
3974.885	3352
3976.481	3285
3978.077	3344
3979.672	3406
3981.267	3306
3982.863	3335
3984.457	3297
3986.051	3236
3987.645	3306
3989.238	3268
3990.831	3342
3992.425	3266
3994.017	3339
3995.607	3272
3997.199	3272
3998.79	3241
4000.382	3215
4001.973	3192
4003.561	3227
4005.151	3224
4006.741	3264
4008.331	3220
4009.918	3339
4011.507	3226
4013.095	3232
4014.681	3196
4016.269	3264
4017.856	3259
4019.443	3265
4021.028	3235
4022.614	3192
4024.199	3198
4025.785	3198
4027.37	3164
4028.953	3181
4030.536	3116
4032.12	3141
4033.704	3189
4035.287	3206
4036.869	3192
4038.45	3172
4040.032	3188
4041.613	3148
4043.195	3151
4044.776	3126
4046.356	3165
4047.935	3130
4049.515	3197
4051.095	3181
4052.674	3127
4054.251	3152
4055.829	3109
4057.406	3108
4058.985	3127
4060.562	3100
4062.139	3164
4063.715	3066
4065.29	3106
4066.865	3153
4068.442	3126
4070.016	3094
4071.59	3022
4073.164	3117
4074.738	2972
4076.312	3222
4077.885	3079
4079.458	3102
4081.03	3069
4082.602	3099
4084.173	3013
4085.745	3045
4087.315	3008
4088.886	3018
4090.456	3102
4092.026	3032
4093.596	3085
4095.165	3025
4096.734	3071
4098.301	3070
4099.869	3077
4101.437	3096
4103.006	3073
4104.572	3026
4106.139	3027
4107.704	3049
4109.27	2986
4110.837	3013
4112.401	2935
4113.966	3072
4115.53	2939
4117.094	2996
4118.659	3072
4120.223	3028
4121.785	2976
4123.347	3028
4124.909	2928
4126.471	2982
4128.034	3026
4129.595	2979
4131.155	3033
4132.716	2984
4134.275	2905
4135.836	2979
4137.395	2959
4138.955	2907
4140.513	3027
4142.071	2976
4143.628	2905
4145.188	2952
4146.745	2939
4148.302	2978
4149.858	2936
4151.414	2934
4152.971	2894
4154.526	2907
4156.081	2962
4157.635	2865
4159.189	2920
4160.745	2873
4162.298	2811
4163.852	2864
4165.405	3018
4166.957	2879
4168.51	2951
4170.063	2914
4171.614	2920
4173.166	2837
4174.717	2861
4176.267	2913
4177.817	2839
4179.368	2821
4180.917	2864
4182.466	2869
4184.016	2850
4185.564	2905
4187.112	2828
4188.66	2789
4190.207	2837
4191.754	2778
4193.301	2860
4194.848	2839
4196.394	2813
4197.94	2835
4199.484	2793
4201.03	2886
4202.575	2791
4204.12	2739
4205.663	2816
4207.207	2787
4208.75	2798
4210.292	2810
4211.836	2848
4213.378	2793
4214.92	2817
4216.46	2750
4218.002	2786
4219.544	2772
4221.083	2842
4222.625	2733
4224.164	2764
4225.703	2826
4227.244	2702
4228.782	2841
4230.32	2837
4231.857	2702
4233.395	2826
4234.933	2731
4236.471	2760
4238.007	2761
4239.542	2850
4241.078	2730
4242.614	2695
4244.15	2760
4245.685	2753
4247.219	2757
4248.753	2733
4250.287	2796
4251.82	2766
4253.354	2707
4254.887	2675
4256.419	2757
4257.951	2716
4259.483	2788
4261.016	2672
4262.547	2740
4264.078	2735
4265.608	2748
4267.137	2798
4268.668	2709
4270.197	2664
4271.727	2744
4273.254	2754
4274.783	2660
4276.311	2693
4277.84	2572
4279.366	2670
4280.894	2647
4282.42	2652
4283.946	2677
4285.473	2744
4286.998	2720
4288.523	2664
4290.047	2629
4291.572	2625
4293.096	2631
4294.622	2606
4296.144	2641
4297.668	2640
4299.19	2643
4300.713	2596
4302.236	2580
4303.758	2645
4305.279	2667
4306.799	2568
4308.321	2623
4309.842	2616
4311.361	2623
4312.882	2648
4314.401	2614
