400.0961	5983
402.6185	5883
405.1424	5862
407.6635	5920
410.1838	5980
412.7035	5833
415.2225	5996
417.7388	5945
420.2585	6083
422.7754	6128
425.2917	6249
427.8072	6183
430.3221	6121
432.8363	6122
435.3498	6271
437.8626	6301
440.3727	6243
442.8841	6226
445.3969	6282
447.907	6277
450.4142	6361
452.9229	6193
455.4289	6304
457.9362	6371
460.4449	6357
462.9488	6350
465.454	6259
467.9566	6381
470.4604	6221
472.9637	6343
475.4662	6436
477.966	6483
480.4671	6452
482.9656	6444
485.4633	6449
487.9645	6450
490.4608	6488
492.9566	6639
495.4536	6478
497.948	6491
500.4437	6521
502.9387	6603
505.431	6638
507.9226	6549
510.4136	6635
512.9079	6618
515.3975	6576
517.8864	6577
520.3746	6676
522.8622	6784
525.3491	6693
527.8394	6688
530.3249	6712
532.8098	6704
535.2939	6678
537.7774	6812
540.2623	6672
542.7444	6717
545.2259	6664
547.7067	6704
550.1868	6670
552.6683	6557
555.147	6687
557.6231	6803
560.1005	6698
562.5773	6700
565.0534	6735
567.5308	6779
570.0056	6685
572.4776	6856
574.951	6923
577.4237	6886
579.8978	6919
582.3671	6881
584.8378	6817
587.3079	6883
589.7773	6946
592.244	7000
594.714	6899
597.1793	6895
599.6461	6836
602.1121	6877
604.5754	6775
607.0421	6942
609.5042	6989
611.9675	6775
614.4282	6890
616.8902	6943
619.3515	6898
621.8122	6869
624.2702	6833
626.7296	6924
629.1863	6908
631.6423	6925
634.1017	7083
636.5563	6970
639.0104	6907
641.4658	6850
643.9185	7023
646.3725	6952
648.8239	6989
651.2766	7038
653.7266	7178
656.176	7126
658.6247	7141
661.0748	7084
663.5242	7130
665.9709	7009
668.417	7111
670.8624	7000
673.3092	7124
675.7533	7131
678.1968	7143
680.6395	7256
683.0817	7226
685.5251	7230
687.9659	7149
690.4061	7122
692.8456	7260
695.2844	7147
697.7226	7211
700.1621	7246
702.599	7238
705.0332	7206
707.4688	7279
709.9036	7343
712.3399	7381
714.7735	7288
717.2044	7365
719.6367	7507
722.0683	7315
724.4993	7430
726.9296	7379
729.3593	7451
731.7883	7472
734.2147	7496
736.6423	7578
739.0714	7518
741.4958	7467
743.9216	7619
746.3447	7476
748.7691	7442
751.1929	7530
753.616	7619
756.0366	7528
758.4584	7593
760.8776	7641
763.2982	7734
765.718	7707
768.1373	7755
770.5539	7932
772.9698	7717
775.3871	7578
777.8038	7707
780.2178	7665
782.6332	7832
785.0459	7773
787.458	7887
789.8714	7756
792.2842	7617
794.6943	7755
797.1038	7766
799.5127	7556
801.9209	7775
804.3324	7734
806.7393	7759
809.1456	7814
811.5513	7831
813.9562	7821
816.3625	7720
818.7663	7811
821.1693	7900
823.5718	7892
825.9735	7900
828.3746	7816
830.7771	7809
833.177	8012
835.5762	7877
837.9747	7907
840.3727	7834
842.772	7969
845.1666	7932
847.5626	7857
849.958	8006
852.3527	8030
854.7488	7961
857.1403	7976
859.5331	8044
861.9253	7959
864.3168	8016
866.7057	7910
869.098	7906
871.4876	7985
873.8746	7948
876.263	7923
878.6487	8048
881.0378	7923
883.4243	8002
885.8081	7909
888.1933	7890
890.5759	7995
892.9598	8005
895.343	7759
897.7256	8042
900.1057	8040
902.4871	7976
904.8659	8064
907.246	7978
909.6254	8049
912.0023	8181
914.3786	8175
916.7562	8073
919.1331	8164
921.5074	8251
923.8831	8350
926.2562	8319
928.6287	8321
931.0005	8342
933.3757	8307
935.7462	8342
938.1162	8402
940.4855	8506
942.8542	8366
945.2242	8367
947.5916	8458
949.9584	8421
952.3266	8483
954.6921	8761
957.0571	8693
959.4233	8884
961.787	8903
964.15	8928
966.5125	8964
968.8742	8877
971.2354	8638
973.5959	8482
975.9559	8514
978.3151	8459
980.6738	8243
983.0338	8254
985.3912	8322
987.7461	8294
990.1022	8259
992.4578	8311
994.8127	8281
997.1689	8147
999.5207	8245
1001.874	8321
1004.226	8189
1006.576	8226
1008.929	8212
1011.28	8166
1013.628	8223
1015.977	8216
1018.324	8158
1020.674	8250
1023.019	8363
1025.366	8257
1027.713	8313
1030.056	8287
1032.399	8356
1034.746	8382
1037.087	8259
1039.431	8317
1041.771	8350
1044.113	8438
1046.454	8348
1048.793	8436
1051.133	8366
1053.471	8380
1055.807	8342
1058.146	8372
1060.483	8448
1062.818	8461
1065.153	8327
1067.489	8409
1069.822	8519
1072.156	8455
1074.488	8490
1076.82	8565
1079.15	8345
1081.48	8447
1083.814	8591
1086.143	8338
1088.471	8348
1090.799	8428
1093.126	8304
1095.452	8444
1097.78	8541
1100.105	8446
1102.43	8538
1104.754	8476
1107.077	8487
1109.4	8492
1111.722	8414
1114.044	8477
1116.365	8382
1118.685	8602
1121.005	8533
1123.324	8591
1125.643	8424
1127.961	8501
1130.278	8632
1132.595	8555
1134.911	8452
1137.226	8609
1139.541	8514
1141.854	8502
1144.167	8559
1146.482	8601
1148.793	8451
1151.105	8512
1153.414	8547
1155.725	8558
1158.033	8695
1160.344	8580
1162.651	8564
1164.959	8569
1167.265	8596
1169.572	8530
1171.878	8541
1174.184	8517
1176.488	8666
1178.79	8575
1181.094	8631
1183.396	8662
1185.699	8564
1188.001	8592
1190.301	8471
1192.6	8588
1194.9	8531
1197.2	8510
1199.497	8501
1201.794	8605
1204.09	8527
1206.387	8539
1208.684	8682
1210.978	8597
1213.272	8567
1215.565	8529
1217.858	8693
1220.15	8547
1222.443	8645
1224.734	8675
1227.024	8695
1229.313	8609
1231.602	8688
1233.892	8819
1236.18	8891
1238.467	8797
1240.754	8769
1243.04	8819
1245.325	8797
1247.612	8847
1249.896	8961
1252.178	8881
1254.461	8850
1256.743	8929
1259.027	8905
1261.308	8770
1263.587	8954
1265.867	8871
1268.146	8905
1270.425	8924
1272.703	8870
1274.981	8975
1277.256	8948
1279.532	8767
1281.808	8971
1284.083	8863
1286.358	8800
1288.63	8893
1290.904	8765
1293.175	8809
1295.449	8794
1297.719	8904
1299.99	8900
1302.259	8825
1304.529	8734
1306.798	8858
1309.065	8802
1311.333	8801
1313.599	8790
1315.866	8798
1318.131	8749
1320.396	8784
1322.66	8871
1324.925	8766
1327.187	8837
1329.448	8885
1331.711	8996
1333.974	8844
1336.234	8850
1338.493	8783
1340.752	8766
1343.01	8813
1345.269	8881
1347.526	8717
1349.784	8875
1352.04	8792
1354.295	8792
1356.552	8724
1358.806	8686
1361.059	8930
1363.312	8797
1365.564	8815
1367.818	8771
1370.069	8853
1372.318	8760
1374.568	8839
1376.817	8884
1379.066	8832
1381.316	8826
1383.564	8935
1385.809	8876
1388.056	8900
1390.301	8965
1392.549	9041
1394.793	9116
1397.036	9074
1399.279	9203
1401.522	8989
1403.763	9090
1406.007	9109
1408.248	8987
1410.487	9104
1412.727	9179
1414.965	9219
1417.205	9039
1419.442	9026
1421.68	9092
1423.915	9085
1426.152	9136
1428.388	8986
1430.623	9119
1432.857	9249
1435.091	9068
1437.323	9162
1439.556	9264
1441.789	9238
1444.019	9165
1446.25	9250
1448.48	9122
1450.708	9140
1452.938	9372
1455.167	9217
1457.394	9325
1459.62	9328
1461.846	9297
1464.073	9219
1466.299	9220
1468.523	9242
1470.746	9234
1472.969	9025
1475.191	9035
1477.415	8995
1479.636	8975
1481.858	8954
1484.078	8842
1486.298	8936
1488.518	8898
1490.736	8944
1492.954	8865
1495.169	8831
1497.386	8788
1499.602	8957
1501.819	8913
1504.034	8705
1506.248	8717
1508.462	8904
1510.675	8872
1512.888	8870
1515.1	8930
1517.311	8825
1519.522	8900
1521.732	8831
1523.942	8790
1526.151	8908
1528.36	8996
1530.566	8727
1532.773	8740
1534.98	8778
1537.187	8891
1539.392	9092
1541.596	8762
1543.801	8986
1546.005	8786
1548.208	8899
1550.411	8867
1552.612	8956
1554.814	8823
1557.013	8933
1559.212	9016
1561.414	9023
1563.612	9088
1565.811	8994
1568.007	9055
1570.203	9203
1572.403	9086
1574.598	8968
1576.792	9085
1578.988	9206
1581.181	9066
1583.376	9010
1585.568	9149
1587.761	9135
1589.952	9094
1592.143	9240
1594.333	9256
1596.524	9114
1598.715	9193
1600.903	9267
1603.091	9162
1605.278	9178
1607.466	9205
1609.652	9362
1611.838	9210
1614.023	9314
1616.207	9037
1618.391	9183
1620.576	9144
1622.759	9182
1624.941	9094
1627.123	9131
1629.304	9100
1631.484	9236
1633.664	9049
1635.844	9196
1638.022	9279
1640.201	9189
1642.38	9093
1644.556	9207
1646.732	9182
1648.908	9129
1651.084	9236
1653.257	9184
1655.433	9174
1657.607	9187
1659.779	9324
1661.951	9185
1664.122	9208
1666.295	9093
1668.467	9188
1670.635	9366
1672.805	9286
1674.973	9354
1677.142	9407
1679.31	9307
1681.478	9282
1683.644	9244
1685.81	9172
1687.975	9265
1690.142	9299
1692.305	9180
1694.468	9145
1696.632	9223
1698.794	9163
1700.957	9154
1703.119	9220
1705.279	9138
1707.439	9130
1709.598	9184
1711.758	9140
1713.917	9097
1716.075	9208
1718.231	9027
1720.388	8947
1722.543	9127
1724.702	9066
1726.856	8987
1729.01	9100
1731.164	9107
1733.317	9236
1735.471	9266
1737.623	9191
1739.774	9275
1741.925	9285
1744.075	9166
1746.225	9156
1748.376	9143
1750.524	9218
1752.672	9133
1754.82	9151
1756.965	9196
1759.113	9182
1761.259	9060
1763.405	9166
1765.549	9181
1767.694	9193
1769.836	9217
1771.981	9223
1774.123	9130
1776.264	9146
1778.405	9264
1780.546	9146
1782.687	9063
1784.827	9135
1786.966	9067
1789.103	9186
1791.242	9227
1793.381	9152
1795.517	9285
1797.653	9181
1799.788	9129
1801.923	9121
1804.057	9241
1806.193	9118
1808.326	9251
1810.457	9271
1812.59	9220
1814.721	9345
1816.855	9152
1818.984	9076
1821.113	9174
1823.244	9221
1825.372	9151
1827.499	9111
1829.63	9164
1831.756	9210
1833.882	9070
1836.007	9212
1838.132	9045
1840.26	9134
1842.384	9096
1844.507	9085
1846.63	9156
1848.752	9073
1850.875	9180
1852.996	9097
1855.118	9008
1857.238	9142
1859.358	9072
1861.477	9024
1863.597	9067
1865.715	9061
1867.832	9052
1869.948	9178
1872.064	8992
1874.181	9148
1876.297	9108
1878.411	9099
1880.526	9222
1882.639	8959
1884.752	9032
1886.865	9090
1888.977	9143
1891.089	9253
1893.2	9142
1895.308	9188
1897.42	9059
1899.53	9227
1901.639	9112
1903.745	9076
1905.853	9198
1907.962	9157
1910.067	9194
1912.174	9156
1914.278	9277
1916.383	9165
1918.486	9288
1920.592	9197
1922.694	9315
1924.797	9142
1926.898	9320
1929	9396
1931.102	9348
1933.203	9308
1935.301	9165
1937.401	9404
1939.499	9350
1941.598	9146
1943.697	9365
1945.793	9274
1947.888	9318
1949.985	9145
1952.08	9333
1954.176	9233
1956.269	9324
1958.364	9171
1960.457	9237
1962.549	9279
1964.642	9286
1966.733	9226
1968.823	9166
1970.913	9266
1973.005	9215
1975.093	9135
1977.184	9163
1979.271	9303
1981.359	9202
1983.446	9270
1985.532	9142
1987.619	9125
1989.705	8983
1991.789	9005
1993.874	9211
1995.956	9202
1998.041	9074
2000.123	9089
2002.206	9161
2004.287	9144
2006.368	9197
2008.449	9046
2010.529	9007
2012.609	9081
2014.688	9098
2016.766	8963
2018.843	9069
2020.922	9029
2022.999	9149
2025.074	9024
2027.15	9107
2029.225	9044
2031.299	9115
2033.375	9087
2035.447	8979
2037.52	9158
2039.592	9102
2041.664	9127
2043.736	9036
2045.807	9118
2047.876	9095
2049.947	9101
2052.015	9051
2054.086	9268
2056.153	9101
2058.221	9103
2060.288	9073
2062.353	9161
2064.42	8990
2066.486	9130
2068.55	9142
2070.614	9148
2072.678	9059
2074.741	9140
2076.805	9031
2078.866	9147
2080.929	9008
2082.99	8995
2085.049	9087
2087.109	9046
2089.17	9072
2091.228	9035
2093.286	9035
2095.344	9240
2097.4	9257
2099.46	9106
2101.516	9070
2103.572	9163
2105.626	9002
2107.679	9015
2109.735	9062
2111.788	9012
2113.841	9207
2115.894	9065
2117.945	9034
2119.997	8991
2122.049	9177
2124.1	9074
2126.148	8936
2128.197	9027
2130.246	9105
2132.296	8952
2134.342	9114
2136.39	9037
2138.437	9029
2140.483	8892
2142.527	8999
2144.574	8886
2146.619	8976
2148.661	9070
2150.705	8954
2152.747	9060
2154.792	9029
2156.832	9029
2158.874	9005
2160.915	9059
2162.954	9127
2164.995	8942
2167.034	8993
2169.072	8961
2171.111	8964
2173.148	9085
2175.186	9002
2177.223	8953
2179.258	8869
2181.294	8987
2183.328	8941
2185.362	8809
2187.398	8795
2189.431	8996
2191.463	8809
2193.495	8896
2195.528	8982
2197.56	8909
2199.59	8856
2201.62	8905
2203.649	8856
2205.678	8713
2207.708	8814
2209.737	8768
2211.764	8777
2213.791	8821
2215.817	8806
2217.843	8869
2219.87	8800
2221.895	8701
2223.919	8831
2225.942	8879
2227.966	8912
2229.988	8728
2232.012	8793
2234.032	8760
2236.054	8793
2238.074	8676
2240.095	8788
2242.116	8692
2244.135	8787
2246.153	8686
2248.171	8700
2250.188	8759
2252.208	8710
2254.223	8819
2256.239	8840
2258.255	8773
2260.269	8731
2262.283	8744
2264.3	8795
2266.312	8740
2268.325	8895
2270.336	8817
2272.349	8822
2274.362	8748
2276.372	8667
2278.383	8826
2280.392	8791
2282.402	8666
2284.409	8716
2286.418	8680
2288.427	8784
2290.433	8783
2292.441	8696
2294.446	8686
2296.453	8739
2298.459	8735
2300.463	8896
2302.466	8627
2304.471	8642
2306.475	8824
2308.477	8649
2310.478	8759
2312.481	8760
2314.481	8709
2316.481	8684
2318.482	8743
2320.482	8702
2322.48	8642
2324.48	8734
2326.478	8741
2328.476	8625
2330.473	8600
2332.469	8500
2334.465	8529
2336.46	8553
2338.454	8644
2340.45	8652
2342.444	8528
2344.437	8627
2346.43	8492
2348.421	8550
2350.414	8682
2352.405	8475
2354.396	8623
2356.386	8463
2358.376	8537
2360.366	8562
2362.355	8570
2364.343	8450
2366.331	8478
2368.317	8413
2370.304	8467
2372.292	8638
2374.278	8474
2376.262	8599
2378.247	8461
2380.23	8571
2382.216	8494
2384.199	8422
2386.181	8558
2388.163	8479
2390.144	8424
2392.127	8565
2394.107	8496
2396.087	8478
2398.066	8416
2400.046	8471
2402.023	8364
2404.004	8471
2405.981	8390
2407.957	8417
2409.934	8315
2411.91	8341
2413.886	8411
2415.862	8376
2417.836	8495
2419.809	8356
2421.784	8331
2423.756	8388
2425.73	8351
2427.701	8346
2429.672	8406
2431.644	8471
2433.615	8299
2435.586	8308
2437.555	8295
2439.523	8464
2441.491	8297
2443.459	8423
2445.428	8414
2447.395	8306
2449.361	8468
2451.327	8390
2453.292	8284
2455.257	8234
2457.223	8274
2459.187	8319
2461.15	8323
2463.113	8406
2465.076	8383
2467.039	8431
2468.999	8322
2470.96	8245
2472.921	8171
2474.881	8254
2476.841	8133
2478.8	8248
2480.759	8304
2482.717	8186
2484.675	8249
2486.63	8278
2488.589	8407
2490.545	8178
2492.5	8261
2494.455	8269
2496.408	8108
2498.364	8194
2500.318	8282
2502.27	8199
2504.223	8178
2506.174	8270
2508.126	8209
2510.078	8032
2512.03	8180
2513.979	8147
2515.927	8153
2517.877	8130
2519.826	8209
2521.775	8109
2523.722	8124
2525.668	8129
2527.616	8115
2529.561	8148
2531.508	8154
2533.452	8224
2535.398	8048
2537.342	8099
2539.284	7975
2541.229	8057
2543.173	8180
2545.114	8053
2547.055	8164
2548.996	8080
2550.938	8021
2552.878	8219
2554.817	8269
2556.756	8183
2558.695	8215
2560.633	8178
2562.572	8049
2564.509	8210
2566.445	8168
2568.382	8151
2570.317	8098
2572.254	8189
2574.189	8205
2576.123	8084
2578.057	8112
2579.99	8141
2581.923	8114
2583.855	8023
2585.788	8161
2587.719	8009
2589.65	8037
2591.579	8204
2593.511	8120
2595.44	8179
2597.37	8114
2599.297	8151
2601.225	8081
2603.153	8023
2605.08	8153
2607.007	8184
2608.932	8123
2610.858	8181
2612.782	8076
2614.709	8184
2616.632	8048
2618.556	8141
2620.478	8115
2622.401	8074
2624.324	8205
2626.247	8129
2628.167	8087
2630.088	8278
2632.008	8156
2633.928	8134
2635.848	8156
2637.766	8030
2639.684	8196
2641.603	8089
2643.519	8147
2645.437	8116
2647.353	8102
2649.27	7973
2651.184	8185
2653.099	8115
2655.014	8037
2656.928	8197
2658.842	8103
2660.755	8099
2662.667	8073
2664.579	7972
2666.491	8088
2668.402	8039
2670.312	8076
2672.222	8069
2674.132	8059
2676.042	8106
2677.951	8058
2679.859	8117
2681.766	7979
2683.674	8073
2685.582	8010
2687.488	8037
2689.392	7974
2691.298	7827
2693.202	7943
2695.107	7943
2697.012	7883
2698.914	8053
2700.817	7971
2702.72	8067
2704.622	7941
2706.524	7965
2708.425	7805
2710.326	7882
2712.225	7990
2714.125	7828
2716.024	8018
2717.923	7977
2719.822	7880
2721.719	7893
2723.616	7872
2725.512	7902
2727.41	7953
2729.305	7943
2731.201	7788
2733.095	7735
2734.99	7871
2736.884	7827
2738.778	7994
2740.67	7852
2742.562	7746
2744.455	7871
2746.346	7816
2748.238	7973
2750.129	7908
2752.018	7822
2753.907	7889
2755.797	7930
2757.687	7910
2759.575	7861
2761.462	7854
2763.349	7703
2765.237	7873
2767.124	7768
2769.009	7785
2770.894	7737
2772.779	7782
2774.663	7980
2776.547	7804
2778.431	7823
2780.314	7810
2782.197	7833
2784.078	7814
2785.96	7594
2787.842	7847
2789.723	7740
2791.603	7714
2793.483	7779
2795.362	7856
2797.241	7785
2799.121	7700
2800.997	7629
2802.874	7741
2804.751	7715
2806.628	7690
2808.506	7769
2810.38	7671
2812.255	7797
2814.13	7707
2816.003	7652
2817.878	7793
2819.752	7627
2821.623	7662
2823.496	7755
2825.368	7707
2827.238	7734
2829.111	7771
2830.98	7670
2832.851	7687
2834.719	7803
2836.589	7698
2838.458	7586
2840.327	7627
2842.193	7705
2844.061	7646
2845.927	7726
2847.794	7760
2849.66	7792
2851.525	7757
2853.39	7665
2855.254	7762
2857.117	7709
2858.983	7600
2860.845	7753
2862.707	7666
2864.569	7732
2866.431	7754
2868.293	7752
2870.154	7863
2872.013	7804
2873.873	7890
2875.733	7867
2877.592	8053
2879.451	7897
2881.309	8012
2883.166	8065
2885.022	8231
2886.879	8193
2888.736	8060
2890.591	8049
2892.446	8237
2894.301	8155
2896.155	8208
2898.009	8092
2899.863	8146
2901.716	8028
2903.568	8225
2905.419	8259
2907.27	8012
2909.123	8022
2910.973	8267
2912.824	8278
2914.673	8148
2916.521	8223
2918.372	8270
2920.22	8312
2922.067	8265
2923.914	8421
2925.761	8434
2927.607	8187
2929.455	8366
2931.301	8330
2933.144	8309
2934.99	8630
2936.833	8442
2938.678	8515
2940.522	8675
2942.364	8648
2944.207	8751
2946.048	8772
2947.891	8860
2949.731	8802
2951.571	8898
2953.412	8841
2955.25	8771
2957.09	8663
2958.93	8772
2960.767	8648
2962.606	8542
2964.443	8648
2966.279	8510
2968.116	8450
2969.953	8395
2971.788	8283
2973.623	8234
2975.457	8261
2977.292	8064
2979.127	7988
2980.959	8005
2982.792	8016
2984.624	7912
2986.455	7956
2988.288	7967
2990.119	7851
2991.949	7870
2993.779	7734
2995.608	7748
2997.439	7705
2999.268	7778
3001.096	7633
3002.923	7639
3004.751	7562
3006.578	7623
3008.406	7397
3010.232	7451
3012.057	7357
3013.883	7427
3015.706	7317
3017.532	7488
3019.356	7423
3021.179	7319
3023.002	7320
3024.823	7216
3026.646	7291
3028.469	7299
3030.289	7413
3032.11	7279
3033.93	7285
3035.749	7144
3037.57	7227
3039.39	7155
3041.207	7257
3043.026	7232
3044.842	7312
3046.661	7088
3048.477	7244
3050.294	7124
3052.109	7182
3053.925	7140
3055.739	7036
3057.555	7120
3059.368	7052
3061.181	7116
3062.995	7132
3064.807	7106
3066.62	7093
3068.433	7216
3070.243	7115
3072.054	7145
3073.865	7212
3075.675	7147
3077.485	7028
3079.293	7122
3081.102	7136
3082.911	7011
3084.719	6997
3086.527	7071
3088.333	6956
3090.139	6999
3091.945	6969
3093.75	7005
3095.557	6818
3097.361	6855
3099.165	6925
3100.969	6889
3102.772	6816
3104.575	6901
3106.379	6845
3108.181	6954
3109.982	6866
3111.783	6798
3113.584	6876
3115.386	6817
3117.186	6900
3118.985	6888
3120.783	6827
3122.582	6807
3124.381	6843
3126.179	6837
3127.975	6823
3129.772	6849
3131.569	6791
3133.365	6712
3135.161	6839
3136.956	6757
3138.751	6626
3140.544	6707
3142.338	6856
3144.132	6581
3145.925	6730
3147.717	6791
3149.509	6646
3151.301	6714
3153.091	6716
3154.884	6682
3156.673	6720
3158.462	6696
3160.252	6682
3162.041	6737
3163.831	6558
3165.618	6555
3167.405	6726
3169.193	6677
3170.979	6614
3172.767	6590
3174.553	6667
3176.338	6581
3178.123	6506
3179.907	6591
3181.692	6555
3183.477	6693
3185.259	6650
3187.042	6610
3188.824	6670
3190.607	6630
3192.389	6529
3194.17	6712
3195.951	6550
3197.73	6574
3199.51	6557
3201.289	6530
3203.07	6703
3204.848	6552
3206.626	6553
3208.403	6403
3210.18	6488
3211.959	6558
3213.735	6577
3215.511	6582
3217.285	6436
3219.06	6568
3220.836	6582
3222.611	6449
3224.384	6528
3226.158	6425
3227.929	6540
3229.702	6433
3231.476	6554
3233.248	6465
3235.018	6461
3236.789	6520
3238.56	6523
3240.33	6439
3242.1	6599
3243.869	6413
3245.637	6520
3247.405	6461
3249.172	6443
3250.941	6461
3252.707	6449
3254.474	6518
3256.24	6538
3258.006	6457
3259.772	6502
3261.537	6520
3263.301	6529
3265.065	6385
3266.828	6509
3268.592	6513
3270.355	6549
3272.117	6338
3273.878	6455
3275.64	6465
3277.401	6406
3279.162	6547
3280.922	6522
3282.682	6445
3284.441	6421
3286.199	6436
3287.959	6361
3289.716	6361
3291.475	6453
3293.232	6465
3294.988	6457
3296.744	6376
3298.501	6386
3300.256	6290
3302.011	6458
3303.766	6475
3305.52	6459
3307.275	6444
3309.028	6416
3310.781	6515
3312.533	6373
3314.285	6493
3316.038	6322
3317.789	6440
3319.54	6403
3321.289	6354
3323.039	6473
3324.789	6300
3326.539	6365
3328.288	6291
3330.035	6223
3331.783	6349
3333.531	6342
3335.28	6300
3337.025	6412
3338.771	6325
3340.518	6362
3342.262	6270
3344.009	6221
3345.753	6381
3347.497	6344
3349.24	6235
3350.983	6303
3352.726	6171
3354.469	6238
3356.212	6278
3357.952	6210
3359.694	6306
3361.434	6248
3363.176	6206
3364.916	6218
3366.654	6181
3368.394	6154
3370.132	6230
3371.871	6201
3373.61	6106
3375.346	6008
3377.083	6172
3378.82	6109
3380.556	6186
3382.292	6120
3384.027	6196
3385.763	6095
3387.497	6189
3389.231	6157
3390.965	6207
3392.698	6167
3394.431	6072
3396.164	6199
3397.896	6099
3399.627	6182
3401.36	6030
3403.09	5963
3404.82	5999
3406.55	6110
3408.279	6015
3410.01	6062
3411.738	6106
3413.467	6069
3415.194	6111
3416.92	6059
3418.647	6045
3420.375	5937
3422.102	6058
3423.827	5902
3425.553	5993
3427.277	6093
3429.003	5943
3430.727	6030
3432.451	6008
3434.173	5885
3435.896	5986
3437.62	5957
3439.343	6018
3441.063	5948
3442.785	6025
3444.505	5885
3446.226	5845
3447.948	6014
3449.666	5803
3451.386	5849
3453.104	5920
3454.823	5841
3456.541	5869
3458.259	5869
3459.976	5918
3461.693	5878
3463.408	5873
3465.125	5869
3466.841	5783
3468.556	5810
3470.271	5828
3471.985	5854
3473.698	5777
3475.414	5782
3477.126	5732
3478.838	5735
3480.55	5797
3482.263	5726
3483.975	5699
3485.686	5689
3487.396	5735
3489.106	5811
3490.817	5654
3492.526	5722
3494.236	5735
3495.944	5720
3497.652	5679
3499.359	5651
3501.066	5631
3502.775	5792
3504.481	5707
3506.187	5651
3507.893	5755
3509.598	5524
3511.304	5646
3513.009	5602
3514.713	5593
3516.417	5614
3518.12	5636
3519.821	5584
3521.525	5626
3523.228	5618
3524.929	5577
3526.631	5534
3528.33	5586
3530.032	5523
3531.733	5632
3533.433	5498
3535.131	5630
3536.83	5370
3538.529	5604
3540.227	5450
3541.925	5542
3543.623	5505
3545.319	5542
3547.016	5518
3548.712	5380
3550.408	5457
3552.103	5431
3553.798	5453
3555.491	5596
3557.188	5460
3558.88	5493
3560.574	5515
3562.266	5422
3563.959	5507
3565.651	5465
3567.343	5465
3569.035	5392
3570.725	5482
3572.415	5398
3574.106	5456
3575.797	5466
3577.485	5494
3579.174	5331
3580.863	5305
3582.551	5349
3584.238	5386
3585.926	5449
3587.613	5331
3589.3	5377
3590.986	5343
3592.671	5327
3594.357	5292
3596.042	5307
3597.726	5284
3599.41	5379
3601.094	5285
3602.778	5220
3604.461	5264
3606.143	5312
3607.825	5330
3609.507	5143
3611.188	5222
3612.87	5258
3614.551	5252
3616.229	5223
3617.909	5268
3619.589	5173
3621.269	5180
3622.948	5143
3624.625	5149
3626.302	5187
3627.98	5240
3629.657	5208
3631.334	5188
3633.01	5211
3634.686	5225
3636.361	5163
3638.036	5161
3639.712	5182
3641.385	5061
3643.06	5150
3644.732	5072
3646.405	5213
3648.08	5127
3649.751	5215
3651.424	5101
3653.094	5178
3654.766	5180
3656.436	5142
3658.106	5106
3659.777	4971
3661.446	5093
3663.115	5114
3664.783	4999
3666.452	5121
3668.121	5088
3669.788	4995
3671.454	5098
3673.121	5009
3674.789	4989
3676.455	5065
3678.12	5022
3679.784	5106
3681.45	5166
3683.114	5046
3684.779	4924
3686.442	5017
3688.105	4878
3689.768	5004
3691.43	5033
3693.093	5009
3694.754	5010
3696.415	5010
3698.076	5040
3699.736	4988
3701.396	4908
3703.057	4964
3704.716	4989
3706.375	4979
3708.034	4944
3709.692	4889
3711.351	4802
3713.008	4965
3714.665	4967
3716.321	5008
3717.977	4916
3719.634	4908
3721.29	4909
3722.945	4928
3724.598	4966
3726.253	4774
3727.907	4841
3729.561	4924
3731.214	4956
3732.867	4832
3734.518	4795
3736.171	4894
3737.824	4840
3739.474	4807
3741.125	4908
3742.775	4939
3744.425	4839
3746.074	4864
3747.725	4775
3749.373	4846
3751.022	4827
3752.669	4757
3754.318	4812
3755.966	4873
3757.612	4893
3759.259	4820
3760.905	4860
3762.55	4888
3764.197	4857
3765.842	4903
3767.486	4767
3769.131	4791
3770.774	4766
3772.417	4677
3774.061	4771
3775.705	4743
3777.347	4744
3778.988	4815
3780.629	4706
3782.271	4772
3783.912	4759
3785.552	4674
3787.192	4747
3788.831	4666
3790.472	4720
3792.112	4755
3793.75	4763
3795.388	4710
3797.024	4672
3798.661	4745
3800.3	4582
3801.936	4592
3803.572	4646
3805.208	4608
3806.844	4648
3808.48	4618
3810.115	4585
3811.748	4585
3813.382	4578
3815.016	4633
3816.649	4577
3818.283	4646
3819.914	4621
3821.547	4539
3823.178	4606
3824.809	4573
3826.441	4659
3828.072	4587
3829.701	4544
3831.331	4704
3832.96	4602
3834.591	4590
3836.219	4516
3837.847	4557
3839.475	4570
3841.102	4553
3842.729	4568
3844.357	4532
3845.984	4564
3847.609	4494
3849.234	4513
3850.86	4498
3852.485	4473
3854.11	4420
3855.734	4513
3857.357	4482
3858.981	4581
3860.603	4488
3862.227	4573
3863.848	4567
3865.471	4576
3867.092	4446
3868.713	4401
3870.334	4483
3871.954	4479
3873.575	4463
3875.194	4477
3876.813	4433
3878.433	4344
3880.051	4521
3881.669	4360
3883.286	4510
3884.904	4545
3886.52	4484
3888.138	4351
3889.754	4388
3891.37	4442
3892.985	4440
3894.6	4440
3896.216	4425
3897.831	4340
3899.444	4402
3901.058	4391
3902.67	4336
3904.283	4393
3905.897	4405
3907.509	4292
3909.121	4402
3910.731	4560
3912.342	4260
3913.954	4406
3915.563	4461
3917.174	4335
3918.783	4405
3920.391	4410
3922.002	4388
3923.611	4381
3925.218	4347
3926.826	4333
3928.432	4281
3930.039	4338
3931.647	4373
3933.253	4306
3934.859	4335
3936.464	4298
3938.068	4301
3939.675	4296
3941.278	4337
3942.883	4363
3944.486	4294
3946.089	4330
3947.692	4294
3949.295	4248
3950.898	4272
3952.499	4250
3954.1	4223
3955.7	4321
3957.303	4239
3958.903	4356
3960.502	4169
3962.101	4287
3963.7	4196
3965.301	4253
3966.899	4214
3968.497	4249
3970.094	4245
3971.691	4232
3973.288	4185
3974.885	4211
3976.481	4238
3978.077	4164
3979.672	4261
3981.267	4201
3982.863	4182
3984.457	4169
3986.051	4127
3987.645	4152
3989.238	4210
3990.831	4143
3992.425	4174
3994.017	4103
3995.607	4135
3997.199	4145
3998.79	4161
4000.382	4055
4001.973	4087
4003.561	4171
4005.151	4089
4006.741	4072
4008.331	4136
4009.918	4075
4011.507	4064
4013.095	4189
4014.681	4026
4016.269	4041
4017.856	4002
4019.443	4047
4021.028	4024
4022.614	4031
4024.199	4021
4025.785	4012
4027.37	4048
4028.953	4007
4030.536	4087
4032.12	3990
4033.704	3951
4035.287	3907
4036.869	4013
4038.45	4016
4040.032	3979
4041.613	3974
4043.195	3944
4044.776	4010
4046.356	3904
4047.935	3992
4049.515	4001
4051.095	4007
4052.674	3974
4054.251	3886
4055.829	3943
4057.406	3927
4058.985	3936
4060.562	3963
4062.139	3865
4063.715	3861
4065.29	3869
4066.865	3931
4068.442	3924
4070.016	3924
4071.59	3937
4073.164	3909
4074.738	3871
4076.312	3884
4077.885	3890
4079.458	3864
4081.03	3911
4082.602	3856
4084.173	3904
4085.745	3799
4087.315	3904
4088.886	3857
4090.456	3852
4092.026	3900
4093.596	3864
4095.165	3867
4096.734	3713
4098.301	3832
4099.869	3898
4101.437	3823
4103.006	3895
4104.572	3800
4106.139	3845
4107.704	3829
4109.27	3784
4110.837	3809
4112.401	3840
4113.966	3782
4115.53	3743
4117.094	3819
4118.659	3784
4120.223	3749
4121.785	3853
4123.347	3773
4124.909	3829
4126.471	3732
4128.034	3703
4129.595	3784
4131.155	3720
4132.716	3694
4134.275	3736
4135.836	3767
4137.395	3709
4138.955	3609
4140.513	3663
4142.071	3734
4143.628	3696
4145.188	3634
4146.745	3683
4148.302	3620
4149.858	3675
4151.414	3603
4152.971	3613
4154.526	3643
4156.081	3672
4157.635	3610
4159.189	3709
4160.745	3644
4162.298	3615
4163.852	3668
4165.405	3640
4166.957	3598
4168.51	3588
4170.063	3599
4171.614	3550
4173.166	3633
4174.717	3601
4176.267	3605
4177.817	3585
4179.368	3627
4180.917	3550
4182.466	3607
4184.016	3630
4185.564	3526
4187.112	3591
4188.66	3553
4190.207	3478
4191.754	3516
4193.301	3564
4194.848	3527
4196.394	3556
4197.94	3548
4199.484	3581
4201.03	3510
4202.575	3530
4204.12	3469
4205.663	3645
4207.207	3402
4208.75	3458
4210.292	3518
4211.836	3483
4213.378	3420
4214.92	3518
4216.46	3444
4218.002	3474
4219.544	3490
4221.083	3499
4222.625	3494
4224.164	3578
4225.703	3471
4227.244	3446
4228.782	3427
4230.32	3426
4231.857	3479
4233.395	3440
4234.933	3431
4236.471	3460
4238.007	3387
4239.542	3438
4241.078	3523
4242.614	3436
4244.15	3417
4245.685	3455
4247.219	3374
4248.753	3458
4250.287	3425
4251.82	3442
4253.354	3421
4254.887	3464
4256.419	3422
4257.951	3442
4259.483	3422
4261.016	3429
4262.547	3438
4264.078	3434
4265.608	3397
4267.137	3437
4268.668	3356
4270.197	3377
4271.727	3412
4273.254	3334
4274.783	3354
4276.311	3344
4277.84	3286
4279.366	3355
4280.894	3352
4282.42	3368
4283.946	3355
4285.473	3366
4286.998	3315
4288.523	3338
4290.047	3331
4291.572	3308
4293.096	3280
4294.622	3341
4296.144	3239
4297.668	3267
4299.19	3285
4300.713	3291
4302.236	3313
4303.758	3271
4305.279	3335
4306.799	3260
4308.321	3265
4309.842	3310
4311.361	3249
4312.882	3289
4314.401	3288
