400.0961	3818
402.6185	3687
405.1424	3689
407.6635	3720
410.1838	3834
412.7035	3760
415.2225	3829
417.7388	3780
420.2585	3817
422.7754	3844
425.2917	3861
427.8072	3894
430.3221	3887
432.8363	3862
435.3498	3926
437.8626	3982
440.3727	3981
442.8841	4046
445.3969	3976
447.907	3963
450.4142	3956
452.9229	3963
455.4289	3970
457.9362	3924
460.4449	3945
462.9488	4003
465.454	3926
467.9566	3999
470.4604	3956
472.9637	3924
475.4662	3988
477.966	3989
480.4671	3948
482.9656	3950
485.4633	4062
487.9645	4065
490.4608	4012
492.9566	4103
495.4536	4114
497.948	4071
500.4437	4061
502.9387	4126
505.431	4174
507.9226	4161
510.4136	4068
512.9079	4046
515.3975	4146
517.8864	4180
520.3746	3997
522.8622	4072
525.3491	4081
527.8394	4147
530.3249	4153
532.8098	4167
535.2939	4150
537.7774	4149
540.2623	4138
542.7444	4168
545.2259	4126
547.7067	4170
550.1868	4123
552.6683	4049
555.147	4182
557.6231	4151
560.1005	4236
562.5773	4109
565.0534	4157
567.5308	4214
570.0056	4212
572.4776	4227
574.951	4229
577.4237	4306
579.8978	4264
582.3671	4263
584.8378	4204
587.3079	4293
589.7773	4248
592.244	4270
594.714	4229
597.1793	4276
599.6461	4265
602.1121	4204
604.5754	4169
607.0421	4175
609.5042	4300
611.9675	4146
614.4282	4267
616.8902	4344
619.3515	4307
621.8122	4281
624.2702	4263
626.7296	4286
629.1863	4296
631.6423	4270
634.1017	4250
636.5563	4316
639.0104	4225
641.4658	4268
643.9185	4251
646.3725	4250
648.8239	4255
651.2766	4320
653.7266	4400
656.176	4346
658.6247	4386
661.0748	4456
663.5242	4401
665.9709	4296
668.417	4344
670.8624	4325
673.3092	4362
675.7533	4397
678.1968	4366
680.6395	4418
683.0817	4489
685.5251	4326
687.9659	4442
690.4061	4447
692.8456	4535
695.2844	4488
697.7226	4486
700.1621	4486
702.599	4414
705.0332	4427
707.4688	4541
709.9036	4601
712.3399	4565
714.7735	4509
717.2044	4487
719.6367	4532
722.0683	4539
724.4993	4532
726.9296	4638
729.3593	4582
731.7883	4625
734.2147	4582
736.6423	4443
739.0714	4585
741.4958	4605
743.9216	4596
746.3447	4676
748.7691	4554
751.1929	4663
753.616	4670
756.0366	4641
758.4584	4735
760.8776	4733
763.2982	4791
765.718	4682
768.1373	4679
770.5539	4771
772.9698	4783
775.3871	4841
777.8038	4740
780.2178	4761
782.6332	4809
785.0459	4795
787.458	4682
789.8714	4710
792.2842	4775
794.6943	4681
797.1038	4833
799.5127	4618
801.9209	4727
804.3324	4726
806.7393	4709
809.1456	4812
811.5513	4752
813.9562	4750
816.3625	4840
818.7663	4698
821.1693	4869
823.5718	4869
825.9735	4864
828.3746	4773
830.7771	4771
833.177	4856
835.5762	4905
837.9747	4787
840.3727	4780
842.772	4911
845.1666	4883
847.5626	4919
849.958	4922
852.3527	4921
854.7488	4865
857.1403	4927
859.5331	4937
861.9253	4859
864.3168	5078
866.7057	4849
869.098	4849
871.4876	4927
873.8746	4942
876.263	4852
878.6487	4832
881.0378	4941
883.4243	5001
885.8081	4859
888.1933	4821
890.5759	4874
892.9598	4890
895.343	4907
897.7256	4805
900.1057	4955
902.4871	4918
904.8659	5039
907.246	4900
909.6254	4898
912.0023	4969
914.3786	5052
916.7562	5282
919.1331	5287
921.5074	5405
923.8831	5329
926.2562	5428
928.6287	5431
931.0005	5236
933.3757	5209
935.7462	5105
938.1162	5230
940.4855	5273
942.8542	5164
945.2242	5256
947.5916	5263
949.9584	5215
952.3266	5242
954.6921	5341
957.0571	5351
959.4233	5392
961.787	5513
964.15	5340
966.5125	5341
968.8742	5264
971.2354	5245
973.5959	5200
975.9559	5263
978.3151	5217
980.6738	5211
983.0338	5139
985.3912	5093
987.7461	5075
990.1022	5165
992.4578	4960
994.8127	5206
997.1689	5124
999.5207	5069
1001.874	5116
1004.226	5156
1006.576	4942
1008.929	5062
1011.28	5103
1013.628	4999
1015.977	5100
1018.324	5051
1020.674	5087
1023.019	5059
1025.366	5097
1027.713	5155
1030.056	5095
1032.399	5052
1034.746	5172
1037.087	5169
1039.431	5161
1041.771	5148
1044.113	5107
1046.454	5016
1048.793	5066
1051.133	5145
1053.471	5170
1055.807	5124
1058.146	5115
1060.483	5124
1062.818	5146
1065.153	5103
1067.489	5124
1069.822	5187
1072.156	5223
1074.488	5241
1076.82	5155
1079.15	5150
1081.48	5035
1083.814	5198
1086.143	5199
1088.471	5126
1090.799	5230
1093.126	5129
1095.452	5231
1097.78	5137
1100.105	5244
1102.43	5171
1104.754	5117
1107.077	5191
1109.4	5284
1111.722	5276
1114.044	5386
1116.365	5181
1118.685	5293
1121.005	5257
1123.324	5297
1125.643	5337
1127.961	5381
1130.278	5301
1132.595	5318
1134.911	5228
1137.226	5240
1139.541	5197
1141.854	5206
1144.167	5218
1146.482	5160
1148.793	5232
1151.105	5236
1153.414	5291
1155.725	5184
1158.033	5245
1160.344	5334
1162.651	5290
1164.959	5233
1167.265	5181
1169.572	5237
1171.878	5197
1174.184	5231
1176.488	5269
1178.79	5335
1181.094	5374
1183.396	5351
1185.699	5335
1188.001	5297
1190.301	5214
1192.6	5247
1194.9	5254
1197.2	5265
1199.497	5297
1201.794	5303
1204.09	5254
1206.387	5331
1208.684	5265
1210.978	5280
1213.272	5266
1215.565	5323
1217.858	5323
1220.15	5236
1222.443	5282
1224.734	5358
1227.024	5427
1229.313	5238
1231.602	5424
1233.892	5352
1236.18	5453
1238.467	5387
1240.754	5454
1243.04	5395
1245.325	5521
1247.612	5506
1249.896	5605
1252.178	5683
1254.461	5488
1256.743	5558
1259.027	5570
1261.308	5487
1263.587	5571
1265.867	5474
1268.146	5538
1270.425	5542
1272.703	5549
1274.981	5673
1277.256	5506
1279.532	5542
1281.808	5515
1284.083	5558
1286.358	5510
1288.63	5380
1290.904	5387
1293.175	5446
1295.449	5434
1297.719	5519
1299.99	5426
1302.259	5464
1304.529	5524
1306.798	5504
1309.065	5498
1311.333	5494
1313.599	5523
1315.866	5563
1318.131	5580
1320.396	5428
1322.66	5405
1324.925	5481
1327.187	5480
1329.448	5449
1331.711	5549
1333.974	5716
1336.234	5561
1338.493	5546
1340.752	5574
1343.01	5337
1345.269	5454
1347.526	5496
1349.784	5521
1352.04	5434
1354.295	5461
1356.552	5432
1358.806	5441
1361.059	5394
1363.312	5501
1365.564	5451
1367.818	5444
1370.069	5544
1372.318	5477
1374.568	5434
1376.817	5598
1379.066	5443
1381.316	5454
1383.564	5499
1385.809	5550
1388.056	5559
1390.301	5622
1392.549	5561
1394.793	5811
1397.036	5933
1399.279	5882
1401.522	5840
1403.763	5927
1406.007	5828
1408.248	5703
1410.487	5922
1412.727	5896
1414.965	5739
1417.205	5771
1419.442	5755
1421.68	5723
1423.915	5664
1426.152	5733
1428.388	5664
1430.623	5612
1432.857	5786
1435.091	5790
1437.323	5868
1439.556	5885
1441.789	5743
1444.019	5856
1446.25	5843
1448.48	5726
1450.708	5843
1452.938	5983
1455.167	5965
1457.394	5925
1459.62	5913
1461.846	5914
1464.073	5850
1466.299	5803
1468.523	5828
1470.746	5720
1472.969	5718
1475.191	5658
1477.415	5642
1479.636	5540
1481.858	5477
1484.078	5512
1486.298	5549
1488.518	5536
1490.736	5465
1492.954	5468
1495.169	5419
1497.386	5427
1499.602	5444
1501.819	5513
1504.034	5366
1506.248	5415
1508.462	5448
1510.675	5396
1512.888	5479
1515.1	5420
1517.311	5444
1519.522	5366
1521.732	5443
1523.942	5529
1526.151	5438
1528.36	5489
1530.566	5525
1532.773	5429
1534.98	5490
1537.187	5549
1539.392	5424
1541.596	5425
1543.801	5361
1546.005	5490
1548.208	5504
1550.411	5513
1552.612	5497
1554.814	5476
1557.013	5450
1559.212	5556
1561.414	5562
1563.612	5525
1565.811	5448
1568.007	5536
1570.203	5657
1572.403	5520
1574.598	5572
1576.792	5493
1578.988	5555
1581.181	5611
1583.376	5660
1585.568	5641
1587.761	5571
1589.952	5590
1592.143	5617
1594.333	5635
1596.524	5484
1598.715	5607
1600.903	5725
1603.091	5673
1605.278	5628
1607.466	5730
1609.652	5621
1611.838	5684
1614.023	5606
1616.207	5492
1618.391	5625
1620.576	5759
1622.759	5677
1624.941	5715
1627.123	5621
1629.304	5830
1631.484	5764
1633.664	5747
1635.844	5680
1638.022	5746
1640.201	5769
1642.38	5743
1644.556	5875
1646.732	5749
1648.908	5766
1651.084	5800
1653.257	5820
1655.433	5726
1657.607	5851
1659.779	5776
1661.951	5808
1664.122	5863
1666.295	5833
1668.467	5651
1670.635	5858
1672.805	5731
1674.973	5715
1677.142	5805
1679.31	5805
1681.478	5746
1683.644	5655
1685.81	5827
1687.975	5716
1690.142	5753
1692.305	5679
1694.468	5734
1696.632	5672
1698.794	5604
1700.957	5618
1703.119	5579
1705.279	5548
1707.439	5623
1709.598	5602
1711.758	5551
1713.917	5642
1716.075	5635
1718.231	5639
1720.388	5562
1722.543	5669
1724.702	5696
1726.856	5687
1729.01	5670
1731.164	5469
1733.317	5618
1735.471	5579
1737.623	5626
1739.774	5629
1741.925	5712
1744.075	5614
1746.225	5516
1748.376	5590
1750.524	5607
1752.672	5596
1754.82	5650
1756.965	5687
1759.113	5623
1761.259	5713
1763.405	5592
1765.549	5600
1767.694	5610
1769.836	5651
1771.981	5652
1774.123	5793
1776.264	5619
1778.405	5669
1780.546	5660
1782.687	5646
1784.827	5636
1786.966	5568
1789.103	5677
1791.242	5682
1793.381	5608
1795.517	5687
1797.653	5709
1799.788	5684
1801.923	5584
1804.057	5643
1806.193	5715
1808.326	5638
1810.457	5677
1812.59	5670
1814.721	5712
1816.855	5626
1818.984	5634
1821.113	5555
1823.244	5672
1825.372	5722
1827.499	5596
1829.63	5681
1831.756	5620
1833.882	5697
1836.007	5661
1838.132	5641
1840.26	5690
1842.384	5574
1844.507	5582
1846.63	5521
1848.752	5628
1850.875	5575
1852.996	5621
1855.118	5585
1857.238	5589
1859.358	5654
1861.477	5600
1863.597	5520
1865.715	5585
1867.832	5548
1869.948	5647
1872.064	5591
1874.181	5638
1876.297	5571
1878.411	5586
1880.526	5625
1882.639	5633
1884.752	5546
1886.865	5636
1888.977	5578
1891.089	5708
1893.2	5733
1895.308	5663
1897.42	5606
1899.53	5685
1901.639	5603
1903.745	5485
1905.853	5808
1907.962	5591
1910.067	5660
1912.174	5692
1914.278	5761
1916.383	5684
1918.486	5566
1920.592	5743
1922.694	5668
1924.797	5671
1926.898	5713
1929	5633
1931.102	5695
1933.203	5670
1935.301	5788
1937.401	5734
1939.499	5717
1941.598	5658
1943.697	5692
1945.793	5719
1947.888	5649
1949.985	5747
1952.08	5676
1954.176	5755
1956.269	5665
1958.364	5710
1960.457	5717
1962.549	5661
1964.642	5718
1966.733	5687
1968.823	5745
1970.913	5595
1973.005	5721
1975.093	5714
1977.184	5640
1979.271	5651
1981.359	5679
1983.446	5617
1985.532	5652
1987.619	5638
1989.705	5662
1991.789	5494
1993.874	5730
1995.956	5686
1998.041	5603
2000.123	5643
2002.206	5615
2004.287	5603
2006.368	5595
2008.449	5733
2010.529	5564
2012.609	5574
2014.688	5612
2016.766	5692
2018.843	5612
2020.922	5578
2022.999	5545
2025.074	5566
2027.15	5632
2029.225	5713
2031.299	5627
2033.375	5617
2035.447	5666
2037.52	5678
2039.592	5631
2041.664	5634
2043.736	5599
2045.807	5595
2047.876	5624
2049.947	5674
2052.015	5665
2054.086	5654
2056.153	5574
2058.221	5672
2060.288	5534
2062.353	5591
2064.42	5658
2066.486	5605
2068.55	5597
2070.614	5548
2072.678	5718
2074.741	5629
2076.805	5592
2078.866	5689
2080.929	5673
2082.99	5689
2085.049	5716
2087.109	5604
2089.17	5571
2091.228	5646
2093.286	5682
2095.344	5701
2097.4	5646
2099.46	5514
2101.516	5560
2103.572	5622
2105.626	5606
2107.679	5677
2109.735	5655
2111.788	5557
2113.841	5638
2115.894	5620
2117.945	5658
2119.997	5570
2122.049	5659
2124.1	5580
2126.148	5622
2128.197	5678
2130.246	5582
2132.296	5495
2134.342	5723
2136.39	5608
2138.437	5522
2140.483	5684
2142.527	5450
2144.574	5592
2146.619	5579
2148.661	5537
2150.705	5534
2152.747	5684
2154.792	5555
2156.832	5602
2158.874	5487
2160.915	5543
2162.954	5526
2164.995	5557
2167.034	5625
2169.072	5376
2171.111	5565
2173.148	5630
2175.186	5565
2177.223	5549
2179.258	5480
2181.294	5605
2183.328	5530
2185.362	5601
2187.398	5550
2189.431	5548
2191.463	5471
2193.495	5526
2195.528	5508
2197.56	5423
2199.59	5485
2201.62	5505
2203.649	5313
2205.678	5433
2207.708	5538
2209.737	5569
2211.764	5580
2213.791	5488
2215.817	5437
2217.843	5428
2219.87	5464
2221.895	5454
2223.919	5504
2225.942	5476
2227.966	5551
2229.988	5458
2232.012	5481
2234.032	5463
2236.054	5528
2238.074	5437
2240.095	5560
2242.116	5428
2244.135	5456
2246.153	5598
2248.171	5486
2250.188	5457
2252.208	5422
2254.223	5525
2256.239	5398
2258.255	5469
2260.269	5500
2262.283	5371
2264.3	5521
2266.312	5439
2268.325	5484
2270.336	5393
2272.349	5423
2274.362	5322
2276.372	5430
2278.383	5423
2280.392	5488
2282.402	5534
2284.409	5435
2286.418	5373
2288.427	5497
2290.433	5386
2292.441	5565
2294.446	5416
2296.453	5384
2298.459	5340
2300.463	5413
2302.466	5405
2304.471	5467
2306.475	5452
2308.477	5525
2310.478	5347
2312.481	5477
2314.481	5349
2316.481	5381
2318.482	5467
2320.482	5456
2322.48	5403
2324.48	5407
2326.478	5371
2328.476	5298
2330.473	5410
2332.469	5269
2334.465	5416
2336.46	5378
2338.454	5379
2340.45	5300
2342.444	5291
2344.437	5384
2346.43	5367
2348.421	5358
2350.414	5343
2352.405	5330
2354.396	5354
2356.386	5372
2358.376	5406
2360.366	5383
2362.355	5352
2364.343	5373
2366.331	5345
2368.317	5353
2370.304	5279
2372.292	5380
2374.278	5155
2376.262	5388
2378.247	5209
2380.23	5382
2382.216	5246
2384.199	5253
2386.181	5321
2388.163	5280
2390.144	5247
2392.127	5277
2394.107	5259
2396.087	5376
2398.066	5296
2400.046	5319
2402.023	5209
2404.004	5191
2405.981	5252
2407.957	5361
2409.934	5214
2411.91	5206
2413.886	5268
2415.862	5311
2417.836	5338
2419.809	5298
2421.784	5300
2423.756	5217
2425.73	5205
2427.701	5309
2429.672	5290
2431.644	5250
2433.615	5214
2435.586	5192
2437.555	5218
2439.523	5199
2441.491	5247
2443.459	5303
2445.428	5309
2447.395	5180
2449.361	5272
2451.327	5191
2453.292	5233
2455.257	5215
2457.223	5168
2459.187	5259
2461.15	5222
2463.113	5237
2465.076	5173
2467.039	5091
2468.999	5273
2470.96	5088
2472.921	5139
2474.881	5247
2476.841	5153
2478.8	5166
2480.759	5219
2482.717	5234
2484.675	5238
2486.63	5099
2488.589	5135
2490.545	5194
2492.5	5163
2494.455	5108
2496.408	5237
2498.364	5142
2500.318	5144
2502.27	5147
2504.223	5181
2506.174	5236
2508.126	5174
2510.078	5104
2512.03	5143
2513.979	5219
2515.927	5059
2517.877	5181
2519.826	5088
2521.775	5143
2523.722	5153
2525.668	5101
2527.616	5192
2529.561	5096
2531.508	5038
2533.452	5216
2535.398	5054
2537.342	5089
2539.284	5079
2541.229	5140
2543.173	5105
2545.114	5163
2547.055	5103
2548.996	5154
2550.938	5232
2552.878	5097
2554.817	5151
2556.756	5046
2558.695	5078
2560.633	5136
2562.572	5225
2564.509	5176
2566.445	5039
2568.382	5184
2570.317	5065
2572.254	5048
2574.189	5124
2576.123	5104
2578.057	5081
2579.99	5068
2581.923	5182
2583.855	5067
2585.788	5133
2587.719	5011
2589.65	5173
2591.579	5029
2593.511	5042
2595.44	5167
2597.37	5102
2599.297	5186
2601.225	5077
2603.153	5062
2605.08	5131
2607.007	5089
2608.932	5100
2610.858	5094
2612.782	5123
2614.709	5175
2616.632	5070
2618.556	5196
2620.478	5125
2622.401	5148
2624.324	5057
2626.247	5112
2628.167	5175
2630.088	5083
2632.008	5214
2633.928	5021
2635.848	5127
2637.766	4984
2639.684	5066
2641.603	5113
2643.519	5074
2645.437	5067
2647.353	5124
2649.27	5067
2651.184	5110
2653.099	5141
2655.014	5113
2656.928	5109
2658.842	5105
2660.755	5122
2662.667	5182
2664.579	5042
2666.491	5070
2668.402	5169
2670.312	5090
2672.222	5124
2674.132	5094
2676.042	5091
2677.951	5019
2679.859	5145
2681.766	4966
2683.674	5045
2685.582	4991
2687.488	5033
2689.392	5059
2691.298	4997
2693.202	5105
2695.107	5030
2697.012	5094
2698.914	5035
2700.817	5182
2702.72	5066
2704.622	4931
2706.524	5064
2708.425	4941
2710.326	5013
2712.225	5083
2714.125	4999
2716.024	5007
2717.923	5010
2719.822	4925
2721.719	5086
2723.616	5033
2725.512	5046
2727.41	5015
2729.305	5089
2731.201	4952
2733.095	5078
2734.99	5167
2736.884	4971
2738.778	5022
2740.67	5035
2742.562	5090
2744.455	5050
2746.346	4989
2748.238	5032
2750.129	5012
2752.018	5016
2753.907	4889
2755.797	4997
2757.687	4982
2759.575	4958
2761.462	4959
2763.349	4967
2765.237	4943
2767.124	4901
2769.009	4994
2770.894	5017
2772.779	4981
2774.663	4986
2776.547	4993
2778.431	4929
2780.314	4913
2782.197	4987
2784.078	4990
2785.96	5052
2787.842	4969
2789.723	4992
2791.603	5006
2793.483	4972
2795.362	5075
2797.241	4891
2799.121	4884
2800.997	4912
2802.874	4955
2804.751	4910
2806.628	4928
2808.506	5035
2810.38	4875
2812.255	4922
2814.13	4898
2816.003	4913
2817.878	5002
2819.752	4944
2821.623	4953
2823.496	4838
2825.368	4930
2827.238	4938
2829.111	4964
2830.98	5025
2832.851	4913
2834.719	5000
2836.589	4987
2838.458	5001
2840.327	4975
2842.193	5090
2844.061	5059
2845.927	5088
2847.794	5049
2849.66	5030
2851.525	5142
2853.39	5119
2855.254	5111
2857.117	5074
2858.983	5204
2860.845	5166
2862.707	5190
2864.569	5174
2866.431	5242
2868.293	5228
2870.154	5351
2872.013	5268
2873.873	5309
2875.733	5449
2877.592	5346
2879.451	5542
2881.309	5524
2883.166	5651
2885.022	5516
2886.879	5622
2888.736	5642
2890.591	5651
2892.446	5669
2894.301	5653
2896.155	5754
2898.009	5719
2899.863	5748
2901.716	5592
2903.568	5671
2905.419	5681
2907.27	5619
2909.123	5578
2910.973	5685
2912.824	5679
2914.673	5642
2916.521	5724
2918.372	5697
2920.22	5790
2922.067	5808
2923.914	5953
2925.761	5903
2927.607	5849
2929.455	5959
2931.301	6027
2933.144	5990
2934.99	5908
2936.833	6034
2938.678	6088
2940.522	6204
2942.364	6200
2944.207	6221
2946.048	6387
2947.891	6701
2949.731	6590
2951.571	6692
2953.412	6775
2955.25	6636
2957.09	6486
2958.93	6536
2960.767	6473
2962.606	6487
2964.443	6510
2966.279	6360
2968.116	6220
2969.953	6066
2971.788	5970
2973.623	5848
2975.457	5816
2977.292	5785
2979.127	5689
2980.959	5548
2982.792	5515
2984.624	5538
2986.455	5542
2988.288	5441
2990.119	5489
2991.949	5371
2993.779	5341
2995.608	5425
2997.439	5227
2999.268	5218
3001.096	5163
3002.923	5063
3004.751	5137
3006.578	5030
3008.406	4924
3010.232	4913
3012.057	4913
3013.883	4858
3015.706	4921
3017.532	4849
3019.356	4846
3021.179	4934
3023.002	4822
3024.823	4738
3026.646	4756
3028.469	4776
3030.289	4761
3032.11	4685
3033.93	4758
3035.749	4700
3037.57	4713
3039.39	4697
3041.207	4684
3043.026	4711
3044.842	4830
3046.661	4708
3048.477	4723
3050.294	4725
3052.109	4674
3053.925	4780
3055.739	4684
3057.555	4718
3059.368	4664
3061.181	4692
3062.995	4635
3064.807	4658
3066.62	4654
3068.433	4641
3070.243	4680
3072.054	4682
3073.865	4708
3075.675	4584
3077.485	4631
3079.293	4596
3081.102	4610
3082.911	4638
3084.719	4590
3086.527	4632
3088.333	4532
3090.139	4574
3091.945	4608
3093.75	4537
3095.557	4503
3097.361	4550
3099.165	4483
3100.969	4490
3102.772	4462
3104.575	4477
3106.379	4575
3108.181	4474
3109.982	4533
3111.783	4453
3113.584	4550
3115.386	4485
3117.186	4447
3118.985	4546
3120.783	4459
3122.582	4458
3124.381	4422
3126.179	4435
3127.975	4457
3129.772	4399
3131.569	4532
3133.365	4371
3135.161	4462
3136.956	4520
3138.751	4511
3140.544	4388
3142.338	4394
3144.132	4471
3145.925	4472
3147.717	4389
3149.509	4419
3151.301	4403
3153.091	4405
3154.884	4441
3156.673	4406
3158.462	4424
3160.252	4306
3162.041	4331
3163.831	4381
3165.618	4353
3167.405	4332
3169.193	4401
3170.979	4332
3172.767	4298
3174.553	4333
3176.338	4338
3178.123	4312
3179.907	4342
3181.692	4347
3183.477	4315
3185.259	4307
3187.042	4285
3188.824	4295
3190.607	4372
3192.389	4364
3194.17	4302
3195.951	4414
3197.73	4253
3199.51	4362
3201.289	4362
3203.07	4263
3204.848	4302
3206.626	4338
3208.403	4310
3210.18	4348
3211.959	4293
3213.735	4289
3215.511	4307
3217.285	4374
3219.06	4420
3220.836	4317
3222.611	4367
3224.384	4273
3226.158	4311
3227.929	4317
3229.702	4297
3231.476	4253
3233.248	4239
3235.018	4285
3236.789	4316
3238.56	4237
3240.33	4333
3242.1	4334
3243.869	4216
3245.637	4335
3247.405	4356
3249.172	4295
3250.941	4368
3252.707	4358
3254.474	4357
3256.24	4308
3258.006	4227
3259.772	4286
3261.537	4315
3263.301	4377
3265.065	4227
3266.828	4257
3268.592	4205
3270.355	4279
3272.117	4276
3273.878	4243
3275.64	4305
3277.401	4248
3279.162	4327
3280.922	4368
3282.682	4357
3284.441	4227
3286.199	4229
3287.959	4331
3289.716	4259
3291.475	4305
3293.232	4270
3294.988	4277
3296.744	4230
3298.501	4155
3300.256	4172
3302.011	4330
3303.766	4240
3305.52	4273
3307.275	4316
3309.028	4210
3310.781	4273
3312.533	4254
3314.285	4314
3316.038	4251
3317.789	4251
3319.54	4271
3321.289	4179
3323.039	4258
3324.789	4275
3326.539	4286
3328.288	4268
3330.035	4274
3331.783	4200
3333.531	4312
3335.28	4209
3337.025	4204
3338.771	4262
3340.518	4188
3342.262	4240
3344.009	4218
3345.753	4250
3347.497	4231
3349.24	4179
3350.983	4150
3352.726	4260
3354.469	4143
3356.212	4163
3357.952	4151
3359.694	4187
3361.434	4281
3363.176	4125
3364.916	4182
3366.654	4114
3368.394	4171
3370.132	4164
3371.871	4160
3373.61	4129
3375.346	4137
3377.083	4184
3378.82	4186
3380.556	4118
3382.292	4098
3384.027	4079
3385.763	4011
3387.497	4152
3389.231	4054
3390.965	4197
3392.698	4056
3394.431	4041
3396.164	4164
3397.896	4133
3399.627	4105
3401.36	4001
3403.09	4070
3404.82	4035
3406.55	4079
3408.279	4052
3410.01	4066
3411.738	4065
3413.467	4072
3415.194	4012
3416.92	3929
3418.647	4086
3420.375	3916
3422.102	4033
3423.827	4001
3425.553	4028
3427.277	3976
3429.003	3946
3430.727	3991
3432.451	3980
3434.173	3933
3435.896	3895
3437.62	3982
3439.343	3997
3441.063	3996
3442.785	4001
3444.505	3911
3446.226	3945
3447.948	3823
3449.666	3851
3451.386	3935
3453.104	3902
3454.823	4008
3456.541	3938
3458.259	3823
3459.976	3865
3461.693	3909
3463.408	3999
3465.125	3956
3466.841	3895
3468.556	3795
3470.271	3884
3471.985	3915
3473.698	3837
3475.414	3869
3477.126	3836
3478.838	3813
3480.55	3804
3482.263	3780
3483.975	3853
3485.686	3846
3487.396	3760
3489.106	3877
3490.817	3799
3492.526	3862
3494.236	3796
3495.944	3775
3497.652	3731
3499.359	3764
3501.066	3794
3502.775	3754
3504.481	3821
3506.187	3823
3507.893	3738
3509.598	3751
3511.304	3748
3513.009	3746
3514.713	3728
3516.417	3697
3518.12	3801
3519.821	3716
3521.525	3743
3523.228	3727
3524.929	3677
3526.631	3698
3528.33	3716
3530.032	3651
3531.733	3681
3533.433	3640
3535.131	3648
3536.83	3682
3538.529	3631
3540.227	3739
3541.925	3649
3543.623	3665
3545.319	3566
3547.016	3708
3548.712	3734
3550.408	3609
3552.103	3733
3553.798	3599
3555.491	3670
3557.188	3589
3558.88	3694
3560.574	3582
3562.266	3637
3563.959	3658
3565.651	3634
3567.343	3689
3569.035	3594
3570.725	3652
3572.415	3637
3574.106	3573
3575.797	3560
3577.485	3531
3579.174	3542
3580.863	3542
3582.551	3604
3584.238	3573
3585.926	3585
3587.613	3530
3589.3	3569
3590.986	3543
3592.671	3492
3594.357	3473
3596.042	3472
3597.726	3511
3599.41	3550
3601.094	3441
3602.778	3435
3604.461	3486
3606.143	3475
3607.825	3442
3609.507	3426
3611.188	3514
3612.87	3481
3614.551	3490
3616.229	3516
3617.909	3446
3619.589	3407
3621.269	3463
3622.948	3381
3624.625	3419
3626.302	3404
3627.98	3424
3629.657	3385
3631.334	3431
3633.01	3436
3634.686	3442
3636.361	3357
3638.036	3339
3639.712	3358
3641.385	3400
3643.06	3359
3644.732	3388
3646.405	3392
3648.08	3306
3649.751	3361
3651.424	3405
3653.094	3339
3654.766	3384
3656.436	3381
3658.106	3362
3659.777	3288
3661.446	3324
3663.115	3364
3664.783	3269
3666.452	3243
3668.121	3293
3669.788	3364
3671.454	3297
3673.121	3324
3674.789	3282
3676.455	3319
3678.12	3313
3679.784	3334
3681.45	3368
3683.114	3315
3684.779	3318
3686.442	3288
3688.105	3267
3689.768	3279
3691.43	3317
3693.093	3272
3694.754	3301
3696.415	3259
3698.076	3228
3699.736	3241
3701.396	3193
3703.057	3243
3704.716	3317
3706.375	3261
3708.034	3295
3709.692	3306
3711.351	3298
3713.008	3311
3714.665	3279
3716.321	3203
3717.977	3244
3719.634	3224
3721.29	3253
3722.945	3230
3724.598	3223
3726.253	3196
3727.907	3221
3729.561	3215
3731.214	3226
3732.867	3250
3734.518	3194
3736.171	3156
3737.824	3219
3739.474	3270
3741.125	3171
3742.775	3233
3744.425	3162
3746.074	3242
3747.725	3097
3749.373	3203
3751.022	3113
3752.669	3218
3754.318	3165
3755.966	3146
3757.612	3182
3759.259	3144
3760.905	3205
3762.55	3167
3764.197	3116
3765.842	3131
3767.486	3139
3769.131	3139
3770.774	3249
3772.417	3168
3774.061	3123
3775.705	3173
3777.347	3137
3778.988	3119
3780.629	3200
3782.271	3135
3783.912	3062
3785.552	3169
3787.192	3097
3788.831	3120
3790.472	3122
3792.112	3087
3793.75	3026
3795.388	3088
3797.024	3052
3798.661	3106
3800.3	3089
3801.936	3046
3803.572	3087
3805.208	3053
3806.844	3058
3808.48	3161
3810.115	3018
3811.748	3074
3813.382	3048
3815.016	3061
3816.649	3020
3818.283	3062
3819.914	3109
3821.547	3085
3823.178	3055
3824.809	3124
3826.441	3021
3828.072	3119
3829.701	3045
3831.331	3032
3832.96	3109
3834.591	3042
3836.219	2999
3837.847	3015
3839.475	3074
3841.102	3040
3842.729	3003
3844.357	3038
3845.984	2998
3847.609	3028
3849.234	3082
3850.86	3053
3852.485	2992
3854.11	3070
3855.734	2989
3857.357	2963
3858.981	2957
3860.603	2992
3862.227	2996
3863.848	2931
3865.471	2937
3867.092	2956
3868.713	2972
3870.334	2938
3871.954	2963
3873.575	2975
3875.194	2932
3876.813	2904
3878.433	2949
3880.051	2887
3881.669	2992
3883.286	2921
3884.904	2927
3886.52	2870
3888.138	2923
3889.754	2940
3891.37	2967
3892.985	2914
3894.6	2957
3896.216	2975
3897.831	2908
3899.444	2878
3901.058	3010
3902.67	2879
3904.283	2915
3905.897	2873
3907.509	2921
3909.121	2911
3910.731	2945
3912.342	2913
3913.954	2884
3915.563	2919
3917.174	2908
3918.783	2919
3920.391	2998
3922.002	2920
3923.611	2871
3925.218	2893
3926.826	2937
3928.432	2980
3930.039	2841
3931.647	2868
3933.253	2854
3934.859	2901
3936.464	2850
3938.068	2878
3939.675	2945
3941.278	2812
3942.883	2850
3944.486	2883
3946.089	2804
3947.692	2821
3949.295	2891
3950.898	2844
3952.499	2831
3954.1	2867
3955.7	2787
3957.303	2836
3958.903	2791
3960.502	2795
3962.101	2803
3963.7	2846
3965.301	2800
3966.899	2768
3968.497	2816
3970.094	2815
3971.691	2822
3973.288	2792
3974.885	2811
3976.481	2842
3978.077	2773
3979.672	2820
3981.267	2786
3982.863	2807
3984.457	2800
3986.051	2737
3987.645	2809
3989.238	2806
3990.831	2780
3992.425	2737
3994.017	2762
3995.607	2719
3997.199	2721
3998.79	2713
4000.382	2733
4001.973	2799
4003.561	2780
4005.151	2699
4006.741	2719
4008.331	2744
4009.918	2717
4011.507	2767
4013.095	2814
4014.681	2695
4016.269	2768
4017.856	2720
4019.443	2752
4021.028	2740
4022.614	2692
4024.199	2660
4025.785	2730
4027.37	2688
4028.953	2734
4030.536	2657
4032.12	2699
4033.704	2693
4035.287	2609
4036.869	2674
4038.45	2673
4040.032	2685
4041.613	2693
4043.195	2648
4044.776	2685
4046.356	2643
4047.935	2670
4049.515	2670
4051.095	2664
4052.674	2643
4054.251	2649
4055.829	2698
4057.406	2615
4058.985	2575
4060.562	2576
4062.139	2688
4063.715	2603
4065.29	2664
4066.865	2571
4068.442	2575
4070.016	2666
4071.59	2608
4073.164	2645
4074.738	2644
4076.312	2612
4077.885	2568
4079.458	2619
4081.03	2607
4082.602	2647
4084.173	2598
4085.745	2591
4087.315	2566
4088.886	2582
4090.456	2557
4092.026	2502
4093.596	2621
4095.165	2549
4096.734	2606
4098.301	2574
4099.869	2532
4101.437	2532
4103.006	2609
4104.572	2517
4106.139	2508
4107.704	2596
4109.27	2604
4110.837	2560
4112.401	2545
4113.966	2547
4115.53	2533
4117.094	2641
4118.659	2504
4120.223	2546
4121.785	2533
4123.347	2519
4124.909	2544
4126.471	2547
4128.034	2559
4129.595	2515
4131.155	2605
4132.716	2496
4134.275	2545
4135.836	2528
4137.395	2497
4138.955	2528
4140.513	2587
4142.071	2461
4143.628	2551
4145.188	2476
4146.745	2497
4148.302	2440
4149.858	2443
4151.414	2487
4152.971	2495
4154.526	2491
4156.081	2447
4157.635	2463
4159.189	2486
4160.745	2543
4162.298	2400
4163.852	2483
4165.405	2440
4166.957	2530
4168.51	2436
4170.063	2433
4171.614	2405
4173.166	2462
4174.717	2452
4176.267	2439
4177.817	2423
4179.368	2449
4180.917	2459
4182.466	2407
4184.016	2442
4185.564	2393
4187.112	2346
4188.66	2423
4190.207	2390
4191.754	2424
4193.301	2461
4194.848	2399
4196.394	2421
4197.94	2377
4199.484	2420
4201.03	2408
4202.575	2372
4204.12	2379
4205.663	2389
4207.207	2341
4208.75	2426
4210.292	2373
4211.836	2356
4213.378	2394
4214.92	2325
4216.46	2408
4218.002	2424
4219.544	2337
4221.083	2367
4222.625	2359
4224.164	2364
4225.703	2311
4227.244	2405
4228.782	2357
4230.32	2385
4231.857	2301
4233.395	2329
4234.933	2312
4236.471	2339
4238.007	2312
4239.542	2362
4241.078	2354
4242.614	2321
4244.15	2234
4245.685	2273
4247.219	2337
4248.753	2336
4250.287	2378
4251.82	2371
4253.354	2301
4254.887	2331
4256.419	2280
4257.951	2283
4259.483	2325
4261.016	2266
4262.547	2315
4264.078	2288
4265.608	2331
4267.137	2275
4268.668	2333
4270.197	2306
4271.727	2315
4273.254	2312
4274.783	2257
4276.311	2292
4277.84	2297
4279.366	2280
4280.894	2311
4282.42	2270
4283.946	2263
4285.473	2311
4286.998	2355
4288.523	2305
4290.047	2277
4291.572	2258
4293.096	2270
4294.622	2315
4296.144	2297
4297.668	2237
4299.19	2285
4300.713	2221
4302.236	2248
4303.758	2241
4305.279	2322
4306.799	2221
4308.321	2241
4309.842	2296
4311.361	2231
4312.882	2172
4314.401	2221
