400.0961	7411
402.6185	7455
405.1424	7380
407.6635	7413
410.1838	7374
412.7035	7429
415.2225	7550
417.7388	7652
420.2585	7534
422.7754	7585
425.2917	7778
427.8072	7789
430.3221	7752
432.8363	7802
435.3498	7904
437.8626	7862
440.3727	7901
442.8841	7782
445.3969	7973
447.907	7959
450.4142	7875
452.9229	7980
455.4289	7816
457.9362	7998
460.4449	7982
462.9488	7881
465.454	7793
467.9566	7973
470.4604	7805
472.9637	8065
475.4662	7823
477.966	7917
480.4671	7845
482.9656	7964
485.4633	8072
487.9645	7989
490.4608	8088
492.9566	8102
495.4536	8132
497.948	8270
500.4437	8092
502.9387	8165
505.431	8286
507.9226	8241
510.4136	8267
512.9079	8342
515.3975	8253
517.8864	8186
520.3746	8276
522.8622	8175
525.3491	8169
527.8394	8387
530.3249	8296
532.8098	8168
535.2939	8233
537.7774	8214
540.2623	8335
542.7444	8382
545.2259	8168
547.7067	8223
550.1868	8314
552.6683	8261
555.147	8353
557.6231	8417
560.1005	8323
562.5773	8322
565.0534	8376
567.5308	8432
570.0056	8456
572.4776	8542
574.951	8467
577.4237	8653
579.8978	8671
582.3671	8663
584.8378	8695
587.3079	8599
589.7773	8630
592.244	8801
594.714	8656
597.1793	8624
599.6461	8642
602.1121	8629
604.5754	8659
607.0421	8579
609.5042	8672
611.9675	8512
614.4282	8588
616.8902	8545
619.3515	8668
621.8122	8515
624.2702	8683
626.7296	8589
629.1863	8432
631.6423	8438
634.1017	8506
636.5563	8662
639.0104	8654
641.4658	8568
643.9185	8563
646.3725	8571
648.8239	8746
651.2766	8774
653.7266	8674
656.176	8804
658.6247	8757
661.0748	8771
663.5242	8923
665.9709	8706
668.417	8846
670.8624	8843
673.3092	8822
675.7533	8956
678.1968	8825
680.6395	8961
683.0817	8913
685.5251	8821
687.9659	9010
690.4061	8927
692.8456	8833
695.2844	8965
697.7226	8915
700.1621	9038
702.599	9016
705.0332	8942
707.4688	9002
709.9036	9153
712.3399	9017
714.7735	9066
717.2044	9167
719.6367	9105
722.0683	9150
724.4993	9219
726.9296	9328
729.3593	9229
731.7883	9261
734.2147	9346
736.6423	9370
739.0714	9378
741.4958	9308
743.9216	9362
746.3447	9363
748.7691	9463
751.1929	9389
753.616	9435
756.0366	9570
758.4584	9480
760.8776	9531
763.2982	9594
765.718	9525
768.1373	9534
770.5539	9607
772.9698	9629
775.3871	9584
777.8038	9671
780.2178	9467
782.6332	9573
785.0459	9632
787.458	9468
789.8714	9596
792.2842	9687
794.6943	9632
797.1038	9742
799.5127	9721
801.9209	9667
804.3324	9758
806.7393	9586
809.1456	9682
811.5513	9797
813.9562	9806
816.3625	9763
818.7663	9766
821.1693	9848
823.5718	9699
825.9735	9921
828.3746	9781
830.7771	9645
833.177	9766
835.5762	9754
837.9747	9821
840.3727	9795
842.772	9879
845.1666	9797
847.5626	9897
849.958	9935
852.3527	10091
854.7488	10028
857.1403	9979
859.5331	9914
861.9253	9884
864.3168	9823
866.7057	9905
869.098	9988
871.4876	9865
873.8746	9974
876.263	10065
878.6487	9915
881.0378	9891
883.4243	9916
885.8081	10017
888.1933	9823
890.5759	9788
892.9598	9825
895.343	9778
897.7256	9783
900.1057	9804
902.4871	9867
904.8659	9928
907.246	9969
909.6254	10043
912.0023	10081
914.3786	10142
916.7562	10216
919.1331	10344
921.5074	10390
923.8831	10493
926.2562	10466
928.6287	10493
931.0005	10290
933.3757	10484
935.7462	10422
938.1162	10588
940.4855	10602
942.8542	10491
945.2242	10737
947.5916	10852
949.9584	11062
952.3266	10938
954.6921	11415
957.0571	11859
959.4233	12134
961.787	12279
964.15	12204
966.5125	12020
968.8742	11692
971.2354	11167
973.5959	10993
975.9559	10757
978.3151	10548
980.6738	10627
983.0338	10360
985.3912	10418
987.7461	10138
990.1022	10351
992.4578	10128
994.8127	10307
997.1689	10162
999.5207	10197
1001.874	10443
1004.226	10481
1006.576	10289
1008.929	10395
1011.28	10345
1013.628	10231
1015.977	10369
1018.324	10259
1020.674	10457
1023.019	10352
1025.366	10422
1027.713	10277
1030.056	10499
1032.399	10474
1034.746	10493
1037.087	10465
1039.431	10392
1041.771	10343
1044.113	10422
1046.454	10541
1048.793	10656
1051.133	10506
1053.471	10383
1055.807	10483
1058.146	10475
1060.483	10554
1062.818	10566
1065.153	10694
1067.489	10589
1069.822	10607
1072.156	10500
1074.488	10655
1076.82	10714
1079.15	10728
1081.48	10504
1083.814	10656
1086.143	10574
1088.471	10596
1090.799	10379
1093.126	10468
1095.452	10522
1097.78	10606
1100.105	10448
1102.43	10578
1104.754	10487
1107.077	10512
1109.4	10576
1111.722	10661
1114.044	10615
1116.365	10613
1118.685	10526
1121.005	10605
1123.324	10640
1125.643	10694
1127.961	10712
1130.278	10782
1132.595	10571
1134.911	10606
1137.226	10584
1139.541	10499
1141.854	10565
1144.167	10664
1146.482	10480
1148.793	10485
1151.105	10618
1153.414	10722
1155.725	10531
1158.033	10645
1160.344	10674
1162.651	10519
1164.959	10528
1167.265	10511
1169.572	10690
1171.878	10626
1174.184	10668
1176.488	10549
1178.79	10569
1181.094	10880
1183.396	10607
1185.699	10666
1188.001	10624
1190.301	10511
1192.6	10640
1194.9	10591
1197.2	10665
1199.497	10505
1201.794	10529
1204.09	10544
1206.387	10603
1208.684	10618
1210.978	10569
1213.272	10549
1215.565	10613
1217.858	10487
1220.15	10724
1222.443	10686
1224.734	10585
1227.024	10787
1229.313	10740
1231.602	10930
1233.892	10742
1236.18	10797
1238.467	10896
1240.754	10947
1243.04	11179
1245.325	10962
1247.612	11100
1249.896	11024
1252.178	10923
1254.461	10979
1256.743	11130
1259.027	10837
1261.308	11037
1263.587	11052
1265.867	10972
1268.146	11104
1270.425	11089
1272.703	10929
1274.981	11147
1277.256	10896
1279.532	11116
1281.808	10976
1284.083	10989
1286.358	10862
1288.63	10798
1290.904	10858
1293.175	10782
1295.449	10820
1297.719	10865
1299.99	10811
1302.259	10857
1304.529	10691
1306.798	10888
1309.065	10799
1311.333	10817
1313.599	10938
1315.866	10892
1318.131	10937
1320.396	10935
1322.66	10904
1324.925	10851
1327.187	10956
1329.448	10993
1331.711	10880
1333.974	10787
1336.234	10949
1338.493	10954
1340.752	10971
1343.01	10692
1345.269	10820
1347.526	10751
1349.784	11001
1352.04	10876
1354.295	10892
1356.552	10716
1358.806	10795
1361.059	10903
1363.312	10880
1365.564	10853
1367.818	11016
1370.069	10906
1372.318	10889
1374.568	10987
1376.817	10951
1379.066	10886
1381.316	10869
1383.564	11124
1385.809	11114
1388.056	11023
1390.301	11014
1392.549	10945
1394.793	11075
1397.036	11187
1399.279	11199
1401.522	11080
1403.763	11460
1406.007	11162
1408.248	11214
1410.487	11260
1412.727	11334
1414.965	11223
1417.205	11301
1419.442	11216
1421.68	11247
1423.915	11223
1426.152	11234
1428.388	11185
1430.623	10988
1432.857	11272
1435.091	11297
1437.323	11298
1439.556	11410
1441.789	11376
1444.019	11319
1446.25	11234
1448.48	11366
1450.708	11409
1452.938	11548
1455.167	11449
1457.394	11424
1459.62	11367
1461.846	11537
1464.073	11340
1466.299	11327
1468.523	11314
1470.746	11079
1472.969	11255
1475.191	11123
1477.415	11231
1479.636	11013
1481.858	11013
1484.078	10873
1486.298	10914
1488.518	11019
1490.736	11045
1492.954	10815
1495.169	10847
1497.386	10934
1499.602	10946
1501.819	10931
1504.034	10739
1506.248	10847
1508.462	10964
1510.675	10893
1512.888	10899
1515.1	10861
1517.311	10936
1519.522	10830
1521.732	10849
1523.942	10814
1526.151	10752
1528.36	10856
1530.566	10816
1532.773	10805
1534.98	10783
1537.187	10816
1539.392	10764
1541.596	10938
1543.801	10810
1546.005	10937
1548.208	10881
1550.411	10913
1552.612	11089
1554.814	11013
1557.013	11108
1559.212	11046
1561.414	10963
1563.612	11080
1565.811	11062
1568.007	11162
1570.203	10916
1572.403	11065
1574.598	11211
1576.792	11094
1578.988	11207
1581.181	11168
1583.376	11242
1585.568	11037
1587.761	11172
1589.952	11055
1592.143	11195
1594.333	11131
1596.524	11245
1598.715	11262
1600.903	11248
1603.091	11163
1605.278	11279
1607.466	11199
1609.652	11206
1611.838	11296
1614.023	11187
1616.207	11154
1618.391	11199
1620.576	11030
1622.759	11324
1624.941	11388
1627.123	11105
1629.304	11308
1631.484	11222
1633.664	11322
1635.844	11508
1638.022	11116
1640.201	11384
1642.38	11235
1644.556	11383
1646.732	11369
1648.908	11088
1651.084	11463
1653.257	11406
1655.433	11436
1657.607	11422
1659.779	11344
1661.951	11249
1664.122	11396
1666.295	11423
1668.467	11338
1670.635	11418
1672.805	11357
1674.973	11527
1677.142	11472
1679.31	11437
1681.478	11261
1683.644	11419
1685.81	11434
1687.975	11499
1690.142	11336
1692.305	11268
1694.468	11194
1696.632	11428
1698.794	11109
1700.957	11149
1703.119	11348
1705.279	11407
1707.439	11258
1709.598	11181
1711.758	11240
1713.917	11063
1716.075	11170
1718.231	11188
1720.388	11100
1722.543	11101
1724.702	11147
1726.856	11149
1729.01	11032
1731.164	11210
1733.317	11145
1735.471	11108
1737.623	11131
1739.774	11148
1741.925	11003
1744.075	11173
1746.225	11179
1748.376	11180
1750.524	11170
1752.672	11120
1754.82	11272
1756.965	11218
1759.113	11154
1761.259	11310
1763.405	11062
1765.549	11106
1767.694	11074
1769.836	11194
1771.981	11168
1774.123	11057
1776.264	11219
1778.405	11224
1780.546	11228
1782.687	11346
1784.827	11355
1786.966	11250
1789.103	11247
1791.242	11221
1793.381	11290
1795.517	11267
1797.653	11263
1799.788	11292
1801.923	11251
1804.057	11231
1806.193	11310
1808.326	11241
1810.457	11307
1812.59	11163
1814.721	11288
1816.855	11282
1818.984	11123
1821.113	11122
1823.244	11112
1825.372	11234
1827.499	11175
1829.63	11232
1831.756	11275
1833.882	11131
1836.007	11154
1838.132	11107
1840.26	11162
1842.384	11007
1844.507	11249
1846.63	11205
1848.752	11077
1850.875	11079
1852.996	11166
1855.118	11170
1857.238	11061
1859.358	11059
1861.477	10791
1863.597	11287
1865.715	11120
1867.832	10942
1869.948	11122
1872.064	11161
1874.181	11115
1876.297	11189
1878.411	11084
1880.526	11187
1882.639	11078
1884.752	11097
1886.865	11077
1888.977	11059
1891.089	11168
1893.2	11056
1895.308	11158
1897.42	11118
1899.53	11207
1901.639	11158
1903.745	11212
1905.853	11199
1907.962	11307
1910.067	11125
1912.174	11121
1914.278	11371
1916.383	11110
1918.486	11328
1920.592	11245
1922.694	11280
1924.797	11086
1926.898	11208
1929	11226
1931.102	11187
1933.203	11190
1935.301	11140
1937.401	11217
1939.499	11187
1941.598	11320
1943.697	11181
1945.793	11310
1947.888	11312
1949.985	11365
1952.08	11223
1954.176	11268
1956.269	11178
1958.364	11164
1960.457	11077
1962.549	11328
1964.642	11083
1966.733	11262
1968.823	11216
1970.913	11316
1973.005	11189
1975.093	11128
1977.184	11259
1979.271	11162
1981.359	11184
1983.446	11018
1985.532	11251
1987.619	11110
1989.705	11230
1991.789	11163
1993.874	11124
1995.956	11051
1998.041	11102
2000.123	10956
2002.206	11042
2004.287	11123
2006.368	10974
2008.449	10909
2010.529	11180
2012.609	11187
2014.688	10934
2016.766	11162
2018.843	11026
2020.922	11069
2022.999	11113
2025.074	11179
2027.15	11069
2029.225	11071
2031.299	11153
2033.375	11040
2035.447	10998
2037.52	11069
2039.592	11016
2041.664	11239
2043.736	11038
2045.807	11081
2047.876	11063
2049.947	11085
2052.015	11020
2054.086	11083
2056.153	10967
2058.221	11049
2060.288	10961
2062.353	11119
2064.42	11045
2066.486	11114
2068.55	11066
2070.614	11080
2072.678	10999
2074.741	11115
2076.805	11200
2078.866	10989
2080.929	11095
2082.99	11217
2085.049	11115
2087.109	11060
2089.17	10982
2091.228	11037
2093.286	11001
2095.344	10976
2097.4	11055
2099.46	10979
2101.516	11056
2103.572	11061
2105.626	11100
2107.679	11121
2109.735	10955
2111.788	10997
2113.841	11154
2115.894	11091
2117.945	11000
2119.997	10994
2122.049	11022
2124.1	10981
2126.148	10945
2128.197	11054
2130.246	11196
2132.296	11054
2134.342	11003
2136.39	10937
2138.437	10702
2140.483	10949
2142.527	11105
2144.574	10913
2146.619	11135
2148.661	11106
2150.705	10906
2152.747	10868
2154.792	10875
2156.832	10971
2158.874	11004
2160.915	10959
2162.954	10992
2164.995	10862
2167.034	10991
2169.072	10908
2171.111	10841
2173.148	10863
2175.186	10859
2177.223	10908
2179.258	10865
2181.294	10853
2183.328	10879
2185.362	10832
2187.398	10648
2189.431	10831
2191.463	10778
2193.495	10692
2195.528	10816
2197.56	10830
2199.59	10714
2201.62	10805
2203.649	10654
2205.678	10678
2207.708	10555
2209.737	10635
2211.764	10682
2213.791	10646
2215.817	10770
2217.843	10749
2219.87	10739
2221.895	10782
2223.919	10612
2225.942	10584
2227.966	10513
2229.988	10845
2232.012	10567
2234.032	10708
2236.054	10826
2238.074	10674
2240.095	10621
2242.116	10676
2244.135	10638
2246.153	10779
2248.171	10586
2250.188	10773
2252.208	10510
2254.223	10725
2256.239	10596
2258.255	10605
2260.269	10582
2262.283	10692
2264.3	10471
2266.312	10532
2268.325	10725
2270.336	10717
2272.349	10719
2274.362	10517
2276.372	10709
2278.383	10655
2280.392	10521
2282.402	10629
2284.409	10539
2286.418	10735
2288.427	10520
2290.433	10616
2292.441	10742
2294.446	10545
2296.453	10585
2298.459	10645
2300.463	10654
2302.466	10685
2304.471	10542
2306.475	10609
2308.477	10573
2310.478	10482
2312.481	10587
2314.481	10576
2316.481	10480
2318.482	10463
2320.482	10590
2322.48	10418
2324.48	10526
2326.478	10372
2328.476	10393
2330.473	10415
2332.469	10296
2334.465	10552
2336.46	10309
2338.454	10323
2340.45	10402
2342.444	10453
2344.437	10443
2346.43	10500
2348.421	10341
2350.414	10303
2352.405	10333
2354.396	10316
2356.386	10390
2358.376	10395
2360.366	10384
2362.355	10280
2364.343	10235
2366.331	10287
2368.317	10269
2370.304	10431
2372.292	10237
2374.278	10188
2376.262	10344
2378.247	10345
2380.23	10322
2382.216	10253
2384.199	10380
2386.181	10192
2388.163	10104
2390.144	10054
2392.127	10270
2394.107	10220
2396.087	10192
2398.066	10128
2400.046	10170
2402.023	10293
2404.004	10137
2405.981	10183
2407.957	10265
2409.934	10182
2411.91	10208
2413.886	10048
2415.862	10235
2417.836	10086
2419.809	10093
2421.784	10217
2423.756	10161
2425.73	10095
2427.701	10098
2429.672	10160
2431.644	10047
2433.615	10193
2435.586	10038
2437.555	10111
2439.523	10016
2441.491	10227
2443.459	10204
2445.428	10162
2447.395	10028
2449.361	10136
2451.327	10084
2453.292	10155
2455.257	9970
2457.223	10095
2459.187	9986
2461.15	10127
2463.113	9850
2465.076	10081
2467.039	10008
2468.999	10042
2470.96	9988
2472.921	10026
2474.881	10114
2476.841	10016
2478.8	10022
2480.759	9969
2482.717	9885
2484.675	9993
2486.63	9885
2488.589	9968
2490.545	9992
2492.5	9888
2494.455	10077
2496.408	9902
2498.364	9904
2500.318	9939
2502.27	9926
2504.223	9841
2506.174	9894
2508.126	9833
2510.078	9789
2512.03	9937
2513.979	9781
2515.927	9893
2517.877	10020
2519.826	9801
2521.775	9865
2523.722	9768
2525.668	9936
2527.616	9798
2529.561	9904
2531.508	9712
2533.452	9839
2535.398	9794
2537.342	9805
2539.284	9768
2541.229	9759
2543.173	9840
2545.114	9760
2547.055	9900
2548.996	9793
2550.938	9893
2552.878	9854
2554.817	9884
2556.756	9826
2558.695	9743
2560.633	9773
2562.572	9703
2564.509	9921
2566.445	9905
2568.382	9717
2570.317	9942
2572.254	9718
2574.189	9852
2576.123	9740
2578.057	9752
2579.99	9902
2581.923	9832
2583.855	9840
2585.788	9914
2587.719	9646
2589.65	9767
2591.579	9777
2593.511	9811
2595.44	9768
2597.37	9820
2599.297	9785
2601.225	9656
2603.153	9651
2605.08	9816
2607.007	9750
2608.932	9874
2610.858	9764
2612.782	9776
2614.709	9760
2616.632	9711
2618.556	9775
2620.478	9857
2622.401	9764
2624.324	9750
2626.247	9780
2628.167	9808
2630.088	9717
2632.008	9744
2633.928	9860
2635.848	9838
2637.766	9653
2639.684	9728
2641.603	9812
2643.519	9750
2645.437	9816
2647.353	9728
2649.27	9634
2651.184	9778
2653.099	9750
2655.014	9760
2656.928	9651
2658.842	9826
2660.755	9776
2662.667	9783
2664.579	9842
2666.491	9802
2668.402	9744
2670.312	9774
2672.222	9707
2674.132	9743
2676.042	9640
2677.951	9715
2679.859	9818
2681.766	9602
2683.674	9685
2685.582	9711
2687.488	9579
2689.392	9636
2691.298	9668
2693.202	9532
2695.107	9622
2697.012	9557
2698.914	9743
2700.817	9586
2702.72	9641
2704.622	9567
2706.524	9551
2708.425	9611
2710.326	9555
2712.225	9523
2714.125	9448
2716.024	9478
2717.923	9511
2719.822	9367
2721.719	9538
2723.616	9442
2725.512	9536
2727.41	9479
2729.305	9485
2731.201	9625
2733.095	9429
2734.99	9578
2736.884	9522
2738.778	9444
2740.67	9472
2742.562	9409
2744.455	9546
2746.346	9318
2748.238	9446
2750.129	9472
2752.018	9525
2753.907	9403
2755.797	9278
2757.687	9507
2759.575	9353
2761.462	9491
2763.349	9405
2765.237	9399
2767.124	9469
2769.009	9339
2770.894	9375
2772.779	9330
2774.663	9347
2776.547	9353
2778.431	9370
2780.314	9251
2782.197	9438
2784.078	9436
2785.96	9336
2787.842	9348
2789.723	9315
2791.603	9465
2793.483	9381
2795.362	9292
2797.241	9355
2799.121	9234
2800.997	9326
2802.874	9321
2804.751	9234
2806.628	9293
2808.506	9331
2810.38	9432
2812.255	9395
2814.13	9280
2816.003	9244
2817.878	9340
2819.752	9222
2821.623	9283
2823.496	9265
2825.368	9357
2827.238	9144
2829.111	9276
2830.98	9194
2832.851	9436
2834.719	9168
2836.589	9313
2838.458	9270
2840.327	9155
2842.193	9226
2844.061	9216
2845.927	9194
2847.794	9365
2849.66	9216
2851.525	9369
2853.39	9377
2855.254	9372
2857.117	9402
2858.983	9314
2860.845	9340
2862.707	9565
2864.569	9489
2866.431	9279
2868.293	9484
2870.154	9568
2872.013	9828
2873.873	9662
2875.733	9703
2877.592	9769
2879.451	9774
2881.309	9821
2883.166	9811
2885.022	9988
2886.879	10032
2888.736	9933
2890.591	9937
2892.446	10022
2894.301	10069
2896.155	9950
2898.009	10047
2899.863	9869
2901.716	9774
2903.568	9994
2905.419	10011
2907.27	9905
2909.123	9923
2910.973	9931
2912.824	10057
2914.673	10071
2916.521	10150
2918.372	10213
2920.22	10210
2922.067	10255
2923.914	10341
2925.761	10399
2927.607	10456
2929.455	10418
2931.301	10617
2933.144	10578
2934.99	10717
2936.833	10694
2938.678	10854
2940.522	10704
2942.364	10898
2944.207	10956
2946.048	11053
2947.891	11081
2949.731	11136
2951.571	11142
2953.412	11084
2955.25	10808
2957.09	10891
2958.93	10896
2960.767	10928
2962.606	10666
2964.443	10735
2966.279	10551
2968.116	10250
2969.953	10241
2971.788	10271
2973.623	10190
2975.457	10098
2977.292	9994
2979.127	9982
2980.959	9969
2982.792	9844
2984.624	9833
2986.455	9885
2988.288	9808
2990.119	9858
2991.949	9689
2993.779	9707
2995.608	9644
2997.439	9595
2999.268	9474
3001.096	9396
3002.923	9526
3004.751	9320
3006.578	9246
3008.406	9138
3010.232	9110
3012.057	9225
3013.883	9075
3015.706	9002
3017.532	8947
3019.356	8890
3021.179	8846
3023.002	8886
3024.823	8746
3026.646	8854
3028.469	8811
3030.289	8755
3032.11	8676
3033.93	8730
3035.749	8744
3037.57	8620
3039.39	8798
3041.207	8747
3043.026	8617
3044.842	8660
3046.661	8631
3048.477	8786
3050.294	8685
3052.109	8602
3053.925	8754
3055.739	8620
3057.555	8700
3059.368	8544
3061.181	8632
3062.995	8601
3064.807	8670
3066.62	8586
3068.433	8692
3070.243	8486
3072.054	8578
3073.865	8579
3075.675	8536
3077.485	8532
3079.293	8350
3081.102	8456
3082.911	8494
3084.719	8488
3086.527	8500
3088.333	8447
3090.139	8563
3091.945	8362
3093.75	8372
3095.557	8414
3097.361	8245
3099.165	8391
3100.969	8250
3102.772	8231
3104.575	8375
3106.379	8369
3108.181	8312
3109.982	8188
3111.783	8327
3113.584	8320
3115.386	8148
3117.186	8175
3118.985	8147
3120.783	8221
3122.582	8316
3124.381	8050
3126.179	8227
3127.975	8315
3129.772	8238
3131.569	8098
3133.365	8086
3135.161	8057
3136.956	8111
3138.751	8160
3140.544	7962
3142.338	8183
3144.132	8102
3145.925	8118
3147.717	8153
3149.509	8013
3151.301	7976
3153.091	8046
3154.884	8075
3156.673	8101
3158.462	8076
3160.252	8084
3162.041	8002
3163.831	8078
3165.618	8015
3167.405	8030
3169.193	8120
3170.979	8077
3172.767	7943
3174.553	7986
3176.338	8047
3178.123	8004
3179.907	7944
3181.692	8039
3183.477	7947
3185.259	8000
3187.042	7940
3188.824	8018
3190.607	7884
3192.389	7838
3194.17	7941
3195.951	7922
3197.73	7899
3199.51	7779
3201.289	7933
3203.07	7940
3204.848	7958
3206.626	7974
3208.403	7859
3210.18	7970
3211.959	7962
3213.735	7967
3215.511	7987
3217.285	7788
3219.06	8016
3220.836	7893
3222.611	7820
3224.384	7793
3226.158	7842
3227.929	7983
3229.702	7997
3231.476	7828
3233.248	7849
3235.018	7803
3236.789	7964
3238.56	7931
3240.33	7868
3242.1	7910
3243.869	7997
3245.637	7938
3247.405	7804
3249.172	7886
3250.941	7863
3252.707	7733
3254.474	7884
3256.24	7762
3258.006	7942
3259.772	7909
3261.537	7834
3263.301	7891
3265.065	7727
3266.828	7818
3268.592	7725
3270.355	7827
3272.117	7833
3273.878	7693
3275.64	7762
3277.401	7847
3279.162	7752
3280.922	7823
3282.682	7792
3284.441	7878
3286.199	7842
3287.959	7817
3289.716	7705
3291.475	7844
3293.232	7793
3294.988	7671
3296.744	7809
3298.501	7834
3300.256	7779
3302.011	7723
3303.766	7659
3305.52	7714
3307.275	7816
3309.028	7809
3310.781	7818
3312.533	7736
3314.285	7768
3316.038	7679
3317.789	7811
3319.54	7695
3321.289	7565
3323.039	7793
3324.789	7725
3326.539	7677
3328.288	7750
3330.035	7876
3331.783	7662
3333.531	7687
3335.28	7578
3337.025	7677
3338.771	7573
3340.518	7730
3342.262	7487
3344.009	7621
3345.753	7685
3347.497	7556
3349.24	7530
3350.983	7576
3352.726	7537
3354.469	7648
3356.212	7563
3357.952	7536
3359.694	7618
3361.434	7643
3363.176	7518
3364.916	7497
3366.654	7541
3368.394	7462
3370.132	7625
3371.871	7522
3373.61	7500
3375.346	7490
3377.083	7419
3378.82	7413
3380.556	7439
3382.292	7521
3384.027	7464
3385.763	7435
3387.497	7417
3389.231	7557
3390.965	7507
3392.698	7423
3394.431	7498
3396.164	7511
3397.896	7383
3399.627	7281
3401.36	7450
3403.09	7482
3404.82	7352
3406.55	7373
3408.279	7301
3410.01	7368
3411.738	7404
3413.467	7405
3415.194	7308
3416.92	7498
3418.647	7249
3420.375	7369
3422.102	7209
3423.827	7339
3425.553	7252
3427.277	7288
3429.003	7167
3430.727	7286
3432.451	7334
3434.173	7276
3435.896	7189
3437.62	7303
3439.343	7086
3441.063	7215
3442.785	7195
3444.505	7085
3446.226	7133
3447.948	7413
3449.666	7161
3451.386	7124
3453.104	7116
3454.823	7171
3456.541	7084
3458.259	7186
3459.976	7086
3461.693	7118
3463.408	7002
3465.125	7183
3466.841	6869
3468.556	7039
3470.271	6957
3471.985	7085
3473.698	6972
3475.414	6927
3477.126	6910
3478.838	6952
3480.55	6936
3482.263	6971
3483.975	6955
3485.686	7075
3487.396	6886
3489.106	6992
3490.817	6781
3492.526	6918
3494.236	6888
3495.944	6858
3497.652	6885
3499.359	6777
3501.066	6782
3502.775	6800
3504.481	6698
3506.187	6898
3507.893	6837
3509.598	6700
3511.304	6783
3513.009	6732
3514.713	6698
3516.417	6755
3518.12	6636
3519.821	6688
3521.525	6869
3523.228	6820
3524.929	6723
3526.631	6680
3528.33	6746
3530.032	6721
3531.733	6734
3533.433	6712
3535.131	6595
3536.83	6670
3538.529	6710
3540.227	6572
3541.925	6654
3543.623	6679
3545.319	6798
3547.016	6631
3548.712	6449
3550.408	6615
3552.103	6608
3553.798	6542
3555.491	6610
3557.188	6560
3558.88	6573
3560.574	6532
3562.266	6526
3563.959	6570
3565.651	6555
3567.343	6541
3569.035	6563
3570.725	6428
3572.415	6517
3574.106	6445
3575.797	6494
3577.485	6636
3579.174	6454
3580.863	6396
3582.551	6496
3584.238	6437
3585.926	6396
3587.613	6507
3589.3	6420
3590.986	6439
3592.671	6269
3594.357	6445
3596.042	6314
3597.726	6406
3599.41	6349
3601.094	6265
3602.778	6446
3604.461	6344
3606.143	6377
3607.825	6367
3609.507	6365
3611.188	6295
3612.87	6323
3614.551	6272
3616.229	6348
3617.909	6385
3619.589	6261
3621.269	6257
3622.948	6154
3624.625	6142
3626.302	6178
3627.98	6165
3629.657	6173
3631.334	6219
3633.01	6190
3634.686	6200
3636.361	6057
3638.036	5968
3639.712	6122
3641.385	6034
3643.06	6052
3644.732	6060
3646.405	5927
3648.08	6027
3649.751	6005
3651.424	6077
3653.094	6043
3654.766	6056
3656.436	6015
3658.106	6075
3659.777	6034
3661.446	6007
3663.115	6094
3664.783	6001
3666.452	6006
3668.121	5966
3669.788	5971
3671.454	5903
3673.121	5961
3674.789	5953
3676.455	5863
3678.12	5981
3679.784	6029
3681.45	5887
3683.114	5864
3684.779	5891
3686.442	5955
3688.105	5763
3689.768	5904
3691.43	5998
3693.093	5857
3694.754	5891
3696.415	5833
3698.076	5907
3699.736	5888
3701.396	5910
3703.057	5956
3704.716	5931
3706.375	5845
3708.034	5832
3709.692	5776
3711.351	5735
3713.008	5800
3714.665	5920
3716.321	5831
3717.977	5741
3719.634	5801
3721.29	5743
3722.945	5766
3724.598	5762
3726.253	5722
3727.907	5771
3729.561	5781
3731.214	5770
3732.867	5753
3734.518	5772
3736.171	5846
3737.824	5645
3739.474	5809
3741.125	5789
3742.775	5762
3744.425	5678
3746.074	5733
3747.725	5665
3749.373	5713
3751.022	5716
3752.669	5674
3754.318	5621
3755.966	5657
3757.612	5615
3759.259	5656
3760.905	5662
3762.55	5682
3764.197	5570
3765.842	5707
3767.486	5605
3769.131	5677
3770.774	5633
3772.417	5619
3774.061	5537
3775.705	5562
3777.347	5617
3778.988	5545
3780.629	5565
3782.271	5514
3783.912	5546
3785.552	5639
3787.192	5559
3788.831	5569
3790.472	5546
3792.112	5513
3793.75	5581
3795.388	5551
3797.024	5489
3798.661	5500
3800.3	5494
3801.936	5411
3803.572	5459
3805.208	5460
3806.844	5500
3808.48	5565
3810.115	5462
3811.748	5536
3813.382	5510
3815.016	5540
3816.649	5356
3818.283	5304
3819.914	5393
3821.547	5430
3823.178	5364
3824.809	5524
3826.441	5321
3828.072	5410
3829.701	5479
3831.331	5402
3832.96	5429
3834.591	5418
3836.219	5378
3837.847	5384
3839.475	5415
3841.102	5332
3842.729	5334
3844.357	5261
3845.984	5336
3847.609	5319
3849.234	5341
3850.86	5266
3852.485	5383
3854.11	5410
3855.734	5322
3857.357	5336
3858.981	5287
3860.603	5326
3862.227	5280
3863.848	5333
3865.471	5294
3867.092	5237
3868.713	5339
3870.334	5222
3871.954	5159
3873.575	5302
3875.194	5238
3876.813	5140
3878.433	5164
3880.051	5257
3881.669	5260
3883.286	5307
3884.904	5174
3886.52	5187
3888.138	5229
3889.754	5139
3891.37	5177
3892.985	5296
3894.6	5232
3896.216	5175
3897.831	5224
3899.444	5109
3901.058	5118
3902.67	5118
3904.283	5201
3905.897	5118
3907.509	5170
3909.121	5179
3910.731	5066
3912.342	5063
3913.954	5216
3915.563	5157
3917.174	5090
3918.783	5088
3920.391	5078
3922.002	5201
3923.611	5085
3925.218	5155
3926.826	5127
3928.432	5038
3930.039	5097
3931.647	5038
3933.253	4996
3934.859	5048
3936.464	5043
3938.068	5108
3939.675	5051
3941.278	5059
3942.883	5129
3944.486	4971
3946.089	5008
3947.692	5057
3949.295	5056
3950.898	5020
3952.499	5026
3954.1	5150
3955.7	5025
3957.303	4955
3958.903	4972
3960.502	5008
3962.101	4978
3963.7	4957
3965.301	5012
3966.899	4969
3968.497	4984
3970.094	4897
3971.691	4959
3973.288	4872
3974.885	4952
3976.481	4901
3978.077	4925
3979.672	4963
3981.267	4871
3982.863	4897
3984.457	4923
3986.051	4812
3987.645	4856
3989.238	4861
3990.831	4876
3992.425	4915
3994.017	4901
3995.607	4865
3997.199	4815
3998.79	4755
4000.382	4811
4001.973	4828
4003.561	4759
4005.151	4789
4006.741	4828
4008.331	4816
4009.918	4767
4011.507	4747
4013.095	4692
4014.681	4781
4016.269	4781
4017.856	4690
4019.443	4750
4021.028	4786
4022.614	4716
4024.199	4770
4025.785	4725
4027.37	4803
4028.953	4717
4030.536	4632
4032.12	4667
4033.704	4676
4035.287	4661
4036.869	4663
4038.45	4701
4040.032	4592
4041.613	4618
4043.195	4597
4044.776	4599
4046.356	4602
4047.935	4678
4049.515	4619
4051.095	4640
4052.674	4588
4054.251	4612
4055.829	4575
4057.406	4559
4058.985	4666
4060.562	4661
4062.139	4696
4063.715	4701
4065.29	4556
4066.865	4566
4068.442	4544
4070.016	4475
4071.59	4526
4073.164	4474
4074.738	4519
4076.312	4540
4077.885	4554
4079.458	4480
4081.03	4574
4082.602	4510
4084.173	4541
4085.745	4481
4087.315	4587
4088.886	4497
4090.456	4535
4092.026	4500
4093.596	4403
4095.165	4526
4096.734	4536
4098.301	4538
4099.869	4533
4101.437	4519
4103.006	4396
4104.572	4412
4106.139	4487
4107.704	4500
4109.27	4392
4110.837	4456
4112.401	4490
4113.966	4405
4115.53	4441
4117.094	4383
4118.659	4526
4120.223	4366
4121.785	4351
4123.347	4379
4124.909	4415
4126.471	4367
4128.034	4376
4129.595	4421
4131.155	4369
4132.716	4333
4134.275	4317
4135.836	4311
4137.395	4405
4138.955	4278
4140.513	4287
4142.071	4357
4143.628	4330
4145.188	4285
4146.745	4323
4148.302	4312
4149.858	4236
4151.414	4306
4152.971	4271
4154.526	4263
4156.081	4250
4157.635	4281
4159.189	4236
4160.745	4149
4162.298	4300
4163.852	4232
4165.405	4174
4166.957	4232
4168.51	4305
4170.063	4266
4171.614	4280
4173.166	4246
4174.717	4212
4176.267	4230
4177.817	4181
4179.368	4161
4180.917	4177
4182.466	4155
4184.016	4205
4185.564	4143
4187.112	4225
4188.66	4106
4190.207	4186
4191.754	4118
4193.301	4064
4194.848	4125
4196.394	4082
4197.94	4098
4199.484	4070
4201.03	4107
4202.575	4157
4204.12	4110
4205.663	4052
4207.207	4099
4208.75	4067
4210.292	4044
4211.836	4018
4213.378	4105
4214.92	4007
4216.46	3953
4218.002	4051
4219.544	4116
4221.083	4094
4222.625	4163
4224.164	4063
4225.703	4160
4227.244	4041
4228.782	4053
4230.32	4128
4231.857	4065
4233.395	3997
4234.933	4028
4236.471	3984
4238.007	3991
4239.542	4078
4241.078	3984
4242.614	4036
4244.15	3935
4245.685	4031
4247.219	4071
4248.753	4045
4250.287	4007
4251.82	3992
4253.354	4010
4254.887	3830
4256.419	3913
4257.951	4015
4259.483	3985
4261.016	3981
4262.547	3825
4264.078	4038
4265.608	3933
4267.137	3948
4268.668	3896
4270.197	3897
4271.727	3854
4273.254	3955
4274.783	3932
4276.311	3974
4277.84	3969
4279.366	3865
4280.894	3882
4282.42	3883
4283.946	3875
4285.473	3912
4286.998	3916
4288.523	3876
4290.047	3814
4291.572	3927
4293.096	3878
4294.622	3881
4296.144	3880
4297.668	3851
4299.19	3885
4300.713	3917
4302.236	3912
4303.758	3796
4305.279	3827
4306.799	3913
4308.321	3732
4309.842	3811
4311.361	3829
4312.882	3803
4314.401	3860
