400.0961	4431
402.6185	4469
405.1424	4461
407.6635	4405
410.1838	4541
412.7035	4587
415.2225	4606
417.7388	4494
420.2585	4676
422.7754	4673
425.2917	4637
427.8072	4739
430.3221	4813
432.8363	4753
435.3498	4700
437.8626	4767
440.3727	4786
442.8841	4765
445.3969	4723
447.907	4698
450.4142	4814
452.9229	4848
455.4289	4740
457.9362	4721
460.4449	4778
462.9488	4772
465.454	4869
467.9566	4697
470.4604	4698
472.9637	4757
475.4662	4844
477.966	4688
480.4671	4742
482.9656	4829
485.4633	4786
487.9645	4803
490.4608	4881
492.9566	4848
495.4536	4875
497.948	4821
500.4437	4945
502.9387	4900
505.431	4980
507.9226	4863
510.4136	4907
512.9079	4838
515.3975	4932
517.8864	4898
520.3746	4924
522.8622	4851
525.3491	5052
527.8394	5041
530.3249	4901
532.8098	4949
535.2939	4930
537.7774	4988
540.2623	4910
542.7444	4991
545.2259	4979
547.7067	5036
550.1868	4986
552.6683	4999
555.147	4922
557.6231	4996
560.1005	5039
562.5773	5055
565.0534	5076
567.5308	5086
570.0056	5107
572.4776	5103
574.951	5072
577.4237	5176
579.8978	5096
582.3671	5211
584.8378	5144
587.3079	5182
589.7773	5191
592.244	5222
594.714	5168
597.1793	5251
599.6461	5180
602.1121	5121
604.5754	5082
607.0421	5052
609.5042	5143
611.9675	5229
614.4282	5119
616.8902	5136
619.3515	5112
621.8122	5212
624.2702	5129
626.7296	5148
629.1863	5159
631.6423	5137
634.1017	5156
636.5563	5109
639.0104	5175
641.4658	5188
643.9185	5083
646.3725	5270
648.8239	5176
651.2766	5198
653.7266	5242
656.176	5271
658.6247	5182
661.0748	5257
663.5242	5384
665.9709	5265
668.417	5279
670.8624	5251
673.3092	5309
675.7533	5344
678.1968	5324
680.6395	5356
683.0817	5275
685.5251	5366
687.9659	5200
690.4061	5354
692.8456	5291
695.2844	5515
697.7226	5442
700.1621	5354
702.599	5334
705.0332	5381
707.4688	5477
709.9036	5475
712.3399	5478
714.7735	5358
717.2044	5363
719.6367	5501
722.0683	5574
724.4993	5550
726.9296	5514
729.3593	5430
731.7883	5546
734.2147	5533
736.6423	5569
739.0714	5620
741.4958	5648
743.9216	5648
746.3447	5531
748.7691	5630
751.1929	5623
753.616	5613
756.0366	5665
758.4584	5693
760.8776	5725
763.2982	5750
765.718	5777
768.1373	5629
770.5539	5694
772.9698	5846
775.3871	5701
777.8038	5783
780.2178	5703
782.6332	5798
785.0459	5772
787.458	5748
789.8714	5742
792.2842	5826
794.6943	5835
797.1038	5775
799.5127	5844
801.9209	5775
804.3324	5750
806.7393	5760
809.1456	5767
811.5513	5741
813.9562	5751
816.3625	5866
818.7663	5729
821.1693	5849
823.5718	5783
825.9735	5896
828.3746	5845
830.7771	5871
833.177	5821
835.5762	5869
837.9747	5838
840.3727	5877
842.772	5874
845.1666	5968
847.5626	5891
849.958	5899
852.3527	5919
854.7488	6028
857.1403	6005
859.5331	6077
861.9253	5938
864.3168	5933
866.7057	5982
869.098	5990
871.4876	5837
873.8746	6025
876.263	5973
878.6487	5975
881.0378	6044
883.4243	5973
885.8081	5920
888.1933	5959
890.5759	5796
892.9598	5839
895.343	5945
897.7256	5980
900.1057	5859
902.4871	6006
904.8659	6046
907.246	5954
909.6254	6114
912.0023	6130
914.3786	6132
916.7562	6142
919.1331	6277
921.5074	6259
923.8831	6225
926.2562	6376
928.6287	6259
931.0005	6255
933.3757	6269
935.7462	6232
938.1162	6299
940.4855	6424
942.8542	6308
945.2242	6296
947.5916	6404
949.9584	6590
952.3266	6616
954.6921	6713
957.0571	7038
959.4233	7001
961.787	7223
964.15	7078
966.5125	7080
968.8742	6828
971.2354	6602
973.5959	6579
975.9559	6425
978.3151	6268
980.6738	6276
983.0338	6355
985.3912	6326
987.7461	6220
990.1022	6220
992.4578	6146
994.8127	6279
997.1689	6185
999.5207	6210
1001.874	6192
1004.226	6200
1006.576	6227
1008.929	6176
1011.28	6124
1013.628	6116
1015.977	6230
1018.324	6171
1020.674	6371
1023.019	6187
1025.366	6175
1027.713	6236
1030.056	6293
1032.399	6251
1034.746	6381
1037.087	6236
1039.431	6340
1041.771	6243
1044.113	6344
1046.454	6326
1048.793	6269
1051.133	6186
1053.471	6271
1055.807	6281
1058.146	6371
1060.483	6271
1062.818	6309
1065.153	6376
1067.489	6367
1069.822	6442
1072.156	6371
1074.488	6355
1076.82	6420
1079.15	6384
1081.48	6364
1083.814	6375
1086.143	6308
1088.471	6211
1090.799	6396
1093.126	6390
1095.452	6305
1097.78	6315
1100.105	6281
1102.43	6211
1104.754	6384
1107.077	6470
1109.4	6443
1111.722	6306
1114.044	6406
1116.365	6333
1118.685	6398
1121.005	6388
1123.324	6367
1125.643	6502
1127.961	6403
1130.278	6401
1132.595	6365
1134.911	6322
1137.226	6434
1139.541	6329
1141.854	6399
1144.167	6386
1146.482	6301
1148.793	6346
1151.105	6474
1153.414	6407
1155.725	6312
1158.033	6545
1160.344	6312
1162.651	6328
1164.959	6304
1167.265	6414
1169.572	6423
1171.878	6382
1174.184	6512
1176.488	6424
1178.79	6469
1181.094	6483
1183.396	6514
1185.699	6338
1188.001	6474
1190.301	6393
1192.6	6377
1194.9	6370
1197.2	6364
1199.497	6452
1201.794	6532
1204.09	6402
1206.387	6414
1208.684	6303
1210.978	6357
1213.272	6553
1215.565	6461
1217.858	6496
1220.15	6533
1222.443	6405
1224.734	6528
1227.024	6560
1229.313	6512
1231.602	6612
1233.892	6543
1236.18	6632
1238.467	6563
1240.754	6677
1243.04	6605
1245.325	6655
1247.612	6598
1249.896	6715
1252.178	6634
1254.461	6709
1256.743	6623
1259.027	6690
1261.308	6812
1263.587	6640
1265.867	6694
1268.146	6738
1270.425	6715
1272.703	6623
1274.981	6647
1277.256	6747
1279.532	6592
1281.808	6716
1284.083	6667
1286.358	6643
1288.63	6647
1290.904	6588
1293.175	6603
1295.449	6674
1297.719	6637
1299.99	6609
1302.259	6579
1304.529	6562
1306.798	6519
1309.065	6638
1311.333	6641
1313.599	6616
1315.866	6510
1318.131	6610
1320.396	6666
1322.66	6618
1324.925	6591
1327.187	6641
1329.448	6750
1331.711	6660
1333.974	6631
1336.234	6657
1338.493	6658
1340.752	6614
1343.01	6652
1345.269	6574
1347.526	6622
1349.784	6638
1352.04	6615
1354.295	6450
1356.552	6449
1358.806	6559
1361.059	6621
1363.312	6570
1365.564	6647
1367.818	6675
1370.069	6585
1372.318	6698
1374.568	6630
1376.817	6678
1379.066	6660
1381.316	6708
1383.564	6703
1385.809	6652
1388.056	6764
1390.301	6659
1392.549	6694
1394.793	6799
1397.036	6809
1399.279	6844
1401.522	6933
1403.763	7012
1406.007	6816
1408.248	6927
1410.487	6851
1412.727	6883
1414.965	6924
1417.205	6933
1419.442	6899
1421.68	6911
1423.915	6957
1426.152	6816
1428.388	6769
1430.623	6885
1432.857	6799
1435.091	6937
1437.323	6895
1439.556	6899
1441.789	6909
1444.019	7101
1446.25	7013
1448.48	7006
1450.708	6976
1452.938	6995
1455.167	7012
1457.394	7031
1459.62	6910
1461.846	6879
1464.073	6994
1466.299	6918
1468.523	6768
1470.746	6859
1472.969	6786
1475.191	6819
1477.415	6881
1479.636	6705
1481.858	6698
1484.078	6690
1486.298	6740
1488.518	6708
1490.736	6646
1492.954	6588
1495.169	6627
1497.386	6631
1499.602	6677
1501.819	6630
1504.034	6582
1506.248	6569
1508.462	6585
1510.675	6550
1512.888	6604
1515.1	6576
1517.311	6511
1519.522	6730
1521.732	6596
1523.942	6515
1526.151	6555
1528.36	6677
1530.566	6662
1532.773	6626
1534.98	6621
1537.187	6537
1539.392	6641
1541.596	6620
1543.801	6712
1546.005	6739
1548.208	6563
1550.411	6735
1552.612	6618
1554.814	6617
1557.013	6607
1559.212	6694
1561.414	6724
1563.612	6693
1565.811	6623
1568.007	6847
1570.203	6843
1572.403	6764
1574.598	6822
1576.792	6707
1578.988	6834
1581.181	6811
1583.376	6874
1585.568	6843
1587.761	6729
1589.952	6902
1592.143	6868
1594.333	6805
1596.524	6860
1598.715	6771
1600.903	6845
1603.091	6690
1605.278	6759
1607.466	6819
1609.652	6854
1611.838	6855
1614.023	6879
1616.207	6900
1618.391	6886
1620.576	6819
1622.759	6964
1624.941	6841
1627.123	6852
1629.304	6937
1631.484	6891
1633.664	6939
1635.844	6964
1638.022	6978
1640.201	6973
1642.38	6734
1644.556	6895
1646.732	6930
1648.908	6960
1651.084	7021
1653.257	7017
1655.433	6982
1657.607	6911
1659.779	7039
1661.951	6993
1664.122	6911
1666.295	6949
1668.467	6976
1670.635	6927
1672.805	7076
1674.973	6988
1677.142	7011
1679.31	7023
1681.478	6908
1683.644	6960
1685.81	7061
1687.975	6975
1690.142	6895
1692.305	6929
1694.468	6887
1696.632	6990
1698.794	6859
1700.957	6868
1703.119	6865
1705.279	6787
1707.439	6927
1709.598	6948
1711.758	6743
1713.917	6879
1716.075	6761
1718.231	6744
1720.388	6813
1722.543	6878
1724.702	6752
1726.856	6865
1729.01	6811
1731.164	6824
1733.317	6794
1735.471	6806
1737.623	6796
1739.774	6785
1741.925	6782
1744.075	6821
1746.225	6937
1748.376	6812
1750.524	6777
1752.672	6948
1754.82	6841
1756.965	6839
1759.113	6681
1761.259	6823
1763.405	6860
1765.549	6825
1767.694	6817
1769.836	6829
1771.981	6958
1774.123	6818
1776.264	6912
1778.405	6963
1780.546	6934
1782.687	6915
1784.827	6836
1786.966	6897
1789.103	6937
1791.242	6953
1793.381	6982
1795.517	6948
1797.653	6922
1799.788	6979
1801.923	6932
1804.057	6946
1806.193	6813
1808.326	6753
1810.457	6950
1812.59	6922
1814.721	6830
1816.855	6935
1818.984	6887
1821.113	6751
1823.244	6902
1825.372	6941
1827.499	6839
1829.63	6763
1831.756	6871
1833.882	6773
1836.007	6930
1838.132	6790
1840.26	6857
1842.384	6881
1844.507	6864
1846.63	6895
1848.752	6751
1850.875	6813
1852.996	6802
1855.118	6859
1857.238	6775
1859.358	6822
1861.477	6831
1863.597	6865
1865.715	6934
1867.832	6711
1869.948	6895
1872.064	6823
1874.181	6869
1876.297	6851
1878.411	6801
1880.526	6869
1882.639	6897
1884.752	6831
1886.865	6869
1888.977	6894
1891.089	6839
1893.2	6832
1895.308	6865
1897.42	6834
1899.53	6863
1901.639	6712
1903.745	6837
1905.853	6890
1907.962	6794
1910.067	6873
1912.174	6854
1914.278	6946
1916.383	6918
1918.486	6907
1920.592	6943
1922.694	6932
1924.797	6785
1926.898	6948
1929	6873
1931.102	6908
1933.203	6814
1935.301	6873
1937.401	7022
1939.499	6917
1941.598	6929
1943.697	6921
1945.793	6906
1947.888	6855
1949.985	6880
1952.08	7005
1954.176	6951
1956.269	6903
1958.364	6920
1960.457	6910
1962.549	6981
1964.642	6898
1966.733	6933
1968.823	6914
1970.913	6918
1973.005	6924
1975.093	6885
1977.184	6887
1979.271	6850
1981.359	6851
1983.446	6868
1985.532	6968
1987.619	6862
1989.705	6858
1991.789	6887
1993.874	6881
1995.956	6841
1998.041	6819
2000.123	6766
2002.206	6825
2004.287	6854
2006.368	6812
2008.449	6839
2010.529	6844
2012.609	6784
2014.688	6806
2016.766	6831
2018.843	6833
2020.922	6846
2022.999	6795
2025.074	6913
2027.15	6743
2029.225	6785
2031.299	6773
2033.375	6765
2035.447	6711
2037.52	6862
2039.592	6901
2041.664	6940
2043.736	6950
2045.807	6867
2047.876	6831
2049.947	6807
2052.015	6824
2054.086	6880
2056.153	6805
2058.221	6756
2060.288	6728
2062.353	6943
2064.42	6805
2066.486	6847
2068.55	6885
2070.614	6978
2072.678	6952
2074.741	6764
2076.805	6765
2078.866	6879
2080.929	6818
2082.99	6708
2085.049	6808
2087.109	6894
2089.17	6823
2091.228	6904
2093.286	6738
2095.344	6832
2097.4	6844
2099.46	6824
2101.516	6947
2103.572	6901
2105.626	6780
2107.679	6836
2109.735	6871
2111.788	6777
2113.841	6844
2115.894	6880
2117.945	6802
2119.997	6745
2122.049	6819
2124.1	6860
2126.148	6838
2128.197	6834
2130.246	6779
2132.296	6760
2134.342	6807
2136.39	6923
2138.437	6774
2140.483	6765
2142.527	6823
2144.574	6940
2146.619	6792
2148.661	6839
2150.705	6732
2152.747	6787
2154.792	6796
2156.832	6848
2158.874	6712
2160.915	6798
2162.954	6731
2164.995	6784
2167.034	6818
2169.072	6706
2171.111	6780
2173.148	6753
2175.186	6724
2177.223	6624
2179.258	6786
2181.294	6791
2183.328	6657
2185.362	6695
2187.398	6629
2189.431	6768
2191.463	6745
2193.495	6673
2195.528	6751
2197.56	6658
2199.59	6690
2201.62	6774
2203.649	6628
2205.678	6778
2207.708	6599
2209.737	6730
2211.764	6676
2213.791	6676
2215.817	6633
2217.843	6550
2219.87	6707
2221.895	6651
2223.919	6644
2225.942	6628
2227.966	6654
2229.988	6629
2232.012	6575
2234.032	6661
2236.054	6656
2238.074	6648
2240.095	6731
2242.116	6490
2244.135	6720
2246.153	6532
2248.171	6553
2250.188	6605
2252.208	6674
2254.223	6617
2256.239	6618
2258.255	6560
2260.269	6612
2262.283	6674
2264.3	6567
2266.312	6639
2268.325	6706
2270.336	6522
2272.349	6582
2274.362	6702
2276.372	6633
2278.383	6583
2280.392	6568
2282.402	6720
2284.409	6655
2286.418	6547
2288.427	6634
2290.433	6552
2292.441	6586
2294.446	6515
2296.453	6549
2298.459	6583
2300.463	6582
2302.466	6629
2304.471	6617
2306.475	6526
2308.477	6524
2310.478	6560
2312.481	6588
2314.481	6423
2316.481	6656
2318.482	6557
2320.482	6523
2322.48	6481
2324.48	6657
2326.478	6559
2328.476	6591
2330.473	6512
2332.469	6608
2334.465	6450
2336.46	6559
2338.454	6396
2340.45	6596
2342.444	6529
2344.437	6456
2346.43	6476
2348.421	6489
2350.414	6457
2352.405	6570
2354.396	6407
2356.386	6534
2358.376	6462
2360.366	6450
2362.355	6503
2364.343	6438
2366.331	6444
2368.317	6543
2370.304	6434
2372.292	6429
2374.278	6418
2376.262	6531
2378.247	6321
2380.23	6480
2382.216	6485
2384.199	6472
2386.181	6424
2388.163	6451
2390.144	6414
2392.127	6393
2394.107	6377
2396.087	6414
2398.066	6346
2400.046	6288
2402.023	6361
2404.004	6443
2405.981	6300
2407.957	6433
2409.934	6381
2411.91	6355
2413.886	6329
2415.862	6279
2417.836	6250
2419.809	6312
2421.784	6351
2423.756	6426
2425.73	6301
2427.701	6488
2429.672	6389
2431.644	6427
2433.615	6333
2435.586	6420
2437.555	6331
2439.523	6258
2441.491	6263
2443.459	6336
2445.428	6360
2447.395	6291
2449.361	6318
2451.327	6380
2453.292	6541
2455.257	6308
2457.223	6345
2459.187	6350
2461.15	6236
2463.113	6301
2465.076	6308
2467.039	6301
2468.999	6355
2470.96	6253
2472.921	6366
2474.881	6325
2476.841	6275
2478.8	6323
2480.759	6232
2482.717	6128
2484.675	6230
2486.63	6246
2488.589	6279
2490.545	6304
2492.5	6285
2494.455	6160
2496.408	6263
2498.364	6236
2500.318	6263
2502.27	6183
2504.223	6208
2506.174	6204
2508.126	6253
2510.078	6188
2512.03	6222
2513.979	6268
2515.927	6115
2517.877	6283
2519.826	6168
2521.775	6154
2523.722	6073
2525.668	6237
2527.616	6242
2529.561	6251
2531.508	6203
2533.452	6173
2535.398	6274
2537.342	6090
2539.284	6135
2541.229	6180
2543.173	6087
2545.114	6118
2547.055	6181
2548.996	6060
2550.938	6194
2552.878	6167
2554.817	6254
2556.756	6217
2558.695	6101
2560.633	6212
2562.572	6041
2564.509	6206
2566.445	6244
2568.382	6137
2570.317	6196
2572.254	6205
2574.189	6169
2576.123	6087
2578.057	6203
2579.99	6271
2581.923	6162
2583.855	6137
2585.788	6189
2587.719	6198
2589.65	6339
2591.579	6249
2593.511	6277
2595.44	6180
2597.37	6083
2599.297	6266
2601.225	6200
2603.153	6158
2605.08	6205
2607.007	6168
2608.932	6272
2610.858	6121
2612.782	6124
2614.709	6233
2616.632	6256
2618.556	6160
2620.478	6149
2622.401	6167
2624.324	6295
2626.247	6025
2628.167	6157
2630.088	6134
2632.008	6173
2633.928	6280
2635.848	6200
2637.766	6153
2639.684	6125
2641.603	6217
2643.519	6190
2645.437	6230
2647.353	6083
2649.27	6217
2651.184	6145
2653.099	6099
2655.014	6078
2656.928	6106
2658.842	6158
2660.755	6129
2662.667	6231
2664.579	6263
2666.491	6111
2668.402	6118
2670.312	6150
2672.222	6155
2674.132	6101
2676.042	6075
2677.951	6123
2679.859	6115
2681.766	6120
2683.674	6117
2685.582	5974
2687.488	6075
2689.392	6145
2691.298	6127
2693.202	6036
2695.107	6097
2697.012	5987
2698.914	6132
2700.817	6028
2702.72	6085
2704.622	6043
2706.524	6136
2708.425	6015
2710.326	6132
2712.225	5997
2714.125	6130
2716.024	6045
2717.923	6031
2719.822	6018
2721.719	5994
2723.616	5925
2725.512	6000
2727.41	5995
2729.305	6110
2731.201	5928
2733.095	6003
2734.99	6046
2736.884	5861
2738.778	5965
2740.67	6121
2742.562	5948
2744.455	6009
2746.346	6009
2748.238	6050
2750.129	6132
2752.018	5918
2753.907	6053
2755.797	5939
2757.687	5965
2759.575	5974
2761.462	5996
2763.349	5928
2765.237	5951
2767.124	6049
2769.009	6026
2770.894	5991
2772.779	6014
2774.663	6078
2776.547	5927
2778.431	6041
2780.314	5892
2782.197	5864
2784.078	5995
2785.96	5878
2787.842	5928
2789.723	6025
2791.603	5971
2793.483	5969
2795.362	5917
2797.241	5915
2799.121	5899
2800.997	5947
2802.874	6031
2804.751	5929
2806.628	5841
2808.506	6012
2810.38	5872
2812.255	5909
2814.13	5954
2816.003	5942
2817.878	5989
2819.752	5938
2821.623	5905
2823.496	5845
2825.368	5922
2827.238	5958
2829.111	5913
2830.98	5919
2832.851	5907
2834.719	5938
2836.589	5921
2838.458	6019
2840.327	5880
2842.193	5926
2844.061	5948
2845.927	5921
2847.794	6016
2849.66	5923
2851.525	5952
2853.39	5976
2855.254	5983
2857.117	5947
2858.983	6038
2860.845	6044
2862.707	5957
2864.569	6107
2866.431	6004
2868.293	6091
2870.154	6183
2872.013	6221
2873.873	6228
2875.733	6206
2877.592	6195
2879.451	6231
2881.309	6391
2883.166	6267
2885.022	6373
2886.879	6433
2888.736	6510
2890.591	6506
2892.446	6477
2894.301	6437
2896.155	6472
2898.009	6491
2899.863	6643
2901.716	6431
2903.568	6596
2905.419	6476
2907.27	6380
2909.123	6572
2910.973	6368
2912.824	6492
2914.673	6560
2916.521	6588
2918.372	6661
2920.22	6769
2922.067	6677
2923.914	6762
2925.761	6792
2927.607	6745
2929.455	6846
2931.301	6857
2933.144	6888
2934.99	7003
2936.833	7038
2938.678	6878
2940.522	7026
2942.364	7184
2944.207	7319
2946.048	7173
2947.891	7338
2949.731	7229
2951.571	7294
2953.412	7317
2955.25	7171
2957.09	7092
2958.93	7098
2960.767	7069
2962.606	7086
2964.443	6920
2966.279	6867
2968.116	6891
2969.953	6663
2971.788	6763
2973.623	6537
2975.457	6616
2977.292	6593
2979.127	6455
2980.959	6456
2982.792	6311
2984.624	6466
2986.455	6455
2988.288	6255
2990.119	6294
2991.949	6264
2993.779	6144
2995.608	6232
2997.439	6086
2999.268	6237
3001.096	6082
3002.923	5981
3004.751	6002
3006.578	5810
3008.406	5858
3010.232	5862
3012.057	5906
3013.883	5803
3015.706	5718
3017.532	5848
3019.356	5701
3021.179	5737
3023.002	5748
3024.823	5658
3026.646	5694
3028.469	5694
3030.289	5685
3032.11	5540
3033.93	5692
3035.749	5677
3037.57	5620
3039.39	5669
3041.207	5510
3043.026	5551
3044.842	5682
3046.661	5553
3048.477	5659
3050.294	5570
3052.109	5518
3053.925	5636
3055.739	5478
3057.555	5632
3059.368	5531
3061.181	5551
3062.995	5593
3064.807	5564
3066.62	5547
3068.433	5509
3070.243	5450
3072.054	5576
3073.865	5528
3075.675	5442
3077.485	5519
3079.293	5462
3081.102	5555
3082.911	5523
3084.719	5457
3086.527	5449
3088.333	5462
3090.139	5438
3091.945	5438
3093.75	5382
3095.557	5327
3097.361	5322
3099.165	5414
3100.969	5342
3102.772	5425
3104.575	5306
3106.379	5352
3108.181	5266
3109.982	5379
3111.783	5380
3113.584	5436
3115.386	5363
3117.186	5398
3118.985	5412
3120.783	5327
3122.582	5294
3124.381	5402
3126.179	5311
3127.975	5320
3129.772	5214
3131.569	5280
3133.365	5239
3135.161	5215
3136.956	5225
3138.751	5299
3140.544	5272
3142.338	5344
3144.132	5256
3145.925	5276
3147.717	5230
3149.509	5174
3151.301	5114
3153.091	5232
3154.884	5212
3156.673	5246
3158.462	5234
3160.252	5300
3162.041	5171
3163.831	5190
3165.618	5140
3167.405	5287
3169.193	5157
3170.979	5187
3172.767	5241
3174.553	5295
3176.338	5143
3178.123	5054
3179.907	5253
3181.692	5106
3183.477	5206
3185.259	5062
3187.042	5171
3188.824	5164
3190.607	5174
3192.389	5073
3194.17	5156
3195.951	5211
3197.73	5116
3199.51	5178
3201.289	5064
3203.07	5095
3204.848	5137
3206.626	5172
3208.403	5188
3210.18	5094
3211.959	5249
3213.735	5152
3215.511	5078
3217.285	5117
3219.06	5173
3220.836	5099
3222.611	5157
3224.384	5167
3226.158	5149
3227.929	5095
3229.702	5196
3231.476	5114
3233.248	5102
3235.018	5089
3236.789	5020
3238.56	5180
3240.33	5117
3242.1	5103
3243.869	5069
3245.637	5125
3247.405	5090
3249.172	5084
3250.941	5152
3252.707	5081
3254.474	5126
3256.24	5161
3258.006	5019
3259.772	5068
3261.537	5036
3263.301	5168
3265.065	5050
3266.828	5170
3268.592	5075
3270.355	5092
3272.117	5048
3273.878	5125
3275.64	5056
3277.401	5115
3279.162	5050
3280.922	4992
3282.682	4977
3284.441	5122
3286.199	5090
3287.959	5102
3289.716	4992
3291.475	5076
3293.232	5034
3294.988	5208
3296.744	5093
3298.501	5091
3300.256	5027
3302.011	5068
3303.766	5045
3305.52	4972
3307.275	5087
3309.028	5020
3310.781	5002
3312.533	5119
3314.285	5077
3316.038	5098
3317.789	5103
3319.54	5017
3321.289	5104
3323.039	5078
3324.789	5000
3326.539	4875
3328.288	4981
3330.035	5020
3331.783	5005
3333.531	5055
3335.28	5028
3337.025	5023
3338.771	5065
3340.518	4900
3342.262	5028
3344.009	4970
3345.753	5013
3347.497	4931
3349.24	4997
3350.983	5017
3352.726	4971
3354.469	5003
3356.212	4974
3357.952	4908
3359.694	4894
3361.434	4923
3363.176	4872
3364.916	4927
3366.654	4906
3368.394	4933
3370.132	4881
3371.871	4884
3373.61	4951
3375.346	4902
3377.083	4837
3378.82	4848
3380.556	4952
3382.292	4838
3384.027	4844
3385.763	4771
3387.497	4902
3389.231	4881
3390.965	4886
3392.698	4932
3394.431	4800
3396.164	4827
3397.896	4827
3399.627	4837
3401.36	4778
3403.09	4816
3404.82	4810
3406.55	4786
3408.279	4759
3410.01	4825
3411.738	4892
3413.467	4758
3415.194	4743
3416.92	4772
3418.647	4874
3420.375	4867
3422.102	4763
3423.827	4807
3425.553	4835
3427.277	4724
3429.003	4777
3430.727	4734
3432.451	4674
3434.173	4746
3435.896	4660
3437.62	4744
3439.343	4755
3441.063	4677
3442.785	4721
3444.505	4681
3446.226	4708
3447.948	4775
3449.666	4675
3451.386	4720
3453.104	4714
3454.823	4697
3456.541	4703
3458.259	4611
3459.976	4673
3461.693	4637
3463.408	4609
3465.125	4561
3466.841	4535
3468.556	4625
3470.271	4544
3471.985	4546
3473.698	4617
3475.414	4578
3477.126	4607
3478.838	4555
3480.55	4589
3482.263	4606
3483.975	4522
3485.686	4507
3487.396	4528
3489.106	4555
3490.817	4541
3492.526	4504
3494.236	4570
3495.944	4491
3497.652	4456
3499.359	4562
3501.066	4398
3502.775	4552
3504.481	4409
3506.187	4456
3507.893	4498
3509.598	4452
3511.304	4517
3513.009	4519
3514.713	4379
3516.417	4520
3518.12	4406
3519.821	4395
3521.525	4378
3523.228	4425
3524.929	4415
3526.631	4377
3528.33	4434
3530.032	4455
3531.733	4398
3533.433	4416
3535.131	4346
3536.83	4369
3538.529	4446
3540.227	4305
3541.925	4358
3543.623	4342
3545.319	4408
3547.016	4408
3548.712	4264
3550.408	4346
3552.103	4318
3553.798	4305
3555.491	4402
3557.188	4383
3558.88	4341
3560.574	4375
3562.266	4319
3563.959	4297
3565.651	4306
3567.343	4309
3569.035	4294
3570.725	4351
3572.415	4217
3574.106	4210
3575.797	4219
3577.485	4209
3579.174	4211
3580.863	4189
3582.551	4244
3584.238	4168
3585.926	4201
3587.613	4336
3589.3	4231
3590.986	4239
3592.671	4208
3594.357	4370
3596.042	4152
3597.726	4254
3599.41	4175
3601.094	4128
3602.778	4128
3604.461	4185
3606.143	4192
3607.825	4194
3609.507	4081
3611.188	4138
3612.87	4033
3614.551	4200
3616.229	4168
3617.909	4140
3619.589	4010
3621.269	4196
3622.948	4068
3624.625	4095
3626.302	4082
3627.98	4071
3629.657	4082
3631.334	4117
3633.01	3992
3634.686	4016
3636.361	3978
3638.036	3958
3639.712	4103
3641.385	4083
3643.06	3997
3644.732	3973
3646.405	3985
3648.08	4018
3649.751	3968
3651.424	3979
3653.094	4010
3654.766	3964
3656.436	3973
3658.106	4048
3659.777	3989
3661.446	4026
3663.115	3891
3664.783	3972
3666.452	4018
3668.121	4012
3669.788	3971
3671.454	3954
3673.121	3908
3674.789	3967
3676.455	3921
3678.12	3925
3679.784	3978
3681.45	3879
3683.114	3949
3684.779	3918
3686.442	3947
3688.105	3949
3689.768	3929
3691.43	4003
3693.093	3915
3694.754	3919
3696.415	3915
3698.076	3818
3699.736	3897
3701.396	3919
3703.057	3891
3704.716	3800
3706.375	3829
3708.034	3901
3709.692	3809
3711.351	3805
3713.008	3873
3714.665	3807
3716.321	3795
3717.977	3740
3719.634	3922
3721.29	3794
3722.945	3889
3724.598	3826
3726.253	3829
3727.907	3795
3729.561	3882
3731.214	3787
3732.867	3832
3734.518	3911
3736.171	3782
3737.824	3886
3739.474	3829
3741.125	3798
3742.775	3769
3744.425	3831
3746.074	3732
3747.725	3818
3749.373	3768
3751.022	3764
3752.669	3690
3754.318	3851
3755.966	3829
3757.612	3694
3759.259	3810
3760.905	3769
3762.55	3818
3764.197	3727
3765.842	3713
3767.486	3873
3769.131	3746
3770.774	3705
3772.417	3757
3774.061	3796
3775.705	3815
3777.347	3647
3778.988	3695
3780.629	3653
3782.271	3737
3783.912	3704
3785.552	3733
3787.192	3720
3788.831	3683
3790.472	3735
3792.112	3659
3793.75	3711
3795.388	3620
3797.024	3620
3798.661	3716
3800.3	3696
3801.936	3640
3803.572	3658
3805.208	3615
3806.844	3690
3808.48	3631
3810.115	3662
3811.748	3614
3813.382	3647
3815.016	3613
3816.649	3558
3818.283	3757
3819.914	3609
3821.547	3602
3823.178	3554
3824.809	3571
3826.441	3616
3828.072	3570
3829.701	3576
3831.331	3570
3832.96	3666
3834.591	3573
3836.219	3539
3837.847	3615
3839.475	3587
3841.102	3593
3842.729	3532
3844.357	3570
3845.984	3595
3847.609	3684
3849.234	3529
3850.86	3508
3852.485	3541
3854.11	3529
3855.734	3501
3857.357	3552
3858.981	3475
3860.603	3599
3862.227	3512
3863.848	3525
3865.471	3551
3867.092	3499
3868.713	3529
3870.334	3541
3871.954	3512
3873.575	3532
3875.194	3468
3876.813	3492
3878.433	3470
3880.051	3552
3881.669	3452
3883.286	3533
3884.904	3543
3886.52	3622
3888.138	3478
3889.754	3405
3891.37	3507
3892.985	3452
3894.6	3532
3896.216	3462
3897.831	3462
3899.444	3420
3901.058	3404
3902.67	3462
3904.283	3528
3905.897	3441
3907.509	3508
3909.121	3391
3910.731	3449
3912.342	3431
3913.954	3454
3915.563	3407
3917.174	3436
3918.783	3385
3920.391	3448
3922.002	3384
3923.611	3473
3925.218	3415
3926.826	3466
3928.432	3419
3930.039	3390
3931.647	3374
3933.253	3361
3934.859	3380
3936.464	3463
3938.068	3385
3939.675	3442
3941.278	3427
3942.883	3387
3944.486	3478
3946.089	3422
3947.692	3364
3949.295	3428
3950.898	3384
3952.499	3370
3954.1	3398
3955.7	3339
3957.303	3302
3958.903	3297
3960.502	3298
3962.101	3352
3963.7	3368
3965.301	3392
3966.899	3262
3968.497	3333
3970.094	3364
3971.691	3277
3973.288	3367
3974.885	3271
3976.481	3380
3978.077	3338
3979.672	3257
3981.267	3297
3982.863	3249
3984.457	3317
3986.051	3350
3987.645	3254
3989.238	3245
3990.831	3308
3992.425	3269
3994.017	3253
3995.607	3214
3997.199	3215
3998.79	3210
4000.382	3285
4001.973	3190
4003.561	3227
4005.151	3211
4006.741	3223
4008.331	3215
4009.918	3225
4011.507	3221
4013.095	3175
4014.681	3173
4016.269	3170
4017.856	3192
4019.443	3137
4021.028	3235
4022.614	3172
4024.199	3159
4025.785	3188
4027.37	3173
4028.953	3210
4030.536	3092
4032.12	3160
4033.704	3194
4035.287	3110
4036.869	3156
4038.45	3173
4040.032	3115
4041.613	3097
4043.195	3184
4044.776	3078
4046.356	3135
4047.935	3117
4049.515	3078
4051.095	3143
4052.674	3112
4054.251	3086
4055.829	3153
4057.406	3067
4058.985	3081
4060.562	3134
4062.139	3023
4063.715	3041
4065.29	3176
4066.865	3142
4068.442	3144
4070.016	3107
4071.59	3120
4073.164	3075
4074.738	3082
4076.312	3025
4077.885	3048
4079.458	3052
4081.03	3091
4082.602	3062
4084.173	3126
4085.745	2984
4087.315	3023
4088.886	3167
4090.456	3067
4092.026	2987
4093.596	3085
4095.165	3035
4096.734	3061
4098.301	3062
4099.869	3004
4101.437	3098
4103.006	3020
4104.572	3009
4106.139	2974
4107.704	3031
4109.27	3066
4110.837	3036
4112.401	3010
4113.966	3045
4115.53	2980
4117.094	2981
4118.659	3043
4120.223	2941
4121.785	2972
4123.347	2927
4124.909	3007
4126.471	2978
4128.034	3015
4129.595	2951
4131.155	2962
4132.716	2915
4134.275	3001
4135.836	2965
4137.395	2896
4138.955	2949
4140.513	2931
4142.071	2899
4143.628	2935
4145.188	2870
4146.745	2840
4148.302	2944
4149.858	2992
4151.414	2906
4152.971	2949
4154.526	2887
4156.081	2861
4157.635	2972
4159.189	2890
4160.745	2844
4162.298	2914
4163.852	2866
4165.405	2907
4166.957	2832
4168.51	2907
4170.063	2872
4171.614	2821
4173.166	2877
4174.717	2800
4176.267	2829
4177.817	2931
4179.368	2868
4180.917	2802
4182.466	2843
4184.016	2865
4185.564	2748
4187.112	2791
4188.66	2841
4190.207	2749
4191.754	2828
4193.301	2848
4194.848	2828
4196.394	2869
4197.94	2818
4199.484	2841
4201.03	2782
4202.575	2812
4204.12	2829
4205.663	2849
4207.207	2801
4208.75	2719
4210.292	2769
4211.836	2795
4213.378	2823
4214.92	2733
4216.46	2757
4218.002	2777
4219.544	2766
4221.083	2783
4222.625	2833
4224.164	2826
4225.703	2792
4227.244	2730
4228.782	2753
4230.32	2692
4231.857	2753
4233.395	2809
4234.933	2769
4236.471	2733
4238.007	2838
4239.542	2760
4241.078	2725
4242.614	2746
4244.15	2786
4245.685	2750
4247.219	2731
4248.753	2698
4250.287	2765
4251.82	2666
4253.354	2739
4254.887	2679
4256.419	2654
4257.951	2728
4259.483	2714
4261.016	2725
4262.547	2719
4264.078	2690
4265.608	2720
4267.137	2710
4268.668	2621
4270.197	2667
4271.727	2703
4273.254	2619
4274.783	2670
4276.311	2634
4277.84	2691
4279.366	2680
4280.894	2568
4282.42	2681
4283.946	2605
4285.473	2625
4286.998	2644
4288.523	2648
4290.047	2647
4291.572	2646
4293.096	2636
4294.622	2719
4296.144	2635
4297.668	2654
4299.19	2635
4300.713	2649
4302.236	2598
4303.758	2599
4305.279	2647
4306.799	2626
4308.321	2588
4309.842	2615
4311.361	2630
4312.882	2551
4314.401	2652
