400.0961	7495
402.6185	7561
405.1424	7472
407.6635	7423
410.1838	7671
412.7035	7500
415.2225	7538
417.7388	7510
420.2585	7783
422.7754	7703
425.2917	7798
427.8072	7705
430.3221	7808
432.8363	7818
435.3498	7950
437.8626	8095
440.3727	7888
442.8841	7916
445.3969	8081
447.907	7941
450.4142	8003
452.9229	7960
455.4289	8047
457.9362	7873
460.4449	7983
462.9488	7866
465.454	8167
467.9566	8029
470.4604	8042
472.9637	8022
475.4662	8079
477.966	8094
480.4671	8230
482.9656	8176
485.4633	8323
487.9645	8290
490.4608	8232
492.9566	8329
495.4536	8268
497.948	8366
500.4437	8365
502.9387	8439
505.431	8427
507.9226	8518
510.4136	8595
512.9079	8381
515.3975	8366
517.8864	8476
520.3746	8560
522.8622	8440
525.3491	8485
527.8394	8516
530.3249	8410
532.8098	8424
535.2939	8415
537.7774	8546
540.2623	8540
542.7444	8580
545.2259	8508
547.7067	8439
550.1868	8462
552.6683	8573
555.147	8459
557.6231	8488
560.1005	8631
562.5773	8639
565.0534	8461
567.5308	8742
570.0056	8638
572.4776	8725
574.951	8608
577.4237	8893
579.8978	8680
582.3671	8778
584.8378	8705
587.3079	8721
589.7773	8655
592.244	8775
594.714	8733
597.1793	8799
599.6461	8764
602.1121	8967
604.5754	8740
607.0421	8632
609.5042	8720
611.9675	8851
614.4282	8743
616.8902	8888
619.3515	8724
621.8122	8755
624.2702	8934
626.7296	8914
629.1863	8879
631.6423	8900
634.1017	8899
636.5563	8749
639.0104	8986
641.4658	8798
643.9185	8839
646.3725	8912
648.8239	8948
651.2766	8917
653.7266	8952
656.176	9106
658.6247	9031
661.0748	9020
663.5242	8986
665.9709	9070
668.417	8992
670.8624	9078
673.3092	9007
675.7533	9146
678.1968	9190
680.6395	9195
683.0817	9151
685.5251	9182
687.9659	9200
690.4061	9261
692.8456	9166
695.2844	9345
697.7226	9265
700.1621	9091
702.599	9190
705.0332	9364
707.4688	9266
709.9036	9307
712.3399	9292
714.7735	9306
717.2044	9426
719.6367	9371
722.0683	9377
724.4993	9519
726.9296	9535
729.3593	9476
731.7883	9503
734.2147	9577
736.6423	9497
739.0714	9643
741.4958	9675
743.9216	9619
746.3447	9647
748.7691	9720
751.1929	9669
753.616	9866
756.0366	9824
758.4584	9806
760.8776	9691
763.2982	9936
765.718	9938
768.1373	9696
770.5539	9970
772.9698	9959
775.3871	9760
777.8038	9735
780.2178	9768
782.6332	9948
785.0459	9863
787.458	9938
789.8714	9957
792.2842	9846
794.6943	9675
797.1038	9954
799.5127	9932
801.9209	9913
804.3324	9821
806.7393	9944
809.1456	9940
811.5513	9888
813.9562	9882
816.3625	9890
818.7663	10036
821.1693	9946
823.5718	10093
825.9735	10167
828.3746	9929
830.7771	9794
833.177	9860
835.5762	10044
837.9747	10009
840.3727	10160
842.772	10053
845.1666	10013
847.5626	10093
849.958	10087
852.3527	9981
854.7488	10193
857.1403	10122
859.5331	10089
861.9253	10095
864.3168	10064
866.7057	10104
869.098	10133
871.4876	9999
873.8746	10140
876.263	9862
878.6487	10038
881.0378	10065
883.4243	10049
885.8081	10090
888.1933	10163
890.5759	10121
892.9598	10082
895.343	10210
897.7256	10184
900.1057	10051
902.4871	10072
904.8659	10319
907.246	10014
909.6254	10196
912.0023	10309
914.3786	10391
916.7562	10371
919.1331	10471
921.5074	10368
923.8831	10589
926.2562	10550
928.6287	10519
931.0005	10662
933.3757	10524
935.7462	10589
938.1162	10496
940.4855	10447
942.8542	10598
945.2242	10599
947.5916	10500
949.9584	10395
952.3266	10615
954.6921	10638
957.0571	10733
959.4233	10963
961.787	10897
964.15	10932
966.5125	10798
968.8742	10756
971.2354	10714
973.5959	10582
975.9559	10608
978.3151	10606
980.6738	10410
983.0338	10390
985.3912	10404
987.7461	10484
990.1022	10506
992.4578	10438
994.8127	10421
997.1689	10536
999.5207	10465
1001.874	10545
1004.226	10515
1006.576	10388
1008.929	10472
1011.28	10361
1013.628	10486
1015.977	10405
1018.324	10486
1020.674	10530
1023.019	10460
1025.366	10444
1027.713	10632
1030.056	10457
1032.399	10521
1034.746	10499
1037.087	10592
1039.431	10435
1041.771	10553
1044.113	10568
1046.454	10481
1048.793	10604
1051.133	10584
1053.471	10415
1055.807	10647
1058.146	10631
1060.483	10580
1062.818	10660
1065.153	10641
1067.489	10765
1069.822	10608
1072.156	10672
1074.488	10696
1076.82	10728
1079.15	10591
1081.48	10655
1083.814	10699
1086.143	10755
1088.471	10706
1090.799	10827
1093.126	10633
1095.452	10519
1097.78	10603
1100.105	10651
1102.43	10627
1104.754	10752
1107.077	10807
1109.4	10792
1111.722	10769
1114.044	10745
1116.365	10864
1118.685	10828
1121.005	10824
1123.324	10754
1125.643	10909
1127.961	10991
1130.278	10937
1132.595	10906
1134.911	10849
1137.226	10926
1139.541	10682
1141.854	10898
1144.167	10935
1146.482	11026
1148.793	10848
1151.105	10977
1153.414	10728
1155.725	10948
1158.033	10894
1160.344	10799
1162.651	10775
1164.959	10984
1167.265	10837
1169.572	10877
1171.878	10971
1174.184	10875
1176.488	10835
1178.79	10908
1181.094	10915
1183.396	10991
1185.699	10831
1188.001	10882
1190.301	10985
1192.6	10846
1194.9	10969
1197.2	10780
1199.497	10895
1201.794	10815
1204.09	10859
1206.387	10857
1208.684	10848
1210.978	10910
1213.272	10848
1215.565	10851
1217.858	10981
1220.15	10940
1222.443	10997
1224.734	11034
1227.024	11073
1229.313	10869
1231.602	10918
1233.892	11036
1236.18	11022
1238.467	11118
1240.754	11097
1243.04	11067
1245.325	11002
1247.612	11189
1249.896	11097
1252.178	11254
1254.461	11107
1256.743	11137
1259.027	11256
1261.308	11291
1263.587	11140
1265.867	11093
1268.146	11371
1270.425	11126
1272.703	11113
1274.981	11132
1277.256	11090
1279.532	11278
1281.808	11063
1284.083	11241
1286.358	11130
1288.63	11006
1290.904	11106
1293.175	11060
1295.449	11064
1297.719	11043
1299.99	11148
1302.259	11139
1304.529	10974
1306.798	11091
1309.065	11007
1311.333	11086
1313.599	11134
1315.866	11065
1318.131	11279
1320.396	11128
1322.66	11122
1324.925	11157
1327.187	10996
1329.448	11074
1331.711	11079
1333.974	11217
1336.234	11003
1338.493	11216
1340.752	10970
1343.01	11100
1345.269	11233
1347.526	11154
1349.784	11022
1352.04	11064
1354.295	11034
1356.552	11051
1358.806	11264
1361.059	11133
1363.312	11055
1365.564	11156
1367.818	11221
1370.069	11143
1372.318	11125
1374.568	11036
1376.817	11152
1379.066	11128
1381.316	11044
1383.564	11257
1385.809	11216
1388.056	11279
1390.301	11228
1392.549	11246
1394.793	11402
1397.036	11371
1399.279	11297
1401.522	11367
1403.763	11515
1406.007	11423
1408.248	11475
1410.487	11480
1412.727	11348
1414.965	11306
1417.205	11408
1419.442	11316
1421.68	11475
1423.915	11212
1426.152	11413
1428.388	11264
1430.623	11544
1432.857	11533
1435.091	11447
1437.323	11630
1439.556	11479
1441.789	11641
1444.019	11521
1446.25	11665
1448.48	11443
1450.708	11431
1452.938	11479
1455.167	11662
1457.394	11624
1459.62	11547
1461.846	11496
1464.073	11492
1466.299	11561
1468.523	11396
1470.746	11435
1472.969	11469
1475.191	11127
1477.415	11315
1479.636	11357
1481.858	11214
1484.078	11336
1486.298	11280
1488.518	11199
1490.736	11185
1492.954	11281
1495.169	10970
1497.386	11242
1499.602	11239
1501.819	11195
1504.034	11126
1506.248	11210
1508.462	11304
1510.675	11259
1512.888	11120
1515.1	11140
1517.311	11177
1519.522	11092
1521.732	11184
1523.942	11210
1526.151	11125
1528.36	11034
1530.566	11312
1532.773	11155
1534.98	11137
1537.187	11155
1539.392	11176
1541.596	11118
1543.801	11158
1546.005	11141
1548.208	11268
1550.411	11226
1552.612	11314
1554.814	11272
1557.013	11328
1559.212	11359
1561.414	11312
1563.612	11336
1565.811	11526
1568.007	11395
1570.203	11310
1572.403	11304
1574.598	11467
1576.792	11413
1578.988	11500
1581.181	11538
1583.376	11462
1585.568	11564
1587.761	11503
1589.952	11388
1592.143	11551
1594.333	11435
1596.524	11507
1598.715	11401
1600.903	11402
1603.091	11631
1605.278	11574
1607.466	11654
1609.652	11516
1611.838	11451
1614.023	11567
1616.207	11634
1618.391	11497
1620.576	11397
1622.759	11525
1624.941	11594
1627.123	11419
1629.304	11649
1631.484	11596
1633.664	11563
1635.844	11547
1638.022	11612
1640.201	11547
1642.38	11568
1644.556	11512
1646.732	11466
1648.908	11550
1651.084	11525
1653.257	11515
1655.433	11643
1657.607	11562
1659.779	11688
1661.951	11479
1664.122	11611
1666.295	11575
1668.467	11716
1670.635	11730
1672.805	11762
1674.973	11530
1677.142	11516
1679.31	11538
1681.478	11438
1683.644	11597
1685.81	11568
1687.975	11519
1690.142	11565
1692.305	11545
1694.468	11738
1696.632	11484
1698.794	11707
1700.957	11420
1703.119	11448
1705.279	11393
1707.439	11397
1709.598	11510
1711.758	11501
1713.917	11451
1716.075	11423
1718.231	11500
1720.388	11434
1722.543	11475
1724.702	11513
1726.856	11381
1729.01	11429
1731.164	11567
1733.317	11514
1735.471	11471
1737.623	11333
1739.774	11457
1741.925	11395
1744.075	11455
1746.225	11554
1748.376	11413
1750.524	11539
1752.672	11531
1754.82	11472
1756.965	11556
1759.113	11545
1761.259	11596
1763.405	11328
1765.549	11441
1767.694	11375
1769.836	11658
1771.981	11452
1774.123	11442
1776.264	11627
1778.405	11484
1780.546	11624
1782.687	11442
1784.827	11512
1786.966	11533
1789.103	11476
1791.242	11691
1793.381	11521
1795.517	11487
1797.653	11601
1799.788	11525
1801.923	11646
1804.057	11623
1806.193	11442
1808.326	11692
1810.457	11708
1812.59	11556
1814.721	11582
1816.855	11611
1818.984	11456
1821.113	11520
1823.244	11593
1825.372	11613
1827.499	11396
1829.63	11577
1831.756	11530
1833.882	11490
1836.007	11387
1838.132	11440
1840.26	11538
1842.384	11718
1844.507	11371
1846.63	11341
1848.752	11350
1850.875	11466
1852.996	11371
1855.118	11549
1857.238	11386
1859.358	11323
1861.477	11465
1863.597	11473
1865.715	11533
1867.832	11418
1869.948	11446
1872.064	11310
1874.181	11371
1876.297	11412
1878.411	11413
1880.526	11417
1882.639	11577
1884.752	11532
1886.865	11312
1888.977	11358
1891.089	11421
1893.2	11546
1895.308	11401
1897.42	11383
1899.53	11386
1901.639	11455
1903.745	11251
1905.853	11620
1907.962	11496
1910.067	11419
1912.174	11470
1914.278	11553
1916.383	11642
1918.486	11491
1920.592	11577
1922.694	11485
1924.797	11494
1926.898	11598
1929	11572
1931.102	11646
1933.203	11617
1935.301	11434
1937.401	11501
1939.499	11606
1941.598	11711
1943.697	11585
1945.793	11520
1947.888	11434
1949.985	11513
1952.08	11381
1954.176	11644
1956.269	11631
1958.364	11497
1960.457	11708
1962.549	11643
1964.642	11459
1966.733	11570
1968.823	11580
1970.913	11590
1973.005	11592
1975.093	11491
1977.184	11618
1979.271	11422
1981.359	11381
1983.446	11455
1985.532	11468
1987.619	11431
1989.705	11287
1991.789	11436
1993.874	11474
1995.956	11468
1998.041	11280
2000.123	11333
2002.206	11447
2004.287	11397
2006.368	11238
2008.449	11463
2010.529	11593
2012.609	11347
2014.688	11246
2016.766	11513
2018.843	11418
2020.922	11213
2022.999	11321
2025.074	11370
2027.15	11348
2029.225	11194
2031.299	11377
2033.375	11487
2035.447	11369
2037.52	11393
2039.592	11531
2041.664	11377
2043.736	11455
2045.807	11406
2047.876	11503
2049.947	11407
2052.015	11309
2054.086	11349
2056.153	11270
2058.221	11429
2060.288	11511
2062.353	11382
2064.42	11278
2066.486	11542
2068.55	11343
2070.614	11370
2072.678	11339
2074.741	11359
2076.805	11344
2078.866	11433
2080.929	11438
2082.99	11235
2085.049	11476
2087.109	11394
2089.17	11312
2091.228	11406
2093.286	11311
2095.344	11410
2097.4	11154
2099.46	11361
2101.516	11475
2103.572	11239
2105.626	11296
2107.679	11323
2109.735	11341
2111.788	11157
2113.841	11303
2115.894	11266
2117.945	11513
2119.997	11410
2122.049	11218
2124.1	11343
2126.148	11315
2128.197	11317
2130.246	11479
2132.296	11202
2134.342	11252
2136.39	11302
2138.437	11166
2140.483	11264
2142.527	11129
2144.574	11276
2146.619	11264
2148.661	11251
2150.705	11055
2152.747	11229
2154.792	11257
2156.832	11127
2158.874	11195
2160.915	11248
2162.954	11111
2164.995	11264
2167.034	11234
2169.072	11119
2171.111	11230
2173.148	11104
2175.186	11161
2177.223	11149
2179.258	11233
2181.294	11221
2183.328	10939
2185.362	11152
2187.398	11162
2189.431	11285
2191.463	11144
2193.495	10954
2195.528	11083
2197.56	10981
2199.59	11025
2201.62	10857
2203.649	11112
2205.678	10889
2207.708	10879
2209.737	11044
2211.764	10990
2213.791	10896
2215.817	10977
2217.843	10915
2219.87	10948
2221.895	10927
2223.919	11025
2225.942	11003
2227.966	10934
2229.988	11060
2232.012	10886
2234.032	10986
2236.054	10900
2238.074	10984
2240.095	10937
2242.116	10803
2244.135	10988
2246.153	10839
2248.171	10818
2250.188	10848
2252.208	10843
2254.223	10992
2256.239	10891
2258.255	10800
2260.269	10902
2262.283	10844
2264.3	10875
2266.312	10796
2268.325	10931
2270.336	10713
2272.349	10765
2274.362	10882
2276.372	10827
2278.383	10900
2280.392	10847
2282.402	10943
2284.409	10922
2286.418	10770
2288.427	10774
2290.433	10838
2292.441	10867
2294.446	10881
2296.453	10885
2298.459	10854
2300.463	10866
2302.466	10759
2304.471	10751
2306.475	10925
2308.477	10692
2310.478	10779
2312.481	10853
2314.481	10844
2316.481	10851
2318.482	10653
2320.482	10779
2322.48	10691
2324.48	10684
2326.478	10671
2328.476	10709
2330.473	10690
2332.469	10670
2334.465	10690
2336.46	10711
2338.454	10699
2340.45	10636
2342.444	10577
2344.437	10639
2346.43	10550
2348.421	10633
2350.414	10632
2352.405	10546
2354.396	10615
2356.386	10466
2358.376	10557
2360.366	10550
2362.355	10522
2364.343	10537
2366.331	10509
2368.317	10490
2370.304	10500
2372.292	10440
2374.278	10452
2376.262	10738
2378.247	10488
2380.23	10466
2382.216	10499
2384.199	10458
2386.181	10451
2388.163	10335
2390.144	10503
2392.127	10532
2394.107	10211
2396.087	10427
2398.066	10454
2400.046	10468
2402.023	10368
2404.004	10261
2405.981	10305
2407.957	10399
2409.934	10389
2411.91	10384
2413.886	10416
2415.862	10325
2417.836	10258
2419.809	10407
2421.784	10436
2423.756	10327
2425.73	10423
2427.701	10488
2429.672	10391
2431.644	10299
2433.615	10287
2435.586	10368
2437.555	10403
2439.523	10372
2441.491	10325
2443.459	10441
2445.428	10193
2447.395	10188
2449.361	10208
2451.327	10243
2453.292	10331
2455.257	10264
2457.223	10296
2459.187	10326
2461.15	10222
2463.113	10318
2465.076	10473
2467.039	10121
2468.999	10172
2470.96	10252
2472.921	10265
2474.881	10313
2476.841	10190
2478.8	10175
2480.759	10281
2482.717	10150
2484.675	10174
2486.63	10176
2488.589	10273
2490.545	10174
2492.5	9952
2494.455	10127
2496.408	10160
2498.364	10221
2500.318	10177
2502.27	10077
2504.223	10156
2506.174	10048
2508.126	10212
2510.078	10189
2512.03	9993
2513.979	10088
2515.927	10065
2517.877	10030
2519.826	9918
2521.775	10096
2523.722	9965
2525.668	10126
2527.616	9940
2529.561	10036
2531.508	10098
2533.452	10160
2535.398	10119
2537.342	9937
2539.284	10102
2541.229	10059
2543.173	9955
2545.114	9987
2547.055	10017
2548.996	9996
2550.938	10015
2552.878	10106
2554.817	10028
2556.756	9946
2558.695	10015
2560.633	9841
2562.572	9951
2564.509	9973
2566.445	10103
2568.382	9969
2570.317	10058
2572.254	10045
2574.189	10096
2576.123	9815
2578.057	9972
2579.99	9916
2581.923	10128
2583.855	9839
2585.788	10026
2587.719	9869
2589.65	10080
2591.579	9992
2593.511	9899
2595.44	9963
2597.37	9955
2599.297	9954
2601.225	10175
2603.153	9964
2605.08	9945
2607.007	10012
2608.932	9883
2610.858	9926
2612.782	9816
2614.709	9940
2616.632	9964
2618.556	9903
2620.478	9951
2622.401	9891
2624.324	9913
2626.247	10057
2628.167	9898
2630.088	9952
2632.008	9872
2633.928	9973
2635.848	10002
2637.766	9868
2639.684	10084
2641.603	9989
2643.519	9949
2645.437	9924
2647.353	9868
2649.27	10039
2651.184	9852
2653.099	9949
2655.014	9848
2656.928	9847
2658.842	9895
2660.755	9937
2662.667	9848
2664.579	9896
2666.491	9937
2668.402	9953
2670.312	9852
2672.222	9701
2674.132	9666
2676.042	9939
2677.951	9806
2679.859	9874
2681.766	9672
2683.674	9751
2685.582	9852
2687.488	9675
2689.392	9829
2691.298	9731
2693.202	9850
2695.107	9797
2697.012	9766
2698.914	9736
2700.817	9851
2702.72	9708
2704.622	9715
2706.524	9719
2708.425	9653
2710.326	9634
2712.225	9818
2714.125	9605
2716.024	9717
2717.923	9641
2719.822	9660
2721.719	9691
2723.616	9675
2725.512	9640
2727.41	9741
2729.305	9591
2731.201	9616
2733.095	9701
2734.99	9659
2736.884	9684
2738.778	9570
2740.67	9526
2742.562	9645
2744.455	9596
2746.346	9587
2748.238	9623
2750.129	9507
2752.018	9557
2753.907	9556
2755.797	9587
2757.687	9632
2759.575	9539
2761.462	9400
2763.349	9494
2765.237	9594
2767.124	9474
2769.009	9521
2770.894	9581
2772.779	9418
2774.663	9647
2776.547	9478
2778.431	9530
2780.314	9395
2782.197	9451
2784.078	9595
2785.96	9385
2787.842	9451
2789.723	9494
2791.603	9541
2793.483	9449
2795.362	9426
2797.241	9490
2799.121	9448
2800.997	9252
2802.874	9289
2804.751	9401
2806.628	9401
2808.506	9526
2810.38	9439
2812.255	9471
2814.13	9314
2816.003	9286
2817.878	9227
2819.752	9327
2821.623	9346
2823.496	9297
2825.368	9407
2827.238	9397
2829.111	9388
2830.98	9368
2832.851	9223
2834.719	9443
2836.589	9362
2838.458	9272
2840.327	9182
2842.193	9253
2844.061	9244
2845.927	9332
2847.794	9329
2849.66	9282
2851.525	9398
2853.39	9396
2855.254	9441
2857.117	9386
2858.983	9369
2860.845	9440
2862.707	9345
2864.569	9421
2866.431	9450
2868.293	9417
2870.154	9524
2872.013	9518
2873.873	9473
2875.733	9494
2877.592	9493
2879.451	9532
2881.309	9558
2883.166	9467
2885.022	9623
2886.879	9840
2888.736	9542
2890.591	9706
2892.446	9714
2894.301	9681
2896.155	9690
2898.009	9746
2899.863	9564
2901.716	9697
2903.568	9676
2905.419	9523
2907.27	9586
2909.123	9551
2910.973	9603
2912.824	9778
2914.673	9624
2916.521	9635
2918.372	9645
2920.22	9582
2922.067	9614
2923.914	9765
2925.761	9702
2927.607	9637
2929.455	9829
2931.301	9791
2933.144	9712
2934.99	9806
2936.833	9885
2938.678	9864
2940.522	9785
2942.364	9963
2944.207	9996
2946.048	10010
2947.891	10173
2949.731	10083
2951.571	10212
2953.412	10145
2955.25	9980
2957.09	10052
2958.93	9881
2960.767	10011
2962.606	9914
2964.443	9952
2966.279	9944
2968.116	9704
2969.953	9667
2971.788	9676
2973.623	9623
2975.457	9329
2977.292	9496
2979.127	9449
2980.959	9417
2982.792	9434
2984.624	9357
2986.455	9219
2988.288	9187
2990.119	9087
2991.949	9219
2993.779	9123
2995.608	9115
2997.439	9102
2999.268	9135
3001.096	9130
3002.923	8982
3004.751	8995
3006.578	8983
3008.406	9091
3010.232	8918
3012.057	8828
3013.883	8880
3015.706	8865
3017.532	8825
3019.356	8794
3021.179	8676
3023.002	8772
3024.823	8641
3026.646	8636
3028.469	8714
3030.289	8862
3032.11	8653
3033.93	8682
3035.749	8654
3037.57	8622
3039.39	8632
3041.207	8630
3043.026	8671
3044.842	8673
3046.661	8603
3048.477	8631
3050.294	8524
3052.109	8658
3053.925	8488
3055.739	8481
3057.555	8629
3059.368	8557
3061.181	8519
3062.995	8540
3064.807	8450
3066.62	8543
3068.433	8684
3070.243	8513
3072.054	8511
3073.865	8518
3075.675	8445
3077.485	8508
3079.293	8386
3081.102	8385
3082.911	8415
3084.719	8308
3086.527	8487
3088.333	8468
3090.139	8421
3091.945	8387
3093.75	8433
3095.557	8223
3097.361	8301
3099.165	8398
3100.969	8210
3102.772	8338
3104.575	8284
3106.379	8241
3108.181	8176
3109.982	8201
3111.783	8249
3113.584	8275
3115.386	8120
3117.186	8165
3118.985	8149
3120.783	8286
3122.582	8242
3124.381	8131
3126.179	8193
3127.975	8142
3129.772	8217
3131.569	8247
3133.365	8183
3135.161	8116
3136.956	8113
3138.751	8222
3140.544	8151
3142.338	7980
3144.132	8099
3145.925	8148
3147.717	7950
3149.509	8143
3151.301	8188
3153.091	7966
3154.884	8046
3156.673	8004
3158.462	8153
3160.252	8059
3162.041	8019
3163.831	8041
3165.618	7947
3167.405	7989
3169.193	7978
3170.979	7947
3172.767	7787
3174.553	7992
3176.338	7946
3178.123	8043
3179.907	7903
3181.692	7918
3183.477	7877
3185.259	7873
3187.042	7919
3188.824	7850
3190.607	7933
3192.389	7813
3194.17	7871
3195.951	7879
3197.73	7886
3199.51	7732
3201.289	7784
3203.07	7864
3204.848	7718
3206.626	7806
3208.403	7873
3210.18	7771
3211.959	7781
3213.735	7822
3215.511	7621
3217.285	7832
3219.06	7684
3220.836	7746
3222.611	7716
3224.384	7773
3226.158	7664
3227.929	7616
3229.702	7752
3231.476	7741
3233.248	7784
3235.018	7624
3236.789	7785
3238.56	7668
3240.33	7702
3242.1	7719
3243.869	7656
3245.637	7639
3247.405	7694
3249.172	7727
3250.941	7734
3252.707	7539
3254.474	7654
3256.24	7632
3258.006	7618
3259.772	7706
3261.537	7635
3263.301	7679
3265.065	7761
3266.828	7687
3268.592	7725
3270.355	7769
3272.117	7636
3273.878	7586
3275.64	7724
3277.401	7669
3279.162	7873
3280.922	7599
3282.682	7589
3284.441	7595
3286.199	7613
3287.959	7602
3289.716	7604
3291.475	7585
3293.232	7549
3294.988	7602
3296.744	7608
3298.501	7599
3300.256	7522
3302.011	7634
3303.766	7506
3305.52	7571
3307.275	7660
3309.028	7421
3310.781	7555
3312.533	7527
3314.285	7549
3316.038	7555
3317.789	7381
3319.54	7540
3321.289	7529
3323.039	7483
3324.789	7418
3326.539	7504
3328.288	7459
3330.035	7541
3331.783	7310
3333.531	7407
3335.28	7453
3337.025	7338
3338.771	7472
3340.518	7434
3342.262	7581
3344.009	7408
3345.753	7475
3347.497	7440
3349.24	7317
3350.983	7431
3352.726	7352
3354.469	7362
3356.212	7381
3357.952	7413
3359.694	7321
3361.434	7441
3363.176	7282
3364.916	7289
3366.654	7432
3368.394	7200
3370.132	7295
3371.871	7154
3373.61	7498
3375.346	7358
3377.083	7235
3378.82	7322
3380.556	7195
3382.292	7259
3384.027	7148
3385.763	7109
3387.497	7194
3389.231	7112
3390.965	7254
3392.698	7120
3394.431	7145
3396.164	7251
3397.896	7250
3399.627	7159
3401.36	7248
3403.09	7098
3404.82	7150
3406.55	7213
3408.279	7113
3410.01	7095
3411.738	7120
3413.467	7006
3415.194	7232
3416.92	7193
3418.647	7168
3420.375	7113
3422.102	7144
3423.827	7162
3425.553	7140
3427.277	7046
3429.003	7082
3430.727	6988
3432.451	7138
3434.173	7043
3435.896	7046
3437.62	6977
3439.343	7031
3441.063	7057
3442.785	7009
3444.505	6846
3446.226	6959
3447.948	6936
3449.666	6820
3451.386	6863
3453.104	6830
3454.823	7008
3456.541	6802
3458.259	6832
3459.976	6895
3461.693	6788
3463.408	6822
3465.125	6949
3466.841	6904
3468.556	6808
3470.271	6769
3471.985	6767
3473.698	6858
3475.414	6887
3477.126	6876
3478.838	6790
3480.55	6931
3482.263	6791
3483.975	6862
3485.686	6815
3487.396	6837
3489.106	6758
3490.817	6747
3492.526	6783
3494.236	6707
3495.944	6722
3497.652	6716
3499.359	6652
3501.066	6809
3502.775	6729
3504.481	6711
3506.187	6753
3507.893	6762
3509.598	6641
3511.304	6721
3513.009	6539
3514.713	6652
3516.417	6616
3518.12	6615
3519.821	6700
3521.525	6614
3523.228	6539
3524.929	6590
3526.631	6627
3528.33	6636
3530.032	6614
3531.733	6671
3533.433	6599
3535.131	6575
3536.83	6519
3538.529	6499
3540.227	6508
3541.925	6480
3543.623	6493
3545.319	6504
3547.016	6581
3548.712	6507
3550.408	6530
3552.103	6557
3553.798	6482
3555.491	6589
3557.188	6461
3558.88	6490
3560.574	6505
3562.266	6556
3563.959	6510
3565.651	6498
3567.343	6466
3569.035	6378
3570.725	6390
3572.415	6458
3574.106	6395
3575.797	6409
3577.485	6400
3579.174	6296
3580.863	6294
3582.551	6476
3584.238	6350
3585.926	6402
3587.613	6425
3589.3	6345
3590.986	6416
3592.671	6277
3594.357	6434
3596.042	6348
3597.726	6342
3599.41	6342
3601.094	6236
3602.778	6253
3604.461	6240
3606.143	6296
3607.825	6306
3609.507	6299
3611.188	6202
3612.87	6222
3614.551	6249
3616.229	6210
3617.909	6188
3619.589	6296
3621.269	6082
3622.948	6241
3624.625	6151
3626.302	6187
3627.98	6099
3629.657	6141
3631.334	6220
3633.01	6145
3634.686	6075
3636.361	6164
3638.036	6174
3639.712	6185
3641.385	6031
3643.06	6002
3644.732	5938
3646.405	5999
3648.08	6077
3649.751	6131
3651.424	6062
3653.094	6067
3654.766	6006
3656.436	6057
3658.106	6037
3659.777	5996
3661.446	6077
3663.115	5959
3664.783	5892
3666.452	5986
3668.121	6082
3669.788	5916
3671.454	5977
3673.121	6008
3674.789	5945
3676.455	5950
3678.12	6017
3679.784	6017
3681.45	5929
3683.114	5937
3684.779	5896
3686.442	5929
3688.105	5804
3689.768	5902
3691.43	5925
3693.093	5941
3694.754	5972
3696.415	5895
3698.076	5901
3699.736	5871
3701.396	5854
3703.057	5801
3704.716	5763
3706.375	5959
3708.034	5812
3709.692	5724
3711.351	5937
3713.008	5812
3714.665	5795
3716.321	5831
3717.977	5769
3719.634	5704
3721.29	5917
3722.945	5840
3724.598	5878
3726.253	5836
3727.907	5817
3729.561	5698
3731.214	5841
3732.867	5736
3734.518	5856
3736.171	5661
3737.824	5757
3739.474	5841
3741.125	5711
3742.775	5692
3744.425	5833
3746.074	5721
3747.725	5758
3749.373	5685
3751.022	5717
3752.669	5607
3754.318	5827
3755.966	5709
3757.612	5574
3759.259	5742
3760.905	5668
3762.55	5742
3764.197	5634
3765.842	5709
3767.486	5626
3769.131	5774
3770.774	5743
3772.417	5660
3774.061	5661
3775.705	5582
3777.347	5533
3778.988	5691
3780.629	5661
3782.271	5604
3783.912	5585
3785.552	5724
3787.192	5583
3788.831	5518
3790.472	5566
3792.112	5530
3793.75	5547
3795.388	5508
3797.024	5441
3798.661	5497
3800.3	5437
3801.936	5522
3803.572	5497
3805.208	5550
3806.844	5470
3808.48	5500
3810.115	5421
3811.748	5400
3813.382	5556
3815.016	5526
3816.649	5470
3818.283	5484
3819.914	5465
3821.547	5522
3823.178	5413
3824.809	5444
3826.441	5395
3828.072	5424
3829.701	5468
3831.331	5345
3832.96	5383
3834.591	5325
3836.219	5354
3837.847	5435
3839.475	5380
3841.102	5371
3842.729	5364
3844.357	5462
3845.984	5363
3847.609	5274
3849.234	5411
3850.86	5356
3852.485	5282
3854.11	5251
3855.734	5208
3857.357	5339
3858.981	5225
3860.603	5218
3862.227	5397
3863.848	5251
3865.471	5228
3867.092	5169
3868.713	5282
3870.334	5288
3871.954	5281
3873.575	5262
3875.194	5233
3876.813	5270
3878.433	5272
3880.051	5323
3881.669	5297
3883.286	5198
3884.904	5275
3886.52	5268
3888.138	5211
3889.754	5183
3891.37	5151
3892.985	5117
3894.6	5193
3896.216	5142
3897.831	5189
3899.444	5178
3901.058	5147
3902.67	5137
3904.283	5180
3905.897	5150
3907.509	5128
3909.121	5095
3910.731	5101
3912.342	5138
3913.954	5125
3915.563	5173
3917.174	5140
3918.783	5081
3920.391	5155
3922.002	5096
3923.611	5157
3925.218	5048
3926.826	5155
3928.432	5079
3930.039	5075
3931.647	5137
3933.253	5031
3934.859	5057
3936.464	5163
3938.068	5034
3939.675	5061
3941.278	5016
3942.883	5103
3944.486	5017
3946.089	5011
3947.692	5130
3949.295	4970
3950.898	5106
3952.499	4998
3954.1	4975
3955.7	4980
3957.303	4969
3958.903	5044
3960.502	4980
3962.101	4875
3963.7	5047
3965.301	4945
3966.899	4941
3968.497	4980
3970.094	4939
3971.691	4896
3973.288	4907
3974.885	5039
3976.481	4916
3978.077	4806
3979.672	4860
3981.267	4925
3982.863	4866
3984.457	4959
3986.051	4797
3987.645	4867
3989.238	4882
3990.831	4792
3992.425	4755
3994.017	4823
3995.607	4874
3997.199	4770
3998.79	4781
4000.382	4798
4001.973	4893
4003.561	4803
4005.151	4741
4006.741	4790
4008.331	4759
4009.918	4785
4011.507	4767
4013.095	4761
4014.681	4766
4016.269	4812
4017.856	4680
4019.443	4755
4021.028	4737
4022.614	4733
4024.199	4823
4025.785	4659
4027.37	4741
4028.953	4758
4030.536	4640
4032.12	4696
4033.704	4660
4035.287	4746
4036.869	4626
4038.45	4629
4040.032	4550
4041.613	4704
4043.195	4623
4044.776	4646
4046.356	4651
4047.935	4676
4049.515	4678
4051.095	4600
4052.674	4534
4054.251	4504
4055.829	4530
4057.406	4697
4058.985	4623
4060.562	4632
4062.139	4635
4063.715	4559
4065.29	4514
4066.865	4625
4068.442	4573
4070.016	4527
4071.59	4585
4073.164	4642
4074.738	4550
4076.312	4496
4077.885	4581
4079.458	4456
4081.03	4579
4082.602	4431
4084.173	4558
4085.745	4575
4087.315	4452
4088.886	4416
4090.456	4514
4092.026	4486
4093.596	4514
4095.165	4400
4096.734	4516
4098.301	4437
4099.869	4428
4101.437	4546
4103.006	4418
4104.572	4474
4106.139	4401
4107.704	4470
4109.27	4496
4110.837	4402
4112.401	4442
4113.966	4369
4115.53	4403
4117.094	4450
4118.659	4354
4120.223	4462
4121.785	4431
4123.347	4358
4124.909	4305
4126.471	4354
4128.034	4418
4129.595	4358
4131.155	4351
4132.716	4293
4134.275	4323
4135.836	4249
4137.395	4361
4138.955	4301
4140.513	4343
4142.071	4229
4143.628	4268
4145.188	4291
4146.745	4333
4148.302	4270
4149.858	4242
4151.414	4281
4152.971	4243
4154.526	4217
4156.081	4240
4157.635	4324
4159.189	4282
4160.745	4216
4162.298	4273
4163.852	4218
4165.405	4175
4166.957	4225
4168.51	4144
4170.063	4181
4171.614	4222
4173.166	4213
4174.717	4234
4176.267	4229
4177.817	4256
4179.368	4225
4180.917	4145
4182.466	4180
4184.016	4256
4185.564	4191
4187.112	4065
4188.66	4136
4190.207	4156
4191.754	4102
4193.301	4092
4194.848	4073
4196.394	4215
4197.94	4095
4199.484	4118
4201.03	4031
4202.575	4031
4204.12	3999
4205.663	4133
4207.207	4106
4208.75	4133
4210.292	4039
4211.836	4064
4213.378	4097
4214.92	4044
4216.46	3966
4218.002	4102
4219.544	4008
4221.083	4004
4222.625	4012
4224.164	3992
4225.703	3998
4227.244	4037
4228.782	4017
4230.32	4000
4231.857	4030
4233.395	4057
4234.933	3954
4236.471	3973
4238.007	4025
4239.542	3978
4241.078	3980
4242.614	4038
4244.15	3992
4245.685	3958
4247.219	3850
4248.753	3991
4250.287	3937
4251.82	3952
4253.354	3984
4254.887	3998
4256.419	3902
4257.951	3947
4259.483	3948
4261.016	3890
4262.547	3906
4264.078	3939
4265.608	3912
4267.137	3995
4268.668	3849
4270.197	3857
4271.727	3898
4273.254	3887
4274.783	3871
4276.311	3939
4277.84	3848
4279.366	3888
4280.894	3949
4282.42	3795
4283.946	3907
4285.473	3847
4286.998	3990
4288.523	3901
4290.047	3855
4291.572	3819
4293.096	3815
4294.622	3792
4296.144	3865
4297.668	3891
4299.19	3773
4300.713	3810
4302.236	3707
4303.758	3838
4305.279	3801
4306.799	3805
4308.321	3776
4309.842	3742
4311.361	3715
4312.882	3688
4314.401	3771
