400.0961	4115
402.6185	4086
405.1424	4090
407.6635	4196
410.1838	4140
412.7035	4152
415.2225	4215
417.7388	4151
420.2585	4146
422.7754	4272
425.2917	4439
427.8072	4321
430.3221	4461
432.8363	4402
435.3498	4539
437.8626	4489
440.3727	4470
442.8841	4505
445.3969	4404
447.907	4410
450.4142	4389
452.9229	4435
455.4289	4372
457.9362	4378
460.4449	4377
462.9488	4349
465.454	4322
467.9566	4254
470.4604	4343
472.9637	4297
475.4662	4331
477.966	4312
480.4671	4378
482.9656	4338
485.4633	4365
487.9645	4414
490.4608	4395
492.9566	4456
495.4536	4353
497.948	4489
500.4437	4474
502.9387	4398
505.431	4448
507.9226	4441
510.4136	4393
512.9079	4346
515.3975	4419
517.8864	4438
520.3746	4515
522.8622	4517
525.3491	4466
527.8394	4475
530.3249	4548
532.8098	4489
535.2939	4511
537.7774	4476
540.2623	4485
542.7444	4517
545.2259	4528
547.7067	4512
550.1868	4591
552.6683	4559
555.147	4541
557.6231	4587
560.1005	4564
562.5773	4584
565.0534	4497
567.5308	4602
570.0056	4517
572.4776	4720
574.951	4567
577.4237	4653
579.8978	4682
582.3671	4775
584.8378	4651
587.3079	4681
589.7773	4701
592.244	4786
594.714	4734
597.1793	4724
599.6461	4654
602.1121	4645
604.5754	4701
607.0421	4654
609.5042	4678
611.9675	4731
614.4282	4608
616.8902	4596
619.3515	4634
621.8122	4593
624.2702	4572
626.7296	4658
629.1863	4663
631.6423	4606
634.1017	4527
636.5563	4481
639.0104	4690
641.4658	4700
643.9185	4589
646.3725	4665
648.8239	4689
651.2766	4654
653.7266	4630
656.176	4749
658.6247	4736
661.0748	4678
663.5242	4771
665.9709	4689
668.417	4666
670.8624	4714
673.3092	4713
675.7533	4772
678.1968	4700
680.6395	4749
683.0817	4695
685.5251	4815
687.9659	4739
690.4061	4842
692.8456	4796
695.2844	4763
697.7226	4822
700.1621	4880
702.599	4791
705.0332	4816
707.4688	4885
709.9036	4821
712.3399	4743
714.7735	4947
717.2044	4846
719.6367	4946
722.0683	4895
724.4993	4981
726.9296	5004
729.3593	4927
731.7883	4931
734.2147	4872
736.6423	4863
739.0714	5060
741.4958	5075
743.9216	5034
746.3447	4943
748.7691	5105
751.1929	5110
753.616	5089
756.0366	5046
758.4584	5185
760.8776	5029
763.2982	5160
765.718	5101
768.1373	5113
770.5539	5146
772.9698	5080
775.3871	5181
777.8038	5103
780.2178	5047
782.6332	5178
785.0459	5071
787.458	5146
789.8714	5170
792.2842	5051
794.6943	5159
797.1038	5093
799.5127	5058
801.9209	5158
804.3324	5099
806.7393	5159
809.1456	5140
811.5513	5206
813.9562	5259
816.3625	5163
818.7663	5227
821.1693	5199
823.5718	5206
825.9735	5201
828.3746	5166
830.7771	5131
833.177	5102
835.5762	5227
837.9747	5179
840.3727	5248
842.772	5271
845.1666	5329
847.5626	5398
849.958	5402
852.3527	5585
854.7488	5404
857.1403	5409
859.5331	5486
861.9253	5506
864.3168	5398
866.7057	5351
869.098	5423
871.4876	5369
873.8746	5326
876.263	5391
878.6487	5302
881.0378	5325
883.4243	5365
885.8081	5346
888.1933	5446
890.5759	5354
892.9598	5374
895.343	5386
897.7256	5319
900.1057	5370
902.4871	5392
904.8659	5438
907.246	5464
909.6254	5463
912.0023	5526
914.3786	5447
916.7562	5717
919.1331	5710
921.5074	5856
923.8831	5937
926.2562	5865
928.6287	5890
931.0005	5892
933.3757	5874
935.7462	6012
938.1162	5794
940.4855	5908
942.8542	5987
945.2242	5903
947.5916	6055
949.9584	6323
952.3266	6373
954.6921	6594
957.0571	6917
959.4233	7250
961.787	7447
964.15	7265
966.5125	7055
968.8742	6747
971.2354	6297
973.5959	6375
975.9559	6045
978.3151	5878
980.6738	5768
983.0338	5734
985.3912	5684
987.7461	5685
990.1022	5645
992.4578	5558
994.8127	5607
997.1689	5550
999.5207	5630
1001.874	5623
1004.226	5660
1006.576	5605
1008.929	5622
1011.28	5661
1013.628	5497
1015.977	5506
1018.324	5535
1020.674	5654
1023.019	5671
1025.366	5646
1027.713	5547
1030.056	5518
1032.399	5734
1034.746	5697
1037.087	5697
1039.431	5725
1041.771	5640
1044.113	5719
1046.454	5681
1048.793	5582
1051.133	5626
1053.471	5590
1055.807	5773
1058.146	5766
1060.483	5816
1062.818	5781
1065.153	5777
1067.489	5794
1069.822	5877
1072.156	5940
1074.488	5835
1076.82	5772
1079.15	5700
1081.48	5775
1083.814	5658
1086.143	5616
1088.471	5726
1090.799	5706
1093.126	5647
1095.452	5768
1097.78	5715
1100.105	5717
1102.43	5727
1104.754	5676
1107.077	5706
1109.4	5676
1111.722	5791
1114.044	5719
1116.365	5752
1118.685	5617
1121.005	5729
1123.324	5702
1125.643	5691
1127.961	5883
1130.278	5705
1132.595	5725
1134.911	5659
1137.226	5686
1139.541	5668
1141.854	5674
1144.167	5693
1146.482	5654
1148.793	5659
1151.105	5689
1153.414	5708
1155.725	5750
1158.033	5636
1160.344	5723
1162.651	5671
1164.959	5663
1167.265	5722
1169.572	5748
1171.878	5721
1174.184	5820
1176.488	5720
1178.79	5913
1181.094	5815
1183.396	5869
1185.699	5818
1188.001	5692
1190.301	5555
1192.6	5594
1194.9	5746
1197.2	5770
1199.497	5713
1201.794	5700
1204.09	5789
1206.387	5734
1208.684	5646
1210.978	5718
1213.272	5696
1215.565	5782
1217.858	5879
1220.15	5759
1222.443	5708
1224.734	5819
1227.024	5961
1229.313	5831
1231.602	5910
1233.892	5887
1236.18	5859
1238.467	5947
1240.754	6038
1243.04	6151
1245.325	6131
1247.612	6062
1249.896	6028
1252.178	6145
1254.461	5991
1256.743	5988
1259.027	6069
1261.308	6076
1263.587	5988
1265.867	5985
1268.146	6121
1270.425	6240
1272.703	6135
1274.981	6025
1277.256	6066
1279.532	5996
1281.808	6027
1284.083	6021
1286.358	6041
1288.63	5928
1290.904	5936
1293.175	5951
1295.449	5983
1297.719	6053
1299.99	6005
1302.259	5797
1304.529	5996
1306.798	5960
1309.065	6040
1311.333	5987
1313.599	5864
1315.866	5930
1318.131	5917
1320.396	5857
1322.66	5914
1324.925	6057
1327.187	5946
1329.448	6024
1331.711	6095
1333.974	6056
1336.234	5964
1338.493	5968
1340.752	5856
1343.01	5861
1345.269	5937
1347.526	5961
1349.784	5924
1352.04	5942
1354.295	5847
1356.552	5960
1358.806	5873
1361.059	5921
1363.312	5795
1365.564	5909
1367.818	5846
1370.069	5948
1372.318	5989
1374.568	5947
1376.817	5929
1379.066	6036
1381.316	6079
1383.564	5956
1385.809	6027
1388.056	6102
1390.301	6189
1392.549	6159
1394.793	6248
1397.036	6247
1399.279	6284
1401.522	6408
1403.763	6307
1406.007	6305
1408.248	6387
1410.487	6320
1412.727	6336
1414.965	6434
1417.205	6322
1419.442	6391
1421.68	6238
1423.915	6199
1426.152	6225
1428.388	6259
1430.623	6248
1432.857	6232
1435.091	6244
1437.323	6307
1439.556	6308
1441.789	6470
1444.019	6364
1446.25	6316
1448.48	6476
1450.708	6485
1452.938	6338
1455.167	6512
1457.394	6529
1459.62	6391
1461.846	6368
1464.073	6380
1466.299	6416
1468.523	6221
1470.746	6207
1472.969	6257
1475.191	6007
1477.415	6096
1479.636	6119
1481.858	5902
1484.078	5916
1486.298	6044
1488.518	5956
1490.736	5987
1492.954	5865
1495.169	5891
1497.386	5783
1499.602	5912
1501.819	5896
1504.034	5844
1506.248	5873
1508.462	5751
1510.675	5779
1512.888	5939
1515.1	5840
1517.311	5941
1519.522	5832
1521.732	5825
1523.942	5816
1526.151	5955
1528.36	5845
1530.566	5866
1532.773	5911
1534.98	5887
1537.187	5858
1539.392	5876
1541.596	5823
1543.801	5866
1546.005	5917
1548.208	5799
1550.411	6020
1552.612	6031
1554.814	6011
1557.013	5991
1559.212	6015
1561.414	6049
1563.612	5943
1565.811	6016
1568.007	6052
1570.203	6044
1572.403	6106
1574.598	5969
1576.792	6030
1578.988	6035
1581.181	6038
1583.376	6156
1585.568	6105
1587.761	6027
1589.952	6038
1592.143	6116
1594.333	6142
1596.524	6038
1598.715	6106
1600.903	6113
1603.091	6085
1605.278	6164
1607.466	5987
1609.652	6126
1611.838	6192
1614.023	6208
1616.207	6241
1618.391	6023
1620.576	6207
1622.759	6159
1624.941	6222
1627.123	6132
1629.304	6194
1631.484	6252
1633.664	6194
1635.844	6216
1638.022	6337
1640.201	6152
1642.38	6213
1644.556	6132
1646.732	6203
1648.908	6249
1651.084	6318
1653.257	6298
1655.433	6276
1657.607	6282
1659.779	6251
1661.951	6224
1664.122	6318
1666.295	6371
1668.467	6328
1670.635	6357
1672.805	6352
1674.973	6274
1677.142	6367
1679.31	6421
1681.478	6306
1683.644	6417
1685.81	6322
1687.975	6231
1690.142	6319
1692.305	6257
1694.468	6234
1696.632	6177
1698.794	6113
1700.957	6047
1703.119	6052
1705.279	6034
1707.439	6111
1709.598	6069
1711.758	5976
1713.917	6124
1716.075	6110
1718.231	6078
1720.388	6152
1722.543	6003
1724.702	5951
1726.856	6098
1729.01	6037
1731.164	5918
1733.317	6027
1735.471	6092
1737.623	6023
1739.774	6007
1741.925	6149
1744.075	5970
1746.225	6014
1748.376	6061
1750.524	6084
1752.672	6012
1754.82	6011
1756.965	5964
1759.113	6053
1761.259	6012
1763.405	6057
1765.549	6070
1767.694	5995
1769.836	6109
1771.981	6130
1774.123	5953
1776.264	6033
1778.405	6145
1780.546	6070
1782.687	6049
1784.827	6102
1786.966	6169
1789.103	6085
1791.242	6052
1793.381	6061
1795.517	6125
1797.653	6012
1799.788	6121
1801.923	6077
1804.057	6094
1806.193	6126
1808.326	6095
1810.457	6133
1812.59	6107
1814.721	6028
1816.855	6013
1818.984	6064
1821.113	6012
1823.244	6034
1825.372	6143
1827.499	6047
1829.63	5983
1831.756	6147
1833.882	6125
1836.007	6072
1838.132	6010
1840.26	6106
1842.384	5987
1844.507	6207
1846.63	6161
1848.752	6002
1850.875	5912
1852.996	6100
1855.118	6048
1857.238	5999
1859.358	6020
1861.477	6037
1863.597	5969
1865.715	6119
1867.832	6097
1869.948	6020
1872.064	5907
1874.181	5983
1876.297	6030
1878.411	5879
1880.526	6124
1882.639	6062
1884.752	6078
1886.865	6158
1888.977	6007
1891.089	6080
1893.2	6106
1895.308	6056
1897.42	6093
1899.53	6006
1901.639	6089
1903.745	6045
1905.853	6053
1907.962	6001
1910.067	6134
1912.174	6073
1914.278	6156
1916.383	6073
1918.486	6254
1920.592	6081
1922.694	6225
1924.797	6122
1926.898	6122
1929	6086
1931.102	6086
1933.203	6173
1935.301	6124
1937.401	6121
1939.499	6098
1941.598	6170
1943.697	6185
1945.793	6143
1947.888	6049
1949.985	6117
1952.08	6068
1954.176	6105
1956.269	6185
1958.364	6137
1960.457	6245
1962.549	6183
1964.642	6084
1966.733	6113
1968.823	5989
1970.913	6166
1973.005	6121
1975.093	6158
1977.184	6176
1979.271	6064
1981.359	6119
1983.446	6089
1985.532	6187
1987.619	6003
1989.705	6158
1991.789	6106
1993.874	6145
1995.956	6030
1998.041	6052
2000.123	6100
2002.206	6084
2004.287	6099
2006.368	6073
2008.449	6004
2010.529	6044
2012.609	6140
2014.688	6094
2016.766	6134
2018.843	6117
2020.922	6167
2022.999	6048
2025.074	6024
2027.15	6138
2029.225	6115
2031.299	6086
2033.375	6084
2035.447	6150
2037.52	6018
2039.592	6163
2041.664	6036
2043.736	6044
2045.807	6121
2047.876	6048
2049.947	5986
2052.015	5934
2054.086	6095
2056.153	5996
2058.221	6082
2060.288	6171
2062.353	6054
2064.42	6031
2066.486	5999
2068.55	6024
2070.614	6044
2072.678	6042
2074.741	6145
2076.805	6048
2078.866	6052
2080.929	6036
2082.99	6029
2085.049	6047
2087.109	6007
2089.17	6149
2091.228	6071
2093.286	6006
2095.344	6228
2097.4	6059
2099.46	6103
2101.516	6015
2103.572	6082
2105.626	6100
2107.679	6087
2109.735	6131
2111.788	6089
2113.841	6043
2115.894	6076
2117.945	6019
2119.997	6105
2122.049	6094
2124.1	6038
2126.148	6046
2128.197	6122
2130.246	6048
2132.296	5905
2134.342	6034
2136.39	6046
2138.437	6106
2140.483	6062
2142.527	6056
2144.574	6076
2146.619	6142
2148.661	5992
2150.705	6042
2152.747	6085
2154.792	5945
2156.832	6095
2158.874	6082
2160.915	6084
2162.954	6023
2164.995	6094
2167.034	5976
2169.072	6005
2171.111	6066
2173.148	6027
2175.186	5867
2177.223	6005
2179.258	6036
2181.294	5998
2183.328	5996
2185.362	5993
2187.398	5940
2189.431	5855
2191.463	5921
2193.495	6074
2195.528	5983
2197.56	5927
2199.59	5880
2201.62	5886
2203.649	5930
2205.678	5960
2207.708	5921
2209.737	5899
2211.764	5990
2213.791	5868
2215.817	5856
2217.843	5892
2219.87	5764
2221.895	5930
2223.919	5921
2225.942	5940
2227.966	5853
2229.988	5745
2232.012	5831
2234.032	5957
2236.054	5835
2238.074	5899
2240.095	5950
2242.116	5922
2244.135	5881
2246.153	5814
2248.171	6018
2250.188	5855
2252.208	5878
2254.223	5929
2256.239	5936
2258.255	5827
2260.269	5904
2262.283	5855
2264.3	5876
2266.312	5927
2268.325	5878
2270.336	5933
2272.349	5848
2274.362	5903
2276.372	5866
2278.383	5856
2280.392	5761
2282.402	5848
2284.409	5834
2286.418	5811
2288.427	5920
2290.433	5884
2292.441	5980
2294.446	5819
2296.453	5893
2298.459	5997
2300.463	5836
2302.466	5867
2304.471	5911
2306.475	5863
2308.477	5825
2310.478	5887
2312.481	5842
2314.481	5843
2316.481	5728
2318.482	5841
2320.482	5840
2322.48	5853
2324.48	5740
2326.478	5859
2328.476	5864
2330.473	5754
2332.469	5838
2334.465	5829
2336.46	5847
2338.454	5828
2340.45	5758
2342.444	5810
2344.437	5825
2346.43	5771
2348.421	5813
2350.414	5741
2352.405	5819
2354.396	5776
2356.386	5687
2358.376	5687
2360.366	5839
2362.355	5671
2364.343	5850
2366.331	5771
2368.317	5725
2370.304	5744
2372.292	5733
2374.278	5737
2376.262	5763
2378.247	5630
2380.23	5744
2382.216	5796
2384.199	5697
2386.181	5774
2388.163	5693
2390.144	5614
2392.127	5732
2394.107	5661
2396.087	5691
2398.066	5676
2400.046	5697
2402.023	5613
2404.004	5584
2405.981	5629
2407.957	5765
2409.934	5702
2411.91	5658
2413.886	5749
2415.862	5620
2417.836	5634
2419.809	5735
2421.784	5701
2423.756	5599
2425.73	5670
2427.701	5734
2429.672	5789
2431.644	5690
2433.615	5752
2435.586	5756
2437.555	5754
2439.523	5566
2441.491	5669
2443.459	5612
2445.428	5758
2447.395	5694
2449.361	5750
2451.327	5653
2453.292	5629
2455.257	5712
2457.223	5620
2459.187	5629
2461.15	5678
2463.113	5652
2465.076	5632
2467.039	5709
2468.999	5720
2470.96	5656
2472.921	5473
2474.881	5720
2476.841	5675
2478.8	5583
2480.759	5640
2482.717	5630
2484.675	5567
2486.63	5489
2488.589	5553
2490.545	5506
2492.5	5580
2494.455	5564
2496.408	5638
2498.364	5650
2500.318	5542
2502.27	5645
2504.223	5522
2506.174	5540
2508.126	5568
2510.078	5668
2512.03	5540
2513.979	5460
2515.927	5643
2517.877	5643
2519.826	5570
2521.775	5547
2523.722	5456
2525.668	5637
2527.616	5459
2529.561	5548
2531.508	5540
2533.452	5555
2535.398	5571
2537.342	5521
2539.284	5545
2541.229	5557
2543.173	5442
2545.114	5550
2547.055	5605
2548.996	5486
2550.938	5546
2552.878	5476
2554.817	5548
2556.756	5551
2558.695	5535
2560.633	5457
2562.572	5502
2564.509	5685
2566.445	5499
2568.382	5512
2570.317	5570
2572.254	5585
2574.189	5561
2576.123	5480
2578.057	5508
2579.99	5602
2581.923	5541
2583.855	5562
2585.788	5582
2587.719	5522
2589.65	5645
2591.579	5512
2593.511	5587
2595.44	5501
2597.37	5461
2599.297	5573
2601.225	5566
2603.153	5493
2605.08	5435
2607.007	5526
2608.932	5463
2610.858	5562
2612.782	5481
2614.709	5579
2616.632	5555
2618.556	5600
2620.478	5556
2622.401	5489
2624.324	5630
2626.247	5583
2628.167	5480
2630.088	5515
2632.008	5555
2633.928	5540
2635.848	5506
2637.766	5659
2639.684	5575
2641.603	5531
2643.519	5595
2645.437	5569
2647.353	5544
2649.27	5452
2651.184	5508
2653.099	5598
2655.014	5581
2656.928	5578
2658.842	5524
2660.755	5518
2662.667	5535
2664.579	5608
2666.491	5597
2668.402	5529
2670.312	5485
2672.222	5482
2674.132	5530
2676.042	5532
2677.951	5509
2679.859	5534
2681.766	5490
2683.674	5440
2685.582	5513
2687.488	5474
2689.392	5486
2691.298	5506
2693.202	5558
2695.107	5566
2697.012	5498
2698.914	5552
2700.817	5456
2702.72	5593
2704.622	5326
2706.524	5547
2708.425	5415
2710.326	5515
2712.225	5487
2714.125	5438
2716.024	5423
2717.923	5435
2719.822	5451
2721.719	5451
2723.616	5399
2725.512	5484
2727.41	5433
2729.305	5405
2731.201	5466
2733.095	5428
2734.99	5452
2736.884	5406
2738.778	5542
2740.67	5374
2742.562	5449
2744.455	5467
2746.346	5452
2748.238	5463
2750.129	5533
2752.018	5474
2753.907	5403
2755.797	5416
2757.687	5333
2759.575	5486
2761.462	5343
2763.349	5436
2765.237	5290
2767.124	5448
2769.009	5442
2770.894	5445
2772.779	5426
2774.663	5410
2776.547	5368
2778.431	5297
2780.314	5414
2782.197	5477
2784.078	5438
2785.96	5344
2787.842	5465
2789.723	5415
2791.603	5542
2793.483	5350
2795.362	5342
2797.241	5435
2799.121	5382
2800.997	5397
2802.874	5441
2804.751	5334
2806.628	5385
2808.506	5404
2810.38	5276
2812.255	5363
2814.13	5456
2816.003	5479
2817.878	5462
2819.752	5412
2821.623	5456
2823.496	5397
2825.368	5431
2827.238	5356
2829.111	5362
2830.98	5419
2832.851	5394
2834.719	5536
2836.589	5371
2838.458	5421
2840.327	5462
2842.193	5432
2844.061	5527
2845.927	5405
2847.794	5450
2849.66	5473
2851.525	5452
2853.39	5482
2855.254	5623
2857.117	5522
2858.983	5542
2860.845	5716
2862.707	5575
2864.569	5654
2866.431	5697
2868.293	5690
2870.154	5878
2872.013	5914
2873.873	5990
2875.733	6101
2877.592	6130
2879.451	6102
2881.309	6233
2883.166	6172
2885.022	6306
2886.879	6346
2888.736	6290
2890.591	6408
2892.446	6440
2894.301	6586
2896.155	6378
2898.009	6494
2899.863	6391
2901.716	6429
2903.568	6370
2905.419	6442
2907.27	6439
2909.123	6399
2910.973	6454
2912.824	6536
2914.673	6491
2916.521	6531
2918.372	6664
2920.22	6790
2922.067	6793
2923.914	6888
2925.761	6939
2927.607	6937
2929.455	7081
2931.301	7095
2933.144	7109
2934.99	7191
2936.833	7344
2938.678	7527
2940.522	7465
2942.364	7642
2944.207	7803
2946.048	7780
2947.891	7861
2949.731	7965
2951.571	7827
2953.412	7854
2955.25	7755
2957.09	7637
2958.93	7624
2960.767	7456
2962.606	7399
2964.443	7310
2966.279	7207
2968.116	7128
2969.953	6986
2971.788	6926
2973.623	6722
2975.457	6735
2977.292	6688
2979.127	6554
2980.959	6528
2982.792	6415
2984.624	6413
2986.455	6436
2988.288	6254
2990.119	6375
2991.949	6251
2993.779	6083
2995.608	6072
2997.439	6106
2999.268	5979
3001.096	5969
3002.923	5910
3004.751	5823
3006.578	5669
3008.406	5593
3010.232	5613
3012.057	5639
3013.883	5457
3015.706	5501
3017.532	5597
3019.356	5503
3021.179	5392
3023.002	5480
3024.823	5471
3026.646	5277
3028.469	5384
3030.289	5288
3032.11	5198
3033.93	5209
3035.749	5353
3037.57	5220
3039.39	5173
3041.207	5204
3043.026	5203
3044.842	5181
3046.661	5255
3048.477	5266
3050.294	5328
3052.109	5223
3053.925	5139
3055.739	5254
3057.555	5138
3059.368	5138
3061.181	5200
3062.995	5200
3064.807	5084
3066.62	5116
3068.433	5294
3070.243	5183
3072.054	5093
3073.865	5184
3075.675	5180
3077.485	5225
3079.293	5141
3081.102	5194
3082.911	5090
3084.719	5014
3086.527	5135
3088.333	5110
3090.139	5085
3091.945	5002
3093.75	4998
3095.557	4974
3097.361	5004
3099.165	5004
3100.969	5033
3102.772	5040
3104.575	4998
3106.379	4976
3108.181	4909
3109.982	5037
3111.783	4943
3113.584	4890
3115.386	5021
3117.186	5081
3118.985	4888
3120.783	4996
3122.582	4986
3124.381	4856
3126.179	4800
3127.975	4962
3129.772	4947
3131.569	4906
3133.365	4946
3135.161	4922
3136.956	4826
3138.751	4919
3140.544	4862
3142.338	4958
3144.132	4898
3145.925	4814
3147.717	4968
3149.509	4835
3151.301	4906
3153.091	4851
3154.884	4777
3156.673	4901
3158.462	4848
3160.252	4971
3162.041	4875
3163.831	4841
3165.618	4805
3167.405	4814
3169.193	4933
3170.979	4839
3172.767	4835
3174.553	4846
3176.338	4910
3178.123	4841
3179.907	4898
3181.692	4853
3183.477	4850
3185.259	4814
3187.042	4825
3188.824	4903
3190.607	4792
3192.389	4794
3194.17	4800
3195.951	4848
3197.73	4913
3199.51	4909
3201.289	4872
3203.07	4890
3204.848	4821
3206.626	4847
3208.403	4903
3210.18	4782
3211.959	4739
3213.735	4745
3215.511	4901
3217.285	4774
3219.06	4765
3220.836	4803
3222.611	4852
3224.384	4933
3226.158	4895
3227.929	4985
3229.702	4915
3231.476	4827
3233.248	4781
3235.018	4827
3236.789	4884
3238.56	4860
3240.33	4817
3242.1	4840
3243.869	4790
3245.637	4915
3247.405	4843
3249.172	4870
3250.941	4874
3252.707	4809
3254.474	4783
3256.24	4856
3258.006	4777
3259.772	4798
3261.537	4920
3263.301	4777
3265.065	4779
3266.828	4770
3268.592	4736
3270.355	4876
3272.117	4892
3273.878	4785
3275.64	4946
3277.401	4877
3279.162	4943
3280.922	4765
3282.682	4852
3284.441	4830
3286.199	4857
3287.959	4845
3289.716	4789
3291.475	4936
3293.232	4927
3294.988	4862
3296.744	4788
3298.501	4873
3300.256	4818
3302.011	4788
3303.766	4840
3305.52	4783
3307.275	4878
3309.028	4814
3310.781	4847
3312.533	4822
3314.285	4825
3316.038	4810
3317.789	4811
3319.54	4840
3321.289	4922
3323.039	4859
3324.789	4822
3326.539	4802
3328.288	4792
3330.035	4854
3331.783	4799
3333.531	4822
3335.28	4758
3337.025	4885
3338.771	4826
3340.518	4722
3342.262	4803
3344.009	4778
3345.753	4812
3347.497	4776
3349.24	4703
3350.983	4821
3352.726	4799
3354.469	4731
3356.212	4693
3357.952	4778
3359.694	4644
3361.434	4746
3363.176	4672
3364.916	4664
3366.654	4675
3368.394	4726
3370.132	4638
3371.871	4608
3373.61	4666
3375.346	4728
3377.083	4711
3378.82	4625
3380.556	4681
3382.292	4695
3384.027	4683
3385.763	4666
3387.497	4653
3389.231	4640
3390.965	4683
3392.698	4668
3394.431	4610
3396.164	4620
3397.896	4614
3399.627	4566
3401.36	4610
3403.09	4543
3404.82	4635
3406.55	4612
3408.279	4641
3410.01	4540
3411.738	4705
3413.467	4623
3415.194	4576
3416.92	4610
3418.647	4511
3420.375	4599
3422.102	4582
3423.827	4535
3425.553	4574
3427.277	4479
3429.003	4534
3430.727	4475
3432.451	4452
3434.173	4585
3435.896	4512
3437.62	4495
3439.343	4510
3441.063	4527
3442.785	4467
3444.505	4452
3446.226	4461
3447.948	4505
3449.666	4467
3451.386	4474
3453.104	4395
3454.823	4504
3456.541	4511
3458.259	4503
3459.976	4397
3461.693	4333
3463.408	4449
3465.125	4468
3466.841	4322
3468.556	4378
3470.271	4455
3471.985	4415
3473.698	4297
3475.414	4366
3477.126	4298
3478.838	4316
3480.55	4351
3482.263	4287
3483.975	4377
3485.686	4306
3487.396	4312
3489.106	4405
3490.817	4270
3492.526	4262
3494.236	4299
3495.944	4312
3497.652	4323
3499.359	4249
3501.066	4282
3502.775	4282
3504.481	4284
3506.187	4331
3507.893	4242
3509.598	4239
3511.304	4187
3513.009	4192
3514.713	4137
3516.417	4289
3518.12	4235
3519.821	4175
3521.525	4137
3523.228	4204
3524.929	4091
3526.631	4182
3528.33	4114
3530.032	4155
3531.733	4099
3533.433	4101
3535.131	4087
3536.83	4130
3538.529	4093
3540.227	4120
3541.925	4074
3543.623	4126
3545.319	4035
3547.016	4104
3548.712	4173
3550.408	4097
3552.103	4133
3553.798	4030
3555.491	4097
3557.188	4012
3558.88	3921
3560.574	4092
3562.266	3955
3563.959	4004
3565.651	3991
3567.343	4033
3569.035	4093
3570.725	4066
3572.415	3974
3574.106	3947
3575.797	3927
3577.485	3939
3579.174	3986
3580.863	3886
3582.551	3951
3584.238	3913
3585.926	3917
3587.613	3977
3589.3	3918
3590.986	3993
3592.671	3882
3594.357	3971
3596.042	3919
3597.726	3936
3599.41	3804
3601.094	3866
3602.778	3904
3604.461	3773
3606.143	3888
3607.825	3825
3609.507	3834
3611.188	3874
3612.87	3823
3614.551	3795
3616.229	3759
3617.909	3865
3619.589	3888
3621.269	3856
3622.948	3757
3624.625	3751
3626.302	3775
3627.98	3809
3629.657	3770
3631.334	3735
3633.01	3773
3634.686	3643
3636.361	3728
3638.036	3759
3639.712	3701
3641.385	3630
3643.06	3667
3644.732	3666
3646.405	3703
3648.08	3747
3649.751	3667
3651.424	3751
3653.094	3693
3654.766	3765
3656.436	3672
3658.106	3689
3659.777	3729
3661.446	3663
3663.115	3607
3664.783	3600
3666.452	3692
3668.121	3592
3669.788	3657
3671.454	3603
3673.121	3597
3674.789	3547
3676.455	3637
3678.12	3714
3679.784	3620
3681.45	3571
3683.114	3585
3684.779	3585
3686.442	3612
3688.105	3628
3689.768	3570
3691.43	3596
3693.093	3665
3694.754	3552
3696.415	3617
3698.076	3601
3699.736	3544
3701.396	3567
3703.057	3572
3704.716	3486
3706.375	3543
3708.034	3581
3709.692	3549
3711.351	3649
3713.008	3554
3714.665	3602
3716.321	3545
3717.977	3530
3719.634	3520
3721.29	3571
3722.945	3498
3724.598	3443
3726.253	3466
3727.907	3476
3729.561	3608
3731.214	3538
3732.867	3491
3734.518	3511
3736.171	3437
3737.824	3515
3739.474	3502
3741.125	3444
3742.775	3495
3744.425	3522
3746.074	3425
3747.725	3508
3749.373	3492
3751.022	3388
3752.669	3461
3754.318	3432
3755.966	3445
3757.612	3479
3759.259	3394
3760.905	3505
3762.55	3431
3764.197	3469
3765.842	3461
3767.486	3384
3769.131	3375
3770.774	3481
3772.417	3421
3774.061	3447
3775.705	3383
3777.347	3381
3778.988	3506
3780.629	3448
3782.271	3367
3783.912	3436
3785.552	3392
3787.192	3449
3788.831	3345
3790.472	3289
3792.112	3351
3793.75	3416
3795.388	3418
3797.024	3353
3798.661	3334
3800.3	3411
3801.936	3376
3803.572	3342
3805.208	3308
3806.844	3315
3808.48	3325
3810.115	3339
3811.748	3323
3813.382	3364
3815.016	3420
3816.649	3310
3818.283	3302
3819.914	3319
3821.547	3316
3823.178	3356
3824.809	3277
3826.441	3342
3828.072	3313
3829.701	3318
3831.331	3254
3832.96	3241
3834.591	3226
3836.219	3239
3837.847	3311
3839.475	3303
3841.102	3361
3842.729	3316
3844.357	3263
3845.984	3205
3847.609	3203
3849.234	3304
3850.86	3268
3852.485	3322
3854.11	3242
3855.734	3157
3857.357	3272
3858.981	3243
3860.603	3311
3862.227	3292
3863.848	3318
3865.471	3223
3867.092	3254
3868.713	3251
3870.334	3246
3871.954	3221
3873.575	3244
3875.194	3276
3876.813	3242
3878.433	3274
3880.051	3240
3881.669	3204
3883.286	3237
3884.904	3165
3886.52	3215
3888.138	3232
3889.754	3250
3891.37	3180
3892.985	3170
3894.6	3186
3896.216	3157
3897.831	3173
3899.444	3194
3901.058	3149
3902.67	3172
3904.283	3155
3905.897	3160
3907.509	3133
3909.121	3151
3910.731	3178
3912.342	3154
3913.954	3123
3915.563	3147
3917.174	3158
3918.783	3224
3920.391	3079
3922.002	3124
3923.611	3210
3925.218	3149
3926.826	3152
3928.432	3102
3930.039	3143
3931.647	3104
3933.253	3162
3934.859	3130
3936.464	3082
3938.068	3160
3939.675	3130
3941.278	3150
3942.883	3085
3944.486	3138
3946.089	3112
3947.692	3133
3949.295	3107
3950.898	3153
3952.499	3112
3954.1	3146
3955.7	3153
3957.303	3083
3958.903	3109
3960.502	3066
3962.101	3120
3963.7	3089
3965.301	3121
3966.899	3046
3968.497	3096
3970.094	3013
3971.691	3031
3973.288	2985
3974.885	3126
3976.481	3076
3978.077	3021
3979.672	3017
3981.267	3042
3982.863	3043
3984.457	3081
3986.051	3007
3987.645	3101
3989.238	2988
3990.831	3050
3992.425	3018
3994.017	3033
3995.607	3014
3997.199	2951
3998.79	3018
4000.382	3014
4001.973	2991
4003.561	3017
4005.151	2994
4006.741	3055
4008.331	2926
4009.918	3028
4011.507	3023
4013.095	2966
4014.681	2953
4016.269	2972
4017.856	2961
4019.443	2976
4021.028	2936
4022.614	2974
4024.199	2975
4025.785	2892
4027.37	2943
4028.953	2962
4030.536	2913
4032.12	2949
4033.704	2944
4035.287	2879
4036.869	2906
4038.45	2859
4040.032	2831
4041.613	2895
4043.195	2856
4044.776	2830
4046.356	2894
4047.935	2864
4049.515	2894
4051.095	2943
4052.674	2870
4054.251	2867
4055.829	2894
4057.406	2906
4058.985	2920
4060.562	2856
4062.139	2845
4063.715	2852
4065.29	2876
4066.865	2905
4068.442	2863
4070.016	2861
4071.59	2883
4073.164	2887
4074.738	2770
4076.312	2860
4077.885	2823
4079.458	2920
4081.03	2870
4082.602	2800
4084.173	2852
4085.745	2886
4087.315	2824
4088.886	2850
4090.456	2838
4092.026	2827
4093.596	2817
4095.165	2824
4096.734	2860
4098.301	2786
4099.869	2844
4101.437	2858
4103.006	2763
4104.572	2782
4106.139	2863
4107.704	2807
4109.27	2753
4110.837	2726
4112.401	2790
4113.966	2853
4115.53	2762
4117.094	2833
4118.659	2816
4120.223	2741
4121.785	2795
4123.347	2795
4124.909	2807
4126.471	2752
4128.034	2751
4129.595	2761
4131.155	2740
4132.716	2768
4134.275	2691
4135.836	2728
4137.395	2739
4138.955	2749
4140.513	2695
4142.071	2822
4143.628	2783
4145.188	2709
4146.745	2671
4148.302	2714
4149.858	2743
4151.414	2729
4152.971	2720
4154.526	2677
4156.081	2679
4157.635	2694
4159.189	2704
4160.745	2631
4162.298	2671
4163.852	2652
4165.405	2655
4166.957	2705
4168.51	2671
4170.063	2687
4171.614	2684
4173.166	2649
4174.717	2643
4176.267	2615
4177.817	2604
4179.368	2655
4180.917	2634
4182.466	2614
4184.016	2706
4185.564	2606
4187.112	2583
4188.66	2608
4190.207	2595
4191.754	2609
4193.301	2602
4194.848	2609
4196.394	2556
4197.94	2619
4199.484	2613
4201.03	2592
4202.575	2636
4204.12	2680
4205.663	2585
4207.207	2545
4208.75	2527
4210.292	2611
4211.836	2587
4213.378	2573
4214.92	2597
4216.46	2618
4218.002	2495
4219.544	2588
4221.083	2570
4222.625	2557
4224.164	2593
4225.703	2603
4227.244	2511
4228.782	2559
4230.32	2560
4231.857	2528
4233.395	2581
4234.933	2599
4236.471	2569
4238.007	2575
4239.542	2520
4241.078	2568
4242.614	2507
4244.15	2565
4245.685	2506
4247.219	2559
4248.753	2561
4250.287	2551
4251.82	2440
4253.354	2530
4254.887	2499
4256.419	2521
4257.951	2493
4259.483	2547
4261.016	2502
4262.547	2527
4264.078	2532
4265.608	2544
4267.137	2483
4268.668	2495
4270.197	2484
4271.727	2440
4273.254	2523
4274.783	2488
4276.311	2501
4277.84	2468
4279.366	2492
4280.894	2482
4282.42	2445
4283.946	2435
4285.473	2495
4286.998	2414
4288.523	2472
4290.047	2519
4291.572	2479
4293.096	2485
4294.622	2441
4296.144	2511
4297.668	2512
4299.19	2483
4300.713	2506
4302.236	2450
4303.758	2448
4305.279	2484
4306.799	2471
4308.321	2425
4309.842	2469
4311.361	2413
4312.882	2411
4314.401	2398
