400.0961	7439
402.6185	7263
405.1424	7419
407.6635	7422
410.1838	7322
412.7035	7432
415.2225	7467
417.7388	7519
420.2585	7666
422.7754	7663
425.2917	7630
427.8072	7651
430.3221	7719
432.8363	7778
435.3498	7793
437.8626	7944
440.3727	7700
442.8841	7764
445.3969	7855
447.907	7991
450.4142	7872
452.9229	7863
455.4289	7794
457.9362	7886
460.4449	8012
462.9488	7871
465.454	7861
467.9566	7920
470.4604	7897
472.9637	7839
475.4662	8003
477.966	7915
480.4671	7933
482.9656	8028
485.4633	8027
487.9645	8140
490.4608	8116
492.9566	8036
495.4536	8079
497.948	7946
500.4437	8223
502.9387	8301
505.431	8116
507.9226	8154
510.4136	8114
512.9079	8210
515.3975	8199
517.8864	8370
520.3746	8293
522.8622	8312
525.3491	8252
527.8394	8296
530.3249	8374
532.8098	8416
535.2939	8289
537.7774	8365
540.2623	8196
542.7444	8371
545.2259	8329
547.7067	8353
550.1868	8296
552.6683	8209
555.147	8291
557.6231	8406
560.1005	8303
562.5773	8402
565.0534	8303
567.5308	8377
570.0056	8472
572.4776	8524
574.951	8558
577.4237	8613
579.8978	8538
582.3671	8605
584.8378	8526
587.3079	8687
589.7773	8674
592.244	8530
594.714	8559
597.1793	8679
599.6461	8541
602.1121	8622
604.5754	8695
607.0421	8568
609.5042	8565
611.9675	8637
614.4282	8678
616.8902	8597
619.3515	8559
621.8122	8488
624.2702	8610
626.7296	8532
629.1863	8693
631.6423	8580
634.1017	8601
636.5563	8700
639.0104	8594
641.4658	8630
643.9185	8707
646.3725	8837
648.8239	8740
651.2766	8501
653.7266	8685
656.176	8679
658.6247	8821
661.0748	8755
663.5242	8733
665.9709	8679
668.417	8751
670.8624	8863
673.3092	8712
675.7533	8985
678.1968	8863
680.6395	8887
683.0817	8932
685.5251	8953
687.9659	8942
690.4061	8943
692.8456	9027
695.2844	8981
697.7226	8935
700.1621	9024
702.599	8943
705.0332	9017
707.4688	9148
709.9036	9065
712.3399	9082
714.7735	9059
717.2044	9159
719.6367	9217
722.0683	9185
724.4993	9181
726.9296	9176
729.3593	9384
731.7883	9189
734.2147	9238
736.6423	9296
739.0714	9366
741.4958	9212
743.9216	9408
746.3447	9353
748.7691	9412
751.1929	9438
753.616	9505
756.0366	9546
758.4584	9543
760.8776	9553
763.2982	9551
765.718	9504
768.1373	9564
770.5539	9576
772.9698	9607
775.3871	9622
777.8038	9648
780.2178	9713
782.6332	9679
785.0459	9563
787.458	9655
789.8714	9646
792.2842	9708
794.6943	9556
797.1038	9640
799.5127	9622
801.9209	9696
804.3324	9695
806.7393	9757
809.1456	9725
811.5513	9665
813.9562	9723
816.3625	9777
818.7663	9822
821.1693	9778
823.5718	9820
825.9735	9807
828.3746	9690
830.7771	9700
833.177	9806
835.5762	9706
837.9747	9726
840.3727	9793
842.772	9741
845.1666	10018
847.5626	9816
849.958	10027
852.3527	10097
854.7488	10012
857.1403	9896
859.5331	9862
861.9253	9969
864.3168	9927
866.7057	9873
869.098	9869
871.4876	9845
873.8746	9864
876.263	9938
878.6487	9940
881.0378	9862
883.4243	9994
885.8081	9764
888.1933	9911
890.5759	9842
892.9598	9862
895.343	9899
897.7256	9960
900.1057	9958
902.4871	9863
904.8659	10118
907.246	9898
909.6254	9992
912.0023	9976
914.3786	10114
916.7562	10348
919.1331	10376
921.5074	10360
923.8831	10383
926.2562	10278
928.6287	10475
931.0005	10467
933.3757	10464
935.7462	10430
938.1162	10419
940.4855	10433
942.8542	10616
945.2242	10701
947.5916	10646
949.9584	10868
952.3266	10826
954.6921	11276
957.0571	11461
959.4233	11603
961.787	11717
964.15	11801
966.5125	11495
968.8742	11382
971.2354	11125
973.5959	10667
975.9559	10678
978.3151	10412
980.6738	10439
983.0338	10384
985.3912	10303
987.7461	10328
990.1022	10182
992.4578	10201
994.8127	10044
997.1689	10174
999.5207	10149
1001.874	10270
1004.226	10313
1006.576	10309
1008.929	10296
1011.28	10293
1013.628	10277
1015.977	10328
1018.324	10231
1020.674	10222
1023.019	10277
1025.366	10366
1027.713	10409
1030.056	10406
1032.399	10381
1034.746	10406
1037.087	10394
1039.431	10374
1041.771	10386
1044.113	10372
1046.454	10347
1048.793	10456
1051.133	10389
1053.471	10537
1055.807	10533
1058.146	10500
1060.483	10430
1062.818	10550
1065.153	10321
1067.489	10524
1069.822	10646
1072.156	10336
1074.488	10728
1076.82	10647
1079.15	10511
1081.48	10335
1083.814	10613
1086.143	10584
1088.471	10424
1090.799	10621
1093.126	10432
1095.452	10601
1097.78	10485
1100.105	10654
1102.43	10559
1104.754	10398
1107.077	10493
1109.4	10546
1111.722	10493
1114.044	10594
1116.365	10670
1118.685	10666
1121.005	10577
1123.324	10634
1125.643	10679
1127.961	10661
1130.278	10670
1132.595	10616
1134.911	10592
1137.226	10514
1139.541	10694
1141.854	10694
1144.167	10595
1146.482	10695
1148.793	10714
1151.105	10649
1153.414	10620
1155.725	10659
1158.033	10591
1160.344	10529
1162.651	10651
1164.959	10594
1167.265	10658
1169.572	10663
1171.878	10692
1174.184	10738
1176.488	10446
1178.79	10595
1181.094	10593
1183.396	10722
1185.699	10675
1188.001	10457
1190.301	10644
1192.6	10729
1194.9	10615
1197.2	10536
1199.497	10617
1201.794	10546
1204.09	10682
1206.387	10623
1208.684	10693
1210.978	10601
1213.272	10574
1215.565	10671
1217.858	10502
1220.15	10720
1222.443	10729
1224.734	10609
1227.024	10839
1229.313	10664
1231.602	10858
1233.892	10620
1236.18	11018
1238.467	10842
1240.754	10899
1243.04	10901
1245.325	10897
1247.612	10923
1249.896	10874
1252.178	11188
1254.461	11140
1256.743	10937
1259.027	10944
1261.308	10982
1263.587	11187
1265.867	11068
1268.146	10895
1270.425	11013
1272.703	11006
1274.981	10975
1277.256	10965
1279.532	10994
1281.808	10897
1284.083	11018
1286.358	11022
1288.63	10899
1290.904	10847
1293.175	10926
1295.449	10829
1297.719	10855
1299.99	10959
1302.259	10819
1304.529	10842
1306.798	10754
1309.065	10996
1311.333	10840
1313.599	10958
1315.866	10929
1318.131	10866
1320.396	10781
1322.66	10993
1324.925	10787
1327.187	10721
1329.448	10858
1331.711	11022
1333.974	10815
1336.234	10922
1338.493	10916
1340.752	10963
1343.01	10815
1345.269	10979
1347.526	10852
1349.784	10893
1352.04	10958
1354.295	10926
1356.552	11027
1358.806	10863
1361.059	10892
1363.312	10856
1365.564	10950
1367.818	11003
1370.069	10868
1372.318	11133
1374.568	10973
1376.817	11050
1379.066	10928
1381.316	11056
1383.564	10961
1385.809	11054
1388.056	10954
1390.301	11131
1392.549	11197
1394.793	11151
1397.036	11129
1399.279	11245
1401.522	11185
1403.763	11073
1406.007	11159
1408.248	11233
1410.487	11276
1412.727	11257
1414.965	11070
1417.205	11199
1419.442	11260
1421.68	11086
1423.915	11261
1426.152	11343
1428.388	11104
1430.623	11153
1432.857	11121
1435.091	11221
1437.323	11295
1439.556	11319
1441.789	11342
1444.019	11243
1446.25	11400
1448.48	11349
1450.708	11227
1452.938	11497
1455.167	11417
1457.394	11465
1459.62	11440
1461.846	11412
1464.073	11420
1466.299	11392
1468.523	11248
1470.746	11333
1472.969	11163
1475.191	11118
1477.415	11137
1479.636	11122
1481.858	11093
1484.078	11111
1486.298	11001
1488.518	11126
1490.736	11085
1492.954	10974
1495.169	10921
1497.386	10967
1499.602	10921
1501.819	10967
1504.034	11036
1506.248	10869
1508.462	11009
1510.675	10945
1512.888	10848
1515.1	10818
1517.311	10997
1519.522	10990
1521.732	10876
1523.942	10952
1526.151	10922
1528.36	10814
1530.566	10995
1532.773	10795
1534.98	10842
1537.187	10981
1539.392	10916
1541.596	11026
1543.801	10934
1546.005	11068
1548.208	10891
1550.411	11122
1552.612	10915
1554.814	10867
1557.013	10980
1559.212	11081
1561.414	11092
1563.612	10960
1565.811	11064
1568.007	11112
1570.203	11223
1572.403	11100
1574.598	11104
1576.792	11220
1578.988	11093
1581.181	11212
1583.376	11240
1585.568	11300
1587.761	11267
1589.952	11335
1592.143	11295
1594.333	11161
1596.524	11264
1598.715	11235
1600.903	11132
1603.091	11285
1605.278	11341
1607.466	11160
1609.652	11399
1611.838	11356
1614.023	11393
1616.207	11223
1618.391	11454
1620.576	11222
1622.759	11291
1624.941	11311
1627.123	11453
1629.304	11346
1631.484	11220
1633.664	11319
1635.844	11554
1638.022	11373
1640.201	11310
1642.38	11351
1644.556	11477
1646.732	11371
1648.908	11375
1651.084	11356
1653.257	11433
1655.433	11431
1657.607	11363
1659.779	11419
1661.951	11488
1664.122	11525
1666.295	11411
1668.467	11419
1670.635	11528
1672.805	11447
1674.973	11437
1677.142	11479
1679.31	11433
1681.478	11295
1683.644	11537
1685.81	11305
1687.975	11389
1690.142	11411
1692.305	11544
1694.468	11238
1696.632	11317
1698.794	11435
1700.957	11289
1703.119	11246
1705.279	11225
1707.439	11352
1709.598	11270
1711.758	11222
1713.917	11115
1716.075	11333
1718.231	11218
1720.388	11231
1722.543	11200
1724.702	11157
1726.856	11305
1729.01	11195
1731.164	11325
1733.317	11228
1735.471	11317
1737.623	11277
1739.774	11340
1741.925	11270
1744.075	11249
1746.225	11262
1748.376	11242
1750.524	11329
1752.672	11148
1754.82	11290
1756.965	11350
1759.113	11390
1761.259	11293
1763.405	11339
1765.549	11311
1767.694	11132
1769.836	11236
1771.981	11363
1774.123	11383
1776.264	11545
1778.405	11329
1780.546	11336
1782.687	11232
1784.827	11340
1786.966	11323
1789.103	11343
1791.242	11438
1793.381	11329
1795.517	11356
1797.653	11354
1799.788	11484
1801.923	11345
1804.057	11365
1806.193	11383
1808.326	11266
1810.457	11286
1812.59	11254
1814.721	11406
1816.855	11156
1818.984	11405
1821.113	11269
1823.244	11353
1825.372	11445
1827.499	11170
1829.63	11271
1831.756	11281
1833.882	11325
1836.007	11085
1838.132	11250
1840.26	11140
1842.384	11237
1844.507	11182
1846.63	11351
1848.752	11118
1850.875	11162
1852.996	11181
1855.118	11151
1857.238	11149
1859.358	11185
1861.477	11136
1863.597	11290
1865.715	11020
1867.832	11003
1869.948	11148
1872.064	11327
1874.181	11085
1876.297	11267
1878.411	11224
1880.526	11217
1882.639	11215
1884.752	11248
1886.865	11234
1888.977	11306
1891.089	11225
1893.2	11233
1895.308	11069
1897.42	11444
1899.53	11202
1901.639	11324
1903.745	11271
1905.853	11418
1907.962	11293
1910.067	11468
1912.174	11174
1914.278	11261
1916.383	11253
1918.486	11205
1920.592	11254
1922.694	11408
1924.797	11382
1926.898	11326
1929	11445
1931.102	11343
1933.203	11325
1935.301	11142
1937.401	11200
1939.499	11373
1941.598	11452
1943.697	11337
1945.793	11345
1947.888	11366
1949.985	11420
1952.08	11178
1954.176	11323
1956.269	11178
1958.364	11296
1960.457	11338
1962.549	11269
1964.642	11307
1966.733	11326
1968.823	11136
1970.913	11241
1973.005	11234
1975.093	11320
1977.184	11309
1979.271	11235
1981.359	11263
1983.446	11054
1985.532	11280
1987.619	11295
1989.705	11207
1991.789	11227
1993.874	11378
1995.956	11228
1998.041	11205
2000.123	11203
2002.206	11174
2004.287	11126
2006.368	11068
2008.449	11323
2010.529	11215
2012.609	11078
2014.688	11153
2016.766	11170
2018.843	11031
2020.922	11209
2022.999	11362
2025.074	11182
2027.15	11187
2029.225	10974
2031.299	11176
2033.375	11100
2035.447	11177
2037.52	11133
2039.592	11281
2041.664	11172
2043.736	11184
2045.807	11141
2047.876	11213
2049.947	11012
2052.015	11013
2054.086	11165
2056.153	11036
2058.221	11214
2060.288	11146
2062.353	11146
2064.42	11099
2066.486	11141
2068.55	11313
2070.614	11240
2072.678	11014
2074.741	11110
2076.805	11197
2078.866	11128
2080.929	11092
2082.99	11161
2085.049	11232
2087.109	11238
2089.17	11152
2091.228	11105
2093.286	11031
2095.344	11180
2097.4	11078
2099.46	10886
2101.516	11140
2103.572	11096
2105.626	10980
2107.679	10910
2109.735	11169
2111.788	11124
2113.841	11023
2115.894	11029
2117.945	11225
2119.997	11209
2122.049	11198
2124.1	11139
2126.148	11010
2128.197	10934
2130.246	11033
2132.296	11087
2134.342	11123
2136.39	10992
2138.437	11037
2140.483	11157
2142.527	11137
2144.574	10971
2146.619	11122
2148.661	11148
2150.705	10976
2152.747	10873
2154.792	10984
2156.832	11147
2158.874	11005
2160.915	10891
2162.954	11036
2164.995	10944
2167.034	10954
2169.072	10828
2171.111	11026
2173.148	10962
2175.186	11101
2177.223	11032
2179.258	10873
2181.294	10990
2183.328	10901
2185.362	11012
2187.398	10871
2189.431	10705
2191.463	10865
2193.495	10845
2195.528	10772
2197.56	10794
2199.59	10815
2201.62	10742
2203.649	10811
2205.678	10748
2207.708	10769
2209.737	10922
2211.764	10789
2213.791	10717
2215.817	10762
2217.843	10711
2219.87	10831
2221.895	10719
2223.919	10820
2225.942	10695
2227.966	10698
2229.988	10750
2232.012	10739
2234.032	10731
2236.054	10663
2238.074	10547
2240.095	10761
2242.116	10686
2244.135	10792
2246.153	10743
2248.171	10633
2250.188	10565
2252.208	10626
2254.223	10768
2256.239	10741
2258.255	10667
2260.269	10728
2262.283	10765
2264.3	10598
2266.312	10669
2268.325	10752
2270.336	10654
2272.349	10719
2274.362	10730
2276.372	10766
2278.383	10717
2280.392	10837
2282.402	10680
2284.409	10657
2286.418	10910
2288.427	10763
2290.433	10673
2292.441	10857
2294.446	10703
2296.453	10603
2298.459	10774
2300.463	10734
2302.466	10605
2304.471	10531
2306.475	10472
2308.477	10612
2310.478	10686
2312.481	10683
2314.481	10704
2316.481	10613
2318.482	10702
2320.482	10508
2322.48	10469
2324.48	10590
2326.478	10512
2328.476	10415
2330.473	10343
2332.469	10504
2334.465	10565
2336.46	10488
2338.454	10520
2340.45	10512
2342.444	10348
2344.437	10427
2346.43	10451
2348.421	10361
2350.414	10424
2352.405	10581
2354.396	10436
2356.386	10442
2358.376	10462
2360.366	10403
2362.355	10444
2364.343	10387
2366.331	10395
2368.317	10444
2370.304	10271
2372.292	10452
2374.278	10192
2376.262	10301
2378.247	10304
2380.23	10387
2382.216	10499
2384.199	10200
2386.181	10345
2388.163	10354
2390.144	10285
2392.127	10220
2394.107	10336
2396.087	10357
2398.066	10213
2400.046	10320
2402.023	10211
2404.004	10070
2405.981	10309
2407.957	10174
2409.934	10238
2411.91	10205
2413.886	10308
2415.862	10221
2417.836	10071
2419.809	10226
2421.784	10240
2423.756	10180
2425.73	10212
2427.701	10115
2429.672	10187
2431.644	10174
2433.615	10233
2435.586	10167
2437.555	10370
2439.523	10175
2441.491	10202
2443.459	10128
2445.428	10172
2447.395	10028
2449.361	10141
2451.327	10027
2453.292	10142
2455.257	10199
2457.223	10301
2459.187	10074
2461.15	10106
2463.113	10130
2465.076	10144
2467.039	10157
2468.999	10143
2470.96	9990
2472.921	10021
2474.881	10149
2476.841	10131
2478.8	10100
2480.759	10151
2482.717	10038
2484.675	10017
2486.63	10100
2488.589	9936
2490.545	9997
2492.5	9996
2494.455	9967
2496.408	9941
2498.364	9912
2500.318	9912
2502.27	9938
2504.223	9993
2506.174	9966
2508.126	9991
2510.078	9903
2512.03	9892
2513.979	9888
2515.927	10005
2517.877	9977
2519.826	10000
2521.775	9776
2523.722	9968
2525.668	9987
2527.616	10017
2529.561	9949
2531.508	10030
2533.452	9928
2535.398	9917
2537.342	9918
2539.284	9797
2541.229	9960
2543.173	9918
2545.114	9922
2547.055	10048
2548.996	9903
2550.938	9849
2552.878	9952
2554.817	9895
2556.756	9992
2558.695	9860
2560.633	9895
2562.572	9796
2564.509	9877
2566.445	9726
2568.382	10013
2570.317	10036
2572.254	9832
2574.189	10049
2576.123	9818
2578.057	10006
2579.99	9867
2581.923	9807
2583.855	9925
2585.788	9967
2587.719	9863
2589.65	9930
2591.579	9908
2593.511	9968
2595.44	9870
2597.37	9821
2599.297	9830
2601.225	9869
2603.153	9795
2605.08	9820
2607.007	9943
2608.932	10012
2610.858	9777
2612.782	9906
2614.709	9930
2616.632	9807
2618.556	9835
2620.478	9885
2622.401	9901
2624.324	9741
2626.247	9867
2628.167	9798
2630.088	9877
2632.008	9839
2633.928	9965
2635.848	9863
2637.766	9887
2639.684	9943
2641.603	9873
2643.519	9842
2645.437	9911
2647.353	9790
2649.27	9918
2651.184	9790
2653.099	9898
2655.014	9845
2656.928	9855
2658.842	9917
2660.755	9726
2662.667	9820
2664.579	9747
2666.491	9873
2668.402	9758
2670.312	9733
2672.222	9727
2674.132	9922
2676.042	9742
2677.951	9840
2679.859	9697
2681.766	9749
2683.674	9678
2685.582	9766
2687.488	9785
2689.392	9591
2691.298	9787
2693.202	9588
2695.107	9576
2697.012	9826
2698.914	9709
2700.817	9647
2702.72	9585
2704.622	9811
2706.524	9566
2708.425	9564
2710.326	9600
2712.225	9668
2714.125	9408
2716.024	9619
2717.923	9540
2719.822	9627
2721.719	9632
2723.616	9634
2725.512	9627
2727.41	9512
2729.305	9520
2731.201	9516
2733.095	9570
2734.99	9658
2736.884	9484
2738.778	9356
2740.67	9582
2742.562	9681
2744.455	9538
2746.346	9452
2748.238	9584
2750.129	9683
2752.018	9436
2753.907	9659
2755.797	9586
2757.687	9431
2759.575	9403
2761.462	9491
2763.349	9296
2765.237	9487
2767.124	9572
2769.009	9547
2770.894	9453
2772.779	9436
2774.663	9581
2776.547	9493
2778.431	9468
2780.314	9405
2782.197	9381
2784.078	9398
2785.96	9343
2787.842	9402
2789.723	9608
2791.603	9402
2793.483	9393
2795.362	9434
2797.241	9491
2799.121	9250
2800.997	9360
2802.874	9437
2804.751	9336
2806.628	9321
2808.506	9488
2810.38	9350
2812.255	9337
2814.13	9253
2816.003	9377
2817.878	9353
2819.752	9256
2821.623	9311
2823.496	9183
2825.368	9403
2827.238	9237
2829.111	9398
2830.98	9298
2832.851	9425
2834.719	9256
2836.589	9240
2838.458	9224
2840.327	9227
2842.193	9264
2844.061	9361
2845.927	9385
2847.794	9362
2849.66	9372
2851.525	9296
2853.39	9291
2855.254	9405
2857.117	9371
2858.983	9401
2860.845	9406
2862.707	9575
2864.569	9496
2866.431	9451
2868.293	9426
2870.154	9555
2872.013	9586
2873.873	9495
2875.733	9640
2877.592	9625
2879.451	9785
2881.309	9854
2883.166	9694
2885.022	9880
2886.879	9866
2888.736	9907
2890.591	10039
2892.446	9912
2894.301	10078
2896.155	9912
2898.009	9831
2899.863	9819
2901.716	9869
2903.568	9989
2905.419	9872
2907.27	9859
2909.123	9965
2910.973	9886
2912.824	9949
2914.673	9942
2916.521	9915
2918.372	10122
2920.22	10023
2922.067	10347
2923.914	10129
2925.761	10200
2927.607	10157
2929.455	10274
2931.301	10232
2933.144	10387
2934.99	10287
2936.833	10454
2938.678	10506
2940.522	10472
2942.364	10612
2944.207	10662
2946.048	10771
2947.891	10865
2949.731	10844
2951.571	10701
2953.412	10866
2955.25	10700
2957.09	10693
2958.93	10689
2960.767	10618
2962.606	10373
2964.443	10420
2966.279	10354
2968.116	10058
2969.953	10190
2971.788	10049
2973.623	10033
2975.457	9839
2977.292	9859
2979.127	9967
2980.959	9771
2982.792	9721
2984.624	9775
2986.455	9705
2988.288	9700
2990.119	9546
2991.949	9644
2993.779	9458
2995.608	9585
2997.439	9362
2999.268	9473
3001.096	9373
3002.923	9336
3004.751	9276
3006.578	9163
3008.406	9304
3010.232	9116
3012.057	9061
3013.883	9005
3015.706	9046
3017.532	8984
3019.356	8961
3021.179	9067
3023.002	8857
3024.823	8794
3026.646	8863
3028.469	8826
3030.289	8757
3032.11	8774
3033.93	8860
3035.749	8691
3037.57	8707
3039.39	8858
3041.207	8769
3043.026	8697
3044.842	8712
3046.661	8627
3048.477	8630
3050.294	8551
3052.109	8808
3053.925	8659
3055.739	8642
3057.555	8761
3059.368	8502
3061.181	8679
3062.995	8599
3064.807	8662
3066.62	8630
3068.433	8716
3070.243	8686
3072.054	8495
3073.865	8635
3075.675	8500
3077.485	8669
3079.293	8572
3081.102	8452
3082.911	8560
3084.719	8444
3086.527	8420
3088.333	8511
3090.139	8500
3091.945	8385
3093.75	8480
3095.557	8414
3097.361	8376
3099.165	8461
3100.969	8401
3102.772	8213
3104.575	8269
3106.379	8402
3108.181	8408
3109.982	8352
3111.783	8392
3113.584	8434
3115.386	8301
3117.186	8346
3118.985	8385
3120.783	8263
3122.582	8278
3124.381	8301
3126.179	8228
3127.975	8215
3129.772	8233
3131.569	8287
3133.365	8143
3135.161	8285
3136.956	8202
3138.751	8200
3140.544	8108
3142.338	8150
3144.132	8321
3145.925	8268
3147.717	8132
3149.509	8111
3151.301	8129
3153.091	8257
3154.884	8210
3156.673	8123
3158.462	8216
3160.252	8131
3162.041	8203
3163.831	8123
3165.618	8056
3167.405	8064
3169.193	8044
3170.979	8086
3172.767	7983
3174.553	8037
3176.338	8112
3178.123	7837
3179.907	8012
3181.692	8128
3183.477	7966
3185.259	8023
3187.042	8035
3188.824	7998
3190.607	7994
3192.389	7875
3194.17	8037
3195.951	8063
3197.73	7826
3199.51	8025
3201.289	8027
3203.07	7959
3204.848	8062
3206.626	7961
3208.403	7913
3210.18	7837
3211.959	7972
3213.735	7888
3215.511	7863
3217.285	7874
3219.06	8030
3220.836	7915
3222.611	7992
3224.384	7906
3226.158	7895
3227.929	7898
3229.702	7944
3231.476	7878
3233.248	7882
3235.018	7907
3236.789	7785
3238.56	7848
3240.33	7832
3242.1	7939
3243.869	7887
3245.637	7904
3247.405	7870
3249.172	7997
3250.941	7900
3252.707	7843
3254.474	7757
3256.24	7924
3258.006	7793
3259.772	7936
3261.537	7851
3263.301	7873
3265.065	7819
3266.828	7751
3268.592	7992
3270.355	7836
3272.117	7815
3273.878	7703
3275.64	7828
3277.401	7793
3279.162	7792
3280.922	7896
3282.682	7812
3284.441	7835
3286.199	7690
3287.959	7884
3289.716	7714
3291.475	7776
3293.232	7751
3294.988	7772
3296.744	7737
3298.501	7873
3300.256	7748
3302.011	7804
3303.766	7787
3305.52	7695
3307.275	7897
3309.028	7680
3310.781	7814
3312.533	7788
3314.285	7698
3316.038	7703
3317.789	7752
3319.54	7710
3321.289	7771
3323.039	7720
3324.789	7805
3326.539	7713
3328.288	7749
3330.035	7806
3331.783	7693
3333.531	7890
3335.28	7687
3337.025	7626
3338.771	7774
3340.518	7679
3342.262	7627
3344.009	7614
3345.753	7622
3347.497	7585
3349.24	7545
3350.983	7669
3352.726	7580
3354.469	7693
3356.212	7549
3357.952	7609
3359.694	7443
3361.434	7499
3363.176	7492
3364.916	7632
3366.654	7445
3368.394	7485
3370.132	7608
3371.871	7484
3373.61	7452
3375.346	7423
3377.083	7400
3378.82	7386
3380.556	7463
3382.292	7415
3384.027	7562
3385.763	7464
3387.497	7523
3389.231	7534
3390.965	7395
3392.698	7367
3394.431	7445
3396.164	7345
3397.896	7454
3399.627	7494
3401.36	7343
3403.09	7362
3404.82	7401
3406.55	7424
3408.279	7339
3410.01	7469
3411.738	7266
3413.467	7361
3415.194	7355
3416.92	7374
3418.647	7371
3420.375	7363
3422.102	7337
3423.827	7204
3425.553	7366
3427.277	7259
3429.003	7339
3430.727	7393
3432.451	7254
3434.173	7216
3435.896	7282
3437.62	7272
3439.343	7317
3441.063	7379
3442.785	7204
3444.505	7004
3446.226	7175
3447.948	7292
3449.666	7061
3451.386	7063
3453.104	7126
3454.823	7115
3456.541	7076
3458.259	7114
3459.976	7096
3461.693	7157
3463.408	7062
3465.125	7046
3466.841	7099
3468.556	7089
3470.271	7106
3471.985	7071
3473.698	7034
3475.414	6985
3477.126	7084
3478.838	7014
3480.55	6903
3482.263	6989
3483.975	6879
3485.686	6967
3487.396	7022
3489.106	6905
3490.817	6957
3492.526	6883
3494.236	6851
3495.944	7083
3497.652	6896
3499.359	7005
3501.066	6837
3502.775	6915
3504.481	6839
3506.187	6863
3507.893	6886
3509.598	6805
3511.304	6836
3513.009	6876
3514.713	6875
3516.417	6809
3518.12	6705
3519.821	6786
3521.525	6772
3523.228	6707
3524.929	6797
3526.631	6801
3528.33	6721
3530.032	6697
3531.733	6792
3533.433	6723
3535.131	6755
3536.83	6655
3538.529	6658
3540.227	6749
3541.925	6672
3543.623	6771
3545.319	6823
3547.016	6666
3548.712	6674
3550.408	6718
3552.103	6642
3553.798	6616
3555.491	6699
3557.188	6582
3558.88	6670
3560.574	6587
3562.266	6650
3563.959	6674
3565.651	6595
3567.343	6484
3569.035	6431
3570.725	6504
3572.415	6621
3574.106	6442
3575.797	6481
3577.485	6604
3579.174	6547
3580.863	6596
3582.551	6558
3584.238	6525
3585.926	6525
3587.613	6516
3589.3	6425
3590.986	6492
3592.671	6395
3594.357	6589
3596.042	6461
3597.726	6347
3599.41	6336
3601.094	6377
3602.778	6409
3604.461	6360
3606.143	6333
3607.825	6361
3609.507	6300
3611.188	6330
3612.87	6381
3614.551	6203
3616.229	6393
3617.909	6198
3619.589	6243
3621.269	6315
3622.948	6318
3624.625	6328
3626.302	6309
3627.98	6252
3629.657	6101
3631.334	6245
3633.01	6240
3634.686	6179
3636.361	6199
3638.036	6108
3639.712	6354
3641.385	6140
3643.06	6190
3644.732	6037
3646.405	6127
3648.08	6125
3649.751	6159
3651.424	6138
3653.094	6142
3654.766	6068
3656.436	6082
3658.106	6124
3659.777	6081
3661.446	6046
3663.115	6087
3664.783	6029
3666.452	6198
3668.121	6135
3669.788	6076
3671.454	5971
3673.121	6033
3674.789	5943
3676.455	6012
3678.12	6021
3679.784	5977
3681.45	6027
3683.114	6138
3684.779	6052
3686.442	5955
3688.105	5967
3689.768	5912
3691.43	5924
3693.093	5960
3694.754	5932
3696.415	5849
3698.076	5992
3699.736	5893
3701.396	5940
3703.057	6029
3704.716	5986
3706.375	5942
3708.034	5930
3709.692	5968
3711.351	5884
3713.008	5929
3714.665	5958
3716.321	5792
3717.977	5855
3719.634	5870
3721.29	5894
3722.945	5925
3724.598	5860
3726.253	5814
3727.907	5832
3729.561	5818
3731.214	5916
3732.867	5774
3734.518	5871
3736.171	5858
3737.824	5868
3739.474	5865
3741.125	5848
3742.775	5853
3744.425	5970
3746.074	5841
3747.725	5777
3749.373	5754
3751.022	5780
3752.669	5771
3754.318	5817
3755.966	5863
3757.612	5663
3759.259	5758
3760.905	5785
3762.55	5684
3764.197	5724
3765.842	5731
3767.486	5698
3769.131	5721
3770.774	5739
3772.417	5652
3774.061	5687
3775.705	5577
3777.347	5716
3778.988	5709
3780.629	5658
3782.271	5737
3783.912	5646
3785.552	5696
3787.192	5562
3788.831	5635
3790.472	5595
3792.112	5709
3793.75	5607
3795.388	5729
3797.024	5635
3798.661	5634
3800.3	5588
3801.936	5502
3803.572	5685
3805.208	5494
3806.844	5575
3808.48	5454
3810.115	5484
3811.748	5503
3813.382	5647
3815.016	5479
3816.649	5509
3818.283	5543
3819.914	5473
3821.547	5492
3823.178	5524
3824.809	5503
3826.441	5476
3828.072	5496
3829.701	5445
3831.331	5563
3832.96	5464
3834.591	5445
3836.219	5506
3837.847	5458
3839.475	5400
3841.102	5306
3842.729	5370
3844.357	5439
3845.984	5396
3847.609	5393
3849.234	5437
3850.86	5382
3852.485	5430
3854.11	5244
3855.734	5327
3857.357	5344
3858.981	5381
3860.603	5352
3862.227	5309
3863.848	5384
3865.471	5234
3867.092	5403
3868.713	5280
3870.334	5320
3871.954	5324
3873.575	5183
3875.194	5306
3876.813	5219
3878.433	5264
3880.051	5355
3881.669	5282
3883.286	5334
3884.904	5308
3886.52	5230
3888.138	5269
3889.754	5251
3891.37	5377
3892.985	5267
3894.6	5277
3896.216	5321
3897.831	5251
3899.444	5242
3901.058	5275
3902.67	5223
3904.283	5220
3905.897	5261
3907.509	5164
3909.121	5295
3910.731	5233
3912.342	5205
3913.954	5180
3915.563	5207
3917.174	5186
3918.783	5240
3920.391	5162
3922.002	5132
3923.611	5133
3925.218	5182
3926.826	5156
3928.432	5183
3930.039	5250
3931.647	5164
3933.253	5277
3934.859	5091
3936.464	5141
3938.068	5193
3939.675	5165
3941.278	5062
3942.883	5108
3944.486	5019
3946.089	5145
3947.692	4998
3949.295	5054
3950.898	5105
3952.499	5150
3954.1	5116
3955.7	4983
3957.303	5032
3958.903	5089
3960.502	4977
3962.101	4994
3963.7	5086
3965.301	5042
3966.899	5057
3968.497	5066
3970.094	4986
3971.691	5017
3973.288	5077
3974.885	5005
3976.481	5100
3978.077	4980
3979.672	5109
3981.267	4920
3982.863	5033
3984.457	4911
3986.051	4992
3987.645	4924
3989.238	4944
3990.831	4947
3992.425	4953
3994.017	4948
3995.607	4992
3997.199	4807
3998.79	4905
4000.382	4833
4001.973	4936
4003.561	4818
4005.151	4911
4006.741	4817
4008.331	4884
4009.918	4852
4011.507	4859
4013.095	4849
4014.681	4873
4016.269	4746
4017.856	4855
4019.443	4748
4021.028	4810
4022.614	4773
4024.199	4715
4025.785	4765
4027.37	4700
4028.953	4677
4030.536	4788
4032.12	4719
4033.704	4752
4035.287	4772
4036.869	4760
4038.45	4771
4040.032	4686
4041.613	4778
4043.195	4769
4044.776	4693
4046.356	4619
4047.935	4665
4049.515	4706
4051.095	4711
4052.674	4702
4054.251	4685
4055.829	4608
4057.406	4670
4058.985	4537
4060.562	4670
4062.139	4703
4063.715	4612
4065.29	4674
4066.865	4691
4068.442	4638
4070.016	4605
4071.59	4661
4073.164	4581
4074.738	4670
4076.312	4582
4077.885	4614
4079.458	4609
4081.03	4560
4082.602	4574
4084.173	4551
4085.745	4536
4087.315	4559
4088.886	4611
4090.456	4587
4092.026	4626
4093.596	4534
4095.165	4535
4096.734	4532
4098.301	4517
4099.869	4523
4101.437	4476
4103.006	4537
4104.572	4599
4106.139	4520
4107.704	4496
4109.27	4565
4110.837	4502
4112.401	4492
4113.966	4487
4115.53	4502
4117.094	4472
4118.659	4472
4120.223	4474
4121.785	4495
4123.347	4595
4124.909	4343
4126.471	4431
4128.034	4368
4129.595	4503
4131.155	4420
4132.716	4460
4134.275	4445
4135.836	4345
4137.395	4359
4138.955	4405
4140.513	4368
4142.071	4510
4143.628	4394
4145.188	4295
4146.745	4379
4148.302	4333
4149.858	4348
4151.414	4323
4152.971	4349
4154.526	4351
4156.081	4385
4157.635	4429
4159.189	4329
4160.745	4312
4162.298	4349
4163.852	4216
4165.405	4225
4166.957	4308
4168.51	4233
4170.063	4292
4171.614	4200
4173.166	4284
4174.717	4197
4176.267	4252
4177.817	4168
4179.368	4278
4180.917	4253
4182.466	4222
4184.016	4205
4185.564	4220
4187.112	4178
4188.66	4232
4190.207	4162
4191.754	4195
4193.301	4195
4194.848	4164
4196.394	4207
4197.94	4111
4199.484	4208
4201.03	4263
4202.575	4159
4204.12	4190
4205.663	4161
4207.207	4184
4208.75	4141
4210.292	4190
4211.836	4144
4213.378	4112
4214.92	4143
4216.46	4125
4218.002	4081
4219.544	4153
4221.083	4080
4222.625	4152
4224.164	4183
4225.703	4097
4227.244	4142
4228.782	4094
4230.32	4130
4231.857	4145
4233.395	4093
4234.933	4115
4236.471	4066
4238.007	4038
4239.542	4070
4241.078	4061
4242.614	4167
4244.15	4075
4245.685	4023
4247.219	3986
4248.753	4090
4250.287	4004
4251.82	4088
4253.354	4035
4254.887	4006
4256.419	4004
4257.951	4051
4259.483	4062
4261.016	3982
4262.547	4046
4264.078	3972
4265.608	3958
4267.137	3915
4268.668	4050
4270.197	4039
4271.727	4046
4273.254	4031
4274.783	3943
4276.311	3859
4277.84	3968
4279.366	4001
4280.894	4003
4282.42	4031
4283.946	4035
4285.473	3952
4286.998	3882
4288.523	4034
4290.047	3995
4291.572	3937
4293.096	3955
4294.622	3907
4296.144	3956
4297.668	3916
4299.19	4000
4300.713	3970
4302.236	3875
4303.758	3958
4305.279	3878
4306.799	3822
4308.321	3827
4309.842	3876
4311.361	3865
4312.882	3824
4314.401	3853
