400.0961	11979
402.6185	11998
405.1424	12097
407.6635	11897
410.1838	12128
412.7035	12266
415.2225	12082
417.7388	12269
420.2585	12326
422.7754	12343
425.2917	12512
427.8072	12634
430.3221	12597
432.8363	12760
435.3498	12721
437.8626	12835
440.3727	12612
442.8841	12790
445.3969	12719
447.907	12862
450.4142	12787
452.9229	12768
455.4289	12909
457.9362	12966
460.4449	12884
462.9488	12935
465.454	12765
467.9566	12897
470.4604	12944
472.9637	13103
475.4662	12864
477.966	13018
480.4671	13029
482.9656	13101
485.4633	13102
487.9645	13109
490.4608	13254
492.9566	13252
495.4536	13547
497.948	13330
500.4437	13401
502.9387	13337
505.431	13542
507.9226	13464
510.4136	13472
512.9079	13496
515.3975	13427
517.8864	13571
520.3746	13744
522.8622	13494
525.3491	13481
527.8394	13489
530.3249	13645
532.8098	13554
535.2939	13636
537.7774	13595
540.2623	13474
542.7444	13368
545.2259	13746
547.7067	13566
550.1868	13563
552.6683	13685
555.147	13749
557.6231	13664
560.1005	13718
562.5773	13801
565.0534	13680
567.5308	13898
570.0056	13921
572.4776	14014
574.951	13897
577.4237	13880
579.8978	14109
582.3671	14066
584.8378	13882
587.3079	14163
589.7773	14193
592.244	14204
594.714	14072
597.1793	14019
599.6461	14067
602.1121	14137
604.5754	14017
607.0421	14112
609.5042	14092
611.9675	13908
614.4282	13969
616.8902	14038
619.3515	14195
621.8122	14095
624.2702	13896
626.7296	14038
629.1863	14062
631.6423	14128
634.1017	14091
636.5563	14151
639.0104	14149
641.4658	14071
643.9185	14217
646.3725	14198
648.8239	14309
651.2766	14341
653.7266	14388
656.176	14325
658.6247	14491
661.0748	14454
663.5242	14508
665.9709	14586
668.417	14718
670.8624	14474
673.3092	14456
675.7533	14411
678.1968	14669
680.6395	14679
683.0817	14701
685.5251	14628
687.9659	14683
690.4061	14723
692.8456	14443
695.2844	14861
697.7226	14655
700.1621	14780
702.599	15066
705.0332	14854
707.4688	14955
709.9036	14905
712.3399	14938
714.7735	15039
717.2044	14845
719.6367	15151
722.0683	14884
724.4993	15358
726.9296	15178
729.3593	15340
731.7883	15112
734.2147	15166
736.6423	15139
739.0714	15480
741.4958	15379
743.9216	15484
746.3447	15544
748.7691	15525
751.1929	15361
753.616	15540
756.0366	15724
758.4584	15709
760.8776	15731
763.2982	15753
765.718	15790
768.1373	15747
770.5539	15865
772.9698	15778
775.3871	15837
777.8038	15709
780.2178	15776
782.6332	15906
785.0459	15749
787.458	15849
789.8714	15938
792.2842	15751
794.6943	15696
797.1038	15831
799.5127	15727
801.9209	15897
804.3324	15910
806.7393	15799
809.1456	15925
811.5513	15868
813.9562	15789
816.3625	15975
818.7663	15947
821.1693	16202
823.5718	16047
825.9735	16152
828.3746	16049
830.7771	16009
833.177	16092
835.5762	15951
837.9747	16071
840.3727	16026
842.772	16002
845.1666	16152
847.5626	16312
849.958	16139
852.3527	16456
854.7488	16329
857.1403	16322
859.5331	16272
861.9253	16334
864.3168	16193
866.7057	16261
869.098	16145
871.4876	16235
873.8746	16066
876.263	16145
878.6487	16163
881.0378	16102
883.4243	16015
885.8081	16107
888.1933	16253
890.5759	16112
892.9598	16135
895.343	16357
897.7256	16008
900.1057	16034
902.4871	16135
904.8659	16059
907.246	16366
909.6254	16466
912.0023	16343
914.3786	16587
916.7562	16622
919.1331	16754
921.5074	16825
923.8831	16935
926.2562	16880
928.6287	16877
931.0005	17038
933.3757	16888
935.7462	16924
938.1162	17075
940.4855	16893
942.8542	17087
945.2242	17305
947.5916	17359
949.9584	17628
952.3266	17761
954.6921	18076
957.0571	18396
959.4233	18760
961.787	18855
964.15	18748
966.5125	18477
968.8742	18041
971.2354	17670
973.5959	17423
975.9559	17167
978.3151	16996
980.6738	17050
983.0338	16985
985.3912	16776
987.7461	16917
990.1022	16852
992.4578	16933
994.8127	16748
997.1689	16845
999.5207	16945
1001.874	16904
1004.226	16788
1006.576	16754
1008.929	17077
1011.28	16710
1013.628	16799
1015.977	16700
1018.324	16787
1020.674	16761
1023.019	16820
1025.366	17101
1027.713	16933
1030.056	17019
1032.399	16999
1034.746	16984
1037.087	17120
1039.431	16940
1041.771	16978
1044.113	17062
1046.454	17081
1048.793	17122
1051.133	17120
1053.471	16950
1055.807	17088
1058.146	17347
1060.483	17020
1062.818	17145
1065.153	17296
1067.489	17232
1069.822	17239
1072.156	17043
1074.488	17152
1076.82	17324
1079.15	17207
1081.48	17174
1083.814	16949
1086.143	17120
1088.471	17259
1090.799	17221
1093.126	17233
1095.452	17243
1097.78	17104
1100.105	17158
1102.43	17107
1104.754	17071
1107.077	17288
1109.4	17250
1111.722	17173
1114.044	17057
1116.365	17166
1118.685	17303
1121.005	17291
1123.324	17087
1125.643	17229
1127.961	17264
1130.278	17262
1132.595	17389
1134.911	17289
1137.226	17184
1139.541	17299
1141.854	17383
1144.167	17327
1146.482	17458
1148.793	17252
1151.105	17475
1153.414	17306
1155.725	17389
1158.033	17277
1160.344	17482
1162.651	17390
1164.959	17241
1167.265	17197
1169.572	17391
1171.878	17275
1174.184	17288
1176.488	17321
1178.79	17371
1181.094	17452
1183.396	17392
1185.699	17364
1188.001	17190
1190.301	17388
1192.6	17476
1194.9	17248
1197.2	17384
1199.497	17377
1201.794	17465
1204.09	17299
1206.387	17202
1208.684	17101
1210.978	17402
1213.272	17551
1215.565	17396
1217.858	17264
1220.15	17321
1222.443	17636
1224.734	17447
1227.024	17632
1229.313	17520
1231.602	17741
1233.892	17564
1236.18	17797
1238.467	17822
1240.754	17685
1243.04	18004
1245.325	17756
1247.612	17708
1249.896	17749
1252.178	17841
1254.461	18070
1256.743	17682
1259.027	17991
1261.308	17955
1263.587	17871
1265.867	17865
1268.146	17865
1270.425	17958
1272.703	17931
1274.981	17846
1277.256	18079
1279.532	17881
1281.808	17844
1284.083	17777
1286.358	17872
1288.63	17731
1290.904	17583
1293.175	17610
1295.449	17685
1297.719	17413
1299.99	17774
1302.259	17771
1304.529	17684
1306.798	17648
1309.065	17479
1311.333	17662
1313.599	17637
1315.866	17764
1318.131	17660
1320.396	17622
1322.66	17568
1324.925	17724
1327.187	17654
1329.448	17729
1331.711	17781
1333.974	17773
1336.234	17530
1338.493	17616
1340.752	17586
1343.01	17526
1345.269	17704
1347.526	17788
1349.784	17869
1352.04	17753
1354.295	17675
1356.552	17734
1358.806	17666
1361.059	17644
1363.312	17746
1365.564	17697
1367.818	17878
1370.069	17821
1372.318	17805
1374.568	17680
1376.817	17981
1379.066	17622
1381.316	17924
1383.564	17901
1385.809	17768
1388.056	17809
1390.301	17912
1392.549	17835
1394.793	18051
1397.036	18037
1399.279	17898
1401.522	18006
1403.763	17994
1406.007	18149
1408.248	17881
1410.487	18310
1412.727	18171
1414.965	18186
1417.205	18186
1419.442	18179
1421.68	18238
1423.915	18047
1426.152	17975
1428.388	18144
1430.623	18287
1432.857	18323
1435.091	18156
1437.323	18125
1439.556	18294
1441.789	18275
1444.019	18145
1446.25	18365
1448.48	18315
1450.708	18164
1452.938	18479
1455.167	18374
1457.394	18435
1459.62	18232
1461.846	18466
1464.073	18299
1466.299	18339
1468.523	18340
1470.746	18428
1472.969	18200
1475.191	18211
1477.415	18064
1479.636	17946
1481.858	17934
1484.078	17926
1486.298	18066
1488.518	17790
1490.736	17850
1492.954	17895
1495.169	17893
1497.386	17644
1499.602	17754
1501.819	17684
1504.034	17652
1506.248	17958
1508.462	17688
1510.675	17793
1512.888	17679
1515.1	17670
1517.311	17615
1519.522	17633
1521.732	17646
1523.942	17778
1526.151	17703
1528.36	17509
1530.566	17670
1532.773	17870
1534.98	17723
1537.187	17574
1539.392	17859
1541.596	17801
1543.801	18022
1546.005	17635
1548.208	17920
1550.411	17788
1552.612	17858
1554.814	17926
1557.013	18009
1559.212	18183
1561.414	17898
1563.612	18098
1565.811	18242
1568.007	18012
1570.203	18270
1572.403	18218
1574.598	18191
1576.792	18180
1578.988	18050
1581.181	18142
1583.376	18143
1585.568	18023
1587.761	18172
1589.952	18181
1592.143	18309
1594.333	18219
1596.524	18412
1598.715	18396
1600.903	18327
1603.091	18227
1605.278	18481
1607.466	18345
1609.652	18340
1611.838	18265
1614.023	18263
1616.207	18315
1618.391	18230
1620.576	18319
1622.759	18488
1624.941	18368
1627.123	18249
1629.304	18407
1631.484	18254
1633.664	18252
1635.844	18215
1638.022	18253
1640.201	18429
1642.38	18295
1644.556	18382
1646.732	18405
1648.908	18234
1651.084	18646
1653.257	18333
1655.433	18321
1657.607	18577
1659.779	18543
1661.951	18367
1664.122	18492
1666.295	18451
1668.467	18450
1670.635	18451
1672.805	18566
1674.973	18510
1677.142	18617
1679.31	18498
1681.478	18474
1683.644	18332
1685.81	18505
1687.975	18299
1690.142	18387
1692.305	18437
1694.468	18310
1696.632	18424
1698.794	18192
1700.957	18363
1703.119	18267
1705.279	18170
1707.439	18304
1709.598	18151
1711.758	18110
1713.917	18177
1716.075	18218
1718.231	18289
1720.388	18085
1722.543	18263
1724.702	18173
1726.856	18046
1729.01	18231
1731.164	18017
1733.317	17997
1735.471	18118
1737.623	18229
1739.774	18193
1741.925	18359
1744.075	18231
1746.225	18206
1748.376	18125
1750.524	18241
1752.672	18212
1754.82	18154
1756.965	18167
1759.113	18424
1761.259	18361
1763.405	18376
1765.549	18339
1767.694	18299
1769.836	18212
1771.981	18343
1774.123	18299
1776.264	18189
1778.405	18437
1780.546	18539
1782.687	18231
1784.827	18273
1786.966	18361
1789.103	18372
1791.242	18510
1793.381	18230
1795.517	18501
1797.653	18519
1799.788	18203
1801.923	18426
1804.057	18430
1806.193	18330
1808.326	18383
1810.457	18311
1812.59	18402
1814.721	18513
1816.855	18321
1818.984	18120
1821.113	18249
1823.244	18439
1825.372	18431
1827.499	18294
1829.63	18074
1831.756	18281
1833.882	18287
1836.007	18192
1838.132	18086
1840.26	18204
1842.384	18014
1844.507	18189
1846.63	18143
1848.752	18225
1850.875	18019
1852.996	18124
1855.118	17997
1857.238	18260
1859.358	18034
1861.477	18185
1863.597	17948
1865.715	17973
1867.832	18000
1869.948	18133
1872.064	17952
1874.181	17983
1876.297	18020
1878.411	18211
1880.526	18076
1882.639	18225
1884.752	18128
1886.865	17989
1888.977	18118
1891.089	18016
1893.2	18321
1895.308	18095
1897.42	18174
1899.53	18205
1901.639	18304
1903.745	18273
1905.853	18268
1907.962	18222
1910.067	18200
1912.174	18418
1914.278	18484
1916.383	18245
1918.486	18151
1920.592	18465
1922.694	18540
1924.797	18372
1926.898	18338
1929	18296
1931.102	18390
1933.203	18142
1935.301	18220
1937.401	18209
1939.499	18326
1941.598	18469
1943.697	18426
1945.793	18110
1947.888	18461
1949.985	18243
1952.08	18413
1954.176	18348
1956.269	18571
1958.364	18233
1960.457	18293
1962.549	18206
1964.642	18297
1966.733	18453
1968.823	18224
1970.913	18187
1973.005	18129
1975.093	18333
1977.184	18134
1979.271	18241
1981.359	18172
1983.446	18237
1985.532	18317
1987.619	18143
1989.705	18206
1991.789	18068
1993.874	18258
1995.956	18301
1998.041	18287
2000.123	17902
2002.206	17928
2004.287	18153
2006.368	18134
2008.449	18140
2010.529	17933
2012.609	17942
2014.688	18252
2016.766	18055
2018.843	18092
2020.922	17969
2022.999	17882
2025.074	17937
2027.15	17961
2029.225	17925
2031.299	18053
2033.375	17996
2035.447	17978
2037.52	17859
2039.592	18031
2041.664	17758
2043.736	17981
2045.807	17858
2047.876	18091
2049.947	17856
2052.015	17983
2054.086	17947
2056.153	17923
2058.221	18015
2060.288	18104
2062.353	17942
2064.42	17764
2066.486	18005
2068.55	17978
2070.614	18005
2072.678	18039
2074.741	17938
2076.805	17993
2078.866	18035
2080.929	18000
2082.99	17907
2085.049	18038
2087.109	17962
2089.17	18087
2091.228	17860
2093.286	18061
2095.344	18083
2097.4	18000
2099.46	17872
2101.516	17929
2103.572	17952
2105.626	18038
2107.679	17929
2109.735	17911
2111.788	17918
2113.841	17879
2115.894	18031
2117.945	18027
2119.997	18080
2122.049	17941
2124.1	17774
2126.148	17817
2128.197	18015
2130.246	17841
2132.296	17877
2134.342	17918
2136.39	17816
2138.437	17967
2140.483	17878
2142.527	18015
2144.574	17915
2146.619	17762
2148.661	17673
2150.705	17812
2152.747	17627
2154.792	17572
2156.832	17802
2158.874	17858
2160.915	17723
2162.954	17758
2164.995	17772
2167.034	17786
2169.072	17482
2171.111	17579
2173.148	17542
2175.186	17720
2177.223	17585
2179.258	17534
2181.294	17527
2183.328	17329
2185.362	17597
2187.398	17435
2189.431	17440
2191.463	17511
2193.495	17355
2195.528	17288
2197.56	17384
2199.59	17343
2201.62	17442
2203.649	17266
2205.678	17303
2207.708	17365
2209.737	17110
2211.764	17198
2213.791	17407
2215.817	17486
2217.843	17292
2219.87	17209
2221.895	17292
2223.919	17404
2225.942	17301
2227.966	17223
2229.988	17331
2232.012	17228
2234.032	17412
2236.054	17325
2238.074	17153
2240.095	17350
2242.116	17058
2244.135	17140
2246.153	17084
2248.171	17286
2250.188	17274
2252.208	17048
2254.223	17252
2256.239	17299
2258.255	17218
2260.269	17128
2262.283	17181
2264.3	17279
2266.312	17264
2268.325	17276
2270.336	17203
2272.349	17237
2274.362	17023
2276.372	17287
2278.383	17130
2280.392	17127
2282.402	17143
2284.409	17241
2286.418	17029
2288.427	17308
2290.433	17079
2292.441	17131
2294.446	17079
2296.453	16992
2298.459	17094
2300.463	17236
2302.466	17209
2304.471	16964
2306.475	17136
2308.477	16936
2310.478	17110
2312.481	17211
2314.481	17105
2316.481	17209
2318.482	17036
2320.482	16997
2322.48	17020
2324.48	17062
2326.478	16981
2328.476	16765
2330.473	16780
2332.469	16955
2334.465	16909
2336.46	17101
2338.454	16876
2340.45	16462
2342.444	16616
2344.437	16815
2346.43	16779
2348.421	16695
2350.414	16718
2352.405	16662
2354.396	16651
2356.386	16553
2358.376	16793
2360.366	16655
2362.355	16621
2364.343	16626
2366.331	16506
2368.317	16763
2370.304	16516
2372.292	16771
2374.278	16622
2376.262	16847
2378.247	16543
2380.23	16748
2382.216	16571
2384.199	16557
2386.181	16656
2388.163	16440
2390.144	16485
2392.127	16464
2394.107	16432
2396.087	16419
2398.066	16226
2400.046	16586
2402.023	16599
2404.004	16367
2405.981	16571
2407.957	16346
2409.934	16362
2411.91	16187
2413.886	16356
2415.862	16249
2417.836	16181
2419.809	16447
2421.784	16534
2423.756	16378
2425.73	16376
2427.701	16265
2429.672	16406
2431.644	16421
2433.615	16427
2435.586	16327
2437.555	16514
2439.523	16301
2441.491	16203
2443.459	16293
2445.428	16316
2447.395	16196
2449.361	16330
2451.327	16259
2453.292	16307
2455.257	16101
2457.223	16010
2459.187	16205
2461.15	16245
2463.113	16114
2465.076	16232
2467.039	16043
2468.999	16158
2470.96	16111
2472.921	15921
2474.881	16084
2476.841	15998
2478.8	15968
2480.759	16210
2482.717	15981
2484.675	16031
2486.63	16017
2488.589	15820
2490.545	16096
2492.5	16025
2494.455	16003
2496.408	16061
2498.364	15991
2500.318	15992
2502.27	15917
2504.223	15949
2506.174	16161
2508.126	16052
2510.078	15896
2512.03	15975
2513.979	16003
2515.927	15903
2517.877	15857
2519.826	15642
2521.775	15850
2523.722	15669
2525.668	15901
2527.616	15833
2529.561	15852
2531.508	15729
2533.452	15793
2535.398	15804
2537.342	15731
2539.284	15671
2541.229	15781
2543.173	15885
2545.114	15685
2547.055	15902
2548.996	15864
2550.938	15754
2552.878	15873
2554.817	15846
2556.756	15870
2558.695	15819
2560.633	15686
2562.572	15537
2564.509	15943
2566.445	15659
2568.382	15701
2570.317	15702
2572.254	15877
2574.189	15770
2576.123	15712
2578.057	15735
2579.99	15613
2581.923	15695
2583.855	15670
2585.788	15833
2587.719	15680
2589.65	15854
2591.579	15738
2593.511	15749
2595.44	15867
2597.37	15632
2599.297	15850
2601.225	15772
2603.153	15664
2605.08	15723
2607.007	15843
2608.932	15813
2610.858	15786
2612.782	15450
2614.709	15715
2616.632	15649
2618.556	15617
2620.478	15762
2622.401	15728
2624.324	15727
2626.247	15582
2628.167	15931
2630.088	15837
2632.008	15798
2633.928	15699
2635.848	15741
2637.766	15485
2639.684	15564
2641.603	15659
2643.519	15714
2645.437	15570
2647.353	15905
2649.27	15514
2651.184	15688
2653.099	15728
2655.014	15555
2656.928	15596
2658.842	15688
2660.755	15619
2662.667	15584
2664.579	15706
2666.491	15414
2668.402	15485
2670.312	15568
2672.222	15328
2674.132	15702
2676.042	15510
2677.951	15501
2679.859	15419
2681.766	15466
2683.674	15518
2685.582	15352
2687.488	15544
2689.392	15390
2691.298	15438
2693.202	15334
2695.107	15279
2697.012	15286
2698.914	15362
2700.817	15433
2702.72	15422
2704.622	15327
2706.524	15436
2708.425	15199
2710.326	15286
2712.225	15343
2714.125	15083
2716.024	15274
2717.923	15334
2719.822	15301
2721.719	14998
2723.616	15156
2725.512	15406
2727.41	15124
2729.305	15017
2731.201	15129
2733.095	15023
2734.99	15221
2736.884	15236
2738.778	15077
2740.67	15291
2742.562	15255
2744.455	15244
2746.346	14995
2748.238	15037
2750.129	15078
2752.018	15180
2753.907	15025
2755.797	15041
2757.687	15100
2759.575	14979
2761.462	14841
2763.349	14921
2765.237	15100
2767.124	14960
2769.009	14968
2770.894	15025
2772.779	14833
2774.663	14866
2776.547	15075
2778.431	14837
2780.314	14999
2782.197	15007
2784.078	14982
2785.96	14791
2787.842	14972
2789.723	14906
2791.603	15086
2793.483	14837
2795.362	14952
2797.241	15028
2799.121	14883
2800.997	14895
2802.874	14807
2804.751	14690
2806.628	14951
2808.506	15057
2810.38	14699
2812.255	14830
2814.13	14737
2816.003	14859
2817.878	14889
2819.752	14613
2821.623	14935
2823.496	14672
2825.368	14740
2827.238	14851
2829.111	14708
2830.98	14872
2832.851	14691
2834.719	14751
2836.589	14676
2838.458	14739
2840.327	14629
2842.193	14677
2844.061	14786
2845.927	14565
2847.794	14977
2849.66	14732
2851.525	14551
2853.39	14787
2855.254	14717
2857.117	14787
2858.983	14894
2860.845	14926
2862.707	14601
2864.569	14997
2866.431	14819
2868.293	14854
2870.154	14955
2872.013	15129
2873.873	14902
2875.733	14939
2877.592	15065
2879.451	15087
2881.309	15212
2883.166	15045
2885.022	15356
2886.879	15182
2888.736	15420
2890.591	15416
2892.446	15298
2894.301	15322
2896.155	15233
2898.009	15322
2899.863	15261
2901.716	15304
2903.568	15136
2905.419	15312
2907.27	15173
2909.123	15164
2910.973	15354
2912.824	15384
2914.673	15433
2916.521	15231
2918.372	15691
2920.22	15585
2922.067	15558
2923.914	15794
2925.761	15829
2927.607	15824
2929.455	15708
2931.301	15907
2933.144	16043
2934.99	15975
2936.833	16148
2938.678	16198
2940.522	15964
2942.364	16342
2944.207	16136
2946.048	16178
2947.891	16314
2949.731	16295
2951.571	16161
2953.412	16627
2955.25	15991
2957.09	16052
2958.93	16217
2960.767	15954
2962.606	15835
2964.443	15629
2966.279	15745
2968.116	15475
2969.953	15374
2971.788	15510
2973.623	15307
2975.457	15193
2977.292	15231
2979.127	14881
2980.959	15085
2982.792	15051
2984.624	15027
2986.455	15045
2988.288	14998
2990.119	14872
2991.949	14772
2993.779	14698
2995.608	14806
2997.439	14577
2999.268	14590
3001.096	14535
3002.923	14477
3004.751	14435
3006.578	14451
3008.406	14189
3010.232	14213
3012.057	14287
3013.883	14101
3015.706	14103
3017.532	13989
3019.356	13979
3021.179	13997
3023.002	13965
3024.823	13780
3026.646	13965
3028.469	13890
3030.289	13786
3032.11	13752
3033.93	13810
3035.749	13714
3037.57	13477
3039.39	13582
3041.207	13740
3043.026	13521
3044.842	13627
3046.661	13583
3048.477	13829
3050.294	13611
3052.109	13724
3053.925	13710
3055.739	13457
3057.555	13553
3059.368	13524
3061.181	13426
3062.995	13540
3064.807	13426
3066.62	13386
3068.433	13486
3070.243	13327
3072.054	13345
3073.865	13546
3075.675	13651
3077.485	13426
3079.293	13288
3081.102	13342
3082.911	13328
3084.719	13227
3086.527	13133
3088.333	13244
3090.139	13293
3091.945	13240
3093.75	13123
3095.557	13221
3097.361	13252
3099.165	13286
3100.969	13127
3102.772	12991
3104.575	13085
3106.379	13219
3108.181	12848
3109.982	12931
3111.783	13193
3113.584	13035
3115.386	13053
3117.186	13036
3118.985	13032
3120.783	12897
3122.582	12829
3124.381	12833
3126.179	12900
3127.975	12911
3129.772	12760
3131.569	12803
3133.365	12798
3135.161	12985
3136.956	12825
3138.751	12892
3140.544	12604
3142.338	12704
3144.132	12850
3145.925	12761
3147.717	12643
3149.509	12705
3151.301	12760
3153.091	12872
3154.884	12549
3156.673	12617
3158.462	12666
3160.252	12675
3162.041	12588
3163.831	12627
3165.618	12724
3167.405	12648
3169.193	12644
3170.979	12557
3172.767	12501
3174.553	12524
3176.338	12595
3178.123	12538
3179.907	12277
3181.692	12515
3183.477	12573
3185.259	12482
3187.042	12510
3188.824	12491
3190.607	12353
3192.389	12237
3194.17	12578
3195.951	12507
3197.73	12476
3199.51	12274
3201.289	12369
3203.07	12564
3204.848	12367
3206.626	12321
3208.403	12409
3210.18	12284
3211.959	12290
3213.735	12170
3215.511	12346
3217.285	12356
3219.06	12335
3220.836	12306
3222.611	12287
3224.384	12434
3226.158	12254
3227.929	12291
3229.702	12404
3231.476	12121
3233.248	12160
3235.018	12211
3236.789	12329
3238.56	12467
3240.33	12332
3242.1	12225
3243.869	12125
3245.637	12141
3247.405	12189
3249.172	12114
3250.941	12250
3252.707	12195
3254.474	12285
3256.24	12132
3258.006	12348
3259.772	11978
3261.537	12195
3263.301	12140
3265.065	12270
3266.828	11953
3268.592	12250
3270.355	12201
3272.117	12224
3273.878	12274
3275.64	12075
3277.401	12186
3279.162	12264
3280.922	12081
3282.682	12118
3284.441	12189
3286.199	12094
3287.959	12001
3289.716	11952
3291.475	12129
3293.232	12098
3294.988	12102
3296.744	11943
3298.501	12078
3300.256	12062
3302.011	11973
3303.766	11999
3305.52	12101
3307.275	12013
3309.028	11867
3310.781	12197
3312.533	12069
3314.285	11981
3316.038	11888
3317.789	11974
3319.54	12092
3321.289	12122
3323.039	11953
3324.789	12060
3326.539	11778
3328.288	11839
3330.035	12029
3331.783	11905
3333.531	11947
3335.28	11877
3337.025	11782
3338.771	12003
3340.518	11736
3342.262	11781
3344.009	11746
3345.753	11908
3347.497	11725
3349.24	11848
3350.983	11847
3352.726	11823
3354.469	11697
3356.212	11642
3357.952	11532
3359.694	11764
3361.434	11601
3363.176	11677
3364.916	11637
3366.654	11630
3368.394	11606
3370.132	11674
3371.871	11615
3373.61	11686
3375.346	11574
3377.083	11618
3378.82	11478
3380.556	11646
3382.292	11579
3384.027	11509
3385.763	11488
3387.497	11420
3389.231	11671
3390.965	11588
3392.698	11483
3394.431	11433
3396.164	11545
3397.896	11555
3399.627	11327
3401.36	11586
3403.09	11389
3404.82	11400
3406.55	11452
3408.279	11292
3410.01	11306
3411.738	11384
3413.467	11418
3415.194	11331
3416.92	11413
3418.647	11397
3420.375	11264
3422.102	11272
3423.827	11444
3425.553	11353
3427.277	11305
3429.003	11154
3430.727	11112
3432.451	11206
3434.173	11360
3435.896	11388
3437.62	11086
3439.343	11222
3441.063	11206
3442.785	11306
3444.505	11039
3446.226	11221
3447.948	11083
3449.666	10885
3451.386	10974
3453.104	11105
3454.823	10960
3456.541	11018
3458.259	11089
3459.976	11052
3461.693	11046
3463.408	10986
3465.125	10988
3466.841	10878
3468.556	11081
3470.271	10846
3471.985	10836
3473.698	10773
3475.414	10891
3477.126	10811
3478.838	10745
3480.55	10879
3482.263	10728
3483.975	10788
3485.686	11014
3487.396	10551
3489.106	10768
3490.817	10773
3492.526	10766
3494.236	10737
3495.944	10695
3497.652	10658
3499.359	10702
3501.066	10551
3502.775	10843
3504.481	10618
3506.187	10652
3507.893	10501
3509.598	10610
3511.304	10610
3513.009	10498
3514.713	10572
3516.417	10531
3518.12	10278
3519.821	10554
3521.525	10500
3523.228	10475
3524.929	10469
3526.631	10423
3528.33	10379
3530.032	10427
3531.733	10492
3533.433	10586
3535.131	10365
3536.83	10302
3538.529	10481
3540.227	10344
3541.925	10405
3543.623	10301
3545.319	10252
3547.016	10333
3548.712	10262
3550.408	10335
3552.103	10275
3553.798	10218
3555.491	10285
3557.188	10385
3558.88	10264
3560.574	10324
3562.266	10101
3563.959	10282
3565.651	10202
3567.343	10092
3569.035	10246
3570.725	10236
3572.415	10066
3574.106	10194
3575.797	10073
3577.485	10163
3579.174	10085
3580.863	10015
3582.551	9985
3584.238	10027
3585.926	10040
3587.613	10167
3589.3	9943
3590.986	10007
3592.671	9963
3594.357	9902
3596.042	9993
3597.726	9917
3599.41	9900
3601.094	9964
3602.778	9847
3604.461	9945
3606.143	9958
3607.825	9902
3609.507	9817
3611.188	9777
3612.87	9872
3614.551	9806
3616.229	9900
3617.909	9828
3619.589	9535
3621.269	9848
3622.948	9699
3624.625	9672
3626.302	9595
3627.98	9700
3629.657	9666
3631.334	9700
3633.01	9547
3634.686	9695
3636.361	9508
3638.036	9801
3639.712	9540
3641.385	9616
3643.06	9472
3644.732	9550
3646.405	9596
3648.08	9592
3649.751	9592
3651.424	9407
3653.094	9573
3654.766	9389
3656.436	9480
3658.106	9355
3659.777	9343
3661.446	9417
3663.115	9393
3664.783	9325
3666.452	9507
3668.121	9441
3669.788	9378
3671.454	9259
3673.121	9333
3674.789	9422
3676.455	9337
3678.12	9412
3679.784	9408
3681.45	9253
3683.114	9187
3684.779	9326
3686.442	9166
3688.105	9357
3689.768	9342
3691.43	9325
3693.093	9331
3694.754	9210
3696.415	9217
3698.076	9235
3699.736	9151
3701.396	9238
3703.057	9173
3704.716	9190
3706.375	9241
3708.034	9214
3709.692	9209
3711.351	9089
3713.008	9072
3714.665	9040
3716.321	9005
3717.977	9171
3719.634	9206
3721.29	9070
3722.945	9120
3724.598	8990
3726.253	9060
3727.907	9144
3729.561	9025
3731.214	9322
3732.867	9135
3734.518	9151
3736.171	9138
3737.824	8928
3739.474	9009
3741.125	9133
3742.775	9004
3744.425	9068
3746.074	9044
3747.725	8879
3749.373	9125
3751.022	8945
3752.669	8957
3754.318	8849
3755.966	8895
3757.612	8762
3759.259	8848
3760.905	8850
3762.55	8835
3764.197	8780
3765.842	8741
3767.486	8712
3769.131	8806
3770.774	8846
3772.417	8808
3774.061	8860
3775.705	8738
3777.347	8813
3778.988	8796
3780.629	8837
3782.271	8831
3783.912	8748
3785.552	8862
3787.192	8698
3788.831	8786
3790.472	8740
3792.112	8677
3793.75	8730
3795.388	8752
3797.024	8755
3798.661	8680
3800.3	8555
3801.936	8641
3803.572	8605
3805.208	8696
3806.844	8533
3808.48	8661
3810.115	8551
3811.748	8547
3813.382	8449
3815.016	8552
3816.649	8537
3818.283	8569
3819.914	8564
3821.547	8549
3823.178	8523
3824.809	8420
3826.441	8600
3828.072	8484
3829.701	8385
3831.331	8411
3832.96	8535
3834.591	8478
3836.219	8347
3837.847	8443
3839.475	8497
3841.102	8426
3842.729	8263
3844.357	8602
3845.984	8313
3847.609	8419
3849.234	8431
3850.86	8415
3852.485	8239
3854.11	8388
3855.734	8344
3857.357	8288
3858.981	8302
3860.603	8345
3862.227	8272
3863.848	8189
3865.471	8320
3867.092	8277
3868.713	8308
3870.334	8246
3871.954	8266
3873.575	8123
3875.194	8164
3876.813	8234
3878.433	8209
3880.051	8101
3881.669	8159
3883.286	8126
3884.904	8264
3886.52	8191
3888.138	8086
3889.754	8153
3891.37	8191
3892.985	8038
3894.6	8112
3896.216	8171
3897.831	8100
3899.444	8083
3901.058	8170
3902.67	8117
3904.283	8118
3905.897	8164
3907.509	7890
3909.121	8073
3910.731	8118
3912.342	8039
3913.954	8103
3915.563	7972
3917.174	7962
3918.783	8022
3920.391	7985
3922.002	7902
3923.611	8082
3925.218	7987
3926.826	7947
3928.432	8018
3930.039	8061
3931.647	8086
3933.253	8016
3934.859	7950
3936.464	7871
3938.068	7932
3939.675	8043
3941.278	7920
3942.883	7917
3944.486	7857
3946.089	7936
3947.692	7806
3949.295	7895
3950.898	7923
3952.499	7947
3954.1	7811
3955.7	7836
3957.303	8018
3958.903	7831
3960.502	7888
3962.101	7794
3963.7	7812
3965.301	7798
3966.899	7878
3968.497	7718
3970.094	7764
3971.691	7803
3973.288	7740
3974.885	7743
3976.481	7674
3978.077	7722
3979.672	7621
3981.267	7669
3982.863	7684
3984.457	7602
3986.051	7561
3987.645	7637
3989.238	7776
3990.831	7661
3992.425	7587
3994.017	7537
3995.607	7695
3997.199	7563
3998.79	7571
4000.382	7605
4001.973	7543
4003.561	7509
4005.151	7420
4006.741	7623
4008.331	7467
4009.918	7488
4011.507	7530
4013.095	7526
4014.681	7307
4016.269	7526
4017.856	7305
4019.443	7529
4021.028	7288
4022.614	7342
4024.199	7429
4025.785	7420
4027.37	7217
4028.953	7373
4030.536	7343
4032.12	7254
4033.704	7263
4035.287	7259
4036.869	7311
4038.45	7256
4040.032	7277
4041.613	7256
4043.195	7211
4044.776	7281
4046.356	7290
4047.935	7273
4049.515	7110
4051.095	7191
4052.674	7209
4054.251	7269
4055.829	7108
4057.406	7211
4058.985	7112
4060.562	7198
4062.139	7145
4063.715	7186
4065.29	7077
4066.865	7225
4068.442	7148
4070.016	7074
4071.59	7017
4073.164	7138
4074.738	7067
4076.312	7122
4077.885	7151
4079.458	7041
4081.03	7053
4082.602	7018
4084.173	7066
4085.745	6976
4087.315	7109
4088.886	7041
4090.456	7007
4092.026	6831
4093.596	6942
4095.165	7143
4096.734	6997
4098.301	7017
4099.869	6942
4101.437	6962
4103.006	7043
4104.572	6952
4106.139	6821
4107.704	6987
4109.27	6857
4110.837	7044
4112.401	7041
4113.966	7115
4115.53	6777
4117.094	6892
4118.659	6927
4120.223	7030
4121.785	6724
4123.347	6806
4124.909	6876
4126.471	6834
4128.034	6846
4129.595	6810
4131.155	6837
4132.716	6704
4134.275	6653
4135.836	6752
4137.395	6736
4138.955	6794
4140.513	6742
4142.071	6668
4143.628	6634
4145.188	6680
4146.745	6607
4148.302	6685
4149.858	6714
4151.414	6638
4152.971	6565
4154.526	6578
4156.081	6534
4157.635	6659
4159.189	6573
4160.745	6600
4162.298	6706
4163.852	6471
4165.405	6571
4166.957	6618
4168.51	6536
4170.063	6494
4171.614	6560
4173.166	6569
4174.717	6512
4176.267	6342
4177.817	6597
4179.368	6543
4180.917	6401
4182.466	6508
4184.016	6456
4185.564	6470
4187.112	6302
4188.66	6396
4190.207	6375
4191.754	6415
4193.301	6467
4194.848	6424
4196.394	6364
4197.94	6382
4199.484	6386
4201.03	6462
4202.575	6271
4204.12	6379
4205.663	6315
4207.207	6319
4208.75	6331
4210.292	6283
4211.836	6381
4213.378	6209
4214.92	6405
4216.46	6212
4218.002	6329
4219.544	6217
4221.083	6288
4222.625	6294
4224.164	6343
4225.703	6342
4227.244	6282
4228.782	6224
4230.32	6301
4231.857	6313
4233.395	6227
4234.933	6302
4236.471	6227
4238.007	6290
4239.542	6165
4241.078	6217
4242.614	6224
4244.15	6170
4245.685	6158
4247.219	6186
4248.753	6097
4250.287	6142
4251.82	6163
4253.354	6107
4254.887	6107
4256.419	6078
4257.951	6232
4259.483	6229
4261.016	6057
4262.547	6153
4264.078	6077
4265.608	6034
4267.137	6094
4268.668	6118
4270.197	6128
4271.727	6115
4273.254	6122
4274.783	6073
4276.311	6175
4277.84	6032
4279.366	6061
4280.894	6032
4282.42	6055
4283.946	6035
4285.473	5984
4286.998	6043
4288.523	6015
4290.047	6008
4291.572	6043
4293.096	5975
4294.622	5853
4296.144	5913
4297.668	5958
4299.19	5945
4300.713	5872
4302.236	5915
4303.758	5816
4305.279	5944
4306.799	5862
4308.321	5922
4309.842	5863
4311.361	5939
4312.882	5780
4314.401	5862
