400.0961	3763
402.6185	3785
405.1424	3852
407.6635	3811
410.1838	3789
412.7035	3863
415.2225	3834
417.7388	3804
420.2585	3907
422.7754	3866
425.2917	3902
427.8072	3901
430.3221	3984
432.8363	3997
435.3498	4026
437.8626	4066
440.3727	3940
442.8841	4014
445.3969	4026
447.907	3992
450.4142	4065
452.9229	3971
455.4289	3942
457.9362	4011
460.4449	3971
462.9488	4025
465.454	4019
467.9566	3989
470.4604	3958
472.9637	4038
475.4662	4008
477.966	3998
480.4671	3929
482.9656	4029
485.4633	4054
487.9645	4051
490.4608	4077
492.9566	4118
495.4536	4046
497.948	4019
500.4437	4164
502.9387	4033
505.431	4177
507.9226	4166
510.4136	4144
512.9079	4208
515.3975	4214
517.8864	4107
520.3746	4127
522.8622	4122
525.3491	4151
527.8394	4152
530.3249	4129
532.8098	4249
535.2939	4199
537.7774	4186
540.2623	4237
542.7444	4274
545.2259	4174
547.7067	4138
550.1868	4211
552.6683	4125
555.147	4173
557.6231	4147
560.1005	4174
562.5773	4199
565.0534	4253
567.5308	4236
570.0056	4326
572.4776	4340
574.951	4258
577.4237	4284
579.8978	4290
582.3671	4336
584.8378	4285
587.3079	4382
589.7773	4353
592.244	4319
594.714	4367
597.1793	4425
599.6461	4317
602.1121	4340
604.5754	4333
607.0421	4318
609.5042	4359
611.9675	4328
614.4282	4344
616.8902	4332
619.3515	4281
621.8122	4330
624.2702	4264
626.7296	4351
629.1863	4349
631.6423	4283
634.1017	4324
636.5563	4361
639.0104	4391
641.4658	4324
643.9185	4317
646.3725	4325
648.8239	4323
651.2766	4382
653.7266	4290
656.176	4320
658.6247	4439
661.0748	4441
663.5242	4398
665.9709	4500
668.417	4505
670.8624	4491
673.3092	4398
675.7533	4385
678.1968	4492
680.6395	4446
683.0817	4543
685.5251	4522
687.9659	4523
690.4061	4542
692.8456	4560
695.2844	4496
697.7226	4526
700.1621	4534
702.599	4507
705.0332	4520
707.4688	4523
709.9036	4610
712.3399	4632
714.7735	4689
717.2044	4587
719.6367	4582
722.0683	4624
724.4993	4640
726.9296	4657
729.3593	4606
731.7883	4675
734.2147	4616
736.6423	4655
739.0714	4695
741.4958	4720
743.9216	4659
746.3447	4547
748.7691	4657
751.1929	4686
753.616	4694
756.0366	4712
758.4584	4766
760.8776	4781
763.2982	4903
765.718	4745
768.1373	4773
770.5539	4788
772.9698	4813
775.3871	4736
777.8038	4857
780.2178	4792
782.6332	4808
785.0459	4778
787.458	4835
789.8714	4840
792.2842	4753
794.6943	4895
797.1038	4788
799.5127	4817
801.9209	4738
804.3324	4836
806.7393	4846
809.1456	4819
811.5513	4877
813.9562	4918
816.3625	4925
818.7663	4914
821.1693	4894
823.5718	4948
825.9735	4901
828.3746	4863
830.7771	4860
833.177	4874
835.5762	4901
837.9747	4921
840.3727	4930
842.772	4887
845.1666	4933
847.5626	4931
849.958	4965
852.3527	4951
854.7488	4953
857.1403	5069
859.5331	5019
861.9253	5029
864.3168	5005
866.7057	5052
869.098	4943
871.4876	4878
873.8746	5086
876.263	5025
878.6487	4981
881.0378	4958
883.4243	4914
885.8081	4978
888.1933	4995
890.5759	4954
892.9598	4943
895.343	4923
897.7256	4974
900.1057	4937
902.4871	5019
904.8659	5005
907.246	4957
909.6254	5041
912.0023	5011
914.3786	5080
916.7562	5247
919.1331	5272
921.5074	5267
923.8831	5501
926.2562	5322
928.6287	5168
931.0005	5346
933.3757	5306
935.7462	5332
938.1162	5221
940.4855	5380
942.8542	5188
945.2242	5323
947.5916	5205
949.9584	5366
952.3266	5428
954.6921	5486
957.0571	5649
959.4233	5772
961.787	5671
964.15	5730
966.5125	5604
968.8742	5466
971.2354	5377
973.5959	5410
975.9559	5348
978.3151	5271
980.6738	5338
983.0338	5191
985.3912	5267
987.7461	5191
990.1022	5173
992.4578	5166
994.8127	5144
997.1689	5112
999.5207	5147
1001.874	5260
1004.226	5169
1006.576	5229
1008.929	5128
1011.28	5182
1013.628	5144
1015.977	5132
1018.324	5152
1020.674	5072
1023.019	5117
1025.366	5146
1027.713	5161
1030.056	5203
1032.399	5293
1034.746	5168
1037.087	5194
1039.431	5315
1041.771	5271
1044.113	5247
1046.454	5209
1048.793	5182
1051.133	5154
1053.471	5262
1055.807	5399
1058.146	5201
1060.483	5307
1062.818	5334
1065.153	5267
1067.489	5252
1069.822	5278
1072.156	5307
1074.488	5405
1076.82	5454
1079.15	5316
1081.48	5204
1083.814	5364
1086.143	5261
1088.471	5263
1090.799	5237
1093.126	5321
1095.452	5231
1097.78	5268
1100.105	5244
1102.43	5279
1104.754	5293
1107.077	5268
1109.4	5265
1111.722	5249
1114.044	5387
1116.365	5308
1118.685	5252
1121.005	5432
1123.324	5379
1125.643	5318
1127.961	5351
1130.278	5359
1132.595	5360
1134.911	5395
1137.226	5348
1139.541	5301
1141.854	5356
1144.167	5421
1146.482	5381
1148.793	5215
1151.105	5362
1153.414	5297
1155.725	5402
1158.033	5325
1160.344	5336
1162.651	5352
1164.959	5299
1167.265	5362
1169.572	5335
1171.878	5417
1174.184	5298
1176.488	5411
1178.79	5354
1181.094	5445
1183.396	5415
1185.699	5308
1188.001	5428
1190.301	5322
1192.6	5403
1194.9	5291
1197.2	5413
1199.497	5394
1201.794	5365
1204.09	5293
1206.387	5454
1208.684	5341
1210.978	5416
1213.272	5346
1215.565	5311
1217.858	5407
1220.15	5373
1222.443	5427
1224.734	5388
1227.024	5420
1229.313	5567
1231.602	5484
1233.892	5434
1236.18	5501
1238.467	5519
1240.754	5433
1243.04	5544
1245.325	5560
1247.612	5522
1249.896	5548
1252.178	5583
1254.461	5636
1256.743	5563
1259.027	5630
1261.308	5537
1263.587	5661
1265.867	5575
1268.146	5731
1270.425	5598
1272.703	5556
1274.981	5662
1277.256	5606
1279.532	5558
1281.808	5549
1284.083	5492
1286.358	5398
1288.63	5598
1290.904	5465
1293.175	5498
1295.449	5582
1297.719	5532
1299.99	5523
1302.259	5513
1304.529	5462
1306.798	5476
1309.065	5544
1311.333	5587
1313.599	5455
1315.866	5585
1318.131	5530
1320.396	5515
1322.66	5530
1324.925	5655
1327.187	5546
1329.448	5568
1331.711	5725
1333.974	5672
1336.234	5468
1338.493	5533
1340.752	5620
1343.01	5500
1345.269	5523
1347.526	5509
1349.784	5439
1352.04	5592
1354.295	5418
1356.552	5539
1358.806	5423
1361.059	5615
1363.312	5514
1365.564	5569
1367.818	5647
1370.069	5541
1372.318	5595
1374.568	5476
1376.817	5596
1379.066	5490
1381.316	5618
1383.564	5589
1385.809	5668
1388.056	5636
1390.301	5696
1392.549	5843
1394.793	5732
1397.036	5798
1399.279	5781
1401.522	5890
1403.763	5810
1406.007	5831
1408.248	5802
1410.487	5751
1412.727	5817
1414.965	5896
1417.205	5753
1419.442	5844
1421.68	5762
1423.915	5709
1426.152	5574
1428.388	5752
1430.623	5680
1432.857	5760
1435.091	5851
1437.323	5764
1439.556	5830
1441.789	5833
1444.019	5853
1446.25	5909
1448.48	5855
1450.708	5972
1452.938	5873
1455.167	5751
1457.394	5795
1459.62	5954
1461.846	5849
1464.073	5875
1466.299	5776
1468.523	5817
1470.746	5524
1472.969	5717
1475.191	5668
1477.415	5742
1479.636	5649
1481.858	5528
1484.078	5613
1486.298	5579
1488.518	5599
1490.736	5617
1492.954	5535
1495.169	5565
1497.386	5567
1499.602	5583
1501.819	5548
1504.034	5564
1506.248	5548
1508.462	5460
1510.675	5627
1512.888	5532
1515.1	5512
1517.311	5559
1519.522	5522
1521.732	5492
1523.942	5583
1526.151	5499
1528.36	5575
1530.566	5445
1532.773	5480
1534.98	5587
1537.187	5485
1539.392	5543
1541.596	5586
1543.801	5488
1546.005	5566
1548.208	5606
1550.411	5620
1552.612	5644
1554.814	5617
1557.013	5498
1559.212	5728
1561.414	5594
1563.612	5701
1565.811	5629
1568.007	5729
1570.203	5690
1572.403	5626
1574.598	5696
1576.792	5700
1578.988	5701
1581.181	5732
1583.376	5728
1585.568	5768
1587.761	5802
1589.952	5813
1592.143	5556
1594.333	5638
1596.524	5690
1598.715	5700
1600.903	5743
1603.091	5653
1605.278	5791
1607.466	5740
1609.652	5772
1611.838	5827
1614.023	5787
1616.207	5847
1618.391	5832
1620.576	5682
1622.759	5707
1624.941	5730
1627.123	5677
1629.304	5822
1631.484	5776
1633.664	5815
1635.844	5859
1638.022	5786
1640.201	5827
1642.38	5849
1644.556	5748
1646.732	5834
1648.908	5770
1651.084	5815
1653.257	5776
1655.433	5903
1657.607	5847
1659.779	5917
1661.951	5938
1664.122	5876
1666.295	5902
1668.467	5896
1670.635	5904
1672.805	5911
1674.973	5793
1677.142	5822
1679.31	5895
1681.478	5754
1683.644	5829
1685.81	5766
1687.975	5746
1690.142	5833
1692.305	5868
1694.468	5842
1696.632	5731
1698.794	5754
1700.957	5762
1703.119	5801
1705.279	5754
1707.439	5791
1709.598	5651
1711.758	5700
1713.917	5687
1716.075	5756
1718.231	5737
1720.388	5743
1722.543	5799
1724.702	5657
1726.856	5749
1729.01	5686
1731.164	5756
1733.317	5743
1735.471	5740
1737.623	5767
1739.774	5664
1741.925	5766
1744.075	5625
1746.225	5737
1748.376	5742
1750.524	5801
1752.672	5880
1754.82	5690
1756.965	5700
1759.113	5701
1761.259	5763
1763.405	5770
1765.549	5717
1767.694	5703
1769.836	5882
1771.981	5820
1774.123	5899
1776.264	5742
1778.405	5822
1780.546	5804
1782.687	5689
1784.827	5841
1786.966	5849
1789.103	5814
1791.242	5695
1793.381	5831
1795.517	5776
1797.653	5773
1799.788	5886
1801.923	5769
1804.057	5705
1806.193	5763
1808.326	5767
1810.457	5814
1812.59	5737
1814.721	5744
1816.855	5760
1818.984	5766
1821.113	5752
1823.244	5769
1825.372	5822
1827.499	5689
1829.63	5719
1831.756	5711
1833.882	5651
1836.007	5739
1838.132	5725
1840.26	5816
1842.384	5825
1844.507	5794
1846.63	5826
1848.752	5692
1850.875	5787
1852.996	5719
1855.118	5728
1857.238	5741
1859.358	5699
1861.477	5729
1863.597	5696
1865.715	5703
1867.832	5729
1869.948	5830
1872.064	5791
1874.181	5810
1876.297	5732
1878.411	5637
1880.526	5707
1882.639	5642
1884.752	5749
1886.865	5693
1888.977	5699
1891.089	5714
1893.2	5847
1895.308	5684
1897.42	5814
1899.53	5731
1901.639	5639
1903.745	5800
1905.853	5795
1907.962	5804
1910.067	5819
1912.174	5781
1914.278	5747
1916.383	5831
1918.486	5827
1920.592	5768
1922.694	5838
1924.797	5784
1926.898	5813
1929	5820
1931.102	5863
1933.203	5766
1935.301	5815
1937.401	5807
1939.499	5900
1941.598	5887
1943.697	5814
1945.793	5842
1947.888	5742
1949.985	5850
1952.08	5846
1954.176	5840
1956.269	5794
1958.364	5813
1960.457	5774
1962.549	5897
1964.642	5855
1966.733	5770
1968.823	5784
1970.913	5932
1973.005	5751
1975.093	5838
1977.184	5818
1979.271	5779
1981.359	5815
1983.446	5857
1985.532	5692
1987.619	5820
1989.705	5688
1991.789	5886
1993.874	5765
1995.956	5750
1998.041	5736
2000.123	5764
2002.206	5666
2004.287	5884
2006.368	5756
2008.449	5748
2010.529	5798
2012.609	5772
2014.688	5740
2016.766	5695
2018.843	5761
2020.922	5714
2022.999	5796
2025.074	5799
2027.15	5816
2029.225	5764
2031.299	5708
2033.375	5679
2035.447	5709
2037.52	5699
2039.592	5708
2041.664	5755
2043.736	5677
2045.807	5748
2047.876	5696
2049.947	5708
2052.015	5721
2054.086	5705
2056.153	5702
2058.221	5849
2060.288	5704
2062.353	5784
2064.42	5785
2066.486	5785
2068.55	5700
2070.614	5755
2072.678	5739
2074.741	5729
2076.805	5739
2078.866	5765
2080.929	5835
2082.99	5739
2085.049	5782
2087.109	5811
2089.17	5849
2091.228	5738
2093.286	5677
2095.344	5656
2097.4	5703
2099.46	5707
2101.516	5743
2103.572	5700
2105.626	5789
2107.679	5724
2109.735	5828
2111.788	5768
2113.841	5784
2115.894	5736
2117.945	5751
2119.997	5866
2122.049	5728
2124.1	5779
2126.148	5720
2128.197	5787
2130.246	5653
2132.296	5875
2134.342	5770
2136.39	5710
2138.437	5799
2140.483	5717
2142.527	5753
2144.574	5712
2146.619	5633
2148.661	5754
2150.705	5727
2152.747	5608
2154.792	5797
2156.832	5673
2158.874	5666
2160.915	5751
2162.954	5741
2164.995	5605
2167.034	5759
2169.072	5686
2171.111	5664
2173.148	5631
2175.186	5769
2177.223	5601
2179.258	5663
2181.294	5700
2183.328	5670
2185.362	5636
2187.398	5523
2189.431	5722
2191.463	5610
2193.495	5565
2195.528	5650
2197.56	5662
2199.59	5576
2201.62	5651
2203.649	5584
2205.678	5542
2207.708	5621
2209.737	5638
2211.764	5685
2213.791	5653
2215.817	5514
2217.843	5650
2219.87	5585
2221.895	5570
2223.919	5555
2225.942	5590
2227.966	5544
2229.988	5592
2232.012	5520
2234.032	5586
2236.054	5578
2238.074	5615
2240.095	5661
2242.116	5492
2244.135	5581
2246.153	5543
2248.171	5562
2250.188	5613
2252.208	5650
2254.223	5565
2256.239	5562
2258.255	5612
2260.269	5651
2262.283	5579
2264.3	5577
2266.312	5601
2268.325	5656
2270.336	5589
2272.349	5520
2274.362	5694
2276.372	5540
2278.383	5579
2280.392	5556
2282.402	5637
2284.409	5585
2286.418	5546
2288.427	5674
2290.433	5615
2292.441	5509
2294.446	5640
2296.453	5487
2298.459	5562
2300.463	5602
2302.466	5610
2304.471	5564
2306.475	5653
2308.477	5524
2310.478	5495
2312.481	5687
2314.481	5606
2316.481	5549
2318.482	5411
2320.482	5600
2322.48	5499
2324.48	5589
2326.478	5507
2328.476	5522
2330.473	5555
2332.469	5572
2334.465	5570
2336.46	5416
2338.454	5387
2340.45	5515
2342.444	5439
2344.437	5442
2346.43	5500
2348.421	5471
2350.414	5462
2352.405	5484
2354.396	5505
2356.386	5416
2358.376	5400
2360.366	5526
2362.355	5370
2364.343	5510
2366.331	5526
2368.317	5504
2370.304	5388
2372.292	5570
2374.278	5429
2376.262	5427
2378.247	5538
2380.23	5453
2382.216	5444
2384.199	5434
2386.181	5489
2388.163	5343
2390.144	5348
2392.127	5385
2394.107	5349
2396.087	5386
2398.066	5332
2400.046	5485
2402.023	5351
2404.004	5368
2405.981	5423
2407.957	5299
2409.934	5409
2411.91	5386
2413.886	5313
2415.862	5479
2417.836	5332
2419.809	5305
2421.784	5375
2423.756	5349
2425.73	5400
2427.701	5219
2429.672	5324
2431.644	5424
2433.615	5389
2435.586	5327
2437.555	5513
2439.523	5310
2441.491	5276
2443.459	5360
2445.428	5441
2447.395	5384
2449.361	5389
2451.327	5343
2453.292	5320
2455.257	5294
2457.223	5400
2459.187	5339
2461.15	5334
2463.113	5410
2465.076	5358
2467.039	5314
2468.999	5351
2470.96	5223
2472.921	5352
2474.881	5272
2476.841	5305
2478.8	5222
2480.759	5348
2482.717	5234
2484.675	5308
2486.63	5223
2488.589	5297
2490.545	5284
2492.5	5219
2494.455	5301
2496.408	5237
2498.364	5439
2500.318	5317
2502.27	5245
2504.223	5222
2506.174	5296
2508.126	5248
2510.078	5281
2512.03	5187
2513.979	5255
2515.927	5233
2517.877	5278
2519.826	5302
2521.775	5268
2523.722	5281
2525.668	5367
2527.616	5303
2529.561	5259
2531.508	5320
2533.452	5300
2535.398	5157
2537.342	5182
2539.284	5086
2541.229	5301
2543.173	5250
2545.114	5164
2547.055	5263
2548.996	5177
2550.938	5301
2552.878	5298
2554.817	5207
2556.756	5161
2558.695	5260
2560.633	5290
2562.572	5188
2564.509	5246
2566.445	5287
2568.382	5222
2570.317	5166
2572.254	5193
2574.189	5243
2576.123	5201
2578.057	5244
2579.99	5220
2581.923	5237
2583.855	5189
2585.788	5256
2587.719	5194
2589.65	5229
2591.579	5247
2593.511	5182
2595.44	5301
2597.37	5187
2599.297	5211
2601.225	5201
2603.153	5190
2605.08	5310
2607.007	5195
2608.932	5230
2610.858	5276
2612.782	5254
2614.709	5224
2616.632	5268
2618.556	5268
2620.478	5306
2622.401	5219
2624.324	5199
2626.247	5112
2628.167	5178
2630.088	5226
2632.008	5272
2633.928	5255
2635.848	5179
2637.766	5251
2639.684	5244
2641.603	5233
2643.519	5264
2645.437	5155
2647.353	5122
2649.27	5338
2651.184	5254
2653.099	5288
2655.014	5193
2656.928	5178
2658.842	5237
2660.755	5152
2662.667	5249
2664.579	5168
2666.491	5209
2668.402	5196
2670.312	5121
2672.222	5171
2674.132	5071
2676.042	5228
2677.951	5126
2679.859	5201
2681.766	5152
2683.674	5185
2685.582	5125
2687.488	5199
2689.392	5277
2691.298	5230
2693.202	5229
2695.107	5181
2697.012	5193
2698.914	5180
2700.817	5070
2702.72	5111
2704.622	5193
2706.524	5211
2708.425	5162
2710.326	5130
2712.225	5036
2714.125	5154
2716.024	5156
2717.923	5110
2719.822	5119
2721.719	5097
2723.616	5108
2725.512	5170
2727.41	5125
2729.305	5010
2731.201	5018
2733.095	5098
2734.99	5124
2736.884	4988
2738.778	5078
2740.67	5079
2742.562	5163
2744.455	5143
2746.346	5089
2748.238	5094
2750.129	5124
2752.018	5195
2753.907	5072
2755.797	5093
2757.687	5013
2759.575	4978
2761.462	5140
2763.349	5019
2765.237	4921
2767.124	5106
2769.009	5055
2770.894	5031
2772.779	5004
2774.663	5050
2776.547	5043
2778.431	5113
2780.314	5111
2782.197	5056
2784.078	5038
2785.96	4970
2787.842	5097
2789.723	5111
2791.603	5102
2793.483	5029
2795.362	5072
2797.241	4995
2799.121	5071
2800.997	5080
2802.874	5022
2804.751	5010
2806.628	4966
2808.506	5115
2810.38	5006
2812.255	4967
2814.13	5035
2816.003	5027
2817.878	5020
2819.752	5099
2821.623	5058
2823.496	5063
2825.368	5016
2827.238	5064
2829.111	5061
2830.98	4967
2832.851	4972
2834.719	5094
2836.589	5083
2838.458	5115
2840.327	4982
2842.193	5130
2844.061	5012
2845.927	5024
2847.794	5092
2849.66	5060
2851.525	5051
2853.39	5031
2855.254	5066
2857.117	5083
2858.983	5223
2860.845	5064
2862.707	5104
2864.569	5201
2866.431	5168
2868.293	5129
2870.154	5212
2872.013	5164
2873.873	5234
2875.733	5234
2877.592	5283
2879.451	5444
2881.309	5475
2883.166	5350
2885.022	5440
2886.879	5508
2888.736	5486
2890.591	5553
2892.446	5535
2894.301	5569
2896.155	5399
2898.009	5500
2899.863	5459
2901.716	5502
2903.568	5519
2905.419	5423
2907.27	5387
2909.123	5421
2910.973	5437
2912.824	5643
2914.673	5559
2916.521	5581
2918.372	5514
2920.22	5673
2922.067	5684
2923.914	5734
2925.761	5664
2927.607	5778
2929.455	5762
2931.301	5725
2933.144	5776
2934.99	5817
2936.833	6026
2938.678	5958
2940.522	5761
2942.364	5983
2944.207	6083
2946.048	6039
2947.891	6127
2949.731	6183
2951.571	6275
2953.412	6183
2955.25	6119
2957.09	6152
2958.93	6114
2960.767	6040
2962.606	6006
2964.443	5962
2966.279	5920
2968.116	5885
2969.953	5728
2971.788	5670
2973.623	5550
2975.457	5539
2977.292	5539
2979.127	5585
2980.959	5470
2982.792	5353
2984.624	5373
2986.455	5363
2988.288	5312
2990.119	5328
2991.949	5335
2993.779	5246
2995.608	5207
2997.439	5248
2999.268	5174
3001.096	5157
3002.923	5156
3004.751	5190
3006.578	4966
3008.406	5000
3010.232	5046
3012.057	5008
3013.883	4910
3015.706	4915
3017.532	4918
3019.356	4905
3021.179	4961
3023.002	4848
3024.823	4777
3026.646	4892
3028.469	4830
3030.289	4774
3032.11	4757
3033.93	4851
3035.749	4821
3037.57	4798
3039.39	4758
3041.207	4751
3043.026	4801
3044.842	4774
3046.661	4666
3048.477	4823
3050.294	4743
3052.109	4729
3053.925	4751
3055.739	4738
3057.555	4765
3059.368	4722
3061.181	4687
3062.995	4713
3064.807	4712
3066.62	4685
3068.433	4601
3070.243	4737
3072.054	4623
3073.865	4725
3075.675	4645
3077.485	4740
3079.293	4647
3081.102	4655
3082.911	4728
3084.719	4704
3086.527	4720
3088.333	4604
3090.139	4645
3091.945	4636
3093.75	4581
3095.557	4595
3097.361	4591
3099.165	4623
3100.969	4510
3102.772	4643
3104.575	4551
3106.379	4620
3108.181	4519
3109.982	4533
3111.783	4554
3113.584	4580
3115.386	4581
3117.186	4616
3118.985	4522
3120.783	4518
3122.582	4496
3124.381	4580
3126.179	4528
3127.975	4533
3129.772	4422
3131.569	4502
3133.365	4480
3135.161	4495
3136.956	4539
3138.751	4490
3140.544	4394
3142.338	4502
3144.132	4508
3145.925	4532
3147.717	4456
3149.509	4414
3151.301	4500
3153.091	4405
3154.884	4413
3156.673	4426
3158.462	4357
3160.252	4394
3162.041	4466
3163.831	4337
3165.618	4446
3167.405	4400
3169.193	4391
3170.979	4398
3172.767	4335
3174.553	4374
3176.338	4426
3178.123	4320
3179.907	4532
3181.692	4416
3183.477	4330
3185.259	4412
3187.042	4387
3188.824	4313
3190.607	4405
3192.389	4403
3194.17	4387
3195.951	4469
3197.73	4339
3199.51	4257
3201.289	4436
3203.07	4340
3204.848	4397
3206.626	4358
3208.403	4413
3210.18	4307
3211.959	4427
3213.735	4396
3215.511	4346
3217.285	4416
3219.06	4399
3220.836	4343
3222.611	4320
3224.384	4354
3226.158	4433
3227.929	4326
3229.702	4297
3231.476	4363
3233.248	4356
3235.018	4357
3236.789	4354
3238.56	4414
3240.33	4285
3242.1	4368
3243.869	4346
3245.637	4463
3247.405	4390
3249.172	4390
3250.941	4344
3252.707	4268
3254.474	4284
3256.24	4447
3258.006	4354
3259.772	4364
3261.537	4294
3263.301	4342
3265.065	4283
3266.828	4342
3268.592	4325
3270.355	4390
3272.117	4325
3273.878	4279
3275.64	4279
3277.401	4374
3279.162	4346
3280.922	4319
3282.682	4398
3284.441	4359
3286.199	4361
3287.959	4309
3289.716	4380
3291.475	4311
3293.232	4398
3294.988	4262
3296.744	4297
3298.501	4342
3300.256	4348
3302.011	4351
3303.766	4328
3305.52	4271
3307.275	4342
3309.028	4258
3310.781	4287
3312.533	4296
3314.285	4347
3316.038	4239
3317.789	4314
3319.54	4224
3321.289	4385
3323.039	4336
3324.789	4267
3326.539	4284
3328.288	4289
3330.035	4371
3331.783	4240
3333.531	4343
3335.28	4241
3337.025	4247
3338.771	4324
3340.518	4300
3342.262	4359
3344.009	4228
3345.753	4277
3347.497	4279
3349.24	4251
3350.983	4175
3352.726	4161
3354.469	4141
3356.212	4172
3357.952	4232
3359.694	4265
3361.434	4223
3363.176	4090
3364.916	4191
3366.654	4190
3368.394	4187
3370.132	4213
3371.871	4103
3373.61	4224
3375.346	4116
3377.083	4184
3378.82	4143
3380.556	4172
3382.292	4200
3384.027	4157
3385.763	4163
3387.497	4141
3389.231	4133
3390.965	4155
3392.698	4127
3394.431	4122
3396.164	4167
3397.896	4123
3399.627	4092
3401.36	4105
3403.09	4033
3404.82	4125
3406.55	4096
3408.279	4115
3410.01	4062
3411.738	4057
3413.467	4118
3415.194	4193
3416.92	4050
3418.647	4104
3420.375	4108
3422.102	4028
3423.827	4067
3425.553	4048
3427.277	4095
3429.003	4046
3430.727	4105
3432.451	4079
3434.173	3932
3435.896	4036
3437.62	4069
3439.343	4021
3441.063	4015
3442.785	4080
3444.505	4037
3446.226	3960
3447.948	4023
3449.666	3952
3451.386	3901
3453.104	3970
3454.823	4069
3456.541	4039
3458.259	3972
3459.976	3876
3461.693	3989
3463.408	3987
3465.125	3894
3466.841	3955
3468.556	3882
3470.271	3932
3471.985	3913
3473.698	3865
3475.414	3895
3477.126	3895
3478.838	3890
3480.55	3811
3482.263	3871
3483.975	3874
3485.686	3892
3487.396	3880
3489.106	3882
3490.817	3914
3492.526	3826
3494.236	3814
3495.944	3882
3497.652	3845
3499.359	3772
3501.066	3794
3502.775	3846
3504.481	3774
3506.187	3759
3507.893	3844
3509.598	3793
3511.304	3799
3513.009	3826
3514.713	3819
3516.417	3791
3518.12	3837
3519.821	3874
3521.525	3713
3523.228	3813
3524.929	3793
3526.631	3754
3528.33	3810
3530.032	3825
3531.733	3762
3533.433	3756
3535.131	3734
3536.83	3783
3538.529	3701
3540.227	3786
3541.925	3700
3543.623	3814
3545.319	3656
3547.016	3783
3548.712	3764
3550.408	3667
3552.103	3727
3553.798	3722
3555.491	3703
3557.188	3734
3558.88	3730
3560.574	3672
3562.266	3687
3563.959	3714
3565.651	3756
3567.343	3691
3569.035	3639
3570.725	3680
3572.415	3630
3574.106	3653
3575.797	3673
3577.485	3704
3579.174	3708
3580.863	3630
3582.551	3638
3584.238	3629
3585.926	3595
3587.613	3683
3589.3	3650
3590.986	3664
3592.671	3631
3594.357	3661
3596.042	3644
3597.726	3596
3599.41	3715
3601.094	3581
3602.778	3531
3604.461	3583
3606.143	3654
3607.825	3609
3609.507	3578
3611.188	3643
3612.87	3526
3614.551	3607
3616.229	3526
3617.909	3472
3619.589	3562
3621.269	3508
3622.948	3545
3624.625	3495
3626.302	3502
3627.98	3465
3629.657	3409
3631.334	3533
3633.01	3484
3634.686	3412
3636.361	3501
3638.036	3439
3639.712	3478
3641.385	3492
3643.06	3465
3644.732	3440
3646.405	3452
3648.08	3414
3649.751	3449
3651.424	3431
3653.094	3442
3654.766	3425
3656.436	3367
3658.106	3417
3659.777	3358
3661.446	3422
3663.115	3413
3664.783	3393
3666.452	3406
3668.121	3362
3669.788	3351
3671.454	3407
3673.121	3390
3674.789	3380
3676.455	3431
3678.12	3396
3679.784	3436
3681.45	3408
3683.114	3408
3684.779	3463
3686.442	3324
3688.105	3447
3689.768	3362
3691.43	3368
3693.093	3379
3694.754	3346
3696.415	3326
3698.076	3360
3699.736	3380
3701.396	3368
3703.057	3423
3704.716	3310
3706.375	3343
3708.034	3376
3709.692	3309
3711.351	3309
3713.008	3334
3714.665	3325
3716.321	3313
3717.977	3342
3719.634	3323
3721.29	3309
3722.945	3337
3724.598	3292
3726.253	3351
3727.907	3318
3729.561	3216
3731.214	3251
3732.867	3318
3734.518	3282
3736.171	3246
3737.824	3242
3739.474	3238
3741.125	3324
3742.775	3287
3744.425	3261
3746.074	3281
3747.725	3274
3749.373	3200
3751.022	3300
3752.669	3229
3754.318	3269
3755.966	3200
3757.612	3269
3759.259	3241
3760.905	3224
3762.55	3241
3764.197	3178
3765.842	3283
3767.486	3222
3769.131	3213
3770.774	3211
3772.417	3168
3774.061	3228
3775.705	3263
3777.347	3212
3778.988	3098
3780.629	3201
3782.271	3223
3783.912	3242
3785.552	3160
3787.192	3210
3788.831	3212
3790.472	3165
3792.112	3211
3793.75	3158
3795.388	3209
3797.024	3148
3798.661	3170
3800.3	3186
3801.936	3201
3803.572	3150
3805.208	3166
3806.844	3136
3808.48	3074
3810.115	3146
3811.748	3212
3813.382	3174
3815.016	3196
3816.649	3118
3818.283	3125
3819.914	3093
3821.547	3093
3823.178	3158
3824.809	3096
3826.441	3110
3828.072	3085
3829.701	3167
3831.331	2994
3832.96	3143
3834.591	2975
3836.219	3121
3837.847	3073
3839.475	3093
3841.102	3116
3842.729	3133
3844.357	3101
3845.984	3094
3847.609	3068
3849.234	3140
3850.86	3028
3852.485	3071
3854.11	3114
3855.734	3034
3857.357	3123
3858.981	3023
3860.603	3009
3862.227	3046
3863.848	3022
3865.471	3051
3867.092	3063
3868.713	3010
3870.334	3045
3871.954	3003
3873.575	3007
3875.194	3027
3876.813	3041
3878.433	3085
3880.051	2960
3881.669	3051
3883.286	3027
3884.904	2975
3886.52	2973
3888.138	2951
3889.754	3009
3891.37	3022
3892.985	2972
3894.6	2933
3896.216	3027
3897.831	2981
3899.444	2970
3901.058	2991
3902.67	2940
3904.283	3038
3905.897	2922
3907.509	2976
3909.121	2981
3910.731	2911
3912.342	2970
3913.954	2958
3915.563	3015
3917.174	2966
3918.783	2967
3920.391	2981
3922.002	2970
3923.611	2964
3925.218	2913
3926.826	2965
3928.432	2932
3930.039	2978
3931.647	2957
3933.253	3001
3934.859	2936
3936.464	2945
3938.068	2965
3939.675	2917
3941.278	2933
3942.883	2921
3944.486	2989
3946.089	2901
3947.692	2959
3949.295	2925
3950.898	2901
3952.499	2959
3954.1	2846
3955.7	2887
3957.303	2809
3958.903	2935
3960.502	2862
3962.101	2888
3963.7	2854
3965.301	2948
3966.899	2908
3968.497	2909
3970.094	2850
3971.691	2930
3973.288	2889
3974.885	2875
3976.481	2915
3978.077	2886
3979.672	2844
3981.267	2881
3982.863	2828
3984.457	2857
3986.051	2801
3987.645	2904
3989.238	2851
3990.831	2844
3992.425	2773
3994.017	2776
3995.607	2835
3997.199	2816
3998.79	2836
4000.382	2809
4001.973	2786
4003.561	2723
4005.151	2824
4006.741	2807
4008.331	2846
4009.918	2744
4011.507	2762
4013.095	2718
4014.681	2758
4016.269	2843
4017.856	2770
4019.443	2736
4021.028	2757
4022.614	2711
4024.199	2739
4025.785	2681
4027.37	2698
4028.953	2728
4030.536	2691
4032.12	2750
4033.704	2753
4035.287	2772
4036.869	2707
4038.45	2704
4040.032	2712
4041.613	2710
4043.195	2685
4044.776	2731
4046.356	2661
4047.935	2770
4049.515	2710
4051.095	2722
4052.674	2642
4054.251	2689
4055.829	2766
4057.406	2698
4058.985	2645
4060.562	2716
4062.139	2674
4063.715	2661
4065.29	2655
4066.865	2679
4068.442	2640
4070.016	2617
4071.59	2691
4073.164	2693
4074.738	2701
4076.312	2741
4077.885	2720
4079.458	2648
4081.03	2700
4082.602	2683
4084.173	2566
4085.745	2726
4087.315	2621
4088.886	2596
4090.456	2604
4092.026	2691
4093.596	2598
4095.165	2674
4096.734	2683
4098.301	2658
4099.869	2619
4101.437	2636
4103.006	2659
4104.572	2616
4106.139	2677
4107.704	2583
4109.27	2615
4110.837	2592
4112.401	2653
4113.966	2600
4115.53	2603
4117.094	2610
4118.659	2575
4120.223	2588
4121.785	2556
4123.347	2595
4124.909	2563
4126.471	2575
4128.034	2590
4129.595	2542
4131.155	2613
4132.716	2543
4134.275	2602
4135.836	2615
4137.395	2516
4138.955	2533
4140.513	2515
4142.071	2574
4143.628	2559
4145.188	2558
4146.745	2517
4148.302	2573
4149.858	2537
4151.414	2498
4152.971	2558
4154.526	2518
4156.081	2565
4157.635	2522
4159.189	2517
4160.745	2443
4162.298	2569
4163.852	2511
4165.405	2513
4166.957	2451
4168.51	2471
4170.063	2506
4171.614	2508
4173.166	2567
4174.717	2439
4176.267	2507
4177.817	2527
4179.368	2421
4180.917	2442
4182.466	2529
4184.016	2465
4185.564	2479
4187.112	2430
4188.66	2449
4190.207	2407
4191.754	2435
4193.301	2438
4194.848	2420
4196.394	2447
4197.94	2457
4199.484	2472
4201.03	2430
4202.575	2402
4204.12	2441
4205.663	2454
4207.207	2414
4208.75	2391
4210.292	2393
4211.836	2412
4213.378	2472
4214.92	2441
4216.46	2493
4218.002	2442
4219.544	2433
4221.083	2459
4222.625	2332
4224.164	2397
4225.703	2386
4227.244	2413
4228.782	2388
4230.32	2408
4231.857	2360
4233.395	2394
4234.933	2382
4236.471	2339
4238.007	2408
4239.542	2399
4241.078	2440
4242.614	2366
4244.15	2388
4245.685	2443
4247.219	2327
4248.753	2399
4250.287	2417
4251.82	2353
4253.354	2396
4254.887	2372
4256.419	2371
4257.951	2399
4259.483	2361
4261.016	2357
4262.547	2342
4264.078	2360
4265.608	2356
4267.137	2296
4268.668	2350
4270.197	2407
4271.727	2386
4273.254	2365
4274.783	2280
4276.311	2286
4277.84	2277
4279.366	2307
4280.894	2304
4282.42	2355
4283.946	2330
4285.473	2283
4286.998	2372
4288.523	2231
4290.047	2348
4291.572	2330
4293.096	2347
4294.622	2285
4296.144	2278
4297.668	2367
4299.19	2309
4300.713	2287
4302.236	2275
4303.758	2273
4305.279	2316
4306.799	2278
4308.321	2298
4309.842	2315
4311.361	2348
4312.882	2324
4314.401	2281
