400.0961	5838
402.6185	5975
405.1424	5836
407.6635	5956
410.1838	6005
412.7035	5992
415.2225	6081
417.7388	5925
420.2585	6093
422.7754	6105
425.2917	6226
427.8072	6209
430.3221	6211
432.8363	6266
435.3498	6219
437.8626	6173
440.3727	6270
442.8841	6303
445.3969	6355
447.907	6277
450.4142	6267
452.9229	6328
455.4289	6323
457.9362	6334
460.4449	6293
462.9488	6453
465.454	6317
467.9566	6334
470.4604	6412
472.9637	6318
475.4662	6383
477.966	6560
480.4671	6460
482.9656	6474
485.4633	6480
487.9645	6511
490.4608	6557
492.9566	6541
495.4536	6474
497.948	6590
500.4437	6614
502.9387	6616
505.431	6522
507.9226	6627
510.4136	6652
512.9079	6612
515.3975	6639
517.8864	6685
520.3746	6743
522.8622	6634
525.3491	6678
527.8394	6824
530.3249	6792
532.8098	6678
535.2939	6658
537.7774	6800
540.2623	6656
542.7444	6764
545.2259	6711
547.7067	6681
550.1868	6718
552.6683	6730
555.147	6651
557.6231	6730
560.1005	6732
562.5773	6835
565.0534	6739
567.5308	6761
570.0056	6809
572.4776	6840
574.951	6843
577.4237	6937
579.8978	6993
582.3671	6944
584.8378	6912
587.3079	6918
589.7773	6908
592.244	6994
594.714	6959
597.1793	7003
599.6461	6958
602.1121	6889
604.5754	6940
607.0421	6929
609.5042	6802
611.9675	7037
614.4282	7074
616.8902	6983
619.3515	6907
621.8122	6933
624.2702	6995
626.7296	6936
629.1863	6906
631.6423	6976
634.1017	6970
636.5563	7035
639.0104	6964
641.4658	6981
643.9185	6910
646.3725	6959
648.8239	7077
651.2766	7147
653.7266	7074
656.176	7043
658.6247	7028
661.0748	7204
663.5242	7057
665.9709	7109
668.417	7152
670.8624	7194
673.3092	7359
675.7533	7159
678.1968	7200
680.6395	7233
683.0817	7104
685.5251	7131
687.9659	7170
690.4061	7305
692.8456	7159
695.2844	7240
697.7226	7387
700.1621	7253
702.599	7222
705.0332	7070
707.4688	7299
709.9036	7348
712.3399	7390
714.7735	7321
717.2044	7313
719.6367	7463
722.0683	7366
724.4993	7303
726.9296	7520
729.3593	7527
731.7883	7606
734.2147	7387
736.6423	7533
739.0714	7613
741.4958	7643
743.9216	7620
746.3447	7599
748.7691	7591
751.1929	7702
753.616	7763
756.0366	7757
758.4584	7825
760.8776	7802
763.2982	7786
765.718	7631
768.1373	7749
770.5539	7905
772.9698	7744
775.3871	7886
777.8038	7780
780.2178	7739
782.6332	7981
785.0459	7842
787.458	7853
789.8714	7809
792.2842	7847
794.6943	7777
797.1038	7948
799.5127	7718
801.9209	7769
804.3324	7824
806.7393	7901
809.1456	7810
811.5513	7863
813.9562	7813
816.3625	7977
818.7663	7911
821.1693	7946
823.5718	7873
825.9735	7975
828.3746	7877
830.7771	7869
833.177	7981
835.5762	7919
837.9747	7782
840.3727	7887
842.772	7899
845.1666	7935
847.5626	7973
849.958	8006
852.3527	8035
854.7488	8133
857.1403	8037
859.5331	8042
861.9253	7959
864.3168	7989
866.7057	8154
869.098	7846
871.4876	8008
873.8746	8105
876.263	7974
878.6487	7999
881.0378	7980
883.4243	7919
885.8081	8098
888.1933	7933
890.5759	7965
892.9598	8007
895.343	7976
897.7256	7953
900.1057	7971
902.4871	8037
904.8659	8004
907.246	8099
909.6254	8070
912.0023	8083
914.3786	8005
916.7562	8270
919.1331	8300
921.5074	8300
923.8831	8094
926.2562	8314
928.6287	8396
931.0005	8387
933.3757	8206
935.7462	8322
938.1162	8373
940.4855	8560
942.8542	8533
945.2242	8418
947.5916	8531
949.9584	8668
952.3266	8597
954.6921	8746
957.0571	9070
959.4233	9022
961.787	9180
964.15	9377
966.5125	9014
968.8742	9082
971.2354	8798
973.5959	8683
975.9559	8706
978.3151	8374
980.6738	8423
983.0338	8361
985.3912	8340
987.7461	8421
990.1022	8218
992.4578	8280
994.8127	8339
997.1689	8308
999.5207	8297
1001.874	8304
1004.226	8190
1006.576	8146
1008.929	8321
1011.28	8292
1013.628	8280
1015.977	8347
1018.324	8380
1020.674	8406
1023.019	8349
1025.366	8356
1027.713	8272
1030.056	8392
1032.399	8413
1034.746	8328
1037.087	8370
1039.431	8500
1041.771	8293
1044.113	8441
1046.454	8423
1048.793	8442
1051.133	8535
1053.471	8217
1055.807	8526
1058.146	8407
1060.483	8403
1062.818	8561
1065.153	8509
1067.489	8487
1069.822	8561
1072.156	8538
1074.488	8417
1076.82	8518
1079.15	8530
1081.48	8475
1083.814	8511
1086.143	8470
1088.471	8537
1090.799	8401
1093.126	8434
1095.452	8513
1097.78	8582
1100.105	8597
1102.43	8527
1104.754	8519
1107.077	8455
1109.4	8527
1111.722	8555
1114.044	8438
1116.365	8505
1118.685	8539
1121.005	8525
1123.324	8613
1125.643	8598
1127.961	8446
1130.278	8776
1132.595	8546
1134.911	8576
1137.226	8529
1139.541	8560
1141.854	8564
1144.167	8660
1146.482	8659
1148.793	8670
1151.105	8628
1153.414	8681
1155.725	8468
1158.033	8616
1160.344	8696
1162.651	8666
1164.959	8545
1167.265	8629
1169.572	8619
1171.878	8597
1174.184	8649
1176.488	8522
1178.79	8683
1181.094	8716
1183.396	8603
1185.699	8579
1188.001	8588
1190.301	8571
1192.6	8486
1194.9	8526
1197.2	8588
1199.497	8671
1201.794	8663
1204.09	8619
1206.387	8531
1208.684	8632
1210.978	8674
1213.272	8565
1215.565	8642
1217.858	8632
1220.15	8624
1222.443	8622
1224.734	8650
1227.024	8747
1229.313	8825
1231.602	8775
1233.892	8803
1236.18	8923
1238.467	8747
1240.754	8781
1243.04	8888
1245.325	8903
1247.612	9009
1249.896	8893
1252.178	8904
1254.461	8876
1256.743	8879
1259.027	8823
1261.308	8928
1263.587	8759
1265.867	9002
1268.146	8925
1270.425	8898
1272.703	8967
1274.981	8870
1277.256	8930
1279.532	8882
1281.808	8741
1284.083	8724
1286.358	8807
1288.63	8846
1290.904	8744
1293.175	8817
1295.449	8890
1297.719	8937
1299.99	8781
1302.259	8829
1304.529	8867
1306.798	8758
1309.065	8889
1311.333	8826
1313.599	8814
1315.866	8958
1318.131	8782
1320.396	8747
1322.66	8785
1324.925	8882
1327.187	8855
1329.448	8868
1331.711	8855
1333.974	8870
1336.234	8869
1338.493	8900
1340.752	8963
1343.01	8805
1345.269	8812
1347.526	8840
1349.784	8673
1352.04	8727
1354.295	8887
1356.552	8789
1358.806	8852
1361.059	8806
1363.312	8962
1365.564	8828
1367.818	8963
1370.069	8912
1372.318	8754
1374.568	8847
1376.817	8843
1379.066	8877
1381.316	8987
1383.564	8942
1385.809	8954
1388.056	8970
1390.301	8994
1392.549	9094
1394.793	9072
1397.036	8948
1399.279	9013
1401.522	9264
1403.763	9055
1406.007	8983
1408.248	9114
1410.487	9089
1412.727	8963
1414.965	9179
1417.205	9097
1419.442	9010
1421.68	9046
1423.915	9110
1426.152	9084
1428.388	9074
1430.623	9015
1432.857	9166
1435.091	9144
1437.323	8982
1439.556	9091
1441.789	9272
1444.019	9086
1446.25	9372
1448.48	9269
1450.708	9088
1452.938	9152
1455.167	9030
1457.394	9197
1459.62	9155
1461.846	9047
1464.073	9234
1466.299	9049
1468.523	9085
1470.746	9184
1472.969	9117
1475.191	9120
1477.415	9095
1479.636	8873
1481.858	8978
1484.078	9095
1486.298	8926
1488.518	8902
1490.736	9081
1492.954	8994
1495.169	8878
1497.386	8938
1499.602	8906
1501.819	8898
1504.034	8967
1506.248	8742
1508.462	8865
1510.675	8916
1512.888	8784
1515.1	8919
1517.311	8830
1519.522	8878
1521.732	8771
1523.942	8915
1526.151	9054
1528.36	8910
1530.566	8932
1532.773	8807
1534.98	8828
1537.187	8876
1539.392	8855
1541.596	8993
1543.801	9020
1546.005	8961
1548.208	8914
1550.411	8857
1552.612	9115
1554.814	9077
1557.013	9049
1559.212	9098
1561.414	8911
1563.612	9020
1565.811	8970
1568.007	9015
1570.203	9012
1572.403	9095
1574.598	9019
1576.792	9156
1578.988	9190
1581.181	9025
1583.376	8991
1585.568	8961
1587.761	9021
1589.952	9112
1592.143	9130
1594.333	9277
1596.524	9060
1598.715	9104
1600.903	9289
1603.091	9303
1605.278	9140
1607.466	9055
1609.652	9132
1611.838	9290
1614.023	9105
1616.207	9133
1618.391	9103
1620.576	9269
1622.759	9144
1624.941	9097
1627.123	9139
1629.304	9203
1631.484	9180
1633.664	9153
1635.844	9093
1638.022	9196
1640.201	9176
1642.38	9170
1644.556	9234
1646.732	9251
1648.908	9098
1651.084	9189
1653.257	9246
1655.433	9303
1657.607	9335
1659.779	9302
1661.951	9297
1664.122	9223
1666.295	9264
1668.467	9243
1670.635	9290
1672.805	9347
1674.973	9205
1677.142	9274
1679.31	9333
1681.478	9132
1683.644	9180
1685.81	9055
1687.975	9163
1690.142	9254
1692.305	9159
1694.468	9234
1696.632	9186
1698.794	9245
1700.957	9185
1703.119	9138
1705.279	9221
1707.439	9052
1709.598	9255
1711.758	9194
1713.917	9167
1716.075	9086
1718.231	9087
1720.388	9158
1722.543	9128
1724.702	9131
1726.856	9046
1729.01	9238
1731.164	9126
1733.317	9200
1735.471	9149
1737.623	9072
1739.774	9067
1741.925	9143
1744.075	9028
1746.225	9063
1748.376	9094
1750.524	9086
1752.672	9176
1754.82	9217
1756.965	9216
1759.113	9264
1761.259	9169
1763.405	8939
1765.549	9099
1767.694	9182
1769.836	9111
1771.981	9254
1774.123	9211
1776.264	9294
1778.405	9115
1780.546	9218
1782.687	9259
1784.827	9202
1786.966	9275
1789.103	9125
1791.242	9230
1793.381	9280
1795.517	9167
1797.653	9249
1799.788	9268
1801.923	9167
1804.057	9095
1806.193	9147
1808.326	9172
1810.457	9279
1812.59	9295
1814.721	9301
1816.855	9343
1818.984	9169
1821.113	9359
1823.244	9010
1825.372	9209
1827.499	9140
1829.63	9156
1831.756	9214
1833.882	9018
1836.007	9207
1838.132	9153
1840.26	9188
1842.384	9059
1844.507	8968
1846.63	9295
1848.752	9122
1850.875	9143
1852.996	9087
1855.118	9060
1857.238	9057
1859.358	9115
1861.477	9204
1863.597	9064
1865.715	9085
1867.832	9015
1869.948	9099
1872.064	9113
1874.181	9118
1876.297	9166
1878.411	9084
1880.526	9119
1882.639	9087
1884.752	9078
1886.865	9094
1888.977	9223
1891.089	9030
1893.2	9302
1895.308	9087
1897.42	9042
1899.53	9254
1901.639	9233
1903.745	9113
1905.853	9087
1907.962	9227
1910.067	9148
1912.174	9224
1914.278	9203
1916.383	9256
1918.486	9191
1920.592	9291
1922.694	9285
1924.797	9304
1926.898	9090
1929	9377
1931.102	9190
1933.203	9198
1935.301	9249
1937.401	9248
1939.499	9266
1941.598	9133
1943.697	9251
1945.793	9168
1947.888	9340
1949.985	9368
1952.08	9308
1954.176	9332
1956.269	9203
1958.364	9213
1960.457	9209
1962.549	9321
1964.642	9183
1966.733	9300
1968.823	9069
1970.913	9187
1973.005	9194
1975.093	9216
1977.184	9208
1979.271	9186
1981.359	9147
1983.446	9207
1985.532	9192
1987.619	9145
1989.705	9171
1991.789	9055
1993.874	9078
1995.956	9178
1998.041	9315
2000.123	9135
2002.206	9207
2004.287	9250
2006.368	9090
2008.449	9066
2010.529	9169
2012.609	9029
2014.688	8955
2016.766	9094
2018.843	9015
2020.922	8982
2022.999	9046
2025.074	9118
2027.15	9150
2029.225	9059
2031.299	9221
2033.375	9080
2035.447	9060
2037.52	9205
2039.592	9106
2041.664	9034
2043.736	8971
2045.807	9022
2047.876	9132
2049.947	9115
2052.015	9063
2054.086	9043
2056.153	9173
2058.221	9115
2060.288	9081
2062.353	9183
2064.42	9159
2066.486	9112
2068.55	8996
2070.614	9133
2072.678	9157
2074.741	9023
2076.805	9134
2078.866	9085
2080.929	9086
2082.99	9248
2085.049	9120
2087.109	9233
2089.17	9049
2091.228	9103
2093.286	9021
2095.344	9255
2097.4	9224
2099.46	8960
2101.516	9068
2103.572	9105
2105.626	9141
2107.679	9026
2109.735	9093
2111.788	9072
2113.841	9091
2115.894	9068
2117.945	9044
2119.997	9139
2122.049	9080
2124.1	9019
2126.148	9024
2128.197	9142
2130.246	9123
2132.296	9012
2134.342	9038
2136.39	9028
2138.437	8956
2140.483	9185
2142.527	8928
2144.574	9041
2146.619	9030
2148.661	9080
2150.705	8982
2152.747	8953
2154.792	9057
2156.832	8960
2158.874	9041
2160.915	9065
2162.954	8955
2164.995	8991
2167.034	8942
2169.072	8949
2171.111	8983
2173.148	8878
2175.186	9010
2177.223	9052
2179.258	9061
2181.294	8995
2183.328	8953
2185.362	9039
2187.398	8847
2189.431	8776
2191.463	8958
2193.495	8906
2195.528	8881
2197.56	8754
2199.59	8897
2201.62	8864
2203.649	8838
2205.678	8842
2207.708	8866
2209.737	8890
2211.764	8753
2213.791	8791
2215.817	8770
2217.843	8599
2219.87	8881
2221.895	8773
2223.919	8698
2225.942	8839
2227.966	8880
2229.988	8682
2232.012	8784
2234.032	8760
2236.054	8764
2238.074	8727
2240.095	8812
2242.116	8763
2244.135	8815
2246.153	8681
2248.171	8802
2250.188	8777
2252.208	8639
2254.223	8695
2256.239	8893
2258.255	8800
2260.269	8692
2262.283	8672
2264.3	8834
2266.312	8699
2268.325	8768
2270.336	8782
2272.349	8702
2274.362	8676
2276.372	8775
2278.383	8690
2280.392	8734
2282.402	8757
2284.409	8806
2286.418	8867
2288.427	8889
2290.433	8863
2292.441	8679
2294.446	8768
2296.453	8630
2298.459	8799
2300.463	8728
2302.466	8873
2304.471	8718
2306.475	8675
2308.477	8669
2310.478	8679
2312.481	8726
2314.481	8722
2316.481	8719
2318.482	8643
2320.482	8753
2322.48	8645
2324.48	8650
2326.478	8688
2328.476	8545
2330.473	8709
2332.469	8522
2334.465	8590
2336.46	8443
2338.454	8503
2340.45	8604
2342.444	8699
2344.437	8542
2346.43	8572
2348.421	8631
2350.414	8580
2352.405	8471
2354.396	8502
2356.386	8436
2358.376	8504
2360.366	8655
2362.355	8537
2364.343	8671
2366.331	8505
2368.317	8586
2370.304	8509
2372.292	8423
2374.278	8363
2376.262	8584
2378.247	8424
2380.23	8567
2382.216	8591
2384.199	8394
2386.181	8373
2388.163	8378
2390.144	8468
2392.127	8461
2394.107	8335
2396.087	8407
2398.066	8323
2400.046	8405
2402.023	8369
2404.004	8492
2405.981	8425
2407.957	8407
2409.934	8414
2411.91	8410
2413.886	8329
2415.862	8318
2417.836	8303
2419.809	8492
2421.784	8406
2423.756	8352
2425.73	8373
2427.701	8248
2429.672	8414
2431.644	8300
2433.615	8302
2435.586	8254
2437.555	8287
2439.523	8255
2441.491	8338
2443.459	8397
2445.428	8389
2447.395	8325
2449.361	8421
2451.327	8351
2453.292	8314
2455.257	8341
2457.223	8299
2459.187	8385
2461.15	8388
2463.113	8353
2465.076	8289
2467.039	8247
2468.999	8399
2470.96	8194
2472.921	8252
2474.881	8474
2476.841	8239
2478.8	8176
2480.759	8279
2482.717	8178
2484.675	8242
2486.63	8186
2488.589	8380
2490.545	8207
2492.5	8215
2494.455	8260
2496.408	8225
2498.364	8341
2500.318	8236
2502.27	8132
2504.223	8107
2506.174	8198
2508.126	8177
2510.078	8044
2512.03	8216
2513.979	8182
2515.927	8169
2517.877	8271
2519.826	8174
2521.775	8120
2523.722	8090
2525.668	8167
2527.616	8194
2529.561	8207
2531.508	8051
2533.452	8134
2535.398	8030
2537.342	8091
2539.284	8103
2541.229	8153
2543.173	8125
2545.114	8105
2547.055	8070
2548.996	8092
2550.938	8186
2552.878	8205
2554.817	8157
2556.756	8151
2558.695	8088
2560.633	8109
2562.572	8129
2564.509	8008
2566.445	8001
2568.382	8042
2570.317	7987
2572.254	8102
2574.189	8068
2576.123	8097
2578.057	8169
2579.99	8114
2581.923	8057
2583.855	8011
2585.788	8017
2587.719	8057
2589.65	8095
2591.579	8143
2593.511	8177
2595.44	8087
2597.37	7914
2599.297	8045
2601.225	7968
2603.153	8025
2605.08	8072
2607.007	8151
2608.932	7996
2610.858	8099
2612.782	8067
2614.709	7988
2616.632	8215
2618.556	8144
2620.478	7990
2622.401	8087
2624.324	8094
2626.247	8031
2628.167	8120
2630.088	8045
2632.008	8066
2633.928	8106
2635.848	8021
2637.766	8098
2639.684	8189
2641.603	8105
2643.519	8128
2645.437	8094
2647.353	8181
2649.27	7958
2651.184	8055
2653.099	8016
2655.014	8144
2656.928	7859
2658.842	8078
2660.755	8028
2662.667	7972
2664.579	7977
2666.491	7983
2668.402	8087
2670.312	8043
2672.222	7980
2674.132	8152
2676.042	7970
2677.951	8005
2679.859	8036
2681.766	8046
2683.674	7907
2685.582	8051
2687.488	8007
2689.392	7920
2691.298	7962
2693.202	7935
2695.107	8028
2697.012	7986
2698.914	7980
2700.817	8019
2702.72	7878
2704.622	7829
2706.524	7868
2708.425	7895
2710.326	7852
2712.225	7857
2714.125	7790
2716.024	7983
2717.923	7765
2719.822	7825
2721.719	7742
2723.616	7758
2725.512	7780
2727.41	7794
2729.305	7894
2731.201	7602
2733.095	7905
2734.99	7858
2736.884	7785
2738.778	7852
2740.67	7792
2742.562	7702
2744.455	7941
2746.346	7794
2748.238	7860
2750.129	7821
2752.018	7928
2753.907	7813
2755.797	7797
2757.687	7813
2759.575	7741
2761.462	7767
2763.349	7705
2765.237	7752
2767.124	7762
2769.009	7785
2770.894	7704
2772.779	7757
2774.663	7862
2776.547	7711
2778.431	7730
2780.314	7554
2782.197	7687
2784.078	7811
2785.96	7658
2787.842	7688
2789.723	7637
2791.603	7744
2793.483	7747
2795.362	7853
2797.241	7675
2799.121	7663
2800.997	7612
2802.874	7689
2804.751	7666
2806.628	7664
2808.506	7654
2810.38	7617
2812.255	7665
2814.13	7626
2816.003	7555
2817.878	7585
2819.752	7688
2821.623	7580
2823.496	7639
2825.368	7612
2827.238	7524
2829.111	7567
2830.98	7616
2832.851	7667
2834.719	7651
2836.589	7652
2838.458	7622
2840.327	7576
2842.193	7632
2844.061	7558
2845.927	7567
2847.794	7552
2849.66	7696
2851.525	7626
2853.39	7686
2855.254	7621
2857.117	7629
2858.983	7583
2860.845	7649
2862.707	7681
2864.569	7724
2866.431	7690
2868.293	7622
2870.154	7752
2872.013	7786
2873.873	7872
2875.733	7819
2877.592	7894
2879.451	7796
2881.309	7914
2883.166	7903
2885.022	7901
2886.879	8010
2888.736	8041
2890.591	7929
2892.446	7920
2894.301	8008
2896.155	7945
2898.009	8074
2899.863	7984
2901.716	7923
2903.568	7923
2905.419	7806
2907.27	8083
2909.123	7856
2910.973	7880
2912.824	7933
2914.673	8043
2916.521	7907
2918.372	8009
2920.22	8095
2922.067	8070
2923.914	8240
2925.761	8160
2927.607	8222
2929.455	8202
2931.301	8101
2933.144	8202
2934.99	8175
2936.833	8233
2938.678	8296
2940.522	8229
2942.364	8327
2944.207	8317
2946.048	8380
2947.891	8585
2949.731	8525
2951.571	8371
2953.412	8491
2955.25	8431
2957.09	8408
2958.93	8310
2960.767	8448
2962.606	8187
2964.443	8127
2966.279	8217
2968.116	8098
2969.953	7984
2971.788	7998
2973.623	7967
2975.457	8062
2977.292	7787
2979.127	7866
2980.959	7962
2982.792	7880
2984.624	7706
2986.455	7920
2988.288	7834
2990.119	7608
2991.949	7789
2993.779	7622
2995.608	7664
2997.439	7667
2999.268	7588
3001.096	7458
3002.923	7433
3004.751	7484
3006.578	7511
3008.406	7396
3010.232	7391
3012.057	7437
3013.883	7289
3015.706	7308
3017.532	7227
3019.356	7146
3021.179	7350
3023.002	7278
3024.823	7177
3026.646	7168
3028.469	7187
3030.289	7169
3032.11	7107
3033.93	7064
3035.749	7281
3037.57	6970
3039.39	7193
3041.207	7134
3043.026	7061
3044.842	7144
3046.661	7182
3048.477	7121
3050.294	7009
3052.109	6921
3053.925	7134
3055.739	7043
3057.555	7080
3059.368	6948
3061.181	7007
3062.995	6969
3064.807	7082
3066.62	7015
3068.433	7054
3070.243	7025
3072.054	7003
3073.865	6962
3075.675	6996
3077.485	6960
3079.293	7116
3081.102	6989
3082.911	6889
3084.719	6909
3086.527	6999
3088.333	6941
3090.139	7031
3091.945	6866
3093.75	6798
3095.557	6841
3097.361	6951
3099.165	6886
3100.969	6979
3102.772	6733
3104.575	6840
3106.379	6855
3108.181	6856
3109.982	6827
3111.783	6804
3113.584	6855
3115.386	6802
3117.186	6783
3118.985	6725
3120.783	6761
3122.582	6826
3124.381	6710
3126.179	6790
3127.975	6632
3129.772	6698
3131.569	6643
3133.365	6724
3135.161	6699
3136.956	6641
3138.751	6645
3140.544	6677
3142.338	6658
3144.132	6647
3145.925	6542
3147.717	6539
3149.509	6617
3151.301	6601
3153.091	6614
3154.884	6712
3156.673	6621
3158.462	6603
3160.252	6715
3162.041	6589
3163.831	6560
3165.618	6601
3167.405	6669
3169.193	6640
3170.979	6536
3172.767	6517
3174.553	6583
3176.338	6587
3178.123	6562
3179.907	6456
3181.692	6617
3183.477	6605
3185.259	6486
3187.042	6486
3188.824	6527
3190.607	6551
3192.389	6460
3194.17	6560
3195.951	6553
3197.73	6485
3199.51	6614
3201.289	6475
3203.07	6572
3204.848	6468
3206.626	6498
3208.403	6359
3210.18	6358
3211.959	6565
3213.735	6408
3215.511	6415
3217.285	6413
3219.06	6405
3220.836	6381
3222.611	6418
3224.384	6425
3226.158	6422
3227.929	6397
3229.702	6498
3231.476	6372
3233.248	6390
3235.018	6285
3236.789	6390
3238.56	6437
3240.33	6415
3242.1	6413
3243.869	6430
3245.637	6323
3247.405	6307
3249.172	6441
3250.941	6395
3252.707	6407
3254.474	6413
3256.24	6349
3258.006	6416
3259.772	6336
3261.537	6393
3263.301	6436
3265.065	6324
3266.828	6354
3268.592	6365
3270.355	6432
3272.117	6332
3273.878	6390
3275.64	6379
3277.401	6399
3279.162	6377
3280.922	6319
3282.682	6393
3284.441	6500
3286.199	6340
3287.959	6325
3289.716	6321
3291.475	6441
3293.232	6298
3294.988	6351
3296.744	6469
3298.501	6312
3300.256	6355
3302.011	6311
3303.766	6229
3305.52	6207
3307.275	6232
3309.028	6287
3310.781	6332
3312.533	6393
3314.285	6192
3316.038	6347
3317.789	6270
3319.54	6395
3321.289	6202
3323.039	6253
3324.789	6294
3326.539	6269
3328.288	6367
3330.035	6283
3331.783	6257
3333.531	6240
3335.28	6312
3337.025	6262
3338.771	6213
3340.518	6285
3342.262	6222
3344.009	6335
3345.753	6172
3347.497	6211
3349.24	6142
3350.983	6220
3352.726	6162
3354.469	6145
3356.212	6164
3357.952	6175
3359.694	6243
3361.434	6190
3363.176	6134
3364.916	6172
3366.654	6119
3368.394	6087
3370.132	6117
3371.871	6097
3373.61	6094
3375.346	6079
3377.083	6079
3378.82	6076
3380.556	6026
3382.292	6044
3384.027	6067
3385.763	6080
3387.497	6054
3389.231	5997
3390.965	5929
3392.698	6212
3394.431	6102
3396.164	6062
3397.896	5914
3399.627	5949
3401.36	5929
3403.09	5968
3404.82	6004
3406.55	5912
3408.279	5972
3410.01	6050
3411.738	5992
3413.467	6006
3415.194	5871
3416.92	5991
3418.647	6085
3420.375	5878
3422.102	5910
3423.827	5873
3425.553	5919
3427.277	5908
3429.003	5951
3430.727	5895
3432.451	5915
3434.173	5780
3435.896	5843
3437.62	5825
3439.343	5877
3441.063	5852
3442.785	5953
3444.505	5746
3446.226	5810
3447.948	5809
3449.666	5777
3451.386	5837
3453.104	5849
3454.823	5823
3456.541	5770
3458.259	5860
3459.976	5970
3461.693	5704
3463.408	5990
3465.125	5796
3466.841	5594
3468.556	5727
3470.271	5697
3471.985	5783
3473.698	5751
3475.414	5654
3477.126	5781
3478.838	5711
3480.55	5674
3482.263	5540
3483.975	5609
3485.686	5657
3487.396	5644
3489.106	5664
3490.817	5595
3492.526	5607
3494.236	5580
3495.944	5615
3497.652	5671
3499.359	5535
3501.066	5568
3502.775	5700
3504.481	5597
3506.187	5685
3507.893	5649
3509.598	5534
3511.304	5645
3513.009	5565
3514.713	5615
3516.417	5498
3518.12	5602
3519.821	5516
3521.525	5602
3523.228	5527
3524.929	5572
3526.631	5490
3528.33	5524
3530.032	5520
3531.733	5544
3533.433	5500
3535.131	5533
3536.83	5492
3538.529	5419
3540.227	5523
3541.925	5489
3543.623	5498
3545.319	5391
3547.016	5531
3548.712	5487
3550.408	5446
3552.103	5431
3553.798	5479
3555.491	5432
3557.188	5329
3558.88	5606
3560.574	5207
3562.266	5342
3563.959	5389
3565.651	5326
3567.343	5376
3569.035	5321
3570.725	5426
3572.415	5334
3574.106	5276
3575.797	5329
3577.485	5382
3579.174	5321
3580.863	5323
3582.551	5320
3584.238	5294
3585.926	5287
3587.613	5254
3589.3	5175
3590.986	5272
3592.671	5287
3594.357	5355
3596.042	5294
3597.726	5306
3599.41	5203
3601.094	5242
3602.778	5325
3604.461	5359
3606.143	5248
3607.825	5202
3609.507	5132
3611.188	5149
3612.87	5206
3614.551	5215
3616.229	5273
3617.909	5174
3619.589	5171
3621.269	5181
3622.948	5048
3624.625	5064
3626.302	5125
3627.98	5105
3629.657	5102
3631.334	5020
3633.01	5163
3634.686	5086
3636.361	5029
3638.036	5134
3639.712	5116
3641.385	5094
3643.06	5047
3644.732	5032
3646.405	5097
3648.08	5047
3649.751	4962
3651.424	4970
3653.094	5057
3654.766	4944
3656.436	5023
3658.106	5051
3659.777	5012
3661.446	5020
3663.115	4984
3664.783	5018
3666.452	5006
3668.121	5062
3669.788	4903
3671.454	4964
3673.121	4905
3674.789	4971
3676.455	4982
3678.12	4957
3679.784	4911
3681.45	4964
3683.114	4896
3684.779	5013
3686.442	4900
3688.105	5002
3689.768	4951
3691.43	4938
3693.093	4861
3694.754	5001
3696.415	4818
3698.076	4964
3699.736	4883
3701.396	4871
3703.057	4937
3704.716	4866
3706.375	4859
3708.034	4950
3709.692	4845
3711.351	4894
3713.008	4938
3714.665	4952
3716.321	4845
3717.977	4812
3719.634	4906
3721.29	4825
3722.945	4818
3724.598	4867
3726.253	4829
3727.907	4827
3729.561	4742
3731.214	4838
3732.867	4799
3734.518	4905
3736.171	4653
3737.824	4815
3739.474	4735
3741.125	4815
3742.775	4871
3744.425	4762
3746.074	4817
3747.725	4864
3749.373	4845
3751.022	4762
3752.669	4850
3754.318	4741
3755.966	4728
3757.612	4763
3759.259	4727
3760.905	4685
3762.55	4752
3764.197	4739
3765.842	4686
3767.486	4752
3769.131	4607
3770.774	4732
3772.417	4761
3774.061	4672
3775.705	4621
3777.347	4705
3778.988	4678
3780.629	4647
3782.271	4742
3783.912	4640
3785.552	4692
3787.192	4671
3788.831	4558
3790.472	4617
3792.112	4693
3793.75	4655
3795.388	4683
3797.024	4609
3798.661	4600
3800.3	4604
3801.936	4518
3803.572	4636
3805.208	4522
3806.844	4585
3808.48	4628
3810.115	4611
3811.748	4591
3813.382	4580
3815.016	4523
3816.649	4551
3818.283	4573
3819.914	4556
3821.547	4601
3823.178	4523
3824.809	4460
3826.441	4639
3828.072	4545
3829.701	4600
3831.331	4463
3832.96	4533
3834.591	4507
3836.219	4465
3837.847	4534
3839.475	4475
3841.102	4451
3842.729	4451
3844.357	4564
3845.984	4477
3847.609	4553
3849.234	4390
3850.86	4384
3852.485	4462
3854.11	4519
3855.734	4414
3857.357	4406
3858.981	4325
3860.603	4481
3862.227	4401
3863.848	4401
3865.471	4438
3867.092	4547
3868.713	4360
3870.334	4309
3871.954	4357
3873.575	4311
3875.194	4419
3876.813	4362
3878.433	4299
3880.051	4391
3881.669	4363
3883.286	4430
3884.904	4324
3886.52	4353
3888.138	4426
3889.754	4296
3891.37	4329
3892.985	4388
3894.6	4293
3896.216	4235
3897.831	4374
3899.444	4430
3901.058	4376
3902.67	4318
3904.283	4350
3905.897	4323
3907.509	4243
3909.121	4274
3910.731	4260
3912.342	4334
3913.954	4308
3915.563	4325
3917.174	4263
3918.783	4334
3920.391	4348
3922.002	4312
3923.611	4200
3925.218	4281
3926.826	4254
3928.432	4288
3930.039	4361
3931.647	4236
3933.253	4297
3934.859	4256
3936.464	4266
3938.068	4318
3939.675	4314
3941.278	4122
3942.883	4278
3944.486	4139
3946.089	4256
3947.692	4260
3949.295	4204
3950.898	4267
3952.499	4270
3954.1	4239
3955.7	4173
3957.303	4160
3958.903	4080
3960.502	4252
3962.101	4192
3963.7	4167
3965.301	4247
3966.899	4113
3968.497	4112
3970.094	4135
3971.691	4147
3973.288	4080
3974.885	4173
3976.481	4076
3978.077	4152
3979.672	4045
3981.267	4172
3982.863	4118
3984.457	4016
3986.051	4134
3987.645	4054
3989.238	4080
3990.831	4049
3992.425	4048
3994.017	4065
3995.607	4131
3997.199	4168
3998.79	4018
4000.382	3956
4001.973	3980
4003.561	3993
4005.151	4044
4006.741	4050
4008.331	4029
4009.918	4041
4011.507	4024
4013.095	4022
4014.681	3910
4016.269	4014
4017.856	3926
4019.443	4023
4021.028	4009
4022.614	3953
4024.199	3915
4025.785	3843
4027.37	3969
4028.953	4032
4030.536	3978
4032.12	3968
4033.704	4000
4035.287	4025
4036.869	3943
4038.45	3952
4040.032	3976
4041.613	3971
4043.195	3888
4044.776	3968
4046.356	3909
4047.935	3847
4049.515	3912
4051.095	3887
4052.674	3935
4054.251	3844
4055.829	3914
4057.406	3812
4058.985	3834
4060.562	3855
4062.139	3872
4063.715	3904
4065.29	3814
4066.865	3791
4068.442	3849
4070.016	3841
4071.59	3744
4073.164	3850
4074.738	3853
4076.312	3765
4077.885	3807
4079.458	3796
4081.03	3729
4082.602	3918
4084.173	3806
4085.745	3769
4087.315	3861
4088.886	3768
4090.456	3822
4092.026	3832
4093.596	3784
4095.165	3786
4096.734	3786
4098.301	3831
4099.869	3739
4101.437	3822
4103.006	3738
4104.572	3713
4106.139	3755
4107.704	3804
4109.27	3585
4110.837	3722
4112.401	3821
4113.966	3733
4115.53	3760
4117.094	3713
4118.659	3697
4120.223	3675
4121.785	3693
4123.347	3730
4124.909	3712
4126.471	3647
4128.034	3652
4129.595	3654
4131.155	3658
4132.716	3674
4134.275	3656
4135.836	3698
4137.395	3610
4138.955	3625
4140.513	3651
4142.071	3662
4143.628	3654
4145.188	3716
4146.745	3659
4148.302	3569
4149.858	3510
4151.414	3609
4152.971	3570
4154.526	3610
4156.081	3635
4157.635	3532
4159.189	3556
4160.745	3561
4162.298	3608
4163.852	3592
4165.405	3571
4166.957	3612
4168.51	3538
4170.063	3562
4171.614	3604
4173.166	3534
4174.717	3515
4176.267	3508
4177.817	3501
4179.368	3537
4180.917	3551
4182.466	3469
4184.016	3518
4185.564	3523
4187.112	3442
4188.66	3538
4190.207	3512
4191.754	3485
4193.301	3509
4194.848	3556
4196.394	3479
4197.94	3553
4199.484	3436
4201.03	3488
4202.575	3399
4204.12	3522
4205.663	3424
4207.207	3468
4208.75	3398
4210.292	3441
4211.836	3457
4213.378	3426
4214.92	3451
4216.46	3448
4218.002	3438
4219.544	3411
4221.083	3408
4222.625	3436
4224.164	3374
4225.703	3441
4227.244	3518
4228.782	3408
4230.32	3366
4231.857	3339
4233.395	3379
4234.933	3335
4236.471	3458
4238.007	3363
4239.542	3349
4241.078	3305
4242.614	3296
4244.15	3386
4245.685	3345
4247.219	3327
4248.753	3260
4250.287	3388
4251.82	3425
4253.354	3304
4254.887	3425
4256.419	3293
4257.951	3330
4259.483	3308
4261.016	3371
4262.547	3332
4264.078	3360
4265.608	3308
4267.137	3298
4268.668	3344
4270.197	3286
4271.727	3261
4273.254	3359
4274.783	3287
4276.311	3333
4277.84	3317
4279.366	3257
4280.894	3284
4282.42	3298
4283.946	3283
4285.473	3374
4286.998	3346
4288.523	3258
4290.047	3242
4291.572	3227
4293.096	3242
4294.622	3226
4296.144	3286
4297.668	3198
4299.19	3288
4300.713	3192
4302.236	3216
4303.758	3235
4305.279	3214
4306.799	3180
4308.321	3249
4309.842	3180
4311.361	3237
4312.882	3242
4314.401	3146
