400.0961	10638
402.6185	10645
405.1424	10697
407.6635	10604
410.1838	10611
412.7035	10612
415.2225	10884
417.7388	10676
420.2585	10983
422.7754	10921
425.2917	10951
427.8072	10975
430.3221	11179
432.8363	11215
435.3498	11107
437.8626	11257
440.3727	11148
442.8841	11210
445.3969	11398
447.907	11258
450.4142	11349
452.9229	11370
455.4289	11369
457.9362	11510
460.4449	11482
462.9488	11460
465.454	11467
467.9566	11347
470.4604	11482
472.9637	11614
475.4662	11634
477.966	11607
480.4671	11606
482.9656	11549
485.4633	11644
487.9645	11761
490.4608	11712
492.9566	11651
495.4536	11874
497.948	11802
500.4437	11996
502.9387	11983
505.431	12116
507.9226	11863
510.4136	12003
512.9079	11942
515.3975	12176
517.8864	12246
520.3746	11991
522.8622	12215
525.3491	12208
527.8394	12064
530.3249	12074
532.8098	12025
535.2939	12122
537.7774	12165
540.2623	12035
542.7444	12003
545.2259	12086
547.7067	12081
550.1868	12103
552.6683	12174
555.147	12177
557.6231	12090
560.1005	12241
562.5773	12365
565.0534	12154
567.5308	12324
570.0056	12245
572.4776	12231
574.951	12377
577.4237	12375
579.8978	12470
582.3671	12173
584.8378	12466
587.3079	12495
589.7773	12444
592.244	12555
594.714	12466
597.1793	12525
599.6461	12364
602.1121	12531
604.5754	12610
607.0421	12618
609.5042	12564
611.9675	12422
614.4282	12316
616.8902	12570
619.3515	12618
621.8122	12545
624.2702	12560
626.7296	12588
629.1863	12602
631.6423	12573
634.1017	12452
636.5563	12728
639.0104	12562
641.4658	12714
643.9185	12734
646.3725	12729
648.8239	12810
651.2766	12693
653.7266	12805
656.176	13026
658.6247	12954
661.0748	12849
663.5242	12888
665.9709	12925
668.417	13131
670.8624	13058
673.3092	13080
675.7533	12988
678.1968	12987
680.6395	13085
683.0817	13268
685.5251	13169
687.9659	13062
690.4061	13119
692.8456	13040
695.2844	13122
697.7226	13179
700.1621	13262
702.599	13262
705.0332	13259
707.4688	13183
709.9036	13396
712.3399	13295
714.7735	13537
717.2044	13295
719.6367	13372
722.0683	13334
724.4993	13572
726.9296	13529
729.3593	13492
731.7883	13538
734.2147	13564
736.6423	13566
739.0714	13768
741.4958	13709
743.9216	13832
746.3447	13719
748.7691	13725
751.1929	13710
753.616	13790
756.0366	13998
758.4584	14156
760.8776	13778
763.2982	13986
765.718	13967
768.1373	14145
770.5539	13995
772.9698	14114
775.3871	14152
777.8038	14100
780.2178	14105
782.6332	13915
785.0459	14056
787.458	13994
789.8714	14149
792.2842	14077
794.6943	14045
797.1038	14319
799.5127	14046
801.9209	13985
804.3324	14062
806.7393	14166
809.1456	14046
811.5513	14148
813.9562	14128
816.3625	14384
818.7663	14018
821.1693	14411
823.5718	14165
825.9735	14242
828.3746	14328
830.7771	14254
833.177	14294
835.5762	14216
837.9747	14444
840.3727	14337
842.772	14218
845.1666	14307
847.5626	14692
849.958	14364
852.3527	14405
854.7488	14447
857.1403	14326
859.5331	14207
861.9253	14496
864.3168	14376
866.7057	14272
869.098	14309
871.4876	14195
873.8746	14257
876.263	14447
878.6487	14364
881.0378	14302
883.4243	14390
885.8081	14257
888.1933	14331
890.5759	14451
892.9598	14492
895.343	14369
897.7256	14249
900.1057	14320
902.4871	14466
904.8659	14639
907.246	14399
909.6254	14532
912.0023	14496
914.3786	14637
916.7562	14521
919.1331	14565
921.5074	14761
923.8831	14811
926.2562	14659
928.6287	14705
931.0005	14753
933.3757	14740
935.7462	14849
938.1162	14889
940.4855	14728
942.8542	14775
945.2242	14947
947.5916	15003
949.9584	15124
952.3266	14913
954.6921	15113
957.0571	14963
959.4233	15252
961.787	15338
964.15	15428
966.5125	15147
968.8742	14955
971.2354	15028
973.5959	14919
975.9559	14910
978.3151	14874
980.6738	14894
983.0338	14750
985.3912	14880
987.7461	14661
990.1022	14821
992.4578	14942
994.8127	14815
997.1689	14926
999.5207	14797
1001.874	14943
1004.226	14734
1006.576	14845
1008.929	14796
1011.28	14989
1013.628	14755
1015.977	14902
1018.324	14939
1020.674	14964
1023.019	14986
1025.366	15056
1027.713	14953
1030.056	14887
1032.399	14799
1034.746	14978
1037.087	15119
1039.431	14865
1041.771	14954
1044.113	15071
1046.454	15109
1048.793	14951
1051.133	14998
1053.471	15036
1055.807	15060
1058.146	15113
1060.483	14949
1062.818	15109
1065.153	14967
1067.489	15064
1069.822	15094
1072.156	15019
1074.488	15181
1076.82	15084
1079.15	15208
1081.48	15170
1083.814	15161
1086.143	15070
1088.471	15323
1090.799	15101
1093.126	15117
1095.452	15283
1097.78	15197
1100.105	15282
1102.43	15161
1104.754	15440
1107.077	15318
1109.4	15430
1111.722	15306
1114.044	15187
1116.365	15238
1118.685	15551
1121.005	15515
1123.324	15480
1125.643	15432
1127.961	15562
1130.278	15398
1132.595	15358
1134.911	15324
1137.226	15459
1139.541	15824
1141.854	15515
1144.167	15458
1146.482	15414
1148.793	15441
1151.105	15558
1153.414	15437
1155.725	15531
1158.033	15475
1160.344	15513
1162.651	15573
1164.959	15589
1167.265	15499
1169.572	15419
1171.878	15445
1174.184	15472
1176.488	15355
1178.79	15369
1181.094	15406
1183.396	15384
1185.699	15341
1188.001	15467
1190.301	15541
1192.6	15343
1194.9	15447
1197.2	15497
1199.497	15289
1201.794	15380
1204.09	15364
1206.387	15570
1208.684	15508
1210.978	15624
1213.272	15598
1215.565	15626
1217.858	15723
1220.15	15521
1222.443	15526
1224.734	15429
1227.024	15738
1229.313	15646
1231.602	15714
1233.892	15755
1236.18	15624
1238.467	15708
1240.754	15639
1243.04	15805
1245.325	15874
1247.612	15586
1249.896	15860
1252.178	15652
1254.461	15789
1256.743	15843
1259.027	15797
1261.308	15878
1263.587	15786
1265.867	15922
1268.146	15897
1270.425	15894
1272.703	15685
1274.981	15916
1277.256	15726
1279.532	15807
1281.808	15725
1284.083	15803
1286.358	15993
1288.63	15680
1290.904	15709
1293.175	15773
1295.449	15705
1297.719	15870
1299.99	15764
1302.259	15706
1304.529	15861
1306.798	15734
1309.065	15666
1311.333	15745
1313.599	15834
1315.866	15850
1318.131	15737
1320.396	15761
1322.66	15526
1324.925	15859
1327.187	15724
1329.448	15743
1331.711	15769
1333.974	16064
1336.234	15673
1338.493	15770
1340.752	15743
1343.01	15717
1345.269	15884
1347.526	15735
1349.784	15748
1352.04	15768
1354.295	15898
1356.552	15822
1358.806	15619
1361.059	15837
1363.312	15827
1365.564	15782
1367.818	15946
1370.069	15807
1372.318	15670
1374.568	15905
1376.817	16049
1379.066	15999
1381.316	15803
1383.564	15970
1385.809	15983
1388.056	15907
1390.301	16059
1392.549	15975
1394.793	15976
1397.036	16105
1399.279	16206
1401.522	16112
1403.763	16131
1406.007	16087
1408.248	16222
1410.487	16132
1412.727	16116
1414.965	16008
1417.205	16197
1419.442	16132
1421.68	16172
1423.915	16118
1426.152	16347
1428.388	16006
1430.623	16141
1432.857	16169
1435.091	16199
1437.323	16239
1439.556	16460
1441.789	16403
1444.019	16116
1446.25	16330
1448.48	16392
1450.708	16425
1452.938	16404
1455.167	16198
1457.394	16412
1459.62	16289
1461.846	16207
1464.073	16273
1466.299	16280
1468.523	16288
1470.746	16230
1472.969	16188
1475.191	16042
1477.415	16240
1479.636	16312
1481.858	15929
1484.078	16069
1486.298	16105
1488.518	15919
1490.736	16149
1492.954	16021
1495.169	16047
1497.386	15947
1499.602	15839
1501.819	16185
1504.034	15950
1506.248	16008
1508.462	15909
1510.675	16078
1512.888	15827
1515.1	15753
1517.311	15868
1519.522	15880
1521.732	15834
1523.942	15817
1526.151	15720
1528.36	15794
1530.566	15803
1532.773	15957
1534.98	15932
1537.187	16004
1539.392	15997
1541.596	15973
1543.801	15981
1546.005	15977
1548.208	15931
1550.411	16049
1552.612	16129
1554.814	16131
1557.013	15969
1559.212	16104
1561.414	16009
1563.612	16284
1565.811	16059
1568.007	16304
1570.203	16414
1572.403	16286
1574.598	16271
1576.792	16240
1578.988	16415
1581.181	16203
1583.376	16377
1585.568	16430
1587.761	16417
1589.952	16232
1592.143	16305
1594.333	16438
1596.524	16288
1598.715	16458
1600.903	16423
1603.091	16357
1605.278	16276
1607.466	16376
1609.652	16453
1611.838	16348
1614.023	16271
1616.207	16452
1618.391	16520
1620.576	16224
1622.759	16387
1624.941	16326
1627.123	16191
1629.304	16439
1631.484	16385
1633.664	16459
1635.844	16359
1638.022	16310
1640.201	16376
1642.38	16473
1644.556	16456
1646.732	16400
1648.908	16296
1651.084	16472
1653.257	16422
1655.433	16476
1657.607	16281
1659.779	16605
1661.951	16377
1664.122	16225
1666.295	16214
1668.467	16330
1670.635	16514
1672.805	16456
1674.973	16323
1677.142	16348
1679.31	16544
1681.478	16432
1683.644	16401
1685.81	16356
1687.975	16454
1690.142	16329
1692.305	16282
1694.468	16522
1696.632	16287
1698.794	16497
1700.957	16260
1703.119	16415
1705.279	16288
1707.439	16376
1709.598	16411
1711.758	16162
1713.917	16281
1716.075	16438
1718.231	16339
1720.388	16319
1722.543	16241
1724.702	16213
1726.856	16300
1729.01	16382
1731.164	16373
1733.317	16443
1735.471	16360
1737.623	16320
1739.774	16395
1741.925	16361
1744.075	16387
1746.225	16274
1748.376	16238
1750.524	16607
1752.672	16221
1754.82	16321
1756.965	16558
1759.113	16398
1761.259	16455
1763.405	16352
1765.549	16301
1767.694	16230
1769.836	16513
1771.981	16361
1774.123	16410
1776.264	16470
1778.405	16441
1780.546	16374
1782.687	16389
1784.827	16456
1786.966	16386
1789.103	16433
1791.242	16653
1793.381	16357
1795.517	16538
1797.653	16625
1799.788	16147
1801.923	16612
1804.057	16464
1806.193	16556
1808.326	16329
1810.457	16329
1812.59	16321
1814.721	16441
1816.855	16367
1818.984	16471
1821.113	16383
1823.244	16440
1825.372	16513
1827.499	16341
1829.63	16507
1831.756	16218
1833.882	16292
1836.007	16495
1838.132	16344
1840.26	16289
1842.384	16266
1844.507	16354
1846.63	16180
1848.752	16296
1850.875	16145
1852.996	16191
1855.118	16177
1857.238	16276
1859.358	16314
1861.477	16102
1863.597	16205
1865.715	16299
1867.832	16375
1869.948	16216
1872.064	16090
1874.181	16193
1876.297	16266
1878.411	16345
1880.526	16267
1882.639	16312
1884.752	16163
1886.865	16326
1888.977	16287
1891.089	16251
1893.2	16232
1895.308	16121
1897.42	16307
1899.53	16217
1901.639	16406
1903.745	16378
1905.853	16263
1907.962	16150
1910.067	16353
1912.174	16221
1914.278	16485
1916.383	16512
1918.486	16370
1920.592	16487
1922.694	16570
1924.797	16209
1926.898	16429
1929	16536
1931.102	16439
1933.203	16286
1935.301	16358
1937.401	16408
1939.499	16344
1941.598	16558
1943.697	16635
1945.793	16347
1947.888	16480
1949.985	16595
1952.08	16300
1954.176	16453
1956.269	16370
1958.364	16279
1960.457	16466
1962.549	16247
1964.642	16198
1966.733	16369
1968.823	16345
1970.913	16260
1973.005	16370
1975.093	16405
1977.184	16385
1979.271	16326
1981.359	16222
1983.446	16220
1985.532	16190
1987.619	16167
1989.705	16228
1991.789	16164
1993.874	16351
1995.956	16356
1998.041	16216
2000.123	15989
2002.206	16394
2004.287	16248
2006.368	16161
2008.449	16159
2010.529	16027
2012.609	16143
2014.688	16154
2016.766	16046
2018.843	16101
2020.922	15923
2022.999	16146
2025.074	16100
2027.15	16043
2029.225	16293
2031.299	16271
2033.375	16010
2035.447	16095
2037.52	16133
2039.592	16215
2041.664	16257
2043.736	16133
2045.807	15991
2047.876	16142
2049.947	15986
2052.015	15998
2054.086	16139
2056.153	16192
2058.221	16345
2060.288	16005
2062.353	16273
2064.42	16072
2066.486	16077
2068.55	16215
2070.614	16162
2072.678	16289
2074.741	16014
2076.805	16234
2078.866	16078
2080.929	16088
2082.99	16196
2085.049	16124
2087.109	16153
2089.17	16133
2091.228	16041
2093.286	15971
2095.344	16078
2097.4	15949
2099.46	16077
2101.516	16083
2103.572	16221
2105.626	16097
2107.679	16029
2109.735	15922
2111.788	16265
2113.841	16305
2115.894	16134
2117.945	16156
2119.997	16199
2122.049	16079
2124.1	16005
2126.148	15983
2128.197	15910
2130.246	16153
2132.296	15908
2134.342	16024
2136.39	15973
2138.437	16014
2140.483	16186
2142.527	15948
2144.574	15990
2146.619	15782
2148.661	16097
2150.705	15955
2152.747	15867
2154.792	15885
2156.832	15947
2158.874	15938
2160.915	15934
2162.954	15736
2164.995	15786
2167.034	15779
2169.072	15643
2171.111	15818
2173.148	15682
2175.186	15697
2177.223	15590
2179.258	15636
2181.294	15742
2183.328	15687
2185.362	15703
2187.398	15592
2189.431	15698
2191.463	15691
2193.495	15606
2195.528	15462
2197.56	15559
2199.59	15559
2201.62	15557
2203.649	15667
2205.678	15642
2207.708	15659
2209.737	15590
2211.764	15576
2213.791	15396
2215.817	15456
2217.843	15636
2219.87	15430
2221.895	15308
2223.919	15593
2225.942	15528
2227.966	15625
2229.988	15316
2232.012	15292
2234.032	15457
2236.054	15344
2238.074	15500
2240.095	15338
2242.116	15515
2244.135	15380
2246.153	15314
2248.171	15430
2250.188	15348
2252.208	15338
2254.223	15309
2256.239	15419
2258.255	15420
2260.269	15345
2262.283	15285
2264.3	15463
2266.312	15292
2268.325	15334
2270.336	15474
2272.349	15476
2274.362	15437
2276.372	15342
2278.383	15283
2280.392	15519
2282.402	15290
2284.409	15381
2286.418	15305
2288.427	15179
2290.433	15405
2292.441	15322
2294.446	15244
2296.453	15308
2298.459	15537
2300.463	15377
2302.466	15359
2304.471	15356
2306.475	15335
2308.477	15240
2310.478	15179
2312.481	15302
2314.481	15298
2316.481	15334
2318.482	14909
2320.482	15170
2322.48	15250
2324.48	15072
2326.478	15118
2328.476	15176
2330.473	14991
2332.469	15119
2334.465	15300
2336.46	15046
2338.454	15206
2340.45	15040
2342.444	14963
2344.437	15155
2346.43	14963
2348.421	15020
2350.414	15148
2352.405	15083
2354.396	14885
2356.386	15000
2358.376	14911
2360.366	14966
2362.355	14920
2364.343	14905
2366.331	14828
2368.317	14933
2370.304	14868
2372.292	14979
2374.278	14812
2376.262	14923
2378.247	14978
2380.23	14841
2382.216	14721
2384.199	14779
2386.181	14934
2388.163	14692
2390.144	14795
2392.127	14723
2394.107	14646
2396.087	14851
2398.066	14456
2400.046	14813
2402.023	14541
2404.004	14557
2405.981	14675
2407.957	14591
2409.934	14648
2411.91	14635
2413.886	14767
2415.862	14583
2417.836	14613
2419.809	14555
2421.784	14738
2423.756	14727
2425.73	14637
2427.701	14627
2429.672	14697
2431.644	14617
2433.615	14528
2435.586	14578
2437.555	14652
2439.523	14625
2441.491	14544
2443.459	14705
2445.428	14461
2447.395	14594
2449.361	14564
2451.327	14558
2453.292	14602
2455.257	14595
2457.223	14584
2459.187	14485
2461.15	14581
2463.113	14452
2465.076	14561
2467.039	14309
2468.999	14522
2470.96	14610
2472.921	14473
2474.881	14369
2476.841	14343
2478.8	14437
2480.759	14516
2482.717	14316
2484.675	14438
2486.63	14329
2488.589	14529
2490.545	14282
2492.5	14316
2494.455	14202
2496.408	14417
2498.364	14474
2500.318	14356
2502.27	14252
2504.223	14273
2506.174	14182
2508.126	14308
2510.078	14211
2512.03	14247
2513.979	14242
2515.927	14127
2517.877	14228
2519.826	14217
2521.775	14283
2523.722	14231
2525.668	14274
2527.616	14152
2529.561	14101
2531.508	14172
2533.452	14170
2535.398	14182
2537.342	14277
2539.284	14188
2541.229	14222
2543.173	14183
2545.114	14202
2547.055	14034
2548.996	14157
2550.938	14059
2552.878	14276
2554.817	14079
2556.756	14148
2558.695	14082
2560.633	14179
2562.572	13874
2564.509	14218
2566.445	14161
2568.382	13964
2570.317	14062
2572.254	14128
2574.189	14126
2576.123	14024
2578.057	14042
2579.99	14129
2581.923	14071
2583.855	13901
2585.788	14147
2587.719	13993
2589.65	14085
2591.579	13961
2593.511	14127
2595.44	14111
2597.37	13954
2599.297	14014
2601.225	14090
2603.153	13953
2605.08	14065
2607.007	14089
2608.932	14022
2610.858	14192
2612.782	14136
2614.709	14130
2616.632	14094
2618.556	14102
2620.478	14230
2622.401	14071
2624.324	14036
2626.247	14056
2628.167	13951
2630.088	14176
2632.008	13967
2633.928	13980
2635.848	14143
2637.766	13969
2639.684	14067
2641.603	13922
2643.519	14215
2645.437	14041
2647.353	13944
2649.27	13914
2651.184	13935
2653.099	14078
2655.014	14001
2656.928	14015
2658.842	13844
2660.755	13913
2662.667	13943
2664.579	13901
2666.491	13873
2668.402	13987
2670.312	13928
2672.222	13870
2674.132	14021
2676.042	14014
2677.951	13873
2679.859	13803
2681.766	13820
2683.674	13969
2685.582	13780
2687.488	13916
2689.392	13813
2691.298	13746
2693.202	13931
2695.107	13837
2697.012	13739
2698.914	13871
2700.817	13690
2702.72	13647
2704.622	13592
2706.524	13615
2708.425	13632
2710.326	13711
2712.225	13620
2714.125	13584
2716.024	13554
2717.923	13482
2719.822	13487
2721.719	13597
2723.616	13441
2725.512	13771
2727.41	13658
2729.305	13463
2731.201	13510
2733.095	13590
2734.99	13562
2736.884	13597
2738.778	13552
2740.67	13658
2742.562	13490
2744.455	13594
2746.346	13449
2748.238	13515
2750.129	13327
2752.018	13520
2753.907	13346
2755.797	13468
2757.687	13358
2759.575	13270
2761.462	13271
2763.349	13285
2765.237	13264
2767.124	13460
2769.009	13405
2770.894	13328
2772.779	13442
2774.663	13363
2776.547	13313
2778.431	13314
2780.314	13386
2782.197	13240
2784.078	13406
2785.96	13317
2787.842	13394
2789.723	13354
2791.603	13284
2793.483	13437
2795.362	13293
2797.241	13300
2799.121	13366
2800.997	13272
2802.874	13308
2804.751	13340
2806.628	13146
2808.506	13419
2810.38	13010
2812.255	13251
2814.13	13161
2816.003	13278
2817.878	12994
2819.752	13156
2821.623	13228
2823.496	13079
2825.368	13173
2827.238	13016
2829.111	13076
2830.98	12947
2832.851	13221
2834.719	13040
2836.589	13164
2838.458	13314
2840.327	12869
2842.193	13236
2844.061	13065
2845.927	12946
2847.794	13071
2849.66	13199
2851.525	13074
2853.39	12896
2855.254	13042
2857.117	13088
2858.983	12961
2860.845	13183
2862.707	13063
2864.569	13175
2866.431	12969
2868.293	12974
2870.154	13058
2872.013	13100
2873.873	12916
2875.733	12995
2877.592	13091
2879.451	13414
2881.309	13197
2883.166	13126
2885.022	13250
2886.879	13219
2888.736	13111
2890.591	13221
2892.446	13111
2894.301	13337
2896.155	13100
2898.009	13219
2899.863	13223
2901.716	13119
2903.568	13052
2905.419	13108
2907.27	13062
2909.123	13134
2910.973	13114
2912.824	13148
2914.673	13194
2916.521	13136
2918.372	13028
2920.22	13096
2922.067	13104
2923.914	13132
2925.761	13177
2927.607	13141
2929.455	13115
2931.301	13226
2933.144	13139
2934.99	13183
2936.833	13187
2938.678	13251
2940.522	13215
2942.364	13325
2944.207	13363
2946.048	13355
2947.891	13460
2949.731	13389
2951.571	13304
2953.412	13363
2955.25	13302
2957.09	13308
2958.93	13299
2960.767	13384
2962.606	12935
2964.443	13248
2966.279	13107
2968.116	12893
2969.953	13046
2971.788	12877
2973.623	12763
2975.457	12815
2977.292	13013
2979.127	12815
2980.959	12826
2982.792	12724
2984.624	12633
2986.455	12750
2988.288	12652
2990.119	12536
2991.949	12671
2993.779	12588
2995.608	12564
2997.439	12616
2999.268	12545
3001.096	12316
3002.923	12444
3004.751	12521
3006.578	12400
3008.406	12324
3010.232	12430
3012.057	12218
3013.883	12356
3015.706	12314
3017.532	12293
3019.356	12115
3021.179	12342
3023.002	12042
3024.823	12239
3026.646	12345
3028.469	12111
3030.289	12137
3032.11	12063
3033.93	12122
3035.749	12082
3037.57	12178
3039.39	12112
3041.207	12077
3043.026	12113
3044.842	12017
3046.661	11876
3048.477	11907
3050.294	11985
3052.109	11978
3053.925	12154
3055.739	11838
3057.555	11980
3059.368	12026
3061.181	11971
3062.995	11770
3064.807	11944
3066.62	11816
3068.433	12070
3070.243	11813
3072.054	11799
3073.865	11679
3075.675	11787
3077.485	11794
3079.293	11926
3081.102	11713
3082.911	11658
3084.719	11675
3086.527	11726
3088.333	11769
3090.139	11612
3091.945	11640
3093.75	11734
3095.557	11576
3097.361	11584
3099.165	11659
3100.969	11581
3102.772	11653
3104.575	11587
3106.379	11554
3108.181	11506
3109.982	11513
3111.783	11333
3113.584	11481
3115.386	11438
3117.186	11637
3118.985	11509
3120.783	11489
3122.582	11411
3124.381	11258
3126.179	11516
3127.975	11523
3129.772	11296
3131.569	11530
3133.365	11365
3135.161	11304
3136.956	11269
3138.751	11358
3140.544	11258
3142.338	11399
3144.132	11188
3145.925	11368
3147.717	11352
3149.509	11090
3151.301	11188
3153.091	11245
3154.884	11182
3156.673	11167
3158.462	11283
3160.252	11251
3162.041	11154
3163.831	11161
3165.618	11041
3167.405	11112
3169.193	11205
3170.979	11105
3172.767	11038
3174.553	11146
3176.338	11040
3178.123	10902
3179.907	10891
3181.692	11172
3183.477	10872
3185.259	11124
3187.042	10819
3188.824	10978
3190.607	10843
3192.389	10911
3194.17	10963
3195.951	10763
3197.73	10808
3199.51	11000
3201.289	10895
3203.07	10875
3204.848	10909
3206.626	10795
3208.403	10735
3210.18	10725
3211.959	10817
3213.735	10682
3215.511	10752
3217.285	10730
3219.06	10731
3220.836	10753
3222.611	10633
3224.384	10726
3226.158	10879
3227.929	10695
3229.702	10780
3231.476	10726
3233.248	10724
3235.018	10663
3236.789	10785
3238.56	10729
3240.33	10527
3242.1	10786
3243.869	10659
3245.637	10740
3247.405	10564
3249.172	10657
3250.941	10612
3252.707	10538
3254.474	10553
3256.24	10626
3258.006	10652
3259.772	10667
3261.537	10516
3263.301	10681
3265.065	10471
3266.828	10534
3268.592	10563
3270.355	10666
3272.117	10443
3273.878	10389
3275.64	10614
3277.401	10616
3279.162	10679
3280.922	10646
3282.682	10395
3284.441	10629
3286.199	10595
3287.959	10537
3289.716	10574
3291.475	10541
3293.232	10610
3294.988	10444
3296.744	10548
3298.501	10473
3300.256	10494
3302.011	10447
3303.766	10363
3305.52	10364
3307.275	10328
3309.028	10423
3310.781	10394
3312.533	10483
3314.285	10350
3316.038	10503
3317.789	10426
3319.54	10198
3321.289	10145
3323.039	10378
3324.789	10229
3326.539	10343
3328.288	10357
3330.035	10292
3331.783	10395
3333.531	10350
3335.28	10244
3337.025	10309
3338.771	10398
3340.518	10308
3342.262	10276
3344.009	10349
3345.753	10198
3347.497	10202
3349.24	10260
3350.983	10245
3352.726	10198
3354.469	10222
3356.212	10109
3357.952	10265
3359.694	10045
3361.434	10212
3363.176	10077
3364.916	10173
3366.654	10133
3368.394	10131
3370.132	10050
3371.871	10124
3373.61	10077
3375.346	10056
3377.083	9986
3378.82	10204
3380.556	10122
3382.292	9984
3384.027	10045
3385.763	10038
3387.497	10080
3389.231	9961
3390.965	10020
3392.698	10005
3394.431	9933
3396.164	9937
3397.896	10038
3399.627	9943
3401.36	9828
3403.09	10067
3404.82	9959
3406.55	10071
3408.279	9912
3410.01	9932
3411.738	9839
3413.467	9838
3415.194	9895
3416.92	10054
3418.647	9899
3420.375	9778
3422.102	9980
3423.827	9775
3425.553	9929
3427.277	9865
3429.003	9762
3430.727	9841
3432.451	9884
3434.173	9745
3435.896	9755
3437.62	9750
3439.343	9803
3441.063	9863
3442.785	9719
3444.505	9678
3446.226	9669
3447.948	9628
3449.666	9515
3451.386	9555
3453.104	9463
3454.823	9646
3456.541	9606
3458.259	9628
3459.976	9543
3461.693	9575
3463.408	9595
3465.125	9552
3466.841	9414
3468.556	9745
3470.271	9575
3471.985	9422
3473.698	9467
3475.414	9492
3477.126	9304
3478.838	9438
3480.55	9443
3482.263	9372
3483.975	9311
3485.686	9336
3487.396	9381
3489.106	9265
3490.817	9320
3492.526	9307
3494.236	9319
3495.944	9340
3497.652	9175
3499.359	9437
3501.066	9348
3502.775	9403
3504.481	9233
3506.187	9140
3507.893	9276
3509.598	9125
3511.304	9172
3513.009	9179
3514.713	9192
3516.417	9159
3518.12	9320
3519.821	9282
3521.525	9103
3523.228	9160
3524.929	9167
3526.631	9151
3528.33	9157
3530.032	9208
3531.733	9152
3533.433	8982
3535.131	9019
3536.83	9004
3538.529	9150
3540.227	9144
3541.925	8980
3543.623	9010
3545.319	9044
3547.016	9164
3548.712	9115
3550.408	8979
3552.103	9025
3553.798	9013
3555.491	8981
3557.188	9039
3558.88	9066
3560.574	8996
3562.266	8954
3563.959	9100
3565.651	9124
3567.343	8944
3569.035	8996
3570.725	8887
3572.415	8936
3574.106	9002
3575.797	8976
3577.485	8950
3579.174	8888
3580.863	8855
3582.551	8888
3584.238	8865
3585.926	8826
3587.613	8927
3589.3	8869
3590.986	8888
3592.671	8854
3594.357	8871
3596.042	8714
3597.726	8841
3599.41	8871
3601.094	8724
3602.778	8715
3604.461	8691
3606.143	8646
3607.825	8783
3609.507	8630
3611.188	8762
3612.87	8586
3614.551	8699
3616.229	8573
3617.909	8668
3619.589	8665
3621.269	8621
3622.948	8559
3624.625	8651
3626.302	8510
3627.98	8473
3629.657	8671
3631.334	8670
3633.01	8472
3634.686	8436
3636.361	8517
3638.036	8564
3639.712	8513
3641.385	8485
3643.06	8420
3644.732	8593
3646.405	8379
3648.08	8403
3649.751	8392
3651.424	8496
3653.094	8442
3654.766	8368
3656.436	8492
3658.106	8300
3659.777	8448
3661.446	8430
3663.115	8342
3664.783	8409
3666.452	8352
3668.121	8364
3669.788	8366
3671.454	8460
3673.121	8196
3674.789	8340
3676.455	8303
3678.12	8443
3679.784	8241
3681.45	8274
3683.114	8393
3684.779	8334
3686.442	8351
3688.105	8281
3689.768	8335
3691.43	8308
3693.093	8194
3694.754	8290
3696.415	8118
3698.076	8175
3699.736	8322
3701.396	8258
3703.057	8097
3704.716	8141
3706.375	8324
3708.034	8208
3709.692	8203
3711.351	8161
3713.008	8328
3714.665	8183
3716.321	8236
3717.977	8120
3719.634	8239
3721.29	8152
3722.945	8119
3724.598	8056
3726.253	7980
3727.907	8231
3729.561	8137
3731.214	8115
3732.867	8118
3734.518	8105
3736.171	7904
3737.824	8076
3739.474	7980
3741.125	8039
3742.775	8153
3744.425	8044
3746.074	7999
3747.725	8026
3749.373	7994
3751.022	7961
3752.669	7906
3754.318	7914
3755.966	7953
3757.612	7870
3759.259	7805
3760.905	7958
3762.55	7881
3764.197	7869
3765.842	7905
3767.486	7886
3769.131	7728
3770.774	7957
3772.417	7877
3774.061	7908
3775.705	7872
3777.347	7792
3778.988	7822
3780.629	7785
3782.271	7696
3783.912	7739
3785.552	7746
3787.192	7771
3788.831	7757
3790.472	7669
3792.112	7831
3793.75	7748
3795.388	7743
3797.024	7634
3798.661	7657
3800.3	7675
3801.936	7796
3803.572	7787
3805.208	7650
3806.844	7706
3808.48	7665
3810.115	7586
3811.748	7739
3813.382	7530
3815.016	7597
3816.649	7721
3818.283	7532
3819.914	7674
3821.547	7567
3823.178	7465
3824.809	7490
3826.441	7539
3828.072	7566
3829.701	7583
3831.331	7549
3832.96	7493
3834.591	7541
3836.219	7640
3837.847	7557
3839.475	7570
3841.102	7501
3842.729	7355
3844.357	7441
3845.984	7448
3847.609	7490
3849.234	7402
3850.86	7450
3852.485	7355
3854.11	7322
3855.734	7343
3857.357	7363
3858.981	7443
3860.603	7410
3862.227	7318
3863.848	7473
3865.471	7289
3867.092	7367
3868.713	7421
3870.334	7359
3871.954	7404
3873.575	7333
3875.194	7276
3876.813	7240
3878.433	7341
3880.051	7361
3881.669	7305
3883.286	7229
3884.904	7227
3886.52	7304
3888.138	7255
3889.754	7250
3891.37	7329
3892.985	7221
3894.6	7240
3896.216	7217
3897.831	7209
3899.444	7274
3901.058	7374
3902.67	7212
3904.283	7201
3905.897	7261
3907.509	7132
3909.121	7176
3910.731	7140
3912.342	7222
3913.954	7188
3915.563	7125
3917.174	7241
3918.783	7128
3920.391	7116
3922.002	7172
3923.611	7052
3925.218	7212
3926.826	7202
3928.432	7048
3930.039	7063
3931.647	7196
3933.253	7140
3934.859	7052
3936.464	7142
3938.068	7005
3939.675	7062
3941.278	7083
3942.883	7044
3944.486	6894
3946.089	7080
3947.692	6943
3949.295	6974
3950.898	7077
3952.499	7084
3954.1	6956
3955.7	7055
3957.303	7014
3958.903	6907
3960.502	7050
3962.101	6978
3963.7	6888
3965.301	7004
3966.899	6946
3968.497	6871
3970.094	6870
3971.691	6819
3973.288	7020
3974.885	6884
3976.481	6935
3978.077	6724
3979.672	6709
3981.267	6867
3982.863	6787
3984.457	6676
3986.051	6739
3987.645	6776
3989.238	6759
3990.831	6732
3992.425	6837
3994.017	6793
3995.607	6611
3997.199	6716
3998.79	6588
4000.382	6681
4001.973	6728
4003.561	6807
4005.151	6701
4006.741	6648
4008.331	6646
4009.918	6698
4011.507	6680
4013.095	6665
4014.681	6706
4016.269	6593
4017.856	6551
4019.443	6495
4021.028	6518
4022.614	6563
4024.199	6550
4025.785	6544
4027.37	6502
4028.953	6545
4030.536	6349
4032.12	6419
4033.704	6453
4035.287	6530
4036.869	6390
4038.45	6376
4040.032	6508
4041.613	6457
4043.195	6361
4044.776	6487
4046.356	6389
4047.935	6467
4049.515	6357
4051.095	6387
4052.674	6213
4054.251	6372
4055.829	6357
4057.406	6294
4058.985	6433
4060.562	6355
4062.139	6303
4063.715	6406
4065.29	6281
4066.865	6335
4068.442	6315
4070.016	6298
4071.59	6321
4073.164	6350
4074.738	6299
4076.312	6282
4077.885	6312
4079.458	6268
4081.03	6196
4082.602	6178
4084.173	6212
4085.745	6200
4087.315	6228
4088.886	6222
4090.456	6300
4092.026	6230
4093.596	6291
4095.165	6254
4096.734	6223
4098.301	6281
4099.869	6241
4101.437	6192
4103.006	6112
4104.572	6223
4106.139	6085
4107.704	6155
4109.27	6164
4110.837	6182
4112.401	6162
4113.966	6153
4115.53	6137
4117.094	6030
4118.659	6199
4120.223	6122
4121.785	6033
4123.347	6163
4124.909	5983
4126.471	6107
4128.034	6012
4129.595	6048
4131.155	6031
4132.716	6049
4134.275	6061
4135.836	5980
4137.395	6049
4138.955	5888
4140.513	5963
4142.071	5945
4143.628	5960
4145.188	5938
4146.745	5936
4148.302	5957
4149.858	5942
4151.414	5756
4152.971	5873
4154.526	5859
4156.081	5848
4157.635	5855
4159.189	5981
4160.745	5832
4162.298	5855
4163.852	5859
4165.405	5817
4166.957	5720
4168.51	5820
4170.063	5787
4171.614	5840
4173.166	5805
4174.717	5883
4176.267	5805
4177.817	5670
4179.368	5728
4180.917	5696
4182.466	5758
4184.016	5710
4185.564	5672
4187.112	5584
4188.66	5612
4190.207	5654
4191.754	5632
4193.301	5708
4194.848	5667
4196.394	5577
4197.94	5664
4199.484	5673
4201.03	5582
4202.575	5484
4204.12	5520
4205.663	5698
4207.207	5565
4208.75	5583
4210.292	5571
4211.836	5581
4213.378	5612
4214.92	5612
4216.46	5493
4218.002	5552
4219.544	5639
4221.083	5566
4222.625	5593
4224.164	5580
4225.703	5507
4227.244	5551
4228.782	5566
4230.32	5529
4231.857	5643
4233.395	5414
4234.933	5524
4236.471	5565
4238.007	5566
4239.542	5464
4241.078	5507
4242.614	5464
4244.15	5441
4245.685	5492
4247.219	5558
4248.753	5465
4250.287	5431
4251.82	5481
4253.354	5398
4254.887	5484
4256.419	5422
4257.951	5450
4259.483	5439
4261.016	5485
4262.547	5469
4264.078	5410
4265.608	5434
4267.137	5411
4268.668	5368
4270.197	5485
4271.727	5344
4273.254	5397
4274.783	5369
4276.311	5363
4277.84	5352
4279.366	5336
4280.894	5307
4282.42	5374
4283.946	5279
4285.473	5379
4286.998	5321
4288.523	5260
4290.047	5425
4291.572	5346
4293.096	5265
4294.622	5213
4296.144	5309
4297.668	5233
4299.19	5279
4300.713	5308
4302.236	5297
4303.758	5193
4305.279	5286
4306.799	5186
4308.321	5220
4309.842	5193
4311.361	5143
4312.882	5268
4314.401	5205
