400.0961	4288
402.6185	4273
405.1424	4354
407.6635	4254
410.1838	4273
412.7035	4252
415.2225	4375
417.7388	4412
420.2585	4488
422.7754	4495
425.2917	4482
427.8072	4561
430.3221	4530
432.8363	4603
435.3498	4590
437.8626	4642
440.3727	4536
442.8841	4597
445.3969	4636
447.907	4569
450.4142	4646
452.9229	4617
455.4289	4540
457.9362	4576
460.4449	4517
462.9488	4479
465.454	4510
467.9566	4528
470.4604	4446
472.9637	4559
475.4662	4552
477.966	4522
480.4671	4593
482.9656	4582
485.4633	4605
487.9645	4597
490.4608	4675
492.9566	4602
495.4536	4708
497.948	4605
500.4437	4701
502.9387	4591
505.431	4702
507.9226	4627
510.4136	4653
512.9079	4674
515.3975	4735
517.8864	4671
520.3746	4730
522.8622	4808
525.3491	4661
527.8394	4786
530.3249	4697
532.8098	4677
535.2939	4847
537.7774	4749
540.2623	4811
542.7444	4734
545.2259	4804
547.7067	4716
550.1868	4784
552.6683	4783
555.147	4728
557.6231	4735
560.1005	4809
562.5773	4962
565.0534	4799
567.5308	4758
570.0056	4831
572.4776	4886
574.951	4869
577.4237	4968
579.8978	4968
582.3671	4985
584.8378	4931
587.3079	4978
589.7773	5020
592.244	4866
594.714	5014
597.1793	4909
599.6461	4964
602.1121	4946
604.5754	4963
607.0421	4904
609.5042	5025
611.9675	4905
614.4282	4987
616.8902	4933
619.3515	4870
621.8122	4935
624.2702	4854
626.7296	4878
629.1863	4887
631.6423	4870
634.1017	4870
636.5563	4938
639.0104	4979
641.4658	4865
643.9185	4857
646.3725	4972
648.8239	4829
651.2766	5055
653.7266	4910
656.176	4975
658.6247	4911
661.0748	4917
663.5242	5016
665.9709	4973
668.417	5057
670.8624	5115
673.3092	5157
675.7533	5066
678.1968	5096
680.6395	5101
683.0817	5027
685.5251	5059
687.9659	4971
690.4061	5001
692.8456	5135
695.2844	5053
697.7226	5143
700.1621	5087
702.599	5148
705.0332	5231
707.4688	5084
709.9036	5120
712.3399	5217
714.7735	5205
717.2044	5087
719.6367	5268
722.0683	5235
724.4993	5281
726.9296	5214
729.3593	5251
731.7883	5331
734.2147	5320
736.6423	5342
739.0714	5331
741.4958	5335
743.9216	5397
746.3447	5323
748.7691	5384
751.1929	5383
753.616	5363
756.0366	5428
758.4584	5408
760.8776	5357
763.2982	5530
765.718	5453
768.1373	5374
770.5539	5439
772.9698	5450
775.3871	5434
777.8038	5411
780.2178	5515
782.6332	5473
785.0459	5407
787.458	5482
789.8714	5422
792.2842	5458
794.6943	5385
797.1038	5421
799.5127	5386
801.9209	5600
804.3324	5440
806.7393	5477
809.1456	5555
811.5513	5433
813.9562	5564
816.3625	5615
818.7663	5529
821.1693	5525
823.5718	5558
825.9735	5565
828.3746	5497
830.7771	5562
833.177	5433
835.5762	5608
837.9747	5533
840.3727	5602
842.772	5638
845.1666	5621
847.5626	5675
849.958	5676
852.3527	5705
854.7488	5599
857.1403	5676
859.5331	5678
861.9253	5736
864.3168	5670
866.7057	5669
869.098	5650
871.4876	5691
873.8746	5606
876.263	5705
878.6487	5665
881.0378	5761
883.4243	5679
885.8081	5569
888.1933	5743
890.5759	5643
892.9598	5623
895.343	5657
897.7256	5678
900.1057	5637
902.4871	5720
904.8659	5643
907.246	5711
909.6254	5676
912.0023	5753
914.3786	5848
916.7562	5989
919.1331	5954
921.5074	5959
923.8831	6123
926.2562	5983
928.6287	6011
931.0005	5958
933.3757	6124
935.7462	6118
938.1162	6074
940.4855	6200
942.8542	6060
945.2242	6198
947.5916	6376
949.9584	6417
952.3266	6760
954.6921	6852
957.0571	7220
959.4233	7504
961.787	7430
964.15	7368
966.5125	7227
968.8742	7116
971.2354	6769
973.5959	6387
975.9559	6365
978.3151	6194
980.6738	6046
983.0338	6099
985.3912	5946
987.7461	5948
990.1022	5892
992.4578	5942
994.8127	5908
997.1689	5938
999.5207	5989
1001.874	5942
1004.226	6018
1006.576	5917
1008.929	5967
1011.28	5857
1013.628	5896
1015.977	5912
1018.324	5976
1020.674	5977
1023.019	5905
1025.366	5938
1027.713	5881
1030.056	6034
1032.399	5980
1034.746	5987
1037.087	6068
1039.431	6062
1041.771	6120
1044.113	6053
1046.454	6152
1048.793	6075
1051.133	6082
1053.471	5974
1055.807	6106
1058.146	6104
1060.483	6118
1062.818	6069
1065.153	6098
1067.489	6147
1069.822	6164
1072.156	6106
1074.488	6173
1076.82	6123
1079.15	6113
1081.48	6114
1083.814	6105
1086.143	6103
1088.471	5999
1090.799	6009
1093.126	6055
1095.452	6033
1097.78	5991
1100.105	5994
1102.43	6098
1104.754	6053
1107.077	6051
1109.4	6208
1111.722	5978
1114.044	6101
1116.365	6077
1118.685	5993
1121.005	6085
1123.324	6046
1125.643	6035
1127.961	6115
1130.278	6050
1132.595	5993
1134.911	6132
1137.226	6031
1139.541	6062
1141.854	6107
1144.167	6004
1146.482	6053
1148.793	6092
1151.105	6011
1153.414	6056
1155.725	5939
1158.033	6110
1160.344	5945
1162.651	6065
1164.959	6193
1167.265	6039
1169.572	6083
1171.878	6129
1174.184	6064
1176.488	6097
1178.79	6103
1181.094	6038
1183.396	6103
1185.699	6130
1188.001	6072
1190.301	6089
1192.6	6048
1194.9	6065
1197.2	6082
1199.497	6052
1201.794	6183
1204.09	6125
1206.387	6081
1208.684	6074
1210.978	6148
1213.272	6110
1215.565	6166
1217.858	6143
1220.15	6088
1222.443	6083
1224.734	6187
1227.024	6209
1229.313	6161
1231.602	6269
1233.892	6316
1236.18	6309
1238.467	6192
1240.754	6364
1243.04	6374
1245.325	6268
1247.612	6356
1249.896	6434
1252.178	6439
1254.461	6439
1256.743	6267
1259.027	6406
1261.308	6377
1263.587	6349
1265.867	6424
1268.146	6432
1270.425	6463
1272.703	6365
1274.981	6319
1277.256	6316
1279.532	6390
1281.808	6337
1284.083	6272
1286.358	6360
1288.63	6309
1290.904	6161
1293.175	6267
1295.449	6261
1297.719	6267
1299.99	6217
1302.259	6222
1304.529	6276
1306.798	6248
1309.065	6271
1311.333	6430
1313.599	6273
1315.866	6274
1318.131	6386
1320.396	6245
1322.66	6315
1324.925	6302
1327.187	6186
1329.448	6422
1331.711	6333
1333.974	6366
1336.234	6260
1338.493	6425
1340.752	6351
1343.01	6293
1345.269	6243
1347.526	6288
1349.784	6254
1352.04	6300
1354.295	6338
1356.552	6247
1358.806	6301
1361.059	6268
1363.312	6222
1365.564	6316
1367.818	6270
1370.069	6352
1372.318	6300
1374.568	6317
1376.817	6322
1379.066	6369
1381.316	6130
1383.564	6303
1385.809	6433
1388.056	6274
1390.301	6447
1392.549	6299
1394.793	6431
1397.036	6542
1399.279	6750
1401.522	6543
1403.763	6588
1406.007	6556
1408.248	6548
1410.487	6596
1412.727	6536
1414.965	6614
1417.205	6602
1419.442	6548
1421.68	6506
1423.915	6573
1426.152	6525
1428.388	6515
1430.623	6486
1432.857	6536
1435.091	6511
1437.323	6671
1439.556	6630
1441.789	6560
1444.019	6663
1446.25	6633
1448.48	6682
1450.708	6754
1452.938	6729
1455.167	6739
1457.394	6768
1459.62	6675
1461.846	6700
1464.073	6687
1466.299	6673
1468.523	6571
1470.746	6469
1472.969	6570
1475.191	6362
1477.415	6476
1479.636	6345
1481.858	6427
1484.078	6163
1486.298	6392
1488.518	6402
1490.736	6391
1492.954	6292
1495.169	6407
1497.386	6378
1499.602	6224
1501.819	6313
1504.034	6375
1506.248	6221
1508.462	6353
1510.675	6197
1512.888	6310
1515.1	6323
1517.311	6143
1519.522	6232
1521.732	6147
1523.942	6294
1526.151	6077
1528.36	6290
1530.566	6255
1532.773	6299
1534.98	6211
1537.187	6181
1539.392	6295
1541.596	6310
1543.801	6283
1546.005	6364
1548.208	6290
1550.411	6349
1552.612	6281
1554.814	6357
1557.013	6302
1559.212	6427
1561.414	6347
1563.612	6314
1565.811	6379
1568.007	6441
1570.203	6448
1572.403	6363
1574.598	6462
1576.792	6395
1578.988	6459
1581.181	6408
1583.376	6460
1585.568	6536
1587.761	6410
1589.952	6529
1592.143	6464
1594.333	6540
1596.524	6523
1598.715	6341
1600.903	6480
1603.091	6584
1605.278	6571
1607.466	6400
1609.652	6460
1611.838	6544
1614.023	6373
1616.207	6548
1618.391	6498
1620.576	6416
1622.759	6424
1624.941	6510
1627.123	6571
1629.304	6509
1631.484	6598
1633.664	6535
1635.844	6493
1638.022	6663
1640.201	6617
1642.38	6618
1644.556	6605
1646.732	6707
1648.908	6600
1651.084	6628
1653.257	6583
1655.433	6636
1657.607	6623
1659.779	6575
1661.951	6615
1664.122	6747
1666.295	6702
1668.467	6609
1670.635	6587
1672.805	6779
1674.973	6662
1677.142	6698
1679.31	6652
1681.478	6610
1683.644	6719
1685.81	6680
1687.975	6651
1690.142	6591
1692.305	6727
1694.468	6622
1696.632	6493
1698.794	6603
1700.957	6546
1703.119	6522
1705.279	6540
1707.439	6481
1709.598	6535
1711.758	6482
1713.917	6585
1716.075	6481
1718.231	6453
1720.388	6572
1722.543	6538
1724.702	6536
1726.856	6430
1729.01	6495
1731.164	6454
1733.317	6385
1735.471	6571
1737.623	6512
1739.774	6592
1741.925	6485
1744.075	6457
1746.225	6437
1748.376	6413
1750.524	6480
1752.672	6478
1754.82	6554
1756.965	6530
1759.113	6320
1761.259	6480
1763.405	6592
1765.549	6458
1767.694	6472
1769.836	6481
1771.981	6607
1774.123	6409
1776.264	6537
1778.405	6552
1780.546	6618
1782.687	6461
1784.827	6525
1786.966	6477
1789.103	6457
1791.242	6535
1793.381	6573
1795.517	6538
1797.653	6556
1799.788	6547
1801.923	6510
1804.057	6589
1806.193	6585
1808.326	6592
1810.457	6451
1812.59	6404
1814.721	6607
1816.855	6676
1818.984	6625
1821.113	6477
1823.244	6542
1825.372	6487
1827.499	6528
1829.63	6507
1831.756	6414
1833.882	6523
1836.007	6605
1838.132	6508
1840.26	6492
1842.384	6538
1844.507	6405
1846.63	6561
1848.752	6380
1850.875	6539
1852.996	6508
1855.118	6514
1857.238	6472
1859.358	6462
1861.477	6354
1863.597	6440
1865.715	6505
1867.832	6442
1869.948	6431
1872.064	6437
1874.181	6361
1876.297	6472
1878.411	6495
1880.526	6470
1882.639	6466
1884.752	6423
1886.865	6475
1888.977	6476
1891.089	6487
1893.2	6596
1895.308	6436
1897.42	6574
1899.53	6567
1901.639	6509
1903.745	6446
1905.853	6552
1907.962	6568
1910.067	6525
1912.174	6412
1914.278	6591
1916.383	6533
1918.486	6485
1920.592	6590
1922.694	6526
1924.797	6671
1926.898	6475
1929	6564
1931.102	6475
1933.203	6583
1935.301	6656
1937.401	6570
1939.499	6692
1941.598	6587
1943.697	6568
1945.793	6550
1947.888	6615
1949.985	6516
1952.08	6673
1954.176	6602
1956.269	6499
1958.364	6501
1960.457	6652
1962.549	6642
1964.642	6554
1966.733	6507
1968.823	6625
1970.913	6617
1973.005	6593
1975.093	6509
1977.184	6657
1979.271	6616
1981.359	6469
1983.446	6559
1985.532	6474
1987.619	6509
1989.705	6496
1991.789	6487
1993.874	6458
1995.956	6600
1998.041	6502
2000.123	6404
2002.206	6504
2004.287	6509
2006.368	6414
2008.449	6366
2010.529	6596
2012.609	6444
2014.688	6580
2016.766	6496
2018.843	6584
2020.922	6480
2022.999	6481
2025.074	6443
2027.15	6558
2029.225	6473
2031.299	6631
2033.375	6497
2035.447	6444
2037.52	6548
2039.592	6387
2041.664	6539
2043.736	6508
2045.807	6492
2047.876	6650
2049.947	6488
2052.015	6412
2054.086	6578
2056.153	6317
2058.221	6433
2060.288	6447
2062.353	6501
2064.42	6542
2066.486	6442
2068.55	6489
2070.614	6446
2072.678	6529
2074.741	6468
2076.805	6561
2078.866	6560
2080.929	6450
2082.99	6513
2085.049	6524
2087.109	6391
2089.17	6565
2091.228	6545
2093.286	6532
2095.344	6478
2097.4	6563
2099.46	6564
2101.516	6415
2103.572	6437
2105.626	6540
2107.679	6392
2109.735	6682
2111.788	6532
2113.841	6493
2115.894	6525
2117.945	6593
2119.997	6422
2122.049	6319
2124.1	6569
2126.148	6589
2128.197	6534
2130.246	6637
2132.296	6370
2134.342	6620
2136.39	6487
2138.437	6482
2140.483	6518
2142.527	6525
2144.574	6462
2146.619	6383
2148.661	6427
2150.705	6497
2152.747	6386
2154.792	6438
2156.832	6447
2158.874	6361
2160.915	6391
2162.954	6407
2164.995	6304
2167.034	6444
2169.072	6422
2171.111	6480
2173.148	6346
2175.186	6370
2177.223	6462
2179.258	6437
2181.294	6383
2183.328	6501
2185.362	6346
2187.398	6240
2189.431	6401
2191.463	6324
2193.495	6291
2195.528	6310
2197.56	6309
2199.59	6286
2201.62	6298
2203.649	6232
2205.678	6456
2207.708	6289
2209.737	6495
2211.764	6256
2213.791	6282
2215.817	6215
2217.843	6305
2219.87	6384
2221.895	6296
2223.919	6281
2225.942	6360
2227.966	6358
2229.988	6300
2232.012	6290
2234.032	6258
2236.054	6242
2238.074	6321
2240.095	6297
2242.116	6282
2244.135	6280
2246.153	6340
2248.171	6289
2250.188	6202
2252.208	6226
2254.223	6289
2256.239	6359
2258.255	6268
2260.269	6281
2262.283	6280
2264.3	6305
2266.312	6156
2268.325	6319
2270.336	6223
2272.349	6250
2274.362	6425
2276.372	6350
2278.383	6291
2280.392	6316
2282.402	6237
2284.409	6361
2286.418	6132
2288.427	6264
2290.433	6317
2292.441	6307
2294.446	6341
2296.453	6270
2298.459	6283
2300.463	6376
2302.466	6299
2304.471	6241
2306.475	6347
2308.477	6201
2310.478	6272
2312.481	6340
2314.481	6219
2316.481	6207
2318.482	6291
2320.482	6111
2322.48	6248
2324.48	6200
2326.478	6152
2328.476	6276
2330.473	6175
2332.469	6134
2334.465	6283
2336.46	6137
2338.454	6258
2340.45	6177
2342.444	6166
2344.437	6148
2346.43	6135
2348.421	6105
2350.414	6152
2352.405	6188
2354.396	6119
2356.386	6196
2358.376	6156
2360.366	6185
2362.355	6197
2364.343	6215
2366.331	6207
2368.317	6098
2370.304	6108
2372.292	6123
2374.278	6121
2376.262	6036
2378.247	6061
2380.23	6047
2382.216	6113
2384.199	6084
2386.181	6061
2388.163	6082
2390.144	6012
2392.127	6143
2394.107	5985
2396.087	6022
2398.066	6035
2400.046	6155
2402.023	6045
2404.004	6135
2405.981	6093
2407.957	6071
2409.934	6003
2411.91	5995
2413.886	6094
2415.862	6096
2417.836	6061
2419.809	6052
2421.784	6057
2423.756	5998
2425.73	6162
2427.701	6045
2429.672	6076
2431.644	6005
2433.615	5936
2435.586	6014
2437.555	6034
2439.523	6051
2441.491	6037
2443.459	6107
2445.428	6020
2447.395	5924
2449.361	5927
2451.327	6076
2453.292	6033
2455.257	5966
2457.223	6024
2459.187	5960
2461.15	6000
2463.113	6030
2465.076	6051
2467.039	6111
2468.999	5913
2470.96	6011
2472.921	5990
2474.881	5994
2476.841	6054
2478.8	6028
2480.759	6041
2482.717	5985
2484.675	5985
2486.63	5991
2488.589	5988
2490.545	5996
2492.5	6023
2494.455	5996
2496.408	5965
2498.364	5956
2500.318	5989
2502.27	5923
2504.223	5908
2506.174	5988
2508.126	5876
2510.078	5907
2512.03	5873
2513.979	5870
2515.927	5917
2517.877	5915
2519.826	5918
2521.775	5905
2523.722	5935
2525.668	5927
2527.616	5948
2529.561	6008
2531.508	5829
2533.452	5853
2535.398	5949
2537.342	5864
2539.284	5910
2541.229	5895
2543.173	5951
2545.114	5886
2547.055	5891
2548.996	5829
2550.938	5930
2552.878	5916
2554.817	5931
2556.756	5936
2558.695	5985
2560.633	5893
2562.572	5865
2564.509	5833
2566.445	5961
2568.382	5905
2570.317	5792
2572.254	5883
2574.189	5899
2576.123	5978
2578.057	5855
2579.99	5878
2581.923	5892
2583.855	5902
2585.788	5853
2587.719	5800
2589.65	5917
2591.579	5901
2593.511	5853
2595.44	5798
2597.37	5880
2599.297	5918
2601.225	5994
2603.153	5840
2605.08	5874
2607.007	5834
2608.932	5961
2610.858	5944
2612.782	5934
2614.709	5960
2616.632	5910
2618.556	5941
2620.478	5870
2622.401	5860
2624.324	5943
2626.247	5950
2628.167	5813
2630.088	5901
2632.008	5817
2633.928	5962
2635.848	5828
2637.766	5871
2639.684	5843
2641.603	5903
2643.519	5982
2645.437	5868
2647.353	5919
2649.27	5854
2651.184	5962
2653.099	5960
2655.014	5841
2656.928	5778
2658.842	5936
2660.755	5885
2662.667	5980
2664.579	5781
2666.491	5812
2668.402	5889
2670.312	5817
2672.222	5853
2674.132	5801
2676.042	5718
2677.951	5916
2679.859	5897
2681.766	5872
2683.674	5835
2685.582	5811
2687.488	5846
2689.392	5878
2691.298	5873
2693.202	5736
2695.107	5766
2697.012	5798
2698.914	5856
2700.817	5698
2702.72	5780
2704.622	5784
2706.524	5795
2708.425	5766
2710.326	5857
2712.225	5843
2714.125	5737
2716.024	5713
2717.923	5706
2719.822	5773
2721.719	5706
2723.616	5796
2725.512	5704
2727.41	5660
2729.305	5736
2731.201	5767
2733.095	5715
2734.99	5796
2736.884	5676
2738.778	5766
2740.67	5752
2742.562	5765
2744.455	5684
2746.346	5793
2748.238	5737
2750.129	5770
2752.018	5712
2753.907	5681
2755.797	5765
2757.687	5710
2759.575	5667
2761.462	5791
2763.349	5691
2765.237	5692
2767.124	5713
2769.009	5685
2770.894	5720
2772.779	5710
2774.663	5673
2776.547	5676
2778.431	5790
2780.314	5626
2782.197	5730
2784.078	5736
2785.96	5651
2787.842	5644
2789.723	5694
2791.603	5607
2793.483	5686
2795.362	5589
2797.241	5665
2799.121	5686
2800.997	5769
2802.874	5709
2804.751	5617
2806.628	5687
2808.506	5668
2810.38	5671
2812.255	5663
2814.13	5637
2816.003	5694
2817.878	5600
2819.752	5728
2821.623	5777
2823.496	5638
2825.368	5668
2827.238	5620
2829.111	5787
2830.98	5660
2832.851	5558
2834.719	5690
2836.589	5583
2838.458	5739
2840.327	5666
2842.193	5741
2844.061	5632
2845.927	5696
2847.794	5775
2849.66	5735
2851.525	5789
2853.39	5695
2855.254	5681
2857.117	5728
2858.983	5784
2860.845	5771
2862.707	5797
2864.569	5932
2866.431	5823
2868.293	5902
2870.154	5905
2872.013	6007
2873.873	6150
2875.733	6083
2877.592	6088
2879.451	6115
2881.309	6131
2883.166	6155
2885.022	6173
2886.879	6216
2888.736	6331
2890.591	6344
2892.446	6221
2894.301	6405
2896.155	6406
2898.009	6314
2899.863	6315
2901.716	6206
2903.568	6325
2905.419	6302
2907.27	6367
2909.123	6227
2910.973	6396
2912.824	6370
2914.673	6557
2916.521	6455
2918.372	6437
2920.22	6582
2922.067	6614
2923.914	6655
2925.761	6699
2927.607	6743
2929.455	6704
2931.301	6868
2933.144	6930
2934.99	6923
2936.833	6900
2938.678	7015
2940.522	7156
2942.364	7199
2944.207	7188
2946.048	7195
2947.891	7361
2949.731	7378
2951.571	7346
2953.412	7265
2955.25	7293
2957.09	7263
2958.93	7059
2960.767	7025
2962.606	6981
2964.443	6875
2966.279	6963
2968.116	6743
2969.953	6481
2971.788	6647
2973.623	6559
2975.457	6371
2977.292	6527
2979.127	6441
2980.959	6452
2982.792	6334
2984.624	6352
2986.455	6273
2988.288	6311
2990.119	6177
2991.949	6126
2993.779	6131
2995.608	6092
2997.439	6035
2999.268	6033
3001.096	6061
3002.923	5852
3004.751	5866
3006.578	5827
3008.406	5830
3010.232	5732
3012.057	5786
3013.883	5601
3015.706	5659
3017.532	5547
3019.356	5623
3021.179	5638
3023.002	5543
3024.823	5444
3026.646	5489
3028.469	5431
3030.289	5402
3032.11	5426
3033.93	5458
3035.749	5475
3037.57	5356
3039.39	5437
3041.207	5413
3043.026	5377
3044.842	5440
3046.661	5391
3048.477	5308
3050.294	5346
3052.109	5333
3053.925	5376
3055.739	5391
3057.555	5432
3059.368	5385
3061.181	5462
3062.995	5273
3064.807	5334
3066.62	5340
3068.433	5440
3070.243	5313
3072.054	5326
3073.865	5269
3075.675	5283
3077.485	5387
3079.293	5314
3081.102	5366
3082.911	5218
3084.719	5387
3086.527	5339
3088.333	5187
3090.139	5300
3091.945	5204
3093.75	5227
3095.557	5190
3097.361	5204
3099.165	5214
3100.969	5183
3102.772	5107
3104.575	5236
3106.379	5128
3108.181	5170
3109.982	5248
3111.783	5175
3113.584	5174
3115.386	5155
3117.186	5232
3118.985	5123
3120.783	5109
3122.582	5057
3124.381	5208
3126.179	5187
3127.975	5156
3129.772	5127
3131.569	5130
3133.365	5033
3135.161	5101
3136.956	5153
3138.751	5147
3140.544	5157
3142.338	5066
3144.132	5073
3145.925	5150
3147.717	5100
3149.509	5067
3151.301	5158
3153.091	4996
3154.884	5034
3156.673	5022
3158.462	5015
3160.252	5024
3162.041	5052
3163.831	5001
3165.618	4898
3167.405	5064
3169.193	5014
3170.979	5133
3172.767	4940
3174.553	5074
3176.338	5032
3178.123	5110
3179.907	5027
3181.692	5065
3183.477	5017
3185.259	5111
3187.042	5010
3188.824	5073
3190.607	5117
3192.389	4873
3194.17	4965
3195.951	5029
3197.73	5027
3199.51	4948
3201.289	4811
3203.07	5078
3204.848	4954
3206.626	5030
3208.403	5050
3210.18	5099
3211.959	4990
3213.735	4980
3215.511	4971
3217.285	5008
3219.06	4981
3220.836	4895
3222.611	4920
3224.384	5005
3226.158	5089
3227.929	4979
3229.702	4974
3231.476	4987
3233.248	4849
3235.018	5019
3236.789	4982
3238.56	4956
3240.33	4997
3242.1	4913
3243.869	4935
3245.637	4994
3247.405	4908
3249.172	5051
3250.941	5041
3252.707	4940
3254.474	4954
3256.24	4985
3258.006	4911
3259.772	4965
3261.537	4947
3263.301	5021
3265.065	4975
3266.828	5003
3268.592	4992
3270.355	4924
3272.117	4984
3273.878	5001
3275.64	4940
3277.401	4987
3279.162	5003
3280.922	4921
3282.682	5005
3284.441	5016
3286.199	4946
3287.959	4991
3289.716	4946
3291.475	5055
3293.232	4891
3294.988	4934
3296.744	4879
3298.501	4903
3300.256	4866
3302.011	5042
3303.766	4933
3305.52	5073
3307.275	4988
3309.028	4999
3310.781	4976
3312.533	4918
3314.285	4922
3316.038	4957
3317.789	4966
3319.54	4846
3321.289	4901
3323.039	4881
3324.789	4998
3326.539	4970
3328.288	4919
3330.035	4831
3331.783	4920
3333.531	4964
3335.28	4883
3337.025	4893
3338.771	4929
3340.518	4921
3342.262	4861
3344.009	4948
3345.753	4886
3347.497	4831
3349.24	4859
3350.983	4839
3352.726	4870
3354.469	4915
3356.212	4843
3357.952	4798
3359.694	4874
3361.434	4870
3363.176	4766
3364.916	4790
3366.654	4894
3368.394	4831
3370.132	4868
3371.871	4762
3373.61	4857
3375.346	4744
3377.083	4797
3378.82	4748
3380.556	4749
3382.292	4715
3384.027	4804
3385.763	4722
3387.497	4826
3389.231	4690
3390.965	4789
3392.698	4744
3394.431	4693
3396.164	4784
3397.896	4668
3399.627	4743
3401.36	4693
3403.09	4746
3404.82	4712
3406.55	4709
3408.279	4658
3410.01	4684
3411.738	4675
3413.467	4705
3415.194	4651
3416.92	4707
3418.647	4655
3420.375	4550
3422.102	4693
3423.827	4690
3425.553	4684
3427.277	4613
3429.003	4672
3430.727	4669
3432.451	4649
3434.173	4701
3435.896	4587
3437.62	4580
3439.343	4552
3441.063	4571
3442.785	4586
3444.505	4671
3446.226	4596
3447.948	4652
3449.666	4512
3451.386	4559
3453.104	4525
3454.823	4620
3456.541	4533
3458.259	4547
3459.976	4547
3461.693	4595
3463.408	4471
3465.125	4595
3466.841	4511
3468.556	4463
3470.271	4432
3471.985	4556
3473.698	4458
3475.414	4520
3477.126	4439
3478.838	4431
3480.55	4471
3482.263	4388
3483.975	4353
3485.686	4503
3487.396	4426
3489.106	4370
3490.817	4384
3492.526	4399
3494.236	4417
3495.944	4356
3497.652	4351
3499.359	4429
3501.066	4435
3502.775	4394
3504.481	4399
3506.187	4399
3507.893	4352
3509.598	4330
3511.304	4410
3513.009	4313
3514.713	4368
3516.417	4306
3518.12	4389
3519.821	4344
3521.525	4286
3523.228	4305
3524.929	4317
3526.631	4301
3528.33	4237
3530.032	4380
3531.733	4327
3533.433	4273
3535.131	4261
3536.83	4176
3538.529	4225
3540.227	4260
3541.925	4177
3543.623	4151
3545.319	4213
3547.016	4232
3548.712	4244
3550.408	4257
3552.103	4265
3553.798	4224
3555.491	4176
3557.188	4215
3558.88	4193
3560.574	4188
3562.266	4165
3563.959	4134
3565.651	4126
3567.343	4137
3569.035	4200
3570.725	4146
3572.415	4230
3574.106	4042
3575.797	4141
3577.485	4139
3579.174	4161
3580.863	4172
3582.551	4167
3584.238	4098
3585.926	4042
3587.613	4083
3589.3	4077
3590.986	4101
3592.671	4113
3594.357	4072
3596.042	4064
3597.726	4037
3599.41	4070
3601.094	3996
3602.778	4028
3604.461	4000
3606.143	3920
3607.825	4046
3609.507	4069
3611.188	3990
3612.87	4020
3614.551	3973
3616.229	3965
3617.909	3973
3619.589	3943
3621.269	3976
3622.948	3904
3624.625	3958
3626.302	3929
3627.98	3918
3629.657	3930
3631.334	3944
3633.01	3906
3634.686	3929
3636.361	3944
3638.036	3914
3639.712	3993
3641.385	3903
3643.06	3829
3644.732	3835
3646.405	3904
3648.08	3877
3649.751	3881
3651.424	3772
3653.094	3850
3654.766	3830
3656.436	3886
3658.106	3865
3659.777	3805
3661.446	3847
3663.115	3730
3664.783	3851
3666.452	3815
3668.121	3815
3669.788	3862
3671.454	3842
3673.121	3885
3674.789	3794
3676.455	3747
3678.12	3768
3679.784	3823
3681.45	3822
3683.114	3734
3684.779	3723
3686.442	3797
3688.105	3800
3689.768	3759
3691.43	3818
3693.093	3731
3694.754	3761
3696.415	3741
3698.076	3710
3699.736	3772
3701.396	3687
3703.057	3753
3704.716	3727
3706.375	3735
3708.034	3674
3709.692	3686
3711.351	3740
3713.008	3667
3714.665	3676
3716.321	3661
3717.977	3733
3719.634	3712
3721.29	3759
3722.945	3688
3724.598	3707
3726.253	3761
3727.907	3683
3729.561	3682
3731.214	3685
3732.867	3635
3734.518	3676
3736.171	3593
3737.824	3735
3739.474	3631
3741.125	3708
3742.775	3560
3744.425	3692
3746.074	3636
3747.725	3734
3749.373	3717
3751.022	3617
3752.669	3709
3754.318	3658
3755.966	3677
3757.612	3583
3759.259	3593
3760.905	3650
3762.55	3646
3764.197	3642
3765.842	3578
3767.486	3667
3769.131	3576
3770.774	3578
3772.417	3628
3774.061	3570
3775.705	3619
3777.347	3544
3778.988	3527
3780.629	3567
3782.271	3611
3783.912	3567
3785.552	3551
3787.192	3559
3788.831	3618
3790.472	3507
3792.112	3586
3793.75	3525
3795.388	3621
3797.024	3585
3798.661	3564
3800.3	3511
3801.936	3557
3803.572	3509
3805.208	3496
3806.844	3600
3808.48	3463
3810.115	3487
3811.748	3475
3813.382	3494
3815.016	3632
3816.649	3472
3818.283	3535
3819.914	3442
3821.547	3489
3823.178	3479
3824.809	3405
3826.441	3496
3828.072	3470
3829.701	3459
3831.331	3458
3832.96	3480
3834.591	3432
3836.219	3471
3837.847	3418
3839.475	3384
3841.102	3484
3842.729	3384
3844.357	3377
3845.984	3435
3847.609	3444
3849.234	3425
3850.86	3472
3852.485	3435
3854.11	3429
3855.734	3437
3857.357	3273
3858.981	3371
3860.603	3385
3862.227	3431
3863.848	3447
3865.471	3407
3867.092	3401
3868.713	3336
3870.334	3411
3871.954	3393
3873.575	3369
3875.194	3396
3876.813	3366
3878.433	3365
3880.051	3272
3881.669	3304
3883.286	3374
3884.904	3351
3886.52	3368
3888.138	3376
3889.754	3302
3891.37	3374
3892.985	3353
3894.6	3359
3896.216	3388
3897.831	3308
3899.444	3344
3901.058	3301
3902.67	3334
3904.283	3376
3905.897	3409
3907.509	3272
3909.121	3308
3910.731	3343
3912.342	3342
3913.954	3300
3915.563	3331
3917.174	3258
3918.783	3345
3920.391	3370
3922.002	3269
3923.611	3331
3925.218	3294
3926.826	3336
3928.432	3338
3930.039	3293
3931.647	3231
3933.253	3301
3934.859	3342
3936.464	3263
3938.068	3270
3939.675	3333
3941.278	3190
3942.883	3188
3944.486	3298
3946.089	3268
3947.692	3354
3949.295	3259
3950.898	3297
3952.499	3276
3954.1	3270
3955.7	3152
3957.303	3287
3958.903	3213
3960.502	3234
3962.101	3226
3963.7	3305
3965.301	3255
3966.899	3208
3968.497	3245
3970.094	3205
3971.691	3260
3973.288	3247
3974.885	3229
3976.481	3224
3978.077	3154
3979.672	3232
3981.267	3221
3982.863	3214
3984.457	3159
3986.051	3180
3987.645	3202
3989.238	3139
3990.831	3108
3992.425	3150
3994.017	3175
3995.607	3107
3997.199	3126
3998.79	3148
4000.382	3150
4001.973	3109
4003.561	3135
4005.151	3142
4006.741	3091
4008.331	3106
4009.918	3114
4011.507	3149
4013.095	3130
4014.681	3095
4016.269	3085
4017.856	3115
4019.443	3083
4021.028	3062
4022.614	3052
4024.199	3095
4025.785	3091
4027.37	3008
4028.953	3002
4030.536	3038
4032.12	3096
4033.704	3015
4035.287	3055
4036.869	3042
4038.45	3103
4040.032	3075
4041.613	3044
4043.195	2986
4044.776	3006
4046.356	3062
4047.935	2975
4049.515	3083
4051.095	3002
4052.674	2998
4054.251	3043
4055.829	2924
4057.406	2969
4058.985	3022
4060.562	2986
4062.139	2964
4063.715	2928
4065.29	3006
4066.865	2947
4068.442	3014
4070.016	3012
4071.59	2893
4073.164	2962
4074.738	2916
4076.312	2945
4077.885	2979
4079.458	2961
4081.03	2975
4082.602	2961
4084.173	2914
4085.745	2939
4087.315	2965
4088.886	2963
4090.456	2900
4092.026	2973
4093.596	2922
4095.165	2997
4096.734	2933
4098.301	2912
4099.869	2863
4101.437	2983
4103.006	2885
4104.572	2992
4106.139	2915
4107.704	2906
4109.27	2923
4110.837	2904
4112.401	2784
4113.966	2949
4115.53	2864
4117.094	2834
4118.659	2925
4120.223	2931
4121.785	2847
4123.347	2897
4124.909	2847
4126.471	2914
4128.034	2896
4129.595	2869
4131.155	2902
4132.716	2885
4134.275	2834
4135.836	2851
4137.395	2891
4138.955	2858
4140.513	2896
4142.071	2801
4143.628	2868
4145.188	2869
4146.745	2863
4148.302	2843
4149.858	2833
4151.414	2806
4152.971	2754
4154.526	2803
4156.081	2762
4157.635	2874
4159.189	2827
4160.745	2752
4162.298	2713
4163.852	2753
4165.405	2812
4166.957	2756
4168.51	2740
4170.063	2821
4171.614	2773
4173.166	2825
4174.717	2804
4176.267	2768
4177.817	2811
4179.368	2752
4180.917	2788
4182.466	2759
4184.016	2754
4185.564	2774
4187.112	2735
4188.66	2827
4190.207	2727
4191.754	2736
4193.301	2709
4194.848	2738
4196.394	2717
4197.94	2670
4199.484	2673
4201.03	2703
4202.575	2715
4204.12	2662
4205.663	2704
4207.207	2711
4208.75	2648
4210.292	2640
4211.836	2693
4213.378	2655
4214.92	2675
4216.46	2673
4218.002	2632
4219.544	2656
4221.083	2574
4222.625	2743
4224.164	2675
4225.703	2763
4227.244	2688
4228.782	2659
4230.32	2713
4231.857	2613
4233.395	2645
4234.933	2678
4236.471	2659
4238.007	2642
4239.542	2682
4241.078	2633
4242.614	2651
4244.15	2701
4245.685	2616
4247.219	2654
4248.753	2608
4250.287	2571
4251.82	2654
4253.354	2662
4254.887	2637
4256.419	2677
4257.951	2598
4259.483	2617
4261.016	2693
4262.547	2592
4264.078	2643
4265.608	2674
4267.137	2607
4268.668	2569
4270.197	2571
4271.727	2554
4273.254	2625
4274.783	2654
4276.311	2595
4277.84	2627
4279.366	2589
4280.894	2573
4282.42	2546
4283.946	2566
4285.473	2556
4286.998	2609
4288.523	2580
4290.047	2553
4291.572	2546
4293.096	2572
4294.622	2540
4296.144	2621
4297.668	2537
4299.19	2538
4300.713	2585
4302.236	2537
4303.758	2529
4305.279	2575
4306.799	2486
4308.321	2529
4309.842	2540
4311.361	2530
4312.882	2527
4314.401	2530
