400.0961	6143
402.6185	6254
405.1424	6018
407.6635	6168
410.1838	6170
412.7035	6180
415.2225	6340
417.7388	6323
420.2585	6344
422.7754	6544
425.2917	6493
427.8072	6517
430.3221	6522
432.8363	6531
435.3498	6469
437.8626	6588
440.3727	6731
442.8841	6561
445.3969	6553
447.907	6563
450.4142	6624
452.9229	6560
455.4289	6506
457.9362	6579
460.4449	6485
462.9488	6555
465.454	6674
467.9566	6582
470.4604	6585
472.9637	6663
475.4662	6640
477.966	6648
480.4671	6757
482.9656	6752
485.4633	6773
487.9645	6750
490.4608	6708
492.9566	6834
495.4536	6730
497.948	6742
500.4437	6759
502.9387	6700
505.431	6885
507.9226	6751
510.4136	6761
512.9079	6926
515.3975	6794
517.8864	6894
520.3746	6800
522.8622	6936
525.3491	6812
527.8394	6870
530.3249	7034
532.8098	7055
535.2939	6952
537.7774	6870
540.2623	6931
542.7444	6872
545.2259	6969
547.7067	6986
550.1868	7129
552.6683	7016
555.147	6872
557.6231	7041
560.1005	7039
562.5773	7044
565.0534	7034
567.5308	7016
570.0056	7050
572.4776	7004
574.951	7247
577.4237	7212
579.8978	7233
582.3671	7232
584.8378	7064
587.3079	7155
589.7773	7292
592.244	7136
594.714	7188
597.1793	7165
599.6461	7146
602.1121	7086
604.5754	7271
607.0421	7297
609.5042	7310
611.9675	7098
614.4282	7168
616.8902	7214
619.3515	7115
621.8122	7240
624.2702	7119
626.7296	7296
629.1863	7268
631.6423	7137
634.1017	7121
636.5563	7046
639.0104	7310
641.4658	7197
643.9185	7241
646.3725	7214
648.8239	7270
651.2766	7340
653.7266	7235
656.176	7216
658.6247	7338
661.0748	7273
663.5242	7254
665.9709	7249
668.417	7385
670.8624	7351
673.3092	7400
675.7533	7460
678.1968	7407
680.6395	7532
683.0817	7478
685.5251	7405
687.9659	7378
690.4061	7554
692.8456	7452
695.2844	7380
697.7226	7452
700.1621	7469
702.599	7576
705.0332	7518
707.4688	7563
709.9036	7538
712.3399	7658
714.7735	7535
717.2044	7576
719.6367	7639
722.0683	7687
724.4993	7677
726.9296	7607
729.3593	7651
731.7883	7785
734.2147	7732
736.6423	7703
739.0714	7795
741.4958	7800
743.9216	7895
746.3447	7819
748.7691	7872
751.1929	7947
753.616	8021
756.0366	7940
758.4584	8031
760.8776	8003
763.2982	7975
765.718	7895
768.1373	7915
770.5539	8105
772.9698	8040
775.3871	8028
777.8038	8005
780.2178	8117
782.6332	7980
785.0459	8036
787.458	7934
789.8714	8191
792.2842	8072
794.6943	7975
797.1038	8051
799.5127	8122
801.9209	8044
804.3324	8135
806.7393	8149
809.1456	7973
811.5513	8174
813.9562	8021
816.3625	8249
818.7663	8033
821.1693	8130
823.5718	8151
825.9735	8136
828.3746	8054
830.7771	8117
833.177	8323
835.5762	8127
837.9747	8161
840.3727	8210
842.772	8302
845.1666	8407
847.5626	8269
849.958	8222
852.3527	8425
854.7488	8387
857.1403	8284
859.5331	8320
861.9253	8324
864.3168	8140
866.7057	8198
869.098	8158
871.4876	8230
873.8746	8346
876.263	8340
878.6487	8265
881.0378	8333
883.4243	8152
885.8081	8305
888.1933	8273
890.5759	8369
892.9598	8330
895.343	8341
897.7256	8288
900.1057	8235
902.4871	8227
904.8659	8354
907.246	8394
909.6254	8337
912.0023	8339
914.3786	8541
916.7562	8509
919.1331	8623
921.5074	8685
923.8831	8661
926.2562	8714
928.6287	8815
931.0005	8565
933.3757	8614
935.7462	8723
938.1162	8664
940.4855	8867
942.8542	8880
945.2242	8881
947.5916	8973
949.9584	9090
952.3266	9173
954.6921	9450
957.0571	9664
959.4233	9878
961.787	9946
964.15	9869
966.5125	9746
968.8742	9571
971.2354	9402
973.5959	9103
975.9559	8860
978.3151	8825
980.6738	8730
983.0338	8795
985.3912	8703
987.7461	8635
990.1022	8506
992.4578	8542
994.8127	8664
997.1689	8572
999.5207	8692
1001.874	8563
1004.226	8740
1006.576	8608
1008.929	8623
1011.28	8545
1013.628	8739
1015.977	8659
1018.324	8527
1020.674	8500
1023.019	8596
1025.366	8636
1027.713	8730
1030.056	8605
1032.399	8752
1034.746	8685
1037.087	8696
1039.431	8658
1041.771	8740
1044.113	8701
1046.454	8697
1048.793	8773
1051.133	8804
1053.471	8679
1055.807	8767
1058.146	8722
1060.483	8751
1062.818	8903
1065.153	8975
1067.489	8865
1069.822	8916
1072.156	8899
1074.488	8847
1076.82	8961
1079.15	8849
1081.48	8884
1083.814	8924
1086.143	8848
1088.471	8779
1090.799	8888
1093.126	8791
1095.452	8806
1097.78	8829
1100.105	8921
1102.43	8863
1104.754	8785
1107.077	8898
1109.4	8888
1111.722	8882
1114.044	8876
1116.365	8855
1118.685	8860
1121.005	8927
1123.324	8946
1125.643	8909
1127.961	8831
1130.278	9032
1132.595	8828
1134.911	8955
1137.226	8893
1139.541	8915
1141.854	8930
1144.167	8911
1146.482	9026
1148.793	8868
1151.105	8903
1153.414	8887
1155.725	8951
1158.033	9004
1160.344	8802
1162.651	8940
1164.959	8968
1167.265	8883
1169.572	8862
1171.878	8954
1174.184	8924
1176.488	8882
1178.79	8963
1181.094	8922
1183.396	8924
1185.699	8900
1188.001	8920
1190.301	8811
1192.6	9007
1194.9	8810
1197.2	9019
1199.497	8930
1201.794	8867
1204.09	8884
1206.387	8844
1208.684	9035
1210.978	8990
1213.272	8941
1215.565	9004
1217.858	9064
1220.15	9000
1222.443	8912
1224.734	8914
1227.024	9099
1229.313	9021
1231.602	9087
1233.892	9097
1236.18	9238
1238.467	9274
1240.754	9102
1243.04	9126
1245.325	9272
1247.612	9160
1249.896	9240
1252.178	9282
1254.461	9143
1256.743	9227
1259.027	9258
1261.308	9291
1263.587	9159
1265.867	9156
1268.146	9197
1270.425	9284
1272.703	9300
1274.981	9307
1277.256	9194
1279.532	9232
1281.808	9162
1284.083	9230
1286.358	9241
1288.63	9117
1290.904	9101
1293.175	9173
1295.449	9083
1297.719	9158
1299.99	9232
1302.259	9061
1304.529	9126
1306.798	9198
1309.065	9092
1311.333	9215
1313.599	9210
1315.866	9115
1318.131	9135
1320.396	9206
1322.66	9241
1324.925	9082
1327.187	9093
1329.448	9149
1331.711	9206
1333.974	9189
1336.234	9058
1338.493	9161
1340.752	9126
1343.01	9116
1345.269	9244
1347.526	9235
1349.784	9227
1352.04	9204
1354.295	9156
1356.552	9066
1358.806	9046
1361.059	9276
1363.312	9113
1365.564	9113
1367.818	9101
1370.069	9211
1372.318	9280
1374.568	9299
1376.817	9334
1379.066	9331
1381.316	9197
1383.564	9249
1385.809	9339
1388.056	9422
1390.301	9332
1392.549	9231
1394.793	9383
1397.036	9408
1399.279	9435
1401.522	9292
1403.763	9537
1406.007	9466
1408.248	9476
1410.487	9219
1412.727	9384
1414.965	9393
1417.205	9441
1419.442	9380
1421.68	9366
1423.915	9366
1426.152	9572
1428.388	9475
1430.623	9270
1432.857	9479
1435.091	9461
1437.323	9488
1439.556	9637
1441.789	9589
1444.019	9556
1446.25	9464
1448.48	9575
1450.708	9546
1452.938	9608
1455.167	9474
1457.394	9515
1459.62	9484
1461.846	9546
1464.073	9575
1466.299	9558
1468.523	9534
1470.746	9416
1472.969	9495
1475.191	9423
1477.415	9435
1479.636	9353
1481.858	9188
1484.078	9299
1486.298	9243
1488.518	9298
1490.736	9214
1492.954	9168
1495.169	9202
1497.386	9244
1499.602	9276
1501.819	9355
1504.034	9179
1506.248	9169
1508.462	9147
1510.675	9283
1512.888	9236
1515.1	9301
1517.311	9227
1519.522	9040
1521.732	9148
1523.942	9241
1526.151	9031
1528.36	9224
1530.566	9216
1532.773	9082
1534.98	9174
1537.187	9247
1539.392	9134
1541.596	9395
1543.801	9252
1546.005	9305
1548.208	9322
1550.411	9272
1552.612	9300
1554.814	9376
1557.013	9326
1559.212	9299
1561.414	9314
1563.612	9423
1565.811	9249
1568.007	9420
1570.203	9550
1572.403	9322
1574.598	9368
1576.792	9429
1578.988	9509
1581.181	9370
1583.376	9497
1585.568	9470
1587.761	9499
1589.952	9484
1592.143	9637
1594.333	9390
1596.524	9461
1598.715	9486
1600.903	9451
1603.091	9545
1605.278	9606
1607.466	9495
1609.652	9559
1611.838	9504
1614.023	9537
1616.207	9454
1618.391	9467
1620.576	9450
1622.759	9489
1624.941	9520
1627.123	9539
1629.304	9618
1631.484	9584
1633.664	9550
1635.844	9604
1638.022	9599
1640.201	9564
1642.38	9622
1644.556	9654
1646.732	9653
1648.908	9611
1651.084	9645
1653.257	9623
1655.433	9488
1657.607	9580
1659.779	9773
1661.951	9587
1664.122	9625
1666.295	9625
1668.467	9757
1670.635	9648
1672.805	9709
1674.973	9589
1677.142	9579
1679.31	9684
1681.478	9590
1683.644	9546
1685.81	9650
1687.975	9765
1690.142	9748
1692.305	9619
1694.468	9618
1696.632	9540
1698.794	9441
1700.957	9527
1703.119	9627
1705.279	9572
1707.439	9537
1709.598	9694
1711.758	9462
1713.917	9482
1716.075	9510
1718.231	9608
1720.388	9507
1722.543	9633
1724.702	9469
1726.856	9590
1729.01	9620
1731.164	9468
1733.317	9485
1735.471	9541
1737.623	9407
1739.774	9646
1741.925	9579
1744.075	9391
1746.225	9416
1748.376	9665
1750.524	9617
1752.672	9642
1754.82	9504
1756.965	9557
1759.113	9496
1761.259	9493
1763.405	9704
1765.549	9607
1767.694	9435
1769.836	9699
1771.981	9628
1774.123	9517
1776.264	9529
1778.405	9733
1780.546	9714
1782.687	9528
1784.827	9566
1786.966	9717
1789.103	9607
1791.242	9605
1793.381	9428
1795.517	9628
1797.653	9524
1799.788	9684
1801.923	9577
1804.057	9626
1806.193	9594
1808.326	9610
1810.457	9542
1812.59	9578
1814.721	9420
1816.855	9609
1818.984	9611
1821.113	9694
1823.244	9587
1825.372	9622
1827.499	9577
1829.63	9547
1831.756	9510
1833.882	9597
1836.007	9549
1838.132	9586
1840.26	9623
1842.384	9438
1844.507	9407
1846.63	9576
1848.752	9503
1850.875	9528
1852.996	9391
1855.118	9504
1857.238	9559
1859.358	9556
1861.477	9508
1863.597	9609
1865.715	9608
1867.832	9538
1869.948	9550
1872.064	9470
1874.181	9629
1876.297	9509
1878.411	9404
1880.526	9633
1882.639	9426
1884.752	9504
1886.865	9586
1888.977	9624
1891.089	9719
1893.2	9541
1895.308	9599
1897.42	9667
1899.53	9643
1901.639	9743
1903.745	9592
1905.853	9646
1907.962	9658
1910.067	9559
1912.174	9396
1914.278	9595
1916.383	9651
1918.486	9632
1920.592	9621
1922.694	9824
1924.797	9734
1926.898	9704
1929	9727
1931.102	9689
1933.203	9771
1935.301	9756
1937.401	9710
1939.499	9776
1941.598	9713
1943.697	9691
1945.793	9530
1947.888	9665
1949.985	9704
1952.08	9616
1954.176	9665
1956.269	9699
1958.364	9577
1960.457	9775
1962.549	9659
1964.642	9482
1966.733	9767
1968.823	9571
1970.913	9572
1973.005	9532
1975.093	9605
1977.184	9614
1979.271	9431
1981.359	9539
1983.446	9506
1985.532	9606
1987.619	9541
1989.705	9520
1991.789	9628
1993.874	9635
1995.956	9519
1998.041	9583
2000.123	9493
2002.206	9542
2004.287	9543
2006.368	9422
2008.449	9590
2010.529	9548
2012.609	9548
2014.688	9449
2016.766	9473
2018.843	9566
2020.922	9545
2022.999	9514
2025.074	9584
2027.15	9545
2029.225	9473
2031.299	9655
2033.375	9505
2035.447	9548
2037.52	9482
2039.592	9519
2041.664	9455
2043.736	9521
2045.807	9628
2047.876	9496
2049.947	9479
2052.015	9405
2054.086	9597
2056.153	9584
2058.221	9538
2060.288	9544
2062.353	9568
2064.42	9374
2066.486	9569
2068.55	9541
2070.614	9534
2072.678	9676
2074.741	9476
2076.805	9509
2078.866	9540
2080.929	9589
2082.99	9544
2085.049	9540
2087.109	9754
2089.17	9544
2091.228	9530
2093.286	9428
2095.344	9692
2097.4	9601
2099.46	9520
2101.516	9478
2103.572	9507
2105.626	9604
2107.679	9337
2109.735	9541
2111.788	9532
2113.841	9517
2115.894	9560
2117.945	9676
2119.997	9510
2122.049	9457
2124.1	9563
2126.148	9473
2128.197	9542
2130.246	9451
2132.296	9351
2134.342	9417
2136.39	9501
2138.437	9565
2140.483	9596
2142.527	9520
2144.574	9500
2146.619	9405
2148.661	9422
2150.705	9461
2152.747	9597
2154.792	9475
2156.832	9386
2158.874	9529
2160.915	9320
2162.954	9434
2164.995	9346
2167.034	9517
2169.072	9215
2171.111	9520
2173.148	9325
2175.186	9539
2177.223	9358
2179.258	9293
2181.294	9416
2183.328	9399
2185.362	9282
2187.398	9319
2189.431	9359
2191.463	9302
2193.495	9353
2195.528	9403
2197.56	9253
2199.59	9390
2201.62	9292
2203.649	9100
2205.678	9141
2207.708	9263
2209.737	9122
2211.764	9363
2213.791	9101
2215.817	9264
2217.843	9263
2219.87	9267
2221.895	9266
2223.919	9211
2225.942	9156
2227.966	9261
2229.988	9271
2232.012	9151
2234.032	9277
2236.054	9214
2238.074	9276
2240.095	9241
2242.116	9195
2244.135	9233
2246.153	9190
2248.171	9244
2250.188	9099
2252.208	9038
2254.223	9035
2256.239	9266
2258.255	9224
2260.269	9412
2262.283	9145
2264.3	9137
2266.312	9219
2268.325	9167
2270.336	9133
2272.349	9239
2274.362	9331
2276.372	9258
2278.383	9250
2280.392	9218
2282.402	9265
2284.409	9219
2286.418	9337
2288.427	9117
2290.433	9212
2292.441	9226
2294.446	9114
2296.453	9193
2298.459	9114
2300.463	9251
2302.466	9221
2304.471	9284
2306.475	9189
2308.477	9200
2310.478	9180
2312.481	9295
2314.481	9159
2316.481	9158
2318.482	9057
2320.482	9108
2322.48	9142
2324.48	9150
2326.478	9077
2328.476	9189
2330.473	9049
2332.469	9030
2334.465	9088
2336.46	9125
2338.454	8991
2340.45	9095
2342.444	8989
2344.437	8994
2346.43	8984
2348.421	8891
2350.414	8889
2352.405	8972
2354.396	8886
2356.386	9002
2358.376	9043
2360.366	8956
2362.355	9027
2364.343	9100
2366.331	9034
2368.317	8959
2370.304	8948
2372.292	9006
2374.278	9005
2376.262	8960
2378.247	8946
2380.23	8896
2382.216	8937
2384.199	8894
2386.181	8988
2388.163	8926
2390.144	8922
2392.127	8823
2394.107	8798
2396.087	8843
2398.066	8898
2400.046	8785
2402.023	8675
2404.004	8878
2405.981	8812
2407.957	8776
2409.934	8742
2411.91	8791
2413.886	8717
2415.862	8843
2417.836	8834
2419.809	8872
2421.784	8897
2423.756	8801
2425.73	8749
2427.701	8741
2429.672	8920
2431.644	8847
2433.615	8853
2435.586	8881
2437.555	8680
2439.523	8775
2441.491	8740
2443.459	8817
2445.428	8849
2447.395	8789
2449.361	8900
2451.327	8858
2453.292	8845
2455.257	8808
2457.223	8646
2459.187	8812
2461.15	8750
2463.113	8717
2465.076	8770
2467.039	8798
2468.999	8810
2470.96	8548
2472.921	8666
2474.881	8780
2476.841	8678
2478.8	8695
2480.759	8742
2482.717	8695
2484.675	8761
2486.63	8562
2488.589	8652
2490.545	8781
2492.5	8641
2494.455	8613
2496.408	8747
2498.364	8780
2500.318	8607
2502.27	8602
2504.223	8591
2506.174	8719
2508.126	8748
2510.078	8670
2512.03	8597
2513.979	8641
2515.927	8491
2517.877	8749
2519.826	8513
2521.775	8635
2523.722	8590
2525.668	8685
2527.616	8507
2529.561	8676
2531.508	8501
2533.452	8567
2535.398	8558
2537.342	8459
2539.284	8550
2541.229	8562
2543.173	8633
2545.114	8570
2547.055	8603
2548.996	8669
2550.938	8546
2552.878	8676
2554.817	8484
2556.756	8565
2558.695	8598
2560.633	8536
2562.572	8616
2564.509	8542
2566.445	8532
2568.382	8519
2570.317	8580
2572.254	8513
2574.189	8648
2576.123	8504
2578.057	8536
2579.99	8555
2581.923	8528
2583.855	8483
2585.788	8486
2587.719	8520
2589.65	8522
2591.579	8584
2593.511	8571
2595.44	8531
2597.37	8352
2599.297	8591
2601.225	8548
2603.153	8647
2605.08	8421
2607.007	8543
2608.932	8516
2610.858	8554
2612.782	8590
2614.709	8656
2616.632	8596
2618.556	8609
2620.478	8558
2622.401	8623
2624.324	8488
2626.247	8468
2628.167	8550
2630.088	8500
2632.008	8603
2633.928	8494
2635.848	8485
2637.766	8488
2639.684	8591
2641.603	8644
2643.519	8507
2645.437	8625
2647.353	8409
2649.27	8410
2651.184	8671
2653.099	8561
2655.014	8513
2656.928	8509
2658.842	8582
2660.755	8595
2662.667	8592
2664.579	8491
2666.491	8620
2668.402	8451
2670.312	8638
2672.222	8486
2674.132	8622
2676.042	8439
2677.951	8444
2679.859	8478
2681.766	8511
2683.674	8465
2685.582	8434
2687.488	8326
2689.392	8462
2691.298	8346
2693.202	8405
2695.107	8322
2697.012	8421
2698.914	8503
2700.817	8362
2702.72	8564
2704.622	8433
2706.524	8352
2708.425	8279
2710.326	8366
2712.225	8384
2714.125	8314
2716.024	8405
2717.923	8250
2719.822	8418
2721.719	8371
2723.616	8286
2725.512	8257
2727.41	8349
2729.305	8256
2731.201	8250
2733.095	8338
2734.99	8329
2736.884	8238
2738.778	8310
2740.67	8304
2742.562	8323
2744.455	8284
2746.346	8269
2748.238	8358
2750.129	8306
2752.018	8139
2753.907	8268
2755.797	8257
2757.687	8374
2759.575	8236
2761.462	8258
2763.349	8188
2765.237	8248
2767.124	8326
2769.009	8227
2770.894	8349
2772.779	8237
2774.663	8317
2776.547	8221
2778.431	8206
2780.314	8275
2782.197	8310
2784.078	8184
2785.96	8300
2787.842	8171
2789.723	8222
2791.603	8140
2793.483	8125
2795.362	8160
2797.241	8174
2799.121	8137
2800.997	8186
2802.874	8178
2804.751	8140
2806.628	8138
2808.506	8020
2810.38	8171
2812.255	8152
2814.13	8243
2816.003	8151
2817.878	8052
2819.752	8202
2821.623	8206
2823.496	8148
2825.368	8104
2827.238	8079
2829.111	8180
2830.98	7985
2832.851	7930
2834.719	8076
2836.589	8150
2838.458	8162
2840.327	8030
2842.193	8049
2844.061	8054
2845.927	8042
2847.794	8108
2849.66	7994
2851.525	8153
2853.39	8152
2855.254	8050
2857.117	8198
2858.983	8290
2860.845	8109
2862.707	8081
2864.569	8303
2866.431	8213
2868.293	8320
2870.154	8196
2872.013	8468
2873.873	8287
2875.733	8285
2877.592	8386
2879.451	8484
2881.309	8579
2883.166	8486
2885.022	8467
2886.879	8615
2888.736	8474
2890.591	8613
2892.446	8425
2894.301	8619
2896.155	8673
2898.009	8442
2899.863	8594
2901.716	8478
2903.568	8481
2905.419	8490
2907.27	8502
2909.123	8503
2910.973	8518
2912.824	8556
2914.673	8468
2916.521	8526
2918.372	8699
2920.22	8637
2922.067	8770
2923.914	8756
2925.761	8817
2927.607	8859
2929.455	8861
2931.301	8912
2933.144	9048
2934.99	9144
2936.833	8919
2938.678	9208
2940.522	9180
2942.364	9188
2944.207	9249
2946.048	9297
2947.891	9367
2949.731	9116
2951.571	9422
2953.412	9323
2955.25	8983
2957.09	9184
2958.93	8963
2960.767	9093
2962.606	8962
2964.443	8778
2966.279	8835
2968.116	8780
2969.953	8764
2971.788	8712
2973.623	8514
2975.457	8669
2977.292	8556
2979.127	8590
2980.959	8572
2982.792	8484
2984.624	8298
2986.455	8418
2988.288	8330
2990.119	8264
2991.949	8364
2993.779	8347
2995.608	8272
2997.439	8224
2999.268	8210
3001.096	8090
3002.923	8219
3004.751	8043
3006.578	8037
3008.406	8027
3010.232	8003
3012.057	8040
3013.883	7833
3015.706	7871
3017.532	7740
3019.356	7808
3021.179	7809
3023.002	7886
3024.823	7717
3026.646	7727
3028.469	7737
3030.289	7740
3032.11	7634
3033.93	7636
3035.749	7617
3037.57	7706
3039.39	7577
3041.207	7663
3043.026	7681
3044.842	7634
3046.661	7488
3048.477	7564
3050.294	7688
3052.109	7713
3053.925	7623
3055.739	7411
3057.555	7720
3059.368	7477
3061.181	7608
3062.995	7510
3064.807	7551
3066.62	7613
3068.433	7551
3070.243	7608
3072.054	7514
3073.865	7408
3075.675	7517
3077.485	7522
3079.293	7384
3081.102	7415
3082.911	7415
3084.719	7493
3086.527	7431
3088.333	7456
3090.139	7463
3091.945	7414
3093.75	7422
3095.557	7336
3097.361	7306
3099.165	7413
3100.969	7305
3102.772	7383
3104.575	7260
3106.379	7371
3108.181	7229
3109.982	7273
3111.783	7440
3113.584	7504
3115.386	7225
3117.186	7350
3118.985	7277
3120.783	7249
3122.582	7433
3124.381	7258
3126.179	7333
3127.975	7213
3129.772	7226
3131.569	7179
3133.365	7253
3135.161	7102
3136.956	7191
3138.751	7113
3140.544	7060
3142.338	7115
3144.132	7117
3145.925	7214
3147.717	7279
3149.509	7105
3151.301	7137
3153.091	7231
3154.884	7151
3156.673	7074
3158.462	7178
3160.252	7115
3162.041	7021
3163.831	7092
3165.618	7094
3167.405	7082
3169.193	7131
3170.979	7132
3172.767	7131
3174.553	7147
3176.338	7089
3178.123	7040
3179.907	6962
3181.692	7068
3183.477	7092
3185.259	7055
3187.042	6991
3188.824	7078
3190.607	6986
3192.389	6995
3194.17	7009
3195.951	6948
3197.73	6970
3199.51	6931
3201.289	7020
3203.07	7139
3204.848	6908
3206.626	6909
3208.403	7096
3210.18	6901
3211.959	7032
3213.735	7077
3215.511	7058
3217.285	6965
3219.06	6880
3220.836	7023
3222.611	6947
3224.384	6973
3226.158	7018
3227.929	6899
3229.702	6992
3231.476	6834
3233.248	6929
3235.018	6951
3236.789	6830
3238.56	6914
3240.33	6863
3242.1	6877
3243.869	7049
3245.637	6983
3247.405	6864
3249.172	6961
3250.941	6878
3252.707	6901
3254.474	6980
3256.24	6862
3258.006	6827
3259.772	6933
3261.537	7027
3263.301	6806
3265.065	6966
3266.828	6937
3268.592	6829
3270.355	6907
3272.117	6908
3273.878	6931
3275.64	6928
3277.401	6853
3279.162	7008
3280.922	6815
3282.682	6946
3284.441	6896
3286.199	6950
3287.959	6937
3289.716	6798
3291.475	6982
3293.232	6922
3294.988	6789
3296.744	6799
3298.501	6919
3300.256	6884
3302.011	6856
3303.766	6817
3305.52	6798
3307.275	6844
3309.028	6700
3310.781	6799
3312.533	6830
3314.285	6976
3316.038	6793
3317.789	6781
3319.54	6752
3321.289	6909
3323.039	6847
3324.789	6759
3326.539	6755
3328.288	6773
3330.035	6773
3331.783	6755
3333.531	6742
3335.28	6721
3337.025	6740
3338.771	6652
3340.518	6778
3342.262	6751
3344.009	6673
3345.753	6832
3347.497	6600
3349.24	6681
3350.983	6615
3352.726	6716
3354.469	6633
3356.212	6692
3357.952	6760
3359.694	6708
3361.434	6678
3363.176	6595
3364.916	6813
3366.654	6693
3368.394	6586
3370.132	6657
3371.871	6690
3373.61	6630
3375.346	6626
3377.083	6589
3378.82	6606
3380.556	6597
3382.292	6628
3384.027	6605
3385.763	6496
3387.497	6560
3389.231	6665
3390.965	6675
3392.698	6550
3394.431	6530
3396.164	6533
3397.896	6619
3399.627	6554
3401.36	6569
3403.09	6629
3404.82	6591
3406.55	6611
3408.279	6463
3410.01	6529
3411.738	6510
3413.467	6467
3415.194	6616
3416.92	6499
3418.647	6475
3420.375	6529
3422.102	6551
3423.827	6502
3425.553	6638
3427.277	6549
3429.003	6516
3430.727	6485
3432.451	6447
3434.173	6340
3435.896	6521
3437.62	6467
3439.343	6486
3441.063	6461
3442.785	6306
3444.505	6370
3446.226	6392
3447.948	6357
3449.666	6289
3451.386	6332
3453.104	6377
3454.823	6375
3456.541	6311
3458.259	6265
3459.976	6352
3461.693	6208
3463.408	6353
3465.125	6190
3466.841	6377
3468.556	6252
3470.271	6295
3471.985	6273
3473.698	6150
3475.414	6112
3477.126	6302
3478.838	6190
3480.55	6231
3482.263	6209
3483.975	6338
3485.686	6177
3487.396	6126
3489.106	6288
3490.817	6105
3492.526	6043
3494.236	6155
3495.944	6073
3497.652	6135
3499.359	6178
3501.066	6092
3502.775	6084
3504.481	6026
3506.187	6021
3507.893	6042
3509.598	6082
3511.304	6118
3513.009	6059
3514.713	5976
3516.417	6001
3518.12	6108
3519.821	6120
3521.525	6129
3523.228	6064
3524.929	6072
3526.631	5948
3528.33	6007
3530.032	5983
3531.733	5961
3533.433	5861
3535.131	5927
3536.83	5916
3538.529	5986
3540.227	5918
3541.925	5946
3543.623	5977
3545.319	5996
3547.016	5997
3548.712	6018
3550.408	6062
3552.103	5999
3553.798	5842
3555.491	5881
3557.188	5946
3558.88	5835
3560.574	5873
3562.266	5972
3563.959	5867
3565.651	5945
3567.343	5899
3569.035	5902
3570.725	5980
3572.415	5829
3574.106	5862
3575.797	5855
3577.485	5848
3579.174	5851
3580.863	5766
3582.551	5773
3584.238	5801
3585.926	5770
3587.613	5781
3589.3	5800
3590.986	5634
3592.671	5771
3594.357	5788
3596.042	5711
3597.726	5756
3599.41	5717
3601.094	5643
3602.778	5706
3604.461	5700
3606.143	5652
3607.825	5735
3609.507	5575
3611.188	5600
3612.87	5561
3614.551	5596
3616.229	5580
3617.909	5515
3619.589	5638
3621.269	5648
3622.948	5578
3624.625	5583
3626.302	5531
3627.98	5498
3629.657	5560
3631.334	5549
3633.01	5530
3634.686	5570
3636.361	5450
3638.036	5497
3639.712	5491
3641.385	5552
3643.06	5565
3644.732	5445
3646.405	5462
3648.08	5472
3649.751	5490
3651.424	5413
3653.094	5466
3654.766	5452
3656.436	5512
3658.106	5427
3659.777	5363
3661.446	5478
3663.115	5441
3664.783	5498
3666.452	5484
3668.121	5439
3669.788	5448
3671.454	5489
3673.121	5391
3674.789	5491
3676.455	5384
3678.12	5383
3679.784	5299
3681.45	5380
3683.114	5383
3684.779	5438
3686.442	5369
3688.105	5397
3689.768	5353
3691.43	5436
3693.093	5360
3694.754	5302
3696.415	5339
3698.076	5356
3699.736	5302
3701.396	5340
3703.057	5354
3704.716	5306
3706.375	5371
3708.034	5414
3709.692	5210
3711.351	5325
3713.008	5327
3714.665	5278
3716.321	5324
3717.977	5232
3719.634	5351
3721.29	5247
3722.945	5250
3724.598	5207
3726.253	5310
3727.907	5291
3729.561	5243
3731.214	5281
3732.867	5264
3734.518	5202
3736.171	5207
3737.824	5208
3739.474	5088
3741.125	5247
3742.775	5179
3744.425	5273
3746.074	5157
3747.725	5197
3749.373	5245
3751.022	5196
3752.669	5087
3754.318	5182
3755.966	5150
3757.612	5156
3759.259	5170
3760.905	5151
3762.55	5167
3764.197	5072
3765.842	5218
3767.486	5119
3769.131	5163
3770.774	5118
3772.417	5063
3774.061	5127
3775.705	5062
3777.347	5121
3778.988	5120
3780.629	5237
3782.271	5086
3783.912	5107
3785.552	5112
3787.192	5041
3788.831	4994
3790.472	5051
3792.112	5091
3793.75	4967
3795.388	5021
3797.024	5026
3798.661	5049
3800.3	4963
3801.936	5079
3803.572	5041
3805.208	4997
3806.844	5023
3808.48	4992
3810.115	5008
3811.748	4878
3813.382	4943
3815.016	4958
3816.649	4895
3818.283	4877
3819.914	4920
3821.547	4956
3823.178	4884
3824.809	4926
3826.441	4845
3828.072	4924
3829.701	4911
3831.331	4974
3832.96	4870
3834.591	4913
3836.219	5020
3837.847	4927
3839.475	4790
3841.102	4781
3842.729	4824
3844.357	4861
3845.984	4854
3847.609	4885
3849.234	4782
3850.86	4816
3852.485	4835
3854.11	4779
3855.734	4852
3857.357	4815
3858.981	4847
3860.603	4872
3862.227	4877
3863.848	4890
3865.471	4781
3867.092	4866
3868.713	4761
3870.334	4735
3871.954	4680
3873.575	4763
3875.194	4701
3876.813	4679
3878.433	4801
3880.051	4775
3881.669	4810
3883.286	4841
3884.904	4724
3886.52	4745
3888.138	4788
3889.754	4753
3891.37	4671
3892.985	4635
3894.6	4715
3896.216	4762
3897.831	4733
3899.444	4759
3901.058	4677
3902.67	4642
3904.283	4705
3905.897	4735
3907.509	4702
3909.121	4699
3910.731	4672
3912.342	4765
3913.954	4744
3915.563	4673
3917.174	4649
3918.783	4734
3920.391	4698
3922.002	4647
3923.611	4723
3925.218	4720
3926.826	4729
3928.432	4661
3930.039	4609
3931.647	4608
3933.253	4650
3934.859	4671
3936.464	4645
3938.068	4586
3939.675	4691
3941.278	4605
3942.883	4542
3944.486	4661
3946.089	4688
3947.692	4529
3949.295	4690
3950.898	4647
3952.499	4586
3954.1	4611
3955.7	4589
3957.303	4608
3958.903	4547
3960.502	4501
3962.101	4616
3963.7	4607
3965.301	4544
3966.899	4608
3968.497	4554
3970.094	4589
3971.691	4574
3973.288	4446
3974.885	4545
3976.481	4416
3978.077	4477
3979.672	4465
3981.267	4502
3982.863	4531
3984.457	4456
3986.051	4441
3987.645	4410
3989.238	4449
3990.831	4534
3992.425	4386
3994.017	4472
3995.607	4518
3997.199	4477
3998.79	4455
4000.382	4345
4001.973	4372
4003.561	4465
4005.151	4408
4006.741	4356
4008.331	4433
4009.918	4321
4011.507	4447
4013.095	4356
4014.681	4408
4016.269	4372
4017.856	4350
4019.443	4281
4021.028	4359
4022.614	4297
4024.199	4416
4025.785	4269
4027.37	4359
4028.953	4371
4030.536	4325
4032.12	4322
4033.704	4328
4035.287	4289
4036.869	4398
4038.45	4324
4040.032	4278
4041.613	4211
4043.195	4226
4044.776	4177
4046.356	4243
4047.935	4185
4049.515	4213
4051.095	4131
4052.674	4215
4054.251	4272
4055.829	4231
4057.406	4240
4058.985	4201
4060.562	4281
4062.139	4166
4063.715	4242
4065.29	4204
4066.865	4211
4068.442	4170
4070.016	4191
4071.59	4222
4073.164	4228
4074.738	4207
4076.312	4153
4077.885	4137
4079.458	4160
4081.03	4189
4082.602	4121
4084.173	4155
4085.745	4216
4087.315	4154
4088.886	4147
4090.456	4069
4092.026	4187
4093.596	4226
4095.165	4184
4096.734	4087
4098.301	4164
4099.869	4088
4101.437	4146
4103.006	4018
4104.572	4161
4106.139	4033
4107.704	4128
4109.27	4043
4110.837	4042
4112.401	4152
4113.966	4087
4115.53	4012
4117.094	4049
4118.659	4140
4120.223	4008
4121.785	4042
4123.347	4049
4124.909	4079
4126.471	4029
4128.034	4074
4129.595	4134
4131.155	4031
4132.716	4013
4134.275	4017
4135.836	4020
4137.395	3974
4138.955	3948
4140.513	4008
4142.071	3965
4143.628	3955
4145.188	3946
4146.745	4014
4148.302	3986
4149.858	3875
4151.414	3932
4152.971	4020
4154.526	3951
4156.081	3894
4157.635	3947
4159.189	3902
4160.745	3930
4162.298	3920
4163.852	3930
4165.405	3817
4166.957	3938
4168.51	3911
4170.063	3917
4171.614	3871
4173.166	3866
4174.717	3814
4176.267	3878
4177.817	3876
4179.368	3880
4180.917	3894
4182.466	3860
4184.016	3791
4185.564	3875
4187.112	3880
4188.66	3827
4190.207	3857
4191.754	3774
4193.301	3808
4194.848	3791
4196.394	3837
4197.94	3869
4199.484	3801
4201.03	3884
4202.575	3764
4204.12	3776
4205.663	3737
4207.207	3736
4208.75	3790
4210.292	3780
4211.836	3787
4213.378	3756
4214.92	3757
4216.46	3746
4218.002	3713
4219.544	3763
4221.083	3746
4222.625	3867
4224.164	3754
4225.703	3674
4227.244	3692
4228.782	3663
4230.32	3781
4231.857	3757
4233.395	3685
4234.933	3702
4236.471	3728
4238.007	3707
4239.542	3701
4241.078	3653
4242.614	3708
4244.15	3709
4245.685	3747
4247.219	3702
4248.753	3607
4250.287	3689
4251.82	3660
4253.354	3633
4254.887	3612
4256.419	3750
4257.951	3709
4259.483	3648
4261.016	3685
4262.547	3647
4264.078	3681
4265.608	3689
4267.137	3651
4268.668	3662
4270.197	3635
4271.727	3626
4273.254	3693
4274.783	3679
4276.311	3538
4277.84	3584
4279.366	3632
4280.894	3574
4282.42	3617
4283.946	3609
4285.473	3607
4286.998	3595
4288.523	3615
4290.047	3643
4291.572	3534
4293.096	3595
4294.622	3577
4296.144	3589
4297.668	3530
4299.19	3587
4300.713	3522
4302.236	3648
4303.758	3581
4305.279	3526
4306.799	3548
4308.321	3576
4309.842	3546
4311.361	3533
4312.882	3552
4314.401	3442
