400.0961	5288
402.6185	5308
405.1424	5366
407.6635	5284
410.1838	5374
412.7035	5309
415.2225	5354
417.7388	5373
420.2585	5435
422.7754	5513
425.2917	5523
427.8072	5498
430.3221	5575
432.8363	5655
435.3498	5704
437.8626	5685
440.3727	5765
442.8841	5652
445.3969	5743
447.907	5761
450.4142	5714
452.9229	5719
455.4289	5622
457.9362	5636
460.4449	5605
462.9488	5600
465.454	5527
467.9566	5672
470.4604	5624
472.9637	5529
475.4662	5668
477.966	5674
480.4671	5671
482.9656	5646
485.4633	5742
487.9645	5751
490.4608	5734
492.9566	5836
495.4536	5771
497.948	5808
500.4437	5737
502.9387	5758
505.431	5839
507.9226	5857
510.4136	5795
512.9079	5772
515.3975	5843
517.8864	5796
520.3746	5763
522.8622	5854
525.3491	5834
527.8394	5855
530.3249	5840
532.8098	5867
535.2939	5846
537.7774	5854
540.2623	6013
542.7444	5891
545.2259	5897
547.7067	5960
550.1868	5924
552.6683	6009
555.147	5798
557.6231	5942
560.1005	5978
562.5773	5945
565.0534	5974
567.5308	5997
570.0056	5958
572.4776	5999
574.951	6159
577.4237	6134
579.8978	6024
582.3671	6086
584.8378	6081
587.3079	6042
589.7773	6158
592.244	6101
594.714	6117
597.1793	6075
599.6461	6036
602.1121	6145
604.5754	6044
607.0421	6045
609.5042	6062
611.9675	6056
614.4282	6058
616.8902	6161
619.3515	6008
621.8122	6075
624.2702	6054
626.7296	6059
629.1863	6078
631.6423	5967
634.1017	6039
636.5563	6009
639.0104	6068
641.4658	6142
643.9185	6130
646.3725	6108
648.8239	6124
651.2766	6080
653.7266	6121
656.176	6192
658.6247	6147
661.0748	6217
663.5242	6167
665.9709	6256
668.417	6220
670.8624	6181
673.3092	6303
675.7533	6320
678.1968	6231
680.6395	6174
683.0817	6150
685.5251	6233
687.9659	6255
690.4061	6458
692.8456	6216
695.2844	6325
697.7226	6347
700.1621	6302
702.599	6557
705.0332	6342
707.4688	6379
709.9036	6355
712.3399	6422
714.7735	6337
717.2044	6369
719.6367	6471
722.0683	6468
724.4993	6375
726.9296	6529
729.3593	6515
731.7883	6550
734.2147	6520
736.6423	6467
739.0714	6513
741.4958	6561
743.9216	6668
746.3447	6488
748.7691	6650
751.1929	6665
753.616	6656
756.0366	6728
758.4584	6664
760.8776	6800
763.2982	6807
765.718	6697
768.1373	6768
770.5539	6815
772.9698	6754
775.3871	6843
777.8038	6736
780.2178	6728
782.6332	6859
785.0459	6799
787.458	6760
789.8714	6748
792.2842	6693
794.6943	6707
797.1038	6823
799.5127	6769
801.9209	6779
804.3324	6654
806.7393	6874
809.1456	6782
811.5513	6800
813.9562	6829
816.3625	6798
818.7663	6913
821.1693	6886
823.5718	6921
825.9735	6927
828.3746	6757
830.7771	6836
833.177	6949
835.5762	6904
837.9747	6865
840.3727	6913
842.772	6994
845.1666	6982
847.5626	7066
849.958	7119
852.3527	7089
854.7488	7069
857.1403	7199
859.5331	7108
861.9253	7138
864.3168	7119
866.7057	6951
869.098	7053
871.4876	6989
873.8746	7021
876.263	7013
878.6487	7119
881.0378	7004
883.4243	7007
885.8081	7000
888.1933	7044
890.5759	6971
892.9598	6886
895.343	6952
897.7256	6949
900.1057	7083
902.4871	7034
904.8659	7053
907.246	7045
909.6254	7107
912.0023	7283
914.3786	7265
916.7562	7462
919.1331	7620
921.5074	7479
923.8831	7626
926.2562	7825
928.6287	7708
931.0005	7548
933.3757	7594
935.7462	7426
938.1162	7507
940.4855	7575
942.8542	7547
945.2242	7602
947.5916	7633
949.9584	7791
952.3266	8037
954.6921	8139
957.0571	8347
959.4233	8499
961.787	8601
964.15	8636
966.5125	8493
968.8742	8221
971.2354	7947
973.5959	7852
975.9559	7709
978.3151	7596
980.6738	7500
983.0338	7380
985.3912	7414
987.7461	7359
990.1022	7203
992.4578	7351
994.8127	7377
997.1689	7298
999.5207	7356
1001.874	7345
1004.226	7525
1006.576	7314
1008.929	7411
1011.28	7316
1013.628	7292
1015.977	7235
1018.324	7205
1020.674	7452
1023.019	7411
1025.366	7263
1027.713	7367
1030.056	7361
1032.399	7397
1034.746	7404
1037.087	7328
1039.431	7507
1041.771	7372
1044.113	7426
1046.454	7334
1048.793	7395
1051.133	7510
1053.471	7224
1055.807	7389
1058.146	7394
1060.483	7531
1062.818	7405
1065.153	7518
1067.489	7485
1069.822	7457
1072.156	7503
1074.488	7522
1076.82	7663
1079.15	7577
1081.48	7450
1083.814	7375
1086.143	7521
1088.471	7404
1090.799	7369
1093.126	7470
1095.452	7458
1097.78	7424
1100.105	7438
1102.43	7399
1104.754	7401
1107.077	7406
1109.4	7589
1111.722	7392
1114.044	7469
1116.365	7358
1118.685	7519
1121.005	7512
1123.324	7601
1125.643	7659
1127.961	7543
1130.278	7520
1132.595	7535
1134.911	7401
1137.226	7529
1139.541	7480
1141.854	7409
1144.167	7346
1146.482	7428
1148.793	7626
1151.105	7444
1153.414	7455
1155.725	7513
1158.033	7484
1160.344	7466
1162.651	7396
1164.959	7454
1167.265	7414
1169.572	7568
1171.878	7487
1174.184	7644
1176.488	7656
1178.79	7541
1181.094	7556
1183.396	7612
1185.699	7463
1188.001	7616
1190.301	7522
1192.6	7413
1194.9	7439
1197.2	7502
1199.497	7505
1201.794	7519
1204.09	7533
1206.387	7539
1208.684	7567
1210.978	7413
1213.272	7614
1215.565	7536
1217.858	7427
1220.15	7446
1222.443	7543
1224.734	7581
1227.024	7433
1229.313	7571
1231.602	7661
1233.892	7763
1236.18	7764
1238.467	7720
1240.754	7841
1243.04	7890
1245.325	7924
1247.612	7835
1249.896	7890
1252.178	7765
1254.461	7913
1256.743	7928
1259.027	7822
1261.308	7935
1263.587	7996
1265.867	7931
1268.146	7897
1270.425	7877
1272.703	8014
1274.981	7867
1277.256	7880
1279.532	7937
1281.808	7841
1284.083	7753
1286.358	7769
1288.63	7806
1290.904	7722
1293.175	7741
1295.449	7862
1297.719	7772
1299.99	7695
1302.259	7557
1304.529	7749
1306.798	7764
1309.065	7711
1311.333	7818
1313.599	7787
1315.866	7691
1318.131	7847
1320.396	7758
1322.66	7772
1324.925	7712
1327.187	7816
1329.448	7873
1331.711	7939
1333.974	7887
1336.234	7752
1338.493	7942
1340.752	7764
1343.01	7644
1345.269	7821
1347.526	7787
1349.784	7763
1352.04	7772
1354.295	7867
1356.552	7619
1358.806	7633
1361.059	7614
1363.312	7602
1365.564	7640
1367.818	7888
1370.069	7793
1372.318	7871
1374.568	7764
1376.817	7893
1379.066	7845
1381.316	7897
1383.564	7786
1385.809	7790
1388.056	7774
1390.301	8034
1392.549	8026
1394.793	8132
1397.036	8233
1399.279	8247
1401.522	8205
1403.763	8347
1406.007	8186
1408.248	8269
1410.487	8126
1412.727	8192
1414.965	8199
1417.205	8137
1419.442	8280
1421.68	8225
1423.915	8070
1426.152	8137
1428.388	8129
1430.623	8118
1432.857	8065
1435.091	8235
1437.323	8264
1439.556	8246
1441.789	8232
1444.019	8300
1446.25	8333
1448.48	8223
1450.708	8181
1452.938	8257
1455.167	8294
1457.394	8295
1459.62	8336
1461.846	8306
1464.073	8274
1466.299	8244
1468.523	8137
1470.746	8070
1472.969	8051
1475.191	7997
1477.415	7928
1479.636	7906
1481.858	7891
1484.078	7909
1486.298	7758
1488.518	7838
1490.736	7783
1492.954	7659
1495.169	7744
1497.386	7658
1499.602	7568
1501.819	7643
1504.034	7686
1506.248	7642
1508.462	7618
1510.675	7743
1512.888	7785
1515.1	7777
1517.311	7747
1519.522	7730
1521.732	7664
1523.942	7730
1526.151	7676
1528.36	7530
1530.566	7717
1532.773	7714
1534.98	7709
1537.187	7729
1539.392	7870
1541.596	7715
1543.801	7733
1546.005	7781
1548.208	7795
1550.411	7837
1552.612	7778
1554.814	7789
1557.013	7819
1559.212	7884
1561.414	7802
1563.612	7856
1565.811	7984
1568.007	7866
1570.203	7892
1572.403	7884
1574.598	7786
1576.792	7874
1578.988	7858
1581.181	8043
1583.376	7890
1585.568	7869
1587.761	7868
1589.952	7875
1592.143	7963
1594.333	8008
1596.524	7952
1598.715	8103
1600.903	8074
1603.091	7866
1605.278	8041
1607.466	7996
1609.652	8002
1611.838	8080
1614.023	8018
1616.207	7959
1618.391	8032
1620.576	8023
1622.759	8051
1624.941	8023
1627.123	8065
1629.304	8065
1631.484	8001
1633.664	8134
1635.844	8161
1638.022	8120
1640.201	8121
1642.38	8109
1644.556	8134
1646.732	8218
1648.908	7945
1651.084	8186
1653.257	8071
1655.433	8159
1657.607	8218
1659.779	8101
1661.951	8007
1664.122	8280
1666.295	8290
1668.467	8305
1670.635	8236
1672.805	8267
1674.973	8275
1677.142	8329
1679.31	8181
1681.478	8162
1683.644	8193
1685.81	8085
1687.975	8072
1690.142	8013
1692.305	8058
1694.468	8098
1696.632	8062
1698.794	8047
1700.957	8049
1703.119	8115
1705.279	7999
1707.439	7809
1709.598	7991
1711.758	7780
1713.917	7862
1716.075	8040
1718.231	7934
1720.388	7792
1722.543	8028
1724.702	7973
1726.856	7892
1729.01	7981
1731.164	7800
1733.317	7989
1735.471	7877
1737.623	7911
1739.774	7947
1741.925	7914
1744.075	7919
1746.225	8011
1748.376	7972
1750.524	8078
1752.672	7974
1754.82	7792
1756.965	8018
1759.113	7704
1761.259	8058
1763.405	8011
1765.549	7887
1767.694	8100
1769.836	7946
1771.981	7966
1774.123	8000
1776.264	7917
1778.405	7851
1780.546	8096
1782.687	7992
1784.827	7884
1786.966	7972
1789.103	8024
1791.242	8005
1793.381	7857
1795.517	8025
1797.653	8076
1799.788	7892
1801.923	7953
1804.057	8039
1806.193	8024
1808.326	7963
1810.457	8037
1812.59	7955
1814.721	8021
1816.855	7852
1818.984	8060
1821.113	8028
1823.244	7990
1825.372	7896
1827.499	7934
1829.63	7952
1831.756	7933
1833.882	7985
1836.007	7953
1838.132	7970
1840.26	7917
1842.384	7952
1844.507	7922
1846.63	8011
1848.752	7925
1850.875	7895
1852.996	7953
1855.118	7905
1857.238	7862
1859.358	7886
1861.477	7808
1863.597	7876
1865.715	8018
1867.832	7851
1869.948	7820
1872.064	7984
1874.181	8009
1876.297	7869
1878.411	7864
1880.526	7935
1882.639	7945
1884.752	7920
1886.865	7957
1888.977	7860
1891.089	7861
1893.2	7975
1895.308	7849
1897.42	8117
1899.53	7973
1901.639	8067
1903.745	7911
1905.853	7996
1907.962	7871
1910.067	7938
1912.174	7941
1914.278	7963
1916.383	8042
1918.486	8063
1920.592	8101
1922.694	7910
1924.797	8021
1926.898	7986
1929	7966
1931.102	8073
1933.203	7905
1935.301	8073
1937.401	8105
1939.499	8028
1941.598	8011
1943.697	8101
1945.793	8006
1947.888	8141
1949.985	8086
1952.08	7983
1954.176	8064
1956.269	7867
1958.364	8000
1960.457	8131
1962.549	8010
1964.642	7967
1966.733	8147
1968.823	8106
1970.913	7944
1973.005	8095
1975.093	8013
1977.184	8091
1979.271	8107
1981.359	8054
1983.446	7910
1985.532	7936
1987.619	7946
1989.705	7952
1991.789	7846
1993.874	7966
1995.956	7961
1998.041	7876
2000.123	7998
2002.206	7939
2004.287	7910
2006.368	7823
2008.449	8020
2010.529	7938
2012.609	8021
2014.688	7991
2016.766	7921
2018.843	7964
2020.922	7892
2022.999	7908
2025.074	7811
2027.15	7962
2029.225	7929
2031.299	7971
2033.375	7795
2035.447	7837
2037.52	7965
2039.592	7897
2041.664	7987
2043.736	7858
2045.807	7986
2047.876	7831
2049.947	7960
2052.015	7930
2054.086	7981
2056.153	7902
2058.221	7880
2060.288	7933
2062.353	7940
2064.42	7997
2066.486	7777
2068.55	7826
2070.614	7901
2072.678	7918
2074.741	7836
2076.805	7875
2078.866	7957
2080.929	7970
2082.99	7963
2085.049	7964
2087.109	7873
2089.17	7788
2091.228	7855
2093.286	7849
2095.344	7882
2097.4	7945
2099.46	7833
2101.516	7934
2103.572	7915
2105.626	7965
2107.679	7899
2109.735	7931
2111.788	7943
2113.841	7976
2115.894	7876
2117.945	7825
2119.997	7810
2122.049	7947
2124.1	7887
2126.148	7898
2128.197	8025
2130.246	7981
2132.296	7865
2134.342	8043
2136.39	7881
2138.437	7953
2140.483	7881
2142.527	7898
2144.574	7859
2146.619	7921
2148.661	7934
2150.705	7826
2152.747	7820
2154.792	7799
2156.832	7765
2158.874	7786
2160.915	7727
2162.954	7937
2164.995	7788
2167.034	7838
2169.072	7923
2171.111	7866
2173.148	7761
2175.186	7823
2177.223	7741
2179.258	7784
2181.294	7666
2183.328	7795
2185.362	7759
2187.398	7737
2189.431	7687
2191.463	7774
2193.495	7670
2195.528	7763
2197.56	7775
2199.59	7799
2201.62	7603
2203.649	7746
2205.678	7636
2207.708	7612
2209.737	7676
2211.764	7632
2213.791	7638
2215.817	7626
2217.843	7625
2219.87	7649
2221.895	7556
2223.919	7812
2225.942	7741
2227.966	7790
2229.988	7696
2232.012	7518
2234.032	7730
2236.054	7599
2238.074	7525
2240.095	7519
2242.116	7618
2244.135	7698
2246.153	7713
2248.171	7606
2250.188	7617
2252.208	7513
2254.223	7553
2256.239	7730
2258.255	7743
2260.269	7632
2262.283	7620
2264.3	7579
2266.312	7652
2268.325	7528
2270.336	7669
2272.349	7669
2274.362	7674
2276.372	7644
2278.383	7639
2280.392	7663
2282.402	7647
2284.409	7687
2286.418	7632
2288.427	7560
2290.433	7676
2292.441	7672
2294.446	7552
2296.453	7585
2298.459	7570
2300.463	7530
2302.466	7627
2304.471	7594
2306.475	7607
2308.477	7633
2310.478	7644
2312.481	7662
2314.481	7604
2316.481	7607
2318.482	7525
2320.482	7527
2322.48	7496
2324.48	7524
2326.478	7595
2328.476	7561
2330.473	7580
2332.469	7539
2334.465	7500
2336.46	7567
2338.454	7434
2340.45	7606
2342.444	7499
2344.437	7455
2346.43	7558
2348.421	7444
2350.414	7450
2352.405	7431
2354.396	7541
2356.386	7455
2358.376	7393
2360.366	7536
2362.355	7507
2364.343	7296
2366.331	7372
2368.317	7359
2370.304	7386
2372.292	7444
2374.278	7398
2376.262	7503
2378.247	7292
2380.23	7382
2382.216	7557
2384.199	7348
2386.181	7507
2388.163	7407
2390.144	7280
2392.127	7454
2394.107	7405
2396.087	7349
2398.066	7328
2400.046	7490
2402.023	7501
2404.004	7188
2405.981	7408
2407.957	7387
2409.934	7336
2411.91	7237
2413.886	7268
2415.862	7350
2417.836	7299
2419.809	7373
2421.784	7403
2423.756	7295
2425.73	7288
2427.701	7364
2429.672	7375
2431.644	7346
2433.615	7369
2435.586	7331
2437.555	7346
2439.523	7353
2441.491	7267
2443.459	7343
2445.428	7430
2447.395	7178
2449.361	7362
2451.327	7302
2453.292	7193
2455.257	7247
2457.223	7329
2459.187	7276
2461.15	7271
2463.113	7164
2465.076	7265
2467.039	7235
2468.999	7366
2470.96	7287
2472.921	7235
2474.881	7252
2476.841	7256
2478.8	7338
2480.759	7330
2482.717	7205
2484.675	7404
2486.63	7104
2488.589	7128
2490.545	7239
2492.5	7318
2494.455	7251
2496.408	7178
2498.364	7111
2500.318	7167
2502.27	7192
2504.223	7207
2506.174	7245
2508.126	7201
2510.078	7164
2512.03	7257
2513.979	7150
2515.927	7181
2517.877	7253
2519.826	7203
2521.775	7156
2523.722	7055
2525.668	7086
2527.616	7072
2529.561	7150
2531.508	7118
2533.452	7110
2535.398	7099
2537.342	7049
2539.284	7134
2541.229	7214
2543.173	7090
2545.114	6963
2547.055	7178
2548.996	6997
2550.938	7076
2552.878	7118
2554.817	7286
2556.756	7219
2558.695	7174
2560.633	7139
2562.572	7083
2564.509	7048
2566.445	7061
2568.382	7210
2570.317	7078
2572.254	7114
2574.189	7273
2576.123	7093
2578.057	7174
2579.99	7045
2581.923	7185
2583.855	7206
2585.788	7220
2587.719	7124
2589.65	7095
2591.579	7059
2593.511	7143
2595.44	7080
2597.37	7169
2599.297	7235
2601.225	7105
2603.153	7129
2605.08	7106
2607.007	7141
2608.932	7121
2610.858	7038
2612.782	7113
2614.709	7106
2616.632	7148
2618.556	7104
2620.478	7123
2622.401	7070
2624.324	7169
2626.247	7103
2628.167	7205
2630.088	7209
2632.008	7163
2633.928	7140
2635.848	7019
2637.766	7132
2639.684	7229
2641.603	7076
2643.519	7075
2645.437	7091
2647.353	7181
2649.27	7061
2651.184	7164
2653.099	7181
2655.014	7039
2656.928	7128
2658.842	7130
2660.755	7014
2662.667	7081
2664.579	7126
2666.491	7101
2668.402	7053
2670.312	7106
2672.222	7099
2674.132	7043
2676.042	7067
2677.951	7098
2679.859	7049
2681.766	7057
2683.674	7017
2685.582	7059
2687.488	6879
2689.392	7082
2691.298	7003
2693.202	6991
2695.107	7004
2697.012	7014
2698.914	6989
2700.817	6989
2702.72	7014
2704.622	6938
2706.524	7085
2708.425	7119
2710.326	7086
2712.225	7119
2714.125	7008
2716.024	7057
2717.923	6934
2719.822	6972
2721.719	6957
2723.616	6900
2725.512	6965
2727.41	6913
2729.305	7012
2731.201	6930
2733.095	6954
2734.99	7011
2736.884	6902
2738.778	6936
2740.67	6869
2742.562	6913
2744.455	6897
2746.346	6912
2748.238	6981
2750.129	6967
2752.018	6972
2753.907	6993
2755.797	6905
2757.687	6981
2759.575	6997
2761.462	6929
2763.349	7005
2765.237	7055
2767.124	7066
2769.009	6880
2770.894	6958
2772.779	6931
2774.663	6946
2776.547	7015
2778.431	6830
2780.314	6807
2782.197	6924
2784.078	6969
2785.96	6869
2787.842	6950
2789.723	6834
2791.603	6976
2793.483	6900
2795.362	6860
2797.241	6837
2799.121	6800
2800.997	6727
2802.874	6960
2804.751	6868
2806.628	6926
2808.506	6869
2810.38	6898
2812.255	6766
2814.13	6912
2816.003	6804
2817.878	6831
2819.752	6869
2821.623	6814
2823.496	6858
2825.368	6825
2827.238	6800
2829.111	6870
2830.98	6834
2832.851	6885
2834.719	6905
2836.589	6990
2838.458	7013
2840.327	6939
2842.193	6899
2844.061	6881
2845.927	6963
2847.794	6921
2849.66	6977
2851.525	7004
2853.39	6939
2855.254	7270
2857.117	7185
2858.983	7200
2860.845	7237
2862.707	7157
2864.569	7291
2866.431	7308
2868.293	7359
2870.154	7343
2872.013	7519
2873.873	7377
2875.733	7484
2877.592	7574
2879.451	7678
2881.309	7724
2883.166	7754
2885.022	7840
2886.879	7863
2888.736	7920
2890.591	7902
2892.446	7952
2894.301	8017
2896.155	8039
2898.009	7996
2899.863	8020
2901.716	7890
2903.568	8045
2905.419	7892
2907.27	7896
2909.123	7855
2910.973	7951
2912.824	7950
2914.673	7980
2916.521	7909
2918.372	8230
2920.22	8116
2922.067	8237
2923.914	8300
2925.761	8420
2927.607	8316
2929.455	8355
2931.301	8473
2933.144	8487
2934.99	8550
2936.833	8795
2938.678	8654
2940.522	8832
2942.364	9087
2944.207	9100
2946.048	9146
2947.891	9394
2949.731	9376
2951.571	9331
2953.412	9337
2955.25	9209
2957.09	9167
2958.93	9208
2960.767	9142
2962.606	9024
2964.443	9010
2966.279	8920
2968.116	8784
2969.953	8516
2971.788	8409
2973.623	8232
2975.457	8167
2977.292	8011
2979.127	7988
2980.959	7955
2982.792	7795
2984.624	7637
2986.455	7706
2988.288	7569
2990.119	7575
2991.949	7507
2993.779	7534
2995.608	7469
2997.439	7257
2999.268	7274
3001.096	7209
3002.923	7192
3004.751	7049
3006.578	7170
3008.406	7005
3010.232	6927
3012.057	7039
3013.883	7012
3015.706	6832
3017.532	6775
3019.356	6796
3021.179	6737
3023.002	6674
3024.823	6609
3026.646	6636
3028.469	6656
3030.289	6660
3032.11	6541
3033.93	6646
3035.749	6616
3037.57	6532
3039.39	6636
3041.207	6586
3043.026	6532
3044.842	6618
3046.661	6634
3048.477	6449
3050.294	6513
3052.109	6433
3053.925	6470
3055.739	6497
3057.555	6563
3059.368	6447
3061.181	6443
3062.995	6559
3064.807	6471
3066.62	6389
3068.433	6472
3070.243	6395
3072.054	6525
3073.865	6496
3075.675	6442
3077.485	6451
3079.293	6412
3081.102	6407
3082.911	6532
3084.719	6276
3086.527	6418
3088.333	6462
3090.139	6394
3091.945	6246
3093.75	6346
3095.557	6302
3097.361	6330
3099.165	6319
3100.969	6234
3102.772	6211
3104.575	6280
3106.379	6117
3108.181	6186
3109.982	6269
3111.783	6157
3113.584	6247
3115.386	6225
3117.186	6183
3118.985	6270
3120.783	6252
3122.582	6244
3124.381	6063
3126.179	6234
3127.975	6266
3129.772	6259
3131.569	6155
3133.365	6013
3135.161	6059
3136.956	6046
3138.751	6130
3140.544	6096
3142.338	6155
3144.132	6129
3145.925	6039
3147.717	6161
3149.509	6081
3151.301	6174
3153.091	6047
3154.884	6106
3156.673	6014
3158.462	6133
3160.252	6016
3162.041	6075
3163.831	6100
3165.618	6114
3167.405	6173
3169.193	6105
3170.979	6083
3172.767	6147
3174.553	6004
3176.338	6067
3178.123	6078
3179.907	5983
3181.692	5950
3183.477	6160
3185.259	6026
3187.042	5982
3188.824	6015
3190.607	5919
3192.389	5923
3194.17	5983
3195.951	6006
3197.73	6024
3199.51	5944
3201.289	5998
3203.07	6088
3204.848	5961
3206.626	6026
3208.403	6042
3210.18	6084
3211.959	5941
3213.735	5983
3215.511	5996
3217.285	6017
3219.06	6119
3220.836	5996
3222.611	5989
3224.384	5972
3226.158	6044
3227.929	5988
3229.702	6003
3231.476	5972
3233.248	5950
3235.018	6005
3236.789	5956
3238.56	5926
3240.33	5908
3242.1	6007
3243.869	5989
3245.637	5998
3247.405	5948
3249.172	6026
3250.941	5873
3252.707	5979
3254.474	6015
3256.24	5998
3258.006	5942
3259.772	5931
3261.537	5927
3263.301	5955
3265.065	5949
3266.828	5934
3268.592	5952
3270.355	5993
3272.117	5872
3273.878	5954
3275.64	5953
3277.401	5963
3279.162	5941
3280.922	5991
3282.682	6008
3284.441	6003
3286.199	5921
3287.959	6064
3289.716	5783
3291.475	6020
3293.232	5906
3294.988	5950
3296.744	5911
3298.501	5990
3300.256	5992
3302.011	5959
3303.766	5996
3305.52	5948
3307.275	5949
3309.028	5999
3310.781	5930
3312.533	5976
3314.285	5930
3316.038	5777
3317.789	6068
3319.54	5970
3321.289	5950
3323.039	5860
3324.789	5868
3326.539	5950
3328.288	5807
3330.035	6014
3331.783	5920
3333.531	5936
3335.28	5963
3337.025	5947
3338.771	5853
3340.518	5924
3342.262	5796
3344.009	5905
3345.753	5894
3347.497	5797
3349.24	5904
3350.983	5775
3352.726	5797
3354.469	5760
3356.212	5825
3357.952	5858
3359.694	5834
3361.434	5732
3363.176	5779
3364.916	5737
3366.654	5753
3368.394	5813
3370.132	5800
3371.871	5686
3373.61	5833
3375.346	5682
3377.083	5693
3378.82	5747
3380.556	5802
3382.292	5687
3384.027	5710
3385.763	5675
3387.497	5651
3389.231	5674
3390.965	5742
3392.698	5727
3394.431	5697
3396.164	5649
3397.896	5594
3399.627	5765
3401.36	5637
3403.09	5702
3404.82	5674
3406.55	5613
3408.279	5669
3410.01	5611
3411.738	5637
3413.467	5607
3415.194	5584
3416.92	5667
3418.647	5717
3420.375	5606
3422.102	5557
3423.827	5596
3425.553	5575
3427.277	5475
3429.003	5532
3430.727	5625
3432.451	5514
3434.173	5428
3435.896	5521
3437.62	5489
3439.343	5553
3441.063	5616
3442.785	5602
3444.505	5474
3446.226	5510
3447.948	5523
3449.666	5380
3451.386	5457
3453.104	5466
3454.823	5464
3456.541	5388
3458.259	5418
3459.976	5441
3461.693	5444
3463.408	5399
3465.125	5329
3466.841	5333
3468.556	5365
3470.271	5380
3471.985	5274
3473.698	5376
3475.414	5372
3477.126	5283
3478.838	5236
3480.55	5332
3482.263	5278
3483.975	5343
3485.686	5276
3487.396	5263
3489.106	5261
3490.817	5266
3492.526	5275
3494.236	5259
3495.944	5260
3497.652	5215
3499.359	5306
3501.066	5171
3502.775	5197
3504.481	5221
3506.187	5101
3507.893	5163
3509.598	5151
3511.304	5184
3513.009	5165
3514.713	5148
3516.417	5121
3518.12	5151
3519.821	5198
3521.525	5170
3523.228	5091
3524.929	5183
3526.631	5101
3528.33	5036
3530.032	5100
3531.733	5142
3533.433	5135
3535.131	5053
3536.83	4973
3538.529	5102
3540.227	4996
3541.925	5025
3543.623	5042
3545.319	5040
3547.016	5041
3548.712	5126
3550.408	4905
3552.103	4949
3553.798	5025
3555.491	4926
3557.188	4890
3558.88	5000
3560.574	4896
3562.266	4919
3563.959	5003
3565.651	4916
3567.343	4937
3569.035	4943
3570.725	4979
3572.415	4941
3574.106	4941
3575.797	4928
3577.485	4963
3579.174	4918
3580.863	4916
3582.551	4871
3584.238	4804
3585.926	4890
3587.613	4834
3589.3	4885
3590.986	4859
3592.671	4925
3594.357	4809
3596.042	4834
3597.726	4785
3599.41	4812
3601.094	4814
3602.778	4800
3604.461	4707
3606.143	4736
3607.825	4772
3609.507	4717
3611.188	4779
3612.87	4764
3614.551	4796
3616.229	4721
3617.909	4724
3619.589	4666
3621.269	4721
3622.948	4661
3624.625	4720
3626.302	4739
3627.98	4782
3629.657	4607
3631.334	4717
3633.01	4679
3634.686	4600
3636.361	4605
3638.036	4704
3639.712	4555
3641.385	4584
3643.06	4566
3644.732	4623
3646.405	4671
3648.08	4578
3649.751	4611
3651.424	4606
3653.094	4527
3654.766	4579
3656.436	4495
3658.106	4505
3659.777	4560
3661.446	4607
3663.115	4481
3664.783	4501
3666.452	4491
3668.121	4514
3669.788	4563
3671.454	4477
3673.121	4567
3674.789	4519
3676.455	4460
3678.12	4482
3679.784	4488
3681.45	4517
3683.114	4493
3684.779	4483
3686.442	4500
3688.105	4484
3689.768	4351
3691.43	4489
3693.093	4449
3694.754	4398
3696.415	4453
3698.076	4507
3699.736	4441
3701.396	4414
3703.057	4436
3704.716	4512
3706.375	4438
3708.034	4481
3709.692	4425
3711.351	4314
3713.008	4404
3714.665	4410
3716.321	4323
3717.977	4436
3719.634	4402
3721.29	4450
3722.945	4369
3724.598	4288
3726.253	4324
3727.907	4357
3729.561	4456
3731.214	4451
3732.867	4276
3734.518	4381
3736.171	4370
3737.824	4365
3739.474	4331
3741.125	4307
3742.775	4375
3744.425	4355
3746.074	4423
3747.725	4256
3749.373	4339
3751.022	4385
3752.669	4285
3754.318	4272
3755.966	4440
3757.612	4294
3759.259	4294
3760.905	4270
3762.55	4216
3764.197	4320
3765.842	4320
3767.486	4193
3769.131	4221
3770.774	4298
3772.417	4205
3774.061	4220
3775.705	4288
3777.347	4259
3778.988	4233
3780.629	4235
3782.271	4282
3783.912	4210
3785.552	4298
3787.192	4140
3788.831	4222
3790.472	4300
3792.112	4172
3793.75	4167
3795.388	4195
3797.024	4214
3798.661	4122
3800.3	4152
3801.936	4182
3803.572	4225
3805.208	4143
3806.844	4160
3808.48	4192
3810.115	4073
3811.748	4111
3813.382	4174
3815.016	4164
3816.649	4020
3818.283	4125
3819.914	4108
3821.547	4095
3823.178	4261
3824.809	4111
3826.441	4122
3828.072	3966
3829.701	4074
3831.331	4041
3832.96	4063
3834.591	4085
3836.219	4071
3837.847	4043
3839.475	4091
3841.102	4030
3842.729	4086
3844.357	4124
3845.984	4048
3847.609	4035
3849.234	4063
3850.86	4045
3852.485	3947
3854.11	3985
3855.734	4168
3857.357	4047
3858.981	4011
3860.603	4100
3862.227	3986
3863.848	4010
3865.471	4022
3867.092	4039
3868.713	3968
3870.334	4000
3871.954	3944
3873.575	3959
3875.194	4019
3876.813	3991
3878.433	4008
3880.051	3994
3881.669	3856
3883.286	4012
3884.904	3925
3886.52	3949
3888.138	3898
3889.754	3891
3891.37	3853
3892.985	3942
3894.6	3965
3896.216	4010
3897.831	3933
3899.444	3953
3901.058	3931
3902.67	3853
3904.283	3987
3905.897	3923
3907.509	3867
3909.121	3970
3910.731	3954
3912.342	3938
3913.954	3930
3915.563	3946
3917.174	3829
3918.783	3944
3920.391	3896
3922.002	3883
3923.611	3914
3925.218	3913
3926.826	3913
3928.432	3924
3930.039	3932
3931.647	3928
3933.253	3908
3934.859	3857
3936.464	3889
3938.068	3863
3939.675	3832
3941.278	3879
3942.883	3823
3944.486	3781
3946.089	3780
3947.692	3779
3949.295	3824
3950.898	3865
3952.499	3829
3954.1	3865
3955.7	3846
3957.303	3789
3958.903	3839
3960.502	3785
3962.101	3846
3963.7	3797
3965.301	3710
3966.899	3759
3968.497	3732
3970.094	3795
3971.691	3770
3973.288	3827
3974.885	3801
3976.481	3701
3978.077	3817
3979.672	3700
3981.267	3803
3982.863	3826
3984.457	3742
3986.051	3681
3987.645	3784
3989.238	3761
3990.831	3778
3992.425	3668
3994.017	3748
3995.607	3670
3997.199	3744
3998.79	3745
4000.382	3664
4001.973	3734
4003.561	3682
4005.151	3631
4006.741	3697
4008.331	3533
4009.918	3629
4011.507	3557
4013.095	3678
4014.681	3613
4016.269	3568
4017.856	3587
4019.443	3545
4021.028	3668
4022.614	3661
4024.199	3633
4025.785	3591
4027.37	3482
4028.953	3634
4030.536	3564
4032.12	3526
4033.704	3518
4035.287	3570
4036.869	3576
4038.45	3606
4040.032	3559
4041.613	3553
4043.195	3522
4044.776	3611
4046.356	3531
4047.935	3562
4049.515	3598
4051.095	3602
4052.674	3529
4054.251	3544
4055.829	3571
4057.406	3539
4058.985	3520
4060.562	3526
4062.139	3552
4063.715	3480
4065.29	3486
4066.865	3557
4068.442	3425
4070.016	3505
4071.59	3520
4073.164	3559
4074.738	3479
4076.312	3481
4077.885	3544
4079.458	3493
4081.03	3445
4082.602	3460
4084.173	3468
4085.745	3546
4087.315	3474
4088.886	3547
4090.456	3500
4092.026	3456
4093.596	3444
4095.165	3502
4096.734	3396
4098.301	3442
4099.869	3493
4101.437	3399
4103.006	3437
4104.572	3433
4106.139	3432
4107.704	3382
4109.27	3407
4110.837	3329
4112.401	3382
4113.966	3507
4115.53	3362
4117.094	3422
4118.659	3420
4120.223	3389
4121.785	3411
4123.347	3369
4124.909	3374
4126.471	3411
4128.034	3354
4129.595	3407
4131.155	3303
4132.716	3364
4134.275	3322
4135.836	3373
4137.395	3309
4138.955	3323
4140.513	3346
4142.071	3303
4143.628	3366
4145.188	3317
4146.745	3278
4148.302	3280
4149.858	3304
4151.414	3258
4152.971	3330
4154.526	3292
4156.081	3307
4157.635	3216
4159.189	3266
4160.745	3240
4162.298	3273
4163.852	3245
4165.405	3250
4166.957	3212
4168.51	3294
4170.063	3168
4171.614	3340
4173.166	3213
4174.717	3268
4176.267	3212
4177.817	3209
4179.368	3224
4180.917	3215
4182.466	3203
4184.016	3211
4185.564	3175
4187.112	3223
4188.66	3223
4190.207	3224
4191.754	3117
4193.301	3241
4194.848	3108
4196.394	3165
4197.94	3176
4199.484	3096
4201.03	3162
4202.575	3210
4204.12	3152
4205.663	3146
4207.207	3255
4208.75	3157
4210.292	3198
4211.836	3178
4213.378	3202
4214.92	3148
4216.46	3227
4218.002	3158
4219.544	3185
4221.083	3101
4222.625	3163
4224.164	3163
4225.703	3180
4227.244	3142
4228.782	3050
4230.32	3117
4231.857	3086
4233.395	3067
4234.933	3095
4236.471	3103
4238.007	3096
4239.542	3101
4241.078	3118
4242.614	3106
4244.15	3022
4245.685	3106
4247.219	3182
4248.753	3105
4250.287	3091
4251.82	3014
4253.354	3115
4254.887	3006
4256.419	3089
4257.951	3095
4259.483	3105
4261.016	3103
4262.547	3109
4264.078	3092
4265.608	3095
4267.137	3150
4268.668	3065
4270.197	3009
4271.727	3007
4273.254	3120
4274.783	3090
4276.311	3093
4277.84	2985
4279.366	3051
4280.894	3027
4282.42	2937
4283.946	2964
4285.473	2990
4286.998	3025
4288.523	3010
4290.047	2937
4291.572	3006
4293.096	2990
4294.622	3028
4296.144	2998
4297.668	2930
4299.19	3002
4300.713	2954
4302.236	2948
4303.758	2931
4305.279	3006
4306.799	2950
4308.321	2890
4309.842	2992
4311.361	2983
4312.882	2940
4314.401	2941
