400.0961	4853
402.6185	4823
405.1424	4855
407.6635	4844
410.1838	4802
412.7035	4887
415.2225	4937
417.7388	4922
420.2585	5038
422.7754	4956
425.2917	5096
427.8072	5094
430.3221	5134
432.8363	5223
435.3498	5200
437.8626	5181
440.3727	5133
442.8841	5209
445.3969	5103
447.907	5115
450.4142	5183
452.9229	5072
455.4289	5164
457.9362	5129
460.4449	5110
462.9488	5208
465.454	5063
467.9566	5217
470.4604	5111
472.9637	5170
475.4662	5137
477.966	5185
480.4671	5183
482.9656	5209
485.4633	5182
487.9645	5254
490.4608	5119
492.9566	5260
495.4536	5177
497.948	5231
500.4437	5229
502.9387	5291
505.431	5238
507.9226	5281
510.4136	5303
512.9079	5271
515.3975	5326
517.8864	5332
520.3746	5276
522.8622	5221
525.3491	5321
527.8394	5376
530.3249	5327
532.8098	5314
535.2939	5396
537.7774	5343
540.2623	5335
542.7444	5352
545.2259	5221
547.7067	5361
550.1868	5383
552.6683	5413
555.147	5374
557.6231	5477
560.1005	5352
562.5773	5475
565.0534	5429
567.5308	5487
570.0056	5468
572.4776	5400
574.951	5499
577.4237	5547
579.8978	5634
582.3671	5647
584.8378	5567
587.3079	5633
589.7773	5603
592.244	5581
594.714	5686
597.1793	5634
599.6461	5601
602.1121	5544
604.5754	5575
607.0421	5647
609.5042	5585
611.9675	5552
614.4282	5574
616.8902	5560
619.3515	5585
621.8122	5665
624.2702	5730
626.7296	5610
629.1863	5529
631.6423	5578
634.1017	5524
636.5563	5555
639.0104	5543
641.4658	5487
643.9185	5488
646.3725	5566
648.8239	5591
651.2766	5516
653.7266	7334
656.176	6738
658.6247	8086
661.0748	9472
663.5242	5696
665.9709	5680
668.417	5584
670.8624	5754
673.3092	5752
675.7533	5716
678.1968	5687
680.6395	5601
683.0817	5724
685.5251	5741
687.9659	5786
690.4061	5753
692.8456	5699
695.2844	5810
697.7226	5811
700.1621	5722
702.599	5881
705.0332	5826
707.4688	5716
709.9036	5841
712.3399	5885
714.7735	5759
717.2044	5900
719.6367	5883
722.0683	5847
724.4993	5828
726.9296	5832
729.3593	5906
731.7883	5983
734.2147	6024
736.6423	5980
739.0714	6039
741.4958	5948
743.9216	6012
746.3447	6128
748.7691	5938
751.1929	6171
753.616	6053
756.0366	6085
758.4584	6204
760.8776	6096
763.2982	6151
765.718	6197
768.1373	6182
770.5539	6189
772.9698	6267
775.3871	6075
777.8038	6081
780.2178	6188
782.6332	6111
785.0459	6197
787.458	6047
789.8714	6180
792.2842	6143
794.6943	6100
797.1038	6175
799.5127	6259
801.9209	6066
804.3324	6121
806.7393	6252
809.1456	6162
811.5513	6317
813.9562	6272
816.3625	6263
818.7663	6356
821.1693	6208
823.5718	6315
825.9735	6254
828.3746	6152
830.7771	6208
833.177	6193
835.5762	6399
837.9747	6246
840.3727	6327
842.772	6337
845.1666	6297
847.5626	6479
849.958	6397
852.3527	6526
854.7488	6388
857.1403	6469
859.5331	6601
861.9253	6439
864.3168	6497
866.7057	6433
869.098	6532
871.4876	6529
873.8746	6432
876.263	6408
878.6487	6504
881.0378	6435
883.4243	6466
885.8081	6363
888.1933	6442
890.5759	6434
892.9598	6426
895.343	6351
897.7256	6432
900.1057	6416
902.4871	6452
904.8659	6371
907.246	6511
909.6254	6574
912.0023	6645
914.3786	6679
916.7562	6746
919.1331	6801
921.5074	6747
923.8831	6901
926.2562	6941
928.6287	6866
931.0005	6902
933.3757	6828
935.7462	6988
938.1162	6959
940.4855	7021
942.8542	7048
945.2242	7039
947.5916	7196
949.9584	7316
952.3266	7461
954.6921	7809
957.0571	8103
959.4233	8236
961.787	8401
964.15	8337
966.5125	8208
968.8742	7813
971.2354	7650
973.5959	7262
975.9559	7115
978.3151	7067
980.6738	6953
983.0338	6967
985.3912	6899
987.7461	6720
990.1022	6676
992.4578	6713
994.8127	6656
997.1689	6629
999.5207	6651
1001.874	6775
1004.226	6831
1006.576	6729
1008.929	6776
1011.28	6647
1013.628	6787
1015.977	6734
1018.324	6652
1020.674	6718
1023.019	6706
1025.366	6612
1027.713	6751
1030.056	6852
1032.399	6766
1034.746	6848
1037.087	6831
1039.431	6861
1041.771	6756
1044.113	6858
1046.454	6776
1048.793	6847
1051.133	6737
1053.471	6721
1055.807	6903
1058.146	6826
1060.483	6790
1062.818	6838
1065.153	6865
1067.489	6962
1069.822	6963
1072.156	6985
1074.488	6978
1076.82	6980
1079.15	6931
1081.48	6859
1083.814	6808
1086.143	6938
1088.471	6821
1090.799	6914
1093.126	6855
1095.452	6932
1097.78	6953
1100.105	6894
1102.43	6855
1104.754	6773
1107.077	6895
1109.4	6811
1111.722	6744
1114.044	6872
1116.365	6711
1118.685	6866
1121.005	6845
1123.324	6770
1125.643	6881
1127.961	6914
1130.278	6848
1132.595	6731
1134.911	6724
1137.226	6927
1139.541	6815
1141.854	6859
1144.167	6752
1146.482	6962
1148.793	6938
1151.105	6803
1153.414	6805
1155.725	6858
1158.033	6813
1160.344	6826
1162.651	6915
1164.959	6888
1167.265	6831
1169.572	6788
1171.878	6898
1174.184	6913
1176.488	6898
1178.79	6843
1181.094	6928
1183.396	6934
1185.699	6950
1188.001	6929
1190.301	6802
1192.6	6769
1194.9	6773
1197.2	6883
1199.497	6869
1201.794	6843
1204.09	6843
1206.387	6926
1208.684	6897
1210.978	7021
1213.272	6828
1215.565	6837
1217.858	6956
1220.15	6835
1222.443	6813
1224.734	6957
1227.024	6893
1229.313	7083
1231.602	6971
1233.892	7089
1236.18	7132
1238.467	7125
1240.754	7163
1243.04	7113
1245.325	7182
1247.612	7203
1249.896	7282
1252.178	7107
1254.461	7135
1256.743	7236
1259.027	7226
1261.308	7295
1263.587	7277
1265.867	7246
1268.146	7256
1270.425	7249
1272.703	7280
1274.981	7248
1277.256	7285
1279.532	7099
1281.808	7186
1284.083	7150
1286.358	7174
1288.63	7091
1290.904	7149
1293.175	7086
1295.449	7125
1297.719	7006
1299.99	7036
1302.259	7088
1304.529	7035
1306.798	7137
1309.065	7155
1311.333	7068
1313.599	7184
1315.866	7086
1318.131	7062
1320.396	7112
1322.66	7055
1324.925	7124
1327.187	7183
1329.448	7053
1331.711	7172
1333.974	7206
1336.234	6980
1338.493	7186
1340.752	7106
1343.01	6950
1345.269	7093
1347.526	7113
1349.784	7072
1352.04	6967
1354.295	7201
1356.552	6930
1358.806	6996
1361.059	7227
1363.312	7114
1365.564	7044
1367.818	7131
1370.069	7114
1372.318	7158
1374.568	7156
1376.817	7046
1379.066	7164
1381.316	7139
1383.564	7134
1385.809	7270
1388.056	7228
1390.301	7348
1392.549	7363
1394.793	7399
1397.036	7320
1399.279	7314
1401.522	7334
1403.763	7411
1406.007	7424
1408.248	7395
1410.487	7502
1412.727	7499
1414.965	7419
1417.205	7403
1419.442	7419
1421.68	7336
1423.915	7400
1426.152	7405
1428.388	7313
1430.623	7431
1432.857	7372
1435.091	7385
1437.323	7393
1439.556	7595
1441.789	7554
1444.019	7374
1446.25	7595
1448.48	7309
1450.708	7545
1452.938	7452
1455.167	7490
1457.394	7505
1459.62	7532
1461.846	7581
1464.073	7334
1466.299	7357
1468.523	7356
1470.746	7412
1472.969	7360
1475.191	7235
1477.415	7253
1479.636	7212
1481.858	7215
1484.078	7163
1486.298	7132
1488.518	7203
1490.736	7153
1492.954	7126
1495.169	7065
1497.386	7155
1499.602	7028
1501.819	7136
1504.034	7056
1506.248	7113
1508.462	7054
1510.675	6997
1512.888	7173
1515.1	7091
1517.311	7144
1519.522	6858
1521.732	7132
1523.942	7064
1526.151	7071
1528.36	6999
1530.566	7048
1532.773	6994
1534.98	7041
1537.187	7073
1539.392	7085
1541.596	7154
1543.801	7068
1546.005	7042
1548.208	7101
1550.411	7123
1552.612	7268
1554.814	7124
1557.013	7130
1559.212	7227
1561.414	7162
1563.612	7119
1565.811	7173
1568.007	7263
1570.203	7204
1572.403	7105
1574.598	7219
1576.792	7132
1578.988	7261
1581.181	7255
1583.376	7216
1585.568	7348
1587.761	7192
1589.952	7254
1592.143	7336
1594.333	7339
1596.524	7260
1598.715	7294
1600.903	7250
1603.091	7277
1605.278	7265
1607.466	7254
1609.652	7391
1611.838	7336
1614.023	7378
1616.207	7286
1618.391	7339
1620.576	7293
1622.759	7317
1624.941	7528
1627.123	7391
1629.304	7437
1631.484	7395
1633.664	7395
1635.844	7601
1638.022	7416
1640.201	7457
1642.38	7516
1644.556	7485
1646.732	7311
1648.908	7379
1651.084	7563
1653.257	7442
1655.433	7493
1657.607	7359
1659.779	7573
1661.951	7459
1664.122	7548
1666.295	7445
1668.467	7519
1670.635	7429
1672.805	7594
1674.973	7320
1677.142	7421
1679.31	7527
1681.478	7544
1683.644	7471
1685.81	7499
1687.975	7443
1690.142	7402
1692.305	7435
1694.468	7565
1696.632	7417
1698.794	7584
1700.957	7430
1703.119	7424
1705.279	7359
1707.439	7414
1709.598	7407
1711.758	7345
1713.917	7339
1716.075	7286
1718.231	7281
1720.388	7228
1722.543	7259
1724.702	7297
1726.856	7281
1729.01	7150
1731.164	7184
1733.317	7241
1735.471	7315
1737.623	7315
1739.774	7322
1741.925	7237
1744.075	7281
1746.225	7433
1748.376	7142
1750.524	7244
1752.672	7380
1754.82	7253
1756.965	7336
1759.113	7334
1761.259	7339
1763.405	7330
1765.549	7455
1767.694	7252
1769.836	7332
1771.981	7247
1774.123	7262
1776.264	7320
1778.405	7539
1780.546	7475
1782.687	7311
1784.827	7351
1786.966	7346
1789.103	7268
1791.242	7379
1793.381	7289
1795.517	7347
1797.653	7402
1799.788	7331
1801.923	7386
1804.057	7275
1806.193	7487
1808.326	7298
1810.457	7278
1812.59	7269
1814.721	7396
1816.855	7257
1818.984	7394
1821.113	7326
1823.244	7357
1825.372	7406
1827.499	7368
1829.63	7288
1831.756	7394
1833.882	7230
1836.007	7330
1838.132	7205
1840.26	7308
1842.384	7249
1844.507	7312
1846.63	7291
1848.752	7292
1850.875	7290
1852.996	7269
1855.118	7172
1857.238	7394
1859.358	7397
1861.477	7193
1863.597	7267
1865.715	7246
1867.832	7408
1869.948	7184
1872.064	7393
1874.181	7256
1876.297	7307
1878.411	7384
1880.526	7179
1882.639	7289
1884.752	7212
1886.865	7300
1888.977	7173
1891.089	7279
1893.2	7394
1895.308	7277
1897.42	7318
1899.53	7297
1901.639	7380
1903.745	7236
1905.853	7452
1907.962	7347
1910.067	7252
1912.174	7261
1914.278	7362
1916.383	7432
1918.486	7326
1920.592	7281
1922.694	7409
1924.797	7426
1926.898	7386
1929	7507
1931.102	7389
1933.203	7385
1935.301	7391
1937.401	7354
1939.499	7329
1941.598	7415
1943.697	7324
1945.793	7288
1947.888	7438
1949.985	7405
1952.08	7361
1954.176	7343
1956.269	7411
1958.364	7421
1960.457	7344
1962.549	7436
1964.642	7352
1966.733	7341
1968.823	7321
1970.913	7497
1973.005	7463
1975.093	7364
1977.184	7319
1979.271	7455
1981.359	7322
1983.446	7240
1985.532	7161
1987.619	7315
1989.705	7354
1991.789	7418
1993.874	7258
1995.956	7253
1998.041	7338
2000.123	7310
2002.206	7263
2004.287	7272
2006.368	7220
2008.449	7207
2010.529	7314
2012.609	7279
2014.688	7396
2016.766	7253
2018.843	7208
2020.922	7254
2022.999	7289
2025.074	7275
2027.15	7236
2029.225	7346
2031.299	7258
2033.375	7403
2035.447	7364
2037.52	7379
2039.592	7198
2041.664	7256
2043.736	7280
2045.807	7368
2047.876	7241
2049.947	7210
2052.015	7325
2054.086	7263
2056.153	7355
2058.221	7359
2060.288	7280
2062.353	7219
2064.42	7228
2066.486	7277
2068.55	7250
2070.614	7358
2072.678	7364
2074.741	7368
2076.805	7337
2078.866	7227
2080.929	7379
2082.99	7307
2085.049	7381
2087.109	7287
2089.17	7301
2091.228	7307
2093.286	7147
2095.344	7434
2097.4	7390
2099.46	7195
2101.516	7242
2103.572	7413
2105.626	7306
2107.679	7412
2109.735	7223
2111.788	7271
2113.841	7358
2115.894	7325
2117.945	7228
2119.997	7281
2122.049	7300
2124.1	7337
2126.148	7499
2128.197	7278
2130.246	7316
2132.296	7301
2134.342	7299
2136.39	7282
2138.437	7307
2140.483	7354
2142.527	7211
2144.574	7185
2146.619	7216
2148.661	7313
2150.705	7233
2152.747	7306
2154.792	9000
2156.832	8899
2158.874	7225
2160.915	7196
2162.954	7241
2164.995	7271
2167.034	7143
2169.072	7175
2171.111	7230
2173.148	7216
2175.186	7168
2177.223	7191
2179.258	7163
2181.294	7128
2183.328	7169
2185.362	7189
2187.398	7157
2189.431	7148
2191.463	7096
2193.495	7196
2195.528	7097
2197.56	7213
2199.59	7014
2201.62	7135
2203.649	7174
2205.678	7028
2207.708	7120
2209.737	7136
2211.764	7097
2213.791	7043
2215.817	7018
2217.843	7060
2219.87	7108
2221.895	7077
2223.919	7039
2225.942	7063
2227.966	7148
2229.988	7166
2232.012	7011
2234.032	7182
2236.054	7099
2238.074	7005
2240.095	7154
2242.116	7032
2244.135	7096
2246.153	7098
2248.171	7029
2250.188	7101
2252.208	7009
2254.223	7080
2256.239	7010
2258.255	6953
2260.269	7007
2262.283	7066
2264.3	7056
2266.312	7071
2268.325	7023
2270.336	7105
2272.349	7040
2274.362	7192
2276.372	7046
2278.383	7077
2280.392	7021
2282.402	7007
2284.409	7119
2286.418	7053
2288.427	7117
2290.433	6933
2292.441	7153
2294.446	7014
2296.453	7076
2298.459	7065
2300.463	6954
2302.466	6926
2304.471	7083
2306.475	7032
2308.477	7066
2310.478	6963
2312.481	6979
2314.481	7029
2316.481	7119
2318.482	7056
2320.482	7010
2322.48	6973
2324.48	7095
2326.478	7051
2328.476	6952
2330.473	7010
2332.469	6978
2334.465	6974
2336.46	6998
2338.454	6935
2340.45	6986
2342.444	6878
2344.437	6908
2346.43	6934
2348.421	6918
2350.414	6835
2352.405	6939
2354.396	7055
2356.386	6884
2358.376	6783
2360.366	6827
2362.355	6887
2364.343	6924
2366.331	6850
2368.317	6941
2370.304	6814
2372.292	6862
2374.278	6787
2376.262	6967
2378.247	6875
2380.23	6935
2382.216	6872
2384.199	6784
2386.181	6739
2388.163	6743
2390.144	6897
2392.127	6763
2394.107	6944
2396.087	6769
2398.066	6772
2400.046	6786
2402.023	6856
2404.004	6836
2405.981	6614
2407.957	6891
2409.934	6746
2411.91	6786
2413.886	6874
2415.862	6699
2417.836	6753
2419.809	6822
2421.784	6675
2423.756	6881
2425.73	6862
2427.701	6789
2429.672	6756
2431.644	6750
2433.615	6724
2435.586	6781
2437.555	6703
2439.523	6837
2441.491	6726
2443.459	6713
2445.428	6741
2447.395	6763
2449.361	6783
2451.327	6664
2453.292	6745
2455.257	6680
2457.223	6691
2459.187	6744
2461.15	6729
2463.113	6763
2465.076	6810
2467.039	6763
2468.999	6645
2470.96	6644
2472.921	6681
2474.881	6655
2476.841	6706
2478.8	6739
2480.759	6617
2482.717	6672
2484.675	6810
2486.63	6647
2488.589	6690
2490.545	6667
2492.5	6684
2494.455	6725
2496.408	6672
2498.364	6632
2500.318	6680
2502.27	6622
2504.223	6731
2506.174	6734
2508.126	6649
2510.078	6709
2512.03	6729
2513.979	6601
2515.927	6538
2517.877	6689
2519.826	6651
2521.775	6668
2523.722	6448
2525.668	6626
2527.616	6570
2529.561	6701
2531.508	6741
2533.452	6625
2535.398	6676
2537.342	6607
2539.284	6501
2541.229	6668
2543.173	6650
2545.114	6534
2547.055	6517
2548.996	6712
2550.938	6573
2552.878	6478
2554.817	6594
2556.756	6532
2558.695	6621
2560.633	6591
2562.572	6603
2564.509	6764
2566.445	6619
2568.382	6605
2570.317	6573
2572.254	6635
2574.189	6529
2576.123	6551
2578.057	6498
2579.99	6534
2581.923	6649
2583.855	6525
2585.788	6611
2587.719	6506
2589.65	6582
2591.579	6694
2593.511	6595
2595.44	6605
2597.37	6538
2599.297	6612
2601.225	6545
2603.153	6536
2605.08	6550
2607.007	6458
2608.932	6456
2610.858	6657
2612.782	6640
2614.709	6696
2616.632	6534
2618.556	6623
2620.478	6599
2622.401	6545
2624.324	6734
2626.247	6596
2628.167	6524
2630.088	6547
2632.008	6691
2633.928	6644
2635.848	6601
2637.766	6585
2639.684	6758
2641.603	6655
2643.519	6654
2645.437	6668
2647.353	6681
2649.27	6582
2651.184	6508
2653.099	6592
2655.014	6533
2656.928	6637
2658.842	6597
2660.755	6514
2662.667	6573
2664.579	6650
2666.491	6545
2668.402	6478
2670.312	6750
2672.222	6511
2674.132	6547
2676.042	6628
2677.951	6580
2679.859	6662
2681.766	6533
2683.674	6515
2685.582	6520
2687.488	6553
2689.392	6593
2691.298	6587
2693.202	6713
2695.107	6380
2697.012	6534
2698.914	6504
2700.817	6395
2702.72	6415
2704.622	6551
2706.524	6548
2708.425	6449
2710.326	6578
2712.225	6532
2714.125	6325
2716.024	6407
2717.923	6442
2719.822	6345
2721.719	6341
2723.616	6376
2725.512	6520
2727.41	6478
2729.305	6468
2731.201	6482
2733.095	6374
2734.99	6496
2736.884	6453
2738.778	6402
2740.67	6381
2742.562	6275
2744.455	6440
2746.346	6360
2748.238	6501
2750.129	6487
2752.018	6327
2753.907	6376
2755.797	6423
2757.687	6483
2759.575	6418
2761.462	6537
2763.349	6370
2765.237	6408
2767.124	6439
2769.009	6453
2770.894	6420
2772.779	6386
2774.663	6446
2776.547	6374
2778.431	6419
2780.314	6387
2782.197	6443
2784.078	6421
2785.96	6343
2787.842	6434
2789.723	6384
2791.603	6466
2793.483	6366
2795.362	6405
2797.241	6383
2799.121	6367
2800.997	6318
2802.874	6259
2804.751	6306
2806.628	6372
2808.506	6314
2810.38	6343
2812.255	6381
2814.13	6372
2816.003	6274
2817.878	6310
2819.752	6299
2821.623	6358
2823.496	6275
2825.368	6261
2827.238	6291
2829.111	6378
2830.98	6285
2832.851	6386
2834.719	6340
2836.589	6339
2838.458	6422
2840.327	6343
2842.193	6415
2844.061	6391
2845.927	6372
2847.794	6480
2849.66	6421
2851.525	6360
2853.39	6515
2855.254	6493
2857.117	6583
2858.983	6435
2860.845	6570
2862.707	6620
2864.569	6590
2866.431	6587
2868.293	6746
2870.154	6675
2872.013	6785
2873.873	6801
2875.733	6953
2877.592	6931
2879.451	6992
2881.309	7079
2883.166	7016
2885.022	7040
2886.879	7161
2888.736	7150
2890.591	7293
2892.446	7192
2894.301	7195
2896.155	7210
2898.009	7291
2899.863	7274
2901.716	7117
2903.568	7260
2905.419	7117
2907.27	7098
2909.123	7185
2910.973	7190
2912.824	7302
2914.673	7333
2916.521	7406
2918.372	7597
2920.22	7459
2922.067	7458
2923.914	7669
2925.761	7766
2927.607	7624
2929.455	7687
2931.301	7871
2933.144	7975
2934.99	8078
2936.833	8004
2938.678	8014
2940.522	8108
2942.364	8250
2944.207	8366
2946.048	8384
2947.891	8485
2949.731	8409
2951.571	8586
2953.412	8580
2955.25	8344
2957.09	8396
2958.93	8004
2960.767	8121
2962.606	8027
2964.443	8078
2966.279	7937
2968.116	7704
2969.953	7703
2971.788	7579
2973.623	7528
2975.457	7458
2977.292	7432
2979.127	7275
2980.959	7328
2982.792	7303
2984.624	7214
2986.455	7085
2988.288	7199
2990.119	7025
2991.949	6970
2993.779	7042
2995.608	6920
2997.439	6964
2999.268	6772
3001.096	6701
3002.923	6667
3004.751	6670
3006.578	6707
3008.406	6592
3010.232	6479
3012.057	6480
3013.883	6414
3015.706	6307
3017.532	6187
3019.356	6341
3021.179	6269
3023.002	6289
3024.823	6157
3026.646	6230
3028.469	6090
3030.289	6264
3032.11	6110
3033.93	6110
3035.749	6049
3037.57	5996
3039.39	6130
3041.207	6124
3043.026	6067
3044.842	6119
3046.661	6077
3048.477	6053
3050.294	6042
3052.109	6038
3053.925	6012
3055.739	6006
3057.555	6095
3059.368	5985
3061.181	6044
3062.995	5875
3064.807	6094
3066.62	6034
3068.433	5996
3070.243	5989
3072.054	6095
3073.865	5941
3075.675	5924
3077.485	5990
3079.293	5841
3081.102	5939
3082.911	6002
3084.719	5861
3086.527	5898
3088.333	5838
3090.139	5881
3091.945	5890
3093.75	5857
3095.557	5925
3097.361	5888
3099.165	5839
3100.969	5863
3102.772	5799
3104.575	5840
3106.379	5860
3108.181	5841
3109.982	5895
3111.783	5721
3113.584	5886
3115.386	5735
3117.186	5782
3118.985	5738
3120.783	5708
3122.582	5851
3124.381	5763
3126.179	5806
3127.975	5664
3129.772	5822
3131.569	5670
3133.365	5591
3135.161	5661
3136.956	5613
3138.751	5602
3140.544	5755
3142.338	5742
3144.132	5659
3145.925	5642
3147.717	5682
3149.509	5697
3151.301	5691
3153.091	5707
3154.884	5722
3156.673	5704
3158.462	5651
3160.252	5672
3162.041	5696
3163.831	5614
3165.618	5723
3167.405	5641
3169.193	5654
3170.979	5731
3172.767	5586
3174.553	5633
3176.338	5670
3178.123	5606
3179.907	5654
3181.692	5755
3183.477	5696
3185.259	5576
3187.042	5663
3188.824	5581
3190.607	5649
3192.389	5651
3194.17	5587
3195.951	5571
3197.73	5488
3199.51	5621
3201.289	5621
3203.07	5523
3204.848	5572
3206.626	5471
3208.403	5606
3210.18	5669
3211.959	5635
3213.735	5586
3215.511	5558
3217.285	5682
3219.06	5638
3220.836	5526
3222.611	5606
3224.384	5605
3226.158	5656
3227.929	5485
3229.702	5645
3231.476	5603
3233.248	5672
3235.018	5510
3236.789	5654
3238.56	5626
3240.33	5631
3242.1	5598
3243.869	5628
3245.637	5561
3247.405	5485
3249.172	5619
3250.941	5617
3252.707	5582
3254.474	5493
3256.24	5552
3258.006	5575
3259.772	5647
3261.537	5584
3263.301	5601
3265.065	5565
3266.828	5529
3268.592	5607
3270.355	5628
3272.117	5570
3273.878	5634
3275.64	5542
3277.401	5609
3279.162	5583
3280.922	5673
3282.682	5538
3284.441	5657
3286.199	5545
3287.959	5696
3289.716	5549
3291.475	5606
3293.232	5531
3294.988	5522
3296.744	5559
3298.501	5598
3300.256	5534
3302.011	5655
3303.766	5582
3305.52	5525
3307.275	5555
3309.028	5491
3310.781	5502
3312.533	5444
3314.285	5599
3316.038	5492
3317.789	5578
3319.54	5538
3321.289	5524
3323.039	5500
3324.789	5448
3326.539	5563
3328.288	5465
3330.035	5547
3331.783	5564
3333.531	5531
3335.28	5570
3337.025	5579
3338.771	5476
3340.518	5619
3342.262	5515
3344.009	5489
3345.753	5501
3347.497	5406
3349.24	5576
3350.983	5521
3352.726	5485
3354.469	5383
3356.212	5471
3357.952	5370
3359.694	5486
3361.434	5345
3363.176	5440
3364.916	5495
3366.654	5343
3368.394	5354
3370.132	5378
3371.871	5394
3373.61	5406
3375.346	5309
3377.083	5251
3378.82	5290
3380.556	5456
3382.292	5418
3384.027	5311
3385.763	5257
3387.497	5422
3389.231	5230
3390.965	5373
3392.698	5400
3394.431	5304
3396.164	5323
3397.896	5260
3399.627	5383
3401.36	5338
3403.09	5334
3404.82	5339
3406.55	5297
3408.279	5260
3410.01	5280
3411.738	5192
3413.467	5290
3415.194	5255
3416.92	5257
3418.647	5330
3420.375	5169
3422.102	5282
3423.827	5207
3425.553	5218
3427.277	5289
3429.003	5220
3430.727	5215
3432.451	5318
3434.173	5225
3435.896	5105
3437.62	5200
3439.343	5246
3441.063	5184
3442.785	5225
3444.505	5111
3446.226	5235
3447.948	5142
3449.666	5098
3451.386	5016
3453.104	5039
3454.823	5101
3456.541	5096
3458.259	5041
3459.976	5016
3461.693	5072
3463.408	5062
3465.125	5094
3466.841	5025
3468.556	5066
3470.271	5051
3471.985	5115
3473.698	4989
3475.414	5056
3477.126	4932
3478.838	4961
3480.55	4974
3482.263	4954
3483.975	5024
3485.686	5052
3487.396	4940
3489.106	4928
3490.817	4979
3492.526	4926
3494.236	4871
3495.944	5033
3497.652	4875
3499.359	4901
3501.066	4817
3502.775	4898
3504.481	4790
3506.187	4856
3507.893	4854
3509.598	4884
3511.304	4853
3513.009	4927
3514.713	4886
3516.417	4914
3518.12	4815
3519.821	4759
3521.525	4842
3523.228	4799
3524.929	4792
3526.631	4759
3528.33	4820
3530.032	4725
3531.733	4744
3533.433	4764
3535.131	4736
3536.83	4724
3538.529	4711
3540.227	4741
3541.925	4748
3543.623	4756
3545.319	4730
3547.016	4715
3548.712	4682
3550.408	4742
3552.103	4675
3553.798	4707
3555.491	4713
3557.188	4671
3558.88	4756
3560.574	4620
3562.266	4612
3563.959	4721
3565.651	4670
3567.343	4575
3569.035	4567
3570.725	4682
3572.415	4620
3574.106	4679
3575.797	4674
3577.485	4729
3579.174	4635
3580.863	4593
3582.551	4659
3584.238	4668
3585.926	4611
3587.613	4592
3589.3	4660
3590.986	4508
3592.671	4555
3594.357	4588
3596.042	4518
3597.726	4560
3599.41	4529
3601.094	4465
3602.778	4517
3604.461	4489
3606.143	4498
3607.825	4453
3609.507	4492
3611.188	4388
3612.87	4432
3614.551	4476
3616.229	4512
3617.909	4390
3619.589	4422
3621.269	4468
3622.948	4391
3624.625	4456
3626.302	4494
3627.98	4381
3629.657	4393
3631.334	4384
3633.01	4354
3634.686	4347
3636.361	4316
3638.036	4349
3639.712	4394
3641.385	4329
3643.06	4346
3644.732	4306
3646.405	4263
3648.08	4356
3649.751	4299
3651.424	4275
3653.094	4350
3654.766	4292
3656.436	4275
3658.106	4278
3659.777	4343
3661.446	4312
3663.115	4288
3664.783	4285
3666.452	4323
3668.121	4347
3669.788	4178
3671.454	4197
3673.121	4224
3674.789	4266
3676.455	4144
3678.12	4332
3679.784	4218
3681.45	4305
3683.114	4190
3684.779	4254
3686.442	4236
3688.105	4193
3689.768	4208
3691.43	4217
3693.093	4195
3694.754	4217
3696.415	4127
3698.076	4220
3699.736	4243
3701.396	4132
3703.057	4208
3704.716	4098
3706.375	4106
3708.034	4198
3709.692	4146
3711.351	4139
3713.008	4190
3714.665	4255
3716.321	4087
3717.977	4143
3719.634	4196
3721.29	4121
3722.945	4079
3724.598	4142
3726.253	4124
3727.907	4056
3729.561	4067
3731.214	4110
3732.867	4126
3734.518	4114
3736.171	4099
3737.824	4122
3739.474	4048
3741.125	4120
3742.775	4104
3744.425	4094
3746.074	4007
3747.725	4059
3749.373	4088
3751.022	4057
3752.669	4026
3754.318	4073
3755.966	3998
3757.612	4051
3759.259	4092
3760.905	4048
3762.55	4082
3764.197	4018
3765.842	4069
3767.486	4024
3769.131	4011
3770.774	4030
3772.417	4002
3774.061	3979
3775.705	4000
3777.347	3966
3778.988	3885
3780.629	4040
3782.271	3919
3783.912	3969
3785.552	3902
3787.192	3946
3788.831	3954
3790.472	4067
3792.112	3898
3793.75	4001
3795.388	3980
3797.024	3978
3798.661	3955
3800.3	3946
3801.936	3940
3803.572	3962
3805.208	3814
3806.844	3936
3808.48	3931
3810.115	3907
3811.748	3870
3813.382	3936
3815.016	3859
3816.649	3982
3818.283	3945
3819.914	3785
3821.547	3802
3823.178	3894
3824.809	3857
3826.441	3881
3828.072	3864
3829.701	3816
3831.331	3898
3832.96	3814
3834.591	3845
3836.219	3875
3837.847	3783
3839.475	3799
3841.102	3762
3842.729	3787
3844.357	3839
3845.984	3782
3847.609	3857
3849.234	3788
3850.86	3853
3852.485	3791
3854.11	3877
3855.734	3660
3857.357	3775
3858.981	3747
3860.603	3827
3862.227	3791
3863.848	3883
3865.471	3778
3867.092	3740
3868.713	3766
3870.334	3767
3871.954	3702
3873.575	3737
3875.194	3748
3876.813	3822
3878.433	3746
3880.051	3693
3881.669	3721
3883.286	3737
3884.904	3717
3886.52	3786
3888.138	3792
3889.754	3704
3891.37	3688
3892.985	3682
3894.6	3756
3896.216	3776
3897.831	3778
3899.444	3688
3901.058	3713
3902.67	3706
3904.283	3696
3905.897	3730
3907.509	3683
3909.121	3734
3910.731	3655
3912.342	3680
3913.954	3708
3915.563	3704
3917.174	3802
3918.783	3636
3920.391	3707
3922.002	3674
3923.611	3697
3925.218	3599
3926.826	3667
3928.432	3709
3930.039	3561
3931.647	3650
3933.253	3693
3934.859	3607
3936.464	3608
3938.068	3642
3939.675	3652
3941.278	3692
3942.883	3650
3944.486	3665
3946.089	3712
3947.692	3649
3949.295	3576
3950.898	3573
3952.499	3620
3954.1	3560
3955.7	3594
3957.303	3604
3958.903	3705
3960.502	3559
3962.101	3658
3963.7	3511
3965.301	3668
3966.899	3574
3968.497	3567
3970.094	3589
3971.691	3554
3973.288	3505
3974.885	3562
3976.481	3486
3978.077	3555
3979.672	3559
3981.267	3586
3982.863	3576
3984.457	3526
3986.051	3446
3987.645	3600
3989.238	3500
3990.831	3473
3992.425	3499
3994.017	3471
3995.607	3527
3997.199	3445
3998.79	3487
4000.382	3484
4001.973	3530
4003.561	3499
4005.151	3484
4006.741	3362
4008.331	3498
4009.918	3466
4011.507	3481
4013.095	3438
4014.681	3364
4016.269	3464
4017.856	3405
4019.443	3479
4021.028	3447
4022.614	3427
4024.199	3347
4025.785	3463
4027.37	3440
4028.953	3385
4030.536	3438
4032.12	3349
4033.704	3407
4035.287	3357
4036.869	3450
4038.45	3381
4040.032	3341
4041.613	3407
4043.195	3383
4044.776	3306
4046.356	3270
4047.935	3379
4049.515	3388
4051.095	3290
4052.674	3311
4054.251	3417
4055.829	3403
4057.406	3285
4058.985	3359
4060.562	3370
4062.139	3209
4063.715	3369
4065.29	3354
4066.865	3317
4068.442	3276
4070.016	3243
4071.59	3349
4073.164	3349
4074.738	3288
4076.312	3267
4077.885	3257
4079.458	3276
4081.03	3232
4082.602	3231
4084.173	3251
4085.745	3267
4087.315	3253
4088.886	3343
4090.456	3281
4092.026	3274
4093.596	3309
4095.165	3316
4096.734	3248
4098.301	3262
4099.869	3301
4101.437	3248
4103.006	3254
4104.572	3266
4106.139	3269
4107.704	3225
4109.27	3212
4110.837	3234
4112.401	3164
4113.966	3222
4115.53	3293
4117.094	3209
4118.659	3182
4120.223	3229
4121.785	3187
4123.347	3143
4124.909	3267
4126.471	3194
4128.034	3187
4129.595	3211
4131.155	3139
4132.716	3116
4134.275	3169
4135.836	3139
4137.395	3157
4138.955	3185
4140.513	3138
4142.071	3159
4143.628	3113
4145.188	3098
4146.745	3169
4148.302	3159
4149.858	3000
4151.414	3144
4152.971	3143
4154.526	3177
4156.081	3161
4157.635	3195
4159.189	3128
4160.745	3122
4162.298	3131
4163.852	3124
4165.405	3100
4166.957	3087
4168.51	3019
4170.063	3088
4171.614	3149
4173.166	3138
4174.717	3068
4176.267	3090
4177.817	3026
4179.368	3029
4180.917	3075
4182.466	3045
4184.016	3084
4185.564	3024
4187.112	3021
4188.66	2994
4190.207	3051
4191.754	3005
4193.301	3028
4194.848	2978
4196.394	2993
4197.94	3036
4199.484	2951
4201.03	3083
4202.575	2993
4204.12	3037
4205.663	3078
4207.207	2968
4208.75	2964
4210.292	3002
4211.836	2963
4213.378	3002
4214.92	2994
4216.46	2970
4218.002	2990
4219.544	2867
4221.083	3023
4222.625	2940
4224.164	3000
4225.703	2991
4227.244	3007
4228.782	2955
4230.32	3003
4231.857	2919
4233.395	2912
4234.933	2976
4236.471	2930
4238.007	2956
4239.542	2897
4241.078	2946
4242.614	2868
4244.15	2959
4245.685	2926
4247.219	2913
4248.753	2910
4250.287	2967
4251.82	3004
4253.354	2899
4254.887	2892
4256.419	2990
4257.951	2872
4259.483	2920
4261.016	2915
4262.547	2874
4264.078	2858
4265.608	2903
4267.137	2890
4268.668	2960
4270.197	2881
4271.727	2893
4273.254	2865
4274.783	2847
4276.311	2858
4277.84	2864
4279.366	2896
4280.894	2868
4282.42	2888
4283.946	2826
4285.473	2800
4286.998	2833
4288.523	2818
4290.047	2872
4291.572	2813
4293.096	2881
4294.622	2815
4296.144	2869
4297.668	2910
4299.19	2840
4300.713	2774
4302.236	2745
4303.758	2789
4305.279	2853
4306.799	2835
4308.321	2771
4309.842	2855
4311.361	2897
4312.882	2788
4314.401	2778
