400.0961	4555
402.6185	4373
405.1424	4461
407.6635	4448
410.1838	4508
412.7035	4489
415.2225	4603
417.7388	4587
420.2585	4613
422.7754	4621
425.2917	4653
427.8072	4697
430.3221	4813
432.8363	4849
435.3498	4836
437.8626	4794
440.3727	4799
442.8841	4783
445.3969	4851
447.907	4827
450.4142	4697
452.9229	4777
455.4289	4744
457.9362	4809
460.4449	4801
462.9488	4739
465.454	4755
467.9566	4694
470.4604	4661
472.9637	4697
475.4662	4771
477.966	4759
480.4671	4856
482.9656	4684
485.4633	4742
487.9645	4836
490.4608	4763
492.9566	4816
495.4536	4774
497.948	4753
500.4437	4742
502.9387	4841
505.431	4762
507.9226	4828
510.4136	4880
512.9079	4764
515.3975	4893
517.8864	4834
520.3746	4874
522.8622	4845
525.3491	4976
527.8394	4888
530.3249	4864
532.8098	4923
535.2939	4930
537.7774	4919
540.2623	4798
542.7444	4889
545.2259	4968
547.7067	4904
550.1868	4879
552.6683	4919
555.147	4859
557.6231	4929
560.1005	5007
562.5773	4966
565.0534	4884
567.5308	4954
570.0056	5008
572.4776	5072
574.951	5081
577.4237	5196
579.8978	5120
582.3671	5217
584.8378	5144
587.3079	5247
589.7773	5255
592.244	5129
594.714	5171
597.1793	5136
599.6461	5144
602.1121	5120
604.5754	5095
607.0421	5139
609.5042	5192
611.9675	5089
614.4282	5118
616.8902	5031
619.3515	5152
621.8122	5105
624.2702	5103
626.7296	5061
629.1863	5133
631.6423	4976
634.1017	4950
636.5563	5063
639.0104	5060
641.4658	5027
643.9185	5026
646.3725	5040
648.8239	5034
651.2766	5102
653.7266	5151
656.176	5133
658.6247	5125
661.0748	5158
663.5242	5230
665.9709	5175
668.417	5186
670.8624	5117
673.3092	5188
675.7533	5173
678.1968	5233
680.6395	5226
683.0817	5166
685.5251	5152
687.9659	5237
690.4061	5395
692.8456	5164
695.2844	5231
697.7226	5242
700.1621	5218
702.599	5296
705.0332	5265
707.4688	5285
709.9036	5372
712.3399	5418
714.7735	5287
717.2044	5369
719.6367	5409
722.0683	5443
724.4993	5363
726.9296	5387
729.3593	5453
731.7883	5368
734.2147	5446
736.6423	5412
739.0714	5448
741.4958	5567
743.9216	5480
746.3447	5540
748.7691	5510
751.1929	5565
753.616	5556
756.0366	5570
758.4584	5514
760.8776	5545
763.2982	5517
765.718	5611
768.1373	5541
770.5539	5499
772.9698	5573
775.3871	5546
777.8038	5620
780.2178	5633
782.6332	5556
785.0459	5547
787.458	5638
789.8714	5644
792.2842	5690
794.6943	5646
797.1038	5596
799.5127	5617
801.9209	5601
804.3324	5729
806.7393	5601
809.1456	5607
811.5513	5834
813.9562	5756
816.3625	5787
818.7663	5689
821.1693	5707
823.5718	5745
825.9735	5721
828.3746	5644
830.7771	5799
833.177	5703
835.5762	5695
837.9747	5730
840.3727	5758
842.772	5758
845.1666	5800
847.5626	5760
849.958	5857
852.3527	5856
854.7488	5867
857.1403	5823
859.5331	5883
861.9253	5895
864.3168	5910
866.7057	5893
869.098	5931
871.4876	5830
873.8746	5990
876.263	5861
878.6487	5829
881.0378	5907
883.4243	5766
885.8081	5844
888.1933	5818
890.5759	5814
892.9598	5810
895.343	5761
897.7256	5904
900.1057	5766
902.4871	5861
904.8659	5921
907.246	5918
909.6254	5966
912.0023	5974
914.3786	6025
916.7562	6083
919.1331	6085
921.5074	6213
923.8831	6282
926.2562	6221
928.6287	6215
931.0005	6191
933.3757	6122
935.7462	6203
938.1162	6294
940.4855	6259
942.8542	6393
945.2242	6475
947.5916	6674
949.9584	6872
952.3266	6941
954.6921	7255
957.0571	7616
959.4233	7908
961.787	7976
964.15	7898
966.5125	7778
968.8742	7389
971.2354	6975
973.5959	6693
975.9559	6498
978.3151	6389
980.6738	6369
983.0338	6144
985.3912	6189
987.7461	6126
990.1022	6080
992.4578	6036
994.8127	6033
997.1689	6205
999.5207	6059
1001.874	6064
1004.226	6218
1006.576	6090
1008.929	6019
1011.28	6156
1013.628	6163
1015.977	6111
1018.324	6175
1020.674	6152
1023.019	6048
1025.366	6227
1027.713	6255
1030.056	6194
1032.399	6288
1034.746	6236
1037.087	6189
1039.431	6156
1041.771	6273
1044.113	6153
1046.454	6302
1048.793	6221
1051.133	6185
1053.471	6274
1055.807	6318
1058.146	6272
1060.483	6261
1062.818	6248
1065.153	6322
1067.489	6358
1069.822	6436
1072.156	6346
1074.488	6398
1076.82	6415
1079.15	6391
1081.48	6204
1083.814	6251
1086.143	6244
1088.471	6249
1090.799	6260
1093.126	6198
1095.452	6319
1097.78	6321
1100.105	6211
1102.43	6311
1104.754	6308
1107.077	6234
1109.4	6211
1111.722	6220
1114.044	6216
1116.365	6186
1118.685	6188
1121.005	6183
1123.324	6198
1125.643	6215
1127.961	6273
1130.278	6250
1132.595	6174
1134.911	6210
1137.226	6226
1139.541	6209
1141.854	6230
1144.167	6153
1146.482	6205
1148.793	6194
1151.105	6217
1153.414	6254
1155.725	6180
1158.033	6243
1160.344	6234
1162.651	6237
1164.959	6144
1167.265	6283
1169.572	6204
1171.878	6255
1174.184	6112
1176.488	6237
1178.79	6322
1181.094	6265
1183.396	6242
1185.699	6270
1188.001	6237
1190.301	6084
1192.6	6219
1194.9	6316
1197.2	6344
1199.497	6221
1201.794	6378
1204.09	6440
1206.387	6254
1208.684	6322
1210.978	6362
1213.272	6268
1215.565	6278
1217.858	6284
1220.15	6313
1222.443	6369
1224.734	6255
1227.024	6343
1229.313	6292
1231.602	6387
1233.892	6466
1236.18	6419
1238.467	6422
1240.754	6540
1243.04	6413
1245.325	6605
1247.612	6549
1249.896	6550
1252.178	6646
1254.461	6473
1256.743	6516
1259.027	6678
1261.308	6557
1263.587	6501
1265.867	6505
1268.146	6535
1270.425	6598
1272.703	6625
1274.981	6610
1277.256	6514
1279.532	6521
1281.808	6636
1284.083	6483
1286.358	6459
1288.63	6506
1290.904	6362
1293.175	6437
1295.449	6572
1297.719	6450
1299.99	6409
1302.259	6426
1304.529	6340
1306.798	6425
1309.065	6446
1311.333	6508
1313.599	6442
1315.866	6491
1318.131	6337
1320.396	6482
1322.66	6468
1324.925	6404
1327.187	6492
1329.448	6414
1331.711	6471
1333.974	6548
1336.234	6342
1338.493	6376
1340.752	6476
1343.01	6373
1345.269	6436
1347.526	6353
1349.784	6386
1352.04	6423
1354.295	6475
1356.552	6436
1358.806	6502
1361.059	6404
1363.312	6403
1365.564	6464
1367.818	6517
1370.069	6437
1372.318	6469
1374.568	6403
1376.817	6510
1379.066	6513
1381.316	6460
1383.564	6576
1385.809	6414
1388.056	6459
1390.301	6625
1392.549	6501
1394.793	6637
1397.036	6616
1399.279	6642
1401.522	6682
1403.763	6670
1406.007	6856
1408.248	6655
1410.487	6700
1412.727	6767
1414.965	6767
1417.205	6597
1419.442	6670
1421.68	6627
1423.915	6692
1426.152	6696
1428.388	6616
1430.623	6736
1432.857	6739
1435.091	6688
1437.323	6788
1439.556	6758
1441.789	6663
1444.019	6822
1446.25	6820
1448.48	6956
1450.708	6786
1452.938	6882
1455.167	6862
1457.394	6693
1459.62	6886
1461.846	6865
1464.073	6774
1466.299	6709
1468.523	6841
1470.746	6745
1472.969	6560
1475.191	6740
1477.415	6667
1479.636	6567
1481.858	6638
1484.078	6439
1486.298	6580
1488.518	6391
1490.736	6559
1492.954	6445
1495.169	6496
1497.386	6456
1499.602	6450
1501.819	6419
1504.034	6458
1506.248	6456
1508.462	6460
1510.675	6482
1512.888	6446
1515.1	6471
1517.311	6464
1519.522	6348
1521.732	6378
1523.942	6464
1526.151	6335
1528.36	6371
1530.566	6368
1532.773	6443
1534.98	6423
1537.187	6520
1539.392	6395
1541.596	6295
1543.801	6384
1546.005	6411
1548.208	6477
1550.411	6596
1552.612	6475
1554.814	6462
1557.013	6548
1559.212	6515
1561.414	6600
1563.612	6566
1565.811	6561
1568.007	6576
1570.203	6700
1572.403	6617
1574.598	6750
1576.792	6602
1578.988	6576
1581.181	6589
1583.376	6626
1585.568	6650
1587.761	6691
1589.952	6662
1592.143	6658
1594.333	6608
1596.524	6628
1598.715	6531
1600.903	6666
1603.091	6628
1605.278	6792
1607.466	6682
1609.652	6636
1611.838	6702
1614.023	6659
1616.207	6748
1618.391	6779
1620.576	6643
1622.759	6749
1624.941	6644
1627.123	6774
1629.304	6749
1631.484	6699
1633.664	6726
1635.844	6691
1638.022	6757
1640.201	6798
1642.38	6808
1644.556	6785
1646.732	6769
1648.908	6698
1651.084	6861
1653.257	6876
1655.433	6928
1657.607	6855
1659.779	6868
1661.951	6845
1664.122	6886
1666.295	6862
1668.467	6800
1670.635	6785
1672.805	6972
1674.973	6912
1677.142	6883
1679.31	6817
1681.478	6844
1683.644	6761
1685.81	6843
1687.975	6871
1690.142	6841
1692.305	6931
1694.468	6878
1696.632	6747
1698.794	6768
1700.957	6689
1703.119	6780
1705.279	6637
1707.439	6596
1709.598	6584
1711.758	6539
1713.917	6510
1716.075	6661
1718.231	6617
1720.388	6698
1722.543	6596
1724.702	6756
1726.856	6627
1729.01	6719
1731.164	6675
1733.317	6571
1735.471	6682
1737.623	6682
1739.774	6645
1741.925	6584
1744.075	6585
1746.225	6523
1748.376	6613
1750.524	6514
1752.672	6612
1754.82	6601
1756.965	6547
1759.113	6671
1761.259	6632
1763.405	6673
1765.549	6669
1767.694	6656
1769.836	6675
1771.981	6555
1774.123	6621
1776.264	6672
1778.405	6794
1780.546	6661
1782.687	6745
1784.827	6742
1786.966	6732
1789.103	6572
1791.242	6659
1793.381	6663
1795.517	6676
1797.653	6737
1799.788	6743
1801.923	6762
1804.057	6619
1806.193	6648
1808.326	6769
1810.457	6568
1812.59	6698
1814.721	6773
1816.855	6669
1818.984	6749
1821.113	6685
1823.244	6715
1825.372	6584
1827.499	6714
1829.63	6628
1831.756	6543
1833.882	6715
1836.007	6667
1838.132	6544
1840.26	6737
1842.384	6579
1844.507	6578
1846.63	6717
1848.752	6638
1850.875	6529
1852.996	6704
1855.118	6684
1857.238	6608
1859.358	6618
1861.477	6632
1863.597	6700
1865.715	6586
1867.832	6684
1869.948	6725
1872.064	6620
1874.181	6632
1876.297	6680
1878.411	6676
1880.526	6643
1882.639	6702
1884.752	6630
1886.865	6588
1888.977	6661
1891.089	6556
1893.2	6562
1895.308	6682
1897.42	6600
1899.53	6679
1901.639	6651
1903.745	6670
1905.853	6697
1907.962	6678
1910.067	6737
1912.174	6693
1914.278	6774
1916.383	6651
1918.486	6782
1920.592	6760
1922.694	6725
1924.797	6748
1926.898	6705
1929	6851
1931.102	6697
1933.203	6737
1935.301	6703
1937.401	6698
1939.499	6839
1941.598	6801
1943.697	6718
1945.793	6795
1947.888	6761
1949.985	6734
1952.08	6753
1954.176	6705
1956.269	6755
1958.364	6716
1960.457	6824
1962.549	6808
1964.642	6683
1966.733	6775
1968.823	6697
1970.913	6708
1973.005	6631
1975.093	6666
1977.184	6693
1979.271	6589
1981.359	6687
1983.446	6708
1985.532	6759
1987.619	6758
1989.705	6735
1991.789	6706
1993.874	6736
1995.956	6656
1998.041	6815
2000.123	6575
2002.206	6577
2004.287	6703
2006.368	6535
2008.449	6689
2010.529	6701
2012.609	6704
2014.688	6537
2016.766	6543
2018.843	6651
2020.922	6667
2022.999	6478
2025.074	6600
2027.15	6635
2029.225	6738
2031.299	6620
2033.375	6687
2035.447	6588
2037.52	6677
2039.592	6674
2041.664	6639
2043.736	6699
2045.807	6606
2047.876	6591
2049.947	6659
2052.015	6578
2054.086	6751
2056.153	6629
2058.221	6687
2060.288	6642
2062.353	6687
2064.42	6730
2066.486	6708
2068.55	6605
2070.614	6742
2072.678	6596
2074.741	6763
2076.805	6694
2078.866	6678
2080.929	6619
2082.99	6617
2085.049	6570
2087.109	6683
2089.17	6645
2091.228	6775
2093.286	6632
2095.344	6718
2097.4	6739
2099.46	6712
2101.516	6669
2103.572	6620
2105.626	6638
2107.679	6650
2109.735	6721
2111.788	6678
2113.841	6617
2115.894	6717
2117.945	6618
2119.997	6657
2122.049	6663
2124.1	6686
2126.148	6686
2128.197	6735
2130.246	6682
2132.296	6595
2134.342	6769
2136.39	6566
2138.437	6636
2140.483	6676
2142.527	6551
2144.574	6665
2146.619	6632
2148.661	6603
2150.705	6694
2152.747	6553
2154.792	6589
2156.832	6658
2158.874	6514
2160.915	6641
2162.954	6596
2164.995	6546
2167.034	6576
2169.072	6509
2171.111	6588
2173.148	6608
2175.186	6694
2177.223	6573
2179.258	6620
2181.294	6631
2183.328	6587
2185.362	6501
2187.398	6622
2189.431	6546
2191.463	6588
2193.495	6394
2195.528	6533
2197.56	6501
2199.59	6522
2201.62	6390
2203.649	6401
2205.678	6478
2207.708	6427
2209.737	6437
2211.764	6440
2213.791	6407
2215.817	6436
2217.843	6481
2219.87	6498
2221.895	6453
2223.919	6468
2225.942	6527
2227.966	6375
2229.988	6437
2232.012	6455
2234.032	6458
2236.054	6391
2238.074	6411
2240.095	6463
2242.116	6422
2244.135	6488
2246.153	6421
2248.171	6377
2250.188	6421
2252.208	6480
2254.223	6468
2256.239	6537
2258.255	6432
2260.269	6478
2262.283	6470
2264.3	6497
2266.312	6470
2268.325	6545
2270.336	6502
2272.349	6462
2274.362	6410
2276.372	6438
2278.383	6442
2280.392	6434
2282.402	6492
2284.409	6502
2286.418	6479
2288.427	6372
2290.433	6357
2292.441	6497
2294.446	6614
2296.453	6382
2298.459	6446
2300.463	6476
2302.466	6402
2304.471	6372
2306.475	6480
2308.477	6517
2310.478	6362
2312.481	6367
2314.481	6328
2316.481	6421
2318.482	6358
2320.482	6459
2322.48	6398
2324.48	6372
2326.478	6477
2328.476	6350
2330.473	6443
2332.469	6277
2334.465	6425
2336.46	6393
2338.454	6336
2340.45	6389
2342.444	6308
2344.437	6304
2346.43	6351
2348.421	6346
2350.414	6285
2352.405	6371
2354.396	6395
2356.386	6351
2358.376	6365
2360.366	6298
2362.355	6320
2364.343	6264
2366.331	6197
2368.317	6371
2370.304	6285
2372.292	6349
2374.278	6352
2376.262	6261
2378.247	6291
2380.23	6204
2382.216	6448
2384.199	6329
2386.181	6260
2388.163	6200
2390.144	6200
2392.127	6265
2394.107	6169
2396.087	6218
2398.066	6272
2400.046	6312
2402.023	6172
2404.004	6187
2405.981	6198
2407.957	6205
2409.934	6175
2411.91	6161
2413.886	6173
2415.862	6177
2417.836	6233
2419.809	6312
2421.784	6112
2423.756	6204
2425.73	6238
2427.701	6143
2429.672	6175
2431.644	6236
2433.615	6221
2435.586	6130
2437.555	6265
2439.523	6117
2441.491	6177
2443.459	6146
2445.428	6303
2447.395	6234
2449.361	6241
2451.327	6072
2453.292	6252
2455.257	6191
2457.223	6152
2459.187	6269
2461.15	6201
2463.113	6131
2465.076	6284
2467.039	6149
2468.999	6124
2470.96	6116
2472.921	6059
2474.881	6081
2476.841	6107
2478.8	6107
2480.759	6071
2482.717	6151
2484.675	6121
2486.63	6087
2488.589	6079
2490.545	6103
2492.5	6064
2494.455	5970
2496.408	6198
2498.364	6077
2500.318	6142
2502.27	6079
2504.223	6014
2506.174	6083
2508.126	6159
2510.078	6052
2512.03	6018
2513.979	6055
2515.927	6067
2517.877	6004
2519.826	6111
2521.775	6023
2523.722	6003
2525.668	6193
2527.616	5996
2529.561	6049
2531.508	6136
2533.452	6112
2535.398	6096
2537.342	6059
2539.284	5954
2541.229	6110
2543.173	6151
2545.114	6062
2547.055	6052
2548.996	5996
2550.938	6016
2552.878	6051
2554.817	6086
2556.756	6139
2558.695	6059
2560.633	6051
2562.572	5977
2564.509	6135
2566.445	6103
2568.382	5991
2570.317	6068
2572.254	6185
2574.189	6045
2576.123	5974
2578.057	6086
2579.99	6157
2581.923	5962
2583.855	5971
2585.788	6005
2587.719	6095
2589.65	6028
2591.579	6014
2593.511	6009
2595.44	6080
2597.37	6115
2599.297	5922
2601.225	6004
2603.153	5929
2605.08	6043
2607.007	5892
2608.932	6105
2610.858	6032
2612.782	6045
2614.709	6109
2616.632	6026
2618.556	6025
2620.478	6098
2622.401	6121
2624.324	6028
2626.247	6058
2628.167	6035
2630.088	5963
2632.008	6032
2633.928	6062
2635.848	6051
2637.766	6063
2639.684	6143
2641.603	6058
2643.519	6057
2645.437	6020
2647.353	6066
2649.27	6020
2651.184	6053
2653.099	6100
2655.014	6087
2656.928	6056
2658.842	6122
2660.755	6130
2662.667	6039
2664.579	6099
2666.491	5970
2668.402	5984
2670.312	5994
2672.222	6122
2674.132	6001
2676.042	5953
2677.951	5927
2679.859	5817
2681.766	6032
2683.674	6005
2685.582	6084
2687.488	5900
2689.392	6094
2691.298	5844
2693.202	5986
2695.107	5893
2697.012	5990
2698.914	6010
2700.817	5968
2702.72	6006
2704.622	5936
2706.524	6015
2708.425	5912
2710.326	5920
2712.225	6026
2714.125	5893
2716.024	5905
2717.923	5946
2719.822	5870
2721.719	5927
2723.616	5926
2725.512	5979
2727.41	5875
2729.305	5843
2731.201	5882
2733.095	5870
2734.99	5938
2736.884	5961
2738.778	5925
2740.67	5922
2742.562	5872
2744.455	5975
2746.346	5837
2748.238	5848
2750.129	5864
2752.018	5965
2753.907	5751
2755.797	5940
2757.687	5834
2759.575	5878
2761.462	5788
2763.349	5745
2765.237	5947
2767.124	5844
2769.009	5814
2770.894	5841
2772.779	5834
2774.663	5940
2776.547	5978
2778.431	5810
2780.314	5840
2782.197	5811
2784.078	5868
2785.96	5792
2787.842	5864
2789.723	5808
2791.603	5821
2793.483	5853
2795.362	5838
2797.241	5769
2799.121	5897
2800.997	5862
2802.874	5831
2804.751	5691
2806.628	5812
2808.506	5788
2810.38	5831
2812.255	5814
2814.13	5874
2816.003	5857
2817.878	5792
2819.752	5823
2821.623	5853
2823.496	5789
2825.368	5864
2827.238	5832
2829.111	5807
2830.98	5879
2832.851	5677
2834.719	5853
2836.589	5810
2838.458	5809
2840.327	5859
2842.193	5844
2844.061	5898
2845.927	5813
2847.794	5847
2849.66	5894
2851.525	5816
2853.39	5826
2855.254	5920
2857.117	5915
2858.983	5960
2860.845	5923
2862.707	5889
2864.569	6006
2866.431	5966
2868.293	6060
2870.154	5997
2872.013	6259
2873.873	6241
2875.733	6349
2877.592	6393
2879.451	6253
2881.309	6450
2883.166	6405
2885.022	6455
2886.879	6424
2888.736	6473
2890.591	6478
2892.446	6592
2894.301	6573
2896.155	6529
2898.009	6521
2899.863	6618
2901.716	6356
2903.568	6494
2905.419	6400
2907.27	6439
2909.123	6466
2910.973	6498
2912.824	6494
2914.673	6610
2916.521	6639
2918.372	6667
2920.22	6731
2922.067	6826
2923.914	6857
2925.761	6965
2927.607	6989
2929.455	6897
2931.301	7074
2933.144	7030
2934.99	7082
2936.833	7205
2938.678	7303
2940.522	7256
2942.364	7444
2944.207	7378
2946.048	7527
2947.891	7529
2949.731	7406
2951.571	7526
2953.412	7488
2955.25	7483
2957.09	7468
2958.93	7288
2960.767	7318
2962.606	7092
2964.443	7060
2966.279	6987
2968.116	6967
2969.953	6887
2971.788	6934
2973.623	6698
2975.457	6676
2977.292	6676
2979.127	6661
2980.959	6521
2982.792	6651
2984.624	6551
2986.455	6537
2988.288	6525
2990.119	6546
2991.949	6554
2993.779	6328
2995.608	6415
2997.439	6230
2999.268	6168
3001.096	6316
3002.923	6278
3004.751	6067
3006.578	6041
3008.406	5970
3010.232	5891
3012.057	5894
3013.883	5805
3015.706	5817
3017.532	5850
3019.356	5772
3021.179	5663
3023.002	5618
3024.823	5664
3026.646	5849
3028.469	5579
3030.289	5680
3032.11	5583
3033.93	5685
3035.749	5548
3037.57	5591
3039.39	5585
3041.207	5539
3043.026	5647
3044.842	5574
3046.661	5525
3048.477	5634
3050.294	5572
3052.109	5526
3053.925	5413
3055.739	5494
3057.555	5520
3059.368	5458
3061.181	5634
3062.995	5614
3064.807	5523
3066.62	5506
3068.433	5581
3070.243	5505
3072.054	5514
3073.865	5491
3075.675	5430
3077.485	5406
3079.293	5404
3081.102	5418
3082.911	5435
3084.719	5411
3086.527	5385
3088.333	5356
3090.139	5400
3091.945	5348
3093.75	5512
3095.557	5315
3097.361	5279
3099.165	5356
3100.969	5315
3102.772	5346
3104.575	5366
3106.379	5237
3108.181	5263
3109.982	5324
3111.783	5308
3113.584	5415
3115.386	5262
3117.186	5272
3118.985	5300
3120.783	5203
3122.582	5326
3124.381	5313
3126.179	5211
3127.975	5225
3129.772	5337
3131.569	5406
3133.365	5236
3135.161	5288
3136.956	5252
3138.751	5125
3140.544	5194
3142.338	5238
3144.132	5219
3145.925	5305
3147.717	5182
3149.509	5199
3151.301	5165
3153.091	5221
3154.884	5239
3156.673	5153
3158.462	5181
3160.252	5229
3162.041	5160
3163.831	5242
3165.618	5208
3167.405	5057
3169.193	5104
3170.979	5135
3172.767	5127
3174.553	5240
3176.338	5254
3178.123	5188
3179.907	5251
3181.692	5160
3183.477	5165
3185.259	5125
3187.042	5148
3188.824	5129
3190.607	5142
3192.389	5225
3194.17	5159
3195.951	5199
3197.73	5137
3199.51	5084
3201.289	5067
3203.07	5205
3204.848	5153
3206.626	5170
3208.403	5160
3210.18	5190
3211.959	5251
3213.735	5163
3215.511	5203
3217.285	5154
3219.06	5241
3220.836	5100
3222.611	5199
3224.384	5117
3226.158	5137
3227.929	5072
3229.702	5199
3231.476	5227
3233.248	5092
3235.018	5114
3236.789	5243
3238.56	5074
3240.33	5131
3242.1	5186
3243.869	5101
3245.637	5142
3247.405	5163
3249.172	5158
3250.941	5092
3252.707	4958
3254.474	5154
3256.24	5108
3258.006	5216
3259.772	5133
3261.537	5093
3263.301	5064
3265.065	5156
3266.828	5084
3268.592	5076
3270.355	5183
3272.117	5135
3273.878	5137
3275.64	5098
3277.401	5141
3279.162	5121
3280.922	5083
3282.682	5166
3284.441	5131
3286.199	5103
3287.959	5134
3289.716	5089
3291.475	5085
3293.232	5159
3294.988	5206
3296.744	5197
3298.501	5095
3300.256	5259
3302.011	5191
3303.766	5078
3305.52	5149
3307.275	5194
3309.028	5127
3310.781	5063
3312.533	5117
3314.285	5146
3316.038	5069
3317.789	5091
3319.54	5195
3321.289	5084
3323.039	5128
3324.789	5158
3326.539	5107
3328.288	4987
3330.035	5147
3331.783	5097
3333.531	5009
3335.28	5115
3337.025	5120
3338.771	5117
3340.518	5122
3342.262	5043
3344.009	5081
3345.753	5156
3347.497	5052
3349.24	5080
3350.983	4993
3352.726	5049
3354.469	4942
3356.212	5074
3357.952	4972
3359.694	5047
3361.434	5062
3363.176	5110
3364.916	4981
3366.654	4903
3368.394	4984
3370.132	5023
3371.871	4982
3373.61	4934
3375.346	4933
3377.083	4932
3378.82	4958
3380.556	4996
3382.292	4996
3384.027	4889
3385.763	4938
3387.497	4948
3389.231	4817
3390.965	4868
3392.698	4851
3394.431	4890
3396.164	4905
3397.896	4894
3399.627	4917
3401.36	4878
3403.09	4875
3404.82	4844
3406.55	4918
3408.279	4894
3410.01	4869
3411.738	4943
3413.467	4892
3415.194	4858
3416.92	4842
3418.647	4840
3420.375	4865
3422.102	4830
3423.827	4737
3425.553	4808
3427.277	4824
3429.003	4907
3430.727	4672
3432.451	4869
3434.173	4901
3435.896	4785
3437.62	4778
3439.343	4705
3441.063	4787
3442.785	4818
3444.505	4842
3446.226	4625
3447.948	4800
3449.666	4695
3451.386	4900
3453.104	4653
3454.823	4744
3456.541	4716
3458.259	4680
3459.976	4680
3461.693	4718
3463.408	4746
3465.125	4646
3466.841	4704
3468.556	4652
3470.271	4662
3471.985	4631
3473.698	4760
3475.414	4722
3477.126	4632
3478.838	4605
3480.55	4621
3482.263	4520
3483.975	4624
3485.686	4670
3487.396	4605
3489.106	4665
3490.817	4595
3492.526	4559
3494.236	4490
3495.944	4556
3497.652	4605
3499.359	4639
3501.066	4519
3502.775	4553
3504.481	4437
3506.187	4513
3507.893	4504
3509.598	4474
3511.304	4579
3513.009	4511
3514.713	4437
3516.417	4504
3518.12	4496
3519.821	4461
3521.525	4492
3523.228	4489
3524.929	4454
3526.631	4398
3528.33	4485
3530.032	4494
3531.733	4534
3533.433	4402
3535.131	4521
3536.83	4434
3538.529	4483
3540.227	4435
3541.925	4364
3543.623	4348
3545.319	4411
3547.016	4448
3548.712	4341
3550.408	4369
3552.103	4328
3553.798	4354
3555.491	4373
3557.188	4397
3558.88	4306
3560.574	4383
3562.266	4326
3563.959	4378
3565.651	4371
3567.343	4367
3569.035	4248
3570.725	4326
3572.415	4279
3574.106	4242
3575.797	4286
3577.485	4347
3579.174	4290
3580.863	4218
3582.551	4289
3584.238	4284
3585.926	4321
3587.613	4325
3589.3	4255
3590.986	4324
3592.671	4186
3594.357	4220
3596.042	4218
3597.726	4173
3599.41	4181
3601.094	4268
3602.778	4220
3604.461	4234
3606.143	4186
3607.825	4210
3609.507	4109
3611.188	4172
3612.87	4049
3614.551	4142
3616.229	4052
3617.909	4139
3619.589	4052
3621.269	4107
3622.948	4066
3624.625	4060
3626.302	4091
3627.98	4120
3629.657	4131
3631.334	3996
3633.01	4063
3634.686	4027
3636.361	3975
3638.036	3992
3639.712	4060
3641.385	4026
3643.06	3962
3644.732	3874
3646.405	3922
3648.08	3992
3649.751	3990
3651.424	3955
3653.094	3929
3654.766	3945
3656.436	4040
3658.106	3950
3659.777	3879
3661.446	4034
3663.115	3971
3664.783	3901
3666.452	3933
3668.121	3897
3669.788	3940
3671.454	3954
3673.121	3994
3674.789	3877
3676.455	3964
3678.12	3873
3679.784	3935
3681.45	3876
3683.114	3910
3684.779	3881
3686.442	3872
3688.105	3861
3689.768	3947
3691.43	3850
3693.093	4002
3694.754	3935
3696.415	3925
3698.076	3921
3699.736	3900
3701.396	3903
3703.057	3877
3704.716	3864
3706.375	3874
3708.034	3841
3709.692	3872
3711.351	3820
3713.008	3868
3714.665	3843
3716.321	3803
3717.977	3833
3719.634	3862
3721.29	3761
3722.945	3892
3724.598	3732
3726.253	3861
3727.907	3747
3729.561	3842
3731.214	3804
3732.867	3838
3734.518	3795
3736.171	3800
3737.824	3796
3739.474	3826
3741.125	3737
3742.775	3729
3744.425	3763
3746.074	3776
3747.725	3749
3749.373	3707
3751.022	3735
3752.669	3768
3754.318	3768
3755.966	3677
3757.612	3766
3759.259	3754
3760.905	3686
3762.55	3743
3764.197	3753
3765.842	3784
3767.486	3633
3769.131	3722
3770.774	3670
3772.417	3712
3774.061	3689
3775.705	3617
3777.347	3805
3778.988	3688
3780.629	3675
3782.271	3665
3783.912	3675
3785.552	3728
3787.192	3662
3788.831	3751
3790.472	3689
3792.112	3598
3793.75	3688
3795.388	3660
3797.024	3683
3798.661	3685
3800.3	3657
3801.936	3665
3803.572	3692
3805.208	3608
3806.844	3621
3808.48	3652
3810.115	3635
3811.748	3660
3813.382	3637
3815.016	3542
3816.649	3575
3818.283	3664
3819.914	3591
3821.547	3586
3823.178	3593
3824.809	3605
3826.441	3552
3828.072	3481
3829.701	3569
3831.331	3542
3832.96	3629
3834.591	3637
3836.219	3531
3837.847	3572
3839.475	3498
3841.102	3585
3842.729	3517
3844.357	3599
3845.984	3488
3847.609	3511
3849.234	3533
3850.86	3537
3852.485	3509
3854.11	3558
3855.734	3524
3857.357	3428
3858.981	3444
3860.603	3467
3862.227	3458
3863.848	3573
3865.471	3528
3867.092	3462
3868.713	3475
3870.334	3414
3871.954	3410
3873.575	3545
3875.194	3449
3876.813	3422
3878.433	3488
3880.051	3418
3881.669	3445
3883.286	3517
3884.904	3519
3886.52	3458
3888.138	3452
3889.754	3495
3891.37	3392
3892.985	3438
3894.6	3435
3896.216	3414
3897.831	3422
3899.444	3469
3901.058	3335
3902.67	3533
3904.283	3436
3905.897	3435
3907.509	3443
3909.121	3466
3910.731	3425
3912.342	3414
3913.954	3458
3915.563	3349
3917.174	3413
3918.783	3400
3920.391	3430
3922.002	3402
3923.611	3371
3925.218	3336
3926.826	3420
3928.432	3381
3930.039	3362
3931.647	3359
3933.253	3375
3934.859	3345
3936.464	3371
3938.068	3449
3939.675	3394
3941.278	3327
3942.883	3381
3944.486	3399
3946.089	3384
3947.692	3421
3949.295	3340
3950.898	3288
3952.499	3364
3954.1	3365
3955.7	3354
3957.303	3320
3958.903	3335
3960.502	3336
3962.101	3323
3963.7	3242
3965.301	3289
3966.899	3364
3968.497	3317
3970.094	3296
3971.691	3242
3973.288	3250
3974.885	3280
3976.481	3214
3978.077	3315
3979.672	3236
3981.267	3300
3982.863	3313
3984.457	3321
3986.051	3257
3987.645	3219
3989.238	3229
3990.831	3224
3992.425	3244
3994.017	3250
3995.607	3298
3997.199	3274
3998.79	3284
4000.382	3213
4001.973	3172
4003.561	3184
4005.151	3188
4006.741	3211
4008.331	3148
4009.918	3218
4011.507	3244
4013.095	3219
4014.681	3232
4016.269	3194
4017.856	3144
4019.443	3207
4021.028	3099
4022.614	3144
4024.199	3152
4025.785	3175
4027.37	3159
4028.953	3203
4030.536	3157
4032.12	3143
4033.704	3125
4035.287	3100
4036.869	3126
4038.45	3147
4040.032	3147
4041.613	3145
4043.195	3130
4044.776	3184
4046.356	3145
4047.935	3121
4049.515	3214
4051.095	3114
4052.674	3125
4054.251	3082
4055.829	3100
4057.406	3093
4058.985	3145
4060.562	3107
4062.139	3156
4063.715	3031
4065.29	3070
4066.865	3066
4068.442	3103
4070.016	3099
4071.59	3035
4073.164	3028
4074.738	3070
4076.312	3096
4077.885	3042
4079.458	3091
4081.03	3080
4082.602	3017
4084.173	3084
4085.745	2982
4087.315	3048
4088.886	3048
4090.456	3055
4092.026	3014
4093.596	3085
4095.165	3044
4096.734	3050
4098.301	3029
4099.869	3083
4101.437	3054
4103.006	2972
4104.572	2987
4106.139	3015
4107.704	2954
4109.27	2941
4110.837	2983
4112.401	2998
4113.966	3028
4115.53	3032
4117.094	2987
4118.659	2961
4120.223	3005
4121.785	3019
4123.347	3049
4124.909	3000
4126.471	2958
4128.034	2924
4129.595	2919
4131.155	3023
4132.716	2985
4134.275	2933
4135.836	3026
4137.395	2961
4138.955	2901
4140.513	2880
4142.071	2937
4143.628	2873
4145.188	2927
4146.745	2918
4148.302	2965
4149.858	2831
4151.414	2850
4152.971	2910
4154.526	2923
4156.081	2893
4157.635	2909
4159.189	2944
4160.745	2953
4162.298	2851
4163.852	2865
4165.405	2772
4166.957	2822
4168.51	2897
4170.063	2907
4171.614	2877
4173.166	2893
4174.717	2851
4176.267	2881
4177.817	2868
4179.368	2761
4180.917	2843
4182.466	2869
4184.016	2847
4185.564	2878
4187.112	2876
4188.66	2811
4190.207	2832
4191.754	2739
4193.301	2840
4194.848	2833
4196.394	2873
4197.94	2793
4199.484	2817
4201.03	2739
4202.575	2812
4204.12	2720
4205.663	2836
4207.207	2740
4208.75	2807
4210.292	2803
4211.836	2777
4213.378	2841
4214.92	2807
4216.46	2752
4218.002	2802
4219.544	2794
4221.083	2709
4222.625	2769
4224.164	2692
4225.703	2762
4227.244	2783
4228.782	2752
4230.32	2805
4231.857	2773
4233.395	2602
4234.933	2790
4236.471	2802
4238.007	2796
4239.542	2711
4241.078	2715
4242.614	2707
4244.15	2672
4245.685	2763
4247.219	2691
4248.753	2722
4250.287	2669
4251.82	2777
4253.354	2630
4254.887	2685
4256.419	2730
4257.951	2794
4259.483	2746
4261.016	2705
4262.547	2614
4264.078	2654
4265.608	2743
4267.137	2704
4268.668	2692
4270.197	2709
4271.727	2641
4273.254	2670
4274.783	2616
4276.311	2735
4277.84	2589
4279.366	2612
4280.894	2679
4282.42	2619
4283.946	2657
4285.473	2667
4286.998	2682
4288.523	2622
4290.047	2658
4291.572	2625
4293.096	2648
4294.622	2623
4296.144	2610
4297.668	2644
4299.19	2632
4300.713	2686
4302.236	2675
4303.758	2564
4305.279	2655
4306.799	2592
4308.321	2678
4309.842	2593
4311.361	2590
4312.882	2627
4314.401	2576
