400.0961	8103
402.6185	8204
405.1424	8173
407.6635	8082
410.1838	8185
412.7035	8066
415.2225	8186
417.7388	8256
420.2585	8406
422.7754	8436
425.2917	8476
427.8072	8564
430.3221	8508
432.8363	8599
435.3498	8591
437.8626	8750
440.3727	8597
442.8841	8599
445.3969	8738
447.907	8760
450.4142	8707
452.9229	8613
455.4289	8631
457.9362	8715
460.4449	8760
462.9488	8741
465.454	8677
467.9566	8811
470.4604	8777
472.9637	8757
475.4662	8838
477.966	8680
480.4671	8807
482.9656	8933
485.4633	8746
487.9645	9068
490.4608	8879
492.9566	8967
495.4536	8980
497.948	9006
500.4437	9110
502.9387	8985
505.431	9080
507.9226	9004
510.4136	9139
512.9079	9092
515.3975	9068
517.8864	9242
520.3746	9234
522.8622	9082
525.3491	9116
527.8394	9024
530.3249	9230
532.8098	9181
535.2939	9202
537.7774	9130
540.2623	9284
542.7444	9166
545.2259	9094
547.7067	9205
550.1868	9212
552.6683	9129
555.147	9295
557.6231	9210
560.1005	9233
562.5773	9330
565.0534	9139
567.5308	9306
570.0056	9362
572.4776	9346
574.951	9443
577.4237	9480
579.8978	9612
582.3671	9499
584.8378	9573
587.3079	9611
589.7773	9560
592.244	9594
594.714	9554
597.1793	9507
599.6461	9505
602.1121	9574
604.5754	9502
607.0421	9536
609.5042	9480
611.9675	9576
614.4282	9600
616.8902	9662
619.3515	9584
621.8122	9710
624.2702	9612
626.7296	9530
629.1863	9477
631.6423	9486
634.1017	9557
636.5563	9525
639.0104	9454
641.4658	9770
643.9185	9570
646.3725	9647
648.8239	9703
651.2766	9648
653.7266	9594
656.176	9722
658.6247	9658
661.0748	9705
663.5242	9841
665.9709	9687
668.417	9755
670.8624	9816
673.3092	9747
675.7533	9783
678.1968	9855
680.6395	9832
683.0817	9698
685.5251	10010
687.9659	9985
690.4061	10004
692.8456	9740
695.2844	9920
697.7226	9857
700.1621	10037
702.599	9810
705.0332	9953
707.4688	10082
709.9036	10053
712.3399	10101
714.7735	10062
717.2044	10090
719.6367	10187
722.0683	10141
724.4993	10141
726.9296	10222
729.3593	10191
731.7883	10174
734.2147	10276
736.6423	10326
739.0714	10460
741.4958	10401
743.9216	10444
746.3447	10387
748.7691	10436
751.1929	10565
753.616	10391
756.0366	10540
758.4584	10686
760.8776	10500
763.2982	10595
765.718	10586
768.1373	10679
770.5539	10734
772.9698	10790
775.3871	10549
777.8038	10508
780.2178	10605
782.6332	10666
785.0459	10813
787.458	10589
789.8714	10728
792.2842	10746
794.6943	10756
797.1038	10544
799.5127	10850
801.9209	10777
804.3324	10777
806.7393	10670
809.1456	10747
811.5513	10878
813.9562	10977
816.3625	10911
818.7663	10745
821.1693	10910
823.5718	10800
825.9735	10770
828.3746	10797
830.7771	10780
833.177	10732
835.5762	10691
837.9747	10888
840.3727	10795
842.772	10897
845.1666	11166
847.5626	11048
849.958	10938
852.3527	11098
854.7488	11061
857.1403	10957
859.5331	11042
861.9253	10912
864.3168	10994
866.7057	10930
869.098	11037
871.4876	11009
873.8746	10971
876.263	10945
878.6487	10942
881.0378	10933
883.4243	10980
885.8081	11002
888.1933	10989
890.5759	10862
892.9598	11060
895.343	11047
897.7256	10963
900.1057	10808
902.4871	11054
904.8659	10997
907.246	11144
909.6254	10975
912.0023	11200
914.3786	11119
916.7562	11299
919.1331	11245
921.5074	11502
923.8831	11352
926.2562	11379
928.6287	11422
931.0005	11475
933.3757	11534
935.7462	11642
938.1162	11459
940.4855	11684
942.8542	11559
945.2242	11629
947.5916	11907
949.9584	11985
952.3266	12165
954.6921	12334
957.0571	12651
959.4233	13025
961.787	12950
964.15	12978
966.5125	12702
968.8742	12412
971.2354	12302
973.5959	11925
975.9559	11654
978.3151	11588
980.6738	11518
983.0338	11541
985.3912	11418
987.7461	11490
990.1022	11208
992.4578	11437
994.8127	11210
997.1689	11417
999.5207	11385
1001.874	11399
1004.226	11415
1006.576	11406
1008.929	11583
1011.28	11505
1013.628	11329
1015.977	11472
1018.324	11505
1020.674	11513
1023.019	11392
1025.366	11590
1027.713	11390
1030.056	11367
1032.399	11443
1034.746	11545
1037.087	11424
1039.431	11534
1041.771	11581
1044.113	11444
1046.454	11556
1048.793	11537
1051.133	11513
1053.471	11546
1055.807	11787
1058.146	11596
1060.483	11716
1062.818	11540
1065.153	11668
1067.489	11806
1069.822	11715
1072.156	11745
1074.488	11724
1076.82	11863
1079.15	11689
1081.48	11741
1083.814	11645
1086.143	11722
1088.471	11794
1090.799	11670
1093.126	11523
1095.452	11668
1097.78	11679
1100.105	11650
1102.43	11710
1104.754	11582
1107.077	11530
1109.4	11708
1111.722	11670
1114.044	11702
1116.365	11759
1118.685	11598
1121.005	11872
1123.324	11735
1125.643	11697
1127.961	11839
1130.278	11782
1132.595	11772
1134.911	11849
1137.226	11752
1139.541	11851
1141.854	11905
1144.167	11709
1146.482	11774
1148.793	11769
1151.105	11870
1153.414	11802
1155.725	11638
1158.033	11763
1160.344	11733
1162.651	11643
1164.959	11785
1167.265	11951
1169.572	11778
1171.878	11818
1174.184	11909
1176.488	11751
1178.79	11895
1181.094	11764
1183.396	11766
1185.699	11642
1188.001	11776
1190.301	11812
1192.6	11775
1194.9	11747
1197.2	11955
1199.497	11848
1201.794	11811
1204.09	11752
1206.387	11781
1208.684	11822
1210.978	11864
1213.272	11745
1215.565	11800
1217.858	11861
1220.15	11712
1222.443	11823
1224.734	11901
1227.024	12043
1229.313	11934
1231.602	11972
1233.892	12061
1236.18	12010
1238.467	12030
1240.754	12106
1243.04	12189
1245.325	12194
1247.612	12244
1249.896	12113
1252.178	11982
1254.461	12242
1256.743	12051
1259.027	12137
1261.308	12104
1263.587	12141
1265.867	12135
1268.146	12293
1270.425	12164
1272.703	12243
1274.981	12193
1277.256	12033
1279.532	12116
1281.808	12126
1284.083	12082
1286.358	12041
1288.63	12099
1290.904	11957
1293.175	12038
1295.449	12071
1297.719	12067
1299.99	12089
1302.259	11895
1304.529	12071
1306.798	12112
1309.065	11951
1311.333	11893
1313.599	12031
1315.866	12180
1318.131	11972
1320.396	12090
1322.66	12084
1324.925	11991
1327.187	12169
1329.448	12072
1331.711	12191
1333.974	12153
1336.234	12042
1338.493	12179
1340.752	12007
1343.01	12095
1345.269	12043
1347.526	12062
1349.784	12095
1352.04	12277
1354.295	11997
1356.552	12022
1358.806	12077
1361.059	12194
1363.312	12072
1365.564	12004
1367.818	12159
1370.069	12179
1372.318	12035
1374.568	12026
1376.817	12204
1379.066	12092
1381.316	12099
1383.564	12093
1385.809	11965
1388.056	12166
1390.301	12318
1392.549	12319
1394.793	12420
1397.036	12413
1399.279	12340
1401.522	12350
1403.763	12347
1406.007	12364
1408.248	12240
1410.487	12373
1412.727	12371
1414.965	12494
1417.205	12280
1419.442	12511
1421.68	12351
1423.915	12576
1426.152	12333
1428.388	12257
1430.623	12275
1432.857	12565
1435.091	12464
1437.323	12458
1439.556	12365
1441.789	12535
1444.019	12555
1446.25	12532
1448.48	12652
1450.708	12617
1452.938	12693
1455.167	12567
1457.394	12710
1459.62	12456
1461.846	12493
1464.073	12487
1466.299	12500
1468.523	12427
1470.746	12377
1472.969	12456
1475.191	12414
1477.415	12478
1479.636	12162
1481.858	12218
1484.078	12326
1486.298	12270
1488.518	12019
1490.736	12118
1492.954	12169
1495.169	12268
1497.386	12147
1499.602	12135
1501.819	12154
1504.034	11946
1506.248	12162
1508.462	12011
1510.675	12136
1512.888	12104
1515.1	12004
1517.311	12187
1519.522	12138
1521.732	11995
1523.942	12135
1526.151	12123
1528.36	12185
1530.566	11943
1532.773	12054
1534.98	12167
1537.187	12101
1539.392	12255
1541.596	12023
1543.801	12204
1546.005	12174
1548.208	12285
1550.411	12120
1552.612	12306
1554.814	12181
1557.013	12016
1559.212	12377
1561.414	12385
1563.612	12449
1565.811	12374
1568.007	12302
1570.203	12318
1572.403	12426
1574.598	12363
1576.792	12499
1578.988	12401
1581.181	12465
1583.376	12430
1585.568	12506
1587.761	12372
1589.952	12515
1592.143	12537
1594.333	12506
1596.524	12483
1598.715	12589
1600.903	12541
1603.091	12332
1605.278	12508
1607.466	12417
1609.652	12509
1611.838	12443
1614.023	12499
1616.207	12526
1618.391	12606
1620.576	12342
1622.759	12482
1624.941	12521
1627.123	12531
1629.304	12638
1631.484	12595
1633.664	12845
1635.844	12600
1638.022	12547
1640.201	12406
1642.38	12639
1644.556	12632
1646.732	12712
1648.908	12576
1651.084	12616
1653.257	12593
1655.433	12807
1657.607	12549
1659.779	12724
1661.951	12543
1664.122	12610
1666.295	12654
1668.467	12722
1670.635	12741
1672.805	12844
1674.973	12557
1677.142	12684
1679.31	12744
1681.478	12754
1683.644	12541
1685.81	12587
1687.975	12691
1690.142	12644
1692.305	12450
1694.468	12728
1696.632	12721
1698.794	12478
1700.957	12510
1703.119	12449
1705.279	12492
1707.439	12446
1709.598	12477
1711.758	12394
1713.917	12370
1716.075	12488
1718.231	12328
1720.388	12408
1722.543	12349
1724.702	12501
1726.856	12568
1729.01	12471
1731.164	12495
1733.317	12580
1735.471	12469
1737.623	12445
1739.774	12612
1741.925	12479
1744.075	12430
1746.225	12487
1748.376	12210
1750.524	12479
1752.672	12270
1754.82	12379
1756.965	12489
1759.113	12438
1761.259	12553
1763.405	12503
1765.549	12538
1767.694	12603
1769.836	12535
1771.981	12551
1774.123	12514
1776.264	12556
1778.405	12561
1780.546	12560
1782.687	12748
1784.827	12572
1786.966	12757
1789.103	12438
1791.242	12764
1793.381	12576
1795.517	12697
1797.653	12594
1799.788	12554
1801.923	12498
1804.057	12448
1806.193	12563
1808.326	12536
1810.457	12414
1812.59	12590
1814.721	12574
1816.855	12603
1818.984	12599
1821.113	12562
1823.244	12584
1825.372	12535
1827.499	12595
1829.63	12481
1831.756	12412
1833.882	12605
1836.007	12528
1838.132	12441
1840.26	12437
1842.384	12424
1844.507	12500
1846.63	12396
1848.752	12499
1850.875	12389
1852.996	12564
1855.118	12568
1857.238	12371
1859.358	12458
1861.477	12354
1863.597	12403
1865.715	12403
1867.832	12487
1869.948	12417
1872.064	12384
1874.181	12371
1876.297	12363
1878.411	12429
1880.526	12439
1882.639	12294
1884.752	12301
1886.865	12408
1888.977	12481
1891.089	12278
1893.2	12499
1895.308	12348
1897.42	12619
1899.53	12487
1901.639	12349
1903.745	12480
1905.853	12512
1907.962	12426
1910.067	12589
1912.174	12561
1914.278	12530
1916.383	12640
1918.486	12510
1920.592	12509
1922.694	12526
1924.797	12633
1926.898	12714
1929	12733
1931.102	12527
1933.203	12551
1935.301	12632
1937.401	12476
1939.499	12549
1941.598	12618
1943.697	12605
1945.793	12555
1947.888	12666
1949.985	12759
1952.08	12625
1954.176	12764
1956.269	12594
1958.364	12504
1960.457	12575
1962.549	12552
1964.642	12444
1966.733	12675
1968.823	12486
1970.913	12567
1973.005	12396
1975.093	12675
1977.184	12402
1979.271	12530
1981.359	12449
1983.446	12495
1985.532	12601
1987.619	12436
1989.705	12470
1991.789	12581
1993.874	12548
1995.956	12357
1998.041	12445
2000.123	12456
2002.206	12414
2004.287	12509
2006.368	12248
2008.449	12314
2010.529	12444
2012.609	12354
2014.688	12294
2016.766	12405
2018.843	12224
2020.922	12433
2022.999	12464
2025.074	12432
2027.15	12356
2029.225	12359
2031.299	12417
2033.375	12344
2035.447	12350
2037.52	12407
2039.592	12308
2041.664	12414
2043.736	12380
2045.807	12345
2047.876	12479
2049.947	12475
2052.015	12490
2054.086	12387
2056.153	12525
2058.221	12360
2060.288	12531
2062.353	12509
2064.42	12278
2066.486	12320
2068.55	12372
2070.614	12350
2072.678	12573
2074.741	12522
2076.805	12438
2078.866	12354
2080.929	12427
2082.99	12291
2085.049	12383
2087.109	12370
2089.17	12269
2091.228	12457
2093.286	12188
2095.344	12467
2097.4	12424
2099.46	12283
2101.516	12546
2103.572	12277
2105.626	12370
2107.679	12346
2109.735	12377
2111.788	12209
2113.841	12342
2115.894	12259
2117.945	12459
2119.997	12315
2122.049	12321
2124.1	12409
2126.148	12406
2128.197	12320
2130.246	12473
2132.296	12305
2134.342	12426
2136.39	12264
2138.437	12324
2140.483	12174
2142.527	12311
2144.574	12304
2146.619	12322
2148.661	12150
2150.705	12115
2152.747	12332
2154.792	12155
2156.832	12382
2158.874	12336
2160.915	12163
2162.954	12277
2164.995	12119
2167.034	12183
2169.072	12147
2171.111	12253
2173.148	12115
2175.186	12101
2177.223	12098
2179.258	12131
2181.294	12297
2183.328	12074
2185.362	12027
2187.398	12060
2189.431	12057
2191.463	12258
2193.495	12154
2195.528	11906
2197.56	12220
2199.59	12097
2201.62	12135
2203.649	12021
2205.678	12106
2207.708	12099
2209.737	12006
2211.764	11930
2213.791	11959
2215.817	11881
2217.843	11966
2219.87	11814
2221.895	12032
2223.919	11941
2225.942	12101
2227.966	11935
2229.988	12009
2232.012	11976
2234.032	11967
2236.054	11891
2238.074	11989
2240.095	11839
2242.116	11893
2244.135	12073
2246.153	11839
2248.171	12088
2250.188	12088
2252.208	11961
2254.223	11956
2256.239	12057
2258.255	11881
2260.269	11857
2262.283	12038
2264.3	11883
2266.312	11794
2268.325	12042
2270.336	11825
2272.349	11887
2274.362	11961
2276.372	12023
2278.383	11932
2280.392	11807
2282.402	11914
2284.409	11903
2286.418	11796
2288.427	11819
2290.433	11946
2292.441	11925
2294.446	11950
2296.453	11939
2298.459	12032
2300.463	11803
2302.466	11918
2304.471	11818
2306.475	11820
2308.477	11812
2310.478	11851
2312.481	11783
2314.481	11565
2316.481	11716
2318.482	11846
2320.482	11850
2322.48	11839
2324.48	11813
2326.478	11676
2328.476	11734
2330.473	11817
2332.469	11626
2334.465	11651
2336.46	11664
2338.454	11568
2340.45	11824
2342.444	11704
2344.437	11637
2346.43	11859
2348.421	11635
2350.414	11574
2352.405	11607
2354.396	11702
2356.386	11568
2358.376	11472
2360.366	11692
2362.355	11524
2364.343	11636
2366.331	11678
2368.317	11727
2370.304	11498
2372.292	11496
2374.278	11455
2376.262	11799
2378.247	11424
2380.23	11689
2382.216	11463
2384.199	11525
2386.181	11502
2388.163	11438
2390.144	11505
2392.127	11519
2394.107	11413
2396.087	11591
2398.066	11528
2400.046	11576
2402.023	11357
2404.004	11368
2405.981	11468
2407.957	11455
2409.934	11280
2411.91	11377
2413.886	11398
2415.862	11307
2417.836	11460
2419.809	11477
2421.784	11247
2423.756	11373
2425.73	11309
2427.701	11407
2429.672	11414
2431.644	11272
2433.615	11433
2435.586	11279
2437.555	11374
2439.523	11389
2441.491	11402
2443.459	11386
2445.428	11354
2447.395	11075
2449.361	11377
2451.327	11339
2453.292	11222
2455.257	11083
2457.223	11475
2459.187	11237
2461.15	11275
2463.113	11247
2465.076	11154
2467.039	11200
2468.999	11236
2470.96	11204
2472.921	11112
2474.881	11344
2476.841	11094
2478.8	11178
2480.759	11183
2482.717	11102
2484.675	11107
2486.63	11069
2488.589	11118
2490.545	11120
2492.5	11270
2494.455	11253
2496.408	11027
2498.364	11051
2500.318	11080
2502.27	11210
2504.223	10978
2506.174	11314
2508.126	11106
2510.078	10990
2512.03	11173
2513.979	11047
2515.927	11106
2517.877	11166
2519.826	11114
2521.775	11174
2523.722	11108
2525.668	11057
2527.616	11067
2529.561	11058
2531.508	11085
2533.452	11128
2535.398	11011
2537.342	11023
2539.284	11020
2541.229	10983
2543.173	10970
2545.114	10996
2547.055	10983
2548.996	10890
2550.938	11115
2552.878	11020
2554.817	10954
2556.756	10958
2558.695	10949
2560.633	10819
2562.572	11034
2564.509	11002
2566.445	10952
2568.382	10887
2570.317	11089
2572.254	10786
2574.189	11073
2576.123	11061
2578.057	11061
2579.99	10920
2581.923	11011
2583.855	10905
2585.788	10988
2587.719	10840
2589.65	10884
2591.579	10894
2593.511	10970
2595.44	11108
2597.37	10861
2599.297	11028
2601.225	10964
2603.153	11017
2605.08	10956
2607.007	11041
2608.932	10999
2610.858	10871
2612.782	10880
2614.709	10937
2616.632	10897
2618.556	10971
2620.478	11109
2622.401	11038
2624.324	11042
2626.247	11002
2628.167	10884
2630.088	11095
2632.008	10827
2633.928	11101
2635.848	10826
2637.766	10931
2639.684	11037
2641.603	11010
2643.519	10910
2645.437	10964
2647.353	11003
2649.27	10785
2651.184	11016
2653.099	10947
2655.014	10944
2656.928	11016
2658.842	10917
2660.755	10876
2662.667	10871
2664.579	11010
2666.491	10799
2668.402	10945
2670.312	10943
2672.222	10955
2674.132	10872
2676.042	10770
2677.951	10980
2679.859	10849
2681.766	10779
2683.674	10867
2685.582	10790
2687.488	10880
2689.392	10708
2691.298	10769
2693.202	10738
2695.107	10870
2697.012	10737
2698.914	10756
2700.817	10813
2702.72	10705
2704.622	10766
2706.524	10733
2708.425	10613
2710.326	10711
2712.225	10752
2714.125	10523
2716.024	10670
2717.923	10681
2719.822	10756
2721.719	10621
2723.616	10687
2725.512	10665
2727.41	10469
2729.305	10629
2731.201	10582
2733.095	10640
2734.99	10694
2736.884	10603
2738.778	10654
2740.67	10661
2742.562	10594
2744.455	10745
2746.346	10559
2748.238	10750
2750.129	10540
2752.018	10661
2753.907	10513
2755.797	10488
2757.687	10495
2759.575	10531
2761.462	10711
2763.349	10555
2765.237	10585
2767.124	10557
2769.009	10454
2770.894	10513
2772.779	10489
2774.663	10519
2776.547	10521
2778.431	10528
2780.314	10507
2782.197	10472
2784.078	10481
2785.96	10334
2787.842	10538
2789.723	10457
2791.603	10467
2793.483	10415
2795.362	10494
2797.241	10498
2799.121	10360
2800.997	10462
2802.874	10556
2804.751	10439
2806.628	10265
2808.506	10396
2810.38	10351
2812.255	10360
2814.13	10354
2816.003	10358
2817.878	10434
2819.752	10399
2821.623	10442
2823.496	10356
2825.368	10412
2827.238	10381
2829.111	10398
2830.98	10272
2832.851	10304
2834.719	10403
2836.589	10424
2838.458	10398
2840.327	10217
2842.193	10549
2844.061	10357
2845.927	10340
2847.794	10432
2849.66	10439
2851.525	10318
2853.39	10460
2855.254	10260
2857.117	10323
2858.983	10533
2860.845	10537
2862.707	10390
2864.569	10607
2866.431	10593
2868.293	10525
2870.154	10567
2872.013	10666
2873.873	10722
2875.733	10685
2877.592	10775
2879.451	10741
2881.309	10894
2883.166	10894
2885.022	11029
2886.879	10880
2888.736	10935
2890.591	10948
2892.446	10940
2894.301	11034
2896.155	10905
2898.009	10900
2899.863	10929
2901.716	10838
2903.568	11007
2905.419	11038
2907.27	10813
2909.123	10858
2910.973	10896
2912.824	11079
2914.673	11043
2916.521	10889
2918.372	11076
2920.22	11053
2922.067	11167
2923.914	11225
2925.761	11415
2927.607	11281
2929.455	11243
2931.301	11456
2933.144	11516
2934.99	11518
2936.833	11405
2938.678	11723
2940.522	11598
2942.364	11773
2944.207	11802
2946.048	11842
2947.891	11972
2949.731	11789
2951.571	11918
2953.412	11959
2955.25	11687
2957.09	11733
2958.93	11631
2960.767	11644
2962.606	11422
2964.443	11346
2966.279	11327
2968.116	11277
2969.953	11187
2971.788	11152
2973.623	10895
2975.457	10990
2977.292	10833
2979.127	10807
2980.959	10852
2982.792	10820
2984.624	10743
2986.455	10761
2988.288	10775
2990.119	10678
2991.949	10471
2993.779	10486
2995.608	10551
2997.439	10580
2999.268	10467
3001.096	10301
3002.923	10310
3004.751	10270
3006.578	10199
3008.406	10236
3010.232	10294
3012.057	10202
3013.883	9990
3015.706	10047
3017.532	9873
3019.356	9900
3021.179	9806
3023.002	10109
3024.823	9742
3026.646	9823
3028.469	9706
3030.289	9811
3032.11	9733
3033.93	9665
3035.749	9551
3037.57	9744
3039.39	9787
3041.207	9671
3043.026	9732
3044.842	9761
3046.661	9664
3048.477	9767
3050.294	9692
3052.109	9652
3053.925	9542
3055.739	9620
3057.555	9617
3059.368	9699
3061.181	9717
3062.995	9439
3064.807	9552
3066.62	9427
3068.433	9666
3070.243	9587
3072.054	9522
3073.865	9630
3075.675	9514
3077.485	9568
3079.293	9477
3081.102	9405
3082.911	9404
3084.719	9381
3086.527	9446
3088.333	9452
3090.139	9349
3091.945	9183
3093.75	9417
3095.557	9257
3097.361	9435
3099.165	9263
3100.969	9324
3102.772	9197
3104.575	9348
3106.379	9364
3108.181	9303
3109.982	9314
3111.783	9209
3113.584	9161
3115.386	9129
3117.186	9320
3118.985	9200
3120.783	9103
3122.582	9110
3124.381	9252
3126.179	9157
3127.975	9175
3129.772	9124
3131.569	9077
3133.365	9240
3135.161	9177
3136.956	9186
3138.751	9056
3140.544	9024
3142.338	9040
3144.132	9103
3145.925	8972
3147.717	9162
3149.509	9032
3151.301	9012
3153.091	9061
3154.884	9004
3156.673	9042
3158.462	8996
3160.252	9127
3162.041	8898
3163.831	9001
3165.618	8836
3167.405	8925
3169.193	9032
3170.979	8835
3172.767	8886
3174.553	8869
3176.338	8961
3178.123	8896
3179.907	9052
3181.692	8849
3183.477	8983
3185.259	8818
3187.042	8836
3188.824	8812
3190.607	8842
3192.389	8802
3194.17	8828
3195.951	8870
3197.73	8883
3199.51	8860
3201.289	8899
3203.07	8816
3204.848	8845
3206.626	8833
3208.403	8633
3210.18	8866
3211.959	8868
3213.735	8814
3215.511	8767
3217.285	8763
3219.06	8724
3220.836	8790
3222.611	8820
3224.384	8780
3226.158	8920
3227.929	8734
3229.702	8838
3231.476	8681
3233.248	8844
3235.018	8755
3236.789	8723
3238.56	8737
3240.33	8790
3242.1	8782
3243.869	8703
3245.637	8754
3247.405	8750
3249.172	8778
3250.941	8860
3252.707	8713
3254.474	8669
3256.24	8747
3258.006	8693
3259.772	8785
3261.537	8790
3263.301	8644
3265.065	8685
3266.828	8627
3268.592	8770
3270.355	8680
3272.117	8723
3273.878	8622
3275.64	8739
3277.401	8747
3279.162	8606
3280.922	8655
3282.682	8627
3284.441	8518
3286.199	8712
3287.959	8705
3289.716	8636
3291.475	8696
3293.232	8638
3294.988	8667
3296.744	8587
3298.501	8545
3300.256	8624
3302.011	8585
3303.766	8593
3305.52	8734
3307.275	8728
3309.028	8558
3310.781	8630
3312.533	8581
3314.285	8507
3316.038	8650
3317.789	8632
3319.54	8631
3321.289	8549
3323.039	8698
3324.789	8432
3326.539	8479
3328.288	8567
3330.035	8640
3331.783	8498
3333.531	8527
3335.28	8553
3337.025	8574
3338.771	8560
3340.518	8518
3342.262	8529
3344.009	8483
3345.753	8354
3347.497	8419
3349.24	8474
3350.983	8531
3352.726	8515
3354.469	8366
3356.212	8463
3357.952	8392
3359.694	8345
3361.434	8451
3363.176	8329
3364.916	8410
3366.654	8529
3368.394	8474
3370.132	8390
3371.871	8287
3373.61	8376
3375.346	8267
3377.083	8405
3378.82	8262
3380.556	8349
3382.292	8303
3384.027	8436
3385.763	8250
3387.497	8323
3389.231	8349
3390.965	8407
3392.698	8277
3394.431	8343
3396.164	8219
3397.896	8237
3399.627	8078
3401.36	8287
3403.09	8338
3404.82	8197
3406.55	8397
3408.279	8109
3410.01	8212
3411.738	8205
3413.467	8334
3415.194	8018
3416.92	8279
3418.647	8073
3420.375	8020
3422.102	8162
3423.827	8121
3425.553	8258
3427.277	8037
3429.003	8007
3430.727	7998
3432.451	8138
3434.173	8070
3435.896	8056
3437.62	7989
3439.343	8170
3441.063	7915
3442.785	8045
3444.505	7906
3446.226	7887
3447.948	8057
3449.666	8006
3451.386	8111
3453.104	7911
3454.823	7868
3456.541	7975
3458.259	7834
3459.976	7820
3461.693	7887
3463.408	7833
3465.125	7873
3466.841	7919
3468.556	7843
3470.271	7761
3471.985	7736
3473.698	7828
3475.414	7996
3477.126	7903
3478.838	7718
3480.55	7655
3482.263	7682
3483.975	7814
3485.686	7803
3487.396	7767
3489.106	7784
3490.817	7597
3492.526	7701
3494.236	7562
3495.944	7700
3497.652	7579
3499.359	7667
3501.066	7708
3502.775	7665
3504.481	7633
3506.187	7535
3507.893	7630
3509.598	7603
3511.304	7578
3513.009	7618
3514.713	7542
3516.417	7649
3518.12	7584
3519.821	7509
3521.525	7425
3523.228	7429
3524.929	7546
3526.631	7492
3528.33	7447
3530.032	7566
3531.733	7479
3533.433	7523
3535.131	7427
3536.83	7503
3538.529	7494
3540.227	7441
3541.925	7378
3543.623	7372
3545.319	7416
3547.016	7380
3548.712	7360
3550.408	7399
3552.103	7455
3553.798	7451
3555.491	7326
3557.188	7284
3558.88	7288
3560.574	7343
3562.266	7312
3563.959	7529
3565.651	7329
3567.343	7271
3569.035	7348
3570.725	7477
3572.415	7228
3574.106	7297
3575.797	7245
3577.485	7288
3579.174	7238
3580.863	7244
3582.551	7266
3584.238	7199
3585.926	7247
3587.613	7396
3589.3	7200
3590.986	7245
3592.671	7083
3594.357	7118
3596.042	7277
3597.726	7115
3599.41	7045
3601.094	7047
3602.778	7138
3604.461	7052
3606.143	7079
3607.825	7147
3609.507	7141
3611.188	7102
3612.87	7122
3614.551	7064
3616.229	7068
3617.909	6961
3619.589	7022
3621.269	7009
3622.948	6978
3624.625	7013
3626.302	6982
3627.98	6947
3629.657	7001
3631.334	6870
3633.01	6909
3634.686	6982
3636.361	6962
3638.036	6944
3639.712	6905
3641.385	6839
3643.06	6820
3644.732	6876
3646.405	6888
3648.08	6875
3649.751	6963
3651.424	6688
3653.094	6914
3654.766	6756
3656.436	6813
3658.106	6739
3659.777	6803
3661.446	6708
3663.115	6645
3664.783	6788
3666.452	6807
3668.121	6756
3669.788	6783
3671.454	6710
3673.121	6688
3674.789	6724
3676.455	6611
3678.12	6710
3679.784	6679
3681.45	6755
3683.114	6784
3684.779	6731
3686.442	6696
3688.105	6569
3689.768	6692
3691.43	6541
3693.093	6578
3694.754	6724
3696.415	6596
3698.076	6525
3699.736	6599
3701.396	6521
3703.057	6550
3704.716	6597
3706.375	6635
3708.034	6622
3709.692	6510
3711.351	6567
3713.008	6600
3714.665	6604
3716.321	6578
3717.977	6561
3719.634	6540
3721.29	6582
3722.945	6646
3724.598	6420
3726.253	6504
3727.907	6440
3729.561	6543
3731.214	6577
3732.867	6526
3734.518	6630
3736.171	6570
3737.824	6489
3739.474	6429
3741.125	6431
3742.775	6376
3744.425	6514
3746.074	6485
3747.725	6465
3749.373	6446
3751.022	6421
3752.669	6374
3754.318	6399
3755.966	6407
3757.612	6378
3759.259	6283
3760.905	6351
3762.55	6424
3764.197	6367
3765.842	6259
3767.486	6340
3769.131	6243
3770.774	6314
3772.417	6296
3774.061	6404
3775.705	6347
3777.347	6364
3778.988	6338
3780.629	6272
3782.271	6330
3783.912	6143
3785.552	6261
3787.192	6236
3788.831	6280
3790.472	6345
3792.112	6279
3793.75	6421
3795.388	6102
3797.024	6220
3798.661	6219
3800.3	6169
3801.936	6106
3803.572	6205
3805.208	6049
3806.844	6227
3808.48	6221
3810.115	6135
3811.748	6173
3813.382	6174
3815.016	6126
3816.649	6118
3818.283	6162
3819.914	6039
3821.547	6058
3823.178	6180
3824.809	6011
3826.441	6107
3828.072	6126
3829.701	6066
3831.331	6092
3832.96	6089
3834.591	6063
3836.219	6164
3837.847	5998
3839.475	6061
3841.102	6007
3842.729	6009
3844.357	5938
3845.984	6085
3847.609	6011
3849.234	6129
3850.86	6073
3852.485	6050
3854.11	6025
3855.734	5931
3857.357	5989
3858.981	5825
3860.603	5996
3862.227	5974
3863.848	5916
3865.471	5949
3867.092	6020
3868.713	5999
3870.334	5929
3871.954	5831
3873.575	5950
3875.194	5815
3876.813	5995
3878.433	5871
3880.051	5739
3881.669	5874
3883.286	5863
3884.904	5791
3886.52	5847
3888.138	5856
3889.754	5835
3891.37	5955
3892.985	5788
3894.6	5750
3896.216	5813
3897.831	5849
3899.444	5921
3901.058	5786
3902.67	5769
3904.283	5835
3905.897	5863
3907.509	5811
3909.121	5892
3910.731	5708
3912.342	5769
3913.954	5668
3915.563	5817
3917.174	5744
3918.783	5826
3920.391	5846
3922.002	5706
3923.611	5730
3925.218	5886
3926.826	5799
3928.432	5671
3930.039	5711
3931.647	5742
3933.253	5709
3934.859	5831
3936.464	5668
3938.068	5791
3939.675	5725
3941.278	5742
3942.883	5607
3944.486	5771
3946.089	5707
3947.692	5685
3949.295	5766
3950.898	5692
3952.499	5686
3954.1	5625
3955.7	5622
3957.303	5649
3958.903	5622
3960.502	5649
3962.101	5752
3963.7	5603
3965.301	5661
3966.899	5567
3968.497	5582
3970.094	5648
3971.691	5551
3973.288	5552
3974.885	5674
3976.481	5540
3978.077	5524
3979.672	5570
3981.267	5487
3982.863	5517
3984.457	5408
3986.051	5574
3987.645	5501
3989.238	5591
3990.831	5582
3992.425	5504
3994.017	5432
3995.607	5528
3997.199	5543
3998.79	5401
4000.382	5605
4001.973	5422
4003.561	5442
4005.151	5356
4006.741	5307
4008.331	5459
4009.918	5409
4011.507	5362
4013.095	5478
4014.681	5374
4016.269	5434
4017.856	5279
4019.443	5415
4021.028	5348
4022.614	5303
4024.199	5386
4025.785	5248
4027.37	5401
4028.953	5329
4030.536	5319
4032.12	5267
4033.704	5215
4035.287	5288
4036.869	5292
4038.45	5302
4040.032	5188
4041.613	5283
4043.195	5173
4044.776	5211
4046.356	5188
4047.935	5168
4049.515	5224
4051.095	5191
4052.674	5184
4054.251	5174
4055.829	5275
4057.406	5203
4058.985	5140
4060.562	5124
4062.139	5071
4063.715	5211
4065.29	5156
4066.865	5084
4068.442	5096
4070.016	5105
4071.59	5032
4073.164	5115
4074.738	5051
4076.312	5083
4077.885	5174
4079.458	5147
4081.03	5120
4082.602	5164
4084.173	5091
4085.745	5071
4087.315	5060
4088.886	5048
4090.456	5067
4092.026	5102
4093.596	5081
4095.165	5038
4096.734	4933
4098.301	5073
4099.869	5117
4101.437	5110
4103.006	5057
4104.572	4940
4106.139	4897
4107.704	5020
4109.27	4992
4110.837	4961
4112.401	5034
4113.966	5036
4115.53	5042
4117.094	4952
4118.659	5026
4120.223	5043
4121.785	5009
4123.347	4887
4124.909	4804
4126.471	4931
4128.034	4866
4129.595	4892
4131.155	4998
4132.716	4892
4134.275	4919
4135.836	4914
4137.395	4860
4138.955	4872
4140.513	4817
4142.071	4892
4143.628	4944
4145.188	4870
4146.745	4801
4148.302	4936
4149.858	4831
4151.414	4787
4152.971	4895
4154.526	4769
4156.081	4823
4157.635	4863
4159.189	4817
4160.745	4750
4162.298	4728
4163.852	4740
4165.405	4808
4166.957	4699
4168.51	4787
4170.063	4816
4171.614	4723
4173.166	4824
4174.717	4662
4176.267	4824
4177.817	4748
4179.368	4746
4180.917	4671
4182.466	4744
4184.016	4722
4185.564	4651
4187.112	4697
4188.66	4632
4190.207	4742
4191.754	4480
4193.301	4685
4194.848	4649
4196.394	4634
4197.94	4636
4199.484	4672
4201.03	4667
4202.575	4634
4204.12	4621
4205.663	4607
4207.207	4585
4208.75	4675
4210.292	4578
4211.836	4633
4213.378	4608
4214.92	4581
4216.46	4614
4218.002	4497
4219.544	4503
4221.083	4593
4222.625	4611
4224.164	4587
4225.703	4456
4227.244	4555
4228.782	4523
4230.32	4626
4231.857	4527
4233.395	4543
4234.933	4593
4236.471	4457
4238.007	4536
4239.542	4496
4241.078	4429
4242.614	4502
4244.15	4520
4245.685	4503
4247.219	4468
4248.753	4524
4250.287	4503
4251.82	4450
4253.354	4562
4254.887	4504
4256.419	4543
4257.951	4480
4259.483	4416
4261.016	4406
4262.547	4429
4264.078	4473
4265.608	4475
4267.137	4500
4268.668	4400
4270.197	4455
4271.727	4374
4273.254	4411
4274.783	4408
4276.311	4376
4277.84	4329
4279.366	4424
4280.894	4466
4282.42	4328
4283.946	4423
4285.473	4379
4286.998	4384
4288.523	4376
4290.047	4372
4291.572	4368
4293.096	4377
4294.622	4383
4296.144	4497
4297.668	4274
4299.19	4361
4300.713	4394
4302.236	4275
4303.758	4244
4305.279	4315
4306.799	4315
4308.321	4300
4309.842	4245
4311.361	4294
4312.882	4271
4314.401	4309
