400.0961	5447
402.6185	5358
405.1424	5391
407.6635	5501
410.1838	5383
412.7035	5491
415.2225	5529
417.7388	5588
420.2585	5630
422.7754	5625
425.2917	5736
427.8072	5716
430.3221	5953
432.8363	5749
435.3498	5832
437.8626	5859
440.3727	5834
442.8841	5885
445.3969	5788
447.907	5922
450.4142	5832
452.9229	5789
455.4289	5850
457.9362	5880
460.4449	5835
462.9488	5918
465.454	5802
467.9566	5779
470.4604	5845
472.9637	5914
475.4662	5914
477.966	5836
480.4671	5762
482.9656	5880
485.4633	5862
487.9645	5956
490.4608	5887
492.9566	5918
495.4536	5898
497.948	5996
500.4437	5954
502.9387	5941
505.431	5927
507.9226	5963
510.4136	6004
512.9079	5963
515.3975	5939
517.8864	6068
520.3746	5998
522.8622	6015
525.3491	5911
527.8394	6032
530.3249	6001
532.8098	6141
535.2939	6000
537.7774	6031
540.2623	6009
542.7444	6043
545.2259	6067
547.7067	6050
550.1868	6068
552.6683	6170
555.147	6094
557.6231	6060
560.1005	6141
562.5773	6120
565.0534	6109
567.5308	6206
570.0056	6260
572.4776	6292
574.951	6177
577.4237	6239
579.8978	6288
582.3671	6298
584.8378	6390
587.3079	6358
589.7773	6331
592.244	6376
594.714	6306
597.1793	6298
599.6461	6208
602.1121	6272
604.5754	6284
607.0421	6292
609.5042	6271
611.9675	6281
614.4282	6369
616.8902	6235
619.3515	6235
621.8122	6249
624.2702	6237
626.7296	6261
629.1863	6259
631.6423	6163
634.1017	6285
636.5563	6281
639.0104	6335
641.4658	6309
643.9185	6198
646.3725	6285
648.8239	6289
651.2766	6466
653.7266	6344
656.176	6394
658.6247	6331
661.0748	6422
663.5242	6413
665.9709	6454
668.417	6380
670.8624	6477
673.3092	6395
675.7533	6397
678.1968	6362
680.6395	6508
683.0817	6490
685.5251	6494
687.9659	6571
690.4061	6509
692.8456	6503
695.2844	6512
697.7226	6431
700.1621	6568
702.599	6520
705.0332	6665
707.4688	6604
709.9036	6406
712.3399	6605
714.7735	6632
717.2044	6634
719.6367	6673
722.0683	6731
724.4993	6625
726.9296	6723
729.3593	6715
731.7883	6635
734.2147	6718
736.6423	6623
739.0714	6713
741.4958	6882
743.9216	6827
746.3447	6830
748.7691	6698
751.1929	6847
753.616	6874
756.0366	6872
758.4584	6930
760.8776	6950
763.2982	7000
765.718	7050
768.1373	7120
770.5539	6881
772.9698	7034
775.3871	6965
777.8038	7084
780.2178	6864
782.6332	6971
785.0459	6983
787.458	6996
789.8714	6963
792.2842	6977
794.6943	6925
797.1038	7107
799.5127	6970
801.9209	6963
804.3324	7029
806.7393	7115
809.1456	7057
811.5513	7000
813.9562	7074
816.3625	7092
818.7663	7130
821.1693	7062
823.5718	7026
825.9735	7014
828.3746	6999
830.7771	6969
833.177	6997
835.5762	7128
837.9747	7136
840.3727	7148
842.772	7151
845.1666	7246
847.5626	7276
849.958	7232
852.3527	7221
854.7488	7375
857.1403	7289
859.5331	7405
861.9253	7273
864.3168	7251
866.7057	7349
869.098	7423
871.4876	7298
873.8746	7187
876.263	7174
878.6487	7269
881.0378	7256
883.4243	7117
885.8081	7376
888.1933	7269
890.5759	7242
892.9598	7241
895.343	7285
897.7256	7316
900.1057	7209
902.4871	7158
904.8659	7330
907.246	7136
909.6254	7354
912.0023	7401
914.3786	7469
916.7562	7404
919.1331	7534
921.5074	7473
923.8831	7592
926.2562	7580
928.6287	7610
931.0005	7678
933.3757	7781
935.7462	7731
938.1162	7732
940.4855	7979
942.8542	7881
945.2242	8046
947.5916	8146
949.9584	8354
952.3266	8519
954.6921	9027
957.0571	9302
959.4233	9655
961.787	9895
964.15	9793
966.5125	9396
968.8742	8775
971.2354	8463
973.5959	8292
975.9559	8111
978.3151	7795
980.6738	7728
983.0338	7606
985.3912	7696
987.7461	7570
990.1022	7510
992.4578	7500
994.8127	7576
997.1689	7581
999.5207	7495
1001.874	7659
1004.226	7746
1006.576	7524
1008.929	7781
1011.28	7691
1013.628	7521
1015.977	7550
1018.324	7665
1020.674	7619
1023.019	7606
1025.366	7608
1027.713	7725
1030.056	7649
1032.399	7708
1034.746	7569
1037.087	7760
1039.431	7785
1041.771	7790
1044.113	7667
1046.454	7700
1048.793	7685
1051.133	7782
1053.471	7675
1055.807	7818
1058.146	7787
1060.483	7719
1062.818	7847
1065.153	7951
1067.489	7871
1069.822	7862
1072.156	7857
1074.488	8010
1076.82	7979
1079.15	7956
1081.48	7885
1083.814	7884
1086.143	7817
1088.471	7823
1090.799	7574
1093.126	7598
1095.452	7691
1097.78	7739
1100.105	7667
1102.43	7798
1104.754	7894
1107.077	7651
1109.4	7718
1111.722	7707
1114.044	7589
1116.365	7661
1118.685	7666
1121.005	7628
1123.324	7733
1125.643	7700
1127.961	7798
1130.278	7624
1132.595	7658
1134.911	7759
1137.226	7621
1139.541	7714
1141.854	7775
1144.167	7621
1146.482	7839
1148.793	7749
1151.105	7758
1153.414	7667
1155.725	7662
1158.033	7673
1160.344	7740
1162.651	7875
1164.959	7766
1167.265	7895
1169.572	7782
1171.878	7708
1174.184	7802
1176.488	7664
1178.79	7677
1181.094	7883
1183.396	7746
1185.699	7826
1188.001	7744
1190.301	7786
1192.6	7821
1194.9	7805
1197.2	7794
1199.497	7770
1201.794	7824
1204.09	7671
1206.387	7853
1208.684	7894
1210.978	7762
1213.272	7756
1215.565	7773
1217.858	7824
1220.15	7877
1222.443	7799
1224.734	7950
1227.024	7966
1229.313	7829
1231.602	8006
1233.892	7907
1236.18	7925
1238.467	8029
1240.754	8119
1243.04	8086
1245.325	8080
1247.612	8126
1249.896	8078
1252.178	8144
1254.461	8003
1256.743	8182
1259.027	8109
1261.308	8093
1263.587	8118
1265.867	8018
1268.146	8041
1270.425	8200
1272.703	8113
1274.981	8002
1277.256	8139
1279.532	8135
1281.808	8062
1284.083	8041
1286.358	8077
1288.63	8131
1290.904	8031
1293.175	8005
1295.449	8075
1297.719	7879
1299.99	8060
1302.259	7991
1304.529	7960
1306.798	7995
1309.065	7974
1311.333	8070
1313.599	8032
1315.866	7977
1318.131	8029
1320.396	7958
1322.66	8041
1324.925	7978
1327.187	8023
1329.448	7858
1331.711	7957
1333.974	8079
1336.234	7969
1338.493	7960
1340.752	7916
1343.01	7997
1345.269	8075
1347.526	7912
1349.784	8009
1352.04	7974
1354.295	7956
1356.552	8026
1358.806	8075
1361.059	8008
1363.312	7995
1365.564	7921
1367.818	7983
1370.069	8012
1372.318	8040
1374.568	7948
1376.817	7988
1379.066	7932
1381.316	8087
1383.564	8055
1385.809	7899
1388.056	8105
1390.301	8117
1392.549	8129
1394.793	8146
1397.036	8200
1399.279	8212
1401.522	8149
1403.763	8236
1406.007	8163
1408.248	8393
1410.487	8229
1412.727	8127
1414.965	8144
1417.205	8272
1419.442	8348
1421.68	8103
1423.915	8186
1426.152	8160
1428.388	8246
1430.623	8134
1432.857	8107
1435.091	8256
1437.323	8401
1439.556	8467
1441.789	8285
1444.019	8357
1446.25	8387
1448.48	8362
1450.708	8421
1452.938	8293
1455.167	8418
1457.394	8346
1459.62	8428
1461.846	8457
1464.073	8397
1466.299	8319
1468.523	8295
1470.746	8326
1472.969	8353
1475.191	8189
1477.415	8149
1479.636	8135
1481.858	8291
1484.078	8017
1486.298	8103
1488.518	8023
1490.736	8038
1492.954	8063
1495.169	8063
1497.386	7974
1499.602	8047
1501.819	7936
1504.034	7960
1506.248	7895
1508.462	8107
1510.675	8128
1512.888	8022
1515.1	7964
1517.311	7990
1519.522	7825
1521.732	7939
1523.942	8050
1526.151	8012
1528.36	8021
1530.566	7893
1532.773	7965
1534.98	7901
1537.187	8056
1539.392	7961
1541.596	8124
1543.801	8039
1546.005	7961
1548.208	8024
1550.411	8108
1552.612	8023
1554.814	8007
1557.013	8009
1559.212	8044
1561.414	8161
1563.612	7982
1565.811	8116
1568.007	8146
1570.203	8189
1572.403	8151
1574.598	8179
1576.792	8173
1578.988	8180
1581.181	8069
1583.376	8212
1585.568	8118
1587.761	8195
1589.952	8326
1592.143	8262
1594.333	8141
1596.524	8186
1598.715	8216
1600.903	8235
1603.091	8279
1605.278	8334
1607.466	8265
1609.652	8095
1611.838	8245
1614.023	8218
1616.207	8386
1618.391	8314
1620.576	8208
1622.759	8352
1624.941	8205
1627.123	8281
1629.304	8402
1631.484	8334
1633.664	8262
1635.844	8425
1638.022	8363
1640.201	8411
1642.38	8256
1644.556	8419
1646.732	8296
1648.908	8511
1651.084	8404
1653.257	8452
1655.433	8349
1657.607	8445
1659.779	8464
1661.951	8330
1664.122	8548
1666.295	8527
1668.467	8419
1670.635	8576
1672.805	8452
1674.973	8550
1677.142	8461
1679.31	8487
1681.478	8425
1683.644	8474
1685.81	8448
1687.975	8308
1690.142	8444
1692.305	8439
1694.468	8377
1696.632	8275
1698.794	8404
1700.957	8318
1703.119	8245
1705.279	8263
1707.439	8182
1709.598	8336
1711.758	8319
1713.917	8282
1716.075	8227
1718.231	8188
1720.388	8285
1722.543	8276
1724.702	8325
1726.856	8242
1729.01	8246
1731.164	8171
1733.317	8268
1735.471	8264
1737.623	8128
1739.774	8246
1741.925	8261
1744.075	8270
1746.225	8275
1748.376	8222
1750.524	8233
1752.672	8235
1754.82	8273
1756.965	8340
1759.113	8322
1761.259	8376
1763.405	8399
1765.549	8215
1767.694	8211
1769.836	8370
1771.981	8371
1774.123	8297
1776.264	8304
1778.405	8369
1780.546	8277
1782.687	8358
1784.827	8374
1786.966	8397
1789.103	8229
1791.242	8371
1793.381	8447
1795.517	8315
1797.653	8247
1799.788	8253
1801.923	8340
1804.057	8344
1806.193	8305
1808.326	8397
1810.457	8363
1812.59	8313
1814.721	8433
1816.855	8326
1818.984	8298
1821.113	8324
1823.244	8363
1825.372	8391
1827.499	8241
1829.63	8264
1831.756	8275
1833.882	8153
1836.007	8160
1838.132	8212
1840.26	8366
1842.384	8174
1844.507	8300
1846.63	8247
1848.752	8256
1850.875	8204
1852.996	8215
1855.118	8396
1857.238	8219
1859.358	8207
1861.477	8291
1863.597	8175
1865.715	8226
1867.832	8286
1869.948	8242
1872.064	8114
1874.181	8271
1876.297	8175
1878.411	8261
1880.526	8322
1882.639	8180
1884.752	8277
1886.865	8252
1888.977	8131
1891.089	8276
1893.2	8314
1895.308	8274
1897.42	8276
1899.53	8312
1901.639	8371
1903.745	8313
1905.853	8263
1907.962	8347
1910.067	8371
1912.174	8334
1914.278	8284
1916.383	8351
1918.486	8494
1920.592	8298
1922.694	8313
1924.797	8342
1926.898	8393
1929	8458
1931.102	8295
1933.203	8328
1935.301	8277
1937.401	8380
1939.499	8400
1941.598	8246
1943.697	8341
1945.793	8319
1947.888	8500
1949.985	8315
1952.08	8266
1954.176	8398
1956.269	8255
1958.364	8327
1960.457	8418
1962.549	8283
1964.642	8430
1966.733	8235
1968.823	8309
1970.913	8260
1973.005	8333
1975.093	8317
1977.184	8372
1979.271	8347
1981.359	8292
1983.446	8223
1985.532	8383
1987.619	8284
1989.705	8251
1991.789	8153
1993.874	8204
1995.956	8285
1998.041	8241
2000.123	8226
2002.206	8217
2004.287	8337
2006.368	8263
2008.449	8208
2010.529	8305
2012.609	8321
2014.688	8232
2016.766	8178
2018.843	8231
2020.922	8265
2022.999	8341
2025.074	8252
2027.15	8309
2029.225	8096
2031.299	8349
2033.375	8269
2035.447	8304
2037.52	8303
2039.592	8102
2041.664	8186
2043.736	8271
2045.807	8248
2047.876	8215
2049.947	8141
2052.015	8246
2054.086	8204
2056.153	8237
2058.221	8219
2060.288	8246
2062.353	8270
2064.42	8201
2066.486	8146
2068.55	8290
2070.614	8160
2072.678	8411
2074.741	8362
2076.805	8277
2078.866	8225
2080.929	8167
2082.99	8236
2085.049	8143
2087.109	8207
2089.17	8212
2091.228	8178
2093.286	8319
2095.344	8378
2097.4	8271
2099.46	8249
2101.516	8213
2103.572	8257
2105.626	8186
2107.679	8270
2109.735	8281
2111.788	8187
2113.841	8198
2115.894	8213
2117.945	8243
2119.997	8247
2122.049	8303
2124.1	8194
2126.148	8205
2128.197	8140
2130.246	8388
2132.296	8377
2134.342	8148
2136.39	8237
2138.437	8165
2140.483	8267
2142.527	8164
2144.574	8153
2146.619	8119
2148.661	8145
2150.705	8198
2152.747	8156
2154.792	8214
2156.832	8124
2158.874	8302
2160.915	8040
2162.954	8196
2164.995	8199
2167.034	8152
2169.072	8093
2171.111	8169
2173.148	8265
2175.186	8189
2177.223	8056
2179.258	8154
2181.294	8085
2183.328	8163
2185.362	8112
2187.398	8147
2189.431	8014
2191.463	8092
2193.495	8054
2195.528	8068
2197.56	8064
2199.59	8110
2201.62	8106
2203.649	8075
2205.678	8084
2207.708	8079
2209.737	7965
2211.764	7985
2213.791	8117
2215.817	8027
2217.843	8075
2219.87	8051
2221.895	7908
2223.919	8066
2225.942	8033
2227.966	7954
2229.988	7998
2232.012	7941
2234.032	8030
2236.054	8125
2238.074	7971
2240.095	7915
2242.116	7962
2244.135	8002
2246.153	7989
2248.171	7953
2250.188	7972
2252.208	7951
2254.223	7991
2256.239	7975
2258.255	8005
2260.269	7895
2262.283	7988
2264.3	8055
2266.312	7989
2268.325	7903
2270.336	7822
2272.349	7959
2274.362	8011
2276.372	7888
2278.383	7950
2280.392	7809
2282.402	7995
2284.409	8086
2286.418	7886
2288.427	8013
2290.433	7992
2292.441	7989
2294.446	7949
2296.453	7966
2298.459	7971
2300.463	7901
2302.466	8063
2304.471	8042
2306.475	7973
2308.477	7918
2310.478	7791
2312.481	8036
2314.481	7816
2316.481	7933
2318.482	7890
2320.482	7937
2322.48	7929
2324.48	7935
2326.478	7794
2328.476	7862
2330.473	7778
2332.469	7815
2334.465	8002
2336.46	7772
2338.454	7818
2340.45	7819
2342.444	7873
2344.437	7827
2346.43	7751
2348.421	7822
2350.414	7787
2352.405	7721
2354.396	7783
2356.386	7675
2358.376	7798
2360.366	7781
2362.355	7851
2364.343	7772
2366.331	7685
2368.317	7638
2370.304	7836
2372.292	7796
2374.278	7715
2376.262	7819
2378.247	7740
2380.23	7759
2382.216	7774
2384.199	7598
2386.181	7689
2388.163	7799
2390.144	7644
2392.127	7813
2394.107	7613
2396.087	7748
2398.066	7715
2400.046	7807
2402.023	7709
2404.004	7637
2405.981	7734
2407.957	7565
2409.934	7722
2411.91	7639
2413.886	7581
2415.862	7646
2417.836	7736
2419.809	7688
2421.784	7577
2423.756	7626
2425.73	7574
2427.701	7762
2429.672	7674
2431.644	7701
2433.615	7643
2435.586	7591
2437.555	7663
2439.523	7644
2441.491	7634
2443.459	7584
2445.428	7634
2447.395	7624
2449.361	7704
2451.327	7599
2453.292	7490
2455.257	7488
2457.223	7606
2459.187	7523
2461.15	7517
2463.113	7603
2465.076	7669
2467.039	7533
2468.999	7565
2470.96	7479
2472.921	7535
2474.881	7553
2476.841	7576
2478.8	7529
2480.759	7603
2482.717	7517
2484.675	7573
2486.63	7613
2488.589	7467
2490.545	7492
2492.5	7474
2494.455	7524
2496.408	7414
2498.364	7328
2500.318	7412
2502.27	7476
2504.223	7291
2506.174	7492
2508.126	7523
2510.078	7505
2512.03	7517
2513.979	7399
2515.927	7406
2517.877	7418
2519.826	7524
2521.775	7517
2523.722	7389
2525.668	7381
2527.616	7425
2529.561	7429
2531.508	7442
2533.452	7531
2535.398	7372
2537.342	7433
2539.284	7414
2541.229	7328
2543.173	7431
2545.114	7388
2547.055	7492
2548.996	7408
2550.938	7450
2552.878	7409
2554.817	7401
2556.756	7476
2558.695	7438
2560.633	7504
2562.572	7430
2564.509	7369
2566.445	7422
2568.382	7466
2570.317	7484
2572.254	7451
2574.189	7502
2576.123	7405
2578.057	7343
2579.99	7428
2581.923	7446
2583.855	7456
2585.788	7434
2587.719	7303
2589.65	7421
2591.579	7390
2593.511	7406
2595.44	7523
2597.37	7388
2599.297	7492
2601.225	7518
2603.153	7400
2605.08	7480
2607.007	7530
2608.932	7448
2610.858	7325
2612.782	7292
2614.709	7443
2616.632	7381
2618.556	7413
2620.478	7333
2622.401	7404
2624.324	7439
2626.247	7414
2628.167	7361
2630.088	7477
2632.008	7479
2633.928	7414
2635.848	7446
2637.766	7365
2639.684	7455
2641.603	7434
2643.519	7296
2645.437	7397
2647.353	7457
2649.27	7331
2651.184	7331
2653.099	7454
2655.014	7300
2656.928	7327
2658.842	7402
2660.755	7418
2662.667	7343
2664.579	7358
2666.491	7289
2668.402	7422
2670.312	7385
2672.222	7324
2674.132	7359
2676.042	7432
2677.951	7433
2679.859	7412
2681.766	7453
2683.674	7409
2685.582	7332
2687.488	7301
2689.392	7333
2691.298	7269
2693.202	7292
2695.107	7320
2697.012	7347
2698.914	7283
2700.817	7228
2702.72	7170
2704.622	7268
2706.524	7371
2708.425	7211
2710.326	7251
2712.225	7255
2714.125	7289
2716.024	7292
2717.923	7154
2719.822	7189
2721.719	7240
2723.616	7402
2725.512	7246
2727.41	7229
2729.305	7394
2731.201	7233
2733.095	7275
2734.99	7361
2736.884	7177
2738.778	7237
2740.67	7227
2742.562	7219
2744.455	7328
2746.346	7192
2748.238	7154
2750.129	7165
2752.018	7263
2753.907	7222
2755.797	7236
2757.687	7247
2759.575	7135
2761.462	7133
2763.349	7199
2765.237	7186
2767.124	7332
2769.009	7219
2770.894	7057
2772.779	7295
2774.663	7217
2776.547	7229
2778.431	7068
2780.314	7179
2782.197	7141
2784.078	7165
2785.96	7065
2787.842	7149
2789.723	7009
2791.603	7098
2793.483	7169
2795.362	7128
2797.241	7065
2799.121	7176
2800.997	7172
2802.874	7104
2804.751	7080
2806.628	7006
2808.506	7140
2810.38	7140
2812.255	7079
2814.13	7076
2816.003	7138
2817.878	7180
2819.752	7086
2821.623	7024
2823.496	7057
2825.368	7115
2827.238	6982
2829.111	7079
2830.98	6981
2832.851	7059
2834.719	6995
2836.589	7024
2838.458	7076
2840.327	7020
2842.193	7050
2844.061	7057
2845.927	7121
2847.794	7155
2849.66	7067
2851.525	7094
2853.39	7146
2855.254	7208
2857.117	7068
2858.983	7144
2860.845	7208
2862.707	7245
2864.569	7263
2866.431	7210
2868.293	7251
2870.154	7286
2872.013	7309
2873.873	7330
2875.733	7532
2877.592	7429
2879.451	7588
2881.309	7564
2883.166	7564
2885.022	7654
2886.879	7694
2888.736	7675
2890.591	7571
2892.446	7569
2894.301	7609
2896.155	7608
2898.009	7657
2899.863	7647
2901.716	7708
2903.568	7639
2905.419	7667
2907.27	7693
2909.123	7596
2910.973	7702
2912.824	7809
2914.673	7820
2916.521	7872
2918.372	7711
2920.22	7922
2922.067	7961
2923.914	8010
2925.761	8019
2927.607	7942
2929.455	8214
2931.301	8264
2933.144	8226
2934.99	8289
2936.833	8432
2938.678	8426
2940.522	8477
2942.364	8760
2944.207	8663
2946.048	8737
2947.891	8823
2949.731	8760
2951.571	8667
2953.412	8491
2955.25	8530
2957.09	8490
2958.93	8327
2960.767	8388
2962.606	8338
2964.443	8164
2966.279	8207
2968.116	8188
2969.953	7897
2971.788	7935
2973.623	7851
2975.457	7927
2977.292	7734
2979.127	7670
2980.959	7837
2982.792	7659
2984.624	7642
2986.455	7634
2988.288	7701
2990.119	7729
2991.949	7614
2993.779	7480
2995.608	7510
2997.439	7554
2999.268	7407
3001.096	7338
3002.923	7322
3004.751	7323
3006.578	7159
3008.406	7055
3010.232	7044
3012.057	7002
3013.883	7053
3015.706	6927
3017.532	6934
3019.356	6860
3021.179	6924
3023.002	6941
3024.823	6849
3026.646	6844
3028.469	6785
3030.289	6821
3032.11	6712
3033.93	6862
3035.749	6670
3037.57	6757
3039.39	6652
3041.207	6729
3043.026	6736
3044.842	6689
3046.661	6609
3048.477	6658
3050.294	6738
3052.109	6623
3053.925	6706
3055.739	6619
3057.555	6607
3059.368	6697
3061.181	6668
3062.995	6572
3064.807	6636
3066.62	6472
3068.433	6727
3070.243	6580
3072.054	6692
3073.865	6600
3075.675	6633
3077.485	6525
3079.293	6538
3081.102	6586
3082.911	6525
3084.719	6599
3086.527	6474
3088.333	6443
3090.139	6658
3091.945	6496
3093.75	6633
3095.557	6617
3097.361	6451
3099.165	6499
3100.969	6411
3102.772	6442
3104.575	6467
3106.379	6424
3108.181	6273
3109.982	6493
3111.783	6376
3113.584	6498
3115.386	6377
3117.186	6408
3118.985	6420
3120.783	6356
3122.582	6341
3124.381	6263
3126.179	6320
3127.975	6345
3129.772	6339
3131.569	6380
3133.365	6196
3135.161	6321
3136.956	6321
3138.751	6347
3140.544	6226
3142.338	6306
3144.132	6245
3145.925	6254
3147.717	6301
3149.509	6300
3151.301	6392
3153.091	6300
3154.884	6300
3156.673	6256
3158.462	6198
3160.252	6298
3162.041	6198
3163.831	6268
3165.618	6266
3167.405	6329
3169.193	6164
3170.979	6161
3172.767	6189
3174.553	6208
3176.338	6128
3178.123	6176
3179.907	6192
3181.692	6218
3183.477	6242
3185.259	6230
3187.042	6203
3188.824	6181
3190.607	6289
3192.389	6098
3194.17	6190
3195.951	6160
3197.73	6146
3199.51	6134
3201.289	6167
3203.07	6239
3204.848	6111
3206.626	6233
3208.403	6252
3210.18	6029
3211.959	6178
3213.735	6113
3215.511	6156
3217.285	6165
3219.06	6099
3220.836	6144
3222.611	6093
3224.384	6116
3226.158	6130
3227.929	6072
3229.702	6142
3231.476	6137
3233.248	6136
3235.018	6216
3236.789	6184
3238.56	6181
3240.33	6066
3242.1	6166
3243.869	6015
3245.637	6198
3247.405	6130
3249.172	6134
3250.941	6204
3252.707	6056
3254.474	6197
3256.24	6099
3258.006	6077
3259.772	6146
3261.537	6092
3263.301	6182
3265.065	6180
3266.828	6174
3268.592	6120
3270.355	6132
3272.117	6089
3273.878	6226
3275.64	6297
3277.401	6288
3279.162	6118
3280.922	6311
3282.682	6097
3284.441	6149
3286.199	6038
3287.959	6197
3289.716	5983
3291.475	6121
3293.232	6081
3294.988	6100
3296.744	6140
3298.501	6213
3300.256	6046
3302.011	6040
3303.766	6011
3305.52	6163
3307.275	6004
3309.028	6052
3310.781	6176
3312.533	6104
3314.285	6099
3316.038	6026
3317.789	6047
3319.54	6084
3321.289	5989
3323.039	6067
3324.789	6095
3326.539	6137
3328.288	6010
3330.035	6095
3331.783	6092
3333.531	6076
3335.28	6033
3337.025	6141
3338.771	6013
3340.518	6209
3342.262	6035
3344.009	6023
3345.753	5960
3347.497	5989
3349.24	5898
3350.983	6032
3352.726	6023
3354.469	5982
3356.212	5970
3357.952	5862
3359.694	6004
3361.434	6025
3363.176	5980
3364.916	5999
3366.654	5983
3368.394	5985
3370.132	5881
3371.871	5932
3373.61	5982
3375.346	5928
3377.083	5835
3378.82	5816
3380.556	5836
3382.292	5929
3384.027	5842
3385.763	5806
3387.497	5802
3389.231	5875
3390.965	5862
3392.698	5911
3394.431	5901
3396.164	5837
3397.896	5939
3399.627	5798
3401.36	5788
3403.09	5995
3404.82	5894
3406.55	5868
3408.279	5857
3410.01	5762
3411.738	5789
3413.467	5853
3415.194	5744
3416.92	5749
3418.647	5780
3420.375	5758
3422.102	5736
3423.827	5748
3425.553	5761
3427.277	5805
3429.003	5753
3430.727	5648
3432.451	5667
3434.173	5680
3435.896	5659
3437.62	5767
3439.343	5765
3441.063	5770
3442.785	5724
3444.505	5610
3446.226	5726
3447.948	5729
3449.666	5630
3451.386	5630
3453.104	5633
3454.823	5637
3456.541	5594
3458.259	5469
3459.976	5535
3461.693	5620
3463.408	5557
3465.125	5633
3466.841	5513
3468.556	5561
3470.271	5619
3471.985	5533
3473.698	5493
3475.414	5527
3477.126	5664
3478.838	5436
3480.55	5552
3482.263	5440
3483.975	5509
3485.686	5534
3487.396	5517
3489.106	5471
3490.817	5486
3492.526	5543
3494.236	5387
3495.944	5422
3497.652	5420
3499.359	5457
3501.066	5338
3502.775	5398
3504.481	5368
3506.187	5412
3507.893	5408
3509.598	5382
3511.304	5383
3513.009	5240
3514.713	5360
3516.417	5400
3518.12	5403
3519.821	5419
3521.525	5271
3523.228	5299
3524.929	5305
3526.631	5281
3528.33	5339
3530.032	5187
3531.733	5303
3533.433	5311
3535.131	5232
3536.83	5285
3538.529	5271
3540.227	5258
3541.925	5265
3543.623	5301
3545.319	5216
3547.016	5236
3548.712	5199
3550.408	5221
3552.103	5137
3553.798	5259
3555.491	5258
3557.188	5199
3558.88	5206
3560.574	5118
3562.266	5239
3563.959	5119
3565.651	5264
3567.343	5193
3569.035	5170
3570.725	5204
3572.415	5192
3574.106	5253
3575.797	5148
3577.485	5204
3579.174	5128
3580.863	5103
3582.551	5079
3584.238	5145
3585.926	5122
3587.613	5112
3589.3	4992
3590.986	5105
3592.671	5072
3594.357	5095
3596.042	5039
3597.726	4929
3599.41	5010
3601.094	5034
3602.778	5023
3604.461	4997
3606.143	4975
3607.825	4972
3609.507	4956
3611.188	5035
3612.87	4919
3614.551	4868
3616.229	4920
3617.909	4960
3619.589	5032
3621.269	4886
3622.948	4768
3624.625	4841
3626.302	4903
3627.98	4903
3629.657	4905
3631.334	4919
3633.01	4954
3634.686	4833
3636.361	4880
3638.036	4847
3639.712	4815
3641.385	4830
3643.06	4766
3644.732	4875
3646.405	4819
3648.08	4871
3649.751	4824
3651.424	4870
3653.094	4754
3654.766	4803
3656.436	4767
3658.106	4758
3659.777	4772
3661.446	4735
3663.115	4790
3664.783	4689
3666.452	4735
3668.121	4732
3669.788	4710
3671.454	4680
3673.121	4718
3674.789	4627
3676.455	4702
3678.12	4684
3679.784	4788
3681.45	4684
3683.114	4725
3684.779	4649
3686.442	4769
3688.105	4672
3689.768	4630
3691.43	4703
3693.093	4607
3694.754	4609
3696.415	4666
3698.076	4652
3699.736	4572
3701.396	4635
3703.057	4628
3704.716	4640
3706.375	4672
3708.034	4620
3709.692	4617
3711.351	4614
3713.008	4561
3714.665	4593
3716.321	4545
3717.977	4593
3719.634	4574
3721.29	4612
3722.945	4632
3724.598	4538
3726.253	4510
3727.907	4585
3729.561	4622
3731.214	4574
3732.867	4495
3734.518	4528
3736.171	4524
3737.824	4616
3739.474	4528
3741.125	4522
3742.775	4570
3744.425	4530
3746.074	4517
3747.725	4512
3749.373	4614
3751.022	4404
3752.669	4479
3754.318	4574
3755.966	4410
3757.612	4394
3759.259	4521
3760.905	4500
3762.55	4361
3764.197	4482
3765.842	4416
3767.486	4432
3769.131	4468
3770.774	4488
3772.417	4495
3774.061	4487
3775.705	4414
3777.347	4442
3778.988	4352
3780.629	4435
3782.271	4444
3783.912	4338
3785.552	4371
3787.192	4386
3788.831	4379
3790.472	4428
3792.112	4461
3793.75	4318
3795.388	4352
3797.024	4374
3798.661	4524
3800.3	4326
3801.936	4362
3803.572	4406
3805.208	4373
3806.844	4357
3808.48	4357
3810.115	4329
3811.748	4343
3813.382	4313
3815.016	4278
3816.649	4302
3818.283	4314
3819.914	4261
3821.547	4317
3823.178	4314
3824.809	4329
3826.441	4345
3828.072	4359
3829.701	4356
3831.331	4285
3832.96	4221
3834.591	4278
3836.219	4177
3837.847	4260
3839.475	4252
3841.102	4270
3842.729	4227
3844.357	4231
3845.984	4219
3847.609	4312
3849.234	4223
3850.86	4179
3852.485	4217
3854.11	4248
3855.734	4205
3857.357	4180
3858.981	4174
3860.603	4162
3862.227	4237
3863.848	4147
3865.471	4246
3867.092	4188
3868.713	4101
3870.334	4213
3871.954	4139
3873.575	4133
3875.194	4051
3876.813	4173
3878.433	4071
3880.051	4181
3881.669	4142
3883.286	4175
3884.904	4120
3886.52	4209
3888.138	4119
3889.754	4056
3891.37	4197
3892.985	4127
3894.6	4090
3896.216	4182
3897.831	4081
3899.444	4114
3901.058	4165
3902.67	4179
3904.283	4050
3905.897	4074
3907.509	4093
3909.121	4106
3910.731	4111
3912.342	4168
3913.954	4103
3915.563	4037
3917.174	4142
3918.783	4063
3920.391	4105
3922.002	4147
3923.611	4050
3925.218	4121
3926.826	4075
3928.432	3989
3930.039	4036
3931.647	4091
3933.253	4023
3934.859	4018
3936.464	4070
3938.068	4051
3939.675	4072
3941.278	4056
3942.883	4069
3944.486	3960
3946.089	3990
3947.692	4044
3949.295	4023
3950.898	3990
3952.499	4039
3954.1	4088
3955.7	3888
3957.303	4074
3958.903	3989
3960.502	4024
3962.101	4038
3963.7	3933
3965.301	4041
3966.899	4020
3968.497	4025
3970.094	3930
3971.691	3903
3973.288	3963
3974.885	4055
3976.481	3921
3978.077	3953
3979.672	3974
3981.267	3875
3982.863	3962
3984.457	3932
3986.051	3852
3987.645	3861
3989.238	3789
3990.831	3862
3992.425	3911
3994.017	3842
3995.607	3884
3997.199	3952
3998.79	3887
4000.382	3794
4001.973	3883
4003.561	3866
4005.151	3877
4006.741	3779
4008.331	3803
4009.918	3901
4011.507	3759
4013.095	3785
4014.681	3832
4016.269	3861
4017.856	3797
4019.443	3829
4021.028	3847
4022.614	3732
4024.199	3757
4025.785	3787
4027.37	3705
4028.953	3763
4030.536	3758
4032.12	3760
4033.704	3789
4035.287	3774
4036.869	3823
4038.45	3693
4040.032	3757
4041.613	3669
4043.195	3706
4044.776	3759
4046.356	3669
4047.935	3720
4049.515	3785
4051.095	3608
4052.674	3785
4054.251	3724
4055.829	3738
4057.406	3723
4058.985	3688
4060.562	3728
4062.139	3623
4063.715	3661
4065.29	3714
4066.865	3764
4068.442	3690
4070.016	3673
4071.59	3581
4073.164	3597
4074.738	3650
4076.312	3663
4077.885	3641
4079.458	3606
4081.03	3631
4082.602	3685
4084.173	3618
4085.745	3585
4087.315	3608
4088.886	3673
4090.456	3642
4092.026	3597
4093.596	3597
4095.165	3634
4096.734	3647
4098.301	3576
4099.869	3588
4101.437	3650
4103.006	3567
4104.572	3596
4106.139	3586
4107.704	3519
4109.27	3579
4110.837	3574
4112.401	3573
4113.966	3668
4115.53	3575
4117.094	3566
4118.659	3527
4120.223	3586
4121.785	3558
4123.347	3566
4124.909	3469
4126.471	3561
4128.034	3471
4129.595	3500
4131.155	3443
4132.716	3481
4134.275	3602
4135.836	3481
4137.395	3506
4138.955	3494
4140.513	3461
4142.071	3477
4143.628	3479
4145.188	3448
4146.745	3447
4148.302	3556
4149.858	3383
4151.414	3417
4152.971	3506
4154.526	3547
4156.081	3485
4157.635	3463
4159.189	3384
4160.745	3448
4162.298	3471
4163.852	3441
4165.405	3467
4166.957	3342
4168.51	3477
4170.063	3430
4171.614	3343
4173.166	3424
4174.717	3364
4176.267	3344
4177.817	3378
4179.368	3360
4180.917	3419
4182.466	3391
4184.016	3390
4185.564	3382
4187.112	3430
4188.66	3330
4190.207	3301
4191.754	3374
4193.301	3418
4194.848	3298
4196.394	3299
4197.94	3294
4199.484	3330
4201.03	3327
4202.575	3312
4204.12	3364
4205.663	3291
4207.207	3258
4208.75	3439
4210.292	3295
4211.836	3287
4213.378	3347
4214.92	3268
4216.46	3219
4218.002	3243
4219.544	3286
4221.083	3269
4222.625	3331
4224.164	3267
4225.703	3253
4227.244	3320
4228.782	3269
4230.32	3303
4231.857	3226
4233.395	3291
4234.933	3263
4236.471	3363
4238.007	3231
4239.542	3312
4241.078	3217
4242.614	3197
4244.15	3207
4245.685	3182
4247.219	3252
4248.753	3247
4250.287	3201
4251.82	3259
4253.354	3214
4254.887	3288
4256.419	3237
4257.951	3173
4259.483	3165
4261.016	3220
4262.547	3150
4264.078	3146
4265.608	3188
4267.137	3219
4268.668	3154
4270.197	3208
4271.727	3207
4273.254	3136
4274.783	3242
4276.311	3131
4277.84	3184
4279.366	3180
4280.894	3228
4282.42	3122
4283.946	3161
4285.473	3175
4286.998	3127
4288.523	3090
4290.047	3153
4291.572	3126
4293.096	3080
4294.622	3095
4296.144	3111
4297.668	3069
4299.19	3168
4300.713	3050
4302.236	3062
4303.758	3161
4305.279	3023
4306.799	3081
4308.321	3110
4309.842	3039
4311.361	3028
4312.882	3102
4314.401	3043
