400.0961	4426
402.6185	4425
405.1424	4398
407.6635	4412
410.1838	4419
412.7035	4530
415.2225	4490
417.7388	4520
420.2585	4516
422.7754	4475
425.2917	4533
427.8072	4599
430.3221	4565
432.8363	4622
435.3498	4607
437.8626	4714
440.3727	4677
442.8841	4712
445.3969	4678
447.907	4733
450.4142	4666
452.9229	4722
455.4289	4764
457.9362	4686
460.4449	4749
462.9488	4669
465.454	4678
467.9566	4677
470.4604	4759
472.9637	4701
475.4662	4717
477.966	4853
480.4671	4681
482.9656	4805
485.4633	4745
487.9645	4896
490.4608	4817
492.9566	4826
495.4536	4823
497.948	4832
500.4437	4898
502.9387	4823
505.431	4872
507.9226	5015
510.4136	4869
512.9079	4887
515.3975	4917
517.8864	4823
520.3746	4900
522.8622	4957
525.3491	4946
527.8394	4945
530.3249	5038
532.8098	4943
535.2939	4972
537.7774	4932
540.2623	5007
542.7444	4986
545.2259	4964
547.7067	4999
550.1868	4917
552.6683	4967
555.147	4968
557.6231	5014
560.1005	4980
562.5773	4947
565.0534	5066
567.5308	5068
570.0056	5060
572.4776	5115
574.951	5128
577.4237	5093
579.8978	5208
582.3671	5127
584.8378	5136
587.3079	5097
589.7773	5204
592.244	5141
594.714	5030
597.1793	5101
599.6461	5104
602.1121	5139
604.5754	5122
607.0421	5101
609.5042	5174
611.9675	5059
614.4282	5153
616.8902	5139
619.3515	5048
621.8122	5136
624.2702	5196
626.7296	5159
629.1863	5150
631.6423	5106
634.1017	5064
636.5563	5177
639.0104	5180
641.4658	5164
643.9185	5141
646.3725	5161
648.8239	5195
651.2766	5247
653.7266	5129
656.176	5214
658.6247	5302
661.0748	5205
663.5242	5286
665.9709	5160
668.417	5236
670.8624	5228
673.3092	5320
675.7533	5338
678.1968	5262
680.6395	5299
683.0817	5272
685.5251	5307
687.9659	5384
690.4061	5390
692.8456	5300
695.2844	5240
697.7226	5303
700.1621	5390
702.599	5496
705.0332	5357
707.4688	5422
709.9036	5452
712.3399	5395
714.7735	5498
717.2044	5417
719.6367	5457
722.0683	5483
724.4993	5441
726.9296	5645
729.3593	5519
731.7883	5407
734.2147	5541
736.6423	5539
739.0714	5536
741.4958	5603
743.9216	5621
746.3447	5550
748.7691	5596
751.1929	5718
753.616	5664
756.0366	5730
758.4584	5648
760.8776	5683
763.2982	5693
765.718	5736
768.1373	5786
770.5539	5683
772.9698	5642
775.3871	5724
777.8038	5752
780.2178	5794
782.6332	5788
785.0459	5732
787.458	5756
789.8714	5636
792.2842	5697
794.6943	5778
797.1038	5769
799.5127	5760
801.9209	5678
804.3324	5793
806.7393	5730
809.1456	5686
811.5513	5849
813.9562	5860
816.3625	5795
818.7663	5876
821.1693	5817
823.5718	5814
825.9735	5810
828.3746	5699
830.7771	5880
833.177	5868
835.5762	5805
837.9747	5793
840.3727	5874
842.772	5944
845.1666	6002
847.5626	5925
849.958	5877
852.3527	5822
854.7488	5908
857.1403	5900
859.5331	5990
861.9253	5918
864.3168	5906
866.7057	5884
869.098	5981
871.4876	5935
873.8746	5921
876.263	5907
878.6487	5819
881.0378	5822
883.4243	5919
885.8081	5805
888.1933	5879
890.5759	5822
892.9598	5870
895.343	5884
897.7256	5914
900.1057	5873
902.4871	5896
904.8659	5971
907.246	5993
909.6254	5974
912.0023	6014
914.3786	6065
916.7562	6143
919.1331	6036
921.5074	6202
923.8831	6210
926.2562	6236
928.6287	6209
931.0005	6126
933.3757	6237
935.7462	6136
938.1162	6086
940.4855	6243
942.8542	6167
945.2242	6306
947.5916	6279
949.9584	6498
952.3266	6501
954.6921	6587
957.0571	6722
959.4233	6913
961.787	6954
964.15	6913
966.5125	6905
968.8742	6671
971.2354	6616
973.5959	6477
975.9559	6361
978.3151	6305
980.6738	6278
983.0338	6110
985.3912	6134
987.7461	6187
990.1022	6128
992.4578	6030
994.8127	6159
997.1689	6235
999.5207	6057
1001.874	6206
1004.226	6192
1006.576	6020
1008.929	6129
1011.28	6217
1013.628	6167
1015.977	6192
1018.324	6109
1020.674	6179
1023.019	6182
1025.366	6233
1027.713	6186
1030.056	6355
1032.399	6233
1034.746	6296
1037.087	6158
1039.431	6242
1041.771	6292
1044.113	6387
1046.454	6291
1048.793	6272
1051.133	6295
1053.471	6335
1055.807	6233
1058.146	6243
1060.483	6239
1062.818	6338
1065.153	6452
1067.489	6331
1069.822	6492
1072.156	6442
1074.488	6428
1076.82	6289
1079.15	6364
1081.48	6337
1083.814	6304
1086.143	6281
1088.471	6281
1090.799	6255
1093.126	6345
1095.452	6290
1097.78	6373
1100.105	6297
1102.43	6335
1104.754	6309
1107.077	6413
1109.4	6304
1111.722	6332
1114.044	6474
1116.365	6414
1118.685	6340
1121.005	6398
1123.324	6435
1125.643	6410
1127.961	6337
1130.278	6419
1132.595	6419
1134.911	6442
1137.226	6385
1139.541	6329
1141.854	6493
1144.167	6403
1146.482	6370
1148.793	6433
1151.105	6308
1153.414	6505
1155.725	6379
1158.033	6489
1160.344	6400
1162.651	6416
1164.959	6319
1167.265	6514
1169.572	6404
1171.878	6324
1174.184	6406
1176.488	6399
1178.79	6413
1181.094	6475
1183.396	6440
1185.699	6492
1188.001	6486
1190.301	6361
1192.6	6385
1194.9	6472
1197.2	6499
1199.497	6398
1201.794	6427
1204.09	6463
1206.387	6508
1208.684	6446
1210.978	6445
1213.272	6553
1215.565	6453
1217.858	6481
1220.15	6477
1222.443	6615
1224.734	6460
1227.024	6659
1229.313	6585
1231.602	6657
1233.892	6652
1236.18	6597
1238.467	6682
1240.754	6551
1243.04	6758
1245.325	6711
1247.612	6753
1249.896	6748
1252.178	6679
1254.461	6719
1256.743	6800
1259.027	6715
1261.308	6668
1263.587	6595
1265.867	6713
1268.146	6698
1270.425	6768
1272.703	6754
1274.981	6685
1277.256	6682
1279.532	6724
1281.808	6691
1284.083	6634
1286.358	6782
1288.63	6724
1290.904	6658
1293.175	6651
1295.449	6680
1297.719	6722
1299.99	6708
1302.259	6618
1304.529	6736
1306.798	6720
1309.065	6650
1311.333	6695
1313.599	6638
1315.866	6692
1318.131	6610
1320.396	6750
1322.66	6651
1324.925	6762
1327.187	6700
1329.448	6748
1331.711	6705
1333.974	6667
1336.234	6780
1338.493	6820
1340.752	6641
1343.01	6695
1345.269	6824
1347.526	6727
1349.784	6694
1352.04	6683
1354.295	6732
1356.552	6672
1358.806	6813
1361.059	6674
1363.312	6663
1365.564	6781
1367.818	6743
1370.069	6740
1372.318	6863
1374.568	6803
1376.817	6755
1379.066	6774
1381.316	6866
1383.564	6811
1385.809	6751
1388.056	6846
1390.301	6816
1392.549	6868
1394.793	6838
1397.036	6968
1399.279	6865
1401.522	6971
1403.763	6919
1406.007	6902
1408.248	7065
1410.487	6902
1412.727	6995
1414.965	6934
1417.205	6972
1419.442	6874
1421.68	6864
1423.915	6893
1426.152	6887
1428.388	7081
1430.623	6935
1432.857	6977
1435.091	6995
1437.323	6978
1439.556	6915
1441.789	7051
1444.019	6941
1446.25	6984
1448.48	6782
1450.708	6867
1452.938	7099
1455.167	7130
1457.394	7061
1459.62	7023
1461.846	6916
1464.073	6987
1466.299	7066
1468.523	6944
1470.746	6955
1472.969	6942
1475.191	6907
1477.415	6900
1479.636	6815
1481.858	6844
1484.078	6868
1486.298	6798
1488.518	6936
1490.736	6934
1492.954	6859
1495.169	6943
1497.386	6917
1499.602	6811
1501.819	6837
1504.034	6828
1506.248	6750
1508.462	6743
1510.675	6830
1512.888	6800
1515.1	6757
1517.311	6784
1519.522	6787
1521.732	6763
1523.942	6817
1526.151	6809
1528.36	6928
1530.566	6872
1532.773	6784
1534.98	6793
1537.187	6921
1539.392	6938
1541.596	6831
1543.801	7000
1546.005	6884
1548.208	6871
1550.411	6987
1552.612	6922
1554.814	6841
1557.013	6894
1559.212	6997
1561.414	6936
1563.612	6979
1565.811	7047
1568.007	6885
1570.203	6886
1572.403	7045
1574.598	7053
1576.792	7060
1578.988	7018
1581.181	6965
1583.376	7101
1585.568	7072
1587.761	6982
1589.952	7051
1592.143	7131
1594.333	7077
1596.524	6994
1598.715	6929
1600.903	7170
1603.091	7046
1605.278	7231
1607.466	6920
1609.652	6979
1611.838	7117
1614.023	7060
1616.207	7096
1618.391	7078
1620.576	7070
1622.759	7057
1624.941	7006
1627.123	7081
1629.304	7110
1631.484	7026
1633.664	7068
1635.844	6974
1638.022	7071
1640.201	7064
1642.38	7085
1644.556	7116
1646.732	7070
1648.908	6985
1651.084	7039
1653.257	7120
1655.433	7009
1657.607	6997
1659.779	7236
1661.951	7054
1664.122	7133
1666.295	7076
1668.467	7133
1670.635	7053
1672.805	7107
1674.973	7063
1677.142	7086
1679.31	6962
1681.478	7071
1683.644	7106
1685.81	7089
1687.975	6923
1690.142	7140
1692.305	7050
1694.468	7093
1696.632	7055
1698.794	7217
1700.957	7082
1703.119	7074
1705.279	7052
1707.439	6976
1709.598	7045
1711.758	7010
1713.917	7043
1716.075	7063
1718.231	7029
1720.388	6983
1722.543	7056
1724.702	6981
1726.856	7049
1729.01	7064
1731.164	7047
1733.317	6898
1735.471	6967
1737.623	7028
1739.774	7084
1741.925	7148
1744.075	7061
1746.225	6978
1748.376	7096
1750.524	7133
1752.672	7077
1754.82	7065
1756.965	7042
1759.113	7025
1761.259	7138
1763.405	7049
1765.549	7194
1767.694	7024
1769.836	6918
1771.981	7104
1774.123	7175
1776.264	7009
1778.405	7097
1780.546	7019
1782.687	7191
1784.827	7106
1786.966	7037
1789.103	7098
1791.242	7169
1793.381	7135
1795.517	7061
1797.653	7114
1799.788	7070
1801.923	7061
1804.057	7089
1806.193	7106
1808.326	7075
1810.457	7126
1812.59	7032
1814.721	7123
1816.855	6989
1818.984	7019
1821.113	7071
1823.244	6982
1825.372	7148
1827.499	7134
1829.63	7075
1831.756	7226
1833.882	7194
1836.007	7147
1838.132	7102
1840.26	7013
1842.384	7024
1844.507	7027
1846.63	7119
1848.752	7111
1850.875	7082
1852.996	7046
1855.118	7068
1857.238	7043
1859.358	6926
1861.477	7060
1863.597	7048
1865.715	6933
1867.832	7029
1869.948	6961
1872.064	6977
1874.181	7023
1876.297	7008
1878.411	6997
1880.526	6937
1882.639	7072
1884.752	7045
1886.865	7032
1888.977	6969
1891.089	6958
1893.2	7055
1895.308	7107
1897.42	7193
1899.53	7042
1901.639	7025
1903.745	7067
1905.853	7102
1907.962	7109
1910.067	6976
1912.174	7007
1914.278	7147
1916.383	7059
1918.486	7088
1920.592	7177
1922.694	7159
1924.797	7166
1926.898	7142
1929	7045
1931.102	7074
1933.203	7184
1935.301	7179
1937.401	7107
1939.499	7095
1941.598	7205
1943.697	7182
1945.793	7149
1947.888	7020
1949.985	7217
1952.08	7155
1954.176	7065
1956.269	7117
1958.364	7116
1960.457	7196
1962.549	7148
1964.642	7084
1966.733	7101
1968.823	7138
1970.913	7083
1973.005	7090
1975.093	7231
1977.184	7174
1979.271	7053
1981.359	7183
1983.446	7123
1985.532	7134
1987.619	7028
1989.705	7177
1991.789	7053
1993.874	7063
1995.956	7039
1998.041	6948
2000.123	7103
2002.206	7067
2004.287	7185
2006.368	7043
2008.449	6980
2010.529	6960
2012.609	7071
2014.688	7094
2016.766	7118
2018.843	6992
2020.922	6936
2022.999	7147
2025.074	7041
2027.15	7018
2029.225	6975
2031.299	7067
2033.375	7030
2035.447	7040
2037.52	7043
2039.592	7045
2041.664	7067
2043.736	7044
2045.807	6965
2047.876	7156
2049.947	7038
2052.015	7048
2054.086	7001
2056.153	7104
2058.221	7160
2060.288	7101
2062.353	6965
2064.42	7098
2066.486	7088
2068.55	7004
2070.614	7053
2072.678	6979
2074.741	7037
2076.805	7076
2078.866	6983
2080.929	7059
2082.99	7063
2085.049	7058
2087.109	7112
2089.17	7089
2091.228	6996
2093.286	7011
2095.344	7040
2097.4	7042
2099.46	6989
2101.516	6986
2103.572	7093
2105.626	7094
2107.679	6992
2109.735	7011
2111.788	7101
2113.841	7112
2115.894	7036
2117.945	7049
2119.997	6933
2122.049	7012
2124.1	7089
2126.148	7096
2128.197	7097
2130.246	7054
2132.296	7066
2134.342	7044
2136.39	7055
2138.437	7051
2140.483	7023
2142.527	7025
2144.574	7053
2146.619	6995
2148.661	7153
2150.705	7115
2152.747	7207
2154.792	7019
2156.832	7038
2158.874	6890
2160.915	6921
2162.954	6955
2164.995	6961
2167.034	7057
2169.072	6863
2171.111	7045
2173.148	6985
2175.186	6937
2177.223	6985
2179.258	6921
2181.294	6997
2183.328	6951
2185.362	6885
2187.398	6970
2189.431	6875
2191.463	6806
2193.495	6818
2195.528	6965
2197.56	6740
2199.59	6894
2201.62	6952
2203.649	6864
2205.678	6887
2207.708	6781
2209.737	6909
2211.764	6973
2213.791	6812
2215.817	6757
2217.843	6955
2219.87	6854
2221.895	6791
2223.919	6870
2225.942	6814
2227.966	6807
2229.988	6905
2232.012	6786
2234.032	6782
2236.054	6822
2238.074	6710
2240.095	6786
2242.116	6923
2244.135	6850
2246.153	6917
2248.171	6845
2250.188	6866
2252.208	6711
2254.223	6888
2256.239	6852
2258.255	6844
2260.269	6788
2262.283	6858
2264.3	6886
2266.312	6804
2268.325	6793
2270.336	6774
2272.349	6807
2274.362	6967
2276.372	6835
2278.383	6829
2280.392	6870
2282.402	6936
2284.409	6908
2286.418	6874
2288.427	6814
2290.433	6886
2292.441	6891
2294.446	6841
2296.453	6794
2298.459	6764
2300.463	6966
2302.466	6802
2304.471	6817
2306.475	6841
2308.477	6678
2310.478	6817
2312.481	6856
2314.481	6767
2316.481	6740
2318.482	6900
2320.482	6812
2322.48	6774
2324.48	6691
2326.478	6806
2328.476	6712
2330.473	6845
2332.469	6704
2334.465	6784
2336.46	6776
2338.454	6702
2340.45	6663
2342.444	6755
2344.437	6724
2346.43	6702
2348.421	6645
2350.414	6741
2352.405	6647
2354.396	6700
2356.386	6665
2358.376	6708
2360.366	6657
2362.355	6783
2364.343	6581
2366.331	6754
2368.317	6711
2370.304	6681
2372.292	6655
2374.278	6706
2376.262	6759
2378.247	6586
2380.23	6628
2382.216	6724
2384.199	6620
2386.181	6649
2388.163	6644
2390.144	6677
2392.127	6575
2394.107	6684
2396.087	6619
2398.066	6637
2400.046	6645
2402.023	6582
2404.004	6683
2405.981	6537
2407.957	6534
2409.934	6515
2411.91	6610
2413.886	6573
2415.862	6666
2417.836	6604
2419.809	6665
2421.784	6496
2423.756	6533
2425.73	6595
2427.701	6594
2429.672	6573
2431.644	6609
2433.615	6655
2435.586	6550
2437.555	6639
2439.523	6577
2441.491	6517
2443.459	6588
2445.428	6602
2447.395	6550
2449.361	6537
2451.327	6458
2453.292	6658
2455.257	6514
2457.223	6656
2459.187	6514
2461.15	6628
2463.113	6634
2465.076	6541
2467.039	6518
2468.999	6640
2470.96	6561
2472.921	6621
2474.881	6532
2476.841	6546
2478.8	6638
2480.759	6629
2482.717	6577
2484.675	6486
2486.63	6433
2488.589	6485
2490.545	6498
2492.5	6518
2494.455	6498
2496.408	6638
2498.364	6559
2500.318	6633
2502.27	6510
2504.223	6464
2506.174	6425
2508.126	6465
2510.078	6419
2512.03	6549
2513.979	6427
2515.927	6491
2517.877	6527
2519.826	6528
2521.775	6464
2523.722	6477
2525.668	6462
2527.616	6440
2529.561	6442
2531.508	6369
2533.452	6429
2535.398	6517
2537.342	6568
2539.284	6432
2541.229	6437
2543.173	6480
2545.114	6393
2547.055	6516
2548.996	6427
2550.938	6459
2552.878	6454
2554.817	6464
2556.756	6434
2558.695	6462
2560.633	6436
2562.572	6410
2564.509	6602
2566.445	6492
2568.382	6352
2570.317	6379
2572.254	6436
2574.189	6507
2576.123	6437
2578.057	6551
2579.99	6418
2581.923	6579
2583.855	6535
2585.788	6541
2587.719	6481
2589.65	6452
2591.579	6425
2593.511	6397
2595.44	6429
2597.37	6554
2599.297	6531
2601.225	6435
2603.153	6554
2605.08	6457
2607.007	6460
2608.932	6504
2610.858	6340
2612.782	6416
2614.709	6404
2616.632	6431
2618.556	6486
2620.478	6526
2622.401	6538
2624.324	6422
2626.247	6375
2628.167	6404
2630.088	6506
2632.008	6427
2633.928	6743
2635.848	6391
2637.766	6541
2639.684	6424
2641.603	6486
2643.519	6442
2645.437	6548
2647.353	6503
2649.27	6478
2651.184	6383
2653.099	6421
2655.014	6395
2656.928	6522
2658.842	6407
2660.755	6528
2662.667	6556
2664.579	6509
2666.491	6558
2668.402	6382
2670.312	6463
2672.222	6483
2674.132	6467
2676.042	6508
2677.951	6466
2679.859	6329
2681.766	6363
2683.674	6448
2685.582	6388
2687.488	6274
2689.392	6437
2691.298	6451
2693.202	6393
2695.107	6343
2697.012	6353
2698.914	6381
2700.817	6310
2702.72	6425
2704.622	6348
2706.524	6390
2708.425	6260
2710.326	6324
2712.225	6272
2714.125	6289
2716.024	6385
2717.923	6377
2719.822	6361
2721.719	6304
2723.616	6310
2725.512	6341
2727.41	6389
2729.305	6287
2731.201	6279
2733.095	6380
2734.99	6324
2736.884	6385
2738.778	6287
2740.67	6258
2742.562	6241
2744.455	6283
2746.346	6224
2748.238	6432
2750.129	6339
2752.018	6417
2753.907	6322
2755.797	6365
2757.687	6272
2759.575	6146
2761.462	6129
2763.349	6244
2765.237	6240
2767.124	6324
2769.009	6299
2770.894	6279
2772.779	6348
2774.663	6278
2776.547	6267
2778.431	6266
2780.314	6180
2782.197	6341
2784.078	6253
2785.96	6174
2787.842	6296
2789.723	6245
2791.603	6288
2793.483	6205
2795.362	6175
2797.241	6265
2799.121	6279
2800.997	6233
2802.874	6303
2804.751	6248
2806.628	6212
2808.506	6247
2810.38	6245
2812.255	6294
2814.13	6160
2816.003	6307
2817.878	6329
2819.752	6147
2821.623	6254
2823.496	6185
2825.368	6191
2827.238	6067
2829.111	6211
2830.98	6190
2832.851	6282
2834.719	6154
2836.589	6236
2838.458	6236
2840.327	6168
2842.193	6245
2844.061	6187
2845.927	6153
2847.794	6195
2849.66	6297
2851.525	6149
2853.39	6169
2855.254	6234
2857.117	6324
2858.983	6240
2860.845	6227
2862.707	6299
2864.569	6356
2866.431	6254
2868.293	6350
2870.154	6270
2872.013	6120
2873.873	6271
2875.733	6440
2877.592	6300
2879.451	6383
2881.309	6321
2883.166	6445
2885.022	6439
2886.879	6464
2888.736	6523
2890.591	6494
2892.446	6417
2894.301	6535
2896.155	6551
2898.009	6505
2899.863	6594
2901.716	6408
2903.568	6522
2905.419	6401
2907.27	6451
2909.123	6399
2910.973	6505
2912.824	6506
2914.673	6481
2916.521	6497
2918.372	6533
2920.22	6497
2922.067	6569
2923.914	6663
2925.761	6632
2927.607	6781
2929.455	6690
2931.301	6701
2933.144	6755
2934.99	6750
2936.833	6724
2938.678	6862
2940.522	6743
2942.364	6905
2944.207	6980
2946.048	6927
2947.891	6889
2949.731	6870
2951.571	6938
2953.412	6866
2955.25	6943
2957.09	6881
2958.93	6808
2960.767	6854
2962.606	6724
2964.443	6798
2966.279	6665
2968.116	6626
2969.953	6556
2971.788	6656
2973.623	6617
2975.457	6556
2977.292	6530
2979.127	6432
2980.959	6455
2982.792	6237
2984.624	6407
2986.455	6354
2988.288	6376
2990.119	6219
2991.949	6334
2993.779	6198
2995.608	6210
2997.439	6266
2999.268	6265
3001.096	6148
3002.923	6175
3004.751	6050
3006.578	6070
3008.406	6239
3010.232	6078
3012.057	6036
3013.883	6086
3015.706	6056
3017.532	5997
3019.356	5907
3021.179	6057
3023.002	5965
3024.823	5983
3026.646	5987
3028.469	6046
3030.289	5956
3032.11	5955
3033.93	5743
3035.749	6017
3037.57	5829
3039.39	5878
3041.207	5885
3043.026	5796
3044.842	5798
3046.661	5892
3048.477	5856
3050.294	5865
3052.109	5829
3053.925	5800
3055.739	5712
3057.555	5705
3059.368	5852
3061.181	5756
3062.995	5790
3064.807	5748
3066.62	5714
3068.433	5705
3070.243	5819
3072.054	5813
3073.865	5753
3075.675	5705
3077.485	5668
3079.293	5709
3081.102	5746
3082.911	5747
3084.719	5679
3086.527	5787
3088.333	5785
3090.139	5710
3091.945	5690
3093.75	5720
3095.557	5676
3097.361	5674
3099.165	5759
3100.969	5611
3102.772	5631
3104.575	5701
3106.379	5640
3108.181	5642
3109.982	5681
3111.783	5613
3113.584	5669
3115.386	5696
3117.186	5582
3118.985	5659
3120.783	5656
3122.582	5594
3124.381	5582
3126.179	5588
3127.975	5631
3129.772	5545
3131.569	5534
3133.365	5551
3135.161	5497
3136.956	5593
3138.751	5625
3140.544	5458
3142.338	5545
3144.132	5572
3145.925	5520
3147.717	5544
3149.509	5457
3151.301	5569
3153.091	5447
3154.884	5490
3156.673	5437
3158.462	5477
3160.252	5516
3162.041	5451
3163.831	5475
3165.618	5544
3167.405	5517
3169.193	5505
3170.979	5410
3172.767	5455
3174.553	5471
3176.338	5479
3178.123	5430
3179.907	5391
3181.692	5467
3183.477	5398
3185.259	5310
3187.042	5428
3188.824	5489
3190.607	5508
3192.389	5334
3194.17	5482
3195.951	5465
3197.73	5366
3199.51	5429
3201.289	5430
3203.07	5393
3204.848	5343
3206.626	5448
3208.403	5399
3210.18	5440
3211.959	5245
3213.735	5315
3215.511	5264
3217.285	5337
3219.06	5309
3220.836	5271
3222.611	5372
3224.384	5356
3226.158	5282
3227.929	5402
3229.702	5373
3231.476	5367
3233.248	5255
3235.018	5362
3236.789	5345
3238.56	5297
3240.33	5293
3242.1	5345
3243.869	5335
3245.637	5372
3247.405	5347
3249.172	5225
3250.941	5307
3252.707	5327
3254.474	5316
3256.24	5326
3258.006	5211
3259.772	5347
3261.537	5294
3263.301	5333
3265.065	5326
3266.828	5269
3268.592	5294
3270.355	5184
3272.117	5259
3273.878	5350
3275.64	5282
3277.401	5268
3279.162	5371
3280.922	5297
3282.682	5296
3284.441	5360
3286.199	5214
3287.959	5263
3289.716	5247
3291.475	5218
3293.232	5317
3294.988	5224
3296.744	5290
3298.501	5283
3300.256	5181
3302.011	5234
3303.766	5166
3305.52	5289
3307.275	5224
3309.028	5197
3310.781	5432
3312.533	5264
3314.285	5217
3316.038	5263
3317.789	5264
3319.54	5326
3321.289	5270
3323.039	5306
3324.789	5337
3326.539	5221
3328.288	5202
3330.035	5212
3331.783	5143
3333.531	5381
3335.28	5175
3337.025	5173
3338.771	5232
3340.518	5337
3342.262	5113
3344.009	5206
3345.753	5218
3347.497	5146
3349.24	5196
3350.983	5234
3352.726	5177
3354.469	5243
3356.212	5218
3357.952	5047
3359.694	5232
3361.434	5163
3363.176	5142
3364.916	5179
3366.654	5270
3368.394	5160
3370.132	5224
3371.871	5147
3373.61	5228
3375.346	5040
3377.083	5152
3378.82	5064
3380.556	5077
3382.292	5200
3384.027	5129
3385.763	5159
3387.497	5039
3389.231	5239
3390.965	5067
3392.698	5058
3394.431	5027
3396.164	4969
3397.896	5034
3399.627	5030
3401.36	5172
3403.09	5004
3404.82	5092
3406.55	4956
3408.279	5022
3410.01	5080
3411.738	4969
3413.467	4950
3415.194	4989
3416.92	4976
3418.647	5009
3420.375	5049
3422.102	5008
3423.827	4931
3425.553	5009
3427.277	4999
3429.003	5012
3430.727	5062
3432.451	5036
3434.173	4957
3435.896	5032
3437.62	4937
3439.343	5032
3441.063	4985
3442.785	4904
3444.505	4869
3446.226	4972
3447.948	4899
3449.666	4969
3451.386	4993
3453.104	4865
3454.823	5089
3456.541	4823
3458.259	4833
3459.976	4985
3461.693	4827
3463.408	4886
3465.125	4862
3466.841	4883
3468.556	4890
3470.271	4831
3471.985	4917
3473.698	4821
3475.414	4853
3477.126	4860
3478.838	4910
3480.55	4935
3482.263	4822
3483.975	4769
3485.686	4810
3487.396	4778
3489.106	4840
3490.817	4759
3492.526	4841
3494.236	4813
3495.944	4705
3497.652	4761
3499.359	4732
3501.066	4783
3502.775	4839
3504.481	4719
3506.187	4682
3507.893	4782
3509.598	4606
3511.304	4839
3513.009	4715
3514.713	4852
3516.417	4739
3518.12	4787
3519.821	4728
3521.525	4631
3523.228	4670
3524.929	4690
3526.631	4661
3528.33	4684
3530.032	4674
3531.733	4675
3533.433	4658
3535.131	4672
3536.83	4657
3538.529	4627
3540.227	4662
3541.925	4646
3543.623	4707
3545.319	4608
3547.016	4633
3548.712	4638
3550.408	4616
3552.103	4627
3553.798	4593
3555.491	4675
3557.188	4577
3558.88	4648
3560.574	4609
3562.266	4727
3563.959	4690
3565.651	4630
3567.343	4583
3569.035	4635
3570.725	4528
3572.415	4528
3574.106	4714
3575.797	4640
3577.485	4600
3579.174	4524
3580.863	4554
3582.551	4566
3584.238	4478
3585.926	4512
3587.613	4560
3589.3	4492
3590.986	4531
3592.671	4563
3594.357	4432
3596.042	4611
3597.726	4530
3599.41	4507
3601.094	4482
3602.778	4488
3604.461	4525
3606.143	4486
3607.825	4527
3609.507	4337
3611.188	4429
3612.87	4391
3614.551	4459
3616.229	4474
3617.909	4403
3619.589	4448
3621.269	4475
3622.948	4356
3624.625	4344
3626.302	4413
3627.98	4414
3629.657	4439
3631.334	4470
3633.01	4354
3634.686	4359
3636.361	4379
3638.036	4335
3639.712	4354
3641.385	4409
3643.06	4390
3644.732	4400
3646.405	4279
3648.08	4371
3649.751	4452
3651.424	4337
3653.094	4391
3654.766	4275
3656.436	4265
3658.106	4350
3659.777	4328
3661.446	4366
3663.115	4290
3664.783	4259
3666.452	4233
3668.121	4258
3669.788	4241
3671.454	4301
3673.121	4300
3674.789	4301
3676.455	4312
3678.12	4310
3679.784	4258
3681.45	4289
3683.114	4276
3684.779	4261
3686.442	4233
3688.105	4246
3689.768	4303
3691.43	4287
3693.093	4258
3694.754	4185
3696.415	4226
3698.076	4274
3699.736	4284
3701.396	4209
3703.057	4196
3704.716	4229
3706.375	4286
3708.034	4300
3709.692	4196
3711.351	4204
3713.008	4334
3714.665	4242
3716.321	4285
3717.977	4143
3719.634	4237
3721.29	4204
3722.945	4146
3724.598	4223
3726.253	4205
3727.907	4170
3729.561	4246
3731.214	4143
3732.867	4139
3734.518	4106
3736.171	4197
3737.824	4160
3739.474	4170
3741.125	4134
3742.775	4149
3744.425	4159
3746.074	4113
3747.725	4183
3749.373	4119
3751.022	4182
3752.669	4141
3754.318	4159
3755.966	4162
3757.612	4056
3759.259	4197
3760.905	4107
3762.55	4184
3764.197	4094
3765.842	4045
3767.486	4139
3769.131	4167
3770.774	4182
3772.417	4080
3774.061	4132
3775.705	4033
3777.347	4006
3778.988	4122
3780.629	4117
3782.271	4051
3783.912	3984
3785.552	4140
3787.192	4117
3788.831	4058
3790.472	4057
3792.112	4058
3793.75	4051
3795.388	4026
3797.024	4069
3798.661	4040
3800.3	4005
3801.936	4045
3803.572	4005
3805.208	4002
3806.844	4050
3808.48	4091
3810.115	3985
3811.748	4031
3813.382	3996
3815.016	3992
3816.649	3929
3818.283	3928
3819.914	4067
3821.547	4011
3823.178	4008
3824.809	3930
3826.441	3990
3828.072	3961
3829.701	3968
3831.331	3928
3832.96	3949
3834.591	3985
3836.219	3995
3837.847	3944
3839.475	3976
3841.102	3893
3842.729	3932
3844.357	3974
3845.984	3935
3847.609	3940
3849.234	3861
3850.86	3998
3852.485	3880
3854.11	3962
3855.734	3917
3857.357	3901
3858.981	3797
3860.603	3859
3862.227	3934
3863.848	3859
3865.471	3866
3867.092	3929
3868.713	3792
3870.334	3873
3871.954	3917
3873.575	4002
3875.194	3880
3876.813	3881
3878.433	3878
3880.051	3899
3881.669	3881
3883.286	3839
3884.904	3851
3886.52	3839
3888.138	3802
3889.754	3828
3891.37	3834
3892.985	3926
3894.6	3796
3896.216	3746
3897.831	3757
3899.444	3849
3901.058	3843
3902.67	3850
3904.283	3852
3905.897	3891
3907.509	3815
3909.121	3812
3910.731	3802
3912.342	3798
3913.954	3772
3915.563	3783
3917.174	3746
3918.783	3855
3920.391	3810
3922.002	3816
3923.611	3872
3925.218	3840
3926.826	3798
3928.432	3776
3930.039	3730
3931.647	3771
3933.253	3722
3934.859	3772
3936.464	3746
3938.068	3673
3939.675	3865
3941.278	3679
3942.883	3736
3944.486	3764
3946.089	3739
3947.692	3714
3949.295	3767
3950.898	3703
3952.499	3751
3954.1	3750
3955.7	3646
3957.303	3749
3958.903	3723
3960.502	3607
3962.101	3743
3963.7	3784
3965.301	3698
3966.899	3673
3968.497	3733
3970.094	3646
3971.691	3713
3973.288	3641
3974.885	3684
3976.481	3676
3978.077	3664
3979.672	3634
3981.267	3678
3982.863	3686
3984.457	3684
3986.051	3647
3987.645	3598
3989.238	3693
3990.831	3499
3992.425	3615
3994.017	3621
3995.607	3579
3997.199	3597
3998.79	3594
4000.382	3640
4001.973	3654
4003.561	3635
4005.151	3569
4006.741	3576
4008.331	3615
4009.918	3552
4011.507	3536
4013.095	3526
4014.681	3505
4016.269	3592
4017.856	3578
4019.443	3532
4021.028	3489
4022.614	3562
4024.199	3496
4025.785	3609
4027.37	3502
4028.953	3561
4030.536	3567
4032.12	3464
4033.704	3552
4035.287	3539
4036.869	3585
4038.45	3461
4040.032	3508
4041.613	3525
4043.195	3516
4044.776	3488
4046.356	3513
4047.935	3558
4049.515	3499
4051.095	3461
4052.674	3535
4054.251	3529
4055.829	3545
4057.406	3532
4058.985	3438
4060.562	3510
4062.139	3425
4063.715	3503
4065.29	3447
4066.865	3499
4068.442	3466
4070.016	3441
4071.59	3405
4073.164	3391
4074.738	3481
4076.312	3410
4077.885	3421
4079.458	3462
4081.03	3447
4082.602	3395
4084.173	3431
4085.745	3397
4087.315	3419
4088.886	3340
4090.456	3339
4092.026	3425
4093.596	3441
4095.165	3404
4096.734	3431
4098.301	3404
4099.869	3433
4101.437	3407
4103.006	3424
4104.572	3415
4106.139	3339
4107.704	3336
4109.27	3368
4110.837	3418
4112.401	3423
4113.966	3381
4115.53	3408
4117.094	3395
4118.659	3382
4120.223	3402
4121.785	3372
4123.347	3260
4124.909	3299
4126.471	3335
4128.034	3338
4129.595	3351
4131.155	3348
4132.716	3325
4134.275	3354
4135.836	3291
4137.395	3322
4138.955	3295
4140.513	3339
4142.071	3314
4143.628	3212
4145.188	3301
4146.745	3370
4148.302	3277
4149.858	3287
4151.414	3331
4152.971	3270
4154.526	3294
4156.081	3219
4157.635	3312
4159.189	3218
4160.745	3221
4162.298	3222
4163.852	3258
4165.405	3211
4166.957	3240
4168.51	3220
4170.063	3152
4171.614	3232
4173.166	3249
4174.717	3206
4176.267	3210
4177.817	3244
4179.368	3121
4180.917	3151
4182.466	3197
4184.016	3253
4185.564	3214
4187.112	3243
4188.66	3189
4190.207	3237
4191.754	3216
4193.301	3158
4194.848	3188
4196.394	3218
4197.94	3092
4199.484	3185
4201.03	3133
4202.575	3179
4204.12	3193
4205.663	3123
4207.207	3110
4208.75	3177
4210.292	3134
4211.836	3150
4213.378	3140
4214.92	3096
4216.46	3057
4218.002	3090
4219.544	3147
4221.083	3080
4222.625	3169
4224.164	3158
4225.703	3162
4227.244	3038
4228.782	3105
4230.32	3152
4231.857	3151
4233.395	3127
4234.933	3139
4236.471	3119
4238.007	3076
4239.542	3071
4241.078	3091
4242.614	3098
4244.15	3126
4245.685	3055
4247.219	3094
4248.753	3077
4250.287	3036
4251.82	3104
4253.354	3022
4254.887	3066
4256.419	3116
4257.951	3020
4259.483	3097
4261.016	3118
4262.547	3069
4264.078	3067
4265.608	3035
4267.137	3061
4268.668	3055
4270.197	3047
4271.727	2998
4273.254	3010
4274.783	3064
4276.311	3052
4277.84	3108
4279.366	3033
4280.894	3058
4282.42	3010
4283.946	3002
4285.473	2991
4286.998	2977
4288.523	3040
4290.047	3029
4291.572	3018
4293.096	3035
4294.622	3059
4296.144	2929
4297.668	3040
4299.19	2986
4300.713	3071
4302.236	3000
4303.758	3059
4305.279	3008
4306.799	2980
4308.321	2956
4309.842	2936
4311.361	2926
4312.882	2950
4314.401	3042
