400.0961	5441
402.6185	5372
405.1424	5378
407.6635	5379
410.1838	5459
412.7035	5381
415.2225	5496
417.7388	5397
420.2585	5507
422.7754	5538
425.2917	5609
427.8072	5705
430.3221	5780
432.8363	5660
435.3498	5786
437.8626	5810
440.3727	5833
442.8841	5691
445.3969	5802
447.907	5783
450.4142	5746
452.9229	5760
455.4289	5830
457.9362	5701
460.4449	5704
462.9488	5841
465.454	5771
467.9566	5759
470.4604	5619
472.9637	5764
475.4662	5757
477.966	5796
480.4671	5724
482.9656	6000
485.4633	5930
487.9645	5886
490.4608	5861
492.9566	5897
495.4536	5863
497.948	5929
500.4437	5894
502.9387	5945
505.431	5978
507.9226	5919
510.4136	5957
512.9079	5932
515.3975	5832
517.8864	5970
520.3746	5802
522.8622	5959
525.3491	5961
527.8394	6032
530.3249	5941
532.8098	5980
535.2939	5946
537.7774	6039
540.2623	6049
542.7444	6013
545.2259	5838
547.7067	5988
550.1868	6066
552.6683	6118
555.147	6043
557.6231	6006
560.1005	5958
562.5773	6085
565.0534	6164
567.5308	6038
570.0056	6154
572.4776	6227
574.951	6205
577.4237	6223
579.8978	6218
582.3671	6360
584.8378	6336
587.3079	6330
589.7773	6339
592.244	6238
594.714	6253
597.1793	6327
599.6461	6227
602.1121	6205
604.5754	6209
607.0421	6186
609.5042	6172
611.9675	6236
614.4282	6253
616.8902	6265
619.3515	6263
621.8122	6337
624.2702	6176
626.7296	6217
629.1863	6025
631.6423	6295
634.1017	6151
636.5563	6223
639.0104	6298
641.4658	6252
643.9185	6077
646.3725	6242
648.8239	6188
651.2766	6483
653.7266	6256
656.176	6380
658.6247	6358
661.0748	6320
663.5242	6280
665.9709	6327
668.417	6400
670.8624	6326
673.3092	6450
675.7533	6388
678.1968	6373
680.6395	6422
683.0817	6453
685.5251	6359
687.9659	6500
690.4061	6423
692.8456	6486
695.2844	6625
697.7226	6503
700.1621	6373
702.599	6489
705.0332	6553
707.4688	6499
709.9036	6581
712.3399	6609
714.7735	6494
717.2044	6557
719.6367	6634
722.0683	6534
724.4993	6609
726.9296	6716
729.3593	6655
731.7883	6722
734.2147	6653
736.6423	6641
739.0714	6740
741.4958	6827
743.9216	6720
746.3447	6908
748.7691	6751
751.1929	6907
753.616	6840
756.0366	6870
758.4584	6937
760.8776	6992
763.2982	6877
765.718	6915
768.1373	6835
770.5539	6995
772.9698	6824
775.3871	6942
777.8038	6835
780.2178	6997
782.6332	6901
785.0459	7009
787.458	6937
789.8714	6909
792.2842	6903
794.6943	6935
797.1038	6985
799.5127	6927
801.9209	6976
804.3324	6966
806.7393	7026
809.1456	6977
811.5513	7028
813.9562	7001
816.3625	7006
818.7663	7125
821.1693	6957
823.5718	6979
825.9735	7032
828.3746	7043
830.7771	6989
833.177	7049
835.5762	7085
837.9747	7030
840.3727	7092
842.772	7058
845.1666	7076
847.5626	7230
849.958	7182
852.3527	7274
854.7488	7313
857.1403	7303
859.5331	7273
861.9253	7243
864.3168	7164
866.7057	7199
869.098	7196
871.4876	7180
873.8746	7239
876.263	7146
878.6487	7163
881.0378	7091
883.4243	7134
885.8081	7112
888.1933	7064
890.5759	7095
892.9598	7220
895.343	7139
897.7256	7121
900.1057	7161
902.4871	7235
904.8659	7181
907.246	7330
909.6254	7203
912.0023	7272
914.3786	7436
916.7562	7393
919.1331	7521
921.5074	7645
923.8831	7696
926.2562	7622
928.6287	7619
931.0005	7675
933.3757	7617
935.7462	7706
938.1162	7656
940.4855	7701
942.8542	7573
945.2242	7705
947.5916	7904
949.9584	7957
952.3266	8257
954.6921	8375
957.0571	8718
959.4233	9006
961.787	8985
964.15	9067
966.5125	8871
968.8742	8617
971.2354	8360
973.5959	8038
975.9559	7699
978.3151	7652
980.6738	7676
983.0338	7728
985.3912	7631
987.7461	7536
990.1022	7366
992.4578	7398
994.8127	7592
997.1689	7342
999.5207	7403
1001.874	7475
1004.226	7639
1006.576	7445
1008.929	7580
1011.28	7562
1013.628	7460
1015.977	7448
1018.324	7448
1020.674	7468
1023.019	7463
1025.366	7507
1027.713	7597
1030.056	7560
1032.399	7657
1034.746	7561
1037.087	7714
1039.431	7504
1041.771	7554
1044.113	7533
1046.454	7622
1048.793	7620
1051.133	7679
1053.471	7538
1055.807	7612
1058.146	7726
1060.483	7579
1062.818	7738
1065.153	7705
1067.489	7698
1069.822	7787
1072.156	7818
1074.488	7656
1076.82	7779
1079.15	7709
1081.48	7741
1083.814	7793
1086.143	7616
1088.471	7759
1090.799	7694
1093.126	7612
1095.452	7639
1097.78	7658
1100.105	7632
1102.43	7605
1104.754	7655
1107.077	7545
1109.4	7667
1111.722	7783
1114.044	7654
1116.365	7678
1118.685	7750
1121.005	7690
1123.324	7676
1125.643	7643
1127.961	7769
1130.278	7690
1132.595	7744
1134.911	7652
1137.226	7848
1139.541	7739
1141.854	7706
1144.167	7636
1146.482	7634
1148.793	7650
1151.105	7626
1153.414	7642
1155.725	7707
1158.033	7773
1160.344	7610
1162.651	7698
1164.959	7666
1167.265	7624
1169.572	7731
1171.878	7603
1174.184	7683
1176.488	7599
1178.79	7746
1181.094	7686
1183.396	7756
1185.699	7692
1188.001	7703
1190.301	7732
1192.6	7567
1194.9	7711
1197.2	7599
1199.497	7658
1201.794	7808
1204.09	7667
1206.387	7710
1208.684	7627
1210.978	7757
1213.272	7764
1215.565	7655
1217.858	7737
1220.15	7863
1222.443	7811
1224.734	7820
1227.024	7791
1229.313	7892
1231.602	7965
1233.892	7853
1236.18	7834
1238.467	7912
1240.754	7909
1243.04	7944
1245.325	8029
1247.612	7944
1249.896	7986
1252.178	8035
1254.461	8085
1256.743	8096
1259.027	8009
1261.308	8112
1263.587	8107
1265.867	8025
1268.146	8109
1270.425	8071
1272.703	7965
1274.981	8055
1277.256	8137
1279.532	8002
1281.808	8037
1284.083	7993
1286.358	8023
1288.63	8022
1290.904	7937
1293.175	7900
1295.449	7919
1297.719	7914
1299.99	7918
1302.259	7895
1304.529	7935
1306.798	7872
1309.065	7991
1311.333	7903
1313.599	7843
1315.866	7953
1318.131	7818
1320.396	8030
1322.66	7896
1324.925	8000
1327.187	7853
1329.448	7801
1331.711	7924
1333.974	8012
1336.234	7927
1338.493	8015
1340.752	7990
1343.01	7869
1345.269	7925
1347.526	8104
1349.784	7843
1352.04	7874
1354.295	7859
1356.552	7796
1358.806	7857
1361.059	7883
1363.312	7975
1365.564	7857
1367.818	7779
1370.069	8027
1372.318	7960
1374.568	7983
1376.817	8003
1379.066	7939
1381.316	7952
1383.564	8189
1385.809	8044
1388.056	8136
1390.301	8020
1392.549	8052
1394.793	8216
1397.036	8245
1399.279	8261
1401.522	8367
1403.763	8314
1406.007	8246
1408.248	8294
1410.487	8286
1412.727	8406
1414.965	8103
1417.205	8184
1419.442	8264
1421.68	8318
1423.915	8206
1426.152	8335
1428.388	8242
1430.623	8227
1432.857	8164
1435.091	8282
1437.323	8225
1439.556	8247
1441.789	8301
1444.019	8199
1446.25	8364
1448.48	8260
1450.708	8330
1452.938	8457
1455.167	8358
1457.394	8514
1459.62	8381
1461.846	8430
1464.073	8422
1466.299	8313
1468.523	8259
1470.746	8197
1472.969	8123
1475.191	8138
1477.415	8136
1479.636	8095
1481.858	7958
1484.078	8121
1486.298	8031
1488.518	7934
1490.736	10369
1492.954	9081
1495.169	7938
1497.386	8181
1499.602	7991
1501.819	8025
1504.034	7841
1506.248	7954
1508.462	8034
1510.675	7805
1512.888	7825
1515.1	7932
1517.311	7828
1519.522	7905
1521.732	7964
1523.942	7856
1526.151	7924
1528.36	7868
1530.566	7839
1532.773	7832
1534.98	7993
1537.187	7940
1539.392	7923
1541.596	7990
1543.801	7866
1546.005	7965
1548.208	7911
1550.411	7913
1552.612	7936
1554.814	8076
1557.013	7910
1559.212	8052
1561.414	8142
1563.612	8113
1565.811	8124
1568.007	8129
1570.203	7954
1572.403	7917
1574.598	7978
1576.792	8116
1578.988	8151
1581.181	8110
1583.376	8232
1585.568	8224
1587.761	8393
1589.952	8181
1592.143	8201
1594.333	8152
1596.524	8237
1598.715	8251
1600.903	8196
1603.091	8218
1605.278	8177
1607.466	8123
1609.652	8335
1611.838	8187
1614.023	8139
1616.207	8249
1618.391	8227
1620.576	8225
1622.759	8273
1624.941	8207
1627.123	8285
1629.304	8441
1631.484	8372
1633.664	8286
1635.844	8307
1638.022	8233
1640.201	8276
1642.38	8352
1644.556	8404
1646.732	8389
1648.908	8249
1651.084	8339
1653.257	8334
1655.433	8337
1657.607	8303
1659.779	8423
1661.951	8189
1664.122	8368
1666.295	8320
1668.467	8367
1670.635	8253
1672.805	8350
1674.973	8346
1677.142	8433
1679.31	8355
1681.478	8419
1683.644	8344
1685.81	8183
1687.975	8273
1690.142	8391
1692.305	8252
1694.468	8296
1696.632	8293
1698.794	8225
1700.957	8180
1703.119	8147
1705.279	8284
1707.439	8195
1709.598	8207
1711.758	8073
1713.917	8140
1716.075	8280
1718.231	8188
1720.388	8097
1722.543	8315
1724.702	8231
1726.856	8182
1729.01	8234
1731.164	8044
1733.317	8224
1735.471	8100
1737.623	8068
1739.774	8183
1741.925	8181
1744.075	8165
1746.225	8133
1748.376	8193
1750.524	8140
1752.672	8279
1754.82	8113
1756.965	8255
1759.113	8143
1761.259	8250
1763.405	8180
1765.549	8222
1767.694	8153
1769.836	8230
1771.981	8058
1774.123	8259
1776.264	8237
1778.405	8182
1780.546	8167
1782.687	8241
1784.827	8125
1786.966	8151
1789.103	8258
1791.242	8239
1793.381	8294
1795.517	8246
1797.653	8401
1799.788	8216
1801.923	8336
1804.057	8303
1806.193	8236
1808.326	8194
1810.457	8270
1812.59	8247
1814.721	8325
1816.855	8106
1818.984	8179
1821.113	8230
1823.244	8181
1825.372	8269
1827.499	8133
1829.63	8196
1831.756	8266
1833.882	8231
1836.007	8186
1838.132	8178
1840.26	8174
1842.384	8219
1844.507	8202
1846.63	8144
1848.752	8220
1850.875	8127
1852.996	8058
1855.118	8018
1857.238	8136
1859.358	8209
1861.477	8204
1863.597	8173
1865.715	8156
1867.832	8141
1869.948	8186
1872.064	8134
1874.181	8032
1876.297	8118
1878.411	8148
1880.526	8149
1882.639	8092
1884.752	8272
1886.865	8196
1888.977	8098
1891.089	8176
1893.2	8134
1895.308	8200
1897.42	8304
1899.53	8158
1901.639	8042
1903.745	8088
1905.853	8271
1907.962	8286
1910.067	8171
1912.174	8217
1914.278	8245
1916.383	8241
1918.486	8263
1920.592	8368
1922.694	8239
1924.797	8329
1926.898	8181
1929	8321
1931.102	8287
1933.203	8335
1935.301	8221
1937.401	8220
1939.499	8230
1941.598	8339
1943.697	8372
1945.793	8300
1947.888	8255
1949.985	8231
1952.08	8282
1954.176	8226
1956.269	8228
1958.364	8205
1960.457	8300
1962.549	8254
1964.642	8245
1966.733	8385
1968.823	8231
1970.913	8150
1973.005	8194
1975.093	8211
1977.184	8301
1979.271	8203
1981.359	8208
1983.446	8146
1985.532	8188
1987.619	8323
1989.705	8145
1991.789	8280
1993.874	8208
1995.956	8126
1998.041	8144
2000.123	8095
2002.206	8314
2004.287	8299
2006.368	8245
2008.449	8070
2010.529	8080
2012.609	8059
2014.688	8061
2016.766	8039
2018.843	8296
2020.922	8146
2022.999	8068
2025.074	8223
2027.15	8120
2029.225	8200
2031.299	8093
2033.375	8071
2035.447	8267
2037.52	8276
2039.592	8286
2041.664	8148
2043.736	8304
2045.807	8151
2047.876	8036
2049.947	8111
2052.015	8104
2054.086	8081
2056.153	8184
2058.221	8129
2060.288	8140
2062.353	8229
2064.42	8036
2066.486	8149
2068.55	8193
2070.614	8223
2072.678	8185
2074.741	8158
2076.805	8161
2078.866	8228
2080.929	8193
2082.99	8232
2085.049	8074
2087.109	8169
2089.17	8146
2091.228	8118
2093.286	8151
2095.344	8117
2097.4	8185
2099.46	8273
2101.516	8202
2103.572	8050
2105.626	8122
2107.679	8213
2109.735	8089
2111.788	8091
2113.841	8111
2115.894	8066
2117.945	8167
2119.997	8157
2122.049	8177
2124.1	8162
2126.148	8188
2128.197	8057
2130.246	8153
2132.296	8205
2134.342	8192
2136.39	8065
2138.437	8192
2140.483	8232
2142.527	7909
2144.574	8064
2146.619	8138
2148.661	8090
2150.705	8184
2152.747	8159
2154.792	8102
2156.832	8024
2158.874	8089
2160.915	8026
2162.954	8162
2164.995	8053
2167.034	8082
2169.072	7896
2171.111	8084
2173.148	8049
2175.186	7954
2177.223	7947
2179.258	8051
2181.294	7935
2183.328	8025
2185.362	8122
2187.398	7977
2189.431	8030
2191.463	7954
2193.495	7870
2195.528	7973
2197.56	8007
2199.59	7969
2201.62	7996
2203.649	7976
2205.678	8001
2207.708	7889
2209.737	7899
2211.764	7881
2213.791	7852
2215.817	7830
2217.843	7938
2219.87	7870
2221.895	7867
2223.919	7860
2225.942	7947
2227.966	7877
2229.988	7885
2232.012	7847
2234.032	7813
2236.054	7784
2238.074	7770
2240.095	7855
2242.116	7880
2244.135	7829
2246.153	7915
2248.171	7914
2250.188	7845
2252.208	7802
2254.223	7891
2256.239	7882
2258.255	7904
2260.269	7846
2262.283	7867
2264.3	7885
2266.312	7857
2268.325	7803
2270.336	7753
2272.349	7897
2274.362	7842
2276.372	7896
2278.383	7879
2280.392	7808
2282.402	7788
2284.409	7923
2286.418	7804
2288.427	7876
2290.433	7871
2292.441	7854
2294.446	7801
2296.453	7845
2298.459	7824
2300.463	7839
2302.466	7785
2304.471	7825
2306.475	7907
2308.477	7743
2310.478	7650
2312.481	7836
2314.481	7766
2316.481	7725
2318.482	7789
2320.482	7724
2322.48	7744
2324.48	7837
2326.478	7676
2328.476	7816
2330.473	7691
2332.469	7756
2334.465	7804
2336.46	7816
2338.454	7740
2340.45	7896
2342.444	7705
2344.437	7608
2346.43	7744
2348.421	7705
2350.414	7641
2352.405	7758
2354.396	7805
2356.386	7692
2358.376	7561
2360.366	7593
2362.355	7629
2364.343	7566
2366.331	7623
2368.317	7649
2370.304	7585
2372.292	7722
2374.278	7687
2376.262	7711
2378.247	7670
2380.23	7664
2382.216	7586
2384.199	7534
2386.181	7628
2388.163	7612
2390.144	7578
2392.127	7619
2394.107	7494
2396.087	7535
2398.066	7567
2400.046	7568
2402.023	7564
2404.004	7534
2405.981	7619
2407.957	7576
2409.934	7570
2411.91	7487
2413.886	7458
2415.862	7545
2417.836	7572
2419.809	7569
2421.784	7509
2423.756	7535
2425.73	7496
2427.701	7448
2429.672	7412
2431.644	7673
2433.615	7650
2435.586	7559
2437.555	7548
2439.523	7569
2441.491	7613
2443.459	7552
2445.428	7508
2447.395	7439
2449.361	7502
2451.327	7521
2453.292	7459
2455.257	7566
2457.223	7592
2459.187	7474
2461.15	7493
2463.113	7459
2465.076	7514
2467.039	7522
2468.999	7381
2470.96	7297
2472.921	7446
2474.881	7500
2476.841	7451
2478.8	7380
2480.759	7589
2482.717	7497
2484.675	7460
2486.63	7367
2488.589	7411
2490.545	7420
2492.5	7442
2494.455	7481
2496.408	7484
2498.364	7408
2500.318	7372
2502.27	7403
2504.223	7378
2506.174	7436
2508.126	7367
2510.078	7300
2512.03	7288
2513.979	7412
2515.927	7300
2517.877	7376
2519.826	7440
2521.775	7271
2523.722	7380
2525.668	7328
2527.616	7319
2529.561	7403
2531.508	7424
2533.452	7326
2535.398	7313
2537.342	7359
2539.284	7354
2541.229	7384
2543.173	7290
2545.114	7325
2547.055	7334
2548.996	7273
2550.938	7314
2552.878	7320
2554.817	7414
2556.756	7317
2558.695	7349
2560.633	7315
2562.572	7195
2564.509	7371
2566.445	7239
2568.382	7410
2570.317	7436
2572.254	7496
2574.189	7370
2576.123	7193
2578.057	7281
2579.99	7261
2581.923	7390
2583.855	7295
2585.788	7381
2587.719	7302
2589.65	7249
2591.579	7305
2593.511	7207
2595.44	7328
2597.37	7253
2599.297	7379
2601.225	7382
2603.153	7318
2605.08	7310
2607.007	7321
2608.932	7226
2610.858	7272
2612.782	7418
2614.709	7343
2616.632	7184
2618.556	7445
2620.478	7410
2622.401	7280
2624.324	7335
2626.247	7220
2628.167	7261
2630.088	7345
2632.008	7259
2633.928	7278
2635.848	7282
2637.766	7379
2639.684	7351
2641.603	7355
2643.519	7312
2645.437	7438
2647.353	7442
2649.27	7262
2651.184	7325
2653.099	7331
2655.014	7205
2656.928	7230
2658.842	7326
2660.755	7179
2662.667	7348
2664.579	7314
2666.491	7266
2668.402	7331
2670.312	7229
2672.222	7305
2674.132	7153
2676.042	7198
2677.951	7124
2679.859	7289
2681.766	7211
2683.674	7189
2685.582	7171
2687.488	7213
2689.392	7236
2691.298	7256
2693.202	7072
2695.107	7274
2697.012	7222
2698.914	7329
2700.817	7171
2702.72	7182
2704.622	7191
2706.524	7100
2708.425	7224
2710.326	7176
2712.225	7124
2714.125	7051
2716.024	7282
2717.923	7147
2719.822	7114
2721.719	7095
2723.616	7118
2725.512	7180
2727.41	7238
2729.305	7164
2731.201	7101
2733.095	7163
2734.99	7083
2736.884	7138
2738.778	7251
2740.67	7056
2742.562	7138
2744.455	7024
2746.346	7069
2748.238	7128
2750.129	7147
2752.018	7127
2753.907	7022
2755.797	6939
2757.687	7052
2759.575	7175
2761.462	7149
2763.349	7168
2765.237	7066
2767.124	7146
2769.009	7090
2770.894	6964
2772.779	7120
2774.663	7105
2776.547	7208
2778.431	7130
2780.314	7125
2782.197	7028
2784.078	7052
2785.96	7137
2787.842	6998
2789.723	7072
2791.603	7072
2793.483	7039
2795.362	6846
2797.241	7066
2799.121	7127
2800.997	7095
2802.874	7105
2804.751	6941
2806.628	7008
2808.506	7060
2810.38	6900
2812.255	7113
2814.13	6947
2816.003	6991
2817.878	7023
2819.752	6929
2821.623	7029
2823.496	6896
2825.368	7034
2827.238	6816
2829.111	7048
2830.98	6919
2832.851	6964
2834.719	6923
2836.589	7078
2838.458	7057
2840.327	6897
2842.193	6944
2844.061	6979
2845.927	7066
2847.794	7071
2849.66	7063
2851.525	7141
2853.39	7080
2855.254	7229
2857.117	7047
2858.983	7227
2860.845	7192
2862.707	7154
2864.569	7381
2866.431	7238
2868.293	7130
2870.154	7308
2872.013	7375
2873.873	7388
2875.733	7470
2877.592	7465
2879.451	7492
2881.309	7584
2883.166	7554
2885.022	7663
2886.879	7775
2888.736	7665
2890.591	7650
2892.446	7667
2894.301	7815
2896.155	7760
2898.009	7733
2899.863	7646
2901.716	7759
2903.568	7726
2905.419	7708
2907.27	7661
2909.123	7654
2910.973	7741
2912.824	7741
2914.673	7804
2916.521	7795
2918.372	7919
2920.22	7877
2922.067	7938
2923.914	7929
2925.761	8018
2927.607	8055
2929.455	8041
2931.301	8130
2933.144	8295
2934.99	8223
2936.833	8260
2938.678	8290
2940.522	8309
2942.364	8564
2944.207	8698
2946.048	8600
2947.891	8779
2949.731	8852
2951.571	8797
2953.412	8760
2955.25	8499
2957.09	8443
2958.93	8429
2960.767	8513
2962.606	8369
2964.443	8392
2966.279	8349
2968.116	8336
2969.953	8075
2971.788	8040
2973.623	7913
2975.457	7932
2977.292	7714
2979.127	7664
2980.959	7800
2982.792	7673
2984.624	7583
2986.455	7520
2988.288	7567
2990.119	7396
2991.949	7388
2993.779	7424
2995.608	7387
2997.439	7313
2999.268	7292
3001.096	7311
3002.923	7208
3004.751	7091
3006.578	7138
3008.406	6983
3010.232	6909
3012.057	6892
3013.883	6918
3015.706	6916
3017.532	6917
3019.356	6723
3021.179	6820
3023.002	6892
3024.823	6688
3026.646	6712
3028.469	6682
3030.289	6764
3032.11	6474
3033.93	6751
3035.749	6663
3037.57	6546
3039.39	6702
3041.207	6654
3043.026	6596
3044.842	6658
3046.661	6583
3048.477	6597
3050.294	6556
3052.109	6480
3053.925	6577
3055.739	6639
3057.555	6588
3059.368	6566
3061.181	6626
3062.995	6519
3064.807	6629
3066.62	6490
3068.433	6630
3070.243	6535
3072.054	6562
3073.865	6462
3075.675	6539
3077.485	6482
3079.293	6544
3081.102	6467
3082.911	6338
3084.719	6496
3086.527	6416
3088.333	6392
3090.139	6444
3091.945	6369
3093.75	6345
3095.557	6263
3097.361	6387
3099.165	6355
3100.969	6362
3102.772	6302
3104.575	6334
3106.379	6257
3108.181	6375
3109.982	6309
3111.783	6287
3113.584	6436
3115.386	6270
3117.186	6303
3118.985	6314
3120.783	6195
3122.582	6291
3124.381	6146
3126.179	6308
3127.975	6242
3129.772	6204
3131.569	6218
3133.365	6185
3135.161	6285
3136.956	6170
3138.751	6249
3140.544	6087
3142.338	6213
3144.132	6264
3145.925	6154
3147.717	6225
3149.509	6212
3151.301	6128
3153.091	6237
3154.884	6127
3156.673	6145
3158.462	6138
3160.252	6114
3162.041	6095
3163.831	6107
3165.618	6027
3167.405	6113
3169.193	6157
3170.979	6148
3172.767	6191
3174.553	6173
3176.338	6129
3178.123	6011
3179.907	6048
3181.692	6045
3183.477	6017
3185.259	6089
3187.042	6160
3188.824	6071
3190.607	6145
3192.389	5998
3194.17	6080
3195.951	6165
3197.73	6138
3199.51	6152
3201.289	6042
3203.07	6174
3204.848	6028
3206.626	6068
3208.403	6163
3210.18	6072
3211.959	6180
3213.735	6093
3215.511	6016
3217.285	6129
3219.06	5974
3220.836	6066
3222.611	6022
3224.384	5981
3226.158	6045
3227.929	6034
3229.702	6050
3231.476	5935
3233.248	6030
3235.018	6124
3236.789	6024
3238.56	6017
3240.33	5983
3242.1	6019
3243.869	6022
3245.637	6139
3247.405	6062
3249.172	6011
3250.941	5963
3252.707	6013
3254.474	6044
3256.24	5963
3258.006	6154
3259.772	6034
3261.537	6002
3263.301	6105
3265.065	5991
3266.828	6063
3268.592	5923
3270.355	6021
3272.117	6073
3273.878	5978
3275.64	6086
3277.401	5994
3279.162	5994
3280.922	5911
3282.682	6077
3284.441	6062
3286.199	6039
3287.959	5939
3289.716	5971
3291.475	5952
3293.232	6033
3294.988	6012
3296.744	5980
3298.501	6004
3300.256	5952
3302.011	5932
3303.766	6042
3305.52	6013
3307.275	5909
3309.028	6011
3310.781	5954
3312.533	5882
3314.285	6001
3316.038	6031
3317.789	5962
3319.54	5801
3321.289	5998
3323.039	6021
3324.789	5920
3326.539	6061
3328.288	5918
3330.035	5920
3331.783	5871
3333.531	5817
3335.28	5907
3337.025	5954
3338.771	5876
3340.518	5947
3342.262	5875
3344.009	5855
3345.753	5836
3347.497	5785
3349.24	5959
3350.983	5864
3352.726	5825
3354.469	5809
3356.212	5858
3357.952	5804
3359.694	5725
3361.434	5774
3363.176	5809
3364.916	5881
3366.654	5789
3368.394	5857
3370.132	5809
3371.871	5770
3373.61	5799
3375.346	5777
3377.083	5727
3378.82	5823
3380.556	5849
3382.292	5734
3384.027	5849
3385.763	5709
3387.497	5778
3389.231	5679
3390.965	5742
3392.698	5696
3394.431	5682
3396.164	5682
3397.896	5723
3399.627	5724
3401.36	5653
3403.09	5678
3404.82	5651
3406.55	5659
3408.279	5556
3410.01	5701
3411.738	5746
3413.467	5648
3415.194	5608
3416.92	5578
3418.647	5722
3420.375	5611
3422.102	5575
3423.827	5517
3425.553	5566
3427.277	5622
3429.003	5581
3430.727	5567
3432.451	5612
3434.173	5666
3435.896	5529
3437.62	5528
3439.343	5598
3441.063	5500
3442.785	5518
3444.505	5586
3446.226	5500
3447.948	5544
3449.666	5522
3451.386	5475
3453.104	5434
3454.823	5608
3456.541	5503
3458.259	5515
3459.976	5427
3461.693	5438
3463.408	5468
3465.125	5425
3466.841	5446
3468.556	5413
3470.271	5473
3471.985	5415
3473.698	5338
3475.414	5383
3477.126	5249
3478.838	5380
3480.55	5387
3482.263	5337
3483.975	5321
3485.686	5275
3487.396	5301
3489.106	5289
3490.817	5254
3492.526	5304
3494.236	5338
3495.944	5213
3497.652	5353
3499.359	5269
3501.066	5158
3502.775	5253
3504.481	5263
3506.187	5340
3507.893	5217
3509.598	5252
3511.304	5264
3513.009	5229
3514.713	5175
3516.417	5233
3518.12	5275
3519.821	5307
3521.525	5216
3523.228	5174
3524.929	5193
3526.631	5216
3528.33	5072
3530.032	5207
3531.733	5142
3533.433	5230
3535.131	5132
3536.83	5146
3538.529	5136
3540.227	5035
3541.925	5092
3543.623	5149
3545.319	5156
3547.016	5109
3548.712	5156
3550.408	5141
3552.103	5151
3553.798	5064
3555.491	5109
3557.188	5071
3558.88	5102
3560.574	4990
3562.266	5116
3563.959	5037
3565.651	5080
3567.343	5062
3569.035	5071
3570.725	5013
3572.415	5114
3574.106	4959
3575.797	5012
3577.485	5038
3579.174	5025
3580.863	4965
3582.551	5047
3584.238	4991
3585.926	4941
3587.613	4990
3589.3	4973
3590.986	4929
3592.671	4919
3594.357	4858
3596.042	4969
3597.726	5010
3599.41	4895
3601.094	4846
3602.778	4833
3604.461	4897
3606.143	4962
3607.825	4839
3609.507	4873
3611.188	4820
3612.87	4836
3614.551	4713
3616.229	4717
3617.909	4804
3619.589	4773
3621.269	4832
3622.948	4840
3624.625	4695
3626.302	4844
3627.98	4696
3629.657	4704
3631.334	4832
3633.01	4747
3634.686	4620
3636.361	4713
3638.036	4647
3639.712	4878
3641.385	4761
3643.06	4663
3644.732	4728
3646.405	4765
3648.08	4714
3649.751	4761
3651.424	4583
3653.094	4633
3654.766	4706
3656.436	4669
3658.106	4676
3659.777	4588
3661.446	4708
3663.115	4594
3664.783	4636
3666.452	4621
3668.121	4684
3669.788	4606
3671.454	4699
3673.121	4608
3674.789	4559
3676.455	4629
3678.12	4667
3679.784	4604
3681.45	4681
3683.114	4530
3684.779	4518
3686.442	4629
3688.105	4596
3689.768	4624
3691.43	4600
3693.093	4566
3694.754	4565
3696.415	4555
3698.076	4482
3699.736	4529
3701.396	4559
3703.057	4498
3704.716	4462
3706.375	4462
3708.034	4541
3709.692	4488
3711.351	4559
3713.008	4468
3714.665	4564
3716.321	4555
3717.977	4448
3719.634	4476
3721.29	4486
3722.945	4514
3724.598	4442
3726.253	4461
3727.907	4406
3729.561	4528
3731.214	4525
3732.867	4441
3734.518	4479
3736.171	4447
3737.824	4400
3739.474	4512
3741.125	4467
3742.775	4437
3744.425	4430
3746.074	4454
3747.725	4467
3749.373	4471
3751.022	4381
3752.669	4393
3754.318	4411
3755.966	4399
3757.612	4395
3759.259	4445
3760.905	4361
3762.55	4305
3764.197	4335
3765.842	4373
3767.486	4350
3769.131	4342
3770.774	4348
3772.417	4338
3774.061	4350
3775.705	4282
3777.347	4443
3778.988	4292
3780.629	4304
3782.271	4368
3783.912	4255
3785.552	4310
3787.192	4331
3788.831	4314
3790.472	4307
3792.112	4342
3793.75	4313
3795.388	4268
3797.024	4375
3798.661	4320
3800.3	4316
3801.936	4271
3803.572	4284
3805.208	4226
3806.844	4301
3808.48	4277
3810.115	4190
3811.748	4235
3813.382	4260
3815.016	4265
3816.649	4189
3818.283	4209
3819.914	4207
3821.547	4185
3823.178	4243
3824.809	4159
3826.441	4166
3828.072	4281
3829.701	4185
3831.331	4300
3832.96	4201
3834.591	4244
3836.219	4212
3837.847	4140
3839.475	4075
3841.102	4139
3842.729	4135
3844.357	4177
3845.984	4143
3847.609	4277
3849.234	4150
3850.86	4057
3852.485	4191
3854.11	4151
3855.734	4129
3857.357	4224
3858.981	4104
3860.603	4095
3862.227	4109
3863.848	4095
3865.471	4163
3867.092	4140
3868.713	4168
3870.334	4175
3871.954	4167
3873.575	4145
3875.194	4086
3876.813	4013
3878.433	4139
3880.051	4114
3881.669	4124
3883.286	4069
3884.904	4111
3886.52	3961
3888.138	3946
3889.754	3996
3891.37	4136
3892.985	4036
3894.6	4034
3896.216	4068
3897.831	4074
3899.444	4100
3901.058	4004
3902.67	3971
3904.283	3972
3905.897	3996
3907.509	3985
3909.121	4095
3910.731	4041
3912.342	3978
3913.954	4025
3915.563	4065
3917.174	4067
3918.783	4076
3920.391	3997
3922.002	3996
3923.611	4030
3925.218	4011
3926.826	4023
3928.432	3945
3930.039	3961
3931.647	3974
3933.253	3954
3934.859	3992
3936.464	4013
3938.068	3979
3939.675	3969
3941.278	3852
3942.883	4033
3944.486	3942
3946.089	3942
3947.692	3935
3949.295	3899
3950.898	3937
3952.499	3994
3954.1	3929
3955.7	3978
3957.303	3950
3958.903	3834
3960.502	4005
3962.101	3847
3963.7	3908
3965.301	3931
3966.899	3905
3968.497	3890
3970.094	3859
3971.691	3867
3973.288	3914
3974.885	3800
3976.481	3867
3978.077	3869
3979.672	3920
3981.267	3835
3982.863	3899
3984.457	3870
3986.051	3937
3987.645	3815
3989.238	3850
3990.831	3784
3992.425	3793
3994.017	3792
3995.607	3772
3997.199	3812
3998.79	3767
4000.382	3802
4001.973	3782
4003.561	3766
4005.151	3798
4006.741	3682
4008.331	3775
4009.918	3768
4011.507	3781
4013.095	3742
4014.681	3729
4016.269	3728
4017.856	3701
4019.443	3719
4021.028	3712
4022.614	3690
4024.199	3577
4025.785	3642
4027.37	3689
4028.953	3699
4030.536	3732
4032.12	3698
4033.704	3639
4035.287	3667
4036.869	3703
4038.45	3706
4040.032	3611
4041.613	3642
4043.195	3688
4044.776	3659
4046.356	3659
4047.935	3699
4049.515	3609
4051.095	3684
4052.674	3569
4054.251	3642
4055.829	3637
4057.406	3572
4058.985	3554
4060.562	3562
4062.139	3651
4063.715	3685
4065.29	3614
4066.865	3543
4068.442	3479
4070.016	3531
4071.59	3617
4073.164	3574
4074.738	3569
4076.312	3551
4077.885	3608
4079.458	3571
4081.03	3524
4082.602	3558
4084.173	3637
4085.745	3652
4087.315	3585
4088.886	3630
4090.456	3484
4092.026	3497
4093.596	3506
4095.165	3501
4096.734	3528
4098.301	3595
4099.869	3490
4101.437	3561
4103.006	3593
4104.572	3523
4106.139	3475
4107.704	3521
4109.27	3503
4110.837	3507
4112.401	3502
4113.966	3553
4115.53	3415
4117.094	3525
4118.659	3443
4120.223	3419
4121.785	3556
4123.347	3488
4124.909	3445
4126.471	3473
4128.034	3422
4129.595	3467
4131.155	3489
4132.716	3445
4134.275	3371
4135.836	3440
4137.395	3414
4138.955	3429
4140.513	3354
4142.071	3344
4143.628	3344
4145.188	3359
4146.745	3408
4148.302	3412
4149.858	3352
4151.414	3389
4152.971	3374
4154.526	3371
4156.081	3413
4157.635	3283
4159.189	3399
4160.745	3370
4162.298	3374
4163.852	3404
4165.405	3295
4166.957	3378
4168.51	3341
4170.063	3361
4171.614	3347
4173.166	3326
4174.717	3240
4176.267	3293
4177.817	3321
4179.368	3271
4180.917	3325
4182.466	3265
4184.016	3342
4185.564	3263
4187.112	3382
4188.66	3275
4190.207	3292
4191.754	3311
4193.301	3327
4194.848	3339
4196.394	3250
4197.94	3255
4199.484	3214
4201.03	3283
4202.575	3250
4204.12	3232
4205.663	3267
4207.207	3184
4208.75	3221
4210.292	3229
4211.836	3263
4213.378	3201
4214.92	3146
4216.46	3293
4218.002	3240
4219.544	3209
4221.083	3167
4222.625	3250
4224.164	3265
4225.703	3281
4227.244	3239
4228.782	3156
4230.32	3172
4231.857	3179
4233.395	3196
4234.933	3190
4236.471	3237
4238.007	3135
4239.542	3191
4241.078	3089
4242.614	3158
4244.15	3152
4245.685	3178
4247.219	3215
4248.753	3185
4250.287	3189
4251.82	3089
4253.354	3154
4254.887	3184
4256.419	3112
4257.951	3255
4259.483	3149
4261.016	3078
4262.547	3109
4264.078	3179
4265.608	3139
4267.137	3151
4268.668	3169
4270.197	3120
4271.727	3145
4273.254	3137
4274.783	3148
4276.311	3087
4277.84	3112
4279.366	3036
4280.894	3142
4282.42	3133
4283.946	3163
4285.473	3125
4286.998	3050
4288.523	3160
4290.047	3127
4291.572	3046
4293.096	3092
4294.622	3092
4296.144	2953
4297.668	3036
4299.19	2989
4300.713	3011
4302.236	2981
4303.758	3064
4305.279	3062
4306.799	3067
4308.321	2974
4309.842	2987
4311.361	3001
4312.882	3021
4314.401	3050
