400.0961	4560
402.6185	4585
405.1424	4534
407.6635	4558
410.1838	4665
412.7035	4681
415.2225	4620
417.7388	4751
420.2585	4760
422.7754	4776
425.2917	4863
427.8072	4817
430.3221	4793
432.8363	4809
435.3498	4951
437.8626	4908
440.3727	4882
442.8841	4888
445.3969	4924
447.907	4867
450.4142	4922
452.9229	4814
455.4289	4968
457.9362	4924
460.4449	4833
462.9488	4880
465.454	4929
467.9566	4893
470.4604	5025
472.9637	4855
475.4662	4945
477.966	5018
480.4671	4933
482.9656	4945
485.4633	5027
487.9645	4941
490.4608	5041
492.9566	4925
495.4536	5116
497.948	5081
500.4437	5095
502.9387	5118
505.431	5062
507.9226	5121
510.4136	5110
512.9079	5104
515.3975	5103
517.8864	5135
520.3746	5125
522.8622	5135
525.3491	5037
527.8394	5123
530.3249	5172
532.8098	5121
535.2939	5108
537.7774	5070
540.2623	5113
542.7444	5048
545.2259	5124
547.7067	5284
550.1868	5096
552.6683	5150
555.147	5209
557.6231	5212
560.1005	5149
562.5773	5169
565.0534	5160
567.5308	5218
570.0056	5289
572.4776	5232
574.951	5301
577.4237	5343
579.8978	5263
582.3671	5327
584.8378	5348
587.3079	5466
589.7773	5413
592.244	5316
594.714	5340
597.1793	5366
599.6461	5289
602.1121	5302
604.5754	5384
607.0421	5264
609.5042	5343
611.9675	5362
614.4282	5326
616.8902	5325
619.3515	5345
621.8122	5312
624.2702	5421
626.7296	5366
629.1863	5272
631.6423	5229
634.1017	5227
636.5563	5330
639.0104	5418
641.4658	5324
643.9185	5295
646.3725	5383
648.8239	5394
651.2766	5298
653.7266	5410
656.176	5361
658.6247	5403
661.0748	5405
663.5242	5424
665.9709	5402
668.417	5465
670.8624	5468
673.3092	5383
675.7533	5523
678.1968	5473
680.6395	5454
683.0817	5420
685.5251	5544
687.9659	5392
690.4061	5549
692.8456	5522
695.2844	5475
697.7226	5525
700.1621	5485
702.599	5558
705.0332	5579
707.4688	5483
709.9036	5639
712.3399	5541
714.7735	5608
717.2044	5655
719.6367	5591
722.0683	5679
724.4993	5667
726.9296	5587
729.3593	5667
731.7883	5690
734.2147	5740
736.6423	5590
739.0714	5790
741.4958	5841
743.9216	5762
746.3447	5752
748.7691	5727
751.1929	5834
753.616	5786
756.0366	5744
758.4584	5930
760.8776	5886
763.2982	5970
765.718	5997
768.1373	5939
770.5539	5920
772.9698	5910
775.3871	5995
777.8038	5936
780.2178	5994
782.6332	5870
785.0459	5873
787.458	5832
789.8714	5951
792.2842	5884
794.6943	5978
797.1038	5829
799.5127	6012
801.9209	5903
804.3324	5921
806.7393	5952
809.1456	5945
811.5513	5906
813.9562	6005
816.3625	5967
818.7663	5945
821.1693	6080
823.5718	6009
825.9735	5957
828.3746	6080
830.7771	6035
833.177	6063
835.5762	6089
837.9747	6074
840.3727	5984
842.772	6140
845.1666	6182
847.5626	6157
849.958	6126
852.3527	6132
854.7488	6198
857.1403	6110
859.5331	6234
861.9253	6174
864.3168	6170
866.7057	6034
869.098	6090
871.4876	6058
873.8746	6125
876.263	6217
878.6487	6014
881.0378	6133
883.4243	6149
885.8081	6161
888.1933	6178
890.5759	6058
892.9598	6067
895.343	6164
897.7256	6101
900.1057	6076
902.4871	6151
904.8659	6142
907.246	6188
909.6254	6230
912.0023	6258
914.3786	6296
916.7562	6375
919.1331	6424
921.5074	6359
923.8831	6433
926.2562	6503
928.6287	6483
931.0005	6536
933.3757	6462
935.7462	6465
938.1162	6383
940.4855	6593
942.8542	6606
945.2242	6667
947.5916	6720
949.9584	6791
952.3266	7062
954.6921	7079
957.0571	7566
959.4233	7623
961.787	7754
964.15	7760
966.5125	7556
968.8742	7471
971.2354	7122
973.5959	6877
975.9559	6657
978.3151	6660
980.6738	6549
983.0338	6547
985.3912	6508
987.7461	6426
990.1022	6360
992.4578	6369
994.8127	6395
997.1689	6197
999.5207	6332
1001.874	6429
1004.226	6382
1006.576	6402
1008.929	6327
1011.28	6473
1013.628	6492
1015.977	6452
1018.324	6398
1020.674	6424
1023.019	6438
1025.366	6426
1027.713	6423
1030.056	6429
1032.399	6439
1034.746	6513
1037.087	6520
1039.431	6501
1041.771	6472
1044.113	6523
1046.454	6460
1048.793	6527
1051.133	6372
1053.471	6439
1055.807	6498
1058.146	6614
1060.483	6552
1062.818	6523
1065.153	6603
1067.489	6680
1069.822	6608
1072.156	6609
1074.488	6636
1076.82	6728
1079.15	6473
1081.48	6558
1083.814	6615
1086.143	6600
1088.471	6474
1090.799	6508
1093.126	6553
1095.452	6560
1097.78	6539
1100.105	6505
1102.43	6524
1104.754	6452
1107.077	6562
1109.4	6557
1111.722	6520
1114.044	6529
1116.365	6455
1118.685	6538
1121.005	6511
1123.324	6507
1125.643	6497
1127.961	6668
1130.278	6533
1132.595	6557
1134.911	6721
1137.226	6629
1139.541	6561
1141.854	6583
1144.167	6453
1146.482	6595
1148.793	6625
1151.105	6566
1153.414	6548
1155.725	6612
1158.033	6542
1160.344	6656
1162.651	6561
1164.959	6577
1167.265	6536
1169.572	6695
1171.878	6661
1174.184	6601
1176.488	6599
1178.79	6580
1181.094	6609
1183.396	6543
1185.699	6690
1188.001	6621
1190.301	6545
1192.6	6511
1194.9	6606
1197.2	6543
1199.497	6518
1201.794	6499
1204.09	6508
1206.387	6431
1208.684	6597
1210.978	6577
1213.272	6623
1215.565	6655
1217.858	6603
1220.15	6579
1222.443	6634
1224.734	6601
1227.024	6680
1229.313	6678
1231.602	6764
1233.892	6768
1236.18	6754
1238.467	6781
1240.754	6840
1243.04	6703
1245.325	6918
1247.612	6934
1249.896	6982
1252.178	6942
1254.461	6826
1256.743	6841
1259.027	6974
1261.308	6736
1263.587	6940
1265.867	6864
1268.146	6882
1270.425	6972
1272.703	6786
1274.981	6943
1277.256	6769
1279.532	6871
1281.808	6851
1284.083	6826
1286.358	6814
1288.63	6750
1290.904	6771
1293.175	6824
1295.449	6820
1297.719	6704
1299.99	6695
1302.259	6783
1304.529	6779
1306.798	6723
1309.065	6685
1311.333	6687
1313.599	6726
1315.866	6776
1318.131	6770
1320.396	6831
1322.66	6760
1324.925	6791
1327.187	6710
1329.448	6870
1331.711	6807
1333.974	6774
1336.234	6740
1338.493	6888
1340.752	6755
1343.01	6769
1345.269	6731
1347.526	6775
1349.784	6798
1352.04	6712
1354.295	6792
1356.552	6787
1358.806	6806
1361.059	6701
1363.312	6847
1365.564	6720
1367.818	6836
1370.069	6835
1372.318	6843
1374.568	6925
1376.817	6855
1379.066	6844
1381.316	6922
1383.564	6897
1385.809	6890
1388.056	6882
1390.301	6800
1392.549	6944
1394.793	6986
1397.036	6956
1399.279	7053
1401.522	7044
1403.763	6902
1406.007	7105
1408.248	7011
1410.487	7025
1412.727	6959
1414.965	7092
1417.205	7170
1419.442	7014
1421.68	6996
1423.915	7091
1426.152	7003
1428.388	6953
1430.623	7086
1432.857	6990
1435.091	7046
1437.323	6990
1439.556	7034
1441.789	7185
1444.019	7054
1446.25	7094
1448.48	7072
1450.708	7156
1452.938	7268
1455.167	7139
1457.394	7234
1459.62	7157
1461.846	7064
1464.073	7055
1466.299	7027
1468.523	7032
1470.746	7023
1472.969	7053
1475.191	6989
1477.415	7059
1479.636	6974
1481.858	6933
1484.078	7016
1486.298	6908
1488.518	6772
1490.736	6813
1492.954	6814
1495.169	6789
1497.386	6853
1499.602	6829
1501.819	6900
1504.034	6782
1506.248	6821
1508.462	6802
1510.675	6767
1512.888	6865
1515.1	6730
1517.311	6743
1519.522	6766
1521.732	6834
1523.942	6821
1526.151	6859
1528.36	6684
1530.566	6860
1532.773	6833
1534.98	6825
1537.187	6798
1539.392	6757
1541.596	6881
1543.801	6899
1546.005	6895
1548.208	6809
1550.411	6965
1552.612	6882
1554.814	6824
1557.013	6857
1559.212	6855
1561.414	7014
1563.612	6950
1565.811	6876
1568.007	7060
1570.203	6946
1572.403	7021
1574.598	6911
1576.792	7006
1578.988	7052
1581.181	7048
1583.376	6931
1585.568	6929
1587.761	7059
1589.952	7056
1592.143	6994
1594.333	6986
1596.524	7009
1598.715	7166
1600.903	6968
1603.091	7188
1605.278	7051
1607.466	7015
1609.652	6967
1611.838	7078
1614.023	7019
1616.207	6980
1618.391	7091
1620.576	7055
1622.759	7104
1624.941	7212
1627.123	7070
1629.304	7057
1631.484	7067
1633.664	7198
1635.844	7158
1638.022	7145
1640.201	7074
1642.38	7115
1644.556	7148
1646.732	7131
1648.908	7141
1651.084	7123
1653.257	7207
1655.433	7152
1657.607	7164
1659.779	7251
1661.951	7113
1664.122	7175
1666.295	7144
1668.467	7296
1670.635	7348
1672.805	7337
1674.973	7199
1677.142	7230
1679.31	7190
1681.478	7191
1683.644	7268
1685.81	7169
1687.975	7233
1690.142	7231
1692.305	7116
1694.468	7112
1696.632	7110
1698.794	7097
1700.957	7080
1703.119	7225
1705.279	7185
1707.439	7167
1709.598	7181
1711.758	6972
1713.917	6952
1716.075	6995
1718.231	7102
1720.388	7044
1722.543	7056
1724.702	7046
1726.856	7039
1729.01	7014
1731.164	7191
1733.317	7013
1735.471	7045
1737.623	6908
1739.774	7108
1741.925	7035
1744.075	7072
1746.225	7103
1748.376	7117
1750.524	7033
1752.672	7062
1754.82	7235
1756.965	7057
1759.113	6923
1761.259	7099
1763.405	7102
1765.549	7090
1767.694	7107
1769.836	7083
1771.981	6966
1774.123	7081
1776.264	7088
1778.405	7165
1780.546	7206
1782.687	7023
1784.827	7037
1786.966	6979
1789.103	7079
1791.242	7205
1793.381	7014
1795.517	7099
1797.653	7023
1799.788	7092
1801.923	7115
1804.057	7099
1806.193	7241
1808.326	7209
1810.457	7046
1812.59	7025
1814.721	7030
1816.855	7008
1818.984	7158
1821.113	7012
1823.244	7140
1825.372	7109
1827.499	7059
1829.63	7048
1831.756	7014
1833.882	7150
1836.007	7159
1838.132	7050
1840.26	7026
1842.384	7108
1844.507	6982
1846.63	7067
1848.752	6962
1850.875	7200
1852.996	7137
1855.118	6997
1857.238	7154
1859.358	7079
1861.477	7088
1863.597	7073
1865.715	6996
1867.832	6974
1869.948	7053
1872.064	7011
1874.181	7013
1876.297	7138
1878.411	7056
1880.526	6960
1882.639	7089
1884.752	7073
1886.865	7042
1888.977	7046
1891.089	6955
1893.2	7126
1895.308	7133
1897.42	7147
1899.53	7084
1901.639	7030
1903.745	7029
1905.853	7226
1907.962	7260
1910.067	7191
1912.174	6997
1914.278	7230
1916.383	7121
1918.486	7083
1920.592	7141
1922.694	7117
1924.797	7157
1926.898	7062
1929	7133
1931.102	7250
1933.203	7070
1935.301	7134
1937.401	7156
1939.499	7122
1941.598	7106
1943.697	7160
1945.793	7103
1947.888	7088
1949.985	7221
1952.08	7172
1954.176	7141
1956.269	7285
1958.364	7052
1960.457	7209
1962.549	7186
1964.642	7183
1966.733	7102
1968.823	7156
1970.913	7043
1973.005	7063
1975.093	7058
1977.184	7109
1979.271	7184
1981.359	7223
1983.446	7094
1985.532	7064
1987.619	6984
1989.705	7096
1991.789	7142
1993.874	7092
1995.956	7088
1998.041	6994
2000.123	7075
2002.206	7104
2004.287	7048
2006.368	7017
2008.449	6943
2010.529	7072
2012.609	7105
2014.688	7050
2016.766	7109
2018.843	7008
2020.922	7187
2022.999	7091
2025.074	7098
2027.15	7129
2029.225	7080
2031.299	7024
2033.375	7100
2035.447	7075
2037.52	7100
2039.592	6973
2041.664	7071
2043.736	7163
2045.807	6984
2047.876	7058
2049.947	7133
2052.015	6993
2054.086	7154
2056.153	7017
2058.221	7116
2060.288	7099
2062.353	7069
2064.42	7067
2066.486	6944
2068.55	7136
2070.614	7082
2072.678	7048
2074.741	7113
2076.805	7078
2078.866	7156
2080.929	7103
2082.99	7039
2085.049	7127
2087.109	7023
2089.17	7062
2091.228	6980
2093.286	6987
2095.344	7055
2097.4	7157
2099.46	7061
2101.516	7011
2103.572	6974
2105.626	7091
2107.679	7007
2109.735	6948
2111.788	7117
2113.841	7102
2115.894	7025
2117.945	7071
2119.997	7049
2122.049	6969
2124.1	7059
2126.148	7133
2128.197	6951
2130.246	7067
2132.296	7116
2134.342	7040
2136.39	7046
2138.437	7078
2140.483	7028
2142.527	7019
2144.574	6966
2146.619	7037
2148.661	7129
2150.705	6997
2152.747	6969
2154.792	6956
2156.832	7029
2158.874	7048
2160.915	6982
2162.954	7014
2164.995	6998
2167.034	7040
2169.072	7120
2171.111	7009
2173.148	6893
2175.186	6977
2177.223	6927
2179.258	6947
2181.294	6911
2183.328	6967
2185.362	6986
2187.398	6913
2189.431	6921
2191.463	6815
2193.495	6905
2195.528	7019
2197.56	6964
2199.59	6863
2201.62	6874
2203.649	6906
2205.678	6838
2207.708	6916
2209.737	6810
2211.764	6857
2213.791	6756
2215.817	6886
2217.843	6886
2219.87	6859
2221.895	6848
2223.919	6769
2225.942	6842
2227.966	6845
2229.988	6780
2232.012	6912
2234.032	7000
2236.054	6851
2238.074	6847
2240.095	6811
2242.116	6890
2244.135	6812
2246.153	6854
2248.171	6899
2250.188	6823
2252.208	6812
2254.223	6868
2256.239	6834
2258.255	6881
2260.269	6744
2262.283	7028
2264.3	6806
2266.312	6773
2268.325	6865
2270.336	6797
2272.349	6765
2274.362	6897
2276.372	6844
2278.383	6800
2280.392	6854
2282.402	6832
2284.409	6951
2286.418	6753
2288.427	6840
2290.433	6888
2292.441	6981
2294.446	6801
2296.453	6774
2298.459	6837
2300.463	6864
2302.466	6819
2304.471	6851
2306.475	6824
2308.477	6814
2310.478	6823
2312.481	6847
2314.481	6746
2316.481	6877
2318.482	6871
2320.482	6608
2322.48	6715
2324.48	6864
2326.478	6670
2328.476	6719
2330.473	6853
2332.469	6694
2334.465	6793
2336.46	6646
2338.454	6695
2340.45	6777
2342.444	6793
2344.437	6728
2346.43	6623
2348.421	6713
2350.414	6643
2352.405	6676
2354.396	6731
2356.386	6728
2358.376	6670
2360.366	6633
2362.355	6681
2364.343	6675
2366.331	6657
2368.317	6747
2370.304	6687
2372.292	6741
2374.278	6662
2376.262	6685
2378.247	6653
2380.23	6636
2382.216	6636
2384.199	6668
2386.181	6551
2388.163	6596
2390.144	6733
2392.127	6560
2394.107	6601
2396.087	6681
2398.066	6486
2400.046	6633
2402.023	6604
2404.004	6659
2405.981	6613
2407.957	6572
2409.934	6558
2411.91	6536
2413.886	6514
2415.862	6507
2417.836	6492
2419.809	6556
2421.784	6551
2423.756	6502
2425.73	6698
2427.701	6705
2429.672	6530
2431.644	6579
2433.615	6567
2435.586	6619
2437.555	6492
2439.523	6668
2441.491	6424
2443.459	6619
2445.428	6593
2447.395	6564
2449.361	6599
2451.327	6443
2453.292	6559
2455.257	6586
2457.223	6516
2459.187	6542
2461.15	6561
2463.113	6536
2465.076	6484
2467.039	6518
2468.999	6570
2470.96	6535
2472.921	6489
2474.881	6440
2476.841	6468
2478.8	6490
2480.759	6489
2482.717	6526
2484.675	6537
2486.63	6482
2488.589	6489
2490.545	6441
2492.5	6401
2494.455	6446
2496.408	6466
2498.364	6493
2500.318	6619
2502.27	6503
2504.223	6427
2506.174	6458
2508.126	6552
2510.078	6443
2512.03	6429
2513.979	6414
2515.927	6382
2517.877	6324
2519.826	6524
2521.775	6524
2523.722	6368
2525.668	6466
2527.616	6487
2529.561	6467
2531.508	6379
2533.452	6484
2535.398	6290
2537.342	6500
2539.284	6451
2541.229	6436
2543.173	6456
2545.114	6387
2547.055	6498
2548.996	6369
2550.938	6424
2552.878	6335
2554.817	6413
2556.756	6464
2558.695	6325
2560.633	6322
2562.572	6388
2564.509	6462
2566.445	6425
2568.382	6380
2570.317	6437
2572.254	6404
2574.189	6315
2576.123	6400
2578.057	6346
2579.99	6469
2581.923	6486
2583.855	6376
2585.788	6352
2587.719	6382
2589.65	6488
2591.579	6290
2593.511	6462
2595.44	6425
2597.37	6276
2599.297	6342
2601.225	6444
2603.153	6221
2605.08	6428
2607.007	6435
2608.932	6413
2610.858	6401
2612.782	6466
2614.709	6425
2616.632	6485
2618.556	6420
2620.478	6471
2622.401	6326
2624.324	6411
2626.247	6406
2628.167	6352
2630.088	6429
2632.008	6414
2633.928	6403
2635.848	6404
2637.766	6377
2639.684	6393
2641.603	6486
2643.519	6446
2645.437	6343
2647.353	6421
2649.27	6319
2651.184	6493
2653.099	6391
2655.014	6376
2656.928	6459
2658.842	6360
2660.755	6504
2662.667	6404
2664.579	6316
2666.491	6379
2668.402	6397
2670.312	6456
2672.222	6402
2674.132	6403
2676.042	6294
2677.951	6337
2679.859	6305
2681.766	6366
2683.674	6307
2685.582	6459
2687.488	6359
2689.392	6368
2691.298	6276
2693.202	6272
2695.107	6277
2697.012	6317
2698.914	6279
2700.817	6324
2702.72	6349
2704.622	6314
2706.524	6198
2708.425	6217
2710.326	6208
2712.225	6269
2714.125	6270
2716.024	6288
2717.923	6212
2719.822	6248
2721.719	6347
2723.616	6254
2725.512	6318
2727.41	6220
2729.305	6221
2731.201	6228
2733.095	6184
2734.99	6221
2736.884	6261
2738.778	6332
2740.67	6291
2742.562	6265
2744.455	6169
2746.346	6233
2748.238	6255
2750.129	6190
2752.018	6118
2753.907	6250
2755.797	6223
2757.687	6303
2759.575	6178
2761.462	6202
2763.349	6122
2765.237	6203
2767.124	6050
2769.009	6107
2770.894	6195
2772.779	6101
2774.663	6299
2776.547	6161
2778.431	6069
2780.314	6105
2782.197	6154
2784.078	6129
2785.96	6099
2787.842	6086
2789.723	6155
2791.603	6163
2793.483	6124
2795.362	6134
2797.241	6125
2799.121	6150
2800.997	6176
2802.874	6136
2804.751	6150
2806.628	6111
2808.506	6160
2810.38	6175
2812.255	6180
2814.13	6127
2816.003	6083
2817.878	6176
2819.752	6191
2821.623	6180
2823.496	6032
2825.368	6114
2827.238	6146
2829.111	6062
2830.98	6165
2832.851	6104
2834.719	6085
2836.589	6142
2838.458	6204
2840.327	6053
2842.193	6177
2844.061	6296
2845.927	6115
2847.794	6207
2849.66	6145
2851.525	6206
2853.39	6141
2855.254	6172
2857.117	6191
2858.983	6170
2860.845	6198
2862.707	6342
2864.569	6225
2866.431	6374
2868.293	6252
2870.154	6422
2872.013	6288
2873.873	6325
2875.733	6537
2877.592	6486
2879.451	6430
2881.309	6666
2883.166	6635
2885.022	6740
2886.879	6623
2888.736	6652
2890.591	6648
2892.446	6600
2894.301	6721
2896.155	6735
2898.009	6690
2899.863	6613
2901.716	6672
2903.568	6660
2905.419	6735
2907.27	6555
2909.123	6737
2910.973	6752
2912.824	6743
2914.673	6688
2916.521	6864
2918.372	6841
2920.22	6863
2922.067	6924
2923.914	6959
2925.761	7027
2927.607	7027
2929.455	7004
2931.301	7255
2933.144	7138
2934.99	7239
2936.833	7255
2938.678	7181
2940.522	7344
2942.364	7294
2944.207	7537
2946.048	7455
2947.891	7564
2949.731	7580
2951.571	7481
2953.412	7513
2955.25	7333
2957.09	7406
2958.93	7353
2960.767	7199
2962.606	7128
2964.443	7160
2966.279	7048
2968.116	7127
2969.953	6980
2971.788	6905
2973.623	6847
2975.457	6691
2977.292	6703
2979.127	6771
2980.959	6696
2982.792	6686
2984.624	6703
2986.455	6576
2988.288	6613
2990.119	6560
2991.949	6463
2993.779	6491
2995.608	6482
2997.439	6429
2999.268	6416
3001.096	6453
3002.923	6314
3004.751	6291
3006.578	6246
3008.406	6224
3010.232	6232
3012.057	6122
3013.883	6034
3015.706	6079
3017.532	6067
3019.356	5996
3021.179	6115
3023.002	5966
3024.823	5978
3026.646	5894
3028.469	5796
3030.289	5890
3032.11	5819
3033.93	5994
3035.749	5848
3037.57	5813
3039.39	5725
3041.207	5908
3043.026	5840
3044.842	5894
3046.661	5793
3048.477	5982
3050.294	5722
3052.109	5782
3053.925	5871
3055.739	5758
3057.555	5747
3059.368	5899
3061.181	5877
3062.995	5739
3064.807	5719
3066.62	5703
3068.433	5747
3070.243	5722
3072.054	5793
3073.865	5724
3075.675	5774
3077.485	5701
3079.293	5745
3081.102	5754
3082.911	5664
3084.719	5618
3086.527	5730
3088.333	5710
3090.139	5717
3091.945	5593
3093.75	5646
3095.557	5526
3097.361	5621
3099.165	5678
3100.969	5532
3102.772	5589
3104.575	5551
3106.379	5558
3108.181	5575
3109.982	5687
3111.783	5551
3113.584	5562
3115.386	5527
3117.186	5526
3118.985	5562
3120.783	5527
3122.582	5487
3124.381	5534
3126.179	5574
3127.975	5545
3129.772	5547
3131.569	5599
3133.365	5478
3135.161	5586
3136.956	5452
3138.751	5493
3140.544	5482
3142.338	5438
3144.132	5521
3145.925	5480
3147.717	5429
3149.509	5423
3151.301	5453
3153.091	5447
3154.884	5523
3156.673	5450
3158.462	5382
3160.252	5359
3162.041	5387
3163.831	5352
3165.618	5439
3167.405	5403
3169.193	5515
3170.979	5448
3172.767	5479
3174.553	5352
3176.338	5414
3178.123	5438
3179.907	5436
3181.692	5440
3183.477	5320
3185.259	5305
3187.042	5411
3188.824	5390
3190.607	5305
3192.389	5342
3194.17	5405
3195.951	5435
3197.73	5330
3199.51	5314
3201.289	5313
3203.07	5318
3204.848	5405
3206.626	5381
3208.403	5420
3210.18	5373
3211.959	5265
3213.735	5419
3215.511	5403
3217.285	5372
3219.06	5403
3220.836	5452
3222.611	5269
3224.384	5388
3226.158	5356
3227.929	5270
3229.702	5403
3231.476	5271
3233.248	5244
3235.018	5304
3236.789	5330
3238.56	5294
3240.33	5248
3242.1	5394
3243.869	5308
3245.637	5309
3247.405	5377
3249.172	5308
3250.941	5362
3252.707	5296
3254.474	5280
3256.24	5299
3258.006	5295
3259.772	5353
3261.537	5281
3263.301	5438
3265.065	5323
3266.828	5252
3268.592	5291
3270.355	5268
3272.117	5358
3273.878	5289
3275.64	5348
3277.401	5265
3279.162	5369
3280.922	5273
3282.682	5232
3284.441	5330
3286.199	5346
3287.959	5239
3289.716	5328
3291.475	5246
3293.232	5334
3294.988	5363
3296.744	5344
3298.501	5312
3300.256	5335
3302.011	5301
3303.766	5220
3305.52	5302
3307.275	5269
3309.028	5280
3310.781	5383
3312.533	5321
3314.285	5312
3316.038	5241
3317.789	5170
3319.54	5323
3321.289	5407
3323.039	5248
3324.789	5252
3326.539	5224
3328.288	5187
3330.035	5277
3331.783	5161
3333.531	5185
3335.28	5332
3337.025	5245
3338.771	5252
3340.518	5185
3342.262	5106
3344.009	5200
3345.753	5244
3347.497	5260
3349.24	5182
3350.983	5234
3352.726	5234
3354.469	5140
3356.212	5151
3357.952	5174
3359.694	5140
3361.434	5216
3363.176	5090
3364.916	5223
3366.654	5164
3368.394	5138
3370.132	5082
3371.871	5179
3373.61	5144
3375.346	5034
3377.083	5158
3378.82	5051
3380.556	5115
3382.292	5132
3384.027	5137
3385.763	5037
3387.497	5029
3389.231	5058
3390.965	5135
3392.698	5104
3394.431	5033
3396.164	5093
3397.896	5062
3399.627	5040
3401.36	5039
3403.09	4969
3404.82	4983
3406.55	5133
3408.279	4976
3410.01	5136
3411.738	5021
3413.467	4951
3415.194	5093
3416.92	4941
3418.647	5130
3420.375	5025
3422.102	5034
3423.827	4942
3425.553	5042
3427.277	4970
3429.003	4990
3430.727	5057
3432.451	4911
3434.173	5048
3435.896	4992
3437.62	4988
3439.343	4828
3441.063	4895
3442.785	4973
3444.505	4867
3446.226	4942
3447.948	4897
3449.666	4837
3451.386	4921
3453.104	4910
3454.823	4900
3456.541	4852
3458.259	4885
3459.976	4859
3461.693	4842
3463.408	4759
3465.125	4808
3466.841	4733
3468.556	4927
3470.271	4759
3471.985	4837
3473.698	4820
3475.414	4838
3477.126	4774
3478.838	4756
3480.55	4824
3482.263	4806
3483.975	4786
3485.686	4736
3487.396	4678
3489.106	4766
3490.817	4745
3492.526	4759
3494.236	4772
3495.944	4740
3497.652	4686
3499.359	4852
3501.066	4643
3502.775	4754
3504.481	4758
3506.187	4650
3507.893	4557
3509.598	4678
3511.304	4708
3513.009	4694
3514.713	4531
3516.417	4719
3518.12	4630
3519.821	4591
3521.525	4630
3523.228	4614
3524.929	4675
3526.631	4655
3528.33	4588
3530.032	4654
3531.733	4521
3533.433	4607
3535.131	4523
3536.83	4655
3538.529	4537
3540.227	4551
3541.925	4568
3543.623	4604
3545.319	4530
3547.016	4579
3548.712	4609
3550.408	4459
3552.103	4640
3553.798	4631
3555.491	4509
3557.188	4541
3558.88	4495
3560.574	4509
3562.266	4474
3563.959	4420
3565.651	4476
3567.343	4430
3569.035	4418
3570.725	4511
3572.415	4517
3574.106	4445
3575.797	4554
3577.485	4427
3579.174	4481
3580.863	4326
3582.551	4487
3584.238	4437
3585.926	4437
3587.613	4498
3589.3	4437
3590.986	4376
3592.671	4326
3594.357	4413
3596.042	4424
3597.726	4444
3599.41	4400
3601.094	4403
3602.778	4268
3604.461	4407
3606.143	4377
3607.825	4444
3609.507	4321
3611.188	4329
3612.87	4371
3614.551	4290
3616.229	4245
3617.909	4291
3619.589	4315
3621.269	4252
3622.948	4265
3624.625	4224
3626.302	4287
3627.98	4195
3629.657	4248
3631.334	4266
3633.01	4250
3634.686	4174
3636.361	4219
3638.036	4249
3639.712	4222
3641.385	4251
3643.06	4219
3644.732	4192
3646.405	4165
3648.08	4167
3649.751	4151
3651.424	4146
3653.094	4154
3654.766	4212
3656.436	4247
3658.106	4239
3659.777	4152
3661.446	4098
3663.115	4112
3664.783	4186
3666.452	4198
3668.121	4042
3669.788	4105
3671.454	4154
3673.121	4158
3674.789	4123
3676.455	4113
3678.12	4097
3679.784	4087
3681.45	4160
3683.114	4121
3684.779	4083
3686.442	4098
3688.105	4040
3689.768	4007
3691.43	4071
3693.093	4099
3694.754	4109
3696.415	4063
3698.076	4116
3699.736	3991
3701.396	3975
3703.057	4095
3704.716	3981
3706.375	4066
3708.034	4122
3709.692	4038
3711.351	4052
3713.008	4085
3714.665	4034
3716.321	4113
3717.977	4057
3719.634	3953
3721.29	3989
3722.945	4023
3724.598	4003
3726.253	4060
3727.907	3942
3729.561	3975
3731.214	4009
3732.867	3977
3734.518	4027
3736.171	3959
3737.824	3865
3739.474	4010
3741.125	3996
3742.775	3984
3744.425	3965
3746.074	3871
3747.725	3913
3749.373	3959
3751.022	3881
3752.669	3935
3754.318	3985
3755.966	3999
3757.612	4012
3759.259	3880
3760.905	3963
3762.55	3955
3764.197	3932
3765.842	3962
3767.486	3884
3769.131	3935
3770.774	3973
3772.417	3835
3774.061	3906
3775.705	3889
3777.347	3841
3778.988	3814
3780.629	3849
3782.271	3898
3783.912	3870
3785.552	3883
3787.192	3782
3788.831	3863
3790.472	3804
3792.112	3883
3793.75	3826
3795.388	3882
3797.024	3865
3798.661	3858
3800.3	3836
3801.936	3811
3803.572	3897
3805.208	3812
3806.844	3844
3808.48	3832
3810.115	3846
3811.748	3734
3813.382	3855
3815.016	3830
3816.649	3783
3818.283	3853
3819.914	3721
3821.547	3711
3823.178	3713
3824.809	3761
3826.441	3723
3828.072	3783
3829.701	3780
3831.331	3827
3832.96	3691
3834.591	3733
3836.219	3714
3837.847	3723
3839.475	3739
3841.102	3726
3842.729	3719
3844.357	3739
3845.984	3731
3847.609	3657
3849.234	3679
3850.86	3701
3852.485	3681
3854.11	3725
3855.734	3755
3857.357	3698
3858.981	3627
3860.603	3694
3862.227	3701
3863.848	3665
3865.471	3637
3867.092	3658
3868.713	3623
3870.334	3593
3871.954	3620
3873.575	3637
3875.194	3690
3876.813	3615
3878.433	3669
3880.051	3674
3881.669	3575
3883.286	3708
3884.904	3691
3886.52	3674
3888.138	3645
3889.754	3564
3891.37	3665
3892.985	3660
3894.6	3586
3896.216	3644
3897.831	3526
3899.444	3596
3901.058	3607
3902.67	3659
3904.283	3583
3905.897	3682
3907.509	3602
3909.121	3637
3910.731	3579
3912.342	3597
3913.954	3554
3915.563	3561
3917.174	3610
3918.783	3607
3920.391	3603
3922.002	3523
3923.611	3565
3925.218	3528
3926.826	3594
3928.432	3557
3930.039	3629
3931.647	3673
3933.253	3578
3934.859	3451
3936.464	3551
3938.068	3554
3939.675	3551
3941.278	3461
3942.883	3549
3944.486	3551
3946.089	3581
3947.692	3581
3949.295	3465
3950.898	3551
3952.499	3557
3954.1	3509
3955.7	3523
3957.303	3554
3958.903	3498
3960.502	3559
3962.101	3514
3963.7	3482
3965.301	3553
3966.899	3500
3968.497	3438
3970.094	3454
3971.691	3496
3973.288	3458
3974.885	3553
3976.481	3490
3978.077	3522
3979.672	3402
3981.267	3443
3982.863	3364
3984.457	3398
3986.051	3379
3987.645	3357
3989.238	3452
3990.831	3459
3992.425	3459
3994.017	3458
3995.607	3413
3997.199	3396
3998.79	3484
4000.382	3421
4001.973	3382
4003.561	3349
4005.151	3377
4006.741	3376
4008.331	3363
4009.918	3318
4011.507	3384
4013.095	3334
4014.681	3388
4016.269	3335
4017.856	3369
4019.443	3356
4021.028	3276
4022.614	3308
4024.199	3255
4025.785	3251
4027.37	3315
4028.953	3320
4030.536	3314
4032.12	3389
4033.704	3274
4035.287	3254
4036.869	3267
4038.45	3239
4040.032	3293
4041.613	3254
4043.195	3331
4044.776	3184
4046.356	3234
4047.935	3238
4049.515	3306
4051.095	3242
4052.674	3270
4054.251	3235
4055.829	3292
4057.406	3228
4058.985	3137
4060.562	3197
4062.139	3201
4063.715	3197
4065.29	3222
4066.865	3219
4068.442	3240
4070.016	3249
4071.59	3169
4073.164	3133
4074.738	3210
4076.312	3232
4077.885	3222
4079.458	3214
4081.03	3231
4082.602	3242
4084.173	3138
4085.745	3075
4087.315	3228
4088.886	3180
4090.456	3125
4092.026	3242
4093.596	3152
4095.165	3099
4096.734	3156
4098.301	3233
4099.869	3206
4101.437	3147
4103.006	3170
4104.572	3188
4106.139	3052
4107.704	3156
4109.27	3093
4110.837	3205
4112.401	3155
4113.966	3178
4115.53	3132
4117.094	3101
4118.659	3178
4120.223	3156
4121.785	3109
4123.347	3119
4124.909	3150
4126.471	3064
4128.034	3057
4129.595	3091
4131.155	3075
4132.716	3086
4134.275	3040
4135.836	3039
4137.395	3021
4138.955	3007
4140.513	3039
4142.071	3071
4143.628	3057
4145.188	3113
4146.745	3079
4148.302	3062
4149.858	3084
4151.414	3109
4152.971	3152
4154.526	3023
4156.081	3020
4157.635	3049
4159.189	2994
4160.745	3015
4162.298	2999
4163.852	2974
4165.405	3021
4166.957	3029
4168.51	3061
4170.063	3065
4171.614	2927
4173.166	2974
4174.717	2975
4176.267	3018
4177.817	2979
4179.368	2952
4180.917	3011
4182.466	2945
4184.016	2928
4185.564	2993
4187.112	2984
4188.66	2961
4190.207	3005
4191.754	2927
4193.301	2929
4194.848	2923
4196.394	2904
4197.94	2956
4199.484	2915
4201.03	2870
4202.575	2953
4204.12	2968
4205.663	2914
4207.207	2879
4208.75	2952
4210.292	2892
4211.836	2927
4213.378	2938
4214.92	2959
4216.46	2902
4218.002	2882
4219.544	2935
4221.083	2904
4222.625	2839
4224.164	2847
4225.703	2851
4227.244	2813
4228.782	2835
4230.32	2922
4231.857	2894
4233.395	2866
4234.933	2865
4236.471	2915
4238.007	2798
4239.542	2893
4241.078	2873
4242.614	2909
4244.15	2891
4245.685	2886
4247.219	2909
4248.753	2895
4250.287	2850
4251.82	2857
4253.354	2793
4254.887	2874
4256.419	2842
4257.951	2804
4259.483	2796
4261.016	2876
4262.547	2881
4264.078	2860
4265.608	2776
4267.137	2845
4268.668	2832
4270.197	2786
4271.727	2812
4273.254	2881
4274.783	2769
4276.311	2777
4277.84	2731
4279.366	2827
4280.894	2765
4282.42	2801
4283.946	2801
4285.473	2752
4286.998	2799
4288.523	2805
4290.047	2784
4291.572	2759
4293.096	2748
4294.622	2836
4296.144	2769
4297.668	2708
4299.19	2755
4300.713	2809
4302.236	2777
4303.758	2703
4305.279	2787
4306.799	2699
4308.321	2753
4309.842	2775
4311.361	2670
4312.882	2748
4314.401	2729
