400.0961	4631
402.6185	4524
405.1424	4671
407.6635	4652
410.1838	4616
412.7035	4640
415.2225	4670
417.7388	4644
420.2585	4766
422.7754	4860
425.2917	4802
427.8072	4819
430.3221	5024
432.8363	5060
435.3498	4946
437.8626	4921
440.3727	5010
442.8841	4906
445.3969	4991
447.907	4950
450.4142	4976
452.9229	4979
455.4289	4942
457.9362	4936
460.4449	4884
462.9488	4926
465.454	4891
467.9566	4875
470.4604	4948
472.9637	4891
475.4662	4954
477.966	4977
480.4671	4973
482.9656	4934
485.4633	5008
487.9645	4942
490.4608	5039
492.9566	4912
495.4536	5008
497.948	5011
500.4437	5013
502.9387	5085
505.431	5017
507.9226	5022
510.4136	5099
512.9079	4932
515.3975	5179
517.8864	5034
520.3746	5046
522.8622	5073
525.3491	5086
527.8394	5066
530.3249	5061
532.8098	5132
535.2939	5171
537.7774	5108
540.2623	5199
542.7444	5127
545.2259	5194
547.7067	5183
550.1868	5153
552.6683	5044
555.147	5190
557.6231	5256
560.1005	5159
562.5773	5230
565.0534	5223
567.5308	5241
570.0056	5333
572.4776	5327
574.951	5303
577.4237	5247
579.8978	5450
582.3671	5420
584.8378	5370
587.3079	5247
589.7773	5362
592.244	5427
594.714	5383
597.1793	5424
599.6461	5367
602.1121	5312
604.5754	5433
607.0421	5343
609.5042	5258
611.9675	5314
614.4282	5363
616.8902	5464
619.3515	5356
621.8122	5284
624.2702	5312
626.7296	5342
629.1863	5294
631.6423	5206
634.1017	5252
636.5563	5240
639.0104	5261
641.4658	5205
643.9185	5340
646.3725	5367
648.8239	5362
651.2766	5393
653.7266	5340
656.176	5374
658.6247	5375
661.0748	5402
663.5242	5411
665.9709	5432
668.417	5456
670.8624	5393
673.3092	5409
675.7533	5540
678.1968	5474
680.6395	5496
683.0817	5499
685.5251	5493
687.9659	5479
690.4061	5456
692.8456	5480
695.2844	5479
697.7226	5503
700.1621	5562
702.599	5504
705.0332	5552
707.4688	5549
709.9036	5576
712.3399	5495
714.7735	5580
717.2044	5602
719.6367	5712
722.0683	5596
724.4993	5660
726.9296	5739
729.3593	5648
731.7883	5631
734.2147	5733
736.6423	5547
739.0714	5637
741.4958	5779
743.9216	5745
746.3447	5775
748.7691	5894
751.1929	5804
753.616	5966
756.0366	5863
758.4584	5939
760.8776	5770
763.2982	5830
765.718	5838
768.1373	6026
770.5539	6018
772.9698	5920
775.3871	5973
777.8038	5890
780.2178	5915
782.6332	5840
785.0459	5882
787.458	5833
789.8714	5846
792.2842	5884
794.6943	5983
797.1038	5905
799.5127	5934
801.9209	5862
804.3324	5892
806.7393	5902
809.1456	5902
811.5513	5882
813.9562	5981
816.3625	5942
818.7663	6013
821.1693	6059
823.5718	6059
825.9735	5991
828.3746	5987
830.7771	5997
833.177	5945
835.5762	6110
837.9747	5931
840.3727	6010
842.772	6032
845.1666	5990
847.5626	5957
849.958	6092
852.3527	6150
854.7488	6095
857.1403	6122
859.5331	6217
861.9253	6193
864.3168	6027
866.7057	6190
869.098	6118
871.4876	6075
873.8746	6101
876.263	6059
878.6487	6259
881.0378	6016
883.4243	6137
885.8081	6109
888.1933	6149
890.5759	6082
892.9598	6189
895.343	6085
897.7256	6125
900.1057	6026
902.4871	6169
904.8659	6170
907.246	6093
909.6254	6195
912.0023	6120
914.3786	6333
916.7562	6203
919.1331	6364
921.5074	6378
923.8831	6496
926.2562	6474
928.6287	6289
931.0005	6411
933.3757	6535
935.7462	6444
938.1162	6592
940.4855	6696
942.8542	6644
945.2242	6703
947.5916	6861
949.9584	7032
952.3266	7268
954.6921	7560
957.0571	7759
959.4233	8071
961.787	8379
964.15	8104
966.5125	8092
968.8742	7703
971.2354	7345
973.5959	7015
975.9559	6861
978.3151	6538
980.6738	6591
983.0338	6426
985.3912	6528
987.7461	6413
990.1022	6273
992.4578	6335
994.8127	6357
997.1689	6330
999.5207	6297
1001.874	6552
1004.226	6405
1006.576	6324
1008.929	6314
1011.28	6371
1013.628	6276
1015.977	6397
1018.324	6375
1020.674	6439
1023.019	6432
1025.366	6469
1027.713	6558
1030.056	6534
1032.399	6555
1034.746	6473
1037.087	6442
1039.431	6453
1041.771	6540
1044.113	6495
1046.454	6562
1048.793	6545
1051.133	6576
1053.471	6466
1055.807	6606
1058.146	6645
1060.483	6478
1062.818	6524
1065.153	6635
1067.489	6692
1069.822	6594
1072.156	6662
1074.488	6633
1076.82	6758
1079.15	6707
1081.48	6686
1083.814	6583
1086.143	6613
1088.471	6484
1090.799	6572
1093.126	6505
1095.452	6619
1097.78	6483
1100.105	6475
1102.43	6556
1104.754	6567
1107.077	6467
1109.4	6663
1111.722	6580
1114.044	6512
1116.365	6547
1118.685	6503
1121.005	6496
1123.324	6591
1125.643	6467
1127.961	6643
1130.278	6544
1132.595	6491
1134.911	6557
1137.226	6590
1139.541	6519
1141.854	6580
1144.167	6482
1146.482	6526
1148.793	6478
1151.105	6559
1153.414	6447
1155.725	6482
1158.033	6404
1160.344	6545
1162.651	6718
1164.959	6505
1167.265	6545
1169.572	6504
1171.878	6589
1174.184	6610
1176.488	6481
1178.79	6527
1181.094	6612
1183.396	6479
1185.699	6559
1188.001	6569
1190.301	6583
1192.6	6516
1194.9	6633
1197.2	6499
1199.497	6627
1201.794	6562
1204.09	6529
1206.387	6671
1208.684	6615
1210.978	6567
1213.272	6655
1215.565	6584
1217.858	6493
1220.15	6568
1222.443	6589
1224.734	6691
1227.024	6592
1229.313	6643
1231.602	6701
1233.892	6760
1236.18	6637
1238.467	6786
1240.754	6743
1243.04	6894
1245.325	6854
1247.612	6845
1249.896	6825
1252.178	6849
1254.461	6781
1256.743	6845
1259.027	6845
1261.308	6929
1263.587	6765
1265.867	6842
1268.146	6850
1270.425	6816
1272.703	6888
1274.981	6792
1277.256	6859
1279.532	6811
1281.808	6754
1284.083	6793
1286.358	6805
1288.63	6798
1290.904	6810
1293.175	6759
1295.449	6680
1297.719	6767
1299.99	6771
1302.259	6601
1304.529	6716
1306.798	6755
1309.065	6771
1311.333	6653
1313.599	6589
1315.866	6792
1318.131	6671
1320.396	6630
1322.66	6731
1324.925	6714
1327.187	6783
1329.448	6811
1331.711	6764
1333.974	6844
1336.234	6798
1338.493	6731
1340.752	6819
1343.01	6820
1345.269	6878
1347.526	6720
1349.784	6718
1352.04	6645
1354.295	6802
1356.552	6784
1358.806	6716
1361.059	6760
1363.312	6753
1365.564	6743
1367.818	6777
1370.069	6729
1372.318	6810
1374.568	6664
1376.817	6822
1379.066	6837
1381.316	6804
1383.564	6816
1385.809	6893
1388.056	6815
1390.301	6929
1392.549	7082
1394.793	6986
1397.036	6921
1399.279	6896
1401.522	6972
1403.763	6839
1406.007	6933
1408.248	6868
1410.487	6978
1412.727	6981
1414.965	6941
1417.205	6910
1419.442	6981
1421.68	7007
1423.915	7082
1426.152	6979
1428.388	6948
1430.623	6870
1432.857	6982
1435.091	6921
1437.323	7134
1439.556	7020
1441.789	7181
1444.019	7005
1446.25	7107
1448.48	7064
1450.708	7065
1452.938	7108
1455.167	7078
1457.394	7149
1459.62	7100
1461.846	7114
1464.073	7163
1466.299	7152
1468.523	6948
1470.746	7096
1472.969	6887
1475.191	6961
1477.415	6939
1479.636	6840
1481.858	6842
1484.078	6907
1486.298	6761
1488.518	6851
1490.736	6860
1492.954	6734
1495.169	6746
1497.386	6834
1499.602	6847
1501.819	6704
1504.034	6800
1506.248	6786
1508.462	6808
1510.675	6835
1512.888	6627
1515.1	6707
1517.311	6750
1519.522	6790
1521.732	6790
1523.942	6766
1526.151	6701
1528.36	6821
1530.566	6722
1532.773	6814
1534.98	6800
1537.187	6663
1539.392	6757
1541.596	6759
1543.801	6698
1546.005	6796
1548.208	6740
1550.411	6816
1552.612	6851
1554.814	6854
1557.013	6824
1559.212	6793
1561.414	6792
1563.612	6806
1565.811	6808
1568.007	6889
1570.203	7001
1572.403	6873
1574.598	6812
1576.792	6922
1578.988	6974
1581.181	6981
1583.376	6862
1585.568	6940
1587.761	6886
1589.952	6958
1592.143	7038
1594.333	6926
1596.524	6900
1598.715	6963
1600.903	6927
1603.091	6970
1605.278	6895
1607.466	7000
1609.652	6924
1611.838	6978
1614.023	7054
1616.207	6928
1618.391	6978
1620.576	6958
1622.759	7042
1624.941	7076
1627.123	7017
1629.304	7111
1631.484	7032
1633.664	7002
1635.844	7054
1638.022	7054
1640.201	7086
1642.38	7112
1644.556	7061
1646.732	7158
1648.908	6939
1651.084	7089
1653.257	7140
1655.433	7147
1657.607	7097
1659.779	7278
1661.951	7180
1664.122	7215
1666.295	7092
1668.467	7170
1670.635	7100
1672.805	7182
1674.973	7197
1677.142	7155
1679.31	7206
1681.478	7095
1683.644	7186
1685.81	7084
1687.975	7080
1690.142	7121
1692.305	7105
1694.468	7112
1696.632	7026
1698.794	7067
1700.957	7057
1703.119	6979
1705.279	7028
1707.439	7122
1709.598	7054
1711.758	6887
1713.917	6839
1716.075	6965
1718.231	6895
1720.388	6863
1722.543	6937
1724.702	6966
1726.856	7012
1729.01	6923
1731.164	6885
1733.317	7009
1735.471	6913
1737.623	6919
1739.774	6982
1741.925	6940
1744.075	6986
1746.225	6908
1748.376	6956
1750.524	6954
1752.672	7013
1754.82	6923
1756.965	6928
1759.113	7010
1761.259	6879
1763.405	7063
1765.549	6959
1767.694	6986
1769.836	6965
1771.981	7014
1774.123	6923
1776.264	7063
1778.405	7032
1780.546	7045
1782.687	6961
1784.827	7116
1786.966	6986
1789.103	7046
1791.242	6952
1793.381	7044
1795.517	7072
1797.653	6979
1799.788	7004
1801.923	7069
1804.057	7022
1806.193	7059
1808.326	7126
1810.457	6974
1812.59	6949
1814.721	7096
1816.855	7035
1818.984	6944
1821.113	7090
1823.244	6993
1825.372	7058
1827.499	7002
1829.63	7128
1831.756	7199
1833.882	6814
1836.007	7017
1838.132	6995
1840.26	6992
1842.384	7007
1844.507	6920
1846.63	7030
1848.752	6957
1850.875	7053
1852.996	6990
1855.118	6991
1857.238	6908
1859.358	7003
1861.477	6935
1863.597	6893
1865.715	6936
1867.832	6967
1869.948	6915
1872.064	7039
1874.181	6942
1876.297	6965
1878.411	6924
1880.526	7080
1882.639	6831
1884.752	6941
1886.865	6845
1888.977	6898
1891.089	6954
1893.2	7034
1895.308	6890
1897.42	6940
1899.53	6897
1901.639	6951
1903.745	7033
1905.853	7082
1907.962	7063
1910.067	7070
1912.174	7030
1914.278	7133
1916.383	7080
1918.486	7064
1920.592	7043
1922.694	7053
1924.797	6949
1926.898	6956
1929	6963
1931.102	7044
1933.203	7083
1935.301	7055
1937.401	7045
1939.499	7014
1941.598	7186
1943.697	7035
1945.793	7062
1947.888	7095
1949.985	7027
1952.08	7073
1954.176	7081
1956.269	7050
1958.364	7000
1960.457	7059
1962.549	6930
1964.642	7001
1966.733	7027
1968.823	7002
1970.913	7028
1973.005	7042
1975.093	7044
1977.184	7058
1979.271	6940
1981.359	6974
1983.446	7014
1985.532	6965
1987.619	7076
1989.705	7093
1991.789	7022
1993.874	7040
1995.956	7064
1998.041	7089
2000.123	6943
2002.206	6908
2004.287	7010
2006.368	6881
2008.449	6958
2010.529	6903
2012.609	7001
2014.688	6986
2016.766	6909
2018.843	6972
2020.922	6893
2022.999	6860
2025.074	6878
2027.15	6902
2029.225	7048
2031.299	6876
2033.375	6948
2035.447	6934
2037.52	6982
2039.592	6981
2041.664	6903
2043.736	6857
2045.807	7004
2047.876	7032
2049.947	6877
2052.015	6952
2054.086	6874
2056.153	6960
2058.221	7031
2060.288	6975
2062.353	6977
2064.42	7063
2066.486	7116
2068.55	6939
2070.614	6972
2072.678	6951
2074.741	6901
2076.805	7030
2078.866	6945
2080.929	6858
2082.99	6960
2085.049	6938
2087.109	6909
2089.17	6971
2091.228	6933
2093.286	6921
2095.344	7044
2097.4	6894
2099.46	6878
2101.516	6947
2103.572	7081
2105.626	7044
2107.679	7009
2109.735	7044
2111.788	6948
2113.841	6966
2115.894	6931
2117.945	6922
2119.997	6965
2122.049	6894
2124.1	6994
2126.148	6955
2128.197	6948
2130.246	6942
2132.296	6944
2134.342	6970
2136.39	6866
2138.437	6896
2140.483	7016
2142.527	6899
2144.574	6877
2146.619	6968
2148.661	6971
2150.705	6839
2152.747	6967
2154.792	6957
2156.832	6966
2158.874	6944
2160.915	6964
2162.954	6834
2164.995	6879
2167.034	6835
2169.072	6888
2171.111	6879
2173.148	6760
2175.186	6796
2177.223	6859
2179.258	6861
2181.294	6928
2183.328	6789
2185.362	6882
2187.398	6797
2189.431	6902
2191.463	6821
2193.495	6751
2195.528	6857
2197.56	6757
2199.59	6828
2201.62	6807
2203.649	6636
2205.678	6799
2207.708	6732
2209.737	6745
2211.764	6823
2213.791	6744
2215.817	6691
2217.843	6715
2219.87	6797
2221.895	6739
2223.919	6684
2225.942	6743
2227.966	6751
2229.988	6781
2232.012	6729
2234.032	6711
2236.054	6686
2238.074	6758
2240.095	6710
2242.116	6775
2244.135	6852
2246.153	6755
2248.171	6675
2250.188	6753
2252.208	6797
2254.223	6784
2256.239	6662
2258.255	6748
2260.269	6641
2262.283	6829
2264.3	6721
2266.312	6828
2268.325	6725
2270.336	6732
2272.349	6799
2274.362	6684
2276.372	6714
2278.383	6664
2280.392	6692
2282.402	6752
2284.409	6712
2286.418	6689
2288.427	6755
2290.433	6687
2292.441	6621
2294.446	6649
2296.453	6670
2298.459	6740
2300.463	6711
2302.466	6754
2304.471	6697
2306.475	6737
2308.477	6673
2310.478	6801
2312.481	6689
2314.481	6659
2316.481	6724
2318.482	6587
2320.482	6707
2322.48	6553
2324.48	6592
2326.478	6654
2328.476	6575
2330.473	6667
2332.469	6512
2334.465	6714
2336.46	6740
2338.454	6678
2340.45	6681
2342.444	6593
2344.437	6647
2346.43	6618
2348.421	6550
2350.414	6515
2352.405	6536
2354.396	6592
2356.386	6597
2358.376	6546
2360.366	6575
2362.355	6614
2364.343	6583
2366.331	6498
2368.317	6590
2370.304	6469
2372.292	6574
2374.278	6437
2376.262	6525
2378.247	6407
2380.23	6468
2382.216	6537
2384.199	6519
2386.181	6532
2388.163	6554
2390.144	6494
2392.127	6579
2394.107	6445
2396.087	6436
2398.066	6426
2400.046	6454
2402.023	6393
2404.004	6436
2405.981	6425
2407.957	6480
2409.934	6417
2411.91	6496
2413.886	6402
2415.862	6421
2417.836	6434
2419.809	6595
2421.784	6486
2423.756	6485
2425.73	6375
2427.701	6512
2429.672	6427
2431.644	6540
2433.615	6459
2435.586	6370
2437.555	6432
2439.523	6486
2441.491	6443
2443.459	6626
2445.428	6496
2447.395	6485
2449.361	6453
2451.327	6518
2453.292	6417
2455.257	6342
2457.223	6492
2459.187	6429
2461.15	6454
2463.113	6385
2465.076	6419
2467.039	6497
2468.999	6450
2470.96	6288
2472.921	6404
2474.881	6478
2476.841	6425
2478.8	6291
2480.759	6387
2482.717	6386
2484.675	6364
2486.63	6294
2488.589	6383
2490.545	6288
2492.5	6353
2494.455	6354
2496.408	6356
2498.364	6357
2500.318	6294
2502.27	6415
2504.223	6295
2506.174	6297
2508.126	6317
2510.078	6202
2512.03	6355
2513.979	6272
2515.927	6266
2517.877	6370
2519.826	6194
2521.775	6242
2523.722	6276
2525.668	6369
2527.616	6292
2529.561	6284
2531.508	6293
2533.452	6292
2535.398	6266
2537.342	6181
2539.284	6253
2541.229	6226
2543.173	6293
2545.114	6267
2547.055	6323
2548.996	6386
2550.938	6168
2552.878	6237
2554.817	6353
2556.756	6349
2558.695	6231
2560.633	6317
2562.572	6285
2564.509	6241
2566.445	6227
2568.382	6246
2570.317	6350
2572.254	6219
2574.189	6309
2576.123	6178
2578.057	6202
2579.99	6185
2581.923	6257
2583.855	6336
2585.788	6268
2587.719	6161
2589.65	6337
2591.579	6281
2593.511	6249
2595.44	6362
2597.37	6330
2599.297	6310
2601.225	6222
2603.153	6226
2605.08	6154
2607.007	6313
2608.932	6193
2610.858	6275
2612.782	6245
2614.709	6366
2616.632	6391
2618.556	6305
2620.478	6335
2622.401	6332
2624.324	6330
2626.247	6230
2628.167	6321
2630.088	6364
2632.008	6226
2633.928	6328
2635.848	6214
2637.766	6333
2639.684	6255
2641.603	6219
2643.519	6300
2645.437	6232
2647.353	6211
2649.27	6209
2651.184	6351
2653.099	6273
2655.014	6186
2656.928	6217
2658.842	6302
2660.755	6187
2662.667	6204
2664.579	6189
2666.491	6282
2668.402	6207
2670.312	6211
2672.222	6249
2674.132	6264
2676.042	6191
2677.951	6346
2679.859	6175
2681.766	6210
2683.674	6148
2685.582	6285
2687.488	6219
2689.392	6115
2691.298	6254
2693.202	6136
2695.107	6177
2697.012	6176
2698.914	6300
2700.817	6171
2702.72	6155
2704.622	6069
2706.524	6210
2708.425	6021
2710.326	6099
2712.225	6090
2714.125	6144
2716.024	6126
2717.923	6157
2719.822	6137
2721.719	6073
2723.616	6096
2725.512	6128
2727.41	6101
2729.305	6062
2731.201	6092
2733.095	6193
2734.99	6182
2736.884	6102
2738.778	6150
2740.67	6201
2742.562	6109
2744.455	6068
2746.346	6104
2748.238	5990
2750.129	6114
2752.018	6027
2753.907	6138
2755.797	6172
2757.687	6085
2759.575	6177
2761.462	6133
2763.349	5960
2765.237	6072
2767.124	5958
2769.009	6102
2770.894	6130
2772.779	6191
2774.663	6132
2776.547	6039
2778.431	6108
2780.314	5990
2782.197	5942
2784.078	5980
2785.96	5989
2787.842	6068
2789.723	6096
2791.603	5937
2793.483	6030
2795.362	6024
2797.241	6076
2799.121	5999
2800.997	6075
2802.874	5964
2804.751	5923
2806.628	5986
2808.506	5957
2810.38	5959
2812.255	5962
2814.13	5930
2816.003	5897
2817.878	5867
2819.752	5953
2821.623	5987
2823.496	5921
2825.368	5997
2827.238	5943
2829.111	5947
2830.98	5987
2832.851	5920
2834.719	5893
2836.589	5982
2838.458	5941
2840.327	6014
2842.193	5992
2844.061	6037
2845.927	6020
2847.794	5908
2849.66	5963
2851.525	6039
2853.39	5982
2855.254	6052
2857.117	5997
2858.983	6033
2860.845	6077
2862.707	6148
2864.569	6216
2866.431	6088
2868.293	6104
2870.154	6252
2872.013	6262
2873.873	6352
2875.733	6337
2877.592	6206
2879.451	6396
2881.309	6479
2883.166	6553
2885.022	6562
2886.879	6570
2888.736	6509
2890.591	6441
2892.446	6545
2894.301	6556
2896.155	6578
2898.009	6568
2899.863	6527
2901.716	6516
2903.568	6486
2905.419	6499
2907.27	6493
2909.123	6466
2910.973	6562
2912.824	6548
2914.673	6542
2916.521	6712
2918.372	6606
2920.22	6662
2922.067	6733
2923.914	6867
2925.761	6800
2927.607	6882
2929.455	6964
2931.301	7108
2933.144	7035
2934.99	7161
2936.833	7020
2938.678	7135
2940.522	7232
2942.364	7393
2944.207	7281
2946.048	7448
2947.891	7379
2949.731	7417
2951.571	7328
2953.412	7442
2955.25	7291
2957.09	7178
2958.93	7113
2960.767	7133
2962.606	7094
2964.443	7018
2966.279	7089
2968.116	6883
2969.953	6761
2971.788	6772
2973.623	6716
2975.457	6752
2977.292	6703
2979.127	6708
2980.959	6761
2982.792	6539
2984.624	6587
2986.455	6593
2988.288	6527
2990.119	6611
2991.949	6422
2993.779	6406
2995.608	6347
2997.439	6386
2999.268	6343
3001.096	6293
3002.923	6165
3004.751	6156
3006.578	6110
3008.406	6061
3010.232	6001
3012.057	5962
3013.883	5913
3015.706	5872
3017.532	5979
3019.356	5850
3021.179	5805
3023.002	5798
3024.823	5707
3026.646	5747
3028.469	5617
3030.289	5762
3032.11	5508
3033.93	5726
3035.749	5769
3037.57	5639
3039.39	5610
3041.207	5749
3043.026	5616
3044.842	5624
3046.661	5663
3048.477	5637
3050.294	5611
3052.109	5685
3053.925	5572
3055.739	5679
3057.555	5591
3059.368	5610
3061.181	5624
3062.995	5596
3064.807	5623
3066.62	5620
3068.433	5567
3070.243	5623
3072.054	5519
3073.865	5513
3075.675	5590
3077.485	5486
3079.293	5520
3081.102	5560
3082.911	5512
3084.719	5465
3086.527	5540
3088.333	5508
3090.139	5469
3091.945	5388
3093.75	5437
3095.557	5464
3097.361	5531
3099.165	5404
3100.969	5473
3102.772	5513
3104.575	5382
3106.379	5337
3108.181	5522
3109.982	5474
3111.783	5317
3113.584	5452
3115.386	5479
3117.186	5348
3118.985	5440
3120.783	5298
3122.582	5308
3124.381	5432
3126.179	5416
3127.975	5353
3129.772	5287
3131.569	5436
3133.365	5338
3135.161	5316
3136.956	5286
3138.751	5293
3140.544	5395
3142.338	5280
3144.132	5319
3145.925	5335
3147.717	5334
3149.509	5267
3151.301	5331
3153.091	5258
3154.884	5297
3156.673	5243
3158.462	5275
3160.252	5267
3162.041	5383
3163.831	5251
3165.618	5306
3167.405	5266
3169.193	5244
3170.979	5417
3172.767	5244
3174.553	5294
3176.338	5234
3178.123	5279
3179.907	5278
3181.692	5174
3183.477	5254
3185.259	5140
3187.042	5209
3188.824	5254
3190.607	5209
3192.389	5263
3194.17	5220
3195.951	5149
3197.73	5234
3199.51	5190
3201.289	5281
3203.07	5190
3204.848	5257
3206.626	5331
3208.403	5289
3210.18	5197
3211.959	5173
3213.735	5221
3215.511	5156
3217.285	5157
3219.06	5236
3220.836	5283
3222.611	5226
3224.384	5129
3226.158	5166
3227.929	5158
3229.702	5185
3231.476	5133
3233.248	5215
3235.018	5281
3236.789	5220
3238.56	5237
3240.33	5169
3242.1	5238
3243.869	5196
3245.637	5141
3247.405	5224
3249.172	5165
3250.941	5146
3252.707	5190
3254.474	5198
3256.24	5135
3258.006	5160
3259.772	5218
3261.537	5262
3263.301	5153
3265.065	5202
3266.828	5143
3268.592	5116
3270.355	5266
3272.117	5106
3273.878	5108
3275.64	5141
3277.401	5103
3279.162	5140
3280.922	5114
3282.682	5149
3284.441	5107
3286.199	5065
3287.959	5119
3289.716	5155
3291.475	5173
3293.232	5166
3294.988	5160
3296.744	5223
3298.501	5240
3300.256	5201
3302.011	5143
3303.766	5179
3305.52	5205
3307.275	5152
3309.028	5110
3310.781	5139
3312.533	5176
3314.285	5161
3316.038	5179
3317.789	5121
3319.54	5202
3321.289	5195
3323.039	5152
3324.789	5225
3326.539	5135
3328.288	5159
3330.035	5236
3331.783	5175
3333.531	5210
3335.28	5183
3337.025	5188
3338.771	5103
3340.518	5101
3342.262	5030
3344.009	5058
3345.753	5076
3347.497	4982
3349.24	5086
3350.983	5149
3352.726	5108
3354.469	5027
3356.212	4960
3357.952	5032
3359.694	5003
3361.434	5036
3363.176	5005
3364.916	5019
3366.654	4932
3368.394	5051
3370.132	5113
3371.871	5070
3373.61	5059
3375.346	4987
3377.083	5006
3378.82	4946
3380.556	5003
3382.292	4929
3384.027	4947
3385.763	4944
3387.497	4895
3389.231	4946
3390.965	4938
3392.698	4862
3394.431	4938
3396.164	4870
3397.896	4981
3399.627	4976
3401.36	4935
3403.09	4857
3404.82	4772
3406.55	4939
3408.279	4911
3410.01	4975
3411.738	4961
3413.467	4971
3415.194	4852
3416.92	4901
3418.647	4903
3420.375	4807
3422.102	4811
3423.827	4950
3425.553	4755
3427.277	4914
3429.003	4899
3430.727	4806
3432.451	4848
3434.173	4832
3435.896	4815
3437.62	4754
3439.343	4827
3441.063	4859
3442.785	4808
3444.505	4719
3446.226	4823
3447.948	4812
3449.666	4798
3451.386	4787
3453.104	4768
3454.823	4716
3456.541	4807
3458.259	4762
3459.976	4726
3461.693	4729
3463.408	4792
3465.125	4809
3466.841	4667
3468.556	4628
3470.271	4643
3471.985	4734
3473.698	4663
3475.414	4693
3477.126	4609
3478.838	4674
3480.55	4623
3482.263	4616
3483.975	4636
3485.686	4602
3487.396	4614
3489.106	4659
3490.817	4523
3492.526	4685
3494.236	4587
3495.944	4600
3497.652	4611
3499.359	4702
3501.066	4629
3502.775	4628
3504.481	4539
3506.187	4608
3507.893	4540
3509.598	4479
3511.304	4509
3513.009	4424
3514.713	4542
3516.417	4438
3518.12	4517
3519.821	4580
3521.525	4480
3523.228	4570
3524.929	4444
3526.631	4465
3528.33	4482
3530.032	4427
3531.733	4559
3533.433	4552
3535.131	4466
3536.83	4410
3538.529	4444
3540.227	4456
3541.925	4415
3543.623	4444
3545.319	4470
3547.016	4426
3548.712	4430
3550.408	4471
3552.103	4394
3553.798	4479
3555.491	4359
3557.188	4371
3558.88	4455
3560.574	4383
3562.266	4436
3563.959	4378
3565.651	4413
3567.343	4339
3569.035	4430
3570.725	4388
3572.415	4354
3574.106	4412
3575.797	4304
3577.485	4406
3579.174	4356
3580.863	4332
3582.551	4368
3584.238	4257
3585.926	4289
3587.613	4269
3589.3	4258
3590.986	4281
3592.671	4215
3594.357	4205
3596.042	4238
3597.726	4251
3599.41	4284
3601.094	4200
3602.778	4224
3604.461	4206
3606.143	4250
3607.825	4202
3609.507	4145
3611.188	4145
3612.87	4135
3614.551	4148
3616.229	4207
3617.909	4153
3619.589	4149
3621.269	4202
3622.948	4110
3624.625	4054
3626.302	4112
3627.98	4119
3629.657	4169
3631.334	4095
3633.01	4109
3634.686	4143
3636.361	4084
3638.036	4137
3639.712	4025
3641.385	4080
3643.06	4098
3644.732	4022
3646.405	4144
3648.08	4012
3649.751	4081
3651.424	4014
3653.094	4071
3654.766	4071
3656.436	3997
3658.106	4016
3659.777	3999
3661.446	3915
3663.115	3971
3664.783	3967
3666.452	4062
3668.121	4015
3669.788	3962
3671.454	4050
3673.121	4012
3674.789	4001
3676.455	3965
3678.12	3922
3679.784	3947
3681.45	3948
3683.114	3895
3684.779	3949
3686.442	3948
3688.105	3900
3689.768	3898
3691.43	4014
3693.093	4043
3694.754	4020
3696.415	3854
3698.076	3832
3699.736	3981
3701.396	3923
3703.057	3868
3704.716	3927
3706.375	3854
3708.034	3873
3709.692	3814
3711.351	3908
3713.008	3827
3714.665	3899
3716.321	3885
3717.977	3869
3719.634	3804
3721.29	3869
3722.945	3804
3724.598	3818
3726.253	3903
3727.907	3846
3729.561	3840
3731.214	3823
3732.867	3775
3734.518	3809
3736.171	3815
3737.824	3840
3739.474	3769
3741.125	3861
3742.775	3846
3744.425	3838
3746.074	3901
3747.725	3833
3749.373	3832
3751.022	3833
3752.669	3855
3754.318	3764
3755.966	3879
3757.612	3779
3759.259	3873
3760.905	3746
3762.55	3762
3764.197	3728
3765.842	3776
3767.486	3759
3769.131	3746
3770.774	3728
3772.417	3780
3774.061	3762
3775.705	3687
3777.347	3731
3778.988	3724
3780.629	3711
3782.271	3734
3783.912	3690
3785.552	3753
3787.192	3757
3788.831	3754
3790.472	3686
3792.112	3738
3793.75	3737
3795.388	3692
3797.024	3731
3798.661	3716
3800.3	3614
3801.936	3677
3803.572	3666
3805.208	3733
3806.844	3666
3808.48	3620
3810.115	3689
3811.748	3722
3813.382	3688
3815.016	3602
3816.649	3723
3818.283	3666
3819.914	3682
3821.547	3637
3823.178	3653
3824.809	3607
3826.441	3573
3828.072	3608
3829.701	3621
3831.331	3675
3832.96	3620
3834.591	3585
3836.219	3607
3837.847	3580
3839.475	3618
3841.102	3656
3842.729	3623
3844.357	3556
3845.984	3612
3847.609	3569
3849.234	3543
3850.86	3558
3852.485	3620
3854.11	3621
3855.734	3470
3857.357	3535
3858.981	3544
3860.603	3572
3862.227	3568
3863.848	3500
3865.471	3569
3867.092	3571
3868.713	3548
3870.334	3570
3871.954	3556
3873.575	3462
3875.194	3552
3876.813	3533
3878.433	3532
3880.051	3513
3881.669	3528
3883.286	3552
3884.904	3515
3886.52	3475
3888.138	3454
3889.754	3533
3891.37	3452
3892.985	3531
3894.6	3498
3896.216	3487
3897.831	3528
3899.444	3426
3901.058	3450
3902.67	3483
3904.283	3410
3905.897	3412
3907.509	3384
3909.121	3464
3910.731	3513
3912.342	3406
3913.954	3464
3915.563	3462
3917.174	3417
3918.783	3436
3920.391	3484
3922.002	3478
3923.611	3503
3925.218	3408
3926.826	3449
3928.432	3317
3930.039	3409
3931.647	3498
3933.253	3370
3934.859	3381
3936.464	3407
3938.068	3328
3939.675	3471
3941.278	3349
3942.883	3384
3944.486	3405
3946.089	3480
3947.692	3368
3949.295	3353
3950.898	3424
3952.499	3423
3954.1	3305
3955.7	3438
3957.303	3379
3958.903	3306
3960.502	3408
3962.101	3323
3963.7	3326
3965.301	3355
3966.899	3367
3968.497	3374
3970.094	3297
3971.691	3336
3973.288	3285
3974.885	3360
3976.481	3296
3978.077	3392
3979.672	3256
3981.267	3262
3982.863	3315
3984.457	3304
3986.051	3243
3987.645	3185
3989.238	3328
3990.831	3257
3992.425	3146
3994.017	3193
3995.607	3241
3997.199	3295
3998.79	3206
4000.382	3334
4001.973	3288
4003.561	3329
4005.151	3222
4006.741	3254
4008.331	3202
4009.918	3240
4011.507	3253
4013.095	3204
4014.681	3181
4016.269	3224
4017.856	3241
4019.443	3194
4021.028	3219
4022.614	3155
4024.199	3178
4025.785	3187
4027.37	3208
4028.953	3148
4030.536	3168
4032.12	3112
4033.704	3144
4035.287	3146
4036.869	3173
4038.45	3157
4040.032	3107
4041.613	3199
4043.195	3178
4044.776	3094
4046.356	3079
4047.935	3126
4049.515	3170
4051.095	3067
4052.674	3170
4054.251	3098
4055.829	3124
4057.406	3100
4058.985	3111
4060.562	3121
4062.139	3111
4063.715	3072
4065.29	3126
4066.865	3078
4068.442	3088
4070.016	3107
4071.59	3073
4073.164	3151
4074.738	3016
4076.312	3079
4077.885	3006
4079.458	3104
4081.03	3076
4082.602	3085
4084.173	3056
4085.745	3114
4087.315	3039
4088.886	3113
4090.456	3009
4092.026	3045
4093.596	3098
4095.165	3076
4096.734	3064
4098.301	2992
4099.869	3027
4101.437	3046
4103.006	3037
4104.572	3093
4106.139	3052
4107.704	2983
4109.27	3071
4110.837	2952
4112.401	2949
4113.966	3036
4115.53	2977
4117.094	3010
4118.659	2983
4120.223	2923
4121.785	2938
4123.347	3030
4124.909	2987
4126.471	2963
4128.034	2970
4129.595	2965
4131.155	2984
4132.716	3030
4134.275	2999
4135.836	2886
4137.395	2962
4138.955	2984
4140.513	2913
4142.071	2920
4143.628	2962
4145.188	2927
4146.745	2943
4148.302	2903
4149.858	2897
4151.414	2931
4152.971	2914
4154.526	2903
4156.081	2868
4157.635	2961
4159.189	2892
4160.745	2940
4162.298	2871
4163.852	2895
4165.405	2830
4166.957	2873
4168.51	2872
4170.063	2862
4171.614	2870
4173.166	2828
4174.717	2820
4176.267	2851
4177.817	2856
4179.368	2875
4180.917	2839
4182.466	2829
4184.016	2887
4185.564	2841
4187.112	2792
4188.66	2813
4190.207	2872
4191.754	2888
4193.301	2801
4194.848	2850
4196.394	2779
4197.94	2830
4199.484	2797
4201.03	2837
4202.575	2756
4204.12	2814
4205.663	2827
4207.207	2811
4208.75	2797
4210.292	2822
4211.836	2758
4213.378	2824
4214.92	2745
4216.46	2879
4218.002	2780
4219.544	2774
4221.083	2733
4222.625	2764
4224.164	2790
4225.703	2704
4227.244	2784
4228.782	2792
4230.32	2795
4231.857	2767
4233.395	2721
4234.933	2754
4236.471	2792
4238.007	2706
4239.542	2751
4241.078	2755
4242.614	2733
4244.15	2763
4245.685	2732
4247.219	2718
4248.753	2733
4250.287	2771
4251.82	2758
4253.354	2726
4254.887	2724
4256.419	2673
4257.951	2689
4259.483	2685
4261.016	2718
4262.547	2665
4264.078	2744
4265.608	2722
4267.137	2798
4268.668	2714
4270.197	2690
4271.727	2708
4273.254	2697
4274.783	2591
4276.311	2622
4277.84	2755
4279.366	2722
4280.894	2606
4282.42	2655
4283.946	2650
4285.473	2700
4286.998	2643
4288.523	2659
4290.047	2663
4291.572	2715
4293.096	2632
4294.622	2643
4296.144	2621
4297.668	2720
4299.19	2613
4300.713	2603
4302.236	2645
4303.758	2626
4305.279	2647
4306.799	2631
4308.321	2565
4309.842	2664
4311.361	2633
4312.882	2590
4314.401	2652
