400.0961	5296
402.6185	5368
405.1424	5262
407.6635	5345
410.1838	5398
412.7035	5376
415.2225	5437
417.7388	5471
420.2585	5420
422.7754	5560
425.2917	5506
427.8072	5470
430.3221	5623
432.8363	5629
435.3498	5615
437.8626	5599
440.3727	5668
442.8841	5653
445.3969	5601
447.907	5534
450.4142	5754
452.9229	5635
455.4289	5727
457.9362	5710
460.4449	5654
462.9488	5657
465.454	5720
467.9566	5659
470.4604	5716
472.9637	5588
475.4662	5756
477.966	5744
480.4671	5782
482.9656	5613
485.4633	5852
487.9645	5877
490.4608	5870
492.9566	5847
495.4536	5903
497.948	5960
500.4437	5942
502.9387	5871
505.431	5963
507.9226	5894
510.4136	5960
512.9079	5945
515.3975	5936
517.8864	5918
520.3746	5836
522.8622	6015
525.3491	6010
527.8394	5860
530.3249	6076
532.8098	6025
535.2939	5988
537.7774	6047
540.2623	6067
542.7444	5992
545.2259	6053
547.7067	6007
550.1868	6036
552.6683	6005
555.147	5974
557.6231	5961
560.1005	6022
562.5773	6149
565.0534	6075
567.5308	6251
570.0056	6124
572.4776	6143
574.951	6215
577.4237	6130
579.8978	6128
582.3671	6282
584.8378	6206
587.3079	6136
589.7773	6076
592.244	6080
594.714	6228
597.1793	6235
599.6461	6307
602.1121	6147
604.5754	6166
607.0421	6073
609.5042	6264
611.9675	6202
614.4282	6193
616.8902	6276
619.3515	6132
621.8122	6199
624.2702	6281
626.7296	6282
629.1863	6167
631.6423	6241
634.1017	6214
636.5563	6247
639.0104	6253
641.4658	6242
643.9185	6174
646.3725	6214
648.8239	6413
651.2766	6372
653.7266	6395
656.176	6470
658.6247	6309
661.0748	6418
663.5242	6422
665.9709	6357
668.417	6286
670.8624	6449
673.3092	6499
675.7533	6469
678.1968	6398
680.6395	6428
683.0817	6595
685.5251	6517
687.9659	6436
690.4061	6539
692.8456	6547
695.2844	6593
697.7226	6470
700.1621	6480
702.599	6526
705.0332	6604
707.4688	6467
709.9036	6528
712.3399	6503
714.7735	6649
717.2044	6637
719.6367	6658
722.0683	6602
724.4993	6669
726.9296	6643
729.3593	6686
731.7883	6652
734.2147	6760
736.6423	6613
739.0714	6793
741.4958	6781
743.9216	6823
746.3447	6740
748.7691	6874
751.1929	6828
753.616	6860
756.0366	6866
758.4584	6933
760.8776	6949
763.2982	6934
765.718	7034
768.1373	6883
770.5539	7029
772.9698	7051
775.3871	6994
777.8038	7063
780.2178	7042
782.6332	6986
785.0459	7025
787.458	7001
789.8714	6890
792.2842	6875
794.6943	6898
797.1038	6925
799.5127	7020
801.9209	6928
804.3324	6898
806.7393	6947
809.1456	6975
811.5513	7083
813.9562	7018
816.3625	7045
818.7663	7121
821.1693	7060
823.5718	7068
825.9735	7081
828.3746	7004
830.7771	7071
833.177	7066
835.5762	7156
837.9747	7098
840.3727	7055
842.772	7062
845.1666	7086
847.5626	7201
849.958	7287
852.3527	7105
854.7488	7204
857.1403	7141
859.5331	7288
861.9253	7090
864.3168	7067
866.7057	7063
869.098	7263
871.4876	7148
873.8746	7309
876.263	7254
878.6487	7186
881.0378	7149
883.4243	7180
885.8081	7120
888.1933	7140
890.5759	7088
892.9598	7143
895.343	6971
897.7256	7283
900.1057	7144
902.4871	7210
904.8659	7207
907.246	7265
909.6254	7177
912.0023	7213
914.3786	7287
916.7562	7384
919.1331	7319
921.5074	7435
923.8831	7489
926.2562	7568
928.6287	7634
931.0005	7512
933.3757	7495
935.7462	7642
938.1162	7442
940.4855	7617
942.8542	7458
945.2242	7576
947.5916	7606
949.9584	7614
952.3266	7753
954.6921	7806
957.0571	7976
959.4233	7918
961.787	8100
964.15	8141
966.5125	8039
968.8742	7858
971.2354	7721
973.5959	7634
975.9559	7522
978.3151	7512
980.6738	7543
983.0338	7581
985.3912	7569
987.7461	7410
990.1022	7429
992.4578	7258
994.8127	7620
997.1689	7386
999.5207	7480
1001.874	7400
1004.226	7447
1006.576	7509
1008.929	7490
1011.28	7431
1013.628	7573
1015.977	7382
1018.324	7506
1020.674	7430
1023.019	7376
1025.366	7408
1027.713	7483
1030.056	7386
1032.399	7511
1034.746	7506
1037.087	7561
1039.431	7515
1041.771	7495
1044.113	7425
1046.454	7531
1048.793	7537
1051.133	7451
1053.471	7504
1055.807	7610
1058.146	7524
1060.483	7624
1062.818	7433
1065.153	7490
1067.489	7524
1069.822	7577
1072.156	7662
1074.488	7526
1076.82	7584
1079.15	7625
1081.48	7593
1083.814	7708
1086.143	7628
1088.471	7565
1090.799	7646
1093.126	7638
1095.452	7695
1097.78	7558
1100.105	7584
1102.43	7588
1104.754	7655
1107.077	7661
1109.4	7775
1111.722	7654
1114.044	7572
1116.365	7758
1118.685	7618
1121.005	7735
1123.324	7689
1125.643	7719
1127.961	7790
1130.278	7777
1132.595	7677
1134.911	7848
1137.226	7668
1139.541	7561
1141.854	7749
1144.167	7714
1146.482	7736
1148.793	7691
1151.105	7792
1153.414	7734
1155.725	7750
1158.033	7736
1160.344	7775
1162.651	7846
1164.959	7656
1167.265	7805
1169.572	7687
1171.878	7847
1174.184	7683
1176.488	7779
1178.79	7716
1181.094	7777
1183.396	7810
1185.699	7740
1188.001	7777
1190.301	7683
1192.6	7731
1194.9	7668
1197.2	7582
1199.497	7748
1201.794	7705
1204.09	7751
1206.387	7693
1208.684	7834
1210.978	7705
1213.272	7730
1215.565	7790
1217.858	7812
1220.15	7690
1222.443	7697
1224.734	7683
1227.024	7814
1229.313	7776
1231.602	7924
1233.892	7953
1236.18	7856
1238.467	7913
1240.754	7896
1243.04	7997
1245.325	7910
1247.612	7960
1249.896	7933
1252.178	7950
1254.461	7973
1256.743	7869
1259.027	7947
1261.308	7950
1263.587	8109
1265.867	8032
1268.146	8043
1270.425	8106
1272.703	7989
1274.981	7992
1277.256	8034
1279.532	7942
1281.808	8018
1284.083	7958
1286.358	7928
1288.63	7892
1290.904	7876
1293.175	7985
1295.449	7834
1297.719	7871
1299.99	7903
1302.259	7944
1304.529	7932
1306.798	7905
1309.065	7916
1311.333	7981
1313.599	7964
1315.866	7894
1318.131	7944
1320.396	7938
1322.66	7916
1324.925	7963
1327.187	7999
1329.448	8010
1331.711	7960
1333.974	7854
1336.234	7864
1338.493	7951
1340.752	7960
1343.01	7896
1345.269	8028
1347.526	7875
1349.784	7970
1352.04	7885
1354.295	7862
1356.552	7960
1358.806	8092
1361.059	7906
1363.312	7935
1365.564	8063
1367.818	7956
1370.069	7960
1372.318	8005
1374.568	8007
1376.817	7909
1379.066	8013
1381.316	7899
1383.564	7855
1385.809	7984
1388.056	8079
1390.301	8023
1392.549	8071
1394.793	8091
1397.036	8234
1399.279	8091
1401.522	8266
1403.763	8272
1406.007	8072
1408.248	8257
1410.487	8158
1412.727	8225
1414.965	8199
1417.205	8316
1419.442	8242
1421.68	8066
1423.915	8287
1426.152	8114
1428.388	8177
1430.623	8176
1432.857	8130
1435.091	8404
1437.323	8290
1439.556	8227
1441.789	8406
1444.019	8197
1446.25	8149
1448.48	8203
1450.708	8145
1452.938	8364
1455.167	8324
1457.394	8316
1459.62	8371
1461.846	8246
1464.073	8244
1466.299	8201
1468.523	8156
1470.746	8161
1472.969	8145
1475.191	8198
1477.415	8122
1479.636	8195
1481.858	8111
1484.078	8088
1486.298	8153
1488.518	8005
1490.736	8041
1492.954	7951
1495.169	7992
1497.386	8122
1499.602	8136
1501.819	8015
1504.034	7881
1506.248	7955
1508.462	7903
1510.675	7975
1512.888	7972
1515.1	7908
1517.311	8104
1519.522	7850
1521.732	7834
1523.942	8022
1526.151	7901
1528.36	7993
1530.566	8003
1532.773	8046
1534.98	8133
1537.187	8014
1539.392	8095
1541.596	8029
1543.801	8021
1546.005	8077
1548.208	8070
1550.411	8104
1552.612	8145
1554.814	8018
1557.013	8065
1559.212	8147
1561.414	8220
1563.612	8105
1565.811	8234
1568.007	8171
1570.203	8179
1572.403	8052
1574.598	8193
1576.792	8169
1578.988	8206
1581.181	8222
1583.376	8210
1585.568	8214
1587.761	8319
1589.952	8188
1592.143	8276
1594.333	8247
1596.524	8266
1598.715	8188
1600.903	8205
1603.091	8359
1605.278	8307
1607.466	8219
1609.652	8047
1611.838	8262
1614.023	8261
1616.207	8188
1618.391	8269
1620.576	8267
1622.759	8417
1624.941	8248
1627.123	8355
1629.304	8327
1631.484	8371
1633.664	8280
1635.844	8243
1638.022	8319
1640.201	8491
1642.38	8168
1644.556	8190
1646.732	8336
1648.908	8141
1651.084	8369
1653.257	8405
1655.433	8248
1657.607	8322
1659.779	8262
1661.951	8337
1664.122	8469
1666.295	8406
1668.467	8328
1670.635	8249
1672.805	8415
1674.973	8349
1677.142	8381
1679.31	8389
1681.478	8155
1683.644	8341
1685.81	8454
1687.975	8226
1690.142	8311
1692.305	8334
1694.468	8246
1696.632	8269
1698.794	8319
1700.957	8188
1703.119	8259
1705.279	8198
1707.439	8304
1709.598	8214
1711.758	8367
1713.917	8198
1716.075	8222
1718.231	8189
1720.388	8351
1722.543	8133
1724.702	8187
1726.856	8306
1729.01	8262
1731.164	8276
1733.317	8231
1735.471	8285
1737.623	8250
1739.774	8221
1741.925	8194
1744.075	8169
1746.225	8214
1748.376	8218
1750.524	8214
1752.672	8424
1754.82	8332
1756.965	8311
1759.113	8329
1761.259	8143
1763.405	8355
1765.549	8264
1767.694	8114
1769.836	8247
1771.981	8305
1774.123	8184
1776.264	8299
1778.405	8265
1780.546	8389
1782.687	8328
1784.827	8269
1786.966	8310
1789.103	8222
1791.242	8390
1793.381	8294
1795.517	8353
1797.653	8375
1799.788	8281
1801.923	8282
1804.057	8268
1806.193	8376
1808.326	8251
1810.457	8401
1812.59	8190
1814.721	8364
1816.855	8210
1818.984	8266
1821.113	8232
1823.244	8173
1825.372	8265
1827.499	8286
1829.63	8316
1831.756	8310
1833.882	8372
1836.007	8310
1838.132	8233
1840.26	8331
1842.384	8211
1844.507	8264
1846.63	8308
1848.752	8201
1850.875	8310
1852.996	8388
1855.118	8192
1857.238	8272
1859.358	8170
1861.477	8224
1863.597	8257
1865.715	8219
1867.832	8239
1869.948	8173
1872.064	8153
1874.181	8251
1876.297	8222
1878.411	8088
1880.526	8237
1882.639	8309
1884.752	8130
1886.865	8114
1888.977	8359
1891.089	8162
1893.2	8352
1895.308	8328
1897.42	8331
1899.53	8375
1901.639	8303
1903.745	8340
1905.853	8315
1907.962	8225
1910.067	8303
1912.174	8362
1914.278	8289
1916.383	8417
1918.486	8426
1920.592	8244
1922.694	8274
1924.797	8327
1926.898	8448
1929	8361
1931.102	8403
1933.203	8430
1935.301	8354
1937.401	8364
1939.499	8476
1941.598	8386
1943.697	8386
1945.793	8390
1947.888	8410
1949.985	8246
1952.08	8388
1954.176	8365
1956.269	8348
1958.364	8336
1960.457	8402
1962.549	8315
1964.642	8369
1966.733	8372
1968.823	8352
1970.913	8345
1973.005	8260
1975.093	8218
1977.184	8389
1979.271	8250
1981.359	8371
1983.446	8236
1985.532	8343
1987.619	8280
1989.705	8223
1991.789	8234
1993.874	8149
1995.956	8276
1998.041	8403
2000.123	8318
2002.206	8193
2004.287	8238
2006.368	8289
2008.449	8188
2010.529	8316
2012.609	8207
2014.688	8191
2016.766	8171
2018.843	8226
2020.922	8112
2022.999	8225
2025.074	8267
2027.15	8193
2029.225	8131
2031.299	8154
2033.375	8323
2035.447	8149
2037.52	8195
2039.592	8259
2041.664	8203
2043.736	8271
2045.807	8360
2047.876	8230
2049.947	8286
2052.015	8181
2054.086	8208
2056.153	8213
2058.221	8279
2060.288	8230
2062.353	8261
2064.42	8143
2066.486	8212
2068.55	8230
2070.614	8208
2072.678	8204
2074.741	8213
2076.805	8141
2078.866	8314
2080.929	8374
2082.99	8310
2085.049	8176
2087.109	8282
2089.17	8254
2091.228	8155
2093.286	8186
2095.344	8237
2097.4	8218
2099.46	8237
2101.516	8250
2103.572	8378
2105.626	8170
2107.679	8234
2109.735	8270
2111.788	8275
2113.841	8270
2115.894	8370
2117.945	8228
2119.997	8221
2122.049	8193
2124.1	8270
2126.148	8015
2128.197	8163
2130.246	8079
2132.296	8008
2134.342	8229
2136.39	8119
2138.437	8235
2140.483	8162
2142.527	8219
2144.574	8009
2146.619	8141
2148.661	8219
2150.705	8126
2152.747	8159
2154.792	8205
2156.832	8127
2158.874	8076
2160.915	7959
2162.954	8212
2164.995	8125
2167.034	8132
2169.072	8122
2171.111	8171
2173.148	8107
2175.186	8052
2177.223	8068
2179.258	8058
2181.294	8008
2183.328	8035
2185.362	7947
2187.398	8107
2189.431	8065
2191.463	8110
2193.495	8014
2195.528	7849
2197.56	7870
2199.59	7985
2201.62	7981
2203.649	8057
2205.678	8014
2207.708	7897
2209.737	8034
2211.764	8105
2213.791	7911
2215.817	8002
2217.843	7970
2219.87	8040
2221.895	8039
2223.919	7986
2225.942	7929
2227.966	8011
2229.988	8059
2232.012	7927
2234.032	7897
2236.054	7959
2238.074	7929
2240.095	7994
2242.116	7903
2244.135	8046
2246.153	7746
2248.171	8019
2250.188	7964
2252.208	7961
2254.223	7999
2256.239	7890
2258.255	7911
2260.269	7983
2262.283	8051
2264.3	7845
2266.312	7942
2268.325	7936
2270.336	7878
2272.349	8004
2274.362	7980
2276.372	7956
2278.383	8010
2280.392	8049
2282.402	8005
2284.409	7987
2286.418	7857
2288.427	7875
2290.433	7824
2292.441	8006
2294.446	7875
2296.453	7943
2298.459	7840
2300.463	7937
2302.466	7935
2304.471	8014
2306.475	7976
2308.477	7882
2310.478	7844
2312.481	8069
2314.481	7888
2316.481	7819
2318.482	7871
2320.482	7782
2322.48	7852
2324.48	7830
2326.478	7805
2328.476	7834
2330.473	7813
2332.469	7799
2334.465	7895
2336.46	7883
2338.454	7892
2340.45	7810
2342.444	7875
2344.437	7759
2346.43	7810
2348.421	7702
2350.414	7703
2352.405	7720
2354.396	7864
2356.386	7691
2358.376	7884
2360.366	7796
2362.355	7829
2364.343	7673
2366.331	7808
2368.317	7683
2370.304	7767
2372.292	7640
2374.278	7732
2376.262	7762
2378.247	7632
2380.23	7671
2382.216	7599
2384.199	7724
2386.181	7637
2388.163	7635
2390.144	7758
2392.127	7721
2394.107	7581
2396.087	7538
2398.066	7640
2400.046	7763
2402.023	7664
2404.004	7591
2405.981	7630
2407.957	7549
2409.934	7691
2411.91	7646
2413.886	7578
2415.862	7635
2417.836	7634
2419.809	7787
2421.784	7685
2423.756	7721
2425.73	7560
2427.701	7586
2429.672	7620
2431.644	7585
2433.615	7583
2435.586	7450
2437.555	7515
2439.523	7605
2441.491	7641
2443.459	7579
2445.428	7648
2447.395	7620
2449.361	7559
2451.327	7652
2453.292	7432
2455.257	7549
2457.223	7558
2459.187	7376
2461.15	7603
2463.113	7459
2465.076	7527
2467.039	7478
2468.999	7574
2470.96	7557
2472.921	7525
2474.881	7529
2476.841	7537
2478.8	7456
2480.759	7532
2482.717	7517
2484.675	7473
2486.63	7576
2488.589	7439
2490.545	7557
2492.5	7453
2494.455	7505
2496.408	7501
2498.364	7432
2500.318	7381
2502.27	7561
2504.223	7442
2506.174	7347
2508.126	7471
2510.078	7461
2512.03	7559
2513.979	7470
2515.927	7304
2517.877	7397
2519.826	7407
2521.775	7446
2523.722	7326
2525.668	7519
2527.616	7385
2529.561	7381
2531.508	7423
2533.452	7361
2535.398	7500
2537.342	7351
2539.284	7329
2541.229	7593
2543.173	7372
2545.114	7351
2547.055	7415
2548.996	7383
2550.938	7425
2552.878	7340
2554.817	7382
2556.756	7466
2558.695	7438
2560.633	7373
2562.572	7398
2564.509	7332
2566.445	7349
2568.382	7234
2570.317	7271
2572.254	7397
2574.189	7490
2576.123	7206
2578.057	7415
2579.99	7421
2581.923	7380
2583.855	7321
2585.788	7445
2587.719	7373
2589.65	7378
2591.579	7300
2593.511	7374
2595.44	7428
2597.37	7253
2599.297	7367
2601.225	7428
2603.153	7296
2605.08	7364
2607.007	7296
2608.932	7272
2610.858	7497
2612.782	7413
2614.709	7272
2616.632	7413
2618.556	7346
2620.478	7273
2622.401	7407
2624.324	7443
2626.247	7372
2628.167	7417
2630.088	7346
2632.008	7424
2633.928	7408
2635.848	7382
2637.766	7427
2639.684	7344
2641.603	7339
2643.519	7377
2645.437	7349
2647.353	7473
2649.27	7330
2651.184	7305
2653.099	7428
2655.014	7359
2656.928	7333
2658.842	7398
2660.755	7374
2662.667	7394
2664.579	7302
2666.491	7299
2668.402	7233
2670.312	7387
2672.222	7367
2674.132	7297
2676.042	7198
2677.951	7286
2679.859	7315
2681.766	7317
2683.674	7206
2685.582	7276
2687.488	7310
2689.392	7271
2691.298	7213
2693.202	7232
2695.107	7269
2697.012	7308
2698.914	7294
2700.817	7094
2702.72	7110
2704.622	7116
2706.524	7141
2708.425	7184
2710.326	7190
2712.225	7202
2714.125	7147
2716.024	7236
2717.923	7103
2719.822	7171
2721.719	7314
2723.616	7258
2725.512	7180
2727.41	7171
2729.305	7189
2731.201	7179
2733.095	7133
2734.99	7134
2736.884	7115
2738.778	7140
2740.67	7172
2742.562	7279
2744.455	7043
2746.346	7159
2748.238	7058
2750.129	7160
2752.018	6998
2753.907	7156
2755.797	7170
2757.687	7078
2759.575	7023
2761.462	7147
2763.349	7146
2765.237	7063
2767.124	6984
2769.009	6998
2770.894	7003
2772.779	7018
2774.663	7122
2776.547	7135
2778.431	7182
2780.314	6959
2782.197	6961
2784.078	7117
2785.96	7062
2787.842	7072
2789.723	7034
2791.603	7061
2793.483	7061
2795.362	6899
2797.241	7046
2799.121	7027
2800.997	7056
2802.874	7051
2804.751	6850
2806.628	6951
2808.506	6944
2810.38	7006
2812.255	7004
2814.13	6926
2816.003	6922
2817.878	6990
2819.752	6928
2821.623	6944
2823.496	7137
2825.368	6987
2827.238	6961
2829.111	6945
2830.98	7048
2832.851	6944
2834.719	6994
2836.589	6889
2838.458	7010
2840.327	6901
2842.193	6887
2844.061	6884
2845.927	6982
2847.794	6987
2849.66	6889
2851.525	7008
2853.39	6984
2855.254	6938
2857.117	7047
2858.983	7058
2860.845	7029
2862.707	7044
2864.569	6990
2866.431	7220
2868.293	7002
2870.154	7145
2872.013	7142
2873.873	7118
2875.733	7298
2877.592	7208
2879.451	7227
2881.309	7298
2883.166	7207
2885.022	7351
2886.879	7387
2888.736	7278
2890.591	7377
2892.446	7357
2894.301	7328
2896.155	7358
2898.009	7332
2899.863	7409
2901.716	7292
2903.568	7346
2905.419	7330
2907.27	7180
2909.123	7272
2910.973	7236
2912.824	7399
2914.673	7309
2916.521	7400
2918.372	7321
2920.22	7369
2922.067	7305
2923.914	7471
2925.761	7609
2927.607	7600
2929.455	7489
2931.301	7607
2933.144	7538
2934.99	7620
2936.833	7553
2938.678	7673
2940.522	7546
2942.364	7717
2944.207	7828
2946.048	7741
2947.891	7897
2949.731	7941
2951.571	7752
2953.412	7821
2955.25	7811
2957.09	7714
2958.93	7803
2960.767	7720
2962.606	7683
2964.443	7672
2966.279	7625
2968.116	7559
2969.953	7314
2971.788	7484
2973.623	7223
2975.457	7430
2977.292	7137
2979.127	7288
2980.959	7298
2982.792	7307
2984.624	7084
2986.455	7095
2988.288	7134
2990.119	7090
2991.949	6943
2993.779	7082
2995.608	6984
2997.439	6949
2999.268	6803
3001.096	6930
3002.923	6864
3004.751	6863
3006.578	6790
3008.406	6723
3010.232	6773
3012.057	6809
3013.883	6683
3015.706	6669
3017.532	6706
3019.356	6688
3021.179	6666
3023.002	6671
3024.823	6618
3026.646	6532
3028.469	6650
3030.289	6625
3032.11	6552
3033.93	6544
3035.749	6710
3037.57	6603
3039.39	6688
3041.207	6449
3043.026	6402
3044.842	6551
3046.661	6550
3048.477	6526
3050.294	6567
3052.109	6546
3053.925	6438
3055.739	6508
3057.555	6513
3059.368	6420
3061.181	6560
3062.995	6575
3064.807	6459
3066.62	6344
3068.433	6557
3070.243	6400
3072.054	6453
3073.865	6423
3075.675	6351
3077.485	6391
3079.293	6450
3081.102	6346
3082.911	6381
3084.719	6456
3086.527	6392
3088.333	6405
3090.139	6343
3091.945	6278
3093.75	6333
3095.557	6204
3097.361	6338
3099.165	6253
3100.969	6328
3102.772	6268
3104.575	6320
3106.379	6321
3108.181	6178
3109.982	6268
3111.783	6125
3113.584	6228
3115.386	6193
3117.186	6124
3118.985	6149
3120.783	6109
3122.582	6218
3124.381	6192
3126.179	6291
3127.975	6287
3129.772	6187
3131.569	6254
3133.365	6129
3135.161	6060
3136.956	6140
3138.751	6290
3140.544	6126
3142.338	6107
3144.132	6126
3145.925	6171
3147.717	6135
3149.509	6070
3151.301	5984
3153.091	5861
3154.884	5984
3156.673	6037
3158.462	6113
3160.252	6070
3162.041	6068
3163.831	6046
3165.618	5990
3167.405	5997
3169.193	5935
3170.979	5984
3172.767	6057
3174.553	5969
3176.338	5976
3178.123	6139
3179.907	5862
3181.692	6049
3183.477	6029
3185.259	6005
3187.042	6031
3188.824	5824
3190.607	5995
3192.389	6002
3194.17	5979
3195.951	5972
3197.73	5860
3199.51	5999
3201.289	5919
3203.07	5943
3204.848	5917
3206.626	5913
3208.403	5881
3210.18	5991
3211.959	6040
3213.735	5955
3215.511	5840
3217.285	5788
3219.06	5933
3220.836	5940
3222.611	5980
3224.384	6020
3226.158	5937
3227.929	5923
3229.702	5917
3231.476	5819
3233.248	5945
3235.018	5792
3236.789	5877
3238.56	5857
3240.33	5754
3242.1	5858
3243.869	5898
3245.637	5807
3247.405	5826
3249.172	5823
3250.941	5926
3252.707	5869
3254.474	5865
3256.24	5860
3258.006	5799
3259.772	5881
3261.537	5884
3263.301	5779
3265.065	5867
3266.828	5884
3268.592	5903
3270.355	5871
3272.117	5845
3273.878	5852
3275.64	5849
3277.401	5824
3279.162	5855
3280.922	5784
3282.682	5704
3284.441	5828
3286.199	5827
3287.959	5761
3289.716	5743
3291.475	5821
3293.232	5907
3294.988	5774
3296.744	5805
3298.501	5726
3300.256	5820
3302.011	5777
3303.766	5799
3305.52	5742
3307.275	5806
3309.028	5739
3310.781	5761
3312.533	5679
3314.285	5695
3316.038	5790
3317.789	5708
3319.54	5747
3321.289	5755
3323.039	5792
3324.789	5859
3326.539	5728
3328.288	5677
3330.035	5743
3331.783	5645
3333.531	5717
3335.28	5777
3337.025	5792
3338.771	5613
3340.518	5644
3342.262	5739
3344.009	5748
3345.753	5626
3347.497	5707
3349.24	5793
3350.983	5716
3352.726	5713
3354.469	5689
3356.212	5575
3357.952	5650
3359.694	5761
3361.434	5697
3363.176	5618
3364.916	5503
3366.654	5646
3368.394	5665
3370.132	5648
3371.871	5507
3373.61	5643
3375.346	5553
3377.083	5689
3378.82	5567
3380.556	5594
3382.292	5634
3384.027	5498
3385.763	5548
3387.497	5558
3389.231	5661
3390.965	5495
3392.698	5588
3394.431	5495
3396.164	5589
3397.896	5610
3399.627	5455
3401.36	5522
3403.09	5471
3404.82	5497
3406.55	5593
3408.279	5421
3410.01	5486
3411.738	5383
3413.467	5574
3415.194	5415
3416.92	5531
3418.647	5445
3420.375	5451
3422.102	5390
3423.827	5399
3425.553	5526
3427.277	5478
3429.003	5427
3430.727	5448
3432.451	5538
3434.173	5339
3435.896	5403
3437.62	5434
3439.343	5397
3441.063	5453
3442.785	5337
3444.505	5368
3446.226	5404
3447.948	5430
3449.666	5310
3451.386	5504
3453.104	5397
3454.823	5444
3456.541	5306
3458.259	5182
3459.976	5404
3461.693	5311
3463.408	5298
3465.125	5259
3466.841	5246
3468.556	5208
3470.271	5264
3471.985	5364
3473.698	5121
3475.414	5283
3477.126	5184
3478.838	5235
3480.55	5261
3482.263	5186
3483.975	5313
3485.686	5183
3487.396	5250
3489.106	5264
3490.817	5257
3492.526	5155
3494.236	5179
3495.944	5133
3497.652	5167
3499.359	5076
3501.066	5154
3502.775	5183
3504.481	5115
3506.187	5086
3507.893	5132
3509.598	5234
3511.304	5071
3513.009	5179
3514.713	5154
3516.417	5140
3518.12	5136
3519.821	5061
3521.525	5133
3523.228	5025
3524.929	5106
3526.631	5130
3528.33	5017
3530.032	5108
3531.733	5088
3533.433	5062
3535.131	5083
3536.83	4964
3538.529	5046
3540.227	5069
3541.925	5053
3543.623	5082
3545.319	5085
3547.016	5079
3548.712	5109
3550.408	4908
3552.103	4960
3553.798	5023
3555.491	5016
3557.188	5000
3558.88	4969
3560.574	4960
3562.266	4989
3563.959	4961
3565.651	4960
3567.343	5002
3569.035	4931
3570.725	4929
3572.415	4903
3574.106	4890
3575.797	4938
3577.485	4827
3579.174	4910
3580.863	4907
3582.551	4890
3584.238	4947
3585.926	4898
3587.613	4885
3589.3	4834
3590.986	4881
3592.671	4790
3594.357	4833
3596.042	4736
3597.726	4869
3599.41	4823
3601.094	4764
3602.778	4741
3604.461	4843
3606.143	4829
3607.825	4752
3609.507	4789
3611.188	4721
3612.87	4769
3614.551	4756
3616.229	4849
3617.909	4732
3619.589	4860
3621.269	4708
3622.948	4728
3624.625	4722
3626.302	4686
3627.98	4616
3629.657	4687
3631.334	4668
3633.01	4624
3634.686	4694
3636.361	4680
3638.036	4690
3639.712	4714
3641.385	4615
3643.06	4611
3644.732	4595
3646.405	4737
3648.08	4686
3649.751	4672
3651.424	4668
3653.094	4603
3654.766	4627
3656.436	4652
3658.106	4640
3659.777	4612
3661.446	4702
3663.115	4540
3664.783	4673
3666.452	4627
3668.121	4596
3669.788	4542
3671.454	4656
3673.121	4576
3674.789	4535
3676.455	4578
3678.12	4567
3679.784	4572
3681.45	4543
3683.114	4639
3684.779	4604
3686.442	4523
3688.105	4596
3689.768	4601
3691.43	4530
3693.093	4574
3694.754	4490
3696.415	4494
3698.076	4661
3699.736	4455
3701.396	4524
3703.057	4540
3704.716	4456
3706.375	4497
3708.034	4528
3709.692	4465
3711.351	4376
3713.008	4498
3714.665	4499
3716.321	4451
3717.977	4517
3719.634	4510
3721.29	4485
3722.945	4578
3724.598	4536
3726.253	4306
3727.907	4493
3729.561	4476
3731.214	4361
3732.867	4416
3734.518	4412
3736.171	4516
3737.824	4501
3739.474	4521
3741.125	4444
3742.775	4522
3744.425	4401
3746.074	4391
3747.725	4432
3749.373	4406
3751.022	4365
3752.669	4357
3754.318	4363
3755.966	4362
3757.612	4275
3759.259	4265
3760.905	4390
3762.55	4347
3764.197	4338
3765.842	4303
3767.486	4397
3769.131	4334
3770.774	4392
3772.417	4367
3774.061	4376
3775.705	4331
3777.347	4409
3778.988	4278
3780.629	4419
3782.271	4227
3783.912	4259
3785.552	4333
3787.192	4208
3788.831	4352
3790.472	4247
3792.112	4265
3793.75	4254
3795.388	4206
3797.024	4183
3798.661	4228
3800.3	4238
3801.936	4286
3803.572	4346
3805.208	4203
3806.844	4215
3808.48	4252
3810.115	4189
3811.748	4177
3813.382	4200
3815.016	4241
3816.649	4197
3818.283	4149
3819.914	4209
3821.547	4220
3823.178	4183
3824.809	4183
3826.441	4117
3828.072	4204
3829.701	4208
3831.331	4137
3832.96	4170
3834.591	4129
3836.219	4178
3837.847	4157
3839.475	4167
3841.102	4217
3842.729	4138
3844.357	4122
3845.984	4112
3847.609	4083
3849.234	4108
3850.86	4138
3852.485	4176
3854.11	4108
3855.734	4032
3857.357	4087
3858.981	4107
3860.603	4172
3862.227	4105
3863.848	4077
3865.471	4087
3867.092	4123
3868.713	4025
3870.334	4048
3871.954	4066
3873.575	4100
3875.194	4043
3876.813	4016
3878.433	3949
3880.051	4101
3881.669	3999
3883.286	4108
3884.904	4013
3886.52	4006
3888.138	4069
3889.754	3999
3891.37	4046
3892.985	4098
3894.6	4071
3896.216	4012
3897.831	4005
3899.444	4009
3901.058	4062
3902.67	3988
3904.283	4013
3905.897	3931
3907.509	4000
3909.121	3982
3910.731	3968
3912.342	4045
3913.954	3922
3915.563	4069
3917.174	4006
3918.783	3984
3920.391	4003
3922.002	4035
3923.611	3964
3925.218	3957
3926.826	3916
3928.432	4000
3930.039	4021
3931.647	3905
3933.253	4020
3934.859	3920
3936.464	3930
3938.068	4021
3939.675	3872
3941.278	3921
3942.883	3952
3944.486	3923
3946.089	3933
3947.692	3920
3949.295	3928
3950.898	3866
3952.499	3898
3954.1	3876
3955.7	3877
3957.303	3878
3958.903	3893
3960.502	3873
3962.101	3872
3963.7	3915
3965.301	3857
3966.899	3754
3968.497	3860
3970.094	3833
3971.691	3825
3973.288	3757
3974.885	3905
3976.481	3860
3978.077	3923
3979.672	3871
3981.267	3818
3982.863	3863
3984.457	3822
3986.051	3759
3987.645	3731
3989.238	3777
3990.831	3794
3992.425	3763
3994.017	3806
3995.607	3839
3997.199	3728
3998.79	3707
4000.382	3736
4001.973	3715
4003.561	3757
4005.151	3704
4006.741	3756
4008.331	3771
4009.918	3757
4011.507	3689
4013.095	3679
4014.681	3786
4016.269	3652
4017.856	3699
4019.443	3680
4021.028	3651
4022.614	3682
4024.199	3697
4025.785	3577
4027.37	3629
4028.953	3692
4030.536	3653
4032.12	3567
4033.704	3638
4035.287	3609
4036.869	3624
4038.45	3746
4040.032	3649
4041.613	3671
4043.195	3645
4044.776	3561
4046.356	3625
4047.935	3639
4049.515	3699
4051.095	3520
4052.674	3613
4054.251	3620
4055.829	3618
4057.406	3566
4058.985	3531
4060.562	3562
4062.139	3622
4063.715	3626
4065.29	3575
4066.865	3539
4068.442	3560
4070.016	3560
4071.59	3597
4073.164	3492
4074.738	3514
4076.312	3508
4077.885	3447
4079.458	3572
4081.03	3438
4082.602	3534
4084.173	3416
4085.745	3466
4087.315	3485
4088.886	3510
4090.456	3574
4092.026	3570
4093.596	3594
4095.165	3547
4096.734	3467
4098.301	3415
4099.869	3432
4101.437	3497
4103.006	3526
4104.572	3479
4106.139	3515
4107.704	3545
4109.27	3471
4110.837	3476
4112.401	3501
4113.966	3473
4115.53	3426
4117.094	3428
4118.659	3479
4120.223	3342
4121.785	3350
4123.347	3497
4124.909	3404
4126.471	3418
4128.034	3416
4129.595	3421
4131.155	3436
4132.716	3449
4134.275	3355
4135.836	3408
4137.395	3351
4138.955	3398
4140.513	3431
4142.071	3343
4143.628	3404
4145.188	3319
4146.745	3366
4148.302	3431
4149.858	3370
4151.414	3341
4152.971	3252
4154.526	3347
4156.081	3295
4157.635	3347
4159.189	3311
4160.745	3251
4162.298	3308
4163.852	3295
4165.405	3257
4166.957	3336
4168.51	3265
4170.063	3344
4171.614	3258
4173.166	3282
4174.717	3263
4176.267	3232
4177.817	3301
4179.368	3296
4180.917	3208
4182.466	3220
4184.016	3309
4185.564	3235
4187.112	3314
4188.66	3221
4190.207	3237
4191.754	3216
4193.301	3220
4194.848	3216
4196.394	3254
4197.94	3246
4199.484	3271
4201.03	3270
4202.575	3199
4204.12	3211
4205.663	3270
4207.207	3181
4208.75	3187
4210.292	3228
4211.836	3215
4213.378	3197
4214.92	3121
4216.46	3203
4218.002	3210
4219.544	3259
4221.083	3124
4222.625	3229
4224.164	3141
4225.703	3079
4227.244	3154
4228.782	3086
4230.32	3183
4231.857	3186
4233.395	3141
4234.933	3191
4236.471	3144
4238.007	3215
4239.542	3141
4241.078	3140
4242.614	3156
4244.15	3080
4245.685	3126
4247.219	3081
4248.753	3113
4250.287	3125
4251.82	3165
4253.354	3102
4254.887	3079
4256.419	3090
4257.951	3107
4259.483	3159
4261.016	3114
4262.547	3133
4264.078	3144
4265.608	3047
4267.137	3082
4268.668	3048
4270.197	3150
4271.727	3078
4273.254	3082
4274.783	3172
4276.311	3047
4277.84	3055
4279.366	3008
4280.894	3062
4282.42	3091
4283.946	3045
4285.473	3030
4286.998	2994
4288.523	2987
4290.047	3059
4291.572	3044
4293.096	3059
4294.622	3022
4296.144	3034
4297.668	3021
4299.19	3061
4300.713	3001
4302.236	3097
4303.758	3028
4305.279	3057
4306.799	2958
4308.321	2951
4309.842	2965
4311.361	2988
4312.882	2958
4314.401	3003
