400.0961	4193
402.6185	4147
405.1424	4116
407.6635	4194
410.1838	4166
412.7035	4306
415.2225	4255
417.7388	4193
420.2585	4302
422.7754	4325
425.2917	4300
427.8072	4428
430.3221	4472
432.8363	4440
435.3498	4421
437.8626	4311
440.3727	4421
442.8841	4409
445.3969	4395
447.907	4410
450.4142	4411
452.9229	4470
455.4289	4381
457.9362	4444
460.4449	4405
462.9488	4345
465.454	4456
467.9566	4436
470.4604	4309
472.9637	4323
475.4662	4439
477.966	4584
480.4671	4427
482.9656	4408
485.4633	4451
487.9645	4469
490.4608	4535
492.9566	4611
495.4536	4536
497.948	4569
500.4437	4564
502.9387	4547
505.431	4589
507.9226	4534
510.4136	4579
512.9079	4599
515.3975	4565
517.8864	4571
520.3746	4591
522.8622	4542
525.3491	4563
527.8394	4550
530.3249	4628
532.8098	4590
535.2939	4614
537.7774	4655
540.2623	4558
542.7444	4595
545.2259	4593
547.7067	4700
550.1868	4669
552.6683	4613
555.147	4594
557.6231	4658
560.1005	4697
562.5773	4793
565.0534	4761
567.5308	4666
570.0056	4742
572.4776	4785
574.951	4708
577.4237	4650
579.8978	4694
582.3671	4777
584.8378	4814
587.3079	4791
589.7773	4852
592.244	4770
594.714	4722
597.1793	4820
599.6461	4782
602.1121	4817
604.5754	4685
607.0421	4831
609.5042	4768
611.9675	4764
614.4282	4799
616.8902	4872
619.3515	4826
621.8122	4866
624.2702	4879
626.7296	4771
629.1863	4793
631.6423	4763
634.1017	4654
636.5563	4777
639.0104	4831
641.4658	4727
643.9185	4743
646.3725	4796
648.8239	4835
651.2766	4806
653.7266	4817
656.176	4858
658.6247	4837
661.0748	4933
663.5242	4897
665.9709	4867
668.417	4908
670.8624	4879
673.3092	4931
675.7533	4860
678.1968	4893
680.6395	4910
683.0817	4873
685.5251	4946
687.9659	5016
690.4061	4978
692.8456	4972
695.2844	5067
697.7226	5009
700.1621	4942
702.599	4998
705.0332	5138
707.4688	5064
709.9036	4990
712.3399	5142
714.7735	5035
717.2044	5130
719.6367	5088
722.0683	5097
724.4993	5118
726.9296	5036
729.3593	5121
731.7883	5150
734.2147	5129
736.6423	5065
739.0714	5238
741.4958	5111
743.9216	5210
746.3447	5159
748.7691	5205
751.1929	5170
753.616	5121
756.0366	5304
758.4584	5246
760.8776	5322
763.2982	5296
765.718	5296
768.1373	5219
770.5539	5309
772.9698	5301
775.3871	5317
777.8038	5270
780.2178	5324
782.6332	5417
785.0459	5225
787.458	5269
789.8714	5272
792.2842	5326
794.6943	5252
797.1038	5341
799.5127	5341
801.9209	5323
804.3324	5262
806.7393	5259
809.1456	5265
811.5513	5310
813.9562	5378
816.3625	5365
818.7663	5387
821.1693	5429
823.5718	5423
825.9735	5332
828.3746	5420
830.7771	5368
833.177	5408
835.5762	5403
837.9747	5440
840.3727	5463
842.772	5582
845.1666	5397
847.5626	5477
849.958	5484
852.3527	5452
854.7488	5566
857.1403	5582
859.5331	5507
861.9253	5485
864.3168	5544
866.7057	5524
869.098	5481
871.4876	5435
873.8746	5495
876.263	5545
878.6487	5511
881.0378	5477
883.4243	5390
885.8081	5488
888.1933	5576
890.5759	5393
892.9598	5606
895.343	5512
897.7256	5441
900.1057	5495
902.4871	5557
904.8659	5472
907.246	5514
909.6254	5696
912.0023	5671
914.3786	5784
916.7562	5737
919.1331	5858
921.5074	5882
923.8831	5909
926.2562	5917
928.6287	5947
931.0005	5757
933.3757	5890
935.7462	5813
938.1162	5750
940.4855	5784
942.8542	5827
945.2242	5759
947.5916	6018
949.9584	6036
952.3266	6062
954.6921	6243
957.0571	6454
959.4233	6518
961.787	6591
964.15	6468
966.5125	6409
968.8742	6310
971.2354	6192
973.5959	6066
975.9559	5967
978.3151	5756
980.6738	5870
983.0338	5858
985.3912	5777
987.7461	5718
990.1022	5708
992.4578	5724
994.8127	5666
997.1689	5703
999.5207	5807
1001.874	5772
1004.226	5841
1006.576	5706
1008.929	5717
1011.28	5828
1013.628	5771
1015.977	5713
1018.324	5756
1020.674	5709
1023.019	5809
1025.366	5761
1027.713	5779
1030.056	5827
1032.399	5752
1034.746	5808
1037.087	5775
1039.431	5880
1041.771	5801
1044.113	5863
1046.454	5644
1048.793	5785
1051.133	5761
1053.471	5814
1055.807	5915
1058.146	5688
1060.483	5768
1062.818	5883
1065.153	5888
1067.489	5911
1069.822	5829
1072.156	6032
1074.488	5973
1076.82	5825
1079.15	5814
1081.48	5936
1083.814	5944
1086.143	5962
1088.471	5939
1090.799	5946
1093.126	5778
1095.452	5938
1097.78	5919
1100.105	5878
1102.43	5822
1104.754	5836
1107.077	5798
1109.4	5897
1111.722	5893
1114.044	5909
1116.365	5816
1118.685	5794
1121.005	5928
1123.324	5903
1125.643	6044
1127.961	6007
1130.278	6015
1132.595	5785
1134.911	5950
1137.226	5914
1139.541	5931
1141.854	5887
1144.167	5926
1146.482	5845
1148.793	5886
1151.105	5846
1153.414	5912
1155.725	5928
1158.033	5893
1160.344	5973
1162.651	5948
1164.959	5875
1167.265	5951
1169.572	5978
1171.878	5904
1174.184	5909
1176.488	5967
1178.79	5966
1181.094	5998
1183.396	5958
1185.699	5920
1188.001	5851
1190.301	6040
1192.6	5986
1194.9	5856
1197.2	5911
1199.497	5866
1201.794	6025
1204.09	5864
1206.387	5915
1208.684	5998
1210.978	5957
1213.272	5873
1215.565	5933
1217.858	5993
1220.15	5993
1222.443	5996
1224.734	5996
1227.024	6027
1229.313	5987
1231.602	6021
1233.892	5962
1236.18	5975
1238.467	6138
1240.754	6164
1243.04	6200
1245.325	6249
1247.612	6158
1249.896	6172
1252.178	6127
1254.461	6107
1256.743	6141
1259.027	6089
1261.308	6186
1263.587	6213
1265.867	6139
1268.146	6166
1270.425	6290
1272.703	6208
1274.981	6205
1277.256	6179
1279.532	6126
1281.808	6109
1284.083	6035
1286.358	6193
1288.63	5994
1290.904	6094
1293.175	6188
1295.449	6217
1297.719	6185
1299.99	6126
1302.259	6114
1304.529	5941
1306.798	6096
1309.065	6162
1311.333	6200
1313.599	6153
1315.866	6070
1318.131	6080
1320.396	6124
1322.66	6083
1324.925	6142
1327.187	6102
1329.448	6151
1331.711	6282
1333.974	6170
1336.234	6155
1338.493	6152
1340.752	6105
1343.01	6159
1345.269	6201
1347.526	6127
1349.784	6172
1352.04	6059
1354.295	6093
1356.552	6046
1358.806	6110
1361.059	6020
1363.312	6057
1365.564	6099
1367.818	6173
1370.069	6165
1372.318	6135
1374.568	6099
1376.817	6106
1379.066	6143
1381.316	6242
1383.564	6214
1385.809	6293
1388.056	6276
1390.301	6279
1392.549	6393
1394.793	6453
1397.036	6427
1399.279	6529
1401.522	6455
1403.763	6451
1406.007	6531
1408.248	6420
1410.487	6580
1412.727	6478
1414.965	6393
1417.205	6375
1419.442	6418
1421.68	6476
1423.915	6411
1426.152	6354
1428.388	6389
1430.623	6382
1432.857	6427
1435.091	6341
1437.323	6551
1439.556	6471
1441.789	6427
1444.019	6521
1446.25	6482
1448.48	6428
1450.708	6447
1452.938	6557
1455.167	6584
1457.394	6590
1459.62	6509
1461.846	6476
1464.073	6414
1466.299	6543
1468.523	6417
1470.746	6438
1472.969	6409
1475.191	6353
1477.415	6176
1479.636	6318
1481.858	6304
1484.078	6173
1486.298	6226
1488.518	6146
1490.736	6323
1492.954	6149
1495.169	6154
1497.386	6205
1499.602	6166
1501.819	6195
1504.034	6220
1506.248	6195
1508.462	6161
1510.675	6165
1512.888	6167
1515.1	6186
1517.311	6092
1519.522	6129
1521.732	6137
1523.942	6182
1526.151	6151
1528.36	6119
1530.566	6205
1532.773	6197
1534.98	6242
1537.187	6127
1539.392	6220
1541.596	6137
1543.801	6193
1546.005	6309
1548.208	6153
1550.411	6290
1552.612	6362
1554.814	6265
1557.013	6227
1559.212	6259
1561.414	6232
1563.612	6278
1565.811	6320
1568.007	6326
1570.203	6449
1572.403	6284
1574.598	6234
1576.792	6355
1578.988	6328
1581.181	6441
1583.376	6374
1585.568	6287
1587.761	6368
1589.952	6412
1592.143	6228
1594.333	6385
1596.524	6396
1598.715	6417
1600.903	6399
1603.091	6325
1605.278	6388
1607.466	6382
1609.652	6448
1611.838	6611
1614.023	6491
1616.207	6344
1618.391	6398
1620.576	6447
1622.759	6420
1624.941	6430
1627.123	6387
1629.304	6446
1631.484	6490
1633.664	6433
1635.844	6415
1638.022	6362
1640.201	6401
1642.38	6428
1644.556	6425
1646.732	6493
1648.908	6560
1651.084	6424
1653.257	6426
1655.433	6477
1657.607	6390
1659.779	6505
1661.951	6420
1664.122	6469
1666.295	6378
1668.467	6547
1670.635	6533
1672.805	6502
1674.973	6548
1677.142	6428
1679.31	6645
1681.478	6495
1683.644	6510
1685.81	6524
1687.975	6481
1690.142	6535
1692.305	6449
1694.468	6422
1696.632	6454
1698.794	6515
1700.957	6450
1703.119	6463
1705.279	6407
1707.439	6481
1709.598	6432
1711.758	6398
1713.917	6363
1716.075	6420
1718.231	6435
1720.388	6325
1722.543	6423
1724.702	6328
1726.856	6425
1729.01	6445
1731.164	6290
1733.317	6358
1735.471	6411
1737.623	6346
1739.774	6419
1741.925	6519
1744.075	6372
1746.225	6372
1748.376	6315
1750.524	6396
1752.672	6398
1754.82	6490
1756.965	6491
1759.113	6337
1761.259	6501
1763.405	6414
1765.549	6454
1767.694	6402
1769.836	6453
1771.981	6518
1774.123	6477
1776.264	6422
1778.405	6443
1780.546	6514
1782.687	6583
1784.827	6438
1786.966	6350
1789.103	6438
1791.242	6459
1793.381	6374
1795.517	6433
1797.653	6543
1799.788	6499
1801.923	6483
1804.057	6493
1806.193	6397
1808.326	6554
1810.457	6486
1812.59	6541
1814.721	6466
1816.855	6413
1818.984	6419
1821.113	6438
1823.244	6367
1825.372	6491
1827.499	6427
1829.63	6410
1831.756	6490
1833.882	6435
1836.007	6483
1838.132	6401
1840.26	6458
1842.384	6340
1844.507	6466
1846.63	6369
1848.752	6317
1850.875	6395
1852.996	6367
1855.118	6358
1857.238	6487
1859.358	6460
1861.477	6391
1863.597	6336
1865.715	6406
1867.832	6458
1869.948	6276
1872.064	6456
1874.181	6311
1876.297	6356
1878.411	6331
1880.526	6498
1882.639	6454
1884.752	6356
1886.865	6335
1888.977	6407
1891.089	6506
1893.2	6499
1895.308	6462
1897.42	6452
1899.53	6402
1901.639	6410
1903.745	6479
1905.853	6485
1907.962	6548
1910.067	6417
1912.174	6543
1914.278	6574
1916.383	6498
1918.486	6495
1920.592	6533
1922.694	6400
1924.797	6469
1926.898	6404
1929	6530
1931.102	6506
1933.203	6471
1935.301	6523
1937.401	6535
1939.499	6550
1941.598	6615
1943.697	6418
1945.793	6482
1947.888	6517
1949.985	6503
1952.08	6515
1954.176	6489
1956.269	6525
1958.364	6336
1960.457	6427
1962.549	6572
1964.642	6468
1966.733	6450
1968.823	6517
1970.913	6566
1973.005	6451
1975.093	6497
1977.184	6376
1979.271	6465
1981.359	6438
1983.446	6435
1985.532	6481
1987.619	6412
1989.705	6422
1991.789	6432
1993.874	6463
1995.956	6333
1998.041	6469
2000.123	6420
2002.206	6383
2004.287	6470
2006.368	6477
2008.449	6407
2010.529	6276
2012.609	6337
2014.688	6411
2016.766	6372
2018.843	6494
2020.922	6477
2022.999	6362
2025.074	6359
2027.15	6410
2029.225	6418
2031.299	6450
2033.375	6388
2035.447	6428
2037.52	6466
2039.592	6411
2041.664	6414
2043.736	6360
2045.807	6427
2047.876	6460
2049.947	6469
2052.015	6420
2054.086	6516
2056.153	6467
2058.221	6559
2060.288	6449
2062.353	6512
2064.42	6555
2066.486	6361
2068.55	6460
2070.614	6467
2072.678	6383
2074.741	6429
2076.805	6362
2078.866	6474
2080.929	6662
2082.99	6422
2085.049	6446
2087.109	6486
2089.17	6435
2091.228	6380
2093.286	6459
2095.344	6425
2097.4	6530
2099.46	6451
2101.516	6360
2103.572	6421
2105.626	6370
2107.679	6405
2109.735	6423
2111.788	6504
2113.841	6411
2115.894	6417
2117.945	6451
2119.997	6474
2122.049	6366
2124.1	6446
2126.148	6504
2128.197	6375
2130.246	6391
2132.296	6453
2134.342	6414
2136.39	6531
2138.437	6331
2140.483	6498
2142.527	6390
2144.574	6396
2146.619	6447
2148.661	6415
2150.705	6379
2152.747	6378
2154.792	6428
2156.832	6515
2158.874	6382
2160.915	6364
2162.954	6495
2164.995	6352
2167.034	6353
2169.072	6433
2171.111	6443
2173.148	6390
2175.186	6340
2177.223	6377
2179.258	6424
2181.294	6511
2183.328	6365
2185.362	6301
2187.398	6351
2189.431	6325
2191.463	6310
2193.495	6269
2195.528	6279
2197.56	6315
2199.59	6239
2201.62	6249
2203.649	6243
2205.678	6310
2207.708	6263
2209.737	6337
2211.764	6266
2213.791	6234
2215.817	6235
2217.843	6255
2219.87	6256
2221.895	6244
2223.919	6220
2225.942	6281
2227.966	6291
2229.988	6330
2232.012	6281
2234.032	6372
2236.054	6271
2238.074	6124
2240.095	6337
2242.116	6245
2244.135	6255
2246.153	6241
2248.171	6222
2250.188	6270
2252.208	6163
2254.223	6213
2256.239	6224
2258.255	6382
2260.269	6213
2262.283	6346
2264.3	6186
2266.312	6181
2268.325	6277
2270.336	6179
2272.349	6244
2274.362	6279
2276.372	6200
2278.383	6339
2280.392	6486
2282.402	6215
2284.409	6261
2286.418	6327
2288.427	6349
2290.433	6274
2292.441	6250
2294.446	6235
2296.453	6372
2298.459	6284
2300.463	6322
2302.466	6232
2304.471	6196
2306.475	6279
2308.477	6239
2310.478	6191
2312.481	6154
2314.481	6327
2316.481	6225
2318.482	6125
2320.482	6142
2322.48	6172
2324.48	6188
2326.478	6231
2328.476	6196
2330.473	6255
2332.469	6023
2334.465	6216
2336.46	6129
2338.454	6102
2340.45	6137
2342.444	6086
2344.437	6182
2346.43	6191
2348.421	6074
2350.414	6084
2352.405	6137
2354.396	6126
2356.386	6188
2358.376	6188
2360.366	6098
2362.355	6112
2364.343	6045
2366.331	6206
2368.317	6177
2370.304	6112
2372.292	6044
2374.278	6075
2376.262	6183
2378.247	6168
2380.23	6127
2382.216	6276
2384.199	6060
2386.181	6035
2388.163	6112
2390.144	6133
2392.127	6097
2394.107	6045
2396.087	5990
2398.066	5878
2400.046	5996
2402.023	6073
2404.004	6049
2405.981	5994
2407.957	6088
2409.934	6084
2411.91	6080
2413.886	6063
2415.862	6041
2417.836	6026
2419.809	6013
2421.784	5931
2423.756	6118
2425.73	5939
2427.701	6055
2429.672	6057
2431.644	6058
2433.615	5977
2435.586	5952
2437.555	5948
2439.523	6143
2441.491	5796
2443.459	6027
2445.428	5954
2447.395	5950
2449.361	6180
2451.327	5982
2453.292	5900
2455.257	6000
2457.223	6003
2459.187	5883
2461.15	6121
2463.113	6032
2465.076	5901
2467.039	5883
2468.999	6072
2470.96	5916
2472.921	6029
2474.881	6102
2476.841	5935
2478.8	5947
2480.759	5888
2482.717	5937
2484.675	6001
2486.63	6026
2488.589	5939
2490.545	6054
2492.5	6038
2494.455	5943
2496.408	5938
2498.364	5927
2500.318	5844
2502.27	5899
2504.223	5887
2506.174	5996
2508.126	5893
2510.078	5777
2512.03	5956
2513.979	5869
2515.927	5946
2517.877	6039
2519.826	5811
2521.775	5937
2523.722	5955
2525.668	5976
2527.616	5795
2529.561	5838
2531.508	6013
2533.452	5925
2535.398	5963
2537.342	5899
2539.284	5910
2541.229	5834
2543.173	5942
2545.114	5769
2547.055	5925
2548.996	5978
2550.938	5895
2552.878	5806
2554.817	5931
2556.756	5877
2558.695	5796
2560.633	5959
2562.572	5907
2564.509	5954
2566.445	5914
2568.382	5846
2570.317	5932
2572.254	5947
2574.189	6013
2576.123	5887
2578.057	5846
2579.99	5932
2581.923	5936
2583.855	5829
2585.788	5967
2587.719	5793
2589.65	5940
2591.579	5902
2593.511	6040
2595.44	5853
2597.37	5952
2599.297	5952
2601.225	5941
2603.153	5920
2605.08	5993
2607.007	5958
2608.932	5893
2610.858	5911
2612.782	5825
2614.709	6012
2616.632	5827
2618.556	5954
2620.478	5977
2622.401	6073
2624.324	5883
2626.247	5987
2628.167	5929
2630.088	5942
2632.008	5928
2633.928	5914
2635.848	5913
2637.766	5961
2639.684	5816
2641.603	5944
2643.519	5862
2645.437	6009
2647.353	5993
2649.27	5847
2651.184	5859
2653.099	5929
2655.014	5864
2656.928	5943
2658.842	5855
2660.755	5905
2662.667	5782
2664.579	5922
2666.491	5871
2668.402	5996
2670.312	5865
2672.222	5811
2674.132	5843
2676.042	5922
2677.951	5804
2679.859	5863
2681.766	5778
2683.674	5904
2685.582	5709
2687.488	5855
2689.392	5983
2691.298	5819
2693.202	5845
2695.107	5861
2697.012	5805
2698.914	5833
2700.817	5721
2702.72	5843
2704.622	5802
2706.524	5869
2708.425	5747
2710.326	5904
2712.225	5839
2714.125	5683
2716.024	5797
2717.923	5805
2719.822	5763
2721.719	5779
2723.616	5693
2725.512	5837
2727.41	5757
2729.305	5723
2731.201	5753
2733.095	5740
2734.99	5711
2736.884	5718
2738.778	5860
2740.67	5756
2742.562	5832
2744.455	5730
2746.346	5764
2748.238	5907
2750.129	5775
2752.018	5742
2753.907	5694
2755.797	5767
2757.687	5801
2759.575	5886
2761.462	5794
2763.349	5723
2765.237	5775
2767.124	5852
2769.009	5699
2770.894	5800
2772.779	5816
2774.663	5701
2776.547	5777
2778.431	5721
2780.314	5784
2782.197	5805
2784.078	5806
2785.96	5821
2787.842	5699
2789.723	5836
2791.603	5776
2793.483	5756
2795.362	5763
2797.241	5762
2799.121	5686
2800.997	5744
2802.874	5618
2804.751	5744
2806.628	5733
2808.506	5711
2810.38	5721
2812.255	5708
2814.13	5768
2816.003	5679
2817.878	5639
2819.752	5651
2821.623	5726
2823.496	5727
2825.368	5876
2827.238	5729
2829.111	5739
2830.98	5715
2832.851	5742
2834.719	5712
2836.589	5678
2838.458	5741
2840.327	5778
2842.193	5797
2844.061	5745
2845.927	5774
2847.794	5692
2849.66	5801
2851.525	5848
2853.39	5740
2855.254	5750
2857.117	5869
2858.983	5906
2860.845	5794
2862.707	5822
2864.569	5982
2866.431	5806
2868.293	5872
2870.154	5727
2872.013	5902
2873.873	5968
2875.733	5956
2877.592	6037
2879.451	6066
2881.309	6142
2883.166	6078
2885.022	6217
2886.879	6190
2888.736	6141
2890.591	6326
2892.446	6280
2894.301	6351
2896.155	6332
2898.009	6306
2899.863	6276
2901.716	6231
2903.568	6259
2905.419	6160
2907.27	6284
2909.123	6147
2910.973	6278
2912.824	6295
2914.673	6306
2916.521	6187
2918.372	6388
2920.22	6461
2922.067	6388
2923.914	6435
2925.761	6447
2927.607	6337
2929.455	6327
2931.301	6407
2933.144	6590
2934.99	6440
2936.833	6510
2938.678	6660
2940.522	6523
2942.364	6706
2944.207	6667
2946.048	6903
2947.891	6918
2949.731	6977
2951.571	6904
2953.412	6968
2955.25	6910
2957.09	6855
2958.93	6810
2960.767	6740
2962.606	6682
2964.443	6653
2966.279	6628
2968.116	6499
2969.953	6441
2971.788	6317
2973.623	6425
2975.457	6338
2977.292	6275
2979.127	6128
2980.959	6156
2982.792	6080
2984.624	5978
2986.455	6049
2988.288	6021
2990.119	6019
2991.949	5970
2993.779	5948
2995.608	5901
2997.439	5972
2999.268	5946
3001.096	5884
3002.923	5946
3004.751	5770
3006.578	5713
3008.406	5767
3010.232	5711
3012.057	5666
3013.883	5671
3015.706	5685
3017.532	5572
3019.356	5666
3021.179	5667
3023.002	5582
3024.823	5538
3026.646	5724
3028.469	5550
3030.289	5504
3032.11	5530
3033.93	5693
3035.749	5621
3037.57	5558
3039.39	5579
3041.207	5487
3043.026	5551
3044.842	5462
3046.661	5370
3048.477	5461
3050.294	5483
3052.109	5529
3053.925	5515
3055.739	5481
3057.555	5581
3059.368	5376
3061.181	5445
3062.995	5391
3064.807	5435
3066.62	5401
3068.433	5500
3070.243	5435
3072.054	5474
3073.865	5450
3075.675	5434
3077.485	5366
3079.293	5413
3081.102	5420
3082.911	5428
3084.719	5360
3086.527	5390
3088.333	5446
3090.139	5383
3091.945	5282
3093.75	5401
3095.557	5409
3097.361	5219
3099.165	5288
3100.969	5271
3102.772	5406
3104.575	5301
3106.379	5510
3108.181	5313
3109.982	5318
3111.783	5368
3113.584	5337
3115.386	5286
3117.186	5331
3118.985	5301
3120.783	5245
3122.582	5308
3124.381	5260
3126.179	5282
3127.975	5327
3129.772	5197
3131.569	5342
3133.365	5279
3135.161	5322
3136.956	5323
3138.751	5352
3140.544	5185
3142.338	5329
3144.132	5191
3145.925	5317
3147.717	5260
3149.509	5215
3151.301	5256
3153.091	5201
3154.884	5395
3156.673	5120
3158.462	5143
3160.252	5312
3162.041	5275
3163.831	5187
3165.618	5187
3167.405	5242
3169.193	5175
3170.979	5207
3172.767	5103
3174.553	5187
3176.338	5196
3178.123	5223
3179.907	5131
3181.692	5125
3183.477	5229
3185.259	5172
3187.042	5205
3188.824	5221
3190.607	5189
3192.389	5164
3194.17	5161
3195.951	5167
3197.73	5175
3199.51	5192
3201.289	5110
3203.07	5257
3204.848	5164
3206.626	5064
3208.403	5155
3210.18	5171
3211.959	5170
3213.735	5109
3215.511	5047
3217.285	5157
3219.06	5133
3220.836	5086
3222.611	5096
3224.384	5136
3226.158	5122
3227.929	5136
3229.702	5169
3231.476	5210
3233.248	5076
3235.018	5103
3236.789	5154
3238.56	5204
3240.33	5218
3242.1	5156
3243.869	5162
3245.637	5093
3247.405	5228
3249.172	5221
3250.941	5159
3252.707	5130
3254.474	5220
3256.24	5263
3258.006	5083
3259.772	5132
3261.537	5219
3263.301	5140
3265.065	5057
3266.828	5195
3268.592	5122
3270.355	5061
3272.117	5129
3273.878	5168
3275.64	5199
3277.401	5150
3279.162	5149
3280.922	5134
3282.682	5167
3284.441	5226
3286.199	5122
3287.959	5210
3289.716	5102
3291.475	5109
3293.232	5227
3294.988	5153
3296.744	5161
3298.501	5162
3300.256	5137
3302.011	5128
3303.766	5143
3305.52	5159
3307.275	5043
3309.028	5149
3310.781	5093
3312.533	5157
3314.285	5228
3316.038	5047
3317.789	5127
3319.54	5149
3321.289	5216
3323.039	5165
3324.789	5147
3326.539	5097
3328.288	5081
3330.035	5065
3331.783	5146
3333.531	5172
3335.28	5053
3337.025	5083
3338.771	5073
3340.518	5150
3342.262	5035
3344.009	5078
3345.753	5131
3347.497	5023
3349.24	5116
3350.983	5073
3352.726	5065
3354.469	4991
3356.212	5020
3357.952	5032
3359.694	4902
3361.434	5118
3363.176	4986
3364.916	5094
3366.654	5069
3368.394	5046
3370.132	5054
3371.871	5008
3373.61	5037
3375.346	4980
3377.083	5016
3378.82	4973
3380.556	5028
3382.292	4948
3384.027	5070
3385.763	5001
3387.497	4945
3389.231	4884
3390.965	4984
3392.698	5030
3394.431	5010
3396.164	5001
3397.896	4974
3399.627	5004
3401.36	4920
3403.09	4916
3404.82	5047
3406.55	4997
3408.279	4962
3410.01	4937
3411.738	4973
3413.467	5031
3415.194	4950
3416.92	4937
3418.647	4943
3420.375	4959
3422.102	5031
3423.827	4933
3425.553	4893
3427.277	5037
3429.003	4837
3430.727	5009
3432.451	4870
3434.173	5012
3435.896	4917
3437.62	4943
3439.343	4915
3441.063	4954
3442.785	4944
3444.505	4821
3446.226	4837
3447.948	4823
3449.666	4903
3451.386	4878
3453.104	4836
3454.823	4889
3456.541	4877
3458.259	4866
3459.976	4809
3461.693	4784
3463.408	4845
3465.125	4879
3466.841	4827
3468.556	4825
3470.271	4828
3471.985	4779
3473.698	4734
3475.414	4870
3477.126	4847
3478.838	4739
3480.55	4752
3482.263	4752
3483.975	4825
3485.686	4774
3487.396	4779
3489.106	4764
3490.817	4690
3492.526	4788
3494.236	4827
3495.944	4717
3497.652	4704
3499.359	4900
3501.066	4833
3502.775	4785
3504.481	4681
3506.187	4694
3507.893	4639
3509.598	4757
3511.304	4668
3513.009	4799
3514.713	4750
3516.417	4677
3518.12	4802
3519.821	4691
3521.525	4707
3523.228	4682
3524.929	4694
3526.631	4653
3528.33	4674
3530.032	4658
3531.733	4687
3533.433	4718
3535.131	4649
3536.83	4773
3538.529	4597
3540.227	4588
3541.925	4691
3543.623	4650
3545.319	4648
3547.016	4679
3548.712	4672
3550.408	4616
3552.103	4679
3553.798	4625
3555.491	4622
3557.188	4662
3558.88	4694
3560.574	4590
3562.266	4667
3563.959	4578
3565.651	4552
3567.343	4682
3569.035	4690
3570.725	4638
3572.415	4655
3574.106	4640
3575.797	4590
3577.485	4647
3579.174	4632
3580.863	4588
3582.551	4676
3584.238	4525
3585.926	4566
3587.613	4622
3589.3	4531
3590.986	4716
3592.671	4527
3594.357	4582
3596.042	4565
3597.726	4533
3599.41	4505
3601.094	4559
3602.778	4582
3604.461	4537
3606.143	4532
3607.825	4662
3609.507	4501
3611.188	4511
3612.87	4523
3614.551	4573
3616.229	4516
3617.909	4603
3619.589	4512
3621.269	4476
3622.948	4467
3624.625	4516
3626.302	4490
3627.98	4434
3629.657	4456
3631.334	4465
3633.01	4484
3634.686	4497
3636.361	4464
3638.036	4514
3639.712	4475
3641.385	4545
3643.06	4467
3644.732	4451
3646.405	4490
3648.08	4452
3649.751	4437
3651.424	4347
3653.094	4488
3654.766	4472
3656.436	4470
3658.106	4467
3659.777	4412
3661.446	4466
3663.115	4382
3664.783	4435
3666.452	4539
3668.121	4387
3669.788	4485
3671.454	4445
3673.121	4479
3674.789	4401
3676.455	4479
3678.12	4435
3679.784	4409
3681.45	4345
3683.114	4349
3684.779	4497
3686.442	4407
3688.105	4389
3689.768	4461
3691.43	4379
3693.093	4434
3694.754	4450
3696.415	4368
3698.076	4413
3699.736	4532
3701.396	4381
3703.057	4492
3704.716	4353
3706.375	4352
3708.034	4337
3709.692	4457
3711.351	4368
3713.008	4424
3714.665	4420
3716.321	4349
3717.977	4329
3719.634	4309
3721.29	4442
3722.945	4433
3724.598	4364
3726.253	4323
3727.907	4385
3729.561	4354
3731.214	4363
3732.867	4358
3734.518	4344
3736.171	4385
3737.824	4422
3739.474	4442
3741.125	4338
3742.775	4324
3744.425	4342
3746.074	4487
3747.725	4277
3749.373	4432
3751.022	4399
3752.669	4360
3754.318	4358
3755.966	4396
3757.612	4324
3759.259	4403
3760.905	4377
3762.55	4365
3764.197	4351
3765.842	4333
3767.486	4339
3769.131	4328
3770.774	4440
3772.417	4250
3774.061	4363
3775.705	4336
3777.347	4293
3778.988	4267
3780.629	4353
3782.271	4340
3783.912	4325
3785.552	4387
3787.192	4308
3788.831	4271
3790.472	4348
3792.112	4248
3793.75	4362
3795.388	4299
3797.024	4359
3798.661	4244
3800.3	4297
3801.936	4240
3803.572	4332
3805.208	4265
3806.844	4256
3808.48	4255
3810.115	4371
3811.748	4332
3813.382	4332
3815.016	4263
3816.649	4374
3818.283	4432
3819.914	4219
3821.547	4276
3823.178	4324
3824.809	4227
3826.441	4209
3828.072	4263
3829.701	4330
3831.331	4253
3832.96	4211
3834.591	4246
3836.219	4326
3837.847	4328
3839.475	4307
3841.102	4194
3842.729	4293
3844.357	4241
3845.984	4235
3847.609	4192
3849.234	4268
3850.86	4288
3852.485	4208
3854.11	4356
3855.734	4297
3857.357	4296
3858.981	4219
3860.603	4234
3862.227	4258
3863.848	4190
3865.471	4228
3867.092	4221
3868.713	4264
3870.334	4297
3871.954	4250
3873.575	4335
3875.194	4241
3876.813	4203
3878.433	4164
3880.051	4216
3881.669	4292
3883.286	4262
3884.904	4229
3886.52	4180
3888.138	4197
3889.754	4252
3891.37	4274
3892.985	4241
3894.6	4262
3896.216	4215
3897.831	4226
3899.444	4182
3901.058	4281
3902.67	4221
3904.283	4270
3905.897	4250
3907.509	4174
3909.121	4263
3910.731	4188
3912.342	4238
3913.954	4308
3915.563	4225
3917.174	4200
3918.783	4285
3920.391	4243
3922.002	4261
3923.611	4258
3925.218	4299
3926.826	4237
3928.432	4314
3930.039	4169
3931.647	4180
3933.253	4201
3934.859	4133
3936.464	4218
3938.068	4185
3939.675	4238
3941.278	4225
3942.883	4294
3944.486	4211
3946.089	4235
3947.692	4190
3949.295	4208
3950.898	4188
3952.499	4289
3954.1	4224
3955.7	4244
3957.303	4186
3958.903	4187
3960.502	4239
3962.101	4225
3963.7	4299
3965.301	4265
3966.899	4187
3968.497	4188
3970.094	4202
3971.691	4276
3973.288	4191
3974.885	4141
3976.481	4102
3978.077	4135
3979.672	4214
3981.267	4172
3982.863	4225
3984.457	4304
3986.051	4168
3987.645	4183
3989.238	4257
3990.831	4162
3992.425	4159
3994.017	4177
3995.607	4177
3997.199	4150
3998.79	4116
4000.382	4091
4001.973	4221
4003.561	4190
4005.151	4086
4006.741	4180
4008.331	4133
4009.918	4067
4011.507	4138
4013.095	4076
4014.681	4090
4016.269	4149
4017.856	4123
4019.443	4072
4021.028	4093
4022.614	4048
4024.199	4163
4025.785	4125
4027.37	4076
4028.953	4103
4030.536	4193
4032.12	4162
4033.704	4090
4035.287	4038
4036.869	4090
4038.45	4064
4040.032	4044
4041.613	4043
4043.195	4115
4044.776	4165
4046.356	4105
4047.935	4010
4049.515	4050
4051.095	4035
4052.674	4082
4054.251	4010
4055.829	4022
4057.406	4021
4058.985	4071
4060.562	4087
4062.139	4076
4063.715	4119
4065.29	4080
4066.865	4168
4068.442	4106
4070.016	4031
4071.59	4097
4073.164	4106
4074.738	4110
4076.312	3980
4077.885	4106
4079.458	4060
4081.03	4132
4082.602	4052
4084.173	4102
4085.745	4084
4087.315	3969
4088.886	3967
4090.456	4005
4092.026	4050
4093.596	4074
4095.165	4070
4096.734	4056
4098.301	4038
4099.869	4151
4101.437	4044
4103.006	3967
4104.572	3930
4106.139	4066
4107.704	4032
4109.27	4082
4110.837	3952
4112.401	3979
4113.966	3988
4115.53	3991
4117.094	3996
4118.659	4102
4120.223	4083
4121.785	4014
4123.347	4078
4124.909	4084
4126.471	4107
4128.034	4005
4129.595	4004
4131.155	4028
4132.716	3946
4134.275	3982
4135.836	3929
4137.395	3957
4138.955	4001
4140.513	4020
4142.071	3995
4143.628	4041
4145.188	3986
4146.745	4047
4148.302	3995
4149.858	4008
4151.414	3920
4152.971	4054
4154.526	4065
4156.081	4019
4157.635	4004
4159.189	3988
4160.745	3942
4162.298	4039
4163.852	4003
4165.405	3992
4166.957	4041
4168.51	3916
4170.063	4001
4171.614	4070
4173.166	3947
4174.717	3916
4176.267	3921
4177.817	4009
4179.368	3950
4180.917	3900
4182.466	3888
4184.016	3940
4185.564	3894
4187.112	3902
4188.66	3934
4190.207	3869
4191.754	4041
4193.301	4035
4194.848	3886
4196.394	4002
4197.94	3951
4199.484	3923
4201.03	3910
4202.575	3919
4204.12	3942
4205.663	4042
4207.207	3942
4208.75	3990
4210.292	3965
4211.836	4038
4213.378	3969
4214.92	3887
4216.46	3983
4218.002	3898
4219.544	3929
4221.083	3962
4222.625	3860
4224.164	3945
4225.703	3999
4227.244	3849
4228.782	3926
4230.32	3862
4231.857	3910
4233.395	3956
4234.933	3899
4236.471	3929
4238.007	3854
4239.542	3859
4241.078	3934
4242.614	3879
4244.15	3897
4245.685	3970
4247.219	3898
4248.753	3851
4250.287	3842
4251.82	3868
4253.354	4030
4254.887	3852
4256.419	3845
4257.951	3957
4259.483	3943
4261.016	3967
4262.547	3912
4264.078	3912
4265.608	3855
4267.137	3984
4268.668	3920
4270.197	3863
4271.727	3955
4273.254	3917
4274.783	3904
4276.311	3969
4277.84	3876
4279.366	3934
4280.894	4014
4282.42	3860
4283.946	3941
4285.473	3931
4286.998	3938
4288.523	3873
4290.047	3868
4291.572	3881
4293.096	3853
4294.622	3889
4296.144	3890
4297.668	3867
4299.19	3995
4300.713	3932
4302.236	3967
4303.758	3884
4305.279	3919
4306.799	3950
4308.321	3938
4309.842	3904
4311.361	3930
4312.882	3815
4314.401	3872
