400.0961	6809
402.6185	6880
405.1424	6855
407.6635	6786
410.1838	7016
412.7035	6858
415.2225	6891
417.7388	6988
420.2585	6964
422.7754	7080
425.2917	6978
427.8072	7047
430.3221	7122
432.8363	7149
435.3498	7252
437.8626	7124
440.3727	7177
442.8841	7245
445.3969	7250
447.907	7393
450.4142	7156
452.9229	7315
455.4289	7257
457.9362	7184
460.4449	7284
462.9488	7229
465.454	7299
467.9566	7313
470.4604	7315
472.9637	7270
475.4662	7354
477.966	7255
480.4671	7376
482.9656	7528
485.4633	7523
487.9645	7440
490.4608	7485
492.9566	7344
495.4536	7380
497.948	7679
500.4437	7577
502.9387	7471
505.431	7519
507.9226	7523
510.4136	7584
512.9079	7606
515.3975	7690
517.8864	7569
520.3746	7702
522.8622	7665
525.3491	7577
527.8394	7729
530.3249	7759
532.8098	7718
535.2939	7602
537.7774	7617
540.2623	7770
542.7444	7694
545.2259	7606
547.7067	7779
550.1868	7584
552.6683	7702
555.147	7723
557.6231	7665
560.1005	7725
562.5773	7776
565.0534	7818
567.5308	7793
570.0056	7824
572.4776	7854
574.951	7972
577.4237	7987
579.8978	8050
582.3671	8023
584.8378	7879
587.3079	8043
589.7773	7919
592.244	7991
594.714	7956
597.1793	8015
599.6461	7984
602.1121	7867
604.5754	7895
607.0421	7998
609.5042	7885
611.9675	8053
614.4282	7970
616.8902	8120
619.3515	7969
621.8122	7970
624.2702	7920
626.7296	8005
629.1863	7815
631.6423	7847
634.1017	8025
636.5563	7932
639.0104	7942
641.4658	7956
643.9185	8094
646.3725	7929
648.8239	7990
651.2766	8118
653.7266	8089
656.176	8076
658.6247	8232
661.0748	8005
663.5242	8288
665.9709	8206
668.417	8255
670.8624	8235
673.3092	8230
675.7533	8285
678.1968	8256
680.6395	8274
683.0817	8268
685.5251	8436
687.9659	8251
690.4061	8327
692.8456	8210
695.2844	8353
697.7226	8297
700.1621	8385
702.599	8280
705.0332	8556
707.4688	8197
709.9036	8396
712.3399	8552
714.7735	8358
717.2044	8447
719.6367	8660
722.0683	8576
724.4993	8494
726.9296	8643
729.3593	8585
731.7883	8501
734.2147	8705
736.6423	8672
739.0714	8653
741.4958	8733
743.9216	8813
746.3447	8767
748.7691	8592
751.1929	8721
753.616	8743
756.0366	8915
758.4584	8885
760.8776	8818
763.2982	8796
765.718	8836
768.1373	8921
770.5539	8869
772.9698	9015
775.3871	8912
777.8038	8922
780.2178	8905
782.6332	9020
785.0459	8844
787.458	8946
789.8714	8932
792.2842	8904
794.6943	8951
797.1038	8971
799.5127	8862
801.9209	9028
804.3324	8901
806.7393	9009
809.1456	9096
811.5513	8934
813.9562	9038
816.3625	8930
818.7663	8966
821.1693	9095
823.5718	8966
825.9735	9158
828.3746	8963
830.7771	9145
833.177	9143
835.5762	9083
837.9747	9009
840.3727	9096
842.772	9000
845.1666	9181
847.5626	9215
849.958	9130
852.3527	9320
854.7488	9317
857.1403	9131
859.5331	9445
861.9253	9186
864.3168	9205
866.7057	9065
869.098	9242
871.4876	9182
873.8746	9168
876.263	9224
878.6487	9178
881.0378	9221
883.4243	9149
885.8081	9185
888.1933	9226
890.5759	9242
892.9598	9177
895.343	9430
897.7256	9158
900.1057	9099
902.4871	9185
904.8659	9206
907.246	9278
909.6254	9429
912.0023	9294
914.3786	9390
916.7562	9369
919.1331	9309
921.5074	9398
923.8831	9450
926.2562	9722
928.6287	9671
931.0005	9473
933.3757	9669
935.7462	9559
938.1162	9665
940.4855	9562
942.8542	9590
945.2242	9751
947.5916	9686
949.9584	9928
952.3266	10118
954.6921	10074
957.0571	10274
959.4233	10515
961.787	10635
964.15	10551
966.5125	10307
968.8742	10272
971.2354	10115
973.5959	9927
975.9559	9742
978.3151	9629
980.6738	9629
983.0338	9597
985.3912	9676
987.7461	9490
990.1022	9467
992.4578	9373
994.8127	9580
997.1689	9520
999.5207	9496
1001.874	9504
1004.226	9638
1006.576	9532
1008.929	9532
1011.28	9592
1013.628	9485
1015.977	9602
1018.324	9484
1020.674	9519
1023.019	9490
1025.366	9621
1027.713	9594
1030.056	9535
1032.399	9435
1034.746	9692
1037.087	9641
1039.431	9624
1041.771	9742
1044.113	9680
1046.454	9675
1048.793	9736
1051.133	9743
1053.471	9568
1055.807	9761
1058.146	9478
1060.483	9683
1062.818	9546
1065.153	9847
1067.489	9604
1069.822	9770
1072.156	9823
1074.488	9632
1076.82	9964
1079.15	9804
1081.48	9692
1083.814	9788
1086.143	9696
1088.471	9806
1090.799	9682
1093.126	9645
1095.452	9677
1097.78	9785
1100.105	9716
1102.43	9705
1104.754	9650
1107.077	9789
1109.4	9735
1111.722	9871
1114.044	9641
1116.365	9837
1118.685	9814
1121.005	9734
1123.324	9905
1125.643	9851
1127.961	9767
1130.278	9936
1132.595	9943
1134.911	9842
1137.226	9897
1139.541	9840
1141.854	9903
1144.167	9855
1146.482	9873
1148.793	9829
1151.105	10002
1153.414	9902
1155.725	9882
1158.033	9797
1160.344	9957
1162.651	9806
1164.959	9769
1167.265	9787
1169.572	9906
1171.878	9752
1174.184	9863
1176.488	9880
1178.79	9863
1181.094	9952
1183.396	9971
1185.699	9805
1188.001	9824
1190.301	9727
1192.6	9929
1194.9	9826
1197.2	9751
1199.497	9824
1201.794	9820
1204.09	9779
1206.387	9730
1208.684	9891
1210.978	9879
1213.272	9859
1215.565	9698
1217.858	9931
1220.15	9988
1222.443	9847
1224.734	9902
1227.024	9952
1229.313	10080
1231.602	10090
1233.892	10059
1236.18	10182
1238.467	10118
1240.754	10107
1243.04	10196
1245.325	10232
1247.612	9979
1249.896	10236
1252.178	10133
1254.461	10173
1256.743	10110
1259.027	10194
1261.308	10137
1263.587	10058
1265.867	10141
1268.146	10173
1270.425	10257
1272.703	10110
1274.981	10219
1277.256	10093
1279.532	10125
1281.808	10191
1284.083	10187
1286.358	10059
1288.63	10175
1290.904	10077
1293.175	10102
1295.449	10144
1297.719	10164
1299.99	9923
1302.259	10165
1304.529	10100
1306.798	10038
1309.065	9981
1311.333	10104
1313.599	10151
1315.866	10114
1318.131	9997
1320.396	10106
1322.66	10106
1324.925	10164
1327.187	9955
1329.448	10184
1331.711	10228
1333.974	10189
1336.234	10042
1338.493	10224
1340.752	10165
1343.01	10186
1345.269	10079
1347.526	10007
1349.784	10160
1352.04	10076
1354.295	10100
1356.552	10233
1358.806	10126
1361.059	10039
1363.312	10119
1365.564	10033
1367.818	10174
1370.069	10090
1372.318	10212
1374.568	10081
1376.817	10172
1379.066	10188
1381.316	10230
1383.564	10134
1385.809	10163
1388.056	10180
1390.301	10316
1392.549	10118
1394.793	10363
1397.036	10429
1399.279	10438
1401.522	10439
1403.763	10465
1406.007	10412
1408.248	10353
1410.487	10362
1412.727	10374
1414.965	10509
1417.205	10494
1419.442	10414
1421.68	10530
1423.915	10476
1426.152	10310
1428.388	10355
1430.623	10300
1432.857	10538
1435.091	10409
1437.323	10423
1439.556	10454
1441.789	10510
1444.019	10479
1446.25	10478
1448.48	10354
1450.708	10511
1452.938	10656
1455.167	10438
1457.394	10465
1459.62	10569
1461.846	10482
1464.073	10482
1466.299	10502
1468.523	10442
1470.746	10406
1472.969	10273
1475.191	10224
1477.415	10343
1479.636	10354
1481.858	10278
1484.078	10237
1486.298	10220
1488.518	10318
1490.736	10173
1492.954	10168
1495.169	10069
1497.386	10164
1499.602	10117
1501.819	10232
1504.034	10112
1506.248	10136
1508.462	10130
1510.675	10077
1512.888	10208
1515.1	10174
1517.311	10207
1519.522	10242
1521.732	10179
1523.942	10068
1526.151	10305
1528.36	10064
1530.566	10086
1532.773	10153
1534.98	10155
1537.187	10107
1539.392	10097
1541.596	10236
1543.801	10156
1546.005	10282
1548.208	10099
1550.411	10310
1552.612	10248
1554.814	10358
1557.013	10149
1559.212	10177
1561.414	10314
1563.612	10439
1565.811	10377
1568.007	10409
1570.203	10372
1572.403	10270
1574.598	10429
1576.792	10135
1578.988	10527
1581.181	10393
1583.376	10459
1585.568	10475
1587.761	10344
1589.952	10322
1592.143	10388
1594.333	10413
1596.524	10522
1598.715	10440
1600.903	10537
1603.091	10527
1605.278	10467
1607.466	10436
1609.652	10605
1611.838	10609
1614.023	10514
1616.207	10476
1618.391	10571
1620.576	10489
1622.759	10439
1624.941	10324
1627.123	10455
1629.304	10534
1631.484	10538
1633.664	10635
1635.844	10439
1638.022	10521
1640.201	10567
1642.38	10556
1644.556	10611
1646.732	10454
1648.908	10448
1651.084	10514
1653.257	10437
1655.433	10513
1657.607	10554
1659.779	10596
1661.951	10534
1664.122	10557
1666.295	10646
1668.467	10664
1670.635	10516
1672.805	10724
1674.973	10605
1677.142	10752
1679.31	10627
1681.478	10518
1683.644	10500
1685.81	10627
1687.975	10490
1690.142	10431
1692.305	10577
1694.468	10581
1696.632	10520
1698.794	10358
1700.957	10569
1703.119	10460
1705.279	10433
1707.439	10398
1709.598	10543
1711.758	10346
1713.917	10384
1716.075	10536
1718.231	10489
1720.388	10511
1722.543	10402
1724.702	10441
1726.856	10533
1729.01	10484
1731.164	10314
1733.317	10522
1735.471	10430
1737.623	10461
1739.774	10555
1741.925	10548
1744.075	10556
1746.225	10469
1748.376	10609
1750.524	10469
1752.672	10524
1754.82	10379
1756.965	10439
1759.113	10488
1761.259	10319
1763.405	10530
1765.549	10513
1767.694	10512
1769.836	10450
1771.981	10504
1774.123	10387
1776.264	10542
1778.405	10484
1780.546	10584
1782.687	10526
1784.827	10466
1786.966	10454
1789.103	10420
1791.242	10645
1793.381	10524
1795.517	10552
1797.653	10504
1799.788	10489
1801.923	10444
1804.057	10661
1806.193	10534
1808.326	10544
1810.457	10483
1812.59	10413
1814.721	10729
1816.855	10529
1818.984	10403
1821.113	10516
1823.244	10418
1825.372	10713
1827.499	10491
1829.63	10591
1831.756	10471
1833.882	10564
1836.007	10421
1838.132	10543
1840.26	10533
1842.384	10447
1844.507	10516
1846.63	10442
1848.752	10345
1850.875	10393
1852.996	10588
1855.118	10337
1857.238	10364
1859.358	10310
1861.477	10367
1863.597	10391
1865.715	10332
1867.832	10311
1869.948	10367
1872.064	10354
1874.181	10524
1876.297	10233
1878.411	10317
1880.526	10429
1882.639	10411
1884.752	10322
1886.865	10466
1888.977	10379
1891.089	10445
1893.2	10462
1895.308	10390
1897.42	10444
1899.53	10608
1901.639	10455
1903.745	10525
1905.853	10524
1907.962	10417
1910.067	10472
1912.174	10551
1914.278	10418
1916.383	10450
1918.486	10573
1920.592	10579
1922.694	10508
1924.797	10425
1926.898	10332
1929	10605
1931.102	10610
1933.203	10552
1935.301	10684
1937.401	10407
1939.499	10527
1941.598	10533
1943.697	10565
1945.793	10504
1947.888	10574
1949.985	10650
1952.08	10606
1954.176	10540
1956.269	10504
1958.364	10373
1960.457	10619
1962.549	10546
1964.642	10590
1966.733	10435
1968.823	10524
1970.913	10411
1973.005	10406
1975.093	10455
1977.184	10500
1979.271	10403
1981.359	10403
1983.446	10439
1985.532	10436
1987.619	10436
1989.705	10532
1991.789	10369
1993.874	10326
1995.956	10422
1998.041	10324
2000.123	10459
2002.206	10448
2004.287	10434
2006.368	10346
2008.449	10405
2010.529	10303
2012.609	10396
2014.688	10525
2016.766	10347
2018.843	10399
2020.922	10354
2022.999	10401
2025.074	10387
2027.15	10342
2029.225	10327
2031.299	10340
2033.375	10423
2035.447	10416
2037.52	10368
2039.592	10333
2041.664	10524
2043.736	10402
2045.807	10340
2047.876	10381
2049.947	10227
2052.015	10493
2054.086	10542
2056.153	10379
2058.221	10440
2060.288	10362
2062.353	10326
2064.42	10433
2066.486	10410
2068.55	10497
2070.614	10378
2072.678	10365
2074.741	10429
2076.805	10316
2078.866	10439
2080.929	10181
2082.99	10332
2085.049	10332
2087.109	10398
2089.17	10302
2091.228	10210
2093.286	10246
2095.344	10262
2097.4	10343
2099.46	10360
2101.516	10350
2103.572	10293
2105.626	10452
2107.679	10331
2109.735	10384
2111.788	10311
2113.841	10464
2115.894	10389
2117.945	10372
2119.997	10329
2122.049	10294
2124.1	10362
2126.148	10423
2128.197	10357
2130.246	10367
2132.296	10291
2134.342	10268
2136.39	10363
2138.437	10302
2140.483	10398
2142.527	10387
2144.574	10290
2146.619	10261
2148.661	10437
2150.705	10290
2152.747	10219
2154.792	10387
2156.832	10320
2158.874	10273
2160.915	10204
2162.954	10296
2164.995	10281
2167.034	10212
2169.072	10252
2171.111	10260
2173.148	10091
2175.186	10158
2177.223	10118
2179.258	10243
2181.294	10342
2183.328	10204
2185.362	10200
2187.398	9912
2189.431	10096
2191.463	10169
2193.495	10032
2195.528	9982
2197.56	10054
2199.59	10267
2201.62	10042
2203.649	9954
2205.678	10179
2207.708	10008
2209.737	10098
2211.764	10130
2213.791	10036
2215.817	10041
2217.843	10060
2219.87	10005
2221.895	9949
2223.919	9926
2225.942	9971
2227.966	10039
2229.988	9874
2232.012	9952
2234.032	10125
2236.054	10057
2238.074	9941
2240.095	10128
2242.116	9981
2244.135	9967
2246.153	10030
2248.171	9990
2250.188	10135
2252.208	10018
2254.223	10043
2256.239	10039
2258.255	10120
2260.269	10021
2262.283	10036
2264.3	9900
2266.312	9955
2268.325	9945
2270.336	10063
2272.349	10079
2274.362	10061
2276.372	9864
2278.383	10043
2280.392	9988
2282.402	9890
2284.409	9956
2286.418	9962
2288.427	10033
2290.433	10045
2292.441	9936
2294.446	10054
2296.453	9747
2298.459	9916
2300.463	9953
2302.466	9927
2304.471	9910
2306.475	9958
2308.477	9892
2310.478	9838
2312.481	9975
2314.481	9877
2316.481	9869
2318.482	9779
2320.482	9947
2322.48	9927
2324.48	9791
2326.478	9818
2328.476	9893
2330.473	9811
2332.469	9770
2334.465	9951
2336.46	9881
2338.454	9694
2340.45	9711
2342.444	9769
2344.437	9813
2346.43	9752
2348.421	9674
2350.414	9752
2352.405	9882
2354.396	9834
2356.386	9564
2358.376	9687
2360.366	9867
2362.355	9579
2364.343	9727
2366.331	9686
2368.317	9605
2370.304	9798
2372.292	9729
2374.278	9689
2376.262	9647
2378.247	9800
2380.23	9594
2382.216	9558
2384.199	9482
2386.181	9596
2388.163	9595
2390.144	9627
2392.127	9674
2394.107	9669
2396.087	9618
2398.066	9536
2400.046	9715
2402.023	9436
2404.004	9615
2405.981	9497
2407.957	9581
2409.934	9490
2411.91	9595
2413.886	9610
2415.862	9469
2417.836	9576
2419.809	9481
2421.784	9602
2423.756	9431
2425.73	9388
2427.701	9561
2429.672	9555
2431.644	9556
2433.615	9421
2435.586	9490
2437.555	9486
2439.523	9687
2441.491	9421
2443.459	9616
2445.428	9490
2447.395	9483
2449.361	9520
2451.327	9345
2453.292	9467
2455.257	9505
2457.223	9435
2459.187	9545
2461.15	9519
2463.113	9476
2465.076	9458
2467.039	9325
2468.999	9453
2470.96	9323
2472.921	9387
2474.881	9472
2476.841	9458
2478.8	9272
2480.759	9481
2482.717	9337
2484.675	9302
2486.63	9217
2488.589	9270
2490.545	9373
2492.5	9333
2494.455	9328
2496.408	9359
2498.364	9333
2500.318	9363
2502.27	9345
2504.223	9325
2506.174	9484
2508.126	9340
2510.078	9243
2512.03	9267
2513.979	9453
2515.927	9194
2517.877	9302
2519.826	9345
2521.775	9293
2523.722	9251
2525.668	9306
2527.616	9285
2529.561	9211
2531.508	9336
2533.452	9272
2535.398	9266
2537.342	9236
2539.284	9120
2541.229	9177
2543.173	9167
2545.114	9226
2547.055	9238
2548.996	9105
2550.938	9126
2552.878	9375
2554.817	9239
2556.756	9283
2558.695	9190
2560.633	9178
2562.572	9194
2564.509	9282
2566.445	9260
2568.382	9131
2570.317	9261
2572.254	9256
2574.189	9307
2576.123	9243
2578.057	9196
2579.99	9157
2581.923	9113
2583.855	9323
2585.788	9196
2587.719	9072
2589.65	9121
2591.579	9195
2593.511	9142
2595.44	9215
2597.37	9125
2599.297	9194
2601.225	9316
2603.153	9250
2605.08	9164
2607.007	9231
2608.932	9256
2610.858	9211
2612.782	9165
2614.709	9192
2616.632	8975
2618.556	9332
2620.478	9287
2622.401	9298
2624.324	9161
2626.247	9125
2628.167	9186
2630.088	9258
2632.008	9051
2633.928	9263
2635.848	9197
2637.766	9131
2639.684	9239
2641.603	9289
2643.519	9097
2645.437	9269
2647.353	9164
2649.27	9111
2651.184	9096
2653.099	9129
2655.014	9097
2656.928	9048
2658.842	9124
2660.755	9145
2662.667	9137
2664.579	9134
2666.491	9113
2668.402	9236
2670.312	9108
2672.222	9010
2674.132	9093
2676.042	9183
2677.951	9115
2679.859	9135
2681.766	9007
2683.674	8946
2685.582	9132
2687.488	8941
2689.392	9239
2691.298	9017
2693.202	8973
2695.107	8883
2697.012	9015
2698.914	8962
2700.817	8899
2702.72	8903
2704.622	9039
2706.524	9005
2708.425	8970
2710.326	8940
2712.225	8954
2714.125	8917
2716.024	8917
2717.923	8912
2719.822	8953
2721.719	8915
2723.616	8898
2725.512	9011
2727.41	8994
2729.305	8853
2731.201	8941
2733.095	9043
2734.99	8902
2736.884	8963
2738.778	8849
2740.67	8869
2742.562	8824
2744.455	9026
2746.346	8757
2748.238	8897
2750.129	8894
2752.018	8927
2753.907	8901
2755.797	8826
2757.687	8757
2759.575	8816
2761.462	8749
2763.349	8744
2765.237	8802
2767.124	8780
2769.009	8686
2770.894	8683
2772.779	8824
2774.663	8777
2776.547	8775
2778.431	8878
2780.314	8662
2782.197	8801
2784.078	8777
2785.96	8726
2787.842	8845
2789.723	8736
2791.603	8669
2793.483	8634
2795.362	8806
2797.241	8763
2799.121	8687
2800.997	8744
2802.874	8797
2804.751	8688
2806.628	8815
2808.506	8702
2810.38	8708
2812.255	8680
2814.13	8731
2816.003	8605
2817.878	8632
2819.752	8586
2821.623	8691
2823.496	8595
2825.368	8627
2827.238	8630
2829.111	8689
2830.98	8602
2832.851	8716
2834.719	8682
2836.589	8582
2838.458	8654
2840.327	8598
2842.193	8736
2844.061	8722
2845.927	8575
2847.794	8711
2849.66	8694
2851.525	8708
2853.39	8656
2855.254	8640
2857.117	8680
2858.983	8716
2860.845	8786
2862.707	8718
2864.569	8823
2866.431	8743
2868.293	8797
2870.154	8790
2872.013	8938
2873.873	8750
2875.733	8930
2877.592	8842
2879.451	8961
2881.309	8893
2883.166	9068
2885.022	9199
2886.879	9179
2888.736	8977
2890.591	9076
2892.446	9054
2894.301	9195
2896.155	9137
2898.009	9265
2899.863	9020
2901.716	9102
2903.568	9221
2905.419	9077
2907.27	9047
2909.123	9064
2910.973	9001
2912.824	9082
2914.673	9044
2916.521	9157
2918.372	9188
2920.22	9218
2922.067	9102
2923.914	9263
2925.761	9284
2927.607	9304
2929.455	9310
2931.301	9295
2933.144	9285
2934.99	9433
2936.833	9425
2938.678	9509
2940.522	9480
2942.364	9548
2944.207	9681
2946.048	9749
2947.891	9707
2949.731	9776
2951.571	9920
2953.412	9655
2955.25	9532
2957.09	9569
2958.93	9491
2960.767	9590
2962.606	9469
2964.443	9480
2966.279	9256
2968.116	9092
2969.953	9139
2971.788	9224
2973.623	9131
2975.457	9050
2977.292	9074
2979.127	8965
2980.959	8946
2982.792	8823
2984.624	8905
2986.455	8927
2988.288	8747
2990.119	8798
2991.949	8732
2993.779	8644
2995.608	8572
2997.439	8644
2999.268	8624
3001.096	8541
3002.923	8579
3004.751	8442
3006.578	8350
3008.406	8466
3010.232	8549
3012.057	8395
3013.883	8359
3015.706	8329
3017.532	8143
3019.356	8223
3021.179	8286
3023.002	8121
3024.823	8199
3026.646	8171
3028.469	8201
3030.289	8258
3032.11	8221
3033.93	8152
3035.749	8158
3037.57	8025
3039.39	8155
3041.207	8033
3043.026	8129
3044.842	8016
3046.661	8074
3048.477	7924
3050.294	7986
3052.109	8060
3053.925	8041
3055.739	7935
3057.555	7984
3059.368	7963
3061.181	8071
3062.995	7911
3064.807	8045
3066.62	7915
3068.433	7958
3070.243	7935
3072.054	7911
3073.865	7950
3075.675	8040
3077.485	7926
3079.293	7958
3081.102	7900
3082.911	7886
3084.719	7847
3086.527	7984
3088.333	7844
3090.139	7869
3091.945	7723
3093.75	7737
3095.557	7823
3097.361	7843
3099.165	7786
3100.969	7614
3102.772	7595
3104.575	7699
3106.379	7694
3108.181	7789
3109.982	7692
3111.783	7621
3113.584	7887
3115.386	7602
3117.186	7645
3118.985	7637
3120.783	7559
3122.582	7570
3124.381	7684
3126.179	7593
3127.975	7696
3129.772	7522
3131.569	7626
3133.365	7592
3135.161	7617
3136.956	7631
3138.751	7617
3140.544	7561
3142.338	7688
3144.132	7470
3145.925	7497
3147.717	7657
3149.509	7532
3151.301	7499
3153.091	7430
3154.884	7599
3156.673	7491
3158.462	7497
3160.252	7491
3162.041	7563
3163.831	7512
3165.618	7401
3167.405	7549
3169.193	7301
3170.979	7389
3172.767	7338
3174.553	7343
3176.338	7424
3178.123	7480
3179.907	7342
3181.692	7390
3183.477	7416
3185.259	7550
3187.042	7397
3188.824	7377
3190.607	7380
3192.389	7314
3194.17	7379
3195.951	7321
3197.73	7330
3199.51	7341
3201.289	7354
3203.07	7329
3204.848	7322
3206.626	7256
3208.403	7389
3210.18	7215
3211.959	7290
3213.735	7360
3215.511	7240
3217.285	7376
3219.06	7380
3220.836	7225
3222.611	7318
3224.384	7253
3226.158	7251
3227.929	7289
3229.702	7130
3231.476	7330
3233.248	7291
3235.018	7219
3236.789	7176
3238.56	7185
3240.33	7211
3242.1	7278
3243.869	7290
3245.637	7227
3247.405	7310
3249.172	7372
3250.941	7318
3252.707	7118
3254.474	7179
3256.24	7335
3258.006	7145
3259.772	7352
3261.537	7183
3263.301	7311
3265.065	7258
3266.828	7241
3268.592	7204
3270.355	7234
3272.117	7269
3273.878	7189
3275.64	7199
3277.401	7243
3279.162	7306
3280.922	7127
3282.682	7221
3284.441	7258
3286.199	7114
3287.959	7125
3289.716	7025
3291.475	7045
3293.232	7197
3294.988	7210
3296.744	7172
3298.501	7261
3300.256	7243
3302.011	6990
3303.766	7140
3305.52	7135
3307.275	7153
3309.028	7062
3310.781	7145
3312.533	7137
3314.285	7215
3316.038	7096
3317.789	7127
3319.54	7063
3321.289	7101
3323.039	7113
3324.789	7108
3326.539	7121
3328.288	7101
3330.035	7129
3331.783	6962
3333.531	7008
3335.28	7085
3337.025	6994
3338.771	7023
3340.518	7001
3342.262	6992
3344.009	7059
3345.753	7009
3347.497	6919
3349.24	6908
3350.983	6947
3352.726	7022
3354.469	7101
3356.212	6981
3357.952	6968
3359.694	6899
3361.434	6946
3363.176	7066
3364.916	7017
3366.654	6780
3368.394	6975
3370.132	7044
3371.871	6917
3373.61	6978
3375.346	6849
3377.083	7002
3378.82	6928
3380.556	6976
3382.292	6873
3384.027	6839
3385.763	6795
3387.497	6820
3389.231	6856
3390.965	6944
3392.698	6886
3394.431	6882
3396.164	6817
3397.896	6812
3399.627	6747
3401.36	6773
3403.09	6671
3404.82	6879
3406.55	6705
3408.279	6639
3410.01	6789
3411.738	6679
3413.467	6647
3415.194	6693
3416.92	6851
3418.647	6766
3420.375	6728
3422.102	6686
3423.827	6757
3425.553	6744
3427.277	6736
3429.003	6683
3430.727	6710
3432.451	6694
3434.173	6737
3435.896	6805
3437.62	6697
3439.343	6655
3441.063	6725
3442.785	6674
3444.505	6577
3446.226	6680
3447.948	6571
3449.666	6508
3451.386	6582
3453.104	6520
3454.823	6667
3456.541	6510
3458.259	6496
3459.976	6400
3461.693	6594
3463.408	6507
3465.125	6574
3466.841	6448
3468.556	6592
3470.271	6565
3471.985	6447
3473.698	6526
3475.414	6486
3477.126	6405
3478.838	6448
3480.55	6446
3482.263	6466
3483.975	6463
3485.686	6425
3487.396	6381
3489.106	6461
3490.817	6333
3492.526	6428
3494.236	6314
3495.944	6306
3497.652	6422
3499.359	6333
3501.066	6386
3502.775	6444
3504.481	6351
3506.187	6287
3507.893	6410
3509.598	6233
3511.304	6361
3513.009	6325
3514.713	6333
3516.417	6260
3518.12	6294
3519.821	6219
3521.525	6189
3523.228	6212
3524.929	6264
3526.631	6207
3528.33	6257
3530.032	6165
3531.733	6189
3533.433	6199
3535.131	6125
3536.83	6148
3538.529	6284
3540.227	6199
3541.925	6165
3543.623	6189
3545.319	6178
3547.016	6123
3548.712	6142
3550.408	6123
3552.103	6167
3553.798	6219
3555.491	6092
3557.188	6112
3558.88	6106
3560.574	6091
3562.266	6136
3563.959	6008
3565.651	6072
3567.343	6146
3569.035	6047
3570.725	6115
3572.415	6044
3574.106	6101
3575.797	6041
3577.485	6098
3579.174	6100
3580.863	6089
3582.551	6045
3584.238	6010
3585.926	6014
3587.613	6038
3589.3	5986
3590.986	5951
3592.671	5914
3594.357	6020
3596.042	5965
3597.726	5954
3599.41	6077
3601.094	5915
3602.778	5938
3604.461	5859
3606.143	5900
3607.825	5971
3609.507	5838
3611.188	5934
3612.87	5766
3614.551	5876
3616.229	5763
3617.909	5820
3619.589	5897
3621.269	5761
3622.948	5745
3624.625	5849
3626.302	5941
3627.98	5682
3629.657	5810
3631.334	5825
3633.01	5691
3634.686	5748
3636.361	5621
3638.036	5682
3639.712	5690
3641.385	5808
3643.06	5704
3644.732	5654
3646.405	5709
3648.08	5713
3649.751	5662
3651.424	5684
3653.094	5627
3654.766	5750
3656.436	5609
3658.106	5687
3659.777	5786
3661.446	5638
3663.115	5701
3664.783	5637
3666.452	5708
3668.121	5603
3669.788	5630
3671.454	5664
3673.121	5594
3674.789	5515
3676.455	5508
3678.12	5580
3679.784	5557
3681.45	5549
3683.114	5587
3684.779	5532
3686.442	5600
3688.105	5480
3689.768	5609
3691.43	5545
3693.093	5532
3694.754	5590
3696.415	5447
3698.076	5504
3699.736	5633
3701.396	5553
3703.057	5517
3704.716	5496
3706.375	5528
3708.034	5467
3709.692	5507
3711.351	5476
3713.008	5455
3714.665	5514
3716.321	5507
3717.977	5433
3719.634	5596
3721.29	5508
3722.945	5523
3724.598	5534
3726.253	5462
3727.907	5532
3729.561	5480
3731.214	5431
3732.867	5479
3734.518	5440
3736.171	5476
3737.824	5371
3739.474	5358
3741.125	5406
3742.775	5447
3744.425	5429
3746.074	5383
3747.725	5323
3749.373	5460
3751.022	5357
3752.669	5366
3754.318	5439
3755.966	5266
3757.612	5337
3759.259	5470
3760.905	5338
3762.55	5318
3764.197	5357
3765.842	5294
3767.486	5273
3769.131	5362
3770.774	5271
3772.417	5304
3774.061	5345
3775.705	5161
3777.347	5273
3778.988	5218
3780.629	5293
3782.271	5172
3783.912	5147
3785.552	5278
3787.192	5264
3788.831	5249
3790.472	5173
3792.112	5277
3793.75	5167
3795.388	5181
3797.024	5233
3798.661	5238
3800.3	5138
3801.936	5153
3803.572	5219
3805.208	5106
3806.844	5227
3808.48	5186
3810.115	5126
3811.748	5179
3813.382	5150
3815.016	5039
3816.649	5167
3818.283	5101
3819.914	5136
3821.547	5074
3823.178	5187
3824.809	5108
3826.441	5130
3828.072	4983
3829.701	5096
3831.331	5088
3832.96	5077
3834.591	4978
3836.219	5253
3837.847	4981
3839.475	4979
3841.102	4954
3842.729	5041
3844.357	5071
3845.984	5072
3847.609	5020
3849.234	5010
3850.86	5059
3852.485	4945
3854.11	5030
3855.734	4985
3857.357	5075
3858.981	4998
3860.603	4904
3862.227	4953
3863.848	4976
3865.471	4968
3867.092	5022
3868.713	4973
3870.334	4999
3871.954	5001
3873.575	4883
3875.194	4998
3876.813	4970
3878.433	4890
3880.051	4921
3881.669	4913
3883.286	4896
3884.904	4925
3886.52	4892
3888.138	4866
3889.754	4909
3891.37	4843
3892.985	4892
3894.6	4871
3896.216	4810
3897.831	4910
3899.444	4796
3901.058	4970
3902.67	4930
3904.283	4925
3905.897	4915
3907.509	4850
3909.121	4893
3910.731	4851
3912.342	4883
3913.954	4905
3915.563	4891
3917.174	4794
3918.783	4786
3920.391	4845
3922.002	4783
3923.611	4852
3925.218	4845
3926.826	4773
3928.432	4811
3930.039	4780
3931.647	4851
3933.253	4838
3934.859	4735
3936.464	4778
3938.068	4762
3939.675	4784
3941.278	4793
3942.883	4751
3944.486	4651
3946.089	4800
3947.692	4795
3949.295	4778
3950.898	4711
3952.499	4721
3954.1	4800
3955.7	4722
3957.303	4767
3958.903	4699
3960.502	4719
3962.101	4692
3963.7	4658
3965.301	4744
3966.899	4733
3968.497	4675
3970.094	4595
3971.691	4624
3973.288	4634
3974.885	4599
3976.481	4735
3978.077	4635
3979.672	4609
3981.267	4669
3982.863	4601
3984.457	4666
3986.051	4596
3987.645	4537
3989.238	4591
3990.831	4674
3992.425	4563
3994.017	4655
3995.607	4484
3997.199	4560
3998.79	4466
4000.382	4535
4001.973	4603
4003.561	4545
4005.151	4504
4006.741	4457
4008.331	4467
4009.918	4516
4011.507	4540
4013.095	4523
4014.681	4514
4016.269	4526
4017.856	4373
4019.443	4595
4021.028	4477
4022.614	4562
4024.199	4447
4025.785	4497
4027.37	4410
4028.953	4403
4030.536	4366
4032.12	4442
4033.704	4376
4035.287	4447
4036.869	4456
4038.45	4333
4040.032	4475
4041.613	4437
4043.195	4414
4044.776	4354
4046.356	4353
4047.935	4417
4049.515	4400
4051.095	4288
4052.674	4362
4054.251	4313
4055.829	4255
4057.406	4413
4058.985	4380
4060.562	4344
4062.139	4356
4063.715	4297
4065.29	4366
4066.865	4291
4068.442	4321
4070.016	4352
4071.59	4385
4073.164	4265
4074.738	4314
4076.312	4273
4077.885	4175
4079.458	4331
4081.03	4239
4082.602	4253
4084.173	4237
4085.745	4277
4087.315	4286
4088.886	4324
4090.456	4206
4092.026	4170
4093.596	4193
4095.165	4210
4096.734	4265
4098.301	4162
4099.869	4231
4101.437	4204
4103.006	4267
4104.572	4131
4106.139	4228
4107.704	4178
4109.27	4300
4110.837	4165
4112.401	4199
4113.966	4141
4115.53	4153
4117.094	4151
4118.659	4220
4120.223	4193
4121.785	4168
4123.347	4105
4124.909	4169
4126.471	4169
4128.034	4068
4129.595	4138
4131.155	4064
4132.716	4159
4134.275	4123
4135.836	4101
4137.395	4133
4138.955	4118
4140.513	4118
4142.071	4036
4143.628	3995
4145.188	4033
4146.745	4073
4148.302	3944
4149.858	4048
4151.414	4074
4152.971	4080
4154.526	4073
4156.081	4021
4157.635	3936
4159.189	4004
4160.745	4089
4162.298	4014
4163.852	3941
4165.405	3970
4166.957	3988
4168.51	3969
4170.063	3990
4171.614	3927
4173.166	4020
4174.717	3932
4176.267	3952
4177.817	4025
4179.368	3923
4180.917	3980
4182.466	3898
4184.016	3899
4185.564	3980
4187.112	3999
4188.66	3903
4190.207	4020
4191.754	3862
4193.301	3915
4194.848	3923
4196.394	3927
4197.94	3867
4199.484	3962
4201.03	3895
4202.575	3898
4204.12	3954
4205.663	3901
4207.207	3835
4208.75	3914
4210.292	3761
4211.836	3842
4213.378	3849
4214.92	3836
4216.46	3863
4218.002	3931
4219.544	3774
4221.083	3751
4222.625	3766
4224.164	3874
4225.703	3776
4227.244	3785
4228.782	3866
4230.32	3821
4231.857	3766
4233.395	3767
4234.933	3836
4236.471	3808
4238.007	3848
4239.542	3817
4241.078	3698
4242.614	3827
4244.15	3842
4245.685	3727
4247.219	3810
4248.753	3764
4250.287	3771
4251.82	3753
4253.354	3698
4254.887	3716
4256.419	3763
4257.951	3783
4259.483	3711
4261.016	3703
4262.547	3741
4264.078	3767
4265.608	3767
4267.137	3727
4268.668	3726
4270.197	3654
4271.727	3664
4273.254	3703
4274.783	3668
4276.311	3683
4277.84	3646
4279.366	3678
4280.894	3684
4282.42	3702
4283.946	3718
4285.473	3644
4286.998	3660
4288.523	3695
4290.047	3684
4291.572	3660
4293.096	3658
4294.622	3677
4296.144	3652
4297.668	3596
4299.19	3680
4300.713	3632
4302.236	3683
4303.758	3615
4305.279	3596
4306.799	3605
4308.321	3619
4309.842	3565
4311.361	3585
4312.882	3578
4314.401	3622
