400.0961	4971
402.6185	5086
405.1424	4999
407.6635	5009
410.1838	5056
412.7035	5079
415.2225	5135
417.7388	5117
420.2585	5116
422.7754	5228
425.2917	5229
427.8072	5382
430.3221	5371
432.8363	5346
435.3498	5335
437.8626	5334
440.3727	5362
442.8841	5436
445.3969	5376
447.907	5360
450.4142	5332
452.9229	5407
455.4289	5412
457.9362	5281
460.4449	5335
462.9488	5298
465.454	5383
467.9566	5249
470.4604	5333
472.9637	5380
475.4662	5355
477.966	5358
480.4671	5363
482.9656	5381
485.4633	5378
487.9645	5434
490.4608	5394
492.9566	5425
495.4536	5418
497.948	5420
500.4437	5389
502.9387	5466
505.431	5498
507.9226	5450
510.4136	5606
512.9079	5452
515.3975	5542
517.8864	5408
520.3746	5469
522.8622	5639
525.3491	5558
527.8394	5511
530.3249	5612
532.8098	5505
535.2939	5639
537.7774	5535
540.2623	5587
542.7444	5607
545.2259	5574
547.7067	5563
550.1868	5642
552.6683	5590
555.147	5701
557.6231	5626
560.1005	5500
562.5773	5608
565.0534	5728
567.5308	5706
570.0056	5621
572.4776	5815
574.951	5678
577.4237	5816
579.8978	5858
582.3671	5896
584.8378	5860
587.3079	5899
589.7773	5891
592.244	5858
594.714	5787
597.1793	5892
599.6461	5693
602.1121	5759
604.5754	5768
607.0421	5802
609.5042	5801
611.9675	5813
614.4282	5825
616.8902	5878
619.3515	5869
621.8122	5824
624.2702	5825
626.7296	5670
629.1863	5692
631.6423	5768
634.1017	5873
636.5563	5779
639.0104	5749
641.4658	5719
643.9185	5729
646.3725	5732
648.8239	5838
651.2766	5889
653.7266	5825
656.176	5881
658.6247	5897
661.0748	5929
663.5242	5873
665.9709	5911
668.417	5907
670.8624	5951
673.3092	5885
675.7533	5883
678.1968	5880
680.6395	5931
683.0817	5865
685.5251	6018
687.9659	5869
690.4061	6062
692.8456	6052
695.2844	5943
697.7226	6099
700.1621	5974
702.599	6095
705.0332	6002
707.4688	6136
709.9036	6004
712.3399	6178
714.7735	6098
717.2044	6088
719.6367	6130
722.0683	6133
724.4993	6283
726.9296	6190
729.3593	6245
731.7883	6200
734.2147	6190
736.6423	6201
739.0714	6235
741.4958	6281
743.9216	6224
746.3447	6352
748.7691	6340
751.1929	6201
753.616	6322
756.0366	6280
758.4584	6446
760.8776	6340
763.2982	6424
765.718	6465
768.1373	6408
770.5539	6403
772.9698	6449
775.3871	6445
777.8038	6586
780.2178	6349
782.6332	6459
785.0459	6416
787.458	6416
789.8714	6450
792.2842	6340
794.6943	6467
797.1038	6410
799.5127	6475
801.9209	6543
804.3324	6437
806.7393	6549
809.1456	6478
811.5513	6514
813.9562	6519
816.3625	6509
818.7663	6646
821.1693	6634
823.5718	6468
825.9735	6513
828.3746	6493
830.7771	6428
833.177	6675
835.5762	6555
837.9747	6628
840.3727	6631
842.772	6592
845.1666	6668
847.5626	6795
849.958	6687
852.3527	6652
854.7488	6766
857.1403	6715
859.5331	6760
861.9253	6727
864.3168	6594
866.7057	6716
869.098	6532
871.4876	6659
873.8746	6584
876.263	6735
878.6487	6647
881.0378	6701
883.4243	6701
885.8081	6680
888.1933	6636
890.5759	6653
892.9598	6590
895.343	6655
897.7256	6744
900.1057	6612
902.4871	6755
904.8659	6655
907.246	6751
909.6254	6747
912.0023	6855
914.3786	6746
916.7562	6839
919.1331	6923
921.5074	7022
923.8831	7048
926.2562	6982
928.6287	7132
931.0005	6968
933.3757	7054
935.7462	7155
938.1162	7019
940.4855	7217
942.8542	7118
945.2242	7332
947.5916	7423
949.9584	7563
952.3266	7635
954.6921	8079
957.0571	8354
959.4233	8676
961.787	8626
964.15	8598
966.5125	8462
968.8742	8161
971.2354	7723
973.5959	7629
975.9559	7342
978.3151	7182
980.6738	7131
983.0338	7055
985.3912	6958
987.7461	6892
990.1022	7046
992.4578	7027
994.8127	6880
997.1689	6864
999.5207	6930
1001.874	6934
1004.226	6950
1006.576	7016
1008.929	6917
1011.28	6908
1013.628	6984
1015.977	6865
1018.324	7138
1020.674	6963
1023.019	6927
1025.366	6887
1027.713	6974
1030.056	7089
1032.399	7029
1034.746	7017
1037.087	7063
1039.431	7141
1041.771	7079
1044.113	7117
1046.454	7039
1048.793	7143
1051.133	7022
1053.471	7183
1055.807	7144
1058.146	7120
1060.483	7155
1062.818	7215
1065.153	7183
1067.489	7262
1069.822	7244
1072.156	7308
1074.488	7311
1076.82	7314
1079.15	7216
1081.48	7114
1083.814	7159
1086.143	7024
1088.471	7109
1090.799	7141
1093.126	7016
1095.452	7166
1097.78	7036
1100.105	7022
1102.43	7155
1104.754	7157
1107.077	7279
1109.4	7002
1111.722	7148
1114.044	7066
1116.365	7034
1118.685	7157
1121.005	7052
1123.324	7124
1125.643	7121
1127.961	7099
1130.278	7194
1132.595	7123
1134.911	7109
1137.226	7076
1139.541	7085
1141.854	7106
1144.167	7111
1146.482	7150
1148.793	7152
1151.105	7056
1153.414	7195
1155.725	7123
1158.033	7128
1160.344	7129
1162.651	7078
1164.959	7072
1167.265	7153
1169.572	7098
1171.878	7085
1174.184	7164
1176.488	7148
1178.79	7129
1181.094	7237
1183.396	7113
1185.699	7236
1188.001	7076
1190.301	7211
1192.6	7184
1194.9	7217
1197.2	7040
1199.497	7043
1201.794	7161
1204.09	7185
1206.387	7286
1208.684	7225
1210.978	7316
1213.272	7321
1215.565	7178
1217.858	7100
1220.15	7236
1222.443	7350
1224.734	7213
1227.024	7390
1229.313	7137
1231.602	7301
1233.892	7320
1236.18	7396
1238.467	7320
1240.754	7458
1243.04	7368
1245.325	7375
1247.612	7339
1249.896	7414
1252.178	7425
1254.461	7370
1256.743	7417
1259.027	7375
1261.308	7440
1263.587	7462
1265.867	7548
1268.146	7383
1270.425	7581
1272.703	7456
1274.981	7398
1277.256	7408
1279.532	7474
1281.808	7381
1284.083	7328
1286.358	7391
1288.63	7395
1290.904	7340
1293.175	7334
1295.449	7436
1297.719	7421
1299.99	7344
1302.259	7279
1304.529	7242
1306.798	7483
1309.065	7344
1311.333	7412
1313.599	7343
1315.866	7422
1318.131	7349
1320.396	7355
1322.66	7392
1324.925	7259
1327.187	7279
1329.448	7282
1331.711	7449
1333.974	7502
1336.234	7312
1338.493	7397
1340.752	7331
1343.01	7377
1345.269	7262
1347.526	7356
1349.784	7362
1352.04	7393
1354.295	7257
1356.552	7315
1358.806	7410
1361.059	7418
1363.312	7282
1365.564	7329
1367.818	7368
1370.069	7399
1372.318	7321
1374.568	7412
1376.817	7314
1379.066	7465
1381.316	7409
1383.564	7452
1385.809	7404
1388.056	7497
1390.301	7500
1392.549	7547
1394.793	7473
1397.036	7567
1399.279	7587
1401.522	7598
1403.763	7636
1406.007	7403
1408.248	7631
1410.487	7605
1412.727	7559
1414.965	7579
1417.205	7603
1419.442	7600
1421.68	7686
1423.915	7618
1426.152	7651
1428.388	7569
1430.623	7676
1432.857	7573
1435.091	7631
1437.323	7685
1439.556	7600
1441.789	7662
1444.019	7655
1446.25	7763
1448.48	7657
1450.708	7715
1452.938	7724
1455.167	7689
1457.394	7666
1459.62	7710
1461.846	7700
1464.073	7735
1466.299	7766
1468.523	7697
1470.746	7664
1472.969	7670
1475.191	7464
1477.415	7644
1479.636	7515
1481.858	7530
1484.078	7530
1486.298	7552
1488.518	7391
1490.736	7453
1492.954	7412
1495.169	7369
1497.386	7483
1499.602	7422
1501.819	7336
1504.034	7305
1506.248	7279
1508.462	7275
1510.675	7346
1512.888	7318
1515.1	7332
1517.311	7360
1519.522	7371
1521.732	7560
1523.942	7343
1526.151	7321
1528.36	7332
1530.566	7276
1532.773	7369
1534.98	7354
1537.187	7317
1539.392	7287
1541.596	7394
1543.801	7306
1546.005	7375
1548.208	7268
1550.411	7558
1552.612	7439
1554.814	7552
1557.013	7475
1559.212	7439
1561.414	7508
1563.612	7436
1565.811	7405
1568.007	7523
1570.203	7496
1572.403	7482
1574.598	7544
1576.792	7480
1578.988	7748
1581.181	7623
1583.376	7646
1585.568	7613
1587.761	7659
1589.952	7679
1592.143	7645
1594.333	7606
1596.524	7612
1598.715	7597
1600.903	7765
1603.091	7643
1605.278	7617
1607.466	7721
1609.652	7649
1611.838	7661
1614.023	7698
1616.207	7622
1618.391	7653
1620.576	7614
1622.759	7665
1624.941	7621
1627.123	7712
1629.304	7713
1631.484	7717
1633.664	7717
1635.844	7844
1638.022	7746
1640.201	7754
1642.38	7687
1644.556	7764
1646.732	7664
1648.908	7619
1651.084	7762
1653.257	7731
1655.433	7818
1657.607	7754
1659.779	7801
1661.951	7725
1664.122	7958
1666.295	7705
1668.467	7813
1670.635	7905
1672.805	7866
1674.973	7842
1677.142	7836
1679.31	7818
1681.478	7785
1683.644	7776
1685.81	7847
1687.975	7607
1690.142	7723
1692.305	7759
1694.468	7719
1696.632	7786
1698.794	7647
1700.957	7716
1703.119	7677
1705.279	7707
1707.439	7647
1709.598	7657
1711.758	7618
1713.917	7659
1716.075	7700
1718.231	7624
1720.388	7672
1722.543	7593
1724.702	7559
1726.856	7604
1729.01	7585
1731.164	7466
1733.317	7653
1735.471	7595
1737.623	7562
1739.774	7624
1741.925	7716
1744.075	7540
1746.225	7549
1748.376	7614
1750.524	7516
1752.672	7596
1754.82	7511
1756.965	7619
1759.113	7508
1761.259	7584
1763.405	7604
1765.549	7611
1767.694	7642
1769.836	7581
1771.981	7549
1774.123	7646
1776.264	7565
1778.405	7666
1780.546	7602
1782.687	7536
1784.827	7779
1786.966	7700
1789.103	7625
1791.242	7713
1793.381	7789
1795.517	7725
1797.653	7681
1799.788	7696
1801.923	7578
1804.057	7706
1806.193	7560
1808.326	7674
1810.457	7665
1812.59	7697
1814.721	7716
1816.855	7642
1818.984	7771
1821.113	7607
1823.244	7637
1825.372	7697
1827.499	7573
1829.63	7598
1831.756	7706
1833.882	7598
1836.007	7642
1838.132	7607
1840.26	7551
1842.384	7593
1844.507	7608
1846.63	7521
1848.752	7643
1850.875	7606
1852.996	7734
1855.118	7609
1857.238	7665
1859.358	7577
1861.477	7668
1863.597	7672
1865.715	7512
1867.832	7727
1869.948	7579
1872.064	7536
1874.181	7532
1876.297	7539
1878.411	7478
1880.526	7558
1882.639	7655
1884.752	7615
1886.865	7560
1888.977	7628
1891.089	7534
1893.2	7662
1895.308	7475
1897.42	7566
1899.53	7631
1901.639	7755
1903.745	7550
1905.853	7779
1907.962	7567
1910.067	7656
1912.174	7632
1914.278	7719
1916.383	7576
1918.486	7651
1920.592	7727
1922.694	7636
1924.797	7769
1926.898	7769
1929	7736
1931.102	7759
1933.203	7662
1935.301	7721
1937.401	7662
1939.499	7747
1941.598	7752
1943.697	7793
1945.793	7799
1947.888	7688
1949.985	7739
1952.08	7721
1954.176	7741
1956.269	7649
1958.364	7828
1960.457	7724
1962.549	7597
1964.642	7724
1966.733	7632
1968.823	7660
1970.913	7630
1973.005	7748
1975.093	7626
1977.184	7624
1979.271	7650
1981.359	7831
1983.446	7632
1985.532	7508
1987.619	7685
1989.705	7613
1991.789	7669
1993.874	7688
1995.956	7543
1998.041	7677
2000.123	7556
2002.206	7628
2004.287	7611
2006.368	7530
2008.449	7549
2010.529	7643
2012.609	7673
2014.688	7701
2016.766	7572
2018.843	7651
2020.922	7607
2022.999	7642
2025.074	7481
2027.15	7585
2029.225	7691
2031.299	7606
2033.375	7780
2035.447	7608
2037.52	7507
2039.592	7514
2041.664	7691
2043.736	7642
2045.807	7611
2047.876	7545
2049.947	7669
2052.015	7543
2054.086	7626
2056.153	7651
2058.221	7715
2060.288	7673
2062.353	7659
2064.42	7626
2066.486	7548
2068.55	7625
2070.614	7669
2072.678	7521
2074.741	7703
2076.805	7645
2078.866	7706
2080.929	7566
2082.99	7520
2085.049	7627
2087.109	7740
2089.17	7551
2091.228	7560
2093.286	7518
2095.344	7633
2097.4	7583
2099.46	7689
2101.516	7553
2103.572	7588
2105.626	7591
2107.679	7571
2109.735	7682
2111.788	7700
2113.841	7631
2115.894	7572
2117.945	7576
2119.997	7662
2122.049	7624
2124.1	7646
2126.148	7649
2128.197	7650
2130.246	7597
2132.296	7549
2134.342	7660
2136.39	7580
2138.437	7509
2140.483	7583
2142.527	7585
2144.574	7577
2146.619	7431
2148.661	7595
2150.705	7513
2152.747	7642
2154.792	7634
2156.832	7568
2158.874	7611
2160.915	7518
2162.954	7531
2164.995	7589
2167.034	7702
2169.072	7534
2171.111	7652
2173.148	7510
2175.186	7445
2177.223	7584
2179.258	7501
2181.294	7492
2183.328	7508
2185.362	7429
2187.398	7378
2189.431	7440
2191.463	7469
2193.495	7539
2195.528	7498
2197.56	7473
2199.59	7471
2201.62	7465
2203.649	7359
2205.678	7545
2207.708	7396
2209.737	7434
2211.764	7467
2213.791	7419
2215.817	7410
2217.843	7421
2219.87	7441
2221.895	7395
2223.919	7378
2225.942	7420
2227.966	7405
2229.988	7418
2232.012	7347
2234.032	7342
2236.054	7474
2238.074	7333
2240.095	7346
2242.116	7479
2244.135	7447
2246.153	7427
2248.171	7405
2250.188	7402
2252.208	7421
2254.223	7410
2256.239	7374
2258.255	7450
2260.269	7495
2262.283	7421
2264.3	7323
2266.312	7431
2268.325	7343
2270.336	7372
2272.349	7314
2274.362	7366
2276.372	7427
2278.383	7430
2280.392	7225
2282.402	7337
2284.409	7453
2286.418	7428
2288.427	7494
2290.433	7227
2292.441	7329
2294.446	7310
2296.453	7357
2298.459	7308
2300.463	7359
2302.466	7384
2304.471	7267
2306.475	7326
2308.477	7349
2310.478	7284
2312.481	7227
2314.481	7187
2316.481	7233
2318.482	7418
2320.482	7308
2322.48	7257
2324.48	7351
2326.478	7276
2328.476	7349
2330.473	7341
2332.469	7230
2334.465	7478
2336.46	7375
2338.454	7214
2340.45	7222
2342.444	7300
2344.437	7323
2346.43	7275
2348.421	7173
2350.414	7165
2352.405	7215
2354.396	7328
2356.386	7198
2358.376	7146
2360.366	7223
2362.355	7185
2364.343	7075
2366.331	7207
2368.317	7150
2370.304	7143
2372.292	7200
2374.278	7076
2376.262	7142
2378.247	7056
2380.23	7127
2382.216	7209
2384.199	7073
2386.181	7172
2388.163	7124
2390.144	7088
2392.127	7142
2394.107	7198
2396.087	7220
2398.066	7080
2400.046	7232
2402.023	7068
2404.004	7220
2405.981	7056
2407.957	7152
2409.934	7130
2411.91	7004
2413.886	7072
2415.862	7092
2417.836	7003
2419.809	7066
2421.784	7203
2423.756	7084
2425.73	7100
2427.701	7017
2429.672	7030
2431.644	7131
2433.615	7080
2435.586	7109
2437.555	7056
2439.523	7153
2441.491	7075
2443.459	7075
2445.428	7084
2447.395	7098
2449.361	7096
2451.327	7115
2453.292	7014
2455.257	7175
2457.223	7088
2459.187	6925
2461.15	7080
2463.113	7138
2465.076	6992
2467.039	7104
2468.999	6857
2470.96	6986
2472.921	7027
2474.881	7084
2476.841	6938
2478.8	7187
2480.759	6935
2482.717	6948
2484.675	6988
2486.63	7076
2488.589	6964
2490.545	6944
2492.5	6926
2494.455	6992
2496.408	6995
2498.364	6997
2500.318	6930
2502.27	6902
2504.223	6912
2506.174	6933
2508.126	6852
2510.078	6952
2512.03	6932
2513.979	6997
2515.927	6786
2517.877	6940
2519.826	6865
2521.775	6955
2523.722	6945
2525.668	6890
2527.616	6971
2529.561	6938
2531.508	6979
2533.452	6954
2535.398	6939
2537.342	6776
2539.284	6887
2541.229	6865
2543.173	6878
2545.114	6914
2547.055	6857
2548.996	6887
2550.938	7045
2552.878	6872
2554.817	6859
2556.756	6865
2558.695	6963
2560.633	6925
2562.572	6871
2564.509	6924
2566.445	6849
2568.382	6889
2570.317	6947
2572.254	6787
2574.189	6928
2576.123	6831
2578.057	6811
2579.99	6959
2581.923	6864
2583.855	6808
2585.788	6825
2587.719	6865
2589.65	6919
2591.579	6797
2593.511	6902
2595.44	6874
2597.37	6947
2599.297	6882
2601.225	6986
2603.153	6917
2605.08	6807
2607.007	6913
2608.932	6921
2610.858	6861
2612.782	6891
2614.709	6878
2616.632	6857
2618.556	6904
2620.478	6952
2622.401	6968
2624.324	6819
2626.247	6888
2628.167	6792
2630.088	6894
2632.008	6917
2633.928	6810
2635.848	6923
2637.766	6934
2639.684	6893
2641.603	6934
2643.519	6878
2645.437	6887
2647.353	6833
2649.27	6915
2651.184	6903
2653.099	6859
2655.014	6794
2656.928	6853
2658.842	6938
2660.755	6879
2662.667	6930
2664.579	6909
2666.491	6821
2668.402	6869
2670.312	6735
2672.222	6852
2674.132	6813
2676.042	6868
2677.951	6807
2679.859	6726
2681.766	6743
2683.674	6866
2685.582	6779
2687.488	6888
2689.392	6725
2691.298	6910
2693.202	6780
2695.107	6696
2697.012	6684
2698.914	6723
2700.817	6798
2702.72	6729
2704.622	6728
2706.524	6746
2708.425	6636
2710.326	6627
2712.225	6709
2714.125	6635
2716.024	6762
2717.923	6783
2719.822	6726
2721.719	6784
2723.616	6696
2725.512	6687
2727.41	6673
2729.305	6773
2731.201	6702
2733.095	6663
2734.99	6644
2736.884	6620
2738.778	6792
2740.67	6693
2742.562	6718
2744.455	6715
2746.346	6696
2748.238	6639
2750.129	6674
2752.018	6687
2753.907	6625
2755.797	6750
2757.687	6633
2759.575	6698
2761.462	6606
2763.349	6711
2765.237	6712
2767.124	6654
2769.009	6664
2770.894	6569
2772.779	6579
2774.663	6686
2776.547	6695
2778.431	6640
2780.314	6571
2782.197	6650
2784.078	6697
2785.96	6521
2787.842	6664
2789.723	6574
2791.603	6610
2793.483	6610
2795.362	6497
2797.241	6764
2799.121	6498
2800.997	6684
2802.874	6537
2804.751	6625
2806.628	6603
2808.506	6612
2810.38	6541
2812.255	6572
2814.13	6469
2816.003	6649
2817.878	6517
2819.752	6759
2821.623	6619
2823.496	6483
2825.368	6578
2827.238	6614
2829.111	6627
2830.98	6404
2832.851	6665
2834.719	6648
2836.589	6652
2838.458	6657
2840.327	6556
2842.193	6625
2844.061	6637
2845.927	6636
2847.794	6642
2849.66	6767
2851.525	6746
2853.39	6624
2855.254	6695
2857.117	6770
2858.983	6675
2860.845	6654
2862.707	6644
2864.569	6741
2866.431	6618
2868.293	6773
2870.154	6865
2872.013	6916
2873.873	6916
2875.733	7070
2877.592	6927
2879.451	7117
2881.309	7112
2883.166	7230
2885.022	7143
2886.879	7274
2888.736	7203
2890.591	7299
2892.446	7206
2894.301	7232
2896.155	7181
2898.009	7279
2899.863	7256
2901.716	7166
2903.568	7142
2905.419	7114
2907.27	7055
2909.123	7179
2910.973	7284
2912.824	7303
2914.673	7281
2916.521	7235
2918.372	7411
2920.22	7424
2922.067	7472
2923.914	7506
2925.761	7499
2927.607	7554
2929.455	7775
2931.301	7811
2933.144	7714
2934.99	7669
2936.833	7937
2938.678	7892
2940.522	7971
2942.364	8234
2944.207	8238
2946.048	8191
2947.891	8187
2949.731	8125
2951.571	8104
2953.412	8229
2955.25	7967
2957.09	8095
2958.93	7945
2960.767	7879
2962.606	7803
2964.443	7685
2966.279	7714
2968.116	7542
2969.953	7497
2971.788	7484
2973.623	7284
2975.457	7342
2977.292	7288
2979.127	7321
2980.959	7190
2982.792	7227
2984.624	7235
2986.455	7234
2988.288	7081
2990.119	7048
2991.949	6974
2993.779	7076
2995.608	6955
2997.439	6932
2999.268	7032
3001.096	6806
3002.923	6872
3004.751	6768
3006.578	6763
3008.406	6674
3010.232	6563
3012.057	6538
3013.883	6471
3015.706	6470
3017.532	6522
3019.356	6509
3021.179	6373
3023.002	6459
3024.823	6303
3026.646	6377
3028.469	6269
3030.289	6282
3032.11	6275
3033.93	6232
3035.749	6302
3037.57	6242
3039.39	6201
3041.207	6267
3043.026	6172
3044.842	6265
3046.661	6233
3048.477	6186
3050.294	6156
3052.109	6308
3053.925	6126
3055.739	6208
3057.555	6196
3059.368	6324
3061.181	6178
3062.995	6254
3064.807	6225
3066.62	6212
3068.433	6154
3070.243	6178
3072.054	6086
3073.865	6090
3075.675	6224
3077.485	6178
3079.293	6047
3081.102	6133
3082.911	6121
3084.719	6115
3086.527	6093
3088.333	6097
3090.139	6094
3091.945	6071
3093.75	6134
3095.557	5976
3097.361	5965
3099.165	5995
3100.969	5998
3102.772	6002
3104.575	6003
3106.379	5976
3108.181	6037
3109.982	6017
3111.783	5914
3113.584	5977
3115.386	5969
3117.186	6011
3118.985	5978
3120.783	5803
3122.582	5952
3124.381	5966
3126.179	5903
3127.975	5889
3129.772	5882
3131.569	5866
3133.365	5890
3135.161	5893
3136.956	5798
3138.751	5901
3140.544	5888
3142.338	5916
3144.132	5754
3145.925	5859
3147.717	5822
3149.509	5940
3151.301	5900
3153.091	5882
3154.884	5858
3156.673	5776
3158.462	5850
3160.252	5732
3162.041	5802
3163.831	5808
3165.618	5793
3167.405	5810
3169.193	5846
3170.979	5708
3172.767	5835
3174.553	5770
3176.338	5854
3178.123	5744
3179.907	5758
3181.692	5738
3183.477	5763
3185.259	5732
3187.042	5664
3188.824	5767
3190.607	5803
3192.389	5728
3194.17	5728
3195.951	5781
3197.73	5718
3199.51	5708
3201.289	5799
3203.07	5753
3204.848	5722
3206.626	5757
3208.403	5701
3210.18	5688
3211.959	5728
3213.735	5766
3215.511	5731
3217.285	5674
3219.06	5677
3220.836	5742
3222.611	5738
3224.384	5692
3226.158	5762
3227.929	5812
3229.702	5779
3231.476	5699
3233.248	5746
3235.018	5721
3236.789	5692
3238.56	5731
3240.33	5700
3242.1	5689
3243.869	5720
3245.637	5611
3247.405	5646
3249.172	5614
3250.941	5656
3252.707	5711
3254.474	5800
3256.24	5687
3258.006	5601
3259.772	5698
3261.537	5676
3263.301	5789
3265.065	5645
3266.828	5729
3268.592	5573
3270.355	5654
3272.117	5733
3273.878	5760
3275.64	5701
3277.401	5689
3279.162	5658
3280.922	5765
3282.682	5689
3284.441	5670
3286.199	5689
3287.959	5736
3289.716	5701
3291.475	5658
3293.232	5682
3294.988	5684
3296.744	5763
3298.501	5681
3300.256	5676
3302.011	5667
3303.766	5634
3305.52	5790
3307.275	5605
3309.028	5665
3310.781	5715
3312.533	5650
3314.285	5741
3316.038	5602
3317.789	5710
3319.54	5720
3321.289	5647
3323.039	5588
3324.789	5667
3326.539	5685
3328.288	5641
3330.035	5655
3331.783	5673
3333.531	5605
3335.28	5630
3337.025	5567
3338.771	5684
3340.518	5654
3342.262	5603
3344.009	5629
3345.753	5623
3347.497	5507
3349.24	5591
3350.983	5593
3352.726	5556
3354.469	5644
3356.212	5590
3357.952	5569
3359.694	5601
3361.434	5521
3363.176	5473
3364.916	5556
3366.654	5560
3368.394	5572
3370.132	5651
3371.871	5442
3373.61	5471
3375.346	5572
3377.083	5514
3378.82	5494
3380.556	5430
3382.292	5474
3384.027	5453
3385.763	5433
3387.497	5373
3389.231	5518
3390.965	5306
3392.698	5360
3394.431	5451
3396.164	5493
3397.896	5483
3399.627	5479
3401.36	5410
3403.09	5422
3404.82	5418
3406.55	5334
3408.279	5434
3410.01	5386
3411.738	5361
3413.467	5442
3415.194	5313
3416.92	5372
3418.647	5351
3420.375	5349
3422.102	5280
3423.827	5373
3425.553	5366
3427.277	5357
3429.003	5408
3430.727	5198
3432.451	5283
3434.173	5282
3435.896	5353
3437.62	5357
3439.343	5286
3441.063	5375
3442.785	5281
3444.505	5269
3446.226	5323
3447.948	5271
3449.666	5236
3451.386	5231
3453.104	5189
3454.823	5191
3456.541	5281
3458.259	5217
3459.976	5266
3461.693	5262
3463.408	5102
3465.125	5105
3466.841	5222
3468.556	5171
3470.271	5252
3471.985	5133
3473.698	5190
3475.414	5194
3477.126	5071
3478.838	5109
3480.55	5117
3482.263	5079
3483.975	5128
3485.686	5111
3487.396	5123
3489.106	5085
3490.817	5129
3492.526	4986
3494.236	5036
3495.944	5058
3497.652	5014
3499.359	5007
3501.066	5067
3502.775	5030
3504.481	5055
3506.187	5097
3507.893	5018
3509.598	4967
3511.304	4986
3513.009	4995
3514.713	4908
3516.417	4981
3518.12	5003
3519.821	5008
3521.525	5045
3523.228	4944
3524.929	4928
3526.631	4872
3528.33	4955
3530.032	5042
3531.733	5025
3533.433	5004
3535.131	5010
3536.83	4929
3538.529	4919
3540.227	4980
3541.925	4862
3543.623	4936
3545.319	4892
3547.016	4955
3548.712	4912
3550.408	4936
3552.103	4784
3553.798	4834
3555.491	4882
3557.188	4845
3558.88	4833
3560.574	4715
3562.266	4864
3563.959	4868
3565.651	4755
3567.343	4803
3569.035	4861
3570.725	4781
3572.415	4885
3574.106	4781
3575.797	4843
3577.485	4792
3579.174	4772
3580.863	4707
3582.551	4834
3584.238	4739
3585.926	4763
3587.613	4728
3589.3	4663
3590.986	4722
3592.671	4738
3594.357	4738
3596.042	4720
3597.726	4666
3599.41	4714
3601.094	4652
3602.778	4718
3604.461	4629
3606.143	4606
3607.825	4619
3609.507	4640
3611.188	4565
3612.87	4568
3614.551	4582
3616.229	4659
3617.909	4708
3619.589	4544
3621.269	4658
3622.948	4642
3624.625	4558
3626.302	4567
3627.98	4644
3629.657	4539
3631.334	4536
3633.01	4529
3634.686	4518
3636.361	4516
3638.036	4537
3639.712	4554
3641.385	4519
3643.06	4529
3644.732	4526
3646.405	4592
3648.08	4490
3649.751	4414
3651.424	4409
3653.094	4465
3654.766	4403
3656.436	4432
3658.106	4491
3659.777	4452
3661.446	4410
3663.115	4452
3664.783	4396
3666.452	4508
3668.121	4461
3669.788	4408
3671.454	4445
3673.121	4385
3674.789	4314
3676.455	4358
3678.12	4298
3679.784	4520
3681.45	4413
3683.114	4462
3684.779	4310
3686.442	4363
3688.105	4421
3689.768	4365
3691.43	4410
3693.093	4252
3694.754	4347
3696.415	4363
3698.076	4298
3699.736	4349
3701.396	4208
3703.057	4255
3704.716	4281
3706.375	4306
3708.034	4352
3709.692	4354
3711.351	4316
3713.008	4329
3714.665	4371
3716.321	4267
3717.977	4277
3719.634	4259
3721.29	4239
3722.945	4289
3724.598	4264
3726.253	4232
3727.907	4176
3729.561	4252
3731.214	4271
3732.867	4221
3734.518	4233
3736.171	4226
3737.824	4255
3739.474	4286
3741.125	4254
3742.775	4197
3744.425	4184
3746.074	4242
3747.725	4255
3749.373	4207
3751.022	4236
3752.669	4203
3754.318	4297
3755.966	4218
3757.612	4214
3759.259	4124
3760.905	4201
3762.55	4105
3764.197	4171
3765.842	4188
3767.486	4211
3769.131	4126
3770.774	4224
3772.417	4170
3774.061	4200
3775.705	4143
3777.347	4233
3778.988	4177
3780.629	4107
3782.271	4034
3783.912	4138
3785.552	4173
3787.192	4135
3788.831	4135
3790.472	3954
3792.112	4076
3793.75	4085
3795.388	4079
3797.024	4087
3798.661	4113
3800.3	4027
3801.936	4045
3803.572	4130
3805.208	4045
3806.844	4117
3808.48	4082
3810.115	4066
3811.748	4102
3813.382	4044
3815.016	4012
3816.649	4032
3818.283	4051
3819.914	4058
3821.547	3982
3823.178	3993
3824.809	4047
3826.441	3977
3828.072	4000
3829.701	3948
3831.331	3961
3832.96	3972
3834.591	3975
3836.219	4035
3837.847	3995
3839.475	3980
3841.102	3909
3842.729	3953
3844.357	3944
3845.984	3971
3847.609	3988
3849.234	3874
3850.86	3956
3852.485	3944
3854.11	3941
3855.734	3885
3857.357	3958
3858.981	3988
3860.603	3974
3862.227	3935
3863.848	3883
3865.471	3912
3867.092	3937
3868.713	3824
3870.334	3930
3871.954	3907
3873.575	3846
3875.194	3951
3876.813	3874
3878.433	3837
3880.051	3863
3881.669	3936
3883.286	3881
3884.904	3893
3886.52	3835
3888.138	3899
3889.754	3850
3891.37	3786
3892.985	3933
3894.6	3837
3896.216	3855
3897.831	3861
3899.444	3760
3901.058	3921
3902.67	3817
3904.283	3750
3905.897	3904
3907.509	3838
3909.121	3815
3910.731	3842
3912.342	3844
3913.954	3736
3915.563	3816
3917.174	3853
3918.783	3832
3920.391	3771
3922.002	3766
3923.611	3807
3925.218	3790
3926.826	3771
3928.432	3812
3930.039	3875
3931.647	3730
3933.253	3782
3934.859	3736
3936.464	3754
3938.068	3748
3939.675	3889
3941.278	3827
3942.883	3801
3944.486	3709
3946.089	3839
3947.692	3681
3949.295	3831
3950.898	3720
3952.499	3798
3954.1	3685
3955.7	3773
3957.303	3699
3958.903	3790
3960.502	3721
3962.101	3740
3963.7	3765
3965.301	3770
3966.899	3700
3968.497	3709
3970.094	3758
3971.691	3738
3973.288	3735
3974.885	3649
3976.481	3583
3978.077	3626
3979.672	3675
3981.267	3597
3982.863	3647
3984.457	3637
3986.051	3701
3987.645	3632
3989.238	3610
3990.831	3650
3992.425	3600
3994.017	3634
3995.607	3593
3997.199	3627
3998.79	3654
4000.382	3548
4001.973	3587
4003.561	3609
4005.151	3617
4006.741	3605
4008.331	3614
4009.918	3524
4011.507	3520
4013.095	3548
4014.681	3582
4016.269	3496
4017.856	3538
4019.443	3516
4021.028	3494
4022.614	3566
4024.199	3541
4025.785	3524
4027.37	3516
4028.953	3559
4030.536	3534
4032.12	3527
4033.704	3533
4035.287	3528
4036.869	3501
4038.45	3452
4040.032	3538
4041.613	3501
4043.195	3519
4044.776	3504
4046.356	3528
4047.935	3439
4049.515	3509
4051.095	3547
4052.674	3388
4054.251	3527
4055.829	3474
4057.406	3469
4058.985	3454
4060.562	3477
4062.139	3428
4063.715	3495
4065.29	3403
4066.865	3524
4068.442	3454
4070.016	3312
4071.59	3477
4073.164	3438
4074.738	3510
4076.312	3385
4077.885	3473
4079.458	3437
4081.03	3490
4082.602	3372
4084.173	3458
4085.745	3399
4087.315	3429
4088.886	3419
4090.456	3414
4092.026	3419
4093.596	3292
4095.165	3447
4096.734	3351
4098.301	3377
4099.869	3335
4101.437	3299
4103.006	3308
4104.572	3391
4106.139	3342
4107.704	3332
4109.27	3360
4110.837	3326
4112.401	3390
4113.966	3232
4115.53	3364
4117.094	3344
4118.659	3389
4120.223	3357
4121.785	3282
4123.347	3261
4124.909	3269
4126.471	3340
4128.034	3309
4129.595	3293
4131.155	3241
4132.716	3229
4134.275	3164
4135.836	3295
4137.395	3239
4138.955	3197
4140.513	3316
4142.071	3244
4143.628	3345
4145.188	3296
4146.745	3147
4148.302	3278
4149.858	3223
4151.414	3270
4152.971	3221
4154.526	3260
4156.081	3178
4157.635	3160
4159.189	3221
4160.745	3144
4162.298	3177
4163.852	3146
4165.405	3151
4166.957	3219
4168.51	3238
4170.063	3144
4171.614	3121
4173.166	3237
4174.717	3150
4176.267	3226
4177.817	3156
4179.368	3145
4180.917	3187
4182.466	3138
4184.016	3136
4185.564	3164
4187.112	3060
4188.66	3115
4190.207	3146
4191.754	3127
4193.301	3144
4194.848	3151
4196.394	3119
4197.94	3095
4199.484	3129
4201.03	3152
4202.575	3086
4204.12	3033
4205.663	3149
4207.207	3172
4208.75	3043
4210.292	3045
4211.836	3093
4213.378	3104
4214.92	3071
4216.46	3071
4218.002	3041
4219.544	3055
4221.083	3059
4222.625	3017
4224.164	3105
4225.703	3030
4227.244	3045
4228.782	3037
4230.32	3150
4231.857	3116
4233.395	3005
4234.933	3049
4236.471	3031
4238.007	3018
4239.542	3015
4241.078	3076
4242.614	3004
4244.15	3015
4245.685	3091
4247.219	2989
4248.753	3005
4250.287	3022
4251.82	3043
4253.354	2917
4254.887	3062
4256.419	3010
4257.951	2953
4259.483	2978
4261.016	2940
4262.547	2961
4264.078	3013
4265.608	2949
4267.137	2962
4268.668	2975
4270.197	2971
4271.727	2985
4273.254	2941
4274.783	3039
4276.311	3003
4277.84	3035
4279.366	2914
4280.894	2959
4282.42	2913
4283.946	2927
4285.473	2987
4286.998	3011
4288.523	3026
4290.047	2986
4291.572	2953
4293.096	2986
4294.622	2930
4296.144	2948
4297.668	2960
4299.19	2895
4300.713	2905
4302.236	2942
4303.758	2920
4305.279	2881
4306.799	2935
4308.321	2963
4309.842	2852
4311.361	2856
4312.882	2859
4314.401	2831
