400.0961	5692
402.6185	5627
405.1424	5752
407.6635	5599
410.1838	5728
412.7035	5800
415.2225	5808
417.7388	5782
420.2585	5748
422.7754	5900
425.2917	5940
427.8072	5997
430.3221	6075
432.8363	6149
435.3498	6166
437.8626	6142
440.3727	6154
442.8841	5998
445.3969	6090
447.907	6093
450.4142	5986
452.9229	5993
455.4289	6089
457.9362	6069
460.4449	6101
462.9488	6045
465.454	6034
467.9566	6024
470.4604	6070
472.9637	6074
475.4662	6161
477.966	6051
480.4671	6098
482.9656	6087
485.4633	6259
487.9645	6170
490.4608	6175
492.9566	6235
495.4536	6156
497.948	6211
500.4437	6216
502.9387	6153
505.431	6238
507.9226	6223
510.4136	6255
512.9079	6204
515.3975	6271
517.8864	6214
520.3746	6261
522.8622	6329
525.3491	6417
527.8394	6187
530.3249	6363
532.8098	6327
535.2939	6322
537.7774	6426
540.2623	6393
542.7444	6339
545.2259	6314
547.7067	6376
550.1868	6406
552.6683	6294
555.147	6344
557.6231	6308
560.1005	6369
562.5773	6403
565.0534	6386
567.5308	6430
570.0056	6463
572.4776	6548
574.951	6560
577.4237	6482
579.8978	6617
582.3671	6546
584.8378	6558
587.3079	6631
589.7773	6638
592.244	6690
594.714	6631
597.1793	6688
599.6461	6572
602.1121	6481
604.5754	6582
607.0421	6554
609.5042	6593
611.9675	6546
614.4282	6594
616.8902	6532
619.3515	6649
621.8122	6517
624.2702	6582
626.7296	6530
629.1863	6465
631.6423	6588
634.1017	6605
636.5563	6477
639.0104	6518
641.4658	6613
643.9185	6693
646.3725	6472
648.8239	6689
651.2766	6586
653.7266	6565
656.176	6718
658.6247	6671
661.0748	6596
663.5242	6711
665.9709	6707
668.417	6732
670.8624	6798
673.3092	6741
675.7533	6725
678.1968	6769
680.6395	6699
683.0817	6766
685.5251	6790
687.9659	6774
690.4061	6896
692.8456	6854
695.2844	6880
697.7226	6788
700.1621	6789
702.599	6818
705.0332	6886
707.4688	6959
709.9036	7024
712.3399	7017
714.7735	6921
717.2044	6989
719.6367	7006
722.0683	6938
724.4993	7004
726.9296	6983
729.3593	7079
731.7883	7116
734.2147	7038
736.6423	7093
739.0714	7114
741.4958	7090
743.9216	7287
746.3447	7136
748.7691	7134
751.1929	7327
753.616	7218
756.0366	7204
758.4584	7203
760.8776	7243
763.2982	7210
765.718	7306
768.1373	7280
770.5539	7218
772.9698	7366
775.3871	7254
777.8038	7302
780.2178	7290
782.6332	7352
785.0459	7403
787.458	7409
789.8714	7418
792.2842	7337
794.6943	7378
797.1038	7303
799.5127	7254
801.9209	7370
804.3324	7323
806.7393	7289
809.1456	7352
811.5513	7481
813.9562	7538
816.3625	7480
818.7663	7350
821.1693	7379
823.5718	7507
825.9735	7319
828.3746	7332
830.7771	7360
833.177	7440
835.5762	7395
837.9747	7419
840.3727	7447
842.772	7525
845.1666	7498
847.5626	7733
849.958	7656
852.3527	7722
854.7488	7610
857.1403	7702
859.5331	7664
861.9253	7575
864.3168	7514
866.7057	7514
869.098	7653
871.4876	7629
873.8746	7676
876.263	7654
878.6487	7585
881.0378	7675
883.4243	7594
885.8081	7538
888.1933	7500
890.5759	7465
892.9598	7599
895.343	7712
897.7256	7582
900.1057	7621
902.4871	7401
904.8659	7629
907.246	7621
909.6254	7664
912.0023	7762
914.3786	7731
916.7562	7777
919.1331	7933
921.5074	7953
923.8831	7975
926.2562	8014
928.6287	8131
931.0005	8020
933.3757	8029
935.7462	8044
938.1162	8006
940.4855	8039
942.8542	8204
945.2242	8279
947.5916	8324
949.9584	8523
952.3266	8774
954.6921	8986
957.0571	9322
959.4233	9771
961.787	9879
964.15	9844
966.5125	9705
968.8742	9221
971.2354	8953
973.5959	8573
975.9559	8455
978.3151	8275
980.6738	8106
983.0338	8059
985.3912	8112
987.7461	8017
990.1022	7851
992.4578	8024
994.8127	8021
997.1689	7822
999.5207	7887
1001.874	7928
1004.226	7881
1006.576	7887
1008.929	7962
1011.28	8016
1013.628	7821
1015.977	7842
1018.324	7926
1020.674	7888
1023.019	7981
1025.366	7940
1027.713	8027
1030.056	8063
1032.399	8081
1034.746	8108
1037.087	7912
1039.431	7985
1041.771	7977
1044.113	8120
1046.454	8092
1048.793	8047
1051.133	7999
1053.471	7994
1055.807	8109
1058.146	8140
1060.483	8132
1062.818	8135
1065.153	8168
1067.489	8144
1069.822	8158
1072.156	8170
1074.488	8213
1076.82	8248
1079.15	8047
1081.48	8178
1083.814	8194
1086.143	8171
1088.471	8056
1090.799	8099
1093.126	8044
1095.452	8067
1097.78	8058
1100.105	8032
1102.43	8158
1104.754	7944
1107.077	8065
1109.4	8154
1111.722	8102
1114.044	8076
1116.365	8124
1118.685	8050
1121.005	8001
1123.324	8083
1125.643	8150
1127.961	8141
1130.278	8026
1132.595	8052
1134.911	8119
1137.226	8003
1139.541	8086
1141.854	8027
1144.167	8004
1146.482	8214
1148.793	8034
1151.105	8084
1153.414	7977
1155.725	8023
1158.033	8039
1160.344	8011
1162.651	7977
1164.959	8151
1167.265	8139
1169.572	8217
1171.878	8145
1174.184	8155
1176.488	8116
1178.79	8264
1181.094	8176
1183.396	8178
1185.699	8130
1188.001	8190
1190.301	8144
1192.6	8054
1194.9	8096
1197.2	8114
1199.497	8135
1201.794	8141
1204.09	8110
1206.387	8116
1208.684	8234
1210.978	8224
1213.272	8153
1215.565	8177
1217.858	8160
1220.15	8299
1222.443	8192
1224.734	8208
1227.024	8257
1229.313	8242
1231.602	8346
1233.892	8365
1236.18	8271
1238.467	8419
1240.754	8417
1243.04	8701
1245.325	8514
1247.612	8542
1249.896	8427
1252.178	8527
1254.461	8457
1256.743	8412
1259.027	8499
1261.308	8507
1263.587	8487
1265.867	8575
1268.146	8524
1270.425	8437
1272.703	8479
1274.981	8483
1277.256	8377
1279.532	8424
1281.808	8412
1284.083	8389
1286.358	8551
1288.63	8381
1290.904	8250
1293.175	8426
1295.449	8434
1297.719	8436
1299.99	8194
1302.259	8279
1304.529	8399
1306.798	8295
1309.065	8400
1311.333	8429
1313.599	8272
1315.866	8443
1318.131	8305
1320.396	8352
1322.66	8330
1324.925	8285
1327.187	8338
1329.448	8514
1331.711	8436
1333.974	8320
1336.234	8391
1338.493	8348
1340.752	8349
1343.01	8379
1345.269	8380
1347.526	8405
1349.784	8335
1352.04	8420
1354.295	8339
1356.552	8400
1358.806	8291
1361.059	8367
1363.312	8496
1365.564	8302
1367.818	8441
1370.069	8474
1372.318	8424
1374.568	8314
1376.817	8489
1379.066	8408
1381.316	8446
1383.564	8439
1385.809	8531
1388.056	8465
1390.301	8389
1392.549	8442
1394.793	8562
1397.036	8528
1399.279	8608
1401.522	8625
1403.763	8477
1406.007	8574
1408.248	8683
1410.487	8659
1412.727	8662
1414.965	8602
1417.205	8817
1419.442	8560
1421.68	8541
1423.915	8721
1426.152	8677
1428.388	8684
1430.623	8647
1432.857	8685
1435.091	8632
1437.323	8785
1439.556	8808
1441.789	8615
1444.019	8868
1446.25	8909
1448.48	8926
1450.708	8743
1452.938	8915
1455.167	8943
1457.394	8850
1459.62	8872
1461.846	8727
1464.073	8781
1466.299	8667
1468.523	8742
1470.746	8677
1472.969	8644
1475.191	8715
1477.415	8564
1479.636	8624
1481.858	8443
1484.078	8543
1486.298	8516
1488.518	8465
1490.736	8448
1492.954	8364
1495.169	8434
1497.386	8429
1499.602	8419
1501.819	8320
1504.034	8389
1506.248	8298
1508.462	8221
1510.675	8163
1512.888	8365
1515.1	8247
1517.311	8368
1519.522	8382
1521.732	8352
1523.942	8449
1526.151	8299
1528.36	8317
1530.566	8289
1532.773	8454
1534.98	8305
1537.187	8299
1539.392	8505
1541.596	8351
1543.801	8453
1546.005	8373
1548.208	8455
1550.411	8382
1552.612	8561
1554.814	8414
1557.013	8397
1559.212	8495
1561.414	8429
1563.612	8527
1565.811	8659
1568.007	8568
1570.203	8604
1572.403	8636
1574.598	8530
1576.792	8551
1578.988	8656
1581.181	8643
1583.376	8596
1585.568	8527
1587.761	8527
1589.952	8561
1592.143	8640
1594.333	8623
1596.524	8704
1598.715	8634
1600.903	8601
1603.091	8681
1605.278	8861
1607.466	8705
1609.652	8787
1611.838	8813
1614.023	8661
1616.207	8651
1618.391	8679
1620.576	8705
1622.759	8731
1624.941	8681
1627.123	8710
1629.304	8827
1631.484	8821
1633.664	8781
1635.844	8801
1638.022	8782
1640.201	8723
1642.38	8781
1644.556	8743
1646.732	8855
1648.908	8803
1651.084	8738
1653.257	8810
1655.433	8803
1657.607	8844
1659.779	8861
1661.951	8704
1664.122	8854
1666.295	8843
1668.467	8793
1670.635	8782
1672.805	8961
1674.973	8906
1677.142	8863
1679.31	8804
1681.478	8860
1683.644	8838
1685.81	8810
1687.975	8784
1690.142	8756
1692.305	8818
1694.468	8693
1696.632	8649
1698.794	8649
1700.957	8702
1703.119	8620
1705.279	8708
1707.439	8726
1709.598	8648
1711.758	8472
1713.917	8599
1716.075	8626
1718.231	8626
1720.388	8557
1722.543	8629
1724.702	8671
1726.856	8486
1729.01	8637
1731.164	8680
1733.317	8545
1735.471	8685
1737.623	8670
1739.774	8619
1741.925	8503
1744.075	8527
1746.225	8637
1748.376	8593
1750.524	8558
1752.672	8629
1754.82	8848
1756.965	8588
1759.113	8539
1761.259	8648
1763.405	8617
1765.549	8730
1767.694	8602
1769.836	8661
1771.981	8554
1774.123	8797
1776.264	8620
1778.405	8752
1780.546	8686
1782.687	8621
1784.827	8686
1786.966	8805
1789.103	8682
1791.242	8804
1793.381	8816
1795.517	8773
1797.653	8711
1799.788	8659
1801.923	8645
1804.057	8830
1806.193	8687
1808.326	8830
1810.457	8792
1812.59	8598
1814.721	8719
1816.855	8775
1818.984	8784
1821.113	8766
1823.244	8608
1825.372	8709
1827.499	8711
1829.63	8765
1831.756	8582
1833.882	8719
1836.007	8649
1838.132	8610
1840.26	8622
1842.384	8608
1844.507	8527
1846.63	8759
1848.752	8630
1850.875	8678
1852.996	8435
1855.118	8592
1857.238	8747
1859.358	8644
1861.477	8607
1863.597	8694
1865.715	8519
1867.832	8721
1869.948	8751
1872.064	8622
1874.181	8535
1876.297	8570
1878.411	8538
1880.526	8524
1882.639	8675
1884.752	8628
1886.865	8606
1888.977	8569
1891.089	8760
1893.2	8776
1895.308	8635
1897.42	8716
1899.53	8607
1901.639	8707
1903.745	8655
1905.853	8734
1907.962	8703
1910.067	8751
1912.174	8582
1914.278	8771
1916.383	8722
1918.486	8665
1920.592	8717
1922.694	8783
1924.797	8585
1926.898	8781
1929	8735
1931.102	8642
1933.203	8712
1935.301	8663
1937.401	8786
1939.499	8868
1941.598	8723
1943.697	8749
1945.793	8639
1947.888	8759
1949.985	8768
1952.08	8761
1954.176	8756
1956.269	8775
1958.364	8731
1960.457	8533
1962.549	8815
1964.642	8787
1966.733	8651
1968.823	8696
1970.913	8649
1973.005	8811
1975.093	8652
1977.184	8744
1979.271	8627
1981.359	8767
1983.446	8695
1985.532	8780
1987.619	8624
1989.705	8729
1991.789	8644
1993.874	8631
1995.956	8640
1998.041	8813
2000.123	8689
2002.206	8618
2004.287	8738
2006.368	8653
2008.449	8609
2010.529	8476
2012.609	8545
2014.688	8581
2016.766	8617
2018.843	8578
2020.922	8521
2022.999	8551
2025.074	8685
2027.15	8548
2029.225	8509
2031.299	8586
2033.375	8668
2035.447	8729
2037.52	8525
2039.592	8583
2041.664	8672
2043.736	8537
2045.807	8571
2047.876	8556
2049.947	8626
2052.015	8624
2054.086	8780
2056.153	8686
2058.221	8564
2060.288	8419
2062.353	8552
2064.42	8607
2066.486	8575
2068.55	8634
2070.614	8601
2072.678	8566
2074.741	8800
2076.805	8656
2078.866	8666
2080.929	8710
2082.99	8569
2085.049	8589
2087.109	8545
2089.17	8630
2091.228	8597
2093.286	8497
2095.344	8742
2097.4	8482
2099.46	8572
2101.516	8707
2103.572	8605
2105.626	8675
2107.679	8676
2109.735	8492
2111.788	8524
2113.841	8748
2115.894	8595
2117.945	8676
2119.997	8714
2122.049	8594
2124.1	8549
2126.148	8669
2128.197	8715
2130.246	8450
2132.296	8525
2134.342	8573
2136.39	8588
2138.437	8481
2140.483	8566
2142.527	8666
2144.574	8387
2146.619	8542
2148.661	8602
2150.705	8584
2152.747	8553
2154.792	8492
2156.832	8594
2158.874	8570
2160.915	8444
2162.954	8408
2164.995	8487
2167.034	8368
2169.072	8525
2171.111	8456
2173.148	8462
2175.186	8424
2177.223	8489
2179.258	8540
2181.294	8560
2183.328	8395
2185.362	8381
2187.398	8285
2189.431	8377
2191.463	8289
2193.495	8431
2195.528	8388
2197.56	8528
2199.59	8441
2201.62	8381
2203.649	8362
2205.678	8362
2207.708	8295
2209.737	8251
2211.764	8248
2213.791	8441
2215.817	8319
2217.843	8361
2219.87	8411
2221.895	8347
2223.919	8317
2225.942	8393
2227.966	8252
2229.988	8316
2232.012	8238
2234.032	8424
2236.054	8287
2238.074	8351
2240.095	8420
2242.116	8238
2244.135	8432
2246.153	8338
2248.171	8341
2250.188	8340
2252.208	8239
2254.223	8250
2256.239	8303
2258.255	8326
2260.269	8293
2262.283	8310
2264.3	8390
2266.312	8397
2268.325	8409
2270.336	8350
2272.349	8385
2274.362	8344
2276.372	8235
2278.383	8123
2280.392	8327
2282.402	8335
2284.409	8358
2286.418	8270
2288.427	8347
2290.433	8294
2292.441	8359
2294.446	8326
2296.453	8340
2298.459	8406
2300.463	8270
2302.466	8307
2304.471	8304
2306.475	8249
2308.477	8307
2310.478	8340
2312.481	8318
2314.481	8275
2316.481	8307
2318.482	8242
2320.482	8300
2322.48	8183
2324.48	8105
2326.478	8114
2328.476	8220
2330.473	8200
2332.469	8092
2334.465	8207
2336.46	8140
2338.454	8197
2340.45	8243
2342.444	8113
2344.437	8174
2346.43	8140
2348.421	8221
2350.414	8087
2352.405	8337
2354.396	8119
2356.386	8118
2358.376	8094
2360.366	8137
2362.355	8186
2364.343	8063
2366.331	7936
2368.317	8041
2370.304	8164
2372.292	8049
2374.278	8000
2376.262	8051
2378.247	8160
2380.23	8009
2382.216	8124
2384.199	8026
2386.181	8127
2388.163	8015
2390.144	7987
2392.127	7951
2394.107	7984
2396.087	8052
2398.066	8022
2400.046	8083
2402.023	7992
2404.004	7819
2405.981	8037
2407.957	7986
2409.934	7883
2411.91	7981
2413.886	8026
2415.862	8012
2417.836	7949
2419.809	8093
2421.784	7932
2423.756	7941
2425.73	7948
2427.701	7930
2429.672	7992
2431.644	7994
2433.615	7927
2435.586	7950
2437.555	7960
2439.523	8015
2441.491	7887
2443.459	7911
2445.428	7986
2447.395	8048
2449.361	7952
2451.327	7878
2453.292	7913
2455.257	7974
2457.223	7936
2459.187	7909
2461.15	8001
2463.113	7922
2465.076	7903
2467.039	7856
2468.999	8036
2470.96	7716
2472.921	7754
2474.881	7993
2476.841	7867
2478.8	7911
2480.759	7854
2482.717	7804
2484.675	7873
2486.63	7802
2488.589	7786
2490.545	7754
2492.5	7765
2494.455	7809
2496.408	7925
2498.364	7853
2500.318	7770
2502.27	7894
2504.223	7862
2506.174	7849
2508.126	7751
2510.078	7924
2512.03	7781
2513.979	7788
2515.927	7731
2517.877	7906
2519.826	7849
2521.775	7665
2523.722	7706
2525.668	7927
2527.616	7829
2529.561	7752
2531.508	7868
2533.452	7785
2535.398	7726
2537.342	7770
2539.284	7794
2541.229	7865
2543.173	7849
2545.114	7761
2547.055	7706
2548.996	7715
2550.938	7744
2552.878	7812
2554.817	7739
2556.756	7720
2558.695	7801
2560.633	7676
2562.572	7690
2564.509	7720
2566.445	7761
2568.382	7621
2570.317	7682
2572.254	7643
2574.189	7807
2576.123	7791
2578.057	7727
2579.99	7776
2581.923	7691
2583.855	7737
2585.788	7794
2587.719	7758
2589.65	7704
2591.579	7805
2593.511	7723
2595.44	7736
2597.37	7806
2599.297	7728
2601.225	7786
2603.153	7706
2605.08	7695
2607.007	7597
2608.932	7845
2610.858	7919
2612.782	7746
2614.709	7783
2616.632	7695
2618.556	7710
2620.478	7777
2622.401	7744
2624.324	7776
2626.247	7894
2628.167	7812
2630.088	7850
2632.008	7756
2633.928	7785
2635.848	7798
2637.766	7792
2639.684	7722
2641.603	7713
2643.519	7727
2645.437	7693
2647.353	7806
2649.27	7712
2651.184	7533
2653.099	7743
2655.014	7631
2656.928	7709
2658.842	7848
2660.755	7647
2662.667	7682
2664.579	7641
2666.491	7627
2668.402	7770
2670.312	7721
2672.222	7698
2674.132	7692
2676.042	7710
2677.951	7755
2679.859	7658
2681.766	7643
2683.674	7676
2685.582	7753
2687.488	7769
2689.392	7767
2691.298	7657
2693.202	7631
2695.107	7752
2697.012	7636
2698.914	7587
2700.817	7676
2702.72	7599
2704.622	7504
2706.524	7704
2708.425	7507
2710.326	7647
2712.225	7601
2714.125	7655
2716.024	7633
2717.923	7594
2719.822	7572
2721.719	7472
2723.616	7488
2725.512	7484
2727.41	7577
2729.305	7780
2731.201	7621
2733.095	7668
2734.99	7636
2736.884	7534
2738.778	7466
2740.67	7530
2742.562	7625
2744.455	7532
2746.346	7529
2748.238	7499
2750.129	7538
2752.018	7463
2753.907	7462
2755.797	7502
2757.687	7560
2759.575	7444
2761.462	7497
2763.349	7470
2765.237	7468
2767.124	7604
2769.009	7343
2770.894	7524
2772.779	7447
2774.663	7531
2776.547	7460
2778.431	7428
2780.314	7498
2782.197	7563
2784.078	7441
2785.96	7382
2787.842	7471
2789.723	7439
2791.603	7506
2793.483	7369
2795.362	7325
2797.241	7478
2799.121	7565
2800.997	7401
2802.874	7405
2804.751	7378
2806.628	7331
2808.506	7389
2810.38	7490
2812.255	7338
2814.13	7349
2816.003	7514
2817.878	7378
2819.752	7437
2821.623	7404
2823.496	7467
2825.368	7372
2827.238	7350
2829.111	7442
2830.98	7448
2832.851	7392
2834.719	7456
2836.589	7411
2838.458	7412
2840.327	7449
2842.193	7442
2844.061	7433
2845.927	7326
2847.794	7379
2849.66	7459
2851.525	7511
2853.39	7516
2855.254	7483
2857.117	7408
2858.983	7625
2860.845	7531
2862.707	7550
2864.569	7551
2866.431	7639
2868.293	7574
2870.154	7718
2872.013	7874
2873.873	7782
2875.733	7788
2877.592	7707
2879.451	7943
2881.309	8067
2883.166	8078
2885.022	8148
2886.879	8175
2888.736	8098
2890.591	8193
2892.446	8232
2894.301	8179
2896.155	8084
2898.009	8017
2899.863	8039
2901.716	8022
2903.568	8207
2905.419	8215
2907.27	8101
2909.123	8254
2910.973	8169
2912.824	8205
2914.673	8201
2916.521	8224
2918.372	8371
2920.22	8428
2922.067	8425
2923.914	8446
2925.761	8519
2927.607	8645
2929.455	8623
2931.301	8709
2933.144	8723
2934.99	8693
2936.833	8815
2938.678	8973
2940.522	8937
2942.364	9106
2944.207	9290
2946.048	9305
2947.891	9265
2949.731	9218
2951.571	9246
2953.412	9274
2955.25	9060
2957.09	8968
2958.93	8928
2960.767	8880
2962.606	8802
2964.443	8820
2966.279	8720
2968.116	8578
2969.953	8461
2971.788	8504
2973.623	8252
2975.457	8358
2977.292	8172
2979.127	8127
2980.959	8320
2982.792	8173
2984.624	8194
2986.455	8157
2988.288	8095
2990.119	8009
2991.949	7995
2993.779	7887
2995.608	7909
2997.439	7683
2999.268	7609
3001.096	7657
3002.923	7692
3004.751	7668
3006.578	7483
3008.406	7548
3010.232	7519
3012.057	7417
3013.883	7427
3015.706	7418
3017.532	7312
3019.356	7229
3021.179	7189
3023.002	7338
3024.823	7166
3026.646	7192
3028.469	7052
3030.289	7104
3032.11	6934
3033.93	7172
3035.749	7004
3037.57	7133
3039.39	7108
3041.207	7003
3043.026	7009
3044.842	6966
3046.661	6939
3048.477	6951
3050.294	6906
3052.109	7039
3053.925	7017
3055.739	6957
3057.555	6976
3059.368	6855
3061.181	6848
3062.995	6893
3064.807	6930
3066.62	6877
3068.433	6941
3070.243	6909
3072.054	6991
3073.865	6934
3075.675	6888
3077.485	6854
3079.293	6923
3081.102	6920
3082.911	6888
3084.719	6723
3086.527	6939
3088.333	6778
3090.139	6723
3091.945	6725
3093.75	6881
3095.557	6694
3097.361	6667
3099.165	6686
3100.969	6801
3102.772	6811
3104.575	6698
3106.379	6756
3108.181	6631
3109.982	6701
3111.783	6699
3113.584	6665
3115.386	6605
3117.186	6594
3118.985	6616
3120.783	6674
3122.582	6608
3124.381	6558
3126.179	6590
3127.975	6601
3129.772	6586
3131.569	6602
3133.365	6654
3135.161	6645
3136.956	6663
3138.751	6532
3140.544	6515
3142.338	6603
3144.132	6497
3145.925	6542
3147.717	6593
3149.509	6568
3151.301	6549
3153.091	6560
3154.884	6649
3156.673	6399
3158.462	6512
3160.252	6530
3162.041	6485
3163.831	6589
3165.618	6417
3167.405	6539
3169.193	6432
3170.979	6566
3172.767	6483
3174.553	6558
3176.338	6400
3178.123	6539
3179.907	6457
3181.692	6469
3183.477	6325
3185.259	6443
3187.042	6383
3188.824	6543
3190.607	6489
3192.389	6432
3194.17	6406
3195.951	6450
3197.73	6382
3199.51	6375
3201.289	6414
3203.07	6429
3204.848	6572
3206.626	6402
3208.403	6472
3210.18	6281
3211.959	6395
3213.735	6370
3215.511	6458
3217.285	6301
3219.06	6445
3220.836	6374
3222.611	6379
3224.384	6598
3226.158	6465
3227.929	6339
3229.702	6401
3231.476	6502
3233.248	6314
3235.018	6326
3236.789	6440
3238.56	6421
3240.33	6378
3242.1	6451
3243.869	6434
3245.637	6361
3247.405	6377
3249.172	6379
3250.941	6477
3252.707	6401
3254.474	6344
3256.24	6402
3258.006	6419
3259.772	6370
3261.537	6331
3263.301	6448
3265.065	6328
3266.828	6439
3268.592	6466
3270.355	6376
3272.117	6474
3273.878	6501
3275.64	6360
3277.401	6392
3279.162	6425
3280.922	6357
3282.682	6434
3284.441	6400
3286.199	6350
3287.959	6452
3289.716	6432
3291.475	6360
3293.232	6408
3294.988	6315
3296.744	6405
3298.501	6339
3300.256	6403
3302.011	6431
3303.766	6320
3305.52	6514
3307.275	6318
3309.028	6388
3310.781	6407
3312.533	6295
3314.285	6357
3316.038	6214
3317.789	6296
3319.54	6263
3321.289	6394
3323.039	6348
3324.789	6363
3326.539	6291
3328.288	6303
3330.035	6318
3331.783	6275
3333.531	6267
3335.28	6357
3337.025	6314
3338.771	6166
3340.518	6300
3342.262	6367
3344.009	6316
3345.753	6270
3347.497	6212
3349.24	6365
3350.983	6252
3352.726	6288
3354.469	6354
3356.212	6263
3357.952	6310
3359.694	6262
3361.434	6111
3363.176	6175
3364.916	6230
3366.654	6192
3368.394	6098
3370.132	6204
3371.871	6097
3373.61	6251
3375.346	6183
3377.083	6107
3378.82	6128
3380.556	6043
3382.292	6143
3384.027	6237
3385.763	6073
3387.497	6161
3389.231	6123
3390.965	6165
3392.698	6090
3394.431	6049
3396.164	6126
3397.896	6152
3399.627	6077
3401.36	6025
3403.09	6149
3404.82	6145
3406.55	6005
3408.279	6032
3410.01	5989
3411.738	6055
3413.467	6093
3415.194	6012
3416.92	6058
3418.647	5951
3420.375	6086
3422.102	6056
3423.827	6066
3425.553	6051
3427.277	6018
3429.003	5971
3430.727	5899
3432.451	5957
3434.173	5959
3435.896	5976
3437.62	5992
3439.343	6077
3441.063	6000
3442.785	5861
3444.505	5870
3446.226	5797
3447.948	5901
3449.666	5954
3451.386	5872
3453.104	5798
3454.823	5899
3456.541	5861
3458.259	5733
3459.976	5799
3461.693	5799
3463.408	5828
3465.125	5779
3466.841	5815
3468.556	5733
3470.271	5722
3471.985	5782
3473.698	5737
3475.414	5804
3477.126	5710
3478.838	5703
3480.55	5656
3482.263	5563
3483.975	5777
3485.686	5610
3487.396	5466
3489.106	5698
3490.817	5675
3492.526	5650
3494.236	5735
3495.944	5650
3497.652	5632
3499.359	5549
3501.066	5501
3502.775	5494
3504.481	5556
3506.187	5566
3507.893	5718
3509.598	5546
3511.304	5609
3513.009	5580
3514.713	5549
3516.417	5492
3518.12	5469
3519.821	5592
3521.525	5516
3523.228	5483
3524.929	5597
3526.631	5569
3528.33	5484
3530.032	5558
3531.733	5612
3533.433	5484
3535.131	5425
3536.83	5560
3538.529	5457
3540.227	5426
3541.925	5386
3543.623	5384
3545.319	5403
3547.016	5450
3548.712	5393
3550.408	5407
3552.103	5448
3553.798	5372
3555.491	5478
3557.188	5392
3558.88	5480
3560.574	5296
3562.266	5388
3563.959	5409
3565.651	5350
3567.343	5366
3569.035	5312
3570.725	5327
3572.415	5310
3574.106	5320
3575.797	5344
3577.485	5306
3579.174	5346
3580.863	5301
3582.551	5213
3584.238	5329
3585.926	5234
3587.613	5255
3589.3	5222
3590.986	5263
3592.671	5299
3594.357	5222
3596.042	5204
3597.726	5201
3599.41	5170
3601.094	5309
3602.778	5207
3604.461	5244
3606.143	5116
3607.825	5223
3609.507	5176
3611.188	5132
3612.87	5167
3614.551	5094
3616.229	5144
3617.909	5140
3619.589	5042
3621.269	5166
3622.948	5106
3624.625	5041
3626.302	5101
3627.98	5023
3629.657	5112
3631.334	5010
3633.01	4994
3634.686	4974
3636.361	4981
3638.036	5051
3639.712	4937
3641.385	4971
3643.06	4918
3644.732	4991
3646.405	4988
3648.08	4933
3649.751	4930
3651.424	4933
3653.094	4967
3654.766	5006
3656.436	4932
3658.106	4883
3659.777	4858
3661.446	4974
3663.115	4888
3664.783	4841
3666.452	4956
3668.121	4819
3669.788	4940
3671.454	4870
3673.121	4853
3674.789	4835
3676.455	4919
3678.12	4830
3679.784	4864
3681.45	4865
3683.114	4851
3684.779	4801
3686.442	4847
3688.105	4832
3689.768	4758
3691.43	4873
3693.093	4957
3694.754	4683
3696.415	4785
3698.076	4798
3699.736	4890
3701.396	4768
3703.057	4785
3704.716	4801
3706.375	4856
3708.034	4765
3709.692	4792
3711.351	4767
3713.008	4742
3714.665	4778
3716.321	4721
3717.977	4762
3719.634	4666
3721.29	4840
3722.945	4813
3724.598	4635
3726.253	4861
3727.907	4785
3729.561	4689
3731.214	4693
3732.867	4715
3734.518	4708
3736.171	4729
3737.824	4713
3739.474	4680
3741.125	4688
3742.775	4674
3744.425	4735
3746.074	4666
3747.725	4718
3749.373	4656
3751.022	4764
3752.669	4687
3754.318	4665
3755.966	4539
3757.612	4684
3759.259	4620
3760.905	4730
3762.55	4668
3764.197	4605
3765.842	4604
3767.486	4651
3769.131	4620
3770.774	4710
3772.417	4554
3774.061	4643
3775.705	4541
3777.347	4580
3778.988	4660
3780.629	4630
3782.271	4568
3783.912	4535
3785.552	4609
3787.192	4617
3788.831	4589
3790.472	4518
3792.112	4630
3793.75	4502
3795.388	4501
3797.024	4542
3798.661	4602
3800.3	4485
3801.936	4516
3803.572	4414
3805.208	4472
3806.844	4453
3808.48	4538
3810.115	4533
3811.748	4487
3813.382	4537
3815.016	4471
3816.649	4428
3818.283	4465
3819.914	4383
3821.547	4424
3823.178	4468
3824.809	4458
3826.441	4479
3828.072	4373
3829.701	4422
3831.331	4344
3832.96	4414
3834.591	4367
3836.219	4386
3837.847	4392
3839.475	4422
3841.102	4404
3842.729	4344
3844.357	4424
3845.984	4351
3847.609	4229
3849.234	4345
3850.86	4304
3852.485	4444
3854.11	4410
3855.734	4385
3857.357	4320
3858.981	4325
3860.603	4338
3862.227	4337
3863.848	4317
3865.471	4285
3867.092	4333
3868.713	4274
3870.334	4316
3871.954	4220
3873.575	4368
3875.194	4333
3876.813	4321
3878.433	4311
3880.051	4344
3881.669	4345
3883.286	4258
3884.904	4231
3886.52	4285
3888.138	4296
3889.754	4314
3891.37	4370
3892.985	4259
3894.6	4277
3896.216	4274
3897.831	4267
3899.444	4174
3901.058	4258
3902.67	4275
3904.283	4243
3905.897	4238
3907.509	4313
3909.121	4150
3910.731	4209
3912.342	4191
3913.954	4322
3915.563	4276
3917.174	4212
3918.783	4259
3920.391	4183
3922.002	4246
3923.611	4249
3925.218	4209
3926.826	4200
3928.432	4237
3930.039	4216
3931.647	4295
3933.253	4146
3934.859	4198
3936.464	4250
3938.068	4230
3939.675	4140
3941.278	4255
3942.883	4295
3944.486	4194
3946.089	4132
3947.692	4179
3949.295	4199
3950.898	4129
3952.499	4085
3954.1	4120
3955.7	4157
3957.303	4155
3958.903	4117
3960.502	4128
3962.101	4132
3963.7	4060
3965.301	4092
3966.899	4111
3968.497	4033
3970.094	4172
3971.691	4024
3973.288	3985
3974.885	4040
3976.481	4166
3978.077	4024
3979.672	4073
3981.267	4055
3982.863	4054
3984.457	4079
3986.051	3993
3987.645	3992
3989.238	4044
3990.831	4056
3992.425	3953
3994.017	4041
3995.607	4017
3997.199	3971
3998.79	4045
4000.382	3916
4001.973	4041
4003.561	3927
4005.151	3929
4006.741	3937
4008.331	3895
4009.918	3972
4011.507	4001
4013.095	3934
4014.681	3899
4016.269	3998
4017.856	3929
4019.443	3874
4021.028	3947
4022.614	3888
4024.199	3871
4025.785	3940
4027.37	3831
4028.953	3801
4030.536	3864
4032.12	3754
4033.704	3863
4035.287	3968
4036.869	3820
4038.45	3800
4040.032	3897
4041.613	3843
4043.195	3838
4044.776	3909
4046.356	3860
4047.935	3759
4049.515	3915
4051.095	3718
4052.674	3873
4054.251	3845
4055.829	3745
4057.406	3885
4058.985	3791
4060.562	3768
4062.139	3809
4063.715	3772
4065.29	3732
4066.865	3804
4068.442	3798
4070.016	3803
4071.59	3819
4073.164	3801
4074.738	3764
4076.312	3812
4077.885	3768
4079.458	3741
4081.03	3664
4082.602	3808
4084.173	3765
4085.745	3738
4087.315	3795
4088.886	3703
4090.456	3767
4092.026	3672
4093.596	3754
4095.165	3742
4096.734	3756
4098.301	3747
4099.869	3749
4101.437	3717
4103.006	3655
4104.572	3750
4106.139	3644
4107.704	3688
4109.27	3659
4110.837	3656
4112.401	3672
4113.966	3650
4115.53	3635
4117.094	3726
4118.659	3660
4120.223	3585
4121.785	3641
4123.347	3659
4124.909	3666
4126.471	3675
4128.034	3698
4129.595	3564
4131.155	3538
4132.716	3662
4134.275	3568
4135.836	3654
4137.395	3607
4138.955	3639
4140.513	3596
4142.071	3588
4143.628	3590
4145.188	3526
4146.745	3551
4148.302	3590
4149.858	3506
4151.414	3533
4152.971	3548
4154.526	3567
4156.081	3584
4157.635	3527
4159.189	3507
4160.745	3503
4162.298	3437
4163.852	3548
4165.405	3463
4166.957	3516
4168.51	3505
4170.063	3582
4171.614	3442
4173.166	3473
4174.717	3485
4176.267	3555
4177.817	3468
4179.368	3447
4180.917	3447
4182.466	3534
4184.016	3442
4185.564	3443
4187.112	3456
4188.66	3457
4190.207	3406
4191.754	3430
4193.301	3471
4194.848	3443
4196.394	3409
4197.94	3373
4199.484	3437
4201.03	3415
4202.575	3364
4204.12	3460
4205.663	3429
4207.207	3341
4208.75	3379
4210.292	3452
4211.836	3457
4213.378	3441
4214.92	3446
4216.46	3327
4218.002	3446
4219.544	3411
4221.083	3418
4222.625	3337
4224.164	3354
4225.703	3358
4227.244	3356
4228.782	3399
4230.32	3464
4231.857	3401
4233.395	3374
4234.933	3375
4236.471	3346
4238.007	3405
4239.542	3352
4241.078	3357
4242.614	3348
4244.15	3278
4245.685	3404
4247.219	3318
4248.753	3379
4250.287	3309
4251.82	3300
4253.354	3318
4254.887	3350
4256.419	3329
4257.951	3328
4259.483	3309
4261.016	3334
4262.547	3372
4264.078	3300
4265.608	3283
4267.137	3279
4268.668	3267
4270.197	3280
4271.727	3288
4273.254	3252
4274.783	3226
4276.311	3210
4277.84	3273
4279.366	3283
4280.894	3168
4282.42	3271
4283.946	3199
4285.473	3263
4286.998	3209
4288.523	3206
4290.047	3253
4291.572	3202
4293.096	3178
4294.622	3211
4296.144	3226
4297.668	3189
4299.19	3251
4300.713	3283
4302.236	3197
4303.758	3205
4305.279	3210
4306.799	3186
4308.321	3211
4309.842	3155
4311.361	3203
4312.882	3177
4314.401	3222
