400.0961	3906
402.6185	3818
405.1424	3870
407.6635	3814
410.1838	3836
412.7035	3916
415.2225	3983
417.7388	3951
420.2585	3924
422.7754	3970
425.2917	4095
427.8072	4116
430.3221	4051
432.8363	4185
435.3498	4004
437.8626	4206
440.3727	4114
442.8841	4119
445.3969	4161
447.907	4156
450.4142	4107
452.9229	4062
455.4289	4066
457.9362	3980
460.4449	4053
462.9488	4021
465.454	4042
467.9566	3980
470.4604	3952
472.9637	4118
475.4662	4059
477.966	4015
480.4671	4062
482.9656	4111
485.4633	4083
487.9645	4156
490.4608	4209
492.9566	4060
495.4536	4132
497.948	4162
500.4437	4142
502.9387	4122
505.431	4110
507.9226	4159
510.4136	4163
512.9079	4152
515.3975	4221
517.8864	4211
520.3746	4193
522.8622	4154
525.3491	4145
527.8394	4118
530.3249	4232
532.8098	4304
535.2939	4248
537.7774	4227
540.2623	4187
542.7444	4218
545.2259	4186
547.7067	4253
550.1868	4281
552.6683	4284
555.147	4169
557.6231	4277
560.1005	4315
562.5773	4322
565.0534	4265
567.5308	4256
570.0056	4354
572.4776	4270
574.951	4433
577.4237	4379
579.8978	4368
582.3671	4406
584.8378	4362
587.3079	4455
589.7773	4483
592.244	4514
594.714	4428
597.1793	4414
599.6461	4383
602.1121	4456
604.5754	4346
607.0421	4381
609.5042	4401
611.9675	4331
614.4282	4382
616.8902	4427
619.3515	4345
621.8122	4393
624.2702	4295
626.7296	4416
629.1863	4272
631.6423	4345
634.1017	4335
636.5563	4292
639.0104	4320
641.4658	4405
643.9185	4374
646.3725	4300
648.8239	4347
651.2766	4362
653.7266	4417
656.176	4426
658.6247	4422
661.0748	4390
663.5242	4483
665.9709	4394
668.417	4509
670.8624	4468
673.3092	4486
675.7533	4424
678.1968	4466
680.6395	4464
683.0817	4461
685.5251	4423
687.9659	4517
690.4061	4587
692.8456	4455
695.2844	4488
697.7226	4512
700.1621	4526
702.599	4546
705.0332	4557
707.4688	4553
709.9036	4584
712.3399	4575
714.7735	4626
717.2044	4590
719.6367	4611
722.0683	4660
724.4993	4636
726.9296	4654
729.3593	4655
731.7883	4668
734.2147	4668
736.6423	4700
739.0714	4606
741.4958	4708
743.9216	4725
746.3447	4684
748.7691	4761
751.1929	4669
753.616	4859
756.0366	4802
758.4584	4744
760.8776	4820
763.2982	4821
765.718	4721
768.1373	4899
770.5539	4846
772.9698	4850
775.3871	4772
777.8038	4831
780.2178	4739
782.6332	4961
785.0459	4836
787.458	4869
789.8714	4788
792.2842	4760
794.6943	4750
797.1038	4828
799.5127	4842
801.9209	4893
804.3324	4893
806.7393	4821
809.1456	4850
811.5513	4858
813.9562	5016
816.3625	4910
818.7663	4945
821.1693	4929
823.5718	4916
825.9735	4927
828.3746	4893
830.7771	4806
833.177	4941
835.5762	4967
837.9747	4909
840.3727	4891
842.772	4978
845.1666	4995
847.5626	5040
849.958	5029
852.3527	5167
854.7488	5062
857.1403	5194
859.5331	5086
861.9253	4984
864.3168	5155
866.7057	5115
869.098	5095
871.4876	5091
873.8746	5040
876.263	5167
878.6487	5076
881.0378	5059
883.4243	5047
885.8081	5069
888.1933	5090
890.5759	5061
892.9598	4983
895.343	5017
897.7256	4974
900.1057	5007
902.4871	5085
904.8659	5153
907.246	5082
909.6254	5172
912.0023	5161
914.3786	5219
916.7562	5348
919.1331	5359
921.5074	5489
923.8831	5527
926.2562	5324
928.6287	5550
931.0005	5412
933.3757	5448
935.7462	5508
938.1162	5481
940.4855	5483
942.8542	5442
945.2242	5517
947.5916	5617
949.9584	5751
952.3266	5986
954.6921	6129
957.0571	6319
959.4233	6484
961.787	6678
964.15	6720
966.5125	6458
968.8742	6191
971.2354	6040
973.5959	5696
975.9559	5590
978.3151	5494
980.6738	5411
983.0338	5412
985.3912	5246
987.7461	5298
990.1022	5308
992.4578	5233
994.8127	5255
997.1689	5268
999.5207	5330
1001.874	5299
1004.226	5296
1006.576	5328
1008.929	5287
1011.28	5232
1013.628	5303
1015.977	5267
1018.324	5257
1020.674	5332
1023.019	5344
1025.366	5218
1027.713	5336
1030.056	5394
1032.399	5294
1034.746	5291
1037.087	5387
1039.431	5352
1041.771	5375
1044.113	5320
1046.454	5281
1048.793	5333
1051.133	5381
1053.471	5313
1055.807	5482
1058.146	5328
1060.483	5393
1062.818	5298
1065.153	5504
1067.489	5411
1069.822	5426
1072.156	5440
1074.488	5480
1076.82	5485
1079.15	5514
1081.48	5323
1083.814	5381
1086.143	5379
1088.471	5381
1090.799	5361
1093.126	5390
1095.452	5397
1097.78	5267
1100.105	5465
1102.43	5400
1104.754	5371
1107.077	5382
1109.4	5399
1111.722	5397
1114.044	5364
1116.365	5507
1118.685	5377
1121.005	5427
1123.324	5382
1125.643	5487
1127.961	5358
1130.278	5499
1132.595	5416
1134.911	5372
1137.226	5368
1139.541	5281
1141.854	5422
1144.167	5349
1146.482	5390
1148.793	5372
1151.105	5350
1153.414	5303
1155.725	5380
1158.033	5304
1160.344	5378
1162.651	5489
1164.959	5353
1167.265	5366
1169.572	5333
1171.878	5332
1174.184	5380
1176.488	5338
1178.79	5491
1181.094	5393
1183.396	5473
1185.699	5458
1188.001	5378
1190.301	5392
1192.6	5356
1194.9	5416
1197.2	5272
1199.497	5450
1201.794	5375
1204.09	5299
1206.387	5338
1208.684	5442
1210.978	5372
1213.272	5404
1215.565	5367
1217.858	5427
1220.15	5456
1222.443	5511
1224.734	5428
1227.024	5544
1229.313	5585
1231.602	5540
1233.892	5453
1236.18	5587
1238.467	5657
1240.754	5747
1243.04	5623
1245.325	5574
1247.612	5593
1249.896	5678
1252.178	5720
1254.461	5691
1256.743	5741
1259.027	5729
1261.308	5668
1263.587	5683
1265.867	5727
1268.146	5616
1270.425	5764
1272.703	5800
1274.981	5792
1277.256	5684
1279.532	5658
1281.808	5621
1284.083	5653
1286.358	5549
1288.63	5614
1290.904	5571
1293.175	5568
1295.449	5505
1297.719	5655
1299.99	5605
1302.259	5429
1304.529	5571
1306.798	5620
1309.065	5691
1311.333	5605
1313.599	5564
1315.866	5602
1318.131	5586
1320.396	5631
1322.66	5488
1324.925	5600
1327.187	5593
1329.448	5706
1331.711	5676
1333.974	5664
1336.234	5618
1338.493	5600
1340.752	5617
1343.01	5493
1345.269	5484
1347.526	5594
1349.784	5527
1352.04	5540
1354.295	5444
1356.552	5472
1358.806	5576
1361.059	5586
1363.312	5568
1365.564	5549
1367.818	5625
1370.069	5554
1372.318	5510
1374.568	5477
1376.817	5732
1379.066	5475
1381.316	5636
1383.564	5684
1385.809	5724
1388.056	5683
1390.301	5743
1392.549	5854
1394.793	6050
1397.036	5956
1399.279	5900
1401.522	5946
1403.763	5907
1406.007	5893
1408.248	5883
1410.487	5881
1412.727	5827
1414.965	5901
1417.205	5858
1419.442	5947
1421.68	5805
1423.915	5909
1426.152	5769
1428.388	5760
1430.623	5806
1432.857	5743
1435.091	5879
1437.323	5992
1439.556	5776
1441.789	5905
1444.019	5823
1446.25	5925
1448.48	5921
1450.708	5960
1452.938	5974
1455.167	6052
1457.394	5947
1459.62	6119
1461.846	6018
1464.073	6030
1466.299	5916
1468.523	5952
1470.746	5889
1472.969	5825
1475.191	5695
1477.415	5807
1479.636	5703
1481.858	5633
1484.078	5595
1486.298	5581
1488.518	5521
1490.736	5602
1492.954	5564
1495.169	5413
1497.386	5607
1499.602	5666
1501.819	5523
1504.034	5635
1506.248	5550
1508.462	5624
1510.675	5445
1512.888	5500
1515.1	5644
1517.311	5485
1519.522	5548
1521.732	5494
1523.942	5579
1526.151	5606
1528.36	5540
1530.566	5458
1532.773	5533
1534.98	5539
1537.187	5526
1539.392	5601
1541.596	5553
1543.801	5536
1546.005	5476
1548.208	5595
1550.411	5613
1552.612	5590
1554.814	5676
1557.013	5568
1559.212	5666
1561.414	5685
1563.612	5694
1565.811	5716
1568.007	5659
1570.203	5792
1572.403	5589
1574.598	5604
1576.792	5628
1578.988	5731
1581.181	5674
1583.376	5692
1585.568	5781
1587.761	5695
1589.952	5768
1592.143	5715
1594.333	5759
1596.524	5729
1598.715	5765
1600.903	5751
1603.091	5757
1605.278	5696
1607.466	5797
1609.652	5700
1611.838	5741
1614.023	5721
1616.207	5726
1618.391	5836
1620.576	5718
1622.759	5911
1624.941	5753
1627.123	5720
1629.304	5881
1631.484	5806
1633.664	5904
1635.844	5889
1638.022	5828
1640.201	5918
1642.38	5824
1644.556	5954
1646.732	5909
1648.908	5817
1651.084	5970
1653.257	5818
1655.433	5846
1657.607	5875
1659.779	6005
1661.951	5934
1664.122	5855
1666.295	5857
1668.467	5997
1670.635	5876
1672.805	5981
1674.973	6044
1677.142	6052
1679.31	5874
1681.478	5911
1683.644	5989
1685.81	5890
1687.975	5919
1690.142	5892
1692.305	5859
1694.468	5830
1696.632	5807
1698.794	5772
1700.957	5797
1703.119	5780
1705.279	5834
1707.439	5802
1709.598	5775
1711.758	5666
1713.917	5686
1716.075	5663
1718.231	5596
1720.388	5797
1722.543	5746
1724.702	5747
1726.856	5811
1729.01	5718
1731.164	5670
1733.317	5607
1735.471	5753
1737.623	5748
1739.774	5574
1741.925	5749
1744.075	5701
1746.225	5768
1748.376	5669
1750.524	5662
1752.672	5808
1754.82	5709
1756.965	5833
1759.113	5690
1761.259	5703
1763.405	5639
1765.549	5628
1767.694	5811
1769.836	5885
1771.981	5769
1774.123	5771
1776.264	5725
1778.405	5794
1780.546	5754
1782.687	5796
1784.827	5725
1786.966	5729
1789.103	5768
1791.242	5761
1793.381	5767
1795.517	5806
1797.653	5755
1799.788	5791
1801.923	5841
1804.057	5688
1806.193	5719
1808.326	5833
1810.457	5733
1812.59	5695
1814.721	5734
1816.855	5702
1818.984	5805
1821.113	5672
1823.244	5596
1825.372	5769
1827.499	5623
1829.63	5741
1831.756	5780
1833.882	5726
1836.007	5849
1838.132	5758
1840.26	5674
1842.384	5770
1844.507	5728
1846.63	5761
1848.752	5629
1850.875	5695
1852.996	5832
1855.118	5682
1857.238	5772
1859.358	5672
1861.477	5757
1863.597	5660
1865.715	5732
1867.832	5699
1869.948	5712
1872.064	5714
1874.181	5785
1876.297	5677
1878.411	5670
1880.526	5671
1882.639	5577
1884.752	5690
1886.865	5687
1888.977	5729
1891.089	5678
1893.2	5748
1895.308	5715
1897.42	5731
1899.53	5753
1901.639	5720
1903.745	5670
1905.853	5749
1907.962	5778
1910.067	5708
1912.174	5771
1914.278	5733
1916.383	5710
1918.486	5719
1920.592	5779
1922.694	5860
1924.797	5802
1926.898	5866
1929	5742
1931.102	5797
1933.203	5711
1935.301	5892
1937.401	5753
1939.499	5811
1941.598	5782
1943.697	5685
1945.793	5790
1947.888	5816
1949.985	5830
1952.08	5749
1954.176	5731
1956.269	5733
1958.364	5743
1960.457	5809
1962.549	5935
1964.642	5793
1966.733	5815
1968.823	5782
1970.913	5711
1973.005	5724
1975.093	5827
1977.184	5758
1979.271	5766
1981.359	5671
1983.446	5607
1985.532	5764
1987.619	5614
1989.705	5778
1991.789	5800
1993.874	5763
1995.956	5773
1998.041	5852
2000.123	5636
2002.206	5659
2004.287	5633
2006.368	5802
2008.449	5740
2010.529	5599
2012.609	5688
2014.688	5665
2016.766	5648
2018.843	5695
2020.922	5759
2022.999	5783
2025.074	5632
2027.15	5706
2029.225	5721
2031.299	5722
2033.375	5768
2035.447	5721
2037.52	5716
2039.592	5767
2041.664	5763
2043.736	5684
2045.807	5741
2047.876	5634
2049.947	5798
2052.015	5715
2054.086	5787
2056.153	5750
2058.221	5675
2060.288	5759
2062.353	5616
2064.42	5623
2066.486	5629
2068.55	5764
2070.614	5637
2072.678	5682
2074.741	5729
2076.805	5675
2078.866	5727
2080.929	5789
2082.99	5676
2085.049	5808
2087.109	5773
2089.17	5720
2091.228	5839
2093.286	5729
2095.344	5681
2097.4	5648
2099.46	5683
2101.516	5745
2103.572	5845
2105.626	5804
2107.679	5691
2109.735	5684
2111.788	5697
2113.841	5697
2115.894	5704
2117.945	5739
2119.997	5672
2122.049	5756
2124.1	5685
2126.148	5628
2128.197	5664
2130.246	5705
2132.296	5789
2134.342	5722
2136.39	5633
2138.437	5760
2140.483	5808
2142.527	5729
2144.574	5687
2146.619	5647
2148.661	5665
2150.705	5723
2152.747	5607
2154.792	5666
2156.832	5751
2158.874	5704
2160.915	5724
2162.954	5692
2164.995	5533
2167.034	5823
2169.072	5693
2171.111	5736
2173.148	5710
2175.186	5628
2177.223	5610
2179.258	5658
2181.294	5660
2183.328	5614
2185.362	5593
2187.398	5629
2189.431	5662
2191.463	5617
2193.495	5700
2195.528	5663
2197.56	5587
2199.59	5620
2201.62	5505
2203.649	5612
2205.678	5600
2207.708	5527
2209.737	5518
2211.764	5563
2213.791	5491
2215.817	5556
2217.843	5557
2219.87	5599
2221.895	5657
2223.919	5495
2225.942	5534
2227.966	5586
2229.988	5552
2232.012	5593
2234.032	5616
2236.054	5604
2238.074	5500
2240.095	5544
2242.116	5657
2244.135	5664
2246.153	5692
2248.171	5576
2250.188	5600
2252.208	5550
2254.223	5587
2256.239	5603
2258.255	5628
2260.269	5517
2262.283	5578
2264.3	5490
2266.312	5505
2268.325	5622
2270.336	5562
2272.349	5556
2274.362	5622
2276.372	5504
2278.383	5582
2280.392	5472
2282.402	5618
2284.409	5549
2286.418	5483
2288.427	5462
2290.433	5543
2292.441	5526
2294.446	5534
2296.453	5527
2298.459	5632
2300.463	5551
2302.466	5531
2304.471	5427
2306.475	5521
2308.477	5491
2310.478	5497
2312.481	5580
2314.481	5535
2316.481	5456
2318.482	5531
2320.482	5573
2322.48	5541
2324.48	5515
2326.478	5515
2328.476	5556
2330.473	5520
2332.469	5403
2334.465	5495
2336.46	5518
2338.454	5429
2340.45	5418
2342.444	5478
2344.437	5484
2346.43	5482
2348.421	5491
2350.414	5378
2352.405	5520
2354.396	5436
2356.386	5425
2358.376	5376
2360.366	5497
2362.355	5379
2364.343	5453
2366.331	5491
2368.317	5528
2370.304	5424
2372.292	5433
2374.278	5488
2376.262	5446
2378.247	5432
2380.23	5435
2382.216	5454
2384.199	5383
2386.181	5344
2388.163	5372
2390.144	5226
2392.127	5376
2394.107	5220
2396.087	5341
2398.066	5313
2400.046	5385
2402.023	5430
2404.004	5446
2405.981	5342
2407.957	5251
2409.934	5312
2411.91	5325
2413.886	5345
2415.862	5305
2417.836	5314
2419.809	5390
2421.784	5294
2423.756	5387
2425.73	5282
2427.701	5381
2429.672	5220
2431.644	5429
2433.615	5355
2435.586	5370
2437.555	5402
2439.523	5448
2441.491	5316
2443.459	5348
2445.428	5264
2447.395	5318
2449.361	5312
2451.327	5335
2453.292	5274
2455.257	5399
2457.223	5314
2459.187	5305
2461.15	5249
2463.113	5337
2465.076	5265
2467.039	5379
2468.999	5356
2470.96	5308
2472.921	5349
2474.881	5265
2476.841	5293
2478.8	5284
2480.759	5287
2482.717	5324
2484.675	5329
2486.63	5203
2488.589	5165
2490.545	5196
2492.5	5278
2494.455	5216
2496.408	5223
2498.364	5154
2500.318	5208
2502.27	5295
2504.223	5301
2506.174	5237
2508.126	5223
2510.078	5204
2512.03	5312
2513.979	5248
2515.927	5254
2517.877	5092
2519.826	5269
2521.775	5122
2523.722	5246
2525.668	5204
2527.616	5200
2529.561	5207
2531.508	5274
2533.452	5314
2535.398	5228
2537.342	5208
2539.284	5211
2541.229	5214
2543.173	5274
2545.114	5248
2547.055	5317
2548.996	5304
2550.938	5301
2552.878	5250
2554.817	5206
2556.756	5141
2558.695	5174
2560.633	5126
2562.572	5247
2564.509	5140
2566.445	5326
2568.382	5290
2570.317	5191
2572.254	5096
2574.189	5337
2576.123	5251
2578.057	5154
2579.99	5173
2581.923	5156
2583.855	5164
2585.788	5244
2587.719	5199
2589.65	5209
2591.579	5145
2593.511	5193
2595.44	5215
2597.37	5151
2599.297	5259
2601.225	5168
2603.153	5268
2605.08	5192
2607.007	5218
2608.932	5197
2610.858	5204
2612.782	5253
2614.709	5142
2616.632	5217
2618.556	5162
2620.478	5246
2622.401	5138
2624.324	5202
2626.247	5163
2628.167	5230
2630.088	5300
2632.008	5236
2633.928	5271
2635.848	5246
2637.766	5126
2639.684	5114
2641.603	5251
2643.519	5163
2645.437	5142
2647.353	5189
2649.27	5262
2651.184	5175
2653.099	5192
2655.014	5165
2656.928	5249
2658.842	5195
2660.755	5221
2662.667	5264
2664.579	5090
2666.491	5156
2668.402	5241
2670.312	5171
2672.222	5042
2674.132	5206
2676.042	5169
2677.951	5176
2679.859	5225
2681.766	5191
2683.674	5165
2685.582	5106
2687.488	5237
2689.392	5218
2691.298	5187
2693.202	5013
2695.107	5126
2697.012	5205
2698.914	5222
2700.817	5027
2702.72	5112
2704.622	5067
2706.524	5236
2708.425	5075
2710.326	5056
2712.225	5187
2714.125	5015
2716.024	5089
2717.923	5147
2719.822	5106
2721.719	5066
2723.616	5083
2725.512	5172
2727.41	5031
2729.305	5028
2731.201	5104
2733.095	5150
2734.99	5091
2736.884	5072
2738.778	5200
2740.67	5118
2742.562	5072
2744.455	5076
2746.346	5176
2748.238	5116
2750.129	5174
2752.018	5074
2753.907	5122
2755.797	5082
2757.687	5124
2759.575	5073
2761.462	5132
2763.349	5143
2765.237	5058
2767.124	5056
2769.009	4966
2770.894	5050
2772.779	5132
2774.663	5090
2776.547	5156
2778.431	5065
2780.314	5045
2782.197	5016
2784.078	5111
2785.96	4981
2787.842	5102
2789.723	5034
2791.603	5067
2793.483	5003
2795.362	5148
2797.241	5110
2799.121	5039
2800.997	5097
2802.874	5183
2804.751	4960
2806.628	5125
2808.506	5098
2810.38	5037
2812.255	5053
2814.13	5061
2816.003	5076
2817.878	5059
2819.752	5022
2821.623	5060
2823.496	4989
2825.368	5086
2827.238	5007
2829.111	5066
2830.98	5139
2832.851	5077
2834.719	5020
2836.589	5086
2838.458	5143
2840.327	5126
2842.193	5089
2844.061	5224
2845.927	5088
2847.794	5240
2849.66	5164
2851.525	5227
2853.39	5223
2855.254	5242
2857.117	5301
2858.983	5312
2860.845	5299
2862.707	5338
2864.569	5370
2866.431	5315
2868.293	5391
2870.154	5450
2872.013	5401
2873.873	5535
2875.733	5547
2877.592	5643
2879.451	5683
2881.309	5740
2883.166	5789
2885.022	5828
2886.879	5860
2888.736	5915
2890.591	5916
2892.446	6005
2894.301	5900
2896.155	5886
2898.009	5890
2899.863	6032
2901.716	5928
2903.568	5972
2905.419	5891
2907.27	5954
2909.123	5820
2910.973	5846
2912.824	5925
2914.673	6036
2916.521	6022
2918.372	6226
2920.22	6188
2922.067	6195
2923.914	6255
2925.761	6405
2927.607	6460
2929.455	6386
2931.301	6310
2933.144	6537
2934.99	6557
2936.833	6625
2938.678	6724
2940.522	6648
2942.364	6889
2944.207	6979
2946.048	7068
2947.891	7194
2949.731	7158
2951.571	7099
2953.412	7020
2955.25	6915
2957.09	6990
2958.93	6831
2960.767	6805
2962.606	6758
2964.443	6740
2966.279	6606
2968.116	6529
2969.953	6443
2971.788	6273
2973.623	6233
2975.457	6111
2977.292	6136
2979.127	6036
2980.959	5986
2982.792	5855
2984.624	5844
2986.455	5817
2988.288	5811
2990.119	5736
2991.949	5740
2993.779	5676
2995.608	5645
2997.439	5571
2999.268	5587
3001.096	5480
3002.923	5436
3004.751	5411
3006.578	5311
3008.406	5385
3010.232	5291
3012.057	5217
3013.883	5108
3015.706	5177
3017.532	5163
3019.356	5087
3021.179	5046
3023.002	4989
3024.823	5065
3026.646	4971
3028.469	4998
3030.289	4964
3032.11	4939
3033.93	4981
3035.749	4883
3037.57	4812
3039.39	4878
3041.207	4936
3043.026	4798
3044.842	4884
3046.661	4830
3048.477	4914
3050.294	4845
3052.109	4841
3053.925	4906
3055.739	4798
3057.555	4851
3059.368	4862
3061.181	4913
3062.995	4798
3064.807	4799
3066.62	4898
3068.433	4837
3070.243	4901
3072.054	4805
3073.865	4838
3075.675	4688
3077.485	4743
3079.293	4858
3081.102	4767
3082.911	4809
3084.719	4710
3086.527	4749
3088.333	4705
3090.139	4691
3091.945	4631
3093.75	4752
3095.557	4601
3097.361	4725
3099.165	4571
3100.969	4693
3102.772	4553
3104.575	4713
3106.379	4599
3108.181	4674
3109.982	4622
3111.783	4557
3113.584	4672
3115.386	4663
3117.186	4664
3118.985	4593
3120.783	4634
3122.582	4640
3124.381	4693
3126.179	4501
3127.975	4588
3129.772	4546
3131.569	4599
3133.365	4531
3135.161	4530
3136.956	4574
3138.751	4594
3140.544	4501
3142.338	4599
3144.132	4577
3145.925	4535
3147.717	4575
3149.509	4567
3151.301	4416
3153.091	4479
3154.884	4483
3156.673	4559
3158.462	4571
3160.252	4512
3162.041	4609
3163.831	4596
3165.618	4591
3167.405	4590
3169.193	4566
3170.979	4561
3172.767	4517
3174.553	4516
3176.338	4487
3178.123	4562
3179.907	4421
3181.692	4545
3183.477	4528
3185.259	4425
3187.042	4518
3188.824	4508
3190.607	4614
3192.389	4421
3194.17	4427
3195.951	4571
3197.73	4540
3199.51	4566
3201.289	4478
3203.07	4590
3204.848	4459
3206.626	4502
3208.403	4433
3210.18	4462
3211.959	4540
3213.735	4563
3215.511	4546
3217.285	4514
3219.06	4508
3220.836	4526
3222.611	4514
3224.384	4520
3226.158	4462
3227.929	4555
3229.702	4468
3231.476	4381
3233.248	4499
3235.018	4496
3236.789	4495
3238.56	4516
3240.33	4484
3242.1	4514
3243.869	4506
3245.637	4496
3247.405	4430
3249.172	4476
3250.941	4448
3252.707	4450
3254.474	4484
3256.24	4542
3258.006	4590
3259.772	4523
3261.537	4534
3263.301	4495
3265.065	4503
3266.828	4539
3268.592	4497
3270.355	4515
3272.117	4474
3273.878	4538
3275.64	4542
3277.401	4468
3279.162	4476
3280.922	4434
3282.682	4524
3284.441	4539
3286.199	4526
3287.959	4507
3289.716	4445
3291.475	4504
3293.232	4642
3294.988	4444
3296.744	4467
3298.501	4481
3300.256	4559
3302.011	4524
3303.766	4557
3305.52	4531
3307.275	4507
3309.028	4469
3310.781	4434
3312.533	4550
3314.285	4363
3316.038	4520
3317.789	4491
3319.54	4453
3321.289	4396
3323.039	4537
3324.789	4408
3326.539	4467
3328.288	4557
3330.035	4527
3331.783	4552
3333.531	4423
3335.28	4481
3337.025	4460
3338.771	4450
3340.518	4423
3342.262	4302
3344.009	4422
3345.753	4438
3347.497	4451
3349.24	4446
3350.983	4381
3352.726	4360
3354.469	4454
3356.212	4403
3357.952	4424
3359.694	4406
3361.434	4442
3363.176	4406
3364.916	4416
3366.654	4346
3368.394	4438
3370.132	4452
3371.871	4331
3373.61	4376
3375.346	4349
3377.083	4335
3378.82	4299
3380.556	4298
3382.292	4332
3384.027	4272
3385.763	4355
3387.497	4248
3389.231	4323
3390.965	4357
3392.698	4332
3394.431	4296
3396.164	4259
3397.896	4215
3399.627	4309
3401.36	4275
3403.09	4291
3404.82	4269
3406.55	4257
3408.279	4260
3410.01	4263
3411.738	4241
3413.467	4292
3415.194	4181
3416.92	4321
3418.647	4256
3420.375	4304
3422.102	4169
3423.827	4224
3425.553	4212
3427.277	4242
3429.003	4192
3430.727	4296
3432.451	4265
3434.173	4219
3435.896	4225
3437.62	4148
3439.343	4159
3441.063	4182
3442.785	4237
3444.505	4122
3446.226	4098
3447.948	4228
3449.666	4064
3451.386	4157
3453.104	4109
3454.823	4026
3456.541	4124
3458.259	4113
3459.976	4042
3461.693	4131
3463.408	4149
3465.125	3986
3466.841	4054
3468.556	4075
3470.271	4051
3471.985	4081
3473.698	4064
3475.414	4102
3477.126	4110
3478.838	4039
3480.55	3995
3482.263	4064
3483.975	4082
3485.686	4038
3487.396	3970
3489.106	4011
3490.817	3876
3492.526	3979
3494.236	3974
3495.944	3964
3497.652	3948
3499.359	3996
3501.066	3932
3502.775	3938
3504.481	3939
3506.187	4010
3507.893	3926
3509.598	3931
3511.304	3960
3513.009	3872
3514.713	3812
3516.417	3939
3518.12	3813
3519.821	3859
3521.525	3864
3523.228	3844
3524.929	3938
3526.631	3831
3528.33	3871
3530.032	3866
3531.733	3804
3533.433	3893
3535.131	3874
3536.83	3867
3538.529	3769
3540.227	3889
3541.925	3764
3543.623	3776
3545.319	3739
3547.016	3783
3548.712	3851
3550.408	3785
3552.103	3747
3553.798	3774
3555.491	3745
3557.188	3706
3558.88	3798
3560.574	3781
3562.266	3781
3563.959	3703
3565.651	3732
3567.343	3735
3569.035	3728
3570.725	3731
3572.415	3757
3574.106	3648
3575.797	3808
3577.485	3705
3579.174	3730
3580.863	3691
3582.551	3722
3584.238	3648
3585.926	3784
3587.613	3653
3589.3	3660
3590.986	3640
3592.671	3680
3594.357	3619
3596.042	3615
3597.726	3659
3599.41	3752
3601.094	3601
3602.778	3637
3604.461	3608
3606.143	3570
3607.825	3640
3609.507	3592
3611.188	3516
3612.87	3605
3614.551	3588
3616.229	3582
3617.909	3574
3619.589	3553
3621.269	3581
3622.948	3508
3624.625	3486
3626.302	3545
3627.98	3477
3629.657	3530
3631.334	3513
3633.01	3447
3634.686	3508
3636.361	3548
3638.036	3441
3639.712	3513
3641.385	3472
3643.06	3422
3644.732	3420
3646.405	3511
3648.08	3448
3649.751	3452
3651.424	3456
3653.094	3438
3654.766	3494
3656.436	3447
3658.106	3424
3659.777	3387
3661.446	3394
3663.115	3423
3664.783	3492
3666.452	3398
3668.121	3398
3669.788	3392
3671.454	3522
3673.121	3370
3674.789	3412
3676.455	3390
3678.12	3412
3679.784	3386
3681.45	3382
3683.114	3463
3684.779	3430
3686.442	3334
3688.105	3329
3689.768	3370
3691.43	3314
3693.093	3339
3694.754	3346
3696.415	3403
3698.076	3347
3699.736	3296
3701.396	3310
3703.057	3346
3704.716	3374
3706.375	3374
3708.034	3365
3709.692	3306
3711.351	3366
3713.008	3316
3714.665	3294
3716.321	3312
3717.977	3327
3719.634	3324
3721.29	3317
3722.945	3362
3724.598	3293
3726.253	3215
3727.907	3312
3729.561	3291
3731.214	3264
3732.867	3255
3734.518	3221
3736.171	3276
3737.824	3238
3739.474	3240
3741.125	3268
3742.775	3210
3744.425	3207
3746.074	3227
3747.725	3243
3749.373	3322
3751.022	3243
3752.669	3247
3754.318	3144
3755.966	3320
3757.612	3202
3759.259	3239
3760.905	3223
3762.55	3267
3764.197	3273
3765.842	3195
3767.486	3174
3769.131	3184
3770.774	3189
3772.417	3188
3774.061	3215
3775.705	3117
3777.347	3256
3778.988	3155
3780.629	3234
3782.271	3227
3783.912	3075
3785.552	3164
3787.192	3185
3788.831	3133
3790.472	3173
3792.112	3121
3793.75	3185
3795.388	3117
3797.024	3185
3798.661	3168
3800.3	3130
3801.936	3114
3803.572	3180
3805.208	3164
3806.844	3232
3808.48	3175
3810.115	3108
3811.748	3083
3813.382	3098
3815.016	3085
3816.649	3127
3818.283	3026
3819.914	3126
3821.547	3110
3823.178	3153
3824.809	3077
3826.441	3081
3828.072	3154
3829.701	3015
3831.331	3052
3832.96	3120
3834.591	3136
3836.219	2981
3837.847	3085
3839.475	3024
3841.102	3003
3842.729	3034
3844.357	3099
3845.984	3077
3847.609	3092
3849.234	3087
3850.86	3056
3852.485	3045
3854.11	3021
3855.734	3029
3857.357	3024
3858.981	3069
3860.603	2989
3862.227	2997
3863.848	3032
3865.471	3054
3867.092	3011
3868.713	3027
3870.334	3034
3871.954	3016
3873.575	3011
3875.194	3023
3876.813	3022
3878.433	3052
3880.051	2951
3881.669	3004
3883.286	2958
3884.904	2993
3886.52	2962
3888.138	2967
3889.754	2968
3891.37	3013
3892.985	2919
3894.6	2965
3896.216	2936
3897.831	2935
3899.444	2998
3901.058	2976
3902.67	3066
3904.283	2937
3905.897	2920
3907.509	2940
3909.121	2942
3910.731	2898
3912.342	2939
3913.954	2901
3915.563	2991
3917.174	2994
3918.783	2951
3920.391	2997
3922.002	2915
3923.611	2974
3925.218	2922
3926.826	2918
3928.432	2933
3930.039	2991
3931.647	2952
3933.253	2935
3934.859	2900
3936.464	2942
3938.068	2936
3939.675	2918
3941.278	2874
3942.883	2918
3944.486	2954
3946.089	2846
3947.692	3008
3949.295	2942
3950.898	2935
3952.499	2875
3954.1	2922
3955.7	2833
3957.303	2829
3958.903	2879
3960.502	2848
3962.101	2936
3963.7	2851
3965.301	2913
3966.899	2831
3968.497	2917
3970.094	2809
3971.691	2868
3973.288	2861
3974.885	2844
3976.481	2775
3978.077	2858
3979.672	2884
3981.267	2834
3982.863	2833
3984.457	2839
3986.051	2748
3987.645	2888
3989.238	2928
3990.831	2805
3992.425	2831
3994.017	2844
3995.607	2842
3997.199	2879
3998.79	2755
4000.382	2765
4001.973	2820
4003.561	2783
4005.151	2807
4006.741	2768
4008.331	2772
4009.918	2782
4011.507	2880
4013.095	2805
4014.681	2711
4016.269	2704
4017.856	2750
4019.443	2753
4021.028	2699
4022.614	2696
4024.199	2738
4025.785	2721
4027.37	2714
4028.953	2732
4030.536	2717
4032.12	2671
4033.704	2723
4035.287	2730
4036.869	2711
4038.45	2725
4040.032	2718
4041.613	2691
4043.195	2718
4044.776	2671
4046.356	2773
4047.935	2679
4049.515	2714
4051.095	2656
4052.674	2611
4054.251	2718
4055.829	2696
4057.406	2737
4058.985	2708
4060.562	2697
4062.139	2651
4063.715	2719
4065.29	2713
4066.865	2712
4068.442	2682
4070.016	2614
4071.59	2678
4073.164	2703
4074.738	2689
4076.312	2662
4077.885	2668
4079.458	2602
4081.03	2645
4082.602	2639
4084.173	2667
4085.745	2607
4087.315	2613
4088.886	2633
4090.456	2644
4092.026	2626
4093.596	2633
4095.165	2618
4096.734	2610
4098.301	2661
4099.869	2585
4101.437	2617
4103.006	2613
4104.572	2612
4106.139	2611
4107.704	2596
4109.27	2484
4110.837	2546
4112.401	2598
4113.966	2642
4115.53	2588
4117.094	2629
4118.659	2587
4120.223	2526
4121.785	2557
4123.347	2568
4124.909	2575
4126.471	2581
4128.034	2581
4129.595	2524
4131.155	2568
4132.716	2551
4134.275	2589
4135.836	2531
4137.395	2573
4138.955	2526
4140.513	2491
4142.071	2596
4143.628	2621
4145.188	2516
4146.745	2530
4148.302	2561
4149.858	2492
4151.414	2542
4152.971	2547
4154.526	2532
4156.081	2486
4157.635	2482
4159.189	2483
4160.745	2539
4162.298	2543
4163.852	2436
4165.405	2483
4166.957	2475
4168.51	2510
4170.063	2488
4171.614	2473
4173.166	2478
4174.717	2443
4176.267	2471
4177.817	2510
4179.368	2464
4180.917	2431
4182.466	2395
4184.016	2454
4185.564	2419
4187.112	2471
4188.66	2521
4190.207	2411
4191.754	2392
4193.301	2429
4194.848	2444
4196.394	2373
4197.94	2390
4199.484	2492
4201.03	2428
4202.575	2398
4204.12	2468
4205.663	2497
4207.207	2386
4208.75	2425
4210.292	2399
4211.836	2355
4213.378	2435
4214.92	2418
4216.46	2399
4218.002	2434
4219.544	2389
4221.083	2363
4222.625	2439
4224.164	2409
4225.703	2397
4227.244	2412
4228.782	2372
4230.32	2404
4231.857	2319
4233.395	2379
4234.933	2353
4236.471	2411
4238.007	2374
4239.542	2435
4241.078	2417
4242.614	2404
4244.15	2410
4245.685	2401
4247.219	2437
4248.753	2354
4250.287	2357
4251.82	2411
4253.354	2393
4254.887	2429
4256.419	2390
4257.951	2358
4259.483	2404
4261.016	2427
4262.547	2332
4264.078	2371
4265.608	2394
4267.137	2346
4268.668	2384
4270.197	2318
4271.727	2375
4273.254	2265
4274.783	2341
4276.311	2362
4277.84	2288
4279.366	2313
4280.894	2320
4282.42	2308
4283.946	2318
4285.473	2322
4286.998	2266
4288.523	2318
4290.047	2313
4291.572	2358
4293.096	2289
4294.622	2268
4296.144	2330
4297.668	2289
4299.19	2336
4300.713	2303
4302.236	2246
4303.758	2274
4305.279	2306
4306.799	2327
4308.321	2238
4309.842	2302
4311.361	2274
4312.882	2277
4314.401	2251
