400.0961	4243
402.6185	4282
405.1424	4268
407.6635	4299
410.1838	4214
412.7035	4337
415.2225	4294
417.7388	4402
420.2585	4390
422.7754	4421
425.2917	4430
427.8072	4517
430.3221	4490
432.8363	4655
435.3498	4535
437.8626	4577
440.3727	4618
442.8841	4591
445.3969	4484
447.907	4450
450.4142	4462
452.9229	4455
455.4289	4433
457.9362	4603
460.4449	4492
462.9488	4495
465.454	4474
467.9566	4619
470.4604	4461
472.9637	4438
475.4662	4501
477.966	4514
480.4671	4553
482.9656	4571
485.4633	4600
487.9645	4534
490.4608	4531
492.9566	4629
495.4536	4545
497.948	4544
500.4437	4693
502.9387	4624
505.431	4747
507.9226	4684
510.4136	4829
512.9079	4664
515.3975	4693
517.8864	4637
520.3746	4776
522.8622	4753
525.3491	4756
527.8394	4689
530.3249	4731
532.8098	4720
535.2939	4711
537.7774	4718
540.2623	4706
542.7444	4790
545.2259	4639
547.7067	4667
550.1868	4756
552.6683	4800
555.147	4671
557.6231	4706
560.1005	4803
562.5773	4719
565.0534	4806
567.5308	4687
570.0056	4874
572.4776	4827
574.951	4854
577.4237	4942
579.8978	4963
582.3671	4997
584.8378	4904
587.3079	4869
589.7773	4988
592.244	4964
594.714	4929
597.1793	4886
599.6461	4911
602.1121	4839
604.5754	4845
607.0421	4924
609.5042	4884
611.9675	4912
614.4282	4833
616.8902	4855
619.3515	4833
621.8122	4812
624.2702	4840
626.7296	4947
629.1863	4787
631.6423	4879
634.1017	4936
636.5563	4899
639.0104	4916
641.4658	4906
643.9185	4798
646.3725	4965
648.8239	4803
651.2766	4909
653.7266	4932
656.176	4933
658.6247	4940
661.0748	5007
663.5242	4975
665.9709	4926
668.417	4999
670.8624	4932
673.3092	4951
675.7533	4940
678.1968	5096
680.6395	5034
683.0817	5002
685.5251	4955
687.9659	5043
690.4061	5114
692.8456	4991
695.2844	5021
697.7226	5108
700.1621	5079
702.599	5160
705.0332	5048
707.4688	5111
709.9036	5117
712.3399	5208
714.7735	5170
717.2044	5150
719.6367	5106
722.0683	5224
724.4993	5137
726.9296	5232
729.3593	5234
731.7883	5220
734.2147	5291
736.6423	5214
739.0714	5172
741.4958	5365
743.9216	5233
746.3447	5309
748.7691	5324
751.1929	5379
753.616	5313
756.0366	5360
758.4584	5441
760.8776	5496
763.2982	5403
765.718	5426
768.1373	5404
770.5539	5447
772.9698	5444
775.3871	5361
777.8038	5498
780.2178	5390
782.6332	5400
785.0459	5442
787.458	5402
789.8714	5510
792.2842	5401
794.6943	5444
797.1038	5564
799.5127	5408
801.9209	5450
804.3324	5575
806.7393	5533
809.1456	5400
811.5513	5585
813.9562	5539
816.3625	5549
818.7663	5521
821.1693	5589
823.5718	5575
825.9735	5518
828.3746	5552
830.7771	5523
833.177	5592
835.5762	5551
837.9747	5647
840.3727	5577
842.772	5610
845.1666	5583
847.5626	5609
849.958	5634
852.3527	5630
854.7488	5724
857.1403	5638
859.5331	5649
861.9253	5686
864.3168	5643
866.7057	5582
869.098	5657
871.4876	5590
873.8746	5541
876.263	5634
878.6487	5545
881.0378	5597
883.4243	5610
885.8081	5630
888.1933	5621
890.5759	5601
892.9598	5613
895.343	5617
897.7256	5655
900.1057	5598
902.4871	5700
904.8659	5635
907.246	5681
909.6254	5826
912.0023	5634
914.3786	5754
916.7562	5978
919.1331	5975
921.5074	6044
923.8831	6054
926.2562	6101
928.6287	6049
931.0005	6028
933.3757	6073
935.7462	6027
938.1162	6029
940.4855	6026
942.8542	6025
945.2242	6136
947.5916	6094
949.9584	6394
952.3266	6382
954.6921	6656
957.0571	6800
959.4233	6978
961.787	7035
964.15	7166
966.5125	6934
968.8742	6590
971.2354	6428
973.5959	6315
975.9559	6010
978.3151	6042
980.6738	6076
983.0338	6048
985.3912	5853
987.7461	5879
990.1022	5993
992.4578	5884
994.8127	5942
997.1689	5801
999.5207	5841
1001.874	5875
1004.226	6029
1006.576	5878
1008.929	5906
1011.28	5892
1013.628	5914
1015.977	5843
1018.324	5896
1020.674	5896
1023.019	5910
1025.366	5975
1027.713	6015
1030.056	5860
1032.399	5950
1034.746	6026
1037.087	5959
1039.431	6058
1041.771	5929
1044.113	5938
1046.454	5910
1048.793	6092
1051.133	5955
1053.471	5963
1055.807	6027
1058.146	5922
1060.483	6046
1062.818	5976
1065.153	5999
1067.489	6057
1069.822	6050
1072.156	6169
1074.488	6174
1076.82	6070
1079.15	6175
1081.48	6031
1083.814	6027
1086.143	6079
1088.471	6042
1090.799	5993
1093.126	6011
1095.452	6092
1097.78	6032
1100.105	6026
1102.43	6128
1104.754	6059
1107.077	6013
1109.4	6062
1111.722	5943
1114.044	6051
1116.365	6135
1118.685	6086
1121.005	6083
1123.324	5993
1125.643	6232
1127.961	6119
1130.278	6086
1132.595	6074
1134.911	6080
1137.226	6129
1139.541	6128
1141.854	6028
1144.167	6079
1146.482	6067
1148.793	5979
1151.105	6109
1153.414	6078
1155.725	6151
1158.033	6150
1160.344	5985
1162.651	6141
1164.959	6017
1167.265	6200
1169.572	6132
1171.878	6109
1174.184	6135
1176.488	6301
1178.79	6064
1181.094	6237
1183.396	6148
1185.699	6147
1188.001	6135
1190.301	6131
1192.6	6003
1194.9	6149
1197.2	6237
1199.497	6269
1201.794	6163
1204.09	6149
1206.387	6108
1208.684	6098
1210.978	6201
1213.272	6093
1215.565	6053
1217.858	6228
1220.15	6299
1222.443	6120
1224.734	6299
1227.024	6293
1229.313	6247
1231.602	6310
1233.892	6292
1236.18	6382
1238.467	6372
1240.754	6402
1243.04	6354
1245.325	6442
1247.612	6353
1249.896	6257
1252.178	6504
1254.461	6402
1256.743	6609
1259.027	6439
1261.308	6355
1263.587	6414
1265.867	6533
1268.146	6475
1270.425	6453
1272.703	6337
1274.981	6520
1277.256	6525
1279.532	6486
1281.808	6361
1284.083	6425
1286.358	6439
1288.63	6371
1290.904	6345
1293.175	6235
1295.449	6428
1297.719	6445
1299.99	6201
1302.259	6292
1304.529	6360
1306.798	6389
1309.065	6298
1311.333	6383
1313.599	6460
1315.866	6435
1318.131	6472
1320.396	6571
1322.66	6418
1324.925	6375
1327.187	6469
1329.448	6429
1331.711	6370
1333.974	6610
1336.234	6454
1338.493	6430
1340.752	6381
1343.01	6305
1345.269	6401
1347.526	6436
1349.784	6337
1352.04	6389
1354.295	6374
1356.552	6417
1358.806	6185
1361.059	6408
1363.312	6304
1365.564	6347
1367.818	6469
1370.069	6519
1372.318	6494
1374.568	6374
1376.817	6397
1379.066	6532
1381.316	6408
1383.564	6594
1385.809	6541
1388.056	6504
1390.301	6580
1392.549	6736
1394.793	6711
1397.036	6743
1399.279	6766
1401.522	6871
1403.763	6630
1406.007	6699
1408.248	6684
1410.487	6722
1412.727	6770
1414.965	6682
1417.205	6608
1419.442	6681
1421.68	6698
1423.915	6643
1426.152	6600
1428.388	6651
1430.623	6788
1432.857	6683
1435.091	6716
1437.323	6778
1439.556	6707
1441.789	6779
1444.019	6738
1446.25	6749
1448.48	6759
1450.708	6792
1452.938	6830
1455.167	6792
1457.394	6867
1459.62	6800
1461.846	6842
1464.073	6801
1466.299	6903
1468.523	6842
1470.746	6786
1472.969	6593
1475.191	6645
1477.415	6605
1479.636	6569
1481.858	6580
1484.078	6559
1486.298	6622
1488.518	6537
1490.736	6522
1492.954	6435
1495.169	6449
1497.386	6506
1499.602	6698
1501.819	6497
1504.034	6462
1506.248	6482
1508.462	6369
1510.675	6355
1512.888	6554
1515.1	6515
1517.311	6461
1519.522	6455
1521.732	6529
1523.942	6582
1526.151	6360
1528.36	6525
1530.566	6466
1532.773	6566
1534.98	6592
1537.187	6591
1539.392	6563
1541.596	6516
1543.801	6527
1546.005	6567
1548.208	6610
1550.411	6641
1552.612	6691
1554.814	6651
1557.013	6620
1559.212	6709
1561.414	6625
1563.612	6574
1565.811	6634
1568.007	6625
1570.203	6708
1572.403	6729
1574.598	6658
1576.792	6723
1578.988	6663
1581.181	6750
1583.376	6640
1585.568	6792
1587.761	6752
1589.952	6796
1592.143	6691
1594.333	6725
1596.524	6835
1598.715	6878
1600.903	6743
1603.091	6783
1605.278	6801
1607.466	6717
1609.652	6819
1611.838	6724
1614.023	6742
1616.207	6806
1618.391	6843
1620.576	6711
1622.759	6735
1624.941	6872
1627.123	6778
1629.304	6934
1631.484	6953
1633.664	6756
1635.844	6922
1638.022	6875
1640.201	6834
1642.38	6871
1644.556	6911
1646.732	6961
1648.908	6902
1651.084	6924
1653.257	6871
1655.433	6937
1657.607	6876
1659.779	6961
1661.951	6965
1664.122	7014
1666.295	7072
1668.467	6924
1670.635	6966
1672.805	7022
1674.973	7003
1677.142	6963
1679.31	7077
1681.478	6939
1683.644	6997
1685.81	7023
1687.975	6985
1690.142	6822
1692.305	6959
1694.468	6937
1696.632	6936
1698.794	6828
1700.957	6865
1703.119	6927
1705.279	6873
1707.439	6924
1709.598	6940
1711.758	6825
1713.917	6956
1716.075	6900
1718.231	6944
1720.388	6901
1722.543	6840
1724.702	6844
1726.856	6894
1729.01	6868
1731.164	6871
1733.317	6887
1735.471	6910
1737.623	6859
1739.774	6934
1741.925	7046
1744.075	6798
1746.225	6835
1748.376	6817
1750.524	6976
1752.672	6939
1754.82	6917
1756.965	6966
1759.113	6965
1761.259	6970
1763.405	6936
1765.549	7001
1767.694	6891
1769.836	6988
1771.981	7067
1774.123	6917
1776.264	6960
1778.405	7074
1780.546	7080
1782.687	6989
1784.827	6994
1786.966	7069
1789.103	7000
1791.242	7076
1793.381	7065
1795.517	7102
1797.653	7109
1799.788	7126
1801.923	7093
1804.057	7088
1806.193	7143
1808.326	7162
1810.457	6979
1812.59	7112
1814.721	7181
1816.855	7041
1818.984	7066
1821.113	7120
1823.244	7071
1825.372	7192
1827.499	7062
1829.63	7006
1831.756	7083
1833.882	7037
1836.007	7044
1838.132	7164
1840.26	7048
1842.384	7064
1844.507	7114
1846.63	7216
1848.752	7115
1850.875	6984
1852.996	7196
1855.118	7071
1857.238	7137
1859.358	7103
1861.477	7194
1863.597	7165
1865.715	7146
1867.832	7216
1869.948	7135
1872.064	7025
1874.181	7085
1876.297	7096
1878.411	7238
1880.526	7218
1882.639	7143
1884.752	7203
1886.865	7113
1888.977	7189
1891.089	7137
1893.2	7256
1895.308	7127
1897.42	7135
1899.53	7271
1901.639	7269
1903.745	7258
1905.853	7300
1907.962	7247
1910.067	7172
1912.174	7254
1914.278	7280
1916.383	7264
1918.486	7304
1920.592	7336
1922.694	7391
1924.797	7242
1926.898	7297
1929	7373
1931.102	7326
1933.203	7415
1935.301	7407
1937.401	7383
1939.499	7444
1941.598	7406
1943.697	7410
1945.793	7284
1947.888	7315
1949.985	7524
1952.08	7358
1954.176	7477
1956.269	7425
1958.364	7473
1960.457	7453
1962.549	7490
1964.642	7362
1966.733	7404
1968.823	7498
1970.913	7591
1973.005	7535
1975.093	7526
1977.184	7562
1979.271	7439
1981.359	7425
1983.446	7555
1985.532	7572
1987.619	7502
1989.705	7410
1991.789	7486
1993.874	7487
1995.956	7441
1998.041	7535
2000.123	7463
2002.206	7585
2004.287	7556
2006.368	7511
2008.449	7641
2010.529	7437
2012.609	7523
2014.688	7607
2016.766	7485
2018.843	7459
2020.922	7521
2022.999	7678
2025.074	7496
2027.15	7527
2029.225	7570
2031.299	7582
2033.375	7735
2035.447	7662
2037.52	7534
2039.592	7714
2041.664	7702
2043.736	7661
2045.807	7667
2047.876	7651
2049.947	7629
2052.015	7614
2054.086	7663
2056.153	7584
2058.221	7703
2060.288	7708
2062.353	7637
2064.42	7746
2066.486	7663
2068.55	7766
2070.614	7734
2072.678	7780
2074.741	7746
2076.805	7754
2078.866	7684
2080.929	7691
2082.99	7808
2085.049	7716
2087.109	7786
2089.17	7918
2091.228	7927
2093.286	7790
2095.344	7789
2097.4	7783
2099.46	7820
2101.516	7878
2103.572	7840
2105.626	7805
2107.679	7871
2109.735	7948
2111.788	7807
2113.841	7950
2115.894	8025
2117.945	7935
2119.997	7970
2122.049	7882
2124.1	7991
2126.148	7861
2128.197	7966
2130.246	7971
2132.296	7954
2134.342	8127
2136.39	8052
2138.437	8030
2140.483	8050
2142.527	7968
2144.574	7978
2146.619	8162
2148.661	8117
2150.705	8113
2152.747	8039
2154.792	8055
2156.832	8106
2158.874	7983
2160.915	8127
2162.954	8148
2164.995	8189
2167.034	8070
2169.072	8056
2171.111	8019
2173.148	8062
2175.186	8001
2177.223	8093
2179.258	8071
2181.294	8102
2183.328	8002
2185.362	8092
2187.398	8100
2189.431	8039
2191.463	8129
2193.495	8105
2195.528	8255
2197.56	8117
2199.59	8154
2201.62	8043
2203.649	8108
2205.678	8190
2207.708	8021
2209.737	8135
2211.764	8071
2213.791	8195
2215.817	8145
2217.843	8155
2219.87	8235
2221.895	8099
2223.919	8248
2225.942	8461
2227.966	8218
2229.988	8211
2232.012	8326
2234.032	8209
2236.054	8307
2238.074	8272
2240.095	8319
2242.116	8342
2244.135	8231
2246.153	8346
2248.171	8286
2250.188	8271
2252.208	8233
2254.223	8338
2256.239	8309
2258.255	8395
2260.269	8443
2262.283	8555
2264.3	8386
2266.312	8560
2268.325	8523
2270.336	8476
2272.349	8452
2274.362	8525
2276.372	8482
2278.383	8594
2280.392	8504
2282.402	8355
2284.409	8441
2286.418	8566
2288.427	8599
2290.433	8595
2292.441	8666
2294.446	8595
2296.453	8529
2298.459	8611
2300.463	8666
2302.466	8643
2304.471	8719
2306.475	8684
2308.477	8656
2310.478	8639
2312.481	8737
2314.481	8650
2316.481	8760
2318.482	8756
2320.482	8749
2322.48	8791
2324.48	8640
2326.478	8728
2328.476	8822
2330.473	8768
2332.469	8797
2334.465	8868
2336.46	8835
2338.454	8722
2340.45	8792
2342.444	8876
2344.437	8873
2346.43	8837
2348.421	8805
2350.414	8934
2352.405	8973
2354.396	8875
2356.386	8855
2358.376	8881
2360.366	8987
2362.355	8978
2364.343	8971
2366.331	8956
2368.317	8959
2370.304	9013
2372.292	9106
2374.278	9009
2376.262	9193
2378.247	9012
2380.23	9050
2382.216	9039
2384.199	9223
2386.181	9082
2388.163	9050
2390.144	9038
2392.127	9210
2394.107	9178
2396.087	9247
2398.066	9119
2400.046	9122
2402.023	9231
2404.004	9123
2405.981	9251
2407.957	9164
2409.934	9156
2411.91	9207
2413.886	9359
2415.862	9227
2417.836	9230
2419.809	9320
2421.784	9246
2423.756	9396
2425.73	9281
2427.701	9349
2429.672	9361
2431.644	9555
2433.615	9462
2435.586	9396
2437.555	9550
2439.523	9502
2441.491	9414
2443.459	9571
2445.428	9602
2447.395	9504
2449.361	9509
2451.327	9643
2453.292	9558
2455.257	9525
2457.223	9513
2459.187	9671
2461.15	9704
2463.113	9639
2465.076	9756
2467.039	9628
2468.999	9769
2470.96	9662
2472.921	9630
2474.881	9767
2476.841	9645
2478.8	9715
2480.759	9790
2482.717	9733
2484.675	9841
2486.63	9768
2488.589	9834
2490.545	10018
2492.5	9668
2494.455	9882
2496.408	9989
2498.364	9933
2500.318	9818
2502.27	9965
2504.223	9905
2506.174	10076
2508.126	10019
2510.078	10017
2512.03	10011
2513.979	10267
2515.927	10060
2517.877	10089
2519.826	10153
2521.775	10188
2523.722	10130
2525.668	10225
2527.616	10140
2529.561	10258
2531.508	10191
2533.452	10322
2535.398	10242
2537.342	10183
2539.284	10432
2541.229	10402
2543.173	10223
2545.114	10278
2547.055	10589
2548.996	10460
2550.938	10462
2552.878	10540
2554.817	10514
2556.756	10605
2558.695	10438
2560.633	10393
2562.572	10678
2564.509	10594
2566.445	10615
2568.382	10679
2570.317	10675
2572.254	10573
2574.189	10798
2576.123	10652
2578.057	10682
2579.99	10763
2581.923	10902
2583.855	10782
2585.788	10823
2587.719	10904
2589.65	10871
2591.579	10987
2593.511	10762
2595.44	11099
2597.37	11003
2599.297	10985
2601.225	11125
2603.153	11030
2605.08	11252
2607.007	11243
2608.932	11234
2610.858	11296
2612.782	11109
2614.709	11303
2616.632	11237
2618.556	11328
2620.478	11291
2622.401	11388
2624.324	11259
2626.247	11451
2628.167	11578
2630.088	11446
2632.008	11426
2633.928	11571
2635.848	11689
2637.766	11550
2639.684	11614
2641.603	11631
2643.519	11738
2645.437	11735
2647.353	11678
2649.27	11860
2651.184	11817
2653.099	11971
2655.014	11810
2656.928	11901
2658.842	11850
2660.755	11791
2662.667	12036
2664.579	11935
2666.491	11954
2668.402	11986
2670.312	11866
2672.222	12186
2674.132	12067
2676.042	12166
2677.951	12251
2679.859	12262
2681.766	12106
2683.674	12035
2685.582	12240
2687.488	12338
2689.392	12404
2691.298	12310
2693.202	12344
2695.107	12195
2697.012	12426
2698.914	12448
2700.817	12367
2702.72	12539
2704.622	12448
2706.524	12555
2708.425	12581
2710.326	12509
2712.225	12543
2714.125	12519
2716.024	12732
2717.923	12717
2719.822	12536
2721.719	12672
2723.616	12739
2725.512	12960
2727.41	12819
2729.305	12842
2731.201	12858
2733.095	12988
2734.99	12850
2736.884	12809
2738.778	13096
2740.67	12827
2742.562	13029
2744.455	13185
2746.346	13267
2748.238	13184
2750.129	13274
2752.018	13227
2753.907	13131
2755.797	13341
2757.687	13209
2759.575	13246
2761.462	13254
2763.349	13517
2765.237	13454
2767.124	13473
2769.009	13543
2770.894	13380
2772.779	13562
2774.663	13570
2776.547	13629
2778.431	13600
2780.314	13693
2782.197	13889
2784.078	13804
2785.96	13637
2787.842	13772
2789.723	13966
2791.603	13908
2793.483	13853
2795.362	13964
2797.241	14226
2799.121	14005
2800.997	13957
2802.874	14048
2804.751	14093
2806.628	14187
2808.506	14090
2810.38	14086
2812.255	14123
2814.13	14002
2816.003	14620
2817.878	14284
2819.752	14397
2821.623	14562
2823.496	14472
2825.368	14566
2827.238	14342
2829.111	14564
2830.98	14424
2832.851	14668
2834.719	14656
2836.589	14747
2838.458	14784
2840.327	14819
2842.193	15040
2844.061	14768
2845.927	14995
2847.794	15097
2849.66	15213
2851.525	15084
2853.39	15216
2855.254	15033
2857.117	15133
2858.983	15308
2860.845	15405
2862.707	15371
2864.569	15558
2866.431	15689
2868.293	15424
2870.154	15781
2872.013	15906
2873.873	15681
2875.733	15897
2877.592	15955
2879.451	16123
2881.309	16175
2883.166	16136
2885.022	16487
2886.879	16300
2888.736	16299
2890.591	16467
2892.446	16370
2894.301	16674
2896.155	16756
2898.009	16776
2899.863	16826
2901.716	16490
2903.568	16785
2905.419	16959
2907.27	16728
2909.123	16916
2910.973	16996
2912.824	17009
2914.673	17285
2916.521	17070
2918.372	17154
2920.22	17619
2922.067	17419
2923.914	17478
2925.761	17850
2927.607	17869
2929.455	17745
2931.301	18082
2933.144	18031
2934.99	18018
2936.833	18243
2938.678	18197
2940.522	18180
2942.364	18490
2944.207	18517
2946.048	18553
2947.891	18808
2949.731	18865
2951.571	18953
2953.412	18871
2955.25	18853
2957.09	18899
2958.93	18818
2960.767	19053
2962.606	18534
2964.443	18964
2966.279	18831
2968.116	18748
2969.953	18585
2971.788	18579
2973.623	18442
2975.457	18617
2977.292	18532
2979.127	18415
2980.959	18879
2982.792	18684
2984.624	18643
2986.455	18681
2988.288	18608
2990.119	18581
2991.949	18615
2993.779	18653
2995.608	18731
2997.439	18715
2999.268	18795
3001.096	18774
3002.923	18880
3004.751	18491
3006.578	18410
3008.406	18988
3010.232	18890
3012.057	18682
3013.883	18850
3015.706	18885
3017.532	18839
3019.356	18932
3021.179	19059
3023.002	18884
3024.823	18966
3026.646	19115
3028.469	18831
3030.289	19196
3032.11	18959
3033.93	19237
3035.749	19325
3037.57	19298
3039.39	19085
3041.207	19474
3043.026	19282
3044.842	19599
3046.661	19408
3048.477	19693
3050.294	19278
3052.109	19413
3053.925	19693
3055.739	19785
3057.555	19803
3059.368	19656
3061.181	19821
3062.995	19772
3064.807	19976
3066.62	19908
3068.433	19789
3070.243	20156
3072.054	20065
3073.865	20347
3075.675	20038
3077.485	20231
3079.293	20229
3081.102	20327
3082.911	20411
3084.719	20001
3086.527	20355
3088.333	20564
3090.139	20450
3091.945	20367
3093.75	20607
3095.557	20519
3097.361	20697
3099.165	20683
3100.969	20786
3102.772	20679
3104.575	20728
3106.379	20800
3108.181	20982
3109.982	20957
3111.783	21078
3113.584	21429
3115.386	20973
3117.186	20982
3118.985	21080
3120.783	21258
3122.582	21107
3124.381	20956
3126.179	21206
3127.975	21427
3129.772	21249
3131.569	21488
3133.365	21596
3135.161	21566
3136.956	21568
3138.751	21721
3140.544	21637
3142.338	21892
3144.132	21824
3145.925	21860
3147.717	21840
3149.509	22097
3151.301	21836
3153.091	22252
3154.884	22005
3156.673	22060
3158.462	22075
3160.252	22272
3162.041	22340
3163.831	22448
3165.618	22200
3167.405	22608
3169.193	22648
3170.979	22445
3172.767	22618
3174.553	22847
3176.338	22897
3178.123	22857
3179.907	22713
3181.692	22922
3183.477	22969
3185.259	22953
3187.042	22736
3188.824	23015
3190.607	23363
3192.389	23166
3194.17	23142
3195.951	23328
3197.73	23277
3199.51	23404
3201.289	23527
3203.07	23387
3204.848	23747
3206.626	23536
3208.403	23816
3210.18	23555
3211.959	23695
3213.735	24090
3215.511	23961
3217.285	23926
3219.06	24271
3220.836	23891
3222.611	24259
3224.384	24136
3226.158	24224
3227.929	24261
3229.702	24538
3231.476	24341
3233.248	24608
3235.018	24694
3236.789	24354
3238.56	24637
3240.33	24581
3242.1	24947
3243.869	24844
3245.637	25281
3247.405	24825
3249.172	25135
3250.941	25597
3252.707	25156
3254.474	25579
3256.24	25480
3258.006	25494
3259.772	25505
3261.537	25587
3263.301	25606
3265.065	25824
3266.828	25912
3268.592	25839
3270.355	26273
3272.117	25783
3273.878	25886
3275.64	26126
3277.401	26346
3279.162	26499
3280.922	26454
3282.682	26372
3284.441	26523
3286.199	26687
3287.959	26793
3289.716	26609
3291.475	26901
3293.232	27159
3294.988	26875
3296.744	26671
3298.501	27132
3300.256	27147
3302.011	27456
3303.766	27060
3305.52	27556
3307.275	27297
3309.028	27622
3310.781	27823
3312.533	28086
3314.285	27549
3316.038	27815
3317.789	28030
3319.54	27767
3321.289	28022
3323.039	28116
3324.789	28122
3326.539	28359
3328.288	28272
3330.035	28614
3331.783	28334
3333.531	28658
3335.28	28576
3337.025	28630
3338.771	28804
3340.518	28868
3342.262	28643
3344.009	28821
3345.753	29299
3347.497	28941
3349.24	29164
3350.983	29245
3352.726	29248
3354.469	29151
3356.212	29284
3357.952	29278
3359.694	29444
3361.434	29292
3363.176	29540
3364.916	29836
3366.654	29962
3368.394	30160
3370.132	30152
3371.871	30106
3373.61	30299
3375.346	29972
3377.083	30201
3378.82	30654
3380.556	30715
3382.292	30298
3384.027	30711
3385.763	30536
3387.497	30803
3389.231	30895
3390.965	30977
3392.698	30873
3394.431	30978
3396.164	31211
3397.896	31403
3399.627	31118
3401.36	31237
3403.09	31431
3404.82	31450
3406.55	31453
3408.279	31335
3410.01	32243
3411.738	31841
3413.467	31750
3415.194	31879
3416.92	32008
3418.647	32476
3420.375	32052
3422.102	31842
3423.827	32121
3425.553	32386
3427.277	32566
3429.003	32378
3430.727	32665
3432.451	32922
3434.173	32964
3435.896	32903
3437.62	32871
3439.343	33086
3441.063	33287
3442.785	32972
3444.505	33001
3446.226	33328
3447.948	33443
3449.666	32827
3451.386	33134
3453.104	33389
3454.823	33701
3456.541	33686
3458.259	33498
3459.976	33839
3461.693	33891
3463.408	33843
3465.125	34039
3466.841	33823
3468.556	34040
3470.271	34327
3471.985	34119
3473.698	34320
3475.414	34319
3477.126	34499
3478.838	34541
3480.55	34416
3482.263	34725
3483.975	34686
3485.686	34984
3487.396	34954
3489.106	34818
3490.817	34867
3492.526	35478
3494.236	35188
3495.944	34961
3497.652	35368
3499.359	35104
3501.066	35515
3502.775	35563
3504.481	35471
3506.187	35765
3507.893	36063
3509.598	35697
3511.304	36343
3513.009	35789
3514.713	36046
3516.417	35919
3518.12	36476
3519.821	36259
3521.525	36305
3523.228	36636
3524.929	36866
3526.631	36837
3528.33	36136
3530.032	37208
3531.733	37097
3533.433	37258
3535.131	37012
3536.83	37381
3538.529	37596
3540.227	37910
3541.925	37203
3543.623	37578
3545.319	37802
3547.016	37890
3548.712	37980
3550.408	37813
3552.103	38223
3553.798	38009
3555.491	38101
3557.188	38006
3558.88	38798
3560.574	38748
3562.266	38769
3563.959	39018
3565.651	38733
3567.343	39029
3569.035	38902
3570.725	39417
3572.415	39220
3574.106	39070
3575.797	39625
3577.485	39630
3579.174	39539
3580.863	39551
3582.551	39804
3584.238	39884
3585.926	39849
3587.613	40019
3589.3	40136
3590.986	40434
3592.671	39620
3594.357	40656
3596.042	40277
3597.726	40756
3599.41	40558
3601.094	40433
3602.778	40739
3604.461	40751
3606.143	40946
3607.825	41285
3609.507	41046
3611.188	40646
3612.87	40869
3614.551	41401
3616.229	41417
3617.909	41102
3619.589	41465
3621.269	41513
3622.948	41591
3624.625	41692
3626.302	42135
3627.98	41611
3629.657	41865
3631.334	42175
3633.01	42149
3634.686	42297
3636.361	42106
3638.036	42564
3639.712	42574
3641.385	42896
3643.06	42586
3644.732	42449
3646.405	42396
3648.08	42655
3649.751	43250
3651.424	43115
3653.094	42934
3654.766	43693
3656.436	43313
3658.106	43320
3659.777	43723
3661.446	43799
3663.115	43665
3664.783	43694
3666.452	44275
3668.121	43974
3669.788	44216
3671.454	44369
3673.121	44002
3674.789	44527
3676.455	44633
3678.12	44371
3679.784	44765
3681.45	44879
3683.114	45049
3684.779	45265
3686.442	45305
3688.105	45435
3689.768	45560
3691.43	45621
3693.093	45045
3694.754	45862
3696.415	45823
3698.076	45889
3699.736	46234
3701.396	46285
3703.057	46692
3704.716	45965
3706.375	46863
3708.034	46591
3709.692	46206
3711.351	47040
3713.008	47116
3714.665	47036
3716.321	47049
3717.977	47165
3719.634	47061
3721.29	47289
3722.945	47395
3724.598	47411
3726.253	48034
3727.907	47702
3729.561	48132
3731.214	48063
3732.867	47965
3734.518	47818
3736.171	48286
3737.824	48408
3739.474	48515
3741.125	48176
3742.775	48819
3744.425	49239
3746.074	49126
3747.725	49269
3749.373	49003
3751.022	49207
3752.669	49325
3754.318	49602
3755.966	49247
3757.612	49608
3759.259	49827
3760.905	49799
3762.55	49521
3764.197	49720
3765.842	50201
3767.486	50389
3769.131	50171
3770.774	50271
3772.417	50171
3774.061	50315
3775.705	50703
3777.347	50528
3778.988	50751
3780.629	50949
3782.271	51191
3783.912	50834
3785.552	51058
3787.192	50944
3788.831	51273
3790.472	51359
3792.112	51443
3793.75	51872
3795.388	51754
3797.024	52090
3798.661	51609
3800.3	52325
3801.936	52137
3803.572	52405
3805.208	51742
3806.844	52592
3808.48	52579
3810.115	52174
3811.748	52272
3813.382	53111
3815.016	52882
3816.649	52487
3818.283	53032
3819.914	52992
3821.547	52802
3823.178	53506
3824.809	53795
3826.441	53523
3828.072	53444
3829.701	53624
3831.331	53519
3832.96	54088
3834.591	53905
3836.219	54390
3837.847	54161
3839.475	54163
3841.102	53949
3842.729	54548
3844.357	54335
3845.984	54712
3847.609	54558
3849.234	54780
3850.86	55151
3852.485	55031
3854.11	55141
3855.734	54882
3857.357	55420
3858.981	55555
3860.603	55648
3862.227	55655
3863.848	55618
3865.471	56067
3867.092	55903
3868.713	55562
3870.334	56437
3871.954	56516
3873.575	56038
3875.194	56557
3876.813	56556
3878.433	56636
3880.051	56733
3881.669	56902
3883.286	56847
3884.904	56690
3886.52	57288
3888.138	57466
3889.754	57304
3891.37	57677
3892.985	57700
3894.6	57951
3896.216	57934
3897.831	57502
3899.444	58346
3901.058	58504
3902.67	58035
3904.283	58524
3905.897	58617
3907.509	58629
3909.121	58675
3910.731	58823
3912.342	59417
3913.954	59157
3915.563	59292
3917.174	59313
3918.783	59364
3920.391	59595
3922.002	59686
3923.611	60349
3925.218	59664
3926.826	60280
3928.432	60329
3930.039	60431
3931.647	60382
3933.253	60254
3934.859	61012
3936.464	60731
3938.068	60406
3939.675	61667
3941.278	61165
3942.883	61719
3944.486	60870
3946.089	61848
3947.692	61277
3949.295	61615
3950.898	61747
3952.499	61797
3954.1	62115
3955.7	61890
3957.303	62385
3958.903	61983
3960.502	62675
3962.101	62296
3963.7	62632
3965.301	63018
3966.899	62619
3968.497	63224
3970.094	62834
3971.691	63009
3973.288	62972
3974.885	63330
3976.481	63149
3978.077	63056
3979.672	63228
3981.267	63577
3982.863	63560
3984.457	63712
3986.051	63645
3987.645	63982
3989.238	64528
3990.831	63950
3992.425	63745
3994.017	63716
3995.607	64844
3997.199	63750
3998.79	64070
4000.382	64691
4001.973	64841
4003.561	64533
4005.151	64564
4006.741	64516
4008.331	64851
4009.918	64770
4011.507	65051
4013.095	65068
4014.681	65227
4016.269	65409
4017.856	65006
4019.443	65535
4021.028	64974
4022.614	65388
4024.199	65535
4025.785	65535
4027.37	65453
4028.953	65535
4030.536	65535
4032.12	65535
4033.704	65535
4035.287	65535
4036.869	65535
4038.45	65535
4040.032	65535
4041.613	65535
4043.195	65535
4044.776	65535
4046.356	65535
4047.935	65535
4049.515	65535
4051.095	65535
4052.674	65535
4054.251	65535
4055.829	65535
4057.406	65535
4058.985	65535
4060.562	65535
4062.139	65535
4063.715	65535
4065.29	65535
4066.865	65535
4068.442	65535
4070.016	65535
4071.59	65535
4073.164	65535
4074.738	65535
4076.312	65535
4077.885	65535
4079.458	65535
4081.03	65535
4082.602	65535
4084.173	65535
4085.745	65535
4087.315	65535
4088.886	65535
4090.456	65535
4092.026	65535
4093.596	65535
4095.165	65535
4096.734	65535
4098.301	65535
4099.869	65535
4101.437	65535
4103.006	65535
4104.572	65535
4106.139	65535
4107.704	65535
4109.27	65535
4110.837	65535
4112.401	65535
4113.966	65535
4115.53	65535
4117.094	65535
4118.659	65535
4120.223	65535
4121.785	65535
4123.347	65535
4124.909	65535
4126.471	65535
4128.034	65535
4129.595	65535
4131.155	65535
4132.716	65535
4134.275	65535
4135.836	65535
4137.395	65535
4138.955	65535
4140.513	65535
4142.071	65535
4143.628	65535
4145.188	65535
4146.745	65535
4148.302	65535
4149.858	65535
4151.414	65535
4152.971	65535
4154.526	65535
4156.081	65535
4157.635	65535
4159.189	65535
4160.745	65535
4162.298	65535
4163.852	65535
4165.405	65535
4166.957	65535
4168.51	65535
4170.063	65535
4171.614	65535
4173.166	65535
4174.717	65535
4176.267	65535
4177.817	65535
4179.368	65535
4180.917	65535
4182.466	65535
4184.016	65535
4185.564	65535
4187.112	65535
4188.66	65535
4190.207	65535
4191.754	65535
4193.301	65535
4194.848	65535
4196.394	65535
4197.94	65535
4199.484	65535
4201.03	65535
4202.575	65535
4204.12	65535
4205.663	65535
4207.207	65535
4208.75	65535
4210.292	65535
4211.836	65535
4213.378	65535
4214.92	65535
4216.46	65535
4218.002	65535
4219.544	65535
4221.083	65535
4222.625	65535
4224.164	65535
4225.703	65535
4227.244	65535
4228.782	65535
4230.32	65535
4231.857	65535
4233.395	65535
4234.933	65535
4236.471	65535
4238.007	65535
4239.542	65535
4241.078	65535
4242.614	65535
4244.15	65535
4245.685	65535
4247.219	65535
4248.753	65535
4250.287	65535
4251.82	65535
4253.354	65535
4254.887	65535
4256.419	65535
4257.951	65535
4259.483	65535
4261.016	65535
4262.547	65535
4264.078	65535
4265.608	65535
4267.137	65535
4268.668	65535
4270.197	65535
4271.727	65535
4273.254	65535
4274.783	65535
4276.311	65535
4277.84	65535
4279.366	65535
4280.894	65535
4282.42	65535
4283.946	65535
4285.473	65535
4286.998	65535
4288.523	65535
4290.047	65535
4291.572	65535
4293.096	65535
4294.622	65535
4296.144	65535
4297.668	65535
4299.19	65535
4300.713	65535
4302.236	65535
4303.758	65535
4305.279	65535
4306.799	65535
4308.321	65535
4309.842	65535
4311.361	65535
4312.882	65535
4314.401	65535
