400.0961	4159
402.6185	4147
405.1424	4123
407.6635	4175
410.1838	4223
412.7035	4153
415.2225	4180
417.7388	4309
420.2585	4333
422.7754	4322
425.2917	4383
427.8072	4444
430.3221	4477
432.8363	4437
435.3498	4468
437.8626	4476
440.3727	4503
442.8841	4431
445.3969	4465
447.907	4452
450.4142	4451
452.9229	4449
455.4289	4394
457.9362	4375
460.4449	4379
462.9488	4293
465.454	4386
467.9566	4416
470.4604	4312
472.9637	4333
475.4662	4342
477.966	4456
480.4671	4320
482.9656	4352
485.4633	4451
487.9645	4363
490.4608	4480
492.9566	4393
495.4536	4479
497.948	4468
500.4437	4517
502.9387	4507
505.431	4513
507.9226	4531
510.4136	4453
512.9079	4450
515.3975	4514
517.8864	4480
520.3746	4544
522.8622	4496
525.3491	4476
527.8394	4612
530.3249	4555
532.8098	4580
535.2939	4605
537.7774	4604
540.2623	4606
542.7444	4568
545.2259	4576
547.7067	4594
550.1868	4676
552.6683	4534
555.147	4670
557.6231	4595
560.1005	4622
562.5773	4632
565.0534	4656
567.5308	4593
570.0056	4679
572.4776	4707
574.951	4615
577.4237	4745
579.8978	4822
582.3671	4788
584.8378	4828
587.3079	4753
589.7773	4800
592.244	4766
594.714	4816
597.1793	4753
599.6461	4729
602.1121	4668
604.5754	4815
607.0421	4739
609.5042	4709
611.9675	4866
614.4282	4755
616.8902	4762
619.3515	4676
621.8122	4808
624.2702	4744
626.7296	4743
629.1863	4584
631.6423	4745
634.1017	4685
636.5563	4706
639.0104	4640
641.4658	4699
643.9185	4765
646.3725	4735
648.8239	4772
651.2766	4773
653.7266	4771
656.176	4688
658.6247	4783
661.0748	4741
663.5242	4736
665.9709	4805
668.417	4911
670.8624	4852
673.3092	4808
675.7533	4780
678.1968	4814
680.6395	4880
683.0817	4792
685.5251	4873
687.9659	4793
690.4061	4922
692.8456	4923
695.2844	4926
697.7226	4893
700.1621	4881
702.599	4931
705.0332	4991
707.4688	5067
709.9036	4940
712.3399	4915
714.7735	4919
717.2044	4984
719.6367	4956
722.0683	4996
724.4993	5036
726.9296	5132
729.3593	4956
731.7883	5075
734.2147	5052
736.6423	5015
739.0714	5017
741.4958	5070
743.9216	5146
746.3447	5071
748.7691	5089
751.1929	5126
753.616	5186
756.0366	5162
758.4584	5169
760.8776	5190
763.2982	5257
765.718	5155
768.1373	5168
770.5539	5256
772.9698	5300
775.3871	5138
777.8038	5191
780.2178	5182
782.6332	5258
785.0459	5212
787.458	5253
789.8714	5288
792.2842	5195
794.6943	5223
797.1038	5186
799.5127	5304
801.9209	5177
804.3324	5332
806.7393	5250
809.1456	5185
811.5513	5252
813.9562	5276
816.3625	5226
818.7663	5355
821.1693	5354
823.5718	5327
825.9735	5291
828.3746	5266
830.7771	5253
833.177	5313
835.5762	5238
837.9747	5334
840.3727	5323
842.772	5319
845.1666	5429
847.5626	5333
849.958	5365
852.3527	5495
854.7488	5578
857.1403	5627
859.5331	5592
861.9253	5483
864.3168	5493
866.7057	5511
869.098	5454
871.4876	5390
873.8746	5406
876.263	5451
878.6487	5516
881.0378	5509
883.4243	5320
885.8081	5441
888.1933	5336
890.5759	5522
892.9598	5424
895.343	5387
897.7256	5423
900.1057	5480
902.4871	5392
904.8659	5494
907.246	5476
909.6254	5551
912.0023	5554
914.3786	5727
916.7562	5854
919.1331	5887
921.5074	6039
923.8831	5989
926.2562	5961
928.6287	5816
931.0005	5987
933.3757	5887
935.7462	5916
938.1162	5855
940.4855	5912
942.8542	5930
945.2242	6035
947.5916	6006
949.9584	6191
952.3266	6272
954.6921	6564
957.0571	6667
959.4233	6938
961.787	6915
964.15	7046
966.5125	6715
968.8742	6576
971.2354	6433
973.5959	6208
975.9559	5977
978.3151	5869
980.6738	5896
983.0338	5677
985.3912	5927
987.7461	5759
990.1022	5789
992.4578	5647
994.8127	5679
997.1689	5527
999.5207	5590
1001.874	5748
1004.226	5808
1006.576	5651
1008.929	5752
1011.28	5758
1013.628	5668
1015.977	5609
1018.324	5689
1020.674	5796
1023.019	5716
1025.366	5657
1027.713	5664
1030.056	5701
1032.399	5743
1034.746	5867
1037.087	5611
1039.431	5682
1041.771	5711
1044.113	5719
1046.454	5718
1048.793	5707
1051.133	5836
1053.471	5750
1055.807	5842
1058.146	5727
1060.483	5805
1062.818	5759
1065.153	5845
1067.489	5847
1069.822	5932
1072.156	5934
1074.488	5865
1076.82	5876
1079.15	6000
1081.48	5862
1083.814	5822
1086.143	5830
1088.471	5744
1090.799	5707
1093.126	5680
1095.452	5866
1097.78	5795
1100.105	5808
1102.43	5806
1104.754	5815
1107.077	5751
1109.4	5795
1111.722	5703
1114.044	5825
1116.365	5874
1118.685	5837
1121.005	5812
1123.324	5833
1125.643	5890
1127.961	5870
1130.278	5816
1132.595	5795
1134.911	5736
1137.226	5830
1139.541	5716
1141.854	5739
1144.167	5820
1146.482	5873
1148.793	5750
1151.105	5707
1153.414	5784
1155.725	5673
1158.033	5808
1160.344	5746
1162.651	5780
1164.959	5870
1167.265	5725
1169.572	5777
1171.878	5860
1174.184	5909
1176.488	5817
1178.79	5870
1181.094	5834
1183.396	5925
1185.699	5864
1188.001	5801
1190.301	5713
1192.6	5807
1194.9	5864
1197.2	5778
1199.497	5764
1201.794	5854
1204.09	5929
1206.387	5886
1208.684	5747
1210.978	5828
1213.272	5741
1215.565	5861
1217.858	5822
1220.15	5969
1222.443	5735
1224.734	5887
1227.024	5942
1229.313	5892
1231.602	5980
1233.892	5964
1236.18	6021
1238.467	6008
1240.754	6029
1243.04	6044
1245.325	6264
1247.612	6110
1249.896	6178
1252.178	6202
1254.461	6109
1256.743	6138
1259.027	6091
1261.308	6266
1263.587	6079
1265.867	6193
1268.146	6252
1270.425	6121
1272.703	6177
1274.981	6204
1277.256	6229
1279.532	6149
1281.808	5986
1284.083	6092
1286.358	6096
1288.63	6052
1290.904	5982
1293.175	5936
1295.449	6104
1297.719	6018
1299.99	5975
1302.259	6025
1304.529	5998
1306.798	5944
1309.065	6096
1311.333	6014
1313.599	6142
1315.866	6131
1318.131	5976
1320.396	6091
1322.66	5956
1324.925	6129
1327.187	6107
1329.448	6040
1331.711	6116
1333.974	6111
1336.234	6161
1338.493	6051
1340.752	6041
1343.01	6033
1345.269	6032
1347.526	5996
1349.784	5921
1352.04	6107
1354.295	5914
1356.552	5999
1358.806	5926
1361.059	6056
1363.312	5942
1365.564	5977
1367.818	5968
1370.069	6069
1372.318	6043
1374.568	6084
1376.817	5953
1379.066	6082
1381.316	6014
1383.564	5969
1385.809	6314
1388.056	6056
1390.301	6249
1392.549	6315
1394.793	6387
1397.036	6284
1399.279	6494
1401.522	6422
1403.763	6494
1406.007	6431
1408.248	6454
1410.487	6426
1412.727	6554
1414.965	6430
1417.205	6382
1419.442	6424
1421.68	6407
1423.915	6328
1426.152	6341
1428.388	6271
1430.623	6341
1432.857	6297
1435.091	6306
1437.323	6430
1439.556	6470
1441.789	6495
1444.019	6345
1446.25	6518
1448.48	6574
1450.708	6260
1452.938	6397
1455.167	6471
1457.394	6672
1459.62	6570
1461.846	6447
1464.073	6546
1466.299	6437
1468.523	6370
1470.746	6276
1472.969	6256
1475.191	6222
1477.415	6145
1479.636	6115
1481.858	6058
1484.078	6080
1486.298	6084
1488.518	6027
1490.736	6032
1492.954	6014
1495.169	5988
1497.386	6036
1499.602	6069
1501.819	5938
1504.034	5962
1506.248	5948
1508.462	6090
1510.675	5908
1512.888	5989
1515.1	6055
1517.311	5893
1519.522	5947
1521.732	6037
1523.942	5940
1526.151	5944
1528.36	5918
1530.566	5944
1532.773	6013
1534.98	5907
1537.187	5962
1539.392	5972
1541.596	6067
1543.801	6068
1546.005	5976
1548.208	5956
1550.411	6100
1552.612	6040
1554.814	6090
1557.013	6115
1559.212	6064
1561.414	6118
1563.612	6116
1565.811	6143
1568.007	6089
1570.203	6150
1572.403	6131
1574.598	6157
1576.792	6194
1578.988	6171
1581.181	6077
1583.376	6113
1585.568	6199
1587.761	6159
1589.952	6175
1592.143	6294
1594.333	6138
1596.524	6137
1598.715	6260
1600.903	6212
1603.091	6111
1605.278	6176
1607.466	6277
1609.652	6263
1611.838	6191
1614.023	6242
1616.207	6196
1618.391	6280
1620.576	6329
1622.759	6351
1624.941	6207
1627.123	6247
1629.304	6187
1631.484	6224
1633.664	6343
1635.844	6279
1638.022	6353
1640.201	6416
1642.38	6533
1644.556	6280
1646.732	6388
1648.908	6244
1651.084	6487
1653.257	6467
1655.433	6369
1657.607	6298
1659.779	6518
1661.951	6330
1664.122	6455
1666.295	6480
1668.467	6492
1670.635	6437
1672.805	6409
1674.973	6366
1677.142	6551
1679.31	6431
1681.478	6453
1683.644	6371
1685.81	6425
1687.975	6432
1690.142	6404
1692.305	6310
1694.468	6363
1696.632	6434
1698.794	6196
1700.957	6232
1703.119	6275
1705.279	6234
1707.439	6143
1709.598	6319
1711.758	6203
1713.917	6237
1716.075	6256
1718.231	6239
1720.388	6124
1722.543	6138
1724.702	6158
1726.856	6169
1729.01	6139
1731.164	6222
1733.317	6221
1735.471	6191
1737.623	6114
1739.774	6163
1741.925	6311
1744.075	6114
1746.225	6191
1748.376	6112
1750.524	6122
1752.672	6097
1754.82	6052
1756.965	6174
1759.113	6105
1761.259	6222
1763.405	6152
1765.549	6181
1767.694	6166
1769.836	6248
1771.981	6131
1774.123	6263
1776.264	6314
1778.405	6190
1780.546	6230
1782.687	6209
1784.827	6263
1786.966	6319
1789.103	6271
1791.242	6257
1793.381	6301
1795.517	6286
1797.653	6295
1799.788	6215
1801.923	6335
1804.057	6316
1806.193	6208
1808.326	6174
1810.457	6248
1812.59	6187
1814.721	6199
1816.855	6149
1818.984	6139
1821.113	6288
1823.244	6243
1825.372	6205
1827.499	6237
1829.63	6178
1831.756	6203
1833.882	6226
1836.007	6246
1838.132	6213
1840.26	6181
1842.384	6095
1844.507	6226
1846.63	6192
1848.752	6312
1850.875	6213
1852.996	6201
1855.118	6025
1857.238	6111
1859.358	6244
1861.477	6089
1863.597	6127
1865.715	6070
1867.832	6172
1869.948	6208
1872.064	6169
1874.181	6071
1876.297	6205
1878.411	6093
1880.526	6259
1882.639	6088
1884.752	6174
1886.865	6185
1888.977	6194
1891.089	6111
1893.2	6177
1895.308	6224
1897.42	6271
1899.53	6232
1901.639	6192
1903.745	6248
1905.853	6291
1907.962	6292
1910.067	6234
1912.174	6197
1914.278	6219
1916.383	6340
1918.486	6187
1920.592	6234
1922.694	6319
1924.797	6264
1926.898	6211
1929	6218
1931.102	6376
1933.203	6210
1935.301	6325
1937.401	6180
1939.499	6304
1941.598	6336
1943.697	6296
1945.793	6244
1947.888	6260
1949.985	6310
1952.08	6279
1954.176	6248
1956.269	6369
1958.364	6323
1960.457	6219
1962.549	6323
1964.642	6356
1966.733	6405
1968.823	6340
1970.913	6218
1973.005	6283
1975.093	6281
1977.184	6192
1979.271	6252
1981.359	6209
1983.446	6259
1985.532	6343
1987.619	6421
1989.705	6169
1991.789	6254
1993.874	6079
1995.956	6224
1998.041	6162
2000.123	6263
2002.206	6314
2004.287	6255
2006.368	6188
2008.449	6171
2010.529	6108
2012.609	6265
2014.688	6226
2016.766	6082
2018.843	6167
2020.922	6170
2022.999	6261
2025.074	6155
2027.15	6146
2029.225	6143
2031.299	6202
2033.375	6144
2035.447	6162
2037.52	6228
2039.592	6175
2041.664	6159
2043.736	6279
2045.807	6252
2047.876	6229
2049.947	6178
2052.015	6174
2054.086	6231
2056.153	6263
2058.221	6265
2060.288	6130
2062.353	6212
2064.42	6190
2066.486	6088
2068.55	6216
2070.614	6211
2072.678	6245
2074.741	6185
2076.805	6299
2078.866	6203
2080.929	6167
2082.99	6232
2085.049	6270
2087.109	6243
2089.17	6211
2091.228	6273
2093.286	6208
2095.344	6337
2097.4	6333
2099.46	6193
2101.516	6245
2103.572	6157
2105.626	6164
2107.679	6366
2109.735	6193
2111.788	6239
2113.841	6156
2115.894	6272
2117.945	6187
2119.997	6247
2122.049	6166
2124.1	6185
2126.148	6154
2128.197	6316
2130.246	6241
2132.296	6135
2134.342	6261
2136.39	6175
2138.437	6344
2140.483	6157
2142.527	6243
2144.574	6183
2146.619	6180
2148.661	6206
2150.705	6228
2152.747	6178
2154.792	6117
2156.832	6228
2158.874	6060
2160.915	6245
2162.954	6146
2164.995	6144
2167.034	6162
2169.072	6127
2171.111	6205
2173.148	6128
2175.186	6140
2177.223	6130
2179.258	6131
2181.294	6175
2183.328	6119
2185.362	6032
2187.398	6133
2189.431	6028
2191.463	6036
2193.495	6075
2195.528	6134
2197.56	6054
2199.59	6040
2201.62	6041
2203.649	6033
2205.678	6107
2207.708	5997
2209.737	5996
2211.764	6019
2213.791	5947
2215.817	6114
2217.843	5959
2219.87	6073
2221.895	6014
2223.919	6125
2225.942	6027
2227.966	5999
2229.988	6036
2232.012	6134
2234.032	6108
2236.054	5939
2238.074	5978
2240.095	6062
2242.116	6040
2244.135	6020
2246.153	6089
2248.171	6059
2250.188	6040
2252.208	6010
2254.223	6003
2256.239	6069
2258.255	6147
2260.269	6034
2262.283	6169
2264.3	5977
2266.312	6064
2268.325	6056
2270.336	6094
2272.349	6019
2274.362	6128
2276.372	6070
2278.383	6061
2280.392	5978
2282.402	6028
2284.409	6015
2286.418	5930
2288.427	5877
2290.433	5981
2292.441	6021
2294.446	6100
2296.453	5985
2298.459	6042
2300.463	5991
2302.466	5895
2304.471	6084
2306.475	6072
2308.477	5881
2310.478	5920
2312.481	6114
2314.481	5984
2316.481	6073
2318.482	5972
2320.482	5975
2322.48	6062
2324.48	5913
2326.478	5999
2328.476	5906
2330.473	6039
2332.469	5949
2334.465	6005
2336.46	6018
2338.454	5903
2340.45	5961
2342.444	5935
2344.437	5977
2346.43	6027
2348.421	5965
2350.414	5984
2352.405	5804
2354.396	5846
2356.386	5934
2358.376	5918
2360.366	5888
2362.355	5844
2364.343	5924
2366.331	5858
2368.317	5982
2370.304	5990
2372.292	5917
2374.278	5820
2376.262	5953
2378.247	5804
2380.23	5776
2382.216	5835
2384.199	5850
2386.181	5968
2388.163	5752
2390.144	5908
2392.127	5746
2394.107	5883
2396.087	5834
2398.066	5970
2400.046	5806
2402.023	5823
2404.004	5823
2405.981	5839
2407.957	5834
2409.934	5778
2411.91	5782
2413.886	5873
2415.862	5757
2417.836	5833
2419.809	5773
2421.784	5742
2423.756	5855
2425.73	5887
2427.701	5823
2429.672	5858
2431.644	5817
2433.615	5791
2435.586	5797
2437.555	5795
2439.523	5815
2441.491	5856
2443.459	5869
2445.428	5778
2447.395	5745
2449.361	5732
2451.327	5779
2453.292	5851
2455.257	5727
2457.223	5793
2459.187	5794
2461.15	5789
2463.113	5815
2465.076	5768
2467.039	5739
2468.999	5709
2470.96	5746
2472.921	5683
2474.881	5742
2476.841	5722
2478.8	5718
2480.759	5815
2482.717	5751
2484.675	5721
2486.63	5859
2488.589	5627
2490.545	5626
2492.5	5740
2494.455	5719
2496.408	5808
2498.364	5765
2500.318	5703
2502.27	5696
2504.223	5720
2506.174	5719
2508.126	5771
2510.078	5603
2512.03	5642
2513.979	5724
2515.927	5696
2517.877	5621
2519.826	5701
2521.775	5698
2523.722	5783
2525.668	5673
2527.616	5567
2529.561	5674
2531.508	5703
2533.452	5665
2535.398	5693
2537.342	5681
2539.284	5700
2541.229	5758
2543.173	5648
2545.114	5594
2547.055	5642
2548.996	5649
2550.938	5645
2552.878	5640
2554.817	5802
2556.756	5636
2558.695	5593
2560.633	5679
2562.572	5670
2564.509	5683
2566.445	5639
2568.382	5588
2570.317	5636
2572.254	5720
2574.189	5720
2576.123	5742
2578.057	5676
2579.99	5566
2581.923	5640
2583.855	5695
2585.788	5763
2587.719	5754
2589.65	5670
2591.579	5646
2593.511	5619
2595.44	5719
2597.37	5591
2599.297	5705
2601.225	5620
2603.153	5663
2605.08	5681
2607.007	5579
2608.932	5733
2610.858	5616
2612.782	5673
2614.709	5665
2616.632	5574
2618.556	5677
2620.478	5628
2622.401	5616
2624.324	5719
2626.247	5690
2628.167	5638
2630.088	5710
2632.008	5629
2633.928	5741
2635.848	5633
2637.766	5693
2639.684	5645
2641.603	5714
2643.519	5756
2645.437	5658
2647.353	5674
2649.27	5594
2651.184	5767
2653.099	5718
2655.014	5581
2656.928	5672
2658.842	5818
2660.755	5653
2662.667	5679
2664.579	5686
2666.491	5707
2668.402	5627
2670.312	5677
2672.222	5610
2674.132	5706
2676.042	5701
2677.951	5573
2679.859	5590
2681.766	5611
2683.674	5591
2685.582	5617
2687.488	5680
2689.392	5634
2691.298	5608
2693.202	5680
2695.107	5643
2697.012	5575
2698.914	5487
2700.817	5633
2702.72	5677
2704.622	5591
2706.524	5639
2708.425	5553
2710.326	5644
2712.225	5611
2714.125	5514
2716.024	5594
2717.923	5598
2719.822	5630
2721.719	5461
2723.616	5575
2725.512	5524
2727.41	5631
2729.305	5578
2731.201	5505
2733.095	5439
2734.99	5627
2736.884	5413
2738.778	5577
2740.67	5585
2742.562	5626
2744.455	5588
2746.346	5702
2748.238	5622
2750.129	5423
2752.018	5529
2753.907	5519
2755.797	5540
2757.687	5506
2759.575	5559
2761.462	5478
2763.349	5564
2765.237	5672
2767.124	5536
2769.009	5447
2770.894	5536
2772.779	5585
2774.663	5536
2776.547	5578
2778.431	5504
2780.314	5551
2782.197	5555
2784.078	5517
2785.96	5396
2787.842	5500
2789.723	5581
2791.603	5452
2793.483	5585
2795.362	5450
2797.241	5504
2799.121	5478
2800.997	5434
2802.874	5530
2804.751	5519
2806.628	5580
2808.506	5399
2810.38	5551
2812.255	5537
2814.13	5441
2816.003	5513
2817.878	5471
2819.752	5467
2821.623	5457
2823.496	5543
2825.368	5420
2827.238	5643
2829.111	5668
2830.98	5552
2832.851	5546
2834.719	5519
2836.589	5514
2838.458	5512
2840.327	5605
2842.193	5566
2844.061	5515
2845.927	5583
2847.794	5544
2849.66	5704
2851.525	5612
2853.39	5658
2855.254	5727
2857.117	5620
2858.983	5748
2860.845	5734
2862.707	5750
2864.569	5872
2866.431	5803
2868.293	5821
2870.154	5917
2872.013	5948
2873.873	6070
2875.733	5964
2877.592	6097
2879.451	6179
2881.309	6271
2883.166	6342
2885.022	6321
2886.879	6396
2888.736	6352
2890.591	6510
2892.446	6393
2894.301	6358
2896.155	6506
2898.009	6507
2899.863	6452
2901.716	6467
2903.568	6353
2905.419	6438
2907.27	6446
2909.123	6507
2910.973	6439
2912.824	6580
2914.673	6537
2916.521	6576
2918.372	6642
2920.22	6782
2922.067	6726
2923.914	6892
2925.761	6934
2927.607	6986
2929.455	6991
2931.301	6999
2933.144	6958
2934.99	7091
2936.833	7089
2938.678	7179
2940.522	7267
2942.364	7428
2944.207	7554
2946.048	7680
2947.891	7736
2949.731	7734
2951.571	7721
2953.412	7830
2955.25	7666
2957.09	7606
2958.93	7469
2960.767	7496
2962.606	7283
2964.443	7254
2966.279	7236
2968.116	7017
2969.953	6962
2971.788	6780
2973.623	6773
2975.457	6643
2977.292	6651
2979.127	6494
2980.959	6630
2982.792	6384
2984.624	6390
2986.455	6348
2988.288	6285
2990.119	6329
2991.949	6261
2993.779	6259
2995.608	6123
2997.439	6005
2999.268	6075
3001.096	6025
3002.923	5870
3004.751	5794
3006.578	5819
3008.406	5742
3010.232	5736
3012.057	5678
3013.883	5572
3015.706	5646
3017.532	5544
3019.356	5466
3021.179	5492
3023.002	5382
3024.823	5362
3026.646	5456
3028.469	5457
3030.289	5338
3032.11	5398
3033.93	5416
3035.749	5184
3037.57	5381
3039.39	5314
3041.207	5328
3043.026	5297
3044.842	5339
3046.661	5305
3048.477	5329
3050.294	5243
3052.109	5278
3053.925	5390
3055.739	5268
3057.555	5213
3059.368	5287
3061.181	5354
3062.995	5282
3064.807	5272
3066.62	5217
3068.433	5245
3070.243	5257
3072.054	5203
3073.865	5235
3075.675	5214
3077.485	5166
3079.293	5190
3081.102	5224
3082.911	5195
3084.719	5213
3086.527	5233
3088.333	5071
3090.139	5181
3091.945	5101
3093.75	5147
3095.557	5092
3097.361	5092
3099.165	5236
3100.969	5087
3102.772	5118
3104.575	5090
3106.379	5029
3108.181	5137
3109.982	5017
3111.783	5134
3113.584	5093
3115.386	5010
3117.186	5073
3118.985	4982
3120.783	5004
3122.582	5030
3124.381	4935
3126.179	5032
3127.975	5116
3129.772	5019
3131.569	4990
3133.365	5010
3135.161	5020
3136.956	4983
3138.751	5015
3140.544	5034
3142.338	5071
3144.132	4939
3145.925	4971
3147.717	4905
3149.509	4918
3151.301	5019
3153.091	4924
3154.884	4821
3156.673	4980
3158.462	5006
3160.252	4965
3162.041	4928
3163.831	4969
3165.618	4916
3167.405	4904
3169.193	4962
3170.979	4929
3172.767	4907
3174.553	4908
3176.338	4838
3178.123	4871
3179.907	4835
3181.692	4884
3183.477	5011
3185.259	4924
3187.042	4919
3188.824	4913
3190.607	4969
3192.389	4881
3194.17	4999
3195.951	5000
3197.73	4870
3199.51	5001
3201.289	4944
3203.07	4870
3204.848	4861
3206.626	4890
3208.403	4877
3210.18	4876
3211.959	4973
3213.735	4849
3215.511	4951
3217.285	4873
3219.06	4938
3220.836	5008
3222.611	5006
3224.384	4913
3226.158	4874
3227.929	4927
3229.702	4948
3231.476	4937
3233.248	4920
3235.018	4990
3236.789	4792
3238.56	4981
3240.33	4889
3242.1	4819
3243.869	4907
3245.637	4946
3247.405	4915
3249.172	4929
3250.941	4945
3252.707	4886
3254.474	4907
3256.24	4977
3258.006	4877
3259.772	4952
3261.537	4884
3263.301	4960
3265.065	4839
3266.828	4922
3268.592	4886
3270.355	4939
3272.117	4856
3273.878	4818
3275.64	4911
3277.401	4898
3279.162	4941
3280.922	4892
3282.682	4952
3284.441	4959
3286.199	4873
3287.959	4955
3289.716	4987
3291.475	4922
3293.232	4877
3294.988	4909
3296.744	4863
3298.501	4917
3300.256	4934
3302.011	4929
3303.766	4906
3305.52	4959
3307.275	4880
3309.028	4972
3310.781	4892
3312.533	4874
3314.285	4920
3316.038	4886
3317.789	4958
3319.54	4852
3321.289	4904
3323.039	4879
3324.789	4896
3326.539	4824
3328.288	4822
3330.035	4851
3331.783	4922
3333.531	4809
3335.28	4743
3337.025	4837
3338.771	4882
3340.518	4750
3342.262	4877
3344.009	4761
3345.753	4862
3347.497	4797
3349.24	4743
3350.983	4724
3352.726	4713
3354.469	4781
3356.212	4691
3357.952	4797
3359.694	4780
3361.434	4844
3363.176	4785
3364.916	4826
3366.654	4742
3368.394	4742
3370.132	4747
3371.871	4754
3373.61	4825
3375.346	4689
3377.083	4674
3378.82	4655
3380.556	4732
3382.292	4696
3384.027	4700
3385.763	4692
3387.497	4629
3389.231	4727
3390.965	4776
3392.698	4667
3394.431	4733
3396.164	4730
3397.896	4637
3399.627	4656
3401.36	4637
3403.09	4643
3404.82	4669
3406.55	4651
3408.279	4578
3410.01	4674
3411.738	4631
3413.467	4660
3415.194	4726
3416.92	4679
3418.647	4618
3420.375	4608
3422.102	4629
3423.827	4610
3425.553	4595
3427.277	4565
3429.003	4495
3430.727	4509
3432.451	4479
3434.173	4579
3435.896	4489
3437.62	4559
3439.343	4527
3441.063	4713
3442.785	4455
3444.505	4504
3446.226	4539
3447.948	4516
3449.666	4498
3451.386	4453
3453.104	4458
3454.823	4530
3456.541	4376
3458.259	4418
3459.976	4505
3461.693	4490
3463.408	4448
3465.125	4478
3466.841	4375
3468.556	4432
3470.271	4448
3471.985	4378
3473.698	4442
3475.414	4419
3477.126	4417
3478.838	4411
3480.55	4327
3482.263	4396
3483.975	4376
3485.686	4365
3487.396	4410
3489.106	4340
3490.817	4276
3492.526	4441
3494.236	4369
3495.944	4343
3497.652	4371
3499.359	4306
3501.066	4186
3502.775	4275
3504.481	4268
3506.187	4338
3507.893	4302
3509.598	4298
3511.304	4304
3513.009	4209
3514.713	4291
3516.417	4230
3518.12	4268
3519.821	4300
3521.525	4175
3523.228	4222
3524.929	4235
3526.631	4176
3528.33	4141
3530.032	4194
3531.733	4202
3533.433	4181
3535.131	4208
3536.83	4151
3538.529	4147
3540.227	4137
3541.925	4131
3543.623	4100
3545.319	4099
3547.016	4222
3548.712	4052
3550.408	4140
3552.103	4086
3553.798	4115
3555.491	4090
3557.188	4067
3558.88	4147
3560.574	4106
3562.266	4250
3563.959	4092
3565.651	4091
3567.343	4037
3569.035	4098
3570.725	4029
3572.415	4088
3574.106	3998
3575.797	4093
3577.485	4004
3579.174	4041
3580.863	3985
3582.551	4006
3584.238	3977
3585.926	4078
3587.613	3982
3589.3	4000
3590.986	3999
3592.671	3912
3594.357	4017
3596.042	3987
3597.726	3900
3599.41	3947
3601.094	4012
3602.778	3871
3604.461	3889
3606.143	3761
3607.825	3875
3609.507	3875
3611.188	3948
3612.87	3807
3614.551	3881
3616.229	3863
3617.909	3832
3619.589	3851
3621.269	3874
3622.948	3864
3624.625	3914
3626.302	3855
3627.98	3829
3629.657	3857
3631.334	3832
3633.01	3802
3634.686	3824
3636.361	3866
3638.036	3840
3639.712	3791
3641.385	3780
3643.06	3762
3644.732	3783
3646.405	3784
3648.08	3782
3649.751	3773
3651.424	3725
3653.094	3753
3654.766	3753
3656.436	3697
3658.106	3758
3659.777	3695
3661.446	3733
3663.115	3727
3664.783	3725
3666.452	3752
3668.121	3753
3669.788	3672
3671.454	3737
3673.121	3637
3674.789	3707
3676.455	3691
3678.12	3775
3679.784	3768
3681.45	3727
3683.114	3630
3684.779	3755
3686.442	3647
3688.105	3644
3689.768	3740
3691.43	3763
3693.093	3603
3694.754	3662
3696.415	3660
3698.076	3689
3699.736	3623
3701.396	3574
3703.057	3604
3704.716	3659
3706.375	3644
3708.034	3567
3709.692	3644
3711.351	3608
3713.008	3569
3714.665	3608
3716.321	3649
3717.977	3600
3719.634	3639
3721.29	3538
3722.945	3615
3724.598	3618
3726.253	3620
3727.907	3553
3729.561	3572
3731.214	3509
3732.867	3526
3734.518	3618
3736.171	3603
3737.824	3619
3739.474	3540
3741.125	3605
3742.775	3567
3744.425	3563
3746.074	3506
3747.725	3585
3749.373	3499
3751.022	3533
3752.669	3537
3754.318	3496
3755.966	3518
3757.612	3537
3759.259	3477
3760.905	3570
3762.55	3559
3764.197	3513
3765.842	3525
3767.486	3423
3769.131	3507
3770.774	3493
3772.417	3502
3774.061	3521
3775.705	3430
3777.347	3562
3778.988	3471
3780.629	3484
3782.271	3523
3783.912	3444
3785.552	3443
3787.192	3467
3788.831	3449
3790.472	3473
3792.112	3412
3793.75	3498
3795.388	3443
3797.024	3510
3798.661	3471
3800.3	3459
3801.936	3395
3803.572	3439
3805.208	3524
3806.844	3443
3808.48	3447
3810.115	3386
3811.748	3477
3813.382	3407
3815.016	3428
3816.649	3345
3818.283	3353
3819.914	3411
3821.547	3420
3823.178	3444
3824.809	3345
3826.441	3375
3828.072	3373
3829.701	3365
3831.331	3324
3832.96	3401
3834.591	3364
3836.219	3363
3837.847	3298
3839.475	3357
3841.102	3366
3842.729	3356
3844.357	3247
3845.984	3327
3847.609	3374
3849.234	3345
3850.86	3356
3852.485	3345
3854.11	3295
3855.734	3331
3857.357	3283
3858.981	3380
3860.603	3314
3862.227	3335
3863.848	3252
3865.471	3369
3867.092	3373
3868.713	3298
3870.334	3258
3871.954	3357
3873.575	3185
3875.194	3210
3876.813	3236
3878.433	3301
3880.051	3273
3881.669	3232
3883.286	3243
3884.904	3278
3886.52	3244
3888.138	3294
3889.754	3301
3891.37	3266
3892.985	3216
3894.6	3283
3896.216	3253
3897.831	3186
3899.444	3269
3901.058	3211
3902.67	3210
3904.283	3203
3905.897	3176
3907.509	3208
3909.121	3178
3910.731	3229
3912.342	3212
3913.954	3217
3915.563	3186
3917.174	3186
3918.783	3227
3920.391	3235
3922.002	3172
3923.611	3269
3925.218	3224
3926.826	3225
3928.432	3136
3930.039	3187
3931.647	3218
3933.253	3199
3934.859	3197
3936.464	3165
3938.068	3216
3939.675	3208
3941.278	3116
3942.883	3220
3944.486	3164
3946.089	3243
3947.692	3171
3949.295	3121
3950.898	3158
3952.499	3159
3954.1	3132
3955.7	3189
3957.303	3115
3958.903	3139
3960.502	3142
3962.101	3113
3963.7	3176
3965.301	3142
3966.899	3165
3968.497	3165
3970.094	3078
3971.691	3131
3973.288	3194
3974.885	3088
3976.481	3089
3978.077	3101
3979.672	3104
3981.267	3062
3982.863	3094
3984.457	3115
3986.051	3129
3987.645	3121
3989.238	3082
3990.831	3129
3992.425	3093
3994.017	3047
3995.607	3002
3997.199	3057
3998.79	3043
4000.382	3060
4001.973	3056
4003.561	3032
4005.151	3046
4006.741	3053
4008.331	3054
4009.918	3056
4011.507	3039
4013.095	3009
4014.681	2996
4016.269	3073
4017.856	3066
4019.443	2942
4021.028	3001
4022.614	3025
4024.199	2974
4025.785	2913
4027.37	2981
4028.953	2974
4030.536	2962
4032.12	2985
4033.704	2954
4035.287	3025
4036.869	2955
4038.45	2958
4040.032	2968
4041.613	2940
4043.195	2951
4044.776	2957
4046.356	2982
4047.935	2891
4049.515	2964
4051.095	2936
4052.674	2887
4054.251	2928
4055.829	2946
4057.406	2923
4058.985	2880
4060.562	2934
4062.139	2930
4063.715	2916
4065.29	2988
4066.865	2918
4068.442	2882
4070.016	2939
4071.59	2920
4073.164	2942
4074.738	2819
4076.312	2961
4077.885	2871
4079.458	2902
4081.03	2940
4082.602	2940
4084.173	2899
4085.745	2881
4087.315	2825
4088.886	2883
4090.456	2861
4092.026	2880
4093.596	2828
4095.165	2914
4096.734	2861
4098.301	2847
4099.869	2852
4101.437	2870
4103.006	2889
4104.572	2904
4106.139	2792
4107.704	2875
4109.27	2822
4110.837	2785
4112.401	2855
4113.966	2854
4115.53	2793
4117.094	2770
4118.659	2831
4120.223	2807
4121.785	2836
4123.347	2813
4124.909	2798
4126.471	2788
4128.034	2779
4129.595	2801
4131.155	2832
4132.716	2791
4134.275	2804
4135.836	2765
4137.395	2802
4138.955	2734
4140.513	2791
4142.071	2781
4143.628	2753
4145.188	2810
4146.745	2731
4148.302	2755
4149.858	2770
4151.414	2736
4152.971	2776
4154.526	2736
4156.081	2819
4157.635	2773
4159.189	2729
4160.745	2715
4162.298	2760
4163.852	2717
4165.405	2712
4166.957	2709
4168.51	2694
4170.063	2720
4171.614	2676
4173.166	2695
4174.717	2637
4176.267	2677
4177.817	2632
4179.368	2696
4180.917	2701
4182.466	2683
4184.016	2665
4185.564	2642
4187.112	2716
4188.66	2664
4190.207	2638
4191.754	2602
4193.301	2664
4194.848	2652
4196.394	2617
4197.94	2680
4199.484	2627
4201.03	2632
4202.575	2635
4204.12	2643
4205.663	2655
4207.207	2576
4208.75	2598
4210.292	2603
4211.836	2594
4213.378	2612
4214.92	2583
4216.46	2671
4218.002	2660
4219.544	2612
4221.083	2562
4222.625	2600
4224.164	2581
4225.703	2529
4227.244	2606
4228.782	2623
4230.32	2638
4231.857	2592
4233.395	2580
4234.933	2581
4236.471	2580
4238.007	2601
4239.542	2579
4241.078	2609
4242.614	2545
4244.15	2573
4245.685	2553
4247.219	2593
4248.753	2521
4250.287	2607
4251.82	2572
4253.354	2554
4254.887	2533
4256.419	2591
4257.951	2539
4259.483	2595
4261.016	2598
4262.547	2584
4264.078	2618
4265.608	2555
4267.137	2538
4268.668	2527
4270.197	2560
4271.727	2502
4273.254	2608
4274.783	2598
4276.311	2539
4277.84	2538
4279.366	2575
4280.894	2509
4282.42	2474
4283.946	2507
4285.473	2554
4286.998	2511
4288.523	2457
4290.047	2533
4291.572	2503
4293.096	2495
4294.622	2554
4296.144	2485
4297.668	2503
4299.19	2508
4300.713	2467
4302.236	2467
4303.758	2498
4305.279	2516
4306.799	2475
4308.321	2468
4309.842	2465
4311.361	2451
4312.882	2409
4314.401	2401
