400.0961	4398
402.6185	4408
405.1424	4489
407.6635	4449
410.1838	4477
412.7035	4433
415.2225	4432
417.7388	4461
420.2585	4572
422.7754	4570
425.2917	4515
427.8072	4701
430.3221	4654
432.8363	4572
435.3498	4668
437.8626	4718
440.3727	4713
442.8841	4671
445.3969	4730
447.907	4689
450.4142	4709
452.9229	4758
455.4289	4596
457.9362	4700
460.4449	4693
462.9488	4690
465.454	4739
467.9566	4665
470.4604	4752
472.9637	4713
475.4662	4754
477.966	4715
480.4671	4779
482.9656	4694
485.4633	4763
487.9645	4777
490.4608	4786
492.9566	4759
495.4536	4799
497.948	4815
500.4437	4855
502.9387	4794
505.431	4754
507.9226	4753
510.4136	4774
512.9079	4886
515.3975	4918
517.8864	4844
520.3746	4735
522.8622	4884
525.3491	4939
527.8394	4863
530.3249	4922
532.8098	4786
535.2939	4894
537.7774	4899
540.2623	4927
542.7444	4937
545.2259	4945
547.7067	4918
550.1868	5013
552.6683	4967
555.147	4941
557.6231	4872
560.1005	5021
562.5773	4989
565.0534	4930
567.5308	5065
570.0056	5008
572.4776	5035
574.951	4983
577.4237	5081
579.8978	5080
582.3671	5042
584.8378	5023
587.3079	5025
589.7773	5003
592.244	5164
594.714	5139
597.1793	5174
599.6461	5062
602.1121	5102
604.5754	5066
607.0421	5041
609.5042	5011
611.9675	5142
614.4282	5114
616.8902	5075
619.3515	4998
621.8122	5080
624.2702	5061
626.7296	5145
629.1863	4998
631.6423	5078
634.1017	5053
636.5563	4983
639.0104	5087
641.4658	5041
643.9185	5056
646.3725	5099
648.8239	5107
651.2766	5122
653.7266	5055
656.176	5163
658.6247	5127
661.0748	5127
663.5242	5202
665.9709	5107
668.417	5193
670.8624	5188
673.3092	5196
675.7533	5343
678.1968	5184
680.6395	5347
683.0817	5064
685.5251	5268
687.9659	5331
690.4061	5174
692.8456	5263
695.2844	5204
697.7226	5242
700.1621	5305
702.599	5274
705.0332	5298
707.4688	5316
709.9036	5394
712.3399	5325
714.7735	5419
717.2044	5318
719.6367	5328
722.0683	5435
724.4993	5314
726.9296	5442
729.3593	5388
731.7883	5490
734.2147	5468
736.6423	5447
739.0714	5507
741.4958	5480
743.9216	5557
746.3447	5402
748.7691	5407
751.1929	5618
753.616	5474
756.0366	5630
758.4584	5681
760.8776	5662
763.2982	5701
765.718	5607
768.1373	5625
770.5539	5614
772.9698	5637
775.3871	5650
777.8038	5544
780.2178	5650
782.6332	5691
785.0459	5638
787.458	5613
789.8714	5582
792.2842	5614
794.6943	5575
797.1038	5603
799.5127	5640
801.9209	5609
804.3324	5661
806.7393	5757
809.1456	5655
811.5513	5728
813.9562	5710
816.3625	5684
818.7663	5636
821.1693	5746
823.5718	5803
825.9735	5726
828.3746	5753
830.7771	5691
833.177	5671
835.5762	5825
837.9747	5768
840.3727	5743
842.772	5798
845.1666	5714
847.5626	5818
849.958	5808
852.3527	5919
854.7488	6011
857.1403	5926
859.5331	5996
861.9253	5904
864.3168	6023
866.7057	5849
869.098	5916
871.4876	5987
873.8746	5801
876.263	5876
878.6487	5922
881.0378	5880
883.4243	5813
885.8081	5881
888.1933	5818
890.5759	5791
892.9598	5882
895.343	5914
897.7256	5751
900.1057	5986
902.4871	5915
904.8659	5940
907.246	5912
909.6254	5995
912.0023	6003
914.3786	6128
916.7562	6202
919.1331	6323
921.5074	6325
923.8831	6471
926.2562	6362
928.6287	6505
931.0005	6262
933.3757	6318
935.7462	6340
938.1162	6265
940.4855	6290
942.8542	6216
945.2242	6411
947.5916	6314
949.9584	6487
952.3266	6517
954.6921	6579
957.0571	6796
959.4233	7049
961.787	7025
964.15	6928
966.5125	6911
968.8742	6682
971.2354	6569
973.5959	6453
975.9559	6330
978.3151	6348
980.6738	6217
983.0338	6208
985.3912	6206
987.7461	6212
990.1022	6044
992.4578	6129
994.8127	6124
997.1689	5989
999.5207	6136
1001.874	6181
1004.226	6076
1006.576	6131
1008.929	6014
1011.28	6192
1013.628	6058
1015.977	6130
1018.324	5995
1020.674	6105
1023.019	6131
1025.366	6090
1027.713	6124
1030.056	6103
1032.399	6115
1034.746	6112
1037.087	6087
1039.431	6164
1041.771	6186
1044.113	6053
1046.454	6111
1048.793	6044
1051.133	6132
1053.471	6173
1055.807	6098
1058.146	6050
1060.483	6322
1062.818	6177
1065.153	6239
1067.489	6321
1069.822	6244
1072.156	6256
1074.488	6277
1076.82	6273
1079.15	6162
1081.48	6301
1083.814	6216
1086.143	6310
1088.471	6215
1090.799	6282
1093.126	6234
1095.452	6120
1097.78	6288
1100.105	6232
1102.43	6167
1104.754	6187
1107.077	6246
1109.4	6145
1111.722	6230
1114.044	6265
1116.365	6209
1118.685	6247
1121.005	6300
1123.324	6247
1125.643	6231
1127.961	6300
1130.278	6391
1132.595	6380
1134.911	6257
1137.226	6331
1139.541	6296
1141.854	6263
1144.167	6217
1146.482	6254
1148.793	6297
1151.105	6143
1153.414	6203
1155.725	6229
1158.033	6261
1160.344	6243
1162.651	6248
1164.959	6210
1167.265	6219
1169.572	6240
1171.878	6326
1174.184	6311
1176.488	6415
1178.79	6289
1181.094	6474
1183.396	6343
1185.699	6259
1188.001	6294
1190.301	6229
1192.6	6331
1194.9	6258
1197.2	6211
1199.497	6327
1201.794	6437
1204.09	6313
1206.387	6305
1208.684	6366
1210.978	6229
1213.272	6309
1215.565	6223
1217.858	6330
1220.15	6333
1222.443	6389
1224.734	6328
1227.024	6393
1229.313	6400
1231.602	6344
1233.892	6384
1236.18	6430
1238.467	6644
1240.754	6568
1243.04	6519
1245.325	6588
1247.612	6499
1249.896	6678
1252.178	6679
1254.461	6582
1256.743	6612
1259.027	6525
1261.308	6536
1263.587	6772
1265.867	6698
1268.146	6634
1270.425	6716
1272.703	6669
1274.981	6693
1277.256	6545
1279.532	6510
1281.808	6515
1284.083	6478
1286.358	6478
1288.63	6511
1290.904	6471
1293.175	6511
1295.449	6604
1297.719	6533
1299.99	6350
1302.259	6554
1304.529	6362
1306.798	6546
1309.065	6480
1311.333	6502
1313.599	6437
1315.866	6529
1318.131	6471
1320.396	6487
1322.66	6516
1324.925	6506
1327.187	6503
1329.448	6686
1331.711	6594
1333.974	6683
1336.234	6438
1338.493	6497
1340.752	6633
1343.01	6459
1345.269	6457
1347.526	6533
1349.784	6570
1352.04	6427
1354.295	6445
1356.552	6430
1358.806	6443
1361.059	6367
1363.312	6443
1365.564	6478
1367.818	6504
1370.069	6558
1372.318	6584
1374.568	6584
1376.817	6502
1379.066	6455
1381.316	6514
1383.564	6665
1385.809	6539
1388.056	6626
1390.301	6693
1392.549	6751
1394.793	6779
1397.036	6806
1399.279	7035
1401.522	6916
1403.763	7023
1406.007	6989
1408.248	6902
1410.487	6954
1412.727	6999
1414.965	6831
1417.205	6752
1419.442	6917
1421.68	6947
1423.915	6836
1426.152	6742
1428.388	6786
1430.623	6721
1432.857	6884
1435.091	6798
1437.323	6901
1439.556	6760
1441.789	6942
1444.019	7030
1446.25	6885
1448.48	6820
1450.708	6931
1452.938	7023
1455.167	7000
1457.394	7016
1459.62	6949
1461.846	6922
1464.073	6958
1466.299	6803
1468.523	6842
1470.746	6671
1472.969	6797
1475.191	6659
1477.415	6569
1479.636	6701
1481.858	6652
1484.078	6618
1486.298	6653
1488.518	6416
1490.736	6687
1492.954	6494
1495.169	6503
1497.386	6616
1499.602	6469
1501.819	6471
1504.034	6466
1506.248	6456
1508.462	6477
1510.675	6487
1512.888	6395
1515.1	6507
1517.311	6454
1519.522	6443
1521.732	6458
1523.942	6388
1526.151	6327
1528.36	6495
1530.566	6581
1532.773	6338
1534.98	6531
1537.187	6426
1539.392	6547
1541.596	6528
1543.801	6516
1546.005	6475
1548.208	6371
1550.411	6624
1552.612	6593
1554.814	6580
1557.013	6631
1559.212	6640
1561.414	6655
1563.612	6607
1565.811	6499
1568.007	6693
1570.203	6711
1572.403	6621
1574.598	6667
1576.792	6639
1578.988	6636
1581.181	6700
1583.376	6650
1585.568	6662
1587.761	6677
1589.952	6700
1592.143	6586
1594.333	6817
1596.524	6597
1598.715	6698
1600.903	6838
1603.091	6669
1605.278	6835
1607.466	6639
1609.652	6782
1611.838	6780
1614.023	6874
1616.207	6633
1618.391	6663
1620.576	6797
1622.759	6793
1624.941	6737
1627.123	6640
1629.304	6799
1631.484	6704
1633.664	6754
1635.844	6698
1638.022	6793
1640.201	6784
1642.38	6805
1644.556	6864
1646.732	6751
1648.908	6667
1651.084	6732
1653.257	6756
1655.433	6888
1657.607	6824
1659.779	7042
1661.951	6916
1664.122	6780
1666.295	6882
1668.467	6865
1670.635	6884
1672.805	6880
1674.973	6953
1677.142	6892
1679.31	6793
1681.478	6715
1683.644	6925
1685.81	6754
1687.975	6808
1690.142	6865
1692.305	6805
1694.468	6659
1696.632	6784
1698.794	6814
1700.957	6719
1703.119	6656
1705.279	6653
1707.439	6776
1709.598	6791
1711.758	6661
1713.917	6738
1716.075	6668
1718.231	6586
1720.388	6751
1722.543	6735
1724.702	6646
1726.856	6703
1729.01	6529
1731.164	6706
1733.317	6681
1735.471	6659
1737.623	6610
1739.774	6658
1741.925	6725
1744.075	6798
1746.225	6616
1748.376	6637
1750.524	6674
1752.672	6809
1754.82	6714
1756.965	6681
1759.113	6663
1761.259	6656
1763.405	6695
1765.549	6741
1767.694	6692
1769.836	6739
1771.981	6697
1774.123	6666
1776.264	6662
1778.405	6758
1780.546	6728
1782.687	6663
1784.827	6744
1786.966	6657
1789.103	6731
1791.242	6759
1793.381	6677
1795.517	6743
1797.653	6731
1799.788	6771
1801.923	6686
1804.057	6610
1806.193	6686
1808.326	6739
1810.457	6697
1812.59	6697
1814.721	6824
1816.855	6780
1818.984	6741
1821.113	6633
1823.244	6679
1825.372	6721
1827.499	6719
1829.63	6809
1831.756	6761
1833.882	6531
1836.007	6703
1838.132	6729
1840.26	6612
1842.384	6665
1844.507	6645
1846.63	6749
1848.752	6583
1850.875	6764
1852.996	6636
1855.118	6524
1857.238	6607
1859.358	6595
1861.477	6555
1863.597	6702
1865.715	6602
1867.832	6600
1869.948	6602
1872.064	6649
1874.181	6584
1876.297	6653
1878.411	6586
1880.526	6650
1882.639	6590
1884.752	6503
1886.865	6558
1888.977	6750
1891.089	6730
1893.2	6708
1895.308	6620
1897.42	6713
1899.53	6716
1901.639	6697
1903.745	6674
1905.853	6778
1907.962	6653
1910.067	6680
1912.174	6633
1914.278	6838
1916.383	6793
1918.486	6751
1920.592	6795
1922.694	6736
1924.797	6726
1926.898	6801
1929	6765
1931.102	6722
1933.203	6877
1935.301	6799
1937.401	6810
1939.499	6832
1941.598	6767
1943.697	6852
1945.793	6703
1947.888	6746
1949.985	6775
1952.08	6715
1954.176	6775
1956.269	6726
1958.364	6688
1960.457	6789
1962.549	6773
1964.642	6658
1966.733	6744
1968.823	6665
1970.913	6837
1973.005	6750
1975.093	6761
1977.184	6650
1979.271	6842
1981.359	6610
1983.446	6696
1985.532	6743
1987.619	6689
1989.705	6637
1991.789	6677
1993.874	6659
1995.956	6613
1998.041	6637
2000.123	6746
2002.206	6764
2004.287	6573
2006.368	6688
2008.449	6551
2010.529	6670
2012.609	6737
2014.688	6666
2016.766	6707
2018.843	6744
2020.922	6670
2022.999	6645
2025.074	6679
2027.15	6682
2029.225	6627
2031.299	6693
2033.375	6634
2035.447	6625
2037.52	6585
2039.592	6639
2041.664	6619
2043.736	6519
2045.807	6670
2047.876	6689
2049.947	6645
2052.015	6681
2054.086	6691
2056.153	6630
2058.221	6665
2060.288	6664
2062.353	6725
2064.42	6564
2066.486	6629
2068.55	6772
2070.614	6647
2072.678	6707
2074.741	6603
2076.805	6662
2078.866	6638
2080.929	6575
2082.99	6625
2085.049	6730
2087.109	6606
2089.17	6772
2091.228	6646
2093.286	6738
2095.344	6729
2097.4	6665
2099.46	6643
2101.516	6739
2103.572	6672
2105.626	6621
2107.679	6695
2109.735	6662
2111.788	6639
2113.841	6703
2115.894	6649
2117.945	6807
2119.997	6694
2122.049	6625
2124.1	6745
2126.148	6610
2128.197	6618
2130.246	6706
2132.296	6730
2134.342	6677
2136.39	6670
2138.437	6623
2140.483	6647
2142.527	6608
2144.574	6662
2146.619	6492
2148.661	6607
2150.705	6595
2152.747	6675
2154.792	6540
2156.832	6529
2158.874	6663
2160.915	6570
2162.954	6565
2164.995	6578
2167.034	6581
2169.072	6467
2171.111	6522
2173.148	6519
2175.186	6602
2177.223	6502
2179.258	6555
2181.294	6585
2183.328	6597
2185.362	6566
2187.398	6487
2189.431	6583
2191.463	6399
2193.495	6648
2195.528	6402
2197.56	6572
2199.59	6422
2201.62	6410
2203.649	6466
2205.678	6546
2207.708	6380
2209.737	6490
2211.764	6467
2213.791	6415
2215.817	6523
2217.843	6332
2219.87	6361
2221.895	6421
2223.919	6511
2225.942	6491
2227.966	6485
2229.988	6410
2232.012	6420
2234.032	6480
2236.054	6320
2238.074	6507
2240.095	6390
2242.116	6527
2244.135	6498
2246.153	6422
2248.171	6417
2250.188	6474
2252.208	6453
2254.223	6375
2256.239	6554
2258.255	6462
2260.269	6387
2262.283	6526
2264.3	6536
2266.312	6435
2268.325	6459
2270.336	6363
2272.349	6491
2274.362	6433
2276.372	6481
2278.383	6408
2280.392	6386
2282.402	6474
2284.409	6424
2286.418	6578
2288.427	6484
2290.433	6413
2292.441	6405
2294.446	6338
2296.453	6431
2298.459	6429
2300.463	6462
2302.466	6457
2304.471	6509
2306.475	6421
2308.477	6404
2310.478	6363
2312.481	6440
2314.481	6336
2316.481	6472
2318.482	6396
2320.482	6432
2322.48	6504
2324.48	6362
2326.478	6384
2328.476	6405
2330.473	6392
2332.469	6356
2334.465	6426
2336.46	6418
2338.454	6432
2340.45	6353
2342.444	6314
2344.437	6366
2346.43	6356
2348.421	6238
2350.414	6365
2352.405	6217
2354.396	6430
2356.386	6258
2358.376	6346
2360.366	6376
2362.355	6278
2364.343	6165
2366.331	6268
2368.317	6282
2370.304	6311
2372.292	6395
2374.278	6191
2376.262	6290
2378.247	6135
2380.23	6266
2382.216	6237
2384.199	6241
2386.181	6329
2388.163	6231
2390.144	6200
2392.127	6305
2394.107	6175
2396.087	6258
2398.066	6265
2400.046	6177
2402.023	6129
2404.004	6220
2405.981	6163
2407.957	6266
2409.934	6147
2411.91	6124
2413.886	6240
2415.862	6239
2417.836	6125
2419.809	6116
2421.784	6187
2423.756	6223
2425.73	6065
2427.701	6151
2429.672	6234
2431.644	6263
2433.615	6241
2435.586	6155
2437.555	6196
2439.523	6289
2441.491	6247
2443.459	6145
2445.428	6267
2447.395	6150
2449.361	6199
2451.327	6205
2453.292	6150
2455.257	6086
2457.223	6121
2459.187	6237
2461.15	6145
2463.113	6178
2465.076	6110
2467.039	6067
2468.999	6151
2470.96	6093
2472.921	6201
2474.881	6165
2476.841	6192
2478.8	6113
2480.759	6099
2482.717	6085
2484.675	6078
2486.63	6146
2488.589	6019
2490.545	6100
2492.5	6087
2494.455	5971
2496.408	6077
2498.364	6132
2500.318	6065
2502.27	6054
2504.223	6053
2506.174	6073
2508.126	6080
2510.078	6198
2512.03	6096
2513.979	6056
2515.927	5943
2517.877	5984
2519.826	6027
2521.775	6065
2523.722	6067
2525.668	6094
2527.616	6011
2529.561	5960
2531.508	6019
2533.452	6098
2535.398	6070
2537.342	6117
2539.284	6132
2541.229	6013
2543.173	6044
2545.114	6054
2547.055	6074
2548.996	6059
2550.938	5932
2552.878	6035
2554.817	6017
2556.756	6197
2558.695	6066
2560.633	6033
2562.572	6052
2564.509	5957
2566.445	6057
2568.382	5928
2570.317	5970
2572.254	5986
2574.189	6033
2576.123	5969
2578.057	6009
2579.99	6101
2581.923	5999
2583.855	5929
2585.788	6021
2587.719	5911
2589.65	5893
2591.579	6024
2593.511	6047
2595.44	5971
2597.37	5947
2599.297	6047
2601.225	6059
2603.153	5937
2605.08	6063
2607.007	5973
2608.932	5911
2610.858	6042
2612.782	5994
2614.709	6067
2616.632	6048
2618.556	6086
2620.478	5988
2622.401	6040
2624.324	5952
2626.247	5965
2628.167	5982
2630.088	6041
2632.008	5910
2633.928	6057
2635.848	5949
2637.766	6077
2639.684	6163
2641.603	6125
2643.519	5974
2645.437	6082
2647.353	6077
2649.27	6046
2651.184	5980
2653.099	5958
2655.014	6081
2656.928	6044
2658.842	6010
2660.755	5972
2662.667	6039
2664.579	6076
2666.491	6014
2668.402	5994
2670.312	5886
2672.222	5957
2674.132	5983
2676.042	5958
2677.951	5950
2679.859	5966
2681.766	5998
2683.674	5812
2685.582	5877
2687.488	5908
2689.392	5773
2691.298	5893
2693.202	5973
2695.107	6083
2697.012	5985
2698.914	5963
2700.817	5974
2702.72	5911
2704.622	5829
2706.524	5912
2708.425	5900
2710.326	5948
2712.225	5897
2714.125	5881
2716.024	5957
2717.923	5924
2719.822	5858
2721.719	5878
2723.616	5864
2725.512	5993
2727.41	5914
2729.305	6013
2731.201	5946
2733.095	5878
2734.99	5944
2736.884	5901
2738.778	5947
2740.67	5929
2742.562	5819
2744.455	5869
2746.346	5816
2748.238	5771
2750.129	5886
2752.018	5911
2753.907	5823
2755.797	5823
2757.687	5969
2759.575	5954
2761.462	5888
2763.349	5840
2765.237	5796
2767.124	5936
2769.009	5850
2770.894	5885
2772.779	5944
2774.663	5910
2776.547	5844
2778.431	5848
2780.314	5759
2782.197	5840
2784.078	5822
2785.96	5766
2787.842	5791
2789.723	5913
2791.603	5799
2793.483	5823
2795.362	5748
2797.241	5916
2799.121	5771
2800.997	5769
2802.874	5706
2804.751	5744
2806.628	5837
2808.506	5814
2810.38	5796
2812.255	5748
2814.13	5829
2816.003	5862
2817.878	5724
2819.752	5892
2821.623	5900
2823.496	5840
2825.368	5889
2827.238	5792
2829.111	5754
2830.98	5763
2832.851	5837
2834.719	5856
2836.589	5762
2838.458	5868
2840.327	5842
2842.193	5794
2844.061	5945
2845.927	5866
2847.794	5882
2849.66	5977
2851.525	5933
2853.39	5969
2855.254	5969
2857.117	5955
2858.983	6068
2860.845	6054
2862.707	6026
2864.569	6084
2866.431	6175
2868.293	6161
2870.154	6208
2872.013	6189
2873.873	6314
2875.733	6341
2877.592	6328
2879.451	6463
2881.309	6520
2883.166	6344
2885.022	6513
2886.879	6559
2888.736	6554
2890.591	6834
2892.446	6774
2894.301	6751
2896.155	6696
2898.009	6635
2899.863	6634
2901.716	6586
2903.568	6831
2905.419	6609
2907.27	6699
2909.123	6563
2910.973	6747
2912.824	6756
2914.673	6752
2916.521	6802
2918.372	6818
2920.22	6977
2922.067	6997
2923.914	6974
2925.761	7051
2927.607	7136
2929.455	7075
2931.301	7075
2933.144	7205
2934.99	7196
2936.833	7183
2938.678	7307
2940.522	7449
2942.364	7520
2944.207	7615
2946.048	7716
2947.891	7818
2949.731	7819
2951.571	7924
2953.412	7869
2955.25	7780
2957.09	7759
2958.93	7585
2960.767	7422
2962.606	7566
2964.443	7436
2966.279	7337
2968.116	7244
2969.953	7126
2971.788	6901
2973.623	6898
2975.457	6767
2977.292	6713
2979.127	6631
2980.959	6719
2982.792	6596
2984.624	6483
2986.455	6496
2988.288	6513
2990.119	6385
2991.949	6305
2993.779	6405
2995.608	6242
2997.439	6094
2999.268	6292
3001.096	6107
3002.923	6108
3004.751	6042
3006.578	6044
3008.406	5947
3010.232	5845
3012.057	5933
3013.883	5760
3015.706	5884
3017.532	5818
3019.356	5832
3021.179	5764
3023.002	5761
3024.823	5643
3026.646	5739
3028.469	5582
3030.289	5719
3032.11	5573
3033.93	5499
3035.749	5657
3037.57	5585
3039.39	5485
3041.207	5577
3043.026	5563
3044.842	5676
3046.661	5584
3048.477	5518
3050.294	5545
3052.109	5573
3053.925	5426
3055.739	5373
3057.555	5557
3059.368	5637
3061.181	5485
3062.995	5497
3064.807	5458
3066.62	5474
3068.433	5586
3070.243	5508
3072.054	5342
3073.865	5464
3075.675	5443
3077.485	5384
3079.293	5529
3081.102	5415
3082.911	5475
3084.719	5424
3086.527	5452
3088.333	5337
3090.139	5381
3091.945	5414
3093.75	5440
3095.557	5304
3097.361	5409
3099.165	5319
3100.969	5430
3102.772	5259
3104.575	5284
3106.379	5314
3108.181	5385
3109.982	5282
3111.783	5303
3113.584	5251
3115.386	5323
3117.186	5289
3118.985	5224
3120.783	5269
3122.582	5151
3124.381	5198
3126.179	5191
3127.975	5307
3129.772	5174
3131.569	5343
3133.365	5212
3135.161	5239
3136.956	5215
3138.751	5198
3140.544	5103
3142.338	5247
3144.132	5149
3145.925	5266
3147.717	5116
3149.509	5141
3151.301	5280
3153.091	5195
3154.884	5154
3156.673	5250
3158.462	5167
3160.252	5226
3162.041	5181
3163.831	5106
3165.618	5155
3167.405	5151
3169.193	5201
3170.979	5198
3172.767	5136
3174.553	5081
3176.338	5079
3178.123	5166
3179.907	5146
3181.692	5151
3183.477	5082
3185.259	5137
3187.042	5099
3188.824	5239
3190.607	5161
3192.389	5093
3194.17	4966
3195.951	5154
3197.73	5103
3199.51	5148
3201.289	5104
3203.07	5208
3204.848	5146
3206.626	5127
3208.403	5079
3210.18	4964
3211.959	5207
3213.735	5088
3215.511	5111
3217.285	5193
3219.06	5160
3220.836	5033
3222.611	5092
3224.384	5037
3226.158	5204
3227.929	5116
3229.702	5123
3231.476	5085
3233.248	5099
3235.018	5076
3236.789	5075
3238.56	5057
3240.33	5038
3242.1	5058
3243.869	5042
3245.637	5056
3247.405	5141
3249.172	5042
3250.941	5144
3252.707	5041
3254.474	5080
3256.24	5098
3258.006	5047
3259.772	4922
3261.537	4940
3263.301	5155
3265.065	5074
3266.828	4898
3268.592	5131
3270.355	5072
3272.117	5032
3273.878	5005
3275.64	5096
3277.401	4916
3279.162	5084
3280.922	5038
3282.682	4951
3284.441	5058
3286.199	5132
3287.959	5063
3289.716	4957
3291.475	5025
3293.232	5135
3294.988	5094
3296.744	5089
3298.501	5101
3300.256	4948
3302.011	5048
3303.766	4976
3305.52	4995
3307.275	5009
3309.028	4997
3310.781	5030
3312.533	4944
3314.285	5007
3316.038	4996
3317.789	5080
3319.54	5023
3321.289	5058
3323.039	4987
3324.789	4978
3326.539	4893
3328.288	4938
3330.035	5073
3331.783	4988
3333.531	4973
3335.28	4992
3337.025	4998
3338.771	4940
3340.518	4933
3342.262	4919
3344.009	4971
3345.753	5013
3347.497	4923
3349.24	4919
3350.983	4935
3352.726	4924
3354.469	4897
3356.212	4853
3357.952	4965
3359.694	4925
3361.434	5028
3363.176	4815
3364.916	5033
3366.654	4892
3368.394	4743
3370.132	4844
3371.871	4685
3373.61	4967
3375.346	4764
3377.083	4864
3378.82	4906
3380.556	4844
3382.292	4819
3384.027	4879
3385.763	4829
3387.497	4775
3389.231	4834
3390.965	4849
3392.698	4860
3394.431	4711
3396.164	4815
3397.896	4861
3399.627	4850
3401.36	4706
3403.09	4762
3404.82	4786
3406.55	4800
3408.279	4745
3410.01	4758
3411.738	4755
3413.467	4757
3415.194	4756
3416.92	4703
3418.647	4728
3420.375	4688
3422.102	4735
3423.827	4803
3425.553	4728
3427.277	4819
3429.003	4703
3430.727	4696
3432.451	4764
3434.173	4745
3435.896	4781
3437.62	4637
3439.343	4701
3441.063	4706
3442.785	4600
3444.505	4612
3446.226	4618
3447.948	4695
3449.666	4605
3451.386	4551
3453.104	4581
3454.823	4550
3456.541	4618
3458.259	4566
3459.976	4639
3461.693	4593
3463.408	4554
3465.125	4518
3466.841	4496
3468.556	4594
3470.271	4550
3471.985	4514
3473.698	4713
3475.414	4525
3477.126	4478
3478.838	4570
3480.55	4575
3482.263	4490
3483.975	4559
3485.686	4552
3487.396	4524
3489.106	4397
3490.817	4426
3492.526	4405
3494.236	4402
3495.944	4449
3497.652	4440
3499.359	4416
3501.066	4457
3502.775	4491
3504.481	4400
3506.187	4371
3507.893	4419
3509.598	4433
3511.304	4351
3513.009	4336
3514.713	4302
3516.417	4331
3518.12	4321
3519.821	4470
3521.525	4351
3523.228	4306
3524.929	4425
3526.631	4336
3528.33	4342
3530.032	4358
3531.733	4321
3533.433	4253
3535.131	4235
3536.83	4306
3538.529	4339
3540.227	4293
3541.925	4272
3543.623	4269
3545.319	4246
3547.016	4390
3548.712	4191
3550.408	4182
3552.103	4259
3553.798	4227
3555.491	4230
3557.188	4228
3558.88	4252
3560.574	4202
3562.266	4305
3563.959	4146
3565.651	4179
3567.343	4155
3569.035	4185
3570.725	4125
3572.415	4279
3574.106	4180
3575.797	4155
3577.485	4157
3579.174	4087
3580.863	4192
3582.551	4106
3584.238	4177
3585.926	4184
3587.613	4111
3589.3	4149
3590.986	4105
3592.671	4112
3594.357	4108
3596.042	4190
3597.726	4120
3599.41	4070
3601.094	4116
3602.778	4171
3604.461	4060
3606.143	4021
3607.825	4027
3609.507	3972
3611.188	4051
3612.87	4027
3614.551	4041
3616.229	4001
3617.909	4027
3619.589	4034
3621.269	3977
3622.948	4146
3624.625	4057
3626.302	3980
3627.98	3874
3629.657	4008
3631.334	3965
3633.01	3882
3634.686	3945
3636.361	4057
3638.036	3915
3639.712	3877
3641.385	3995
3643.06	3920
3644.732	3853
3646.405	3931
3648.08	3835
3649.751	3873
3651.424	3915
3653.094	3846
3654.766	3893
3656.436	3984
3658.106	3894
3659.777	3789
3661.446	3931
3663.115	3870
3664.783	3854
3666.452	3785
3668.121	3873
3669.788	3835
3671.454	3831
3673.121	3869
3674.789	3924
3676.455	3819
3678.12	3906
3679.784	3899
3681.45	3906
3683.114	3787
3684.779	3855
3686.442	3817
3688.105	3806
3689.768	3783
3691.43	3873
3693.093	3856
3694.754	3778
3696.415	3729
3698.076	3718
3699.736	3746
3701.396	3813
3703.057	3782
3704.716	3736
3706.375	3806
3708.034	3796
3709.692	3782
3711.351	3730
3713.008	3690
3714.665	3816
3716.321	3723
3717.977	3746
3719.634	3843
3721.29	3694
3722.945	3759
3724.598	3697
3726.253	3742
3727.907	3773
3729.561	3794
3731.214	3715
3732.867	3757
3734.518	3756
3736.171	3666
3737.824	3719
3739.474	3684
3741.125	3669
3742.775	3779
3744.425	3703
3746.074	3690
3747.725	3645
3749.373	3616
3751.022	3678
3752.669	3660
3754.318	3649
3755.966	3669
3757.612	3651
3759.259	3739
3760.905	3698
3762.55	3661
3764.197	3633
3765.842	3627
3767.486	3609
3769.131	3664
3770.774	3632
3772.417	3592
3774.061	3687
3775.705	3642
3777.347	3618
3778.988	3608
3780.629	3680
3782.271	3653
3783.912	3563
3785.552	3611
3787.192	3612
3788.831	3518
3790.472	3623
3792.112	3614
3793.75	3595
3795.388	3560
3797.024	3504
3798.661	3528
3800.3	3672
3801.936	3513
3803.572	3589
3805.208	3533
3806.844	3476
3808.48	3552
3810.115	3573
3811.748	3609
3813.382	3591
3815.016	3520
3816.649	3585
3818.283	3515
3819.914	3476
3821.547	3499
3823.178	3640
3824.809	3456
3826.441	3501
3828.072	3535
3829.701	3555
3831.331	3515
3832.96	3549
3834.591	3463
3836.219	3484
3837.847	3453
3839.475	3504
3841.102	3496
3842.729	3467
3844.357	3443
3845.984	3518
3847.609	3486
3849.234	3433
3850.86	3494
3852.485	3474
3854.11	3467
3855.734	3442
3857.357	3350
3858.981	3413
3860.603	3467
3862.227	3472
3863.848	3466
3865.471	3418
3867.092	3521
3868.713	3348
3870.334	3445
3871.954	3450
3873.575	3342
3875.194	3393
3876.813	3324
3878.433	3351
3880.051	3418
3881.669	3409
3883.286	3451
3884.904	3420
3886.52	3424
3888.138	3398
3889.754	3337
3891.37	3435
3892.985	3384
3894.6	3369
3896.216	3393
3897.831	3369
3899.444	3350
3901.058	3444
3902.67	3358
3904.283	3440
3905.897	3372
3907.509	3368
3909.121	3420
3910.731	3361
3912.342	3403
3913.954	3260
3915.563	3240
3917.174	3327
3918.783	3314
3920.391	3303
3922.002	3300
3923.611	3402
3925.218	3296
3926.826	3273
3928.432	3320
3930.039	3392
3931.647	3327
3933.253	3297
3934.859	3295
3936.464	3354
3938.068	3339
3939.675	3321
3941.278	3346
3942.883	3308
3944.486	3281
3946.089	3317
3947.692	3330
3949.295	3284
3950.898	3330
3952.499	3333
3954.1	3235
3955.7	3346
3957.303	3286
3958.903	3246
3960.502	3270
3962.101	3328
3963.7	3273
3965.301	3280
3966.899	3170
3968.497	3225
3970.094	3219
3971.691	3148
3973.288	3188
3974.885	3229
3976.481	3268
3978.077	3143
3979.672	3249
3981.267	3176
3982.863	3221
3984.457	3267
3986.051	3257
3987.645	3285
3989.238	3213
3990.831	3180
3992.425	3111
3994.017	3222
3995.607	3246
3997.199	3145
3998.79	3179
4000.382	3134
4001.973	3171
4003.561	3105
4005.151	3186
4006.741	3168
4008.331	3080
4009.918	3173
4011.507	3177
4013.095	3103
4014.681	3173
4016.269	3111
4017.856	3109
4019.443	3178
4021.028	3113
4022.614	3137
4024.199	3099
4025.785	3106
4027.37	3066
4028.953	3157
4030.536	3049
4032.12	3063
4033.704	3038
4035.287	3011
4036.869	3064
4038.45	3083
4040.032	3031
4041.613	3089
4043.195	3121
4044.776	3078
4046.356	3022
4047.935	3009
4049.515	2983
4051.095	3096
4052.674	3016
4054.251	3066
4055.829	3075
4057.406	3069
4058.985	3073
4060.562	3018
4062.139	3024
4063.715	2967
4065.29	2948
4066.865	3012
4068.442	2976
4070.016	3004
4071.59	3070
4073.164	3023
4074.738	2983
4076.312	3028
4077.885	2963
4079.458	3020
4081.03	2958
4082.602	3049
4084.173	3012
4085.745	2937
4087.315	2940
4088.886	2988
4090.456	2963
4092.026	2938
4093.596	2985
4095.165	2939
4096.734	2936
4098.301	2950
4099.869	2961
4101.437	2993
4103.006	3019
4104.572	2918
4106.139	2943
4107.704	2926
4109.27	2939
4110.837	2854
4112.401	2862
4113.966	2915
4115.53	2914
4117.094	2935
4118.659	2940
4120.223	3033
4121.785	2908
4123.347	2937
4124.909	2907
4126.471	2996
4128.034	2901
4129.595	2884
4131.155	2892
4132.716	2905
4134.275	2933
4135.836	2881
4137.395	2918
4138.955	2874
4140.513	2935
4142.071	2852
4143.628	2916
4145.188	2864
4146.745	2904
4148.302	2776
4149.858	2878
4151.414	2891
4152.971	2876
4154.526	2820
4156.081	2834
4157.635	2834
4159.189	2777
4160.745	2750
4162.298	2860
4163.852	2783
4165.405	2774
4166.957	2812
4168.51	2768
4170.063	2742
4171.614	2802
4173.166	2814
4174.717	2752
4176.267	2839
4177.817	2783
4179.368	2741
4180.917	2774
4182.466	2803
4184.016	2763
4185.564	2813
4187.112	2754
4188.66	2785
4190.207	2755
4191.754	2782
4193.301	2736
4194.848	2693
4196.394	2764
4197.94	2747
4199.484	2748
4201.03	2750
4202.575	2732
4204.12	2742
4205.663	2636
4207.207	2718
4208.75	2687
4210.292	2710
4211.836	2724
4213.378	2680
4214.92	2719
4216.46	2706
4218.002	2732
4219.544	2684
4221.083	2708
4222.625	2771
4224.164	2698
4225.703	2752
4227.244	2739
4228.782	2727
4230.32	2676
4231.857	2689
4233.395	2722
4234.933	2675
4236.471	2629
4238.007	2666
4239.542	2642
4241.078	2640
4242.614	2671
4244.15	2612
4245.685	2618
4247.219	2635
4248.753	2616
4250.287	2704
4251.82	2651
4253.354	2692
4254.887	2689
4256.419	2671
4257.951	2640
4259.483	2641
4261.016	2654
4262.547	2626
4264.078	2548
4265.608	2618
4267.137	2566
4268.668	2641
4270.197	2643
4271.727	2679
4273.254	2607
4274.783	2606
4276.311	2647
4277.84	2599
4279.366	2607
4280.894	2629
4282.42	2625
4283.946	2543
4285.473	2624
4286.998	2607
4288.523	2615
4290.047	2573
4291.572	2582
4293.096	2630
4294.622	2598
4296.144	2596
4297.668	2581
4299.19	2555
4300.713	2569
4302.236	2551
4303.758	2542
4305.279	2620
4306.799	2574
4308.321	2538
4309.842	2566
4311.361	2553
4312.882	2554
4314.401	2562
