400.0961	4909
402.6185	4958
405.1424	4923
407.6635	5029
410.1838	5008
412.7035	5150
415.2225	5091
417.7388	5106
420.2585	5204
422.7754	5276
425.2917	5263
427.8072	5446
430.3221	5353
432.8363	5387
435.3498	5248
437.8626	5321
440.3727	5385
442.8841	5347
445.3969	5421
447.907	5431
450.4142	5278
452.9229	5361
455.4289	5396
457.9362	5376
460.4449	5314
462.9488	5447
465.454	5320
467.9566	5309
470.4604	5318
472.9637	5362
475.4662	5294
477.966	5345
480.4671	5435
482.9656	5275
485.4633	5352
487.9645	5386
490.4608	5367
492.9566	5380
495.4536	5442
497.948	5427
500.4437	5419
502.9387	5483
505.431	5507
507.9226	5345
510.4136	5461
512.9079	5523
515.3975	5448
517.8864	5583
520.3746	5432
522.8622	5420
525.3491	5425
527.8394	5432
530.3249	5556
532.8098	5638
535.2939	5536
537.7774	5583
540.2623	5558
542.7444	5522
545.2259	5509
547.7067	5539
550.1868	5670
552.6683	5566
555.147	5606
557.6231	5530
560.1005	5590
562.5773	5635
565.0534	5548
567.5308	5629
570.0056	5687
572.4776	5658
574.951	5637
577.4237	5770
579.8978	5784
582.3671	5809
584.8378	5908
587.3079	5773
589.7773	5876
592.244	5810
594.714	5773
597.1793	5923
599.6461	5766
602.1121	5778
604.5754	5890
607.0421	5694
609.5042	5733
611.9675	5879
614.4282	5792
616.8902	5748
619.3515	5700
621.8122	5864
624.2702	5808
626.7296	5658
629.1863	5708
631.6423	5585
634.1017	5650
636.5563	5686
639.0104	5663
641.4658	5796
643.9185	5689
646.3725	5828
648.8239	5742
651.2766	5757
653.7266	5880
656.176	5947
658.6247	5745
661.0748	5754
663.5242	5864
665.9709	5785
668.417	5931
670.8624	5863
673.3092	5849
675.7533	5911
678.1968	5918
680.6395	5923
683.0817	5761
685.5251	5930
687.9659	5977
690.4061	5928
692.8456	5934
695.2844	5908
697.7226	5911
700.1621	6004
702.599	5899
705.0332	5963
707.4688	5950
709.9036	6066
712.3399	6033
714.7735	5982
717.2044	6101
719.6367	6040
722.0683	6087
724.4993	6091
726.9296	6128
729.3593	6098
731.7883	6156
734.2147	6242
736.6423	6137
739.0714	6128
741.4958	6227
743.9216	6261
746.3447	6168
748.7691	6296
751.1929	6260
753.616	6206
756.0366	6378
758.4584	6393
760.8776	6354
763.2982	6262
765.718	6406
768.1373	6328
770.5539	6415
772.9698	6279
775.3871	6358
777.8038	6410
780.2178	6397
782.6332	6464
785.0459	6371
787.458	6385
789.8714	6473
792.2842	6482
794.6943	6362
797.1038	6346
799.5127	6393
801.9209	6379
804.3324	6433
806.7393	6441
809.1456	6439
811.5513	6544
813.9562	6483
816.3625	6461
818.7663	6443
821.1693	6480
823.5718	6441
825.9735	6484
828.3746	6316
830.7771	6530
833.177	6490
835.5762	6451
837.9747	6454
840.3727	6439
842.772	6553
845.1666	6621
847.5626	6584
849.958	6686
852.3527	6633
854.7488	6697
857.1403	6781
859.5331	6747
861.9253	6698
864.3168	6729
866.7057	6630
869.098	6652
871.4876	6591
873.8746	6502
876.263	6612
878.6487	6582
881.0378	6601
883.4243	6534
885.8081	6591
888.1933	6632
890.5759	6671
892.9598	6653
895.343	6758
897.7256	6718
900.1057	6712
902.4871	6739
904.8659	6594
907.246	6706
909.6254	6802
912.0023	6727
914.3786	6804
916.7562	6822
919.1331	7027
921.5074	7051
923.8831	6962
926.2562	6906
928.6287	6928
931.0005	6960
933.3757	7056
935.7462	7226
938.1162	7121
940.4855	7268
942.8542	7182
945.2242	7344
947.5916	7470
949.9584	7765
952.3266	8081
954.6921	8407
957.0571	8732
959.4233	8948
961.787	9105
964.15	9169
966.5125	8751
968.8742	8238
971.2354	7990
973.5959	7542
975.9559	7376
978.3151	7230
980.6738	7105
983.0338	6984
985.3912	7006
987.7461	7028
990.1022	6874
992.4578	6858
994.8127	6717
997.1689	6850
999.5207	6904
1001.874	7061
1004.226	6938
1006.576	6886
1008.929	6974
1011.28	6907
1013.628	6910
1015.977	6980
1018.324	7060
1020.674	6916
1023.019	6754
1025.366	6968
1027.713	6905
1030.056	7040
1032.399	7045
1034.746	7133
1037.087	7104
1039.431	7142
1041.771	7046
1044.113	7018
1046.454	7106
1048.793	7083
1051.133	7145
1053.471	7061
1055.807	7045
1058.146	7017
1060.483	7007
1062.818	7226
1065.153	7235
1067.489	7148
1069.822	7367
1072.156	7299
1074.488	7404
1076.82	7229
1079.15	7230
1081.48	7245
1083.814	7173
1086.143	7076
1088.471	7160
1090.799	7165
1093.126	7059
1095.452	7072
1097.78	7040
1100.105	7017
1102.43	7030
1104.754	7074
1107.077	7059
1109.4	7066
1111.722	7112
1114.044	7011
1116.365	7083
1118.685	6971
1121.005	7064
1123.324	7037
1125.643	6943
1127.961	7133
1130.278	7053
1132.595	7012
1134.911	7005
1137.226	7119
1139.541	7012
1141.854	7136
1144.167	7002
1146.482	7061
1148.793	6989
1151.105	7128
1153.414	6982
1155.725	6999
1158.033	7083
1160.344	7133
1162.651	7252
1164.959	7029
1167.265	7095
1169.572	7102
1171.878	7119
1174.184	7075
1176.488	7114
1178.79	7176
1181.094	7090
1183.396	7071
1185.699	7161
1188.001	7091
1190.301	6980
1192.6	7045
1194.9	7123
1197.2	7044
1199.497	6994
1201.794	7014
1204.09	7069
1206.387	7163
1208.684	7076
1210.978	7038
1213.272	7060
1215.565	7015
1217.858	7081
1220.15	7143
1222.443	7058
1224.734	7066
1227.024	7238
1229.313	7180
1231.602	7172
1233.892	7275
1236.18	7452
1238.467	7256
1240.754	7368
1243.04	7371
1245.325	7377
1247.612	7361
1249.896	7377
1252.178	7404
1254.461	7460
1256.743	7453
1259.027	7494
1261.308	7508
1263.587	7373
1265.867	7429
1268.146	7336
1270.425	7544
1272.703	7406
1274.981	7434
1277.256	7387
1279.532	7358
1281.808	7324
1284.083	7471
1286.358	7321
1288.63	7227
1290.904	7236
1293.175	7341
1295.449	7236
1297.719	7279
1299.99	7325
1302.259	7302
1304.529	7264
1306.798	7333
1309.065	7248
1311.333	7343
1313.599	7332
1315.866	7342
1318.131	7221
1320.396	7250
1322.66	7213
1324.925	7313
1327.187	7204
1329.448	7270
1331.711	7375
1333.974	7321
1336.234	7243
1338.493	7305
1340.752	7338
1343.01	7200
1345.269	7334
1347.526	7234
1349.784	7353
1352.04	7224
1354.295	7146
1356.552	7254
1358.806	7192
1361.059	7258
1363.312	7304
1365.564	7101
1367.818	7252
1370.069	7348
1372.318	7345
1374.568	7205
1376.817	7440
1379.066	7328
1381.316	7233
1383.564	7370
1385.809	7405
1388.056	7416
1390.301	7427
1392.549	7477
1394.793	7502
1397.036	7444
1399.279	7522
1401.522	7463
1403.763	7472
1406.007	7563
1408.248	7663
1410.487	7511
1412.727	7531
1414.965	7561
1417.205	7511
1419.442	7506
1421.68	7384
1423.915	7507
1426.152	7655
1428.388	7445
1430.623	7560
1432.857	7576
1435.091	7537
1437.323	7649
1439.556	7621
1441.789	7695
1444.019	7605
1446.25	7747
1448.48	7778
1450.708	7678
1452.938	7661
1455.167	7685
1457.394	7665
1459.62	7682
1461.846	7656
1464.073	7572
1466.299	7688
1468.523	7608
1470.746	7585
1472.969	7384
1475.191	7532
1477.415	7657
1479.636	7420
1481.858	7416
1484.078	7485
1486.298	7297
1488.518	7291
1490.736	7316
1492.954	7269
1495.169	7346
1497.386	7274
1499.602	7396
1501.819	7328
1504.034	7255
1506.248	7309
1508.462	7169
1510.675	7312
1512.888	7234
1515.1	7266
1517.311	7141
1519.522	7382
1521.732	7339
1523.942	7328
1526.151	7193
1528.36	7369
1530.566	7242
1532.773	7275
1534.98	7284
1537.187	7330
1539.392	7316
1541.596	7341
1543.801	7351
1546.005	7262
1548.208	7396
1550.411	7472
1552.612	7339
1554.814	7357
1557.013	7253
1559.212	7561
1561.414	7488
1563.612	7494
1565.811	7439
1568.007	7456
1570.203	7485
1572.403	7448
1574.598	7472
1576.792	7507
1578.988	7543
1581.181	7500
1583.376	7561
1585.568	7673
1587.761	7586
1589.952	7553
1592.143	7636
1594.333	7510
1596.524	7505
1598.715	7575
1600.903	7600
1603.091	7525
1605.278	7669
1607.466	7520
1609.652	7586
1611.838	7656
1614.023	7523
1616.207	7575
1618.391	7607
1620.576	7421
1622.759	7664
1624.941	7555
1627.123	7685
1629.304	7569
1631.484	7704
1633.664	7605
1635.844	7669
1638.022	7723
1640.201	7692
1642.38	7751
1644.556	7657
1646.732	7699
1648.908	7648
1651.084	7675
1653.257	7705
1655.433	7642
1657.607	7694
1659.779	7812
1661.951	7572
1664.122	7841
1666.295	7752
1668.467	7823
1670.635	7677
1672.805	7952
1674.973	7819
1677.142	7774
1679.31	7642
1681.478	7790
1683.644	7724
1685.81	7799
1687.975	7629
1690.142	7700
1692.305	7656
1694.468	7655
1696.632	7765
1698.794	7503
1700.957	7578
1703.119	7634
1705.279	7637
1707.439	7614
1709.598	7594
1711.758	7579
1713.917	7438
1716.075	7495
1718.231	7525
1720.388	7561
1722.543	7527
1724.702	7484
1726.856	7372
1729.01	7522
1731.164	7587
1733.317	7582
1735.471	7468
1737.623	7578
1739.774	7587
1741.925	7642
1744.075	7493
1746.225	7665
1748.376	7461
1750.524	7578
1752.672	7615
1754.82	7620
1756.965	7650
1759.113	7550
1761.259	7548
1763.405	7468
1765.549	7744
1767.694	7542
1769.836	7544
1771.981	7550
1774.123	7679
1776.264	7647
1778.405	7511
1780.546	7591
1782.687	7563
1784.827	7514
1786.966	7561
1789.103	7539
1791.242	7542
1793.381	7496
1795.517	7695
1797.653	7513
1799.788	7625
1801.923	7548
1804.057	7552
1806.193	7552
1808.326	7451
1810.457	7596
1812.59	7654
1814.721	7661
1816.855	7463
1818.984	7570
1821.113	7511
1823.244	7582
1825.372	7480
1827.499	7596
1829.63	7537
1831.756	7574
1833.882	7469
1836.007	7631
1838.132	7573
1840.26	7728
1842.384	7476
1844.507	7523
1846.63	7578
1848.752	7553
1850.875	7515
1852.996	7620
1855.118	7559
1857.238	7496
1859.358	7521
1861.477	7448
1863.597	7599
1865.715	7449
1867.832	7475
1869.948	7533
1872.064	7523
1874.181	7459
1876.297	7624
1878.411	7432
1880.526	7607
1882.639	7556
1884.752	7502
1886.865	7649
1888.977	7548
1891.089	7388
1893.2	7474
1895.308	7498
1897.42	7551
1899.53	7527
1901.639	7499
1903.745	7646
1905.853	7663
1907.962	7605
1910.067	7610
1912.174	7654
1914.278	7603
1916.383	7674
1918.486	7512
1920.592	7549
1922.694	7624
1924.797	7704
1926.898	7640
1929	7746
1931.102	7731
1933.203	7658
1935.301	7566
1937.401	7561
1939.499	7596
1941.598	7700
1943.697	7654
1945.793	7592
1947.888	7645
1949.985	7664
1952.08	7606
1954.176	7717
1956.269	7697
1958.364	7666
1960.457	7510
1962.549	7557
1964.642	7638
1966.733	7616
1968.823	7497
1970.913	7596
1973.005	7554
1975.093	7632
1977.184	7477
1979.271	7475
1981.359	7572
1983.446	7561
1985.532	7566
1987.619	7525
1989.705	7580
1991.789	7486
1993.874	7595
1995.956	7547
1998.041	7551
2000.123	7539
2002.206	7602
2004.287	7634
2006.368	7427
2008.449	7629
2010.529	7655
2012.609	7536
2014.688	7488
2016.766	7445
2018.843	7537
2020.922	7461
2022.999	7573
2025.074	7460
2027.15	7481
2029.225	7580
2031.299	7395
2033.375	7618
2035.447	7536
2037.52	7539
2039.592	7536
2041.664	7503
2043.736	7642
2045.807	7519
2047.876	7694
2049.947	7602
2052.015	7528
2054.086	7654
2056.153	7394
2058.221	7467
2060.288	7531
2062.353	7550
2064.42	7529
2066.486	7459
2068.55	7558
2070.614	7567
2072.678	7488
2074.741	7490
2076.805	7593
2078.866	7621
2080.929	7572
2082.99	7584
2085.049	7599
2087.109	7395
2089.17	7496
2091.228	7610
2093.286	7493
2095.344	7602
2097.4	7548
2099.46	7497
2101.516	7478
2103.572	7600
2105.626	7512
2107.679	7518
2109.735	7497
2111.788	7582
2113.841	7476
2115.894	7534
2117.945	7527
2119.997	7487
2122.049	7544
2124.1	7550
2126.148	7581
2128.197	7476
2130.246	7534
2132.296	7514
2134.342	7557
2136.39	7562
2138.437	7573
2140.483	7507
2142.527	7584
2144.574	7282
2146.619	7482
2148.661	7494
2150.705	7503
2152.747	7580
2154.792	7531
2156.832	7506
2158.874	7424
2160.915	7420
2162.954	7434
2164.995	7494
2167.034	7489
2169.072	7422
2171.111	7429
2173.148	7484
2175.186	7379
2177.223	7372
2179.258	7428
2181.294	7437
2183.328	7399
2185.362	7389
2187.398	7419
2189.431	7365
2191.463	7408
2193.495	7446
2195.528	7422
2197.56	7328
2199.59	7390
2201.62	7300
2203.649	7313
2205.678	7387
2207.708	7365
2209.737	7409
2211.764	7264
2213.791	7280
2215.817	7230
2217.843	7396
2219.87	7359
2221.895	7265
2223.919	7383
2225.942	7376
2227.966	7258
2229.988	7294
2232.012	7446
2234.032	7315
2236.054	7314
2238.074	7298
2240.095	7228
2242.116	7311
2244.135	7311
2246.153	7311
2248.171	7407
2250.188	7315
2252.208	7220
2254.223	7135
2256.239	7359
2258.255	7249
2260.269	7218
2262.283	7323
2264.3	7197
2266.312	7288
2268.325	7360
2270.336	7155
2272.349	7315
2274.362	7386
2276.372	7317
2278.383	7337
2280.392	7309
2282.402	7468
2284.409	7321
2286.418	7364
2288.427	7304
2290.433	7277
2292.441	7289
2294.446	7301
2296.453	7268
2298.459	7365
2300.463	7236
2302.466	7303
2304.471	7342
2306.475	7333
2308.477	7252
2310.478	7269
2312.481	7347
2314.481	7099
2316.481	7188
2318.482	7218
2320.482	7227
2322.48	7210
2324.48	7295
2326.478	7294
2328.476	7153
2330.473	7249
2332.469	7184
2334.465	7214
2336.46	7114
2338.454	7270
2340.45	7149
2342.444	7069
2344.437	7168
2346.43	7201
2348.421	7241
2350.414	7078
2352.405	7124
2354.396	7134
2356.386	7063
2358.376	7151
2360.366	7220
2362.355	7057
2364.343	7052
2366.331	7020
2368.317	7058
2370.304	7217
2372.292	7142
2374.278	7170
2376.262	7042
2378.247	6964
2380.23	7086
2382.216	7101
2384.199	7024
2386.181	7060
2388.163	7121
2390.144	7066
2392.127	7041
2394.107	7000
2396.087	6928
2398.066	7020
2400.046	6994
2402.023	6983
2404.004	6899
2405.981	7072
2407.957	7097
2409.934	7104
2411.91	6872
2413.886	6968
2415.862	6946
2417.836	6974
2419.809	7002
2421.784	6943
2423.756	7091
2425.73	7098
2427.701	7007
2429.672	7071
2431.644	6865
2433.615	6996
2435.586	6938
2437.555	7002
2439.523	6965
2441.491	7042
2443.459	7018
2445.428	6993
2447.395	6975
2449.361	7094
2451.327	6999
2453.292	6965
2455.257	6994
2457.223	7026
2459.187	7025
2461.15	6777
2463.113	7019
2465.076	6901
2467.039	6999
2468.999	7012
2470.96	6813
2472.921	6919
2474.881	6934
2476.841	7009
2478.8	7065
2480.759	6937
2482.717	6999
2484.675	6850
2486.63	6943
2488.589	6921
2490.545	6872
2492.5	6856
2494.455	6840
2496.408	6995
2498.364	6949
2500.318	6868
2502.27	6793
2504.223	6948
2506.174	6834
2508.126	6957
2510.078	6864
2512.03	6852
2513.979	6842
2515.927	6846
2517.877	6974
2519.826	6865
2521.775	6795
2523.722	6790
2525.668	6834
2527.616	6856
2529.561	6738
2531.508	6847
2533.452	6786
2535.398	6801
2537.342	6793
2539.284	6844
2541.229	6788
2543.173	6852
2545.114	6815
2547.055	6831
2548.996	6810
2550.938	6934
2552.878	6761
2554.817	6824
2556.756	6789
2558.695	6780
2560.633	6809
2562.572	6724
2564.509	6833
2566.445	6766
2568.382	6728
2570.317	6711
2572.254	6787
2574.189	6769
2576.123	6756
2578.057	6765
2579.99	6782
2581.923	6817
2583.855	6878
2585.788	6760
2587.719	6849
2589.65	6869
2591.579	6737
2593.511	6779
2595.44	6747
2597.37	6774
2599.297	6919
2601.225	6940
2603.153	6708
2605.08	6669
2607.007	6830
2608.932	6883
2610.858	6780
2612.782	6895
2614.709	6906
2616.632	6795
2618.556	6798
2620.478	6899
2622.401	6842
2624.324	6841
2626.247	6857
2628.167	6820
2630.088	6828
2632.008	6754
2633.928	6756
2635.848	6772
2637.766	6843
2639.684	6845
2641.603	6788
2643.519	6792
2645.437	6707
2647.353	6842
2649.27	6797
2651.184	6687
2653.099	6779
2655.014	6860
2656.928	6688
2658.842	6805
2660.755	6711
2662.667	6844
2664.579	6810
2666.491	6893
2668.402	6745
2670.312	6791
2672.222	6780
2674.132	6791
2676.042	6772
2677.951	6779
2679.859	6723
2681.766	6806
2683.674	6720
2685.582	6789
2687.488	6763
2689.392	6798
2691.298	6778
2693.202	6662
2695.107	6755
2697.012	6704
2698.914	6848
2700.817	6692
2702.72	6675
2704.622	6678
2706.524	6800
2708.425	6599
2710.326	6723
2712.225	6661
2714.125	6719
2716.024	6647
2717.923	6755
2719.822	6563
2721.719	6630
2723.616	6639
2725.512	6673
2727.41	6534
2729.305	6649
2731.201	6666
2733.095	6676
2734.99	6586
2736.884	6523
2738.778	6608
2740.67	6561
2742.562	6695
2744.455	6628
2746.346	6599
2748.238	6634
2750.129	6580
2752.018	6585
2753.907	6601
2755.797	6555
2757.687	6540
2759.575	6603
2761.462	6592
2763.349	6576
2765.237	6703
2767.124	6589
2769.009	6574
2770.894	6496
2772.779	6625
2774.663	6605
2776.547	6508
2778.431	6604
2780.314	6618
2782.197	6629
2784.078	6662
2785.96	6443
2787.842	6586
2789.723	6490
2791.603	6474
2793.483	6568
2795.362	6618
2797.241	6565
2799.121	6515
2800.997	6588
2802.874	6573
2804.751	6402
2806.628	6460
2808.506	6473
2810.38	6460
2812.255	6561
2814.13	6428
2816.003	6559
2817.878	6502
2819.752	6565
2821.623	6574
2823.496	6502
2825.368	6529
2827.238	6509
2829.111	6509
2830.98	6491
2832.851	6536
2834.719	6503
2836.589	6537
2838.458	6527
2840.327	6555
2842.193	6501
2844.061	6605
2845.927	6499
2847.794	6535
2849.66	6576
2851.525	6519
2853.39	6593
2855.254	6575
2857.117	6541
2858.983	6532
2860.845	6637
2862.707	6669
2864.569	6624
2866.431	6655
2868.293	6725
2870.154	6782
2872.013	6835
2873.873	6872
2875.733	6964
2877.592	7011
2879.451	6964
2881.309	7103
2883.166	7057
2885.022	7099
2886.879	7085
2888.736	7061
2890.591	7147
2892.446	7253
2894.301	7201
2896.155	7115
2898.009	7116
2899.863	7069
2901.716	7006
2903.568	7211
2905.419	7107
2907.27	7120
2909.123	7188
2910.973	7074
2912.824	7175
2914.673	7201
2916.521	7170
2918.372	7437
2920.22	7327
2922.067	7441
2923.914	7610
2925.761	7549
2927.607	7656
2929.455	7642
2931.301	7790
2933.144	7831
2934.99	7822
2936.833	7871
2938.678	8060
2940.522	8003
2942.364	8108
2944.207	8129
2946.048	8181
2947.891	8179
2949.731	8336
2951.571	8139
2953.412	8181
2955.25	7991
2957.09	7904
2958.93	7821
2960.767	7864
2962.606	7734
2964.443	7753
2966.279	7623
2968.116	7534
2969.953	7442
2971.788	7488
2973.623	7320
2975.457	7363
2977.292	7322
2979.127	7197
2980.959	7447
2982.792	7153
2984.624	7415
2986.455	7106
2988.288	7049
2990.119	7050
2991.949	7087
2993.779	7042
2995.608	6975
2997.439	6863
2999.268	6931
3001.096	6880
3002.923	6722
3004.751	6684
3006.578	6576
3008.406	6708
3010.232	6472
3012.057	6575
3013.883	6529
3015.706	6588
3017.532	6456
3019.356	6322
3021.179	6381
3023.002	6286
3024.823	6321
3026.646	6373
3028.469	6279
3030.289	6226
3032.11	6283
3033.93	6233
3035.749	6291
3037.57	6168
3039.39	6146
3041.207	6148
3043.026	6137
3044.842	6193
3046.661	6121
3048.477	6287
3050.294	6164
3052.109	6245
3053.925	6198
3055.739	6142
3057.555	6063
3059.368	6134
3061.181	6134
3062.995	6108
3064.807	6214
3066.62	6190
3068.433	6139
3070.243	6118
3072.054	6217
3073.865	6129
3075.675	6118
3077.485	6124
3079.293	5986
3081.102	6052
3082.911	6160
3084.719	6048
3086.527	6062
3088.333	6050
3090.139	5953
3091.945	5918
3093.75	6070
3095.557	5823
3097.361	6024
3099.165	5988
3100.969	5979
3102.772	5852
3104.575	5912
3106.379	6006
3108.181	5903
3109.982	5847
3111.783	5901
3113.584	5933
3115.386	5834
3117.186	5927
3118.985	5908
3120.783	5779
3122.582	5846
3124.381	5823
3126.179	5777
3127.975	5776
3129.772	5755
3131.569	5912
3133.365	5767
3135.161	5829
3136.956	5749
3138.751	5795
3140.544	5743
3142.338	5872
3144.132	5848
3145.925	5887
3147.717	5852
3149.509	5817
3151.301	5865
3153.091	5750
3154.884	5836
3156.673	5727
3158.462	5726
3160.252	5705
3162.041	5842
3163.831	5642
3165.618	5758
3167.405	5762
3169.193	5772
3170.979	5792
3172.767	5755
3174.553	5536
3176.338	5827
3178.123	5740
3179.907	5701
3181.692	5744
3183.477	5744
3185.259	5806
3187.042	5805
3188.824	5696
3190.607	5739
3192.389	5651
3194.17	5698
3195.951	5625
3197.73	5688
3199.51	5741
3201.289	5610
3203.07	5672
3204.848	5646
3206.626	5670
3208.403	5643
3210.18	5608
3211.959	5855
3213.735	5631
3215.511	5725
3217.285	5667
3219.06	5697
3220.836	5672
3222.611	5688
3224.384	5724
3226.158	5680
3227.929	5597
3229.702	5745
3231.476	5689
3233.248	5631
3235.018	5630
3236.789	5693
3238.56	5726
3240.33	5640
3242.1	5772
3243.869	5725
3245.637	5731
3247.405	5644
3249.172	5763
3250.941	5650
3252.707	5751
3254.474	5604
3256.24	5721
3258.006	5690
3259.772	5713
3261.537	5654
3263.301	5623
3265.065	5752
3266.828	5664
3268.592	5592
3270.355	5552
3272.117	5675
3273.878	5715
3275.64	5651
3277.401	5668
3279.162	5587
3280.922	5740
3282.682	5673
3284.441	5656
3286.199	5672
3287.959	5565
3289.716	5644
3291.475	5680
3293.232	5743
3294.988	5685
3296.744	5571
3298.501	5717
3300.256	5679
3302.011	5727
3303.766	5698
3305.52	5645
3307.275	5648
3309.028	5589
3310.781	5645
3312.533	5698
3314.285	5652
3316.038	5602
3317.789	5678
3319.54	5647
3321.289	5587
3323.039	5592
3324.789	5636
3326.539	5641
3328.288	5571
3330.035	5583
3331.783	5605
3333.531	5652
3335.28	5672
3337.025	5577
3338.771	5598
3340.518	5561
3342.262	5653
3344.009	5498
3345.753	5608
3347.497	5678
3349.24	5571
3350.983	5531
3352.726	5535
3354.469	5519
3356.212	5461
3357.952	5631
3359.694	5497
3361.434	5428
3363.176	5528
3364.916	5560
3366.654	5439
3368.394	5391
3370.132	5546
3371.871	5482
3373.61	5516
3375.346	5509
3377.083	5442
3378.82	5544
3380.556	5396
3382.292	5503
3384.027	5433
3385.763	5435
3387.497	5477
3389.231	5389
3390.965	5395
3392.698	5418
3394.431	5505
3396.164	5448
3397.896	5464
3399.627	5408
3401.36	5439
3403.09	5372
3404.82	5446
3406.55	5368
3408.279	5415
3410.01	5382
3411.738	5358
3413.467	5415
3415.194	5408
3416.92	5330
3418.647	5413
3420.375	5315
3422.102	5369
3423.827	5250
3425.553	5376
3427.277	5412
3429.003	5321
3430.727	5337
3432.451	5296
3434.173	5352
3435.896	5349
3437.62	5294
3439.343	5328
3441.063	5361
3442.785	5319
3444.505	5266
3446.226	5412
3447.948	5157
3449.666	5236
3451.386	5275
3453.104	5184
3454.823	5233
3456.541	5124
3458.259	5100
3459.976	5198
3461.693	5223
3463.408	5269
3465.125	5200
3466.841	5115
3468.556	5177
3470.271	5168
3471.985	5278
3473.698	5070
3475.414	5141
3477.126	5109
3478.838	5067
3480.55	5105
3482.263	5008
3483.975	5097
3485.686	5079
3487.396	5074
3489.106	5041
3490.817	5012
3492.526	5035
3494.236	5059
3495.944	5058
3497.652	5114
3499.359	5085
3501.066	5019
3502.775	5114
3504.481	5053
3506.187	5021
3507.893	5024
3509.598	4990
3511.304	5060
3513.009	4891
3514.713	4953
3516.417	4938
3518.12	4908
3519.821	4914
3521.525	5010
3523.228	5028
3524.929	4983
3526.631	4954
3528.33	4886
3530.032	4895
3531.733	4832
3533.433	4890
3535.131	4888
3536.83	4889
3538.529	4878
3540.227	4872
3541.925	4821
3543.623	4848
3545.319	4849
3547.016	4784
3548.712	4740
3550.408	4780
3552.103	4753
3553.798	4893
3555.491	4879
3557.188	4727
3558.88	4910
3560.574	4717
3562.266	4885
3563.959	4827
3565.651	4814
3567.343	4825
3569.035	4742
3570.725	4751
3572.415	4730
3574.106	4716
3575.797	4792
3577.485	4771
3579.174	4691
3580.863	4787
3582.551	4778
3584.238	4644
3585.926	4646
3587.613	4656
3589.3	4664
3590.986	4637
3592.671	4706
3594.357	4523
3596.042	4763
3597.726	4716
3599.41	4708
3601.094	4690
3602.778	4633
3604.461	4503
3606.143	4574
3607.825	4653
3609.507	4534
3611.188	4565
3612.87	4591
3614.551	4600
3616.229	4626
3617.909	4489
3619.589	4598
3621.269	4548
3622.948	4511
3624.625	4488
3626.302	4595
3627.98	4530
3629.657	4455
3631.334	4523
3633.01	4558
3634.686	4529
3636.361	4445
3638.036	4359
3639.712	4501
3641.385	4480
3643.06	4439
3644.732	4353
3646.405	4414
3648.08	4371
3649.751	4440
3651.424	4372
3653.094	4470
3654.766	4408
3656.436	4378
3658.106	4363
3659.777	4427
3661.446	4356
3663.115	4407
3664.783	4469
3666.452	4336
3668.121	4320
3669.788	4320
3671.454	4266
3673.121	4319
3674.789	4265
3676.455	4219
3678.12	4400
3679.784	4331
3681.45	4444
3683.114	4400
3684.779	4275
3686.442	4244
3688.105	4339
3689.768	4318
3691.43	4350
3693.093	4370
3694.754	4299
3696.415	4204
3698.076	4316
3699.736	4292
3701.396	4290
3703.057	4223
3704.716	4238
3706.375	4270
3708.034	4304
3709.692	4248
3711.351	4269
3713.008	4289
3714.665	4216
3716.321	4230
3717.977	4309
3719.634	4253
3721.29	4248
3722.945	4260
3724.598	4192
3726.253	4313
3727.907	4187
3729.561	4213
3731.214	4243
3732.867	4095
3734.518	4188
3736.171	4236
3737.824	4190
3739.474	4195
3741.125	4161
3742.775	4236
3744.425	4147
3746.074	4209
3747.725	4169
3749.373	4146
3751.022	4125
3752.669	4188
3754.318	4152
3755.966	4246
3757.612	4158
3759.259	4171
3760.905	4173
3762.55	4095
3764.197	4117
3765.842	4140
3767.486	4101
3769.131	4045
3770.774	4164
3772.417	4118
3774.061	4129
3775.705	4162
3777.347	4062
3778.988	4048
3780.629	4072
3782.271	4009
3783.912	4079
3785.552	4009
3787.192	4124
3788.831	4039
3790.472	4122
3792.112	4017
3793.75	4077
3795.388	4021
3797.024	4013
3798.661	4047
3800.3	4066
3801.936	3971
3803.572	4036
3805.208	4046
3806.844	4075
3808.48	4028
3810.115	4030
3811.748	3960
3813.382	4032
3815.016	4019
3816.649	3981
3818.283	3988
3819.914	3975
3821.547	3843
3823.178	3948
3824.809	3934
3826.441	3968
3828.072	3901
3829.701	3957
3831.331	3998
3832.96	3960
3834.591	3899
3836.219	3972
3837.847	3941
3839.475	3973
3841.102	3941
3842.729	3855
3844.357	3908
3845.984	3915
3847.609	3955
3849.234	3900
3850.86	3923
3852.485	3817
3854.11	3872
3855.734	3927
3857.357	3861
3858.981	3930
3860.603	3797
3862.227	3852
3863.848	3861
3865.471	3844
3867.092	3858
3868.713	3864
3870.334	3814
3871.954	3838
3873.575	3915
3875.194	3769
3876.813	3777
3878.433	3837
3880.051	3767
3881.669	3829
3883.286	3828
3884.904	3829
3886.52	3783
3888.138	3864
3889.754	3802
3891.37	3914
3892.985	3785
3894.6	3890
3896.216	3817
3897.831	3676
3899.444	3770
3901.058	3821
3902.67	3821
3904.283	3726
3905.897	3854
3907.509	3799
3909.121	3878
3910.731	3677
3912.342	3753
3913.954	3759
3915.563	3812
3917.174	3780
3918.783	3689
3920.391	3749
3922.002	3742
3923.611	3734
3925.218	3717
3926.826	3741
3928.432	3866
3930.039	3776
3931.647	3787
3933.253	3753
3934.859	3711
3936.464	3763
3938.068	3796
3939.675	3683
3941.278	3759
3942.883	3752
3944.486	3681
3946.089	3765
3947.692	3758
3949.295	3780
3950.898	3677
3952.499	3838
3954.1	3771
3955.7	3721
3957.303	3648
3958.903	3760
3960.502	3673
3962.101	3620
3963.7	3741
3965.301	3631
3966.899	3634
3968.497	3654
3970.094	3628
3971.691	3684
3973.288	3600
3974.885	3670
3976.481	3604
3978.077	3617
3979.672	3569
3981.267	3544
3982.863	3654
3984.457	3563
3986.051	3533
3987.645	3656
3989.238	3547
3990.831	3627
3992.425	3547
3994.017	3594
3995.607	3543
3997.199	3564
3998.79	3578
4000.382	3615
4001.973	3611
4003.561	3509
4005.151	3460
4006.741	3530
4008.331	3563
4009.918	3563
4011.507	3602
4013.095	3563
4014.681	3530
4016.269	3486
4017.856	3470
4019.443	3459
4021.028	3566
4022.614	3361
4024.199	3610
4025.785	3488
4027.37	3411
4028.953	3514
4030.536	3414
4032.12	3523
4033.704	3455
4035.287	3482
4036.869	3477
4038.45	3437
4040.032	3452
4041.613	3423
4043.195	3412
4044.776	3477
4046.356	3412
4047.935	3420
4049.515	3445
4051.095	3463
4052.674	3461
4054.251	3407
4055.829	3379
4057.406	3364
4058.985	3432
4060.562	3468
4062.139	3436
4063.715	3393
4065.29	3447
4066.865	3356
4068.442	3416
4070.016	3380
4071.59	3434
4073.164	3392
4074.738	3379
4076.312	3402
4077.885	3356
4079.458	3393
4081.03	3276
4082.602	3377
4084.173	3426
4085.745	3375
4087.315	3259
4088.886	3382
4090.456	3361
4092.026	3320
4093.596	3315
4095.165	3389
4096.734	3245
4098.301	3317
4099.869	3257
4101.437	3307
4103.006	3312
4104.572	3297
4106.139	3268
4107.704	3366
4109.27	3268
4110.837	3220
4112.401	3296
4113.966	3256
4115.53	3319
4117.094	3296
4118.659	3280
4120.223	3270
4121.785	3252
4123.347	3181
4124.909	3263
4126.471	3269
4128.034	3173
4129.595	3253
4131.155	3293
4132.716	3201
4134.275	3208
4135.836	3216
4137.395	3228
4138.955	3279
4140.513	3247
4142.071	3212
4143.628	3197
4145.188	3194
4146.745	3230
4148.302	3156
4149.858	3204
4151.414	3152
4152.971	3130
4154.526	3234
4156.081	3159
4157.635	3226
4159.189	3221
4160.745	3148
4162.298	3138
4163.852	3048
4165.405	3191
4166.957	3140
4168.51	3111
4170.063	3173
4171.614	3192
4173.166	3093
4174.717	3065
4176.267	3144
4177.817	3115
4179.368	3108
4180.917	3141
4182.466	3172
4184.016	3137
4185.564	3119
4187.112	3073
4188.66	3070
4190.207	3068
4191.754	3078
4193.301	3105
4194.848	3072
4196.394	3080
4197.94	3101
4199.484	3036
4201.03	3023
4202.575	2987
4204.12	3089
4205.663	3071
4207.207	3029
4208.75	2978
4210.292	3060
4211.836	3063
4213.378	2996
4214.92	3099
4216.46	3046
4218.002	3007
4219.544	3017
4221.083	3099
4222.625	3044
4224.164	2982
4225.703	3032
4227.244	3054
4228.782	3021
4230.32	2998
4231.857	3021
4233.395	3071
4234.933	3063
4236.471	2952
4238.007	3088
4239.542	2977
4241.078	2975
4242.614	3048
4244.15	2960
4245.685	2956
4247.219	3043
4248.753	2917
4250.287	2968
4251.82	2999
4253.354	2964
4254.887	2995
4256.419	2932
4257.951	2940
4259.483	3002
4261.016	2927
4262.547	2941
4264.078	2973
4265.608	2963
4267.137	3028
4268.668	2988
4270.197	2887
4271.727	2914
4273.254	2963
4274.783	2974
4276.311	2962
4277.84	2956
4279.366	2968
4280.894	2899
4282.42	2890
4283.946	2916
4285.473	2907
4286.998	2891
4288.523	2854
4290.047	2927
4291.572	2897
4293.096	2904
4294.622	2962
4296.144	2836
4297.668	2836
4299.19	2904
4300.713	2932
4302.236	2899
4303.758	2862
4305.279	2856
4306.799	2867
4308.321	2831
4309.842	2888
4311.361	2856
4312.882	2907
4314.401	2893
