400.0961	8913
402.6185	8929
405.1424	8870
407.6635	8936
410.1838	9107
412.7035	8987
415.2225	9114
417.7388	8940
420.2585	9166
422.7754	9159
425.2917	9341
427.8072	9367
430.3221	9526
432.8363	9558
435.3498	9525
437.8626	9614
440.3727	9438
442.8841	9527
445.3969	9517
447.907	9442
450.4142	9496
452.9229	9485
455.4289	9612
457.9362	9697
460.4449	9620
462.9488	9490
465.454	9602
467.9566	9606
470.4604	9607
472.9637	9630
475.4662	9658
477.966	9669
480.4671	9767
482.9656	9728
485.4633	9659
487.9645	9706
490.4608	9992
492.9566	9723
495.4536	9994
497.948	9854
500.4437	9901
502.9387	9886
505.431	9804
507.9226	9825
510.4136	10077
512.9079	10043
515.3975	10031
517.8864	10153
520.3746	10100
522.8622	10111
525.3491	10061
527.8394	9960
530.3249	9886
532.8098	10126
535.2939	10022
537.7774	10244
540.2623	10171
542.7444	10057
545.2259	9997
547.7067	9988
550.1868	10147
552.6683	10060
555.147	10245
557.6231	10095
560.1005	10174
562.5773	10262
565.0534	10134
567.5308	10165
570.0056	10265
572.4776	10311
574.951	10493
577.4237	10550
579.8978	10396
582.3671	10487
584.8378	10428
587.3079	10470
589.7773	10631
592.244	10661
594.714	10439
597.1793	10522
599.6461	10474
602.1121	10509
604.5754	10396
607.0421	10551
609.5042	10400
611.9675	10682
614.4282	10411
616.8902	10455
619.3515	10653
621.8122	10514
624.2702	10556
626.7296	10476
629.1863	10321
631.6423	10472
634.1017	10340
636.5563	10555
639.0104	10482
641.4658	10406
643.9185	10591
646.3725	10540
648.8239	10566
651.2766	10616
653.7266	10600
656.176	10683
658.6247	10721
661.0748	10669
663.5242	10642
665.9709	10705
668.417	10797
670.8624	10754
673.3092	10759
675.7533	10922
678.1968	10749
680.6395	10809
683.0817	10726
685.5251	10930
687.9659	10801
690.4061	10965
692.8456	10944
695.2844	10812
697.7226	11053
700.1621	11024
702.599	11047
705.0332	11003
707.4688	10987
709.9036	11159
712.3399	11178
714.7735	11055
717.2044	11139
719.6367	11263
722.0683	11156
724.4993	11235
726.9296	11369
729.3593	11062
731.7883	11280
734.2147	11399
736.6423	11178
739.0714	11284
741.4958	11366
743.9216	11399
746.3447	11493
748.7691	11649
751.1929	11608
753.616	11502
756.0366	11598
758.4584	11534
760.8776	11674
763.2982	11751
765.718	11456
768.1373	11844
770.5539	11633
772.9698	11777
775.3871	11623
777.8038	11823
780.2178	11875
782.6332	11782
785.0459	11687
787.458	11774
789.8714	11793
792.2842	11910
794.6943	11702
797.1038	11730
799.5127	11774
801.9209	11661
804.3324	11731
806.7393	11718
809.1456	11892
811.5513	11808
813.9562	11948
816.3625	11854
818.7663	11908
821.1693	11882
823.5718	11946
825.9735	11889
828.3746	11873
830.7771	11798
833.177	11906
835.5762	11954
837.9747	11946
840.3727	11975
842.772	11967
845.1666	11980
847.5626	12009
849.958	12198
852.3527	12159
854.7488	12112
857.1403	12253
859.5331	12174
861.9253	12142
864.3168	12142
866.7057	11948
869.098	12058
871.4876	12027
873.8746	11960
876.263	12118
878.6487	11961
881.0378	12134
883.4243	12072
885.8081	11992
888.1933	12012
890.5759	11761
892.9598	12139
895.343	12009
897.7256	12092
900.1057	12105
902.4871	12200
904.8659	12097
907.246	12257
909.6254	12310
912.0023	12302
914.3786	12333
916.7562	12490
919.1331	12533
921.5074	12628
923.8831	12796
926.2562	12568
928.6287	12666
931.0005	12730
933.3757	12739
935.7462	12694
938.1162	12517
940.4855	12834
942.8542	12675
945.2242	12902
947.5916	12909
949.9584	13270
952.3266	13217
954.6921	13720
957.0571	13694
959.4233	14253
961.787	14256
964.15	14130
966.5125	13924
968.8742	13627
971.2354	13392
973.5959	12996
975.9559	13008
978.3151	12803
980.6738	12697
983.0338	12518
985.3912	12644
987.7461	12435
990.1022	12434
992.4578	12525
994.8127	12369
997.1689	12538
999.5207	12491
1001.874	12548
1004.226	12520
1006.576	12409
1008.929	12493
1011.28	12499
1013.628	12548
1015.977	12544
1018.324	12517
1020.674	12586
1023.019	12450
1025.366	12705
1027.713	12471
1030.056	12442
1032.399	12672
1034.746	12615
1037.087	12600
1039.431	12754
1041.771	12755
1044.113	12579
1046.454	12762
1048.793	12760
1051.133	12673
1053.471	12631
1055.807	12834
1058.146	12713
1060.483	12746
1062.818	12658
1065.153	12911
1067.489	12647
1069.822	12730
1072.156	12961
1074.488	12911
1076.82	12934
1079.15	12715
1081.48	12909
1083.814	12691
1086.143	12787
1088.471	12684
1090.799	12740
1093.126	12496
1095.452	12795
1097.78	12843
1100.105	12850
1102.43	12755
1104.754	12766
1107.077	12862
1109.4	12730
1111.722	12797
1114.044	12941
1116.365	12623
1118.685	12730
1121.005	12964
1123.324	12899
1125.643	12728
1127.961	13038
1130.278	13026
1132.595	12714
1134.911	12934
1137.226	12865
1139.541	12760
1141.854	13001
1144.167	12848
1146.482	12881
1148.793	12892
1151.105	12888
1153.414	12941
1155.725	12910
1158.033	12881
1160.344	12853
1162.651	12821
1164.959	12695
1167.265	12950
1169.572	12829
1171.878	13143
1174.184	12810
1176.488	12806
1178.79	12998
1181.094	13063
1183.396	12946
1185.699	12955
1188.001	12884
1190.301	12853
1192.6	12785
1194.9	13001
1197.2	12784
1199.497	12849
1201.794	12954
1204.09	12832
1206.387	12861
1208.684	12907
1210.978	12870
1213.272	13023
1215.565	12844
1217.858	12971
1220.15	13107
1222.443	12879
1224.734	12951
1227.024	13065
1229.313	13059
1231.602	13238
1233.892	13058
1236.18	13139
1238.467	13379
1240.754	13154
1243.04	13213
1245.325	13343
1247.612	13202
1249.896	13365
1252.178	13384
1254.461	13478
1256.743	13389
1259.027	13225
1261.308	13316
1263.587	13475
1265.867	13368
1268.146	13437
1270.425	13337
1272.703	13113
1274.981	13350
1277.256	13359
1279.532	13359
1281.808	13314
1284.083	13200
1286.358	13138
1288.63	13070
1290.904	13268
1293.175	13290
1295.449	13174
1297.719	13131
1299.99	13102
1302.259	13184
1304.529	13222
1306.798	13206
1309.065	13384
1311.333	13180
1313.599	13241
1315.866	13045
1318.131	13267
1320.396	13314
1322.66	13131
1324.925	13326
1327.187	13087
1329.448	13260
1331.711	13235
1333.974	13293
1336.234	13058
1338.493	13216
1340.752	13272
1343.01	13124
1345.269	13267
1347.526	13146
1349.784	13158
1352.04	13141
1354.295	13090
1356.552	13391
1358.806	13127
1361.059	13136
1363.312	13240
1365.564	13191
1367.818	13276
1370.069	13112
1372.318	13241
1374.568	13185
1376.817	13232
1379.066	13250
1381.316	13288
1383.564	13331
1385.809	13359
1388.056	13120
1390.301	13256
1392.549	13455
1394.793	13527
1397.036	13591
1399.279	13704
1401.522	13435
1403.763	13386
1406.007	13409
1408.248	13525
1410.487	13434
1412.727	13626
1414.965	13575
1417.205	13625
1419.442	13542
1421.68	13462
1423.915	13558
1426.152	13555
1428.388	13459
1430.623	13567
1432.857	13561
1435.091	13600
1437.323	13828
1439.556	13758
1441.789	13732
1444.019	13461
1446.25	13712
1448.48	13794
1450.708	13957
1452.938	13707
1455.167	13899
1457.394	13730
1459.62	13698
1461.846	13716
1464.073	13628
1466.299	13662
1468.523	13677
1470.746	13514
1472.969	13402
1475.191	13400
1477.415	13465
1479.636	13325
1481.858	13464
1484.078	13393
1486.298	13255
1488.518	13116
1490.736	13212
1492.954	13201
1495.169	13215
1497.386	13256
1499.602	13348
1501.819	13134
1504.034	13198
1506.248	13308
1508.462	13038
1510.675	13324
1512.888	13073
1515.1	13120
1517.311	13003
1519.522	13122
1521.732	13206
1523.942	13138
1526.151	13114
1528.36	13035
1530.566	13102
1532.773	13317
1534.98	13418
1537.187	13354
1539.392	13161
1541.596	13124
1543.801	13301
1546.005	13284
1548.208	13347
1550.411	13463
1552.612	13220
1554.814	13273
1557.013	13231
1559.212	13529
1561.414	13434
1563.612	13294
1565.811	13266
1568.007	13444
1570.203	13487
1572.403	13346
1574.598	13511
1576.792	13424
1578.988	13556
1581.181	13547
1583.376	13555
1585.568	13639
1587.761	13540
1589.952	13572
1592.143	13559
1594.333	13553
1596.524	13429
1598.715	13595
1600.903	13633
1603.091	13551
1605.278	13687
1607.466	13492
1609.652	13706
1611.838	13707
1614.023	13669
1616.207	13589
1618.391	13714
1620.576	13593
1622.759	13763
1624.941	13801
1627.123	13516
1629.304	13732
1631.484	13759
1633.664	13551
1635.844	13515
1638.022	13711
1640.201	13679
1642.38	13680
1644.556	13590
1646.732	13880
1648.908	13478
1651.084	13788
1653.257	13646
1655.433	13715
1657.607	13691
1659.779	13829
1661.951	13671
1664.122	13712
1666.295	13887
1668.467	13604
1670.635	13678
1672.805	13770
1674.973	13705
1677.142	13816
1679.31	13734
1681.478	13577
1683.644	13791
1685.81	13633
1687.975	13705
1690.142	13740
1692.305	13835
1694.468	13574
1696.632	13676
1698.794	13645
1700.957	13648
1703.119	13720
1705.279	13549
1707.439	13598
1709.598	13397
1711.758	13418
1713.917	13611
1716.075	13468
1718.231	13520
1720.388	13384
1722.543	13446
1724.702	13588
1726.856	13608
1729.01	13583
1731.164	13523
1733.317	13583
1735.471	13667
1737.623	13460
1739.774	13542
1741.925	13525
1744.075	13623
1746.225	13417
1748.376	13524
1750.524	13476
1752.672	13406
1754.82	13485
1756.965	13651
1759.113	13535
1761.259	13594
1763.405	13560
1765.549	13573
1767.694	13541
1769.836	13528
1771.981	13603
1774.123	13579
1776.264	13876
1778.405	13700
1780.546	13781
1782.687	13679
1784.827	13668
1786.966	13781
1789.103	13574
1791.242	13587
1793.381	13561
1795.517	13639
1797.653	13690
1799.788	13522
1801.923	13543
1804.057	13683
1806.193	13688
1808.326	13666
1810.457	13679
1812.59	13572
1814.721	13704
1816.855	13668
1818.984	13649
1821.113	13395
1823.244	13478
1825.372	13790
1827.499	13597
1829.63	13516
1831.756	13538
1833.882	13412
1836.007	13488
1838.132	13606
1840.26	13607
1842.384	13346
1844.507	13680
1846.63	13500
1848.752	13294
1850.875	13418
1852.996	13399
1855.118	13331
1857.238	13343
1859.358	13290
1861.477	13299
1863.597	13498
1865.715	13484
1867.832	13237
1869.948	13389
1872.064	13510
1874.181	13396
1876.297	13454
1878.411	13435
1880.526	13509
1882.639	13471
1884.752	13476
1886.865	13553
1888.977	13355
1891.089	13786
1893.2	13470
1895.308	13367
1897.42	13579
1899.53	13450
1901.639	13441
1903.745	13434
1905.853	13678
1907.962	13540
1910.067	13524
1912.174	13577
1914.278	13538
1916.383	13518
1918.486	13502
1920.592	13728
1922.694	13675
1924.797	13614
1926.898	13521
1929	13622
1931.102	13491
1933.203	13782
1935.301	13650
1937.401	13749
1939.499	13624
1941.598	13593
1943.697	13636
1945.793	13557
1947.888	13565
1949.985	13665
1952.08	13701
1954.176	13751
1956.269	13556
1958.364	13590
1960.457	13683
1962.549	13691
1964.642	13385
1966.733	13591
1968.823	13816
1970.913	13585
1973.005	13436
1975.093	13444
1977.184	13551
1979.271	13477
1981.359	13548
1983.446	13454
1985.532	13531
1987.619	13602
1989.705	13380
1991.789	13507
1993.874	13509
1995.956	13483
1998.041	13327
2000.123	13442
2002.206	13498
2004.287	13437
2006.368	13433
2008.449	13401
2010.529	13453
2012.609	13432
2014.688	13424
2016.766	13332
2018.843	13477
2020.922	13300
2022.999	13317
2025.074	13376
2027.15	13441
2029.225	13463
2031.299	13298
2033.375	13252
2035.447	13491
2037.52	13380
2039.592	13333
2041.664	13402
2043.736	13281
2045.807	13297
2047.876	13409
2049.947	13418
2052.015	13240
2054.086	13275
2056.153	13320
2058.221	13238
2060.288	13513
2062.353	13352
2064.42	13346
2066.486	13294
2068.55	13444
2070.614	13514
2072.678	13398
2074.741	13330
2076.805	13270
2078.866	13354
2080.929	13378
2082.99	13462
2085.049	13253
2087.109	13504
2089.17	13350
2091.228	13440
2093.286	13383
2095.344	13411
2097.4	13365
2099.46	13321
2101.516	13184
2103.572	13391
2105.626	13320
2107.679	13547
2109.735	13535
2111.788	13377
2113.841	13290
2115.894	13564
2117.945	13341
2119.997	13442
2122.049	13460
2124.1	13264
2126.148	13289
2128.197	13406
2130.246	13300
2132.296	13235
2134.342	13228
2136.39	13347
2138.437	13491
2140.483	13434
2142.527	13201
2144.574	13293
2146.619	13143
2148.661	13214
2150.705	13253
2152.747	13171
2154.792	13246
2156.832	13113
2158.874	13007
2160.915	13279
2162.954	12909
2164.995	13225
2167.034	13185
2169.072	13180
2171.111	13240
2173.148	13126
2175.186	13131
2177.223	13224
2179.258	13199
2181.294	13204
2183.328	13023
2185.362	13140
2187.398	13005
2189.431	13095
2191.463	13058
2193.495	13041
2195.528	12825
2197.56	13117
2199.59	12914
2201.62	12878
2203.649	12967
2205.678	12978
2207.708	12992
2209.737	13071
2211.764	12759
2213.791	12806
2215.817	12921
2217.843	12908
2219.87	12858
2221.895	13030
2223.919	12944
2225.942	12905
2227.966	12914
2229.988	12764
2232.012	12778
2234.032	12821
2236.054	12782
2238.074	12812
2240.095	12884
2242.116	12872
2244.135	12748
2246.153	12918
2248.171	12846
2250.188	12869
2252.208	12704
2254.223	12859
2256.239	12690
2258.255	12835
2260.269	12846
2262.283	13034
2264.3	12789
2266.312	12904
2268.325	12836
2270.336	12901
2272.349	12777
2274.362	12878
2276.372	12819
2278.383	12796
2280.392	12735
2282.402	12932
2284.409	12773
2286.418	12740
2288.427	12838
2290.433	12794
2292.441	12685
2294.446	12771
2296.453	12780
2298.459	12645
2300.463	12678
2302.466	12823
2304.471	12698
2306.475	12955
2308.477	12627
2310.478	12478
2312.481	12925
2314.481	12720
2316.481	12710
2318.482	12515
2320.482	12710
2322.48	12649
2324.48	12600
2326.478	12640
2328.476	12593
2330.473	12599
2332.469	12514
2334.465	12552
2336.46	12500
2338.454	12534
2340.45	12626
2342.444	12507
2344.437	12663
2346.43	12427
2348.421	12612
2350.414	12421
2352.405	12603
2354.396	12452
2356.386	12501
2358.376	12384
2360.366	12529
2362.355	12452
2364.343	12541
2366.331	12340
2368.317	12322
2370.304	12455
2372.292	12326
2374.278	12332
2376.262	12352
2378.247	12471
2380.23	12400
2382.216	12592
2384.199	12313
2386.181	12284
2388.163	12245
2390.144	12286
2392.127	12443
2394.107	12272
2396.087	12294
2398.066	12316
2400.046	12281
2402.023	12112
2404.004	12348
2405.981	12091
2407.957	12233
2409.934	12138
2411.91	12272
2413.886	12219
2415.862	12171
2417.836	12099
2419.809	12300
2421.784	12182
2423.756	12083
2425.73	12213
2427.701	12265
2429.672	12118
2431.644	12386
2433.615	12213
2435.586	12128
2437.555	12270
2439.523	12236
2441.491	12173
2443.459	12408
2445.428	12267
2447.395	12076
2449.361	12278
2451.327	12072
2453.292	12184
2455.257	12088
2457.223	12133
2459.187	11933
2461.15	12079
2463.113	12044
2465.076	11928
2467.039	12136
2468.999	12030
2470.96	12085
2472.921	12069
2474.881	12052
2476.841	11972
2478.8	11953
2480.759	12069
2482.717	11867
2484.675	11996
2486.63	11959
2488.589	12007
2490.545	11884
2492.5	11986
2494.455	11927
2496.408	11853
2498.364	12119
2500.318	11868
2502.27	11866
2504.223	11848
2506.174	11976
2508.126	11976
2510.078	11758
2512.03	11885
2513.979	11792
2515.927	11865
2517.877	11883
2519.826	11752
2521.775	11813
2523.722	11858
2525.668	11836
2527.616	11833
2529.561	11781
2531.508	11940
2533.452	11772
2535.398	11814
2537.342	11709
2539.284	11877
2541.229	11871
2543.173	11786
2545.114	11631
2547.055	11877
2548.996	11756
2550.938	11672
2552.878	11789
2554.817	11709
2556.756	11728
2558.695	11688
2560.633	11686
2562.572	11717
2564.509	11864
2566.445	11767
2568.382	11785
2570.317	11760
2572.254	11802
2574.189	11964
2576.123	11589
2578.057	11687
2579.99	11785
2581.923	11846
2583.855	11791
2585.788	11743
2587.719	11684
2589.65	11908
2591.579	11821
2593.511	11817
2595.44	11725
2597.37	11662
2599.297	11667
2601.225	11696
2603.153	11608
2605.08	11790
2607.007	11763
2608.932	11564
2610.858	11724
2612.782	11739
2614.709	11798
2616.632	11668
2618.556	11740
2620.478	11804
2622.401	11813
2624.324	11531
2626.247	11606
2628.167	11782
2630.088	11969
2632.008	11848
2633.928	11582
2635.848	11640
2637.766	11659
2639.684	11882
2641.603	11723
2643.519	11839
2645.437	11661
2647.353	11699
2649.27	11781
2651.184	11680
2653.099	11690
2655.014	11663
2656.928	11618
2658.842	11855
2660.755	11521
2662.667	11710
2664.579	11603
2666.491	11761
2668.402	11626
2670.312	11592
2672.222	11800
2674.132	11626
2676.042	11584
2677.951	11602
2679.859	11448
2681.766	11601
2683.674	11703
2685.582	11752
2687.488	11675
2689.392	11624
2691.298	11442
2693.202	11623
2695.107	11414
2697.012	11521
2698.914	11719
2700.817	11531
2702.72	11514
2704.622	11402
2706.524	11442
2708.425	11548
2710.326	11417
2712.225	11420
2714.125	11400
2716.024	11449
2717.923	11363
2719.822	11476
2721.719	11246
2723.616	11455
2725.512	11485
2727.41	11546
2729.305	11330
2731.201	11316
2733.095	11386
2734.99	11513
2736.884	11259
2738.778	11346
2740.67	11321
2742.562	11180
2744.455	11408
2746.346	11363
2748.238	11240
2750.129	11395
2752.018	11353
2753.907	11190
2755.797	11382
2757.687	11247
2759.575	11209
2761.462	11330
2763.349	11232
2765.237	11234
2767.124	11278
2769.009	11123
2770.894	11283
2772.779	11250
2774.663	11282
2776.547	11144
2778.431	11182
2780.314	11129
2782.197	11072
2784.078	11106
2785.96	11279
2787.842	11198
2789.723	11222
2791.603	11169
2793.483	11037
2795.362	11099
2797.241	11197
2799.121	11216
2800.997	11111
2802.874	11092
2804.751	11038
2806.628	11162
2808.506	11148
2810.38	11062
2812.255	11076
2814.13	10996
2816.003	10935
2817.878	11087
2819.752	11222
2821.623	11177
2823.496	11184
2825.368	11160
2827.238	11083
2829.111	10964
2830.98	11178
2832.851	11113
2834.719	11203
2836.589	10987
2838.458	11107
2840.327	10941
2842.193	11070
2844.061	11137
2845.927	11101
2847.794	10988
2849.66	11102
2851.525	11087
2853.39	11062
2855.254	11137
2857.117	11075
2858.983	11131
2860.845	11242
2862.707	11170
2864.569	11193
2866.431	11267
2868.293	11220
2870.154	11295
2872.013	11433
2873.873	11319
2875.733	11428
2877.592	11596
2879.451	11334
2881.309	11617
2883.166	11496
2885.022	11615
2886.879	11748
2888.736	11686
2890.591	11759
2892.446	11840
2894.301	11784
2896.155	11746
2898.009	11784
2899.863	11817
2901.716	11608
2903.568	11732
2905.419	11692
2907.27	11665
2909.123	11638
2910.973	11688
2912.824	11748
2914.673	11787
2916.521	11765
2918.372	11834
2920.22	11976
2922.067	11936
2923.914	11930
2925.761	12054
2927.607	12164
2929.455	12145
2931.301	12200
2933.144	12310
2934.99	12185
2936.833	12495
2938.678	12363
2940.522	12412
2942.364	12646
2944.207	12790
2946.048	12768
2947.891	12754
2949.731	12878
2951.571	12750
2953.412	12648
2955.25	12640
2957.09	12442
2958.93	12479
2960.767	12337
2962.606	12236
2964.443	12101
2966.279	12060
2968.116	12037
2969.953	11842
2971.788	11917
2973.623	11938
2975.457	11813
2977.292	11717
2979.127	11720
2980.959	11496
2982.792	11695
2984.624	11400
2986.455	11469
2988.288	11347
2990.119	11300
2991.949	11398
2993.779	11157
2995.608	11169
2997.439	11088
2999.268	11205
3001.096	11085
3002.923	11149
3004.751	11034
3006.578	11021
3008.406	10931
3010.232	10817
3012.057	10634
3013.883	10598
3015.706	10639
3017.532	10581
3019.356	10614
3021.179	10615
3023.002	10429
3024.823	10333
3026.646	10490
3028.469	10492
3030.289	10439
3032.11	10376
3033.93	10290
3035.749	10387
3037.57	10251
3039.39	10237
3041.207	10338
3043.026	10326
3044.842	10254
3046.661	10215
3048.477	10276
3050.294	10231
3052.109	10376
3053.925	10268
3055.739	10088
3057.555	10187
3059.368	10204
3061.181	10162
3062.995	10189
3064.807	10356
3066.62	10222
3068.433	10236
3070.243	10271
3072.054	10072
3073.865	10256
3075.675	10052
3077.485	10013
3079.293	10100
3081.102	10164
3082.911	10088
3084.719	9930
3086.527	10108
3088.333	9958
3090.139	9866
3091.945	9871
3093.75	9970
3095.557	9908
3097.361	9904
3099.165	10002
3100.969	9957
3102.772	9746
3104.575	9885
3106.379	9875
3108.181	9887
3109.982	9778
3111.783	9787
3113.584	9806
3115.386	9733
3117.186	9708
3118.985	9893
3120.783	9836
3122.582	9616
3124.381	9525
3126.179	9648
3127.975	9677
3129.772	9664
3131.569	9855
3133.365	9565
3135.161	9680
3136.956	9745
3138.751	9709
3140.544	9677
3142.338	9757
3144.132	9560
3145.925	9687
3147.717	9618
3149.509	9614
3151.301	9605
3153.091	9574
3154.884	9543
3156.673	9482
3158.462	9641
3160.252	9647
3162.041	9592
3163.831	9439
3165.618	9492
3167.405	9545
3169.193	9539
3170.979	9455
3172.767	9562
3174.553	9521
3176.338	9414
3178.123	9464
3179.907	9374
3181.692	9394
3183.477	9615
3185.259	9482
3187.042	9467
3188.824	9377
3190.607	9379
3192.389	9512
3194.17	9415
3195.951	9479
3197.73	9488
3199.51	9404
3201.289	9298
3203.07	9308
3204.848	9538
3206.626	9372
3208.403	9430
3210.18	9266
3211.959	9284
3213.735	9354
3215.511	9296
3217.285	9227
3219.06	9269
3220.836	9222
3222.611	9402
3224.384	9390
3226.158	9258
3227.929	9287
3229.702	9320
3231.476	9227
3233.248	9346
3235.018	9240
3236.789	9322
3238.56	9257
3240.33	9365
3242.1	9281
3243.869	9212
3245.637	9197
3247.405	9296
3249.172	9215
3250.941	9314
3252.707	9290
3254.474	9300
3256.24	9309
3258.006	9098
3259.772	9076
3261.537	9285
3263.301	9375
3265.065	9248
3266.828	9157
3268.592	9182
3270.355	9267
3272.117	9169
3273.878	9211
3275.64	9109
3277.401	9305
3279.162	9066
3280.922	9232
3282.682	9148
3284.441	9198
3286.199	9122
3287.959	9089
3289.716	9231
3291.475	9197
3293.232	9091
3294.988	9122
3296.744	9175
3298.501	9097
3300.256	8966
3302.011	9175
3303.766	9136
3305.52	9282
3307.275	9102
3309.028	9046
3310.781	9030
3312.533	9136
3314.285	9246
3316.038	9118
3317.789	8943
3319.54	8961
3321.289	8931
3323.039	9157
3324.789	9076
3326.539	9088
3328.288	8966
3330.035	9114
3331.783	8977
3333.531	9015
3335.28	9025
3337.025	8936
3338.771	8933
3340.518	9027
3342.262	8956
3344.009	9138
3345.753	8899
3347.497	8920
3349.24	8885
3350.983	8886
3352.726	9045
3354.469	8936
3356.212	9009
3357.952	9027
3359.694	8877
3361.434	8767
3363.176	8967
3364.916	8680
3366.654	8969
3368.394	8876
3370.132	8995
3371.871	8790
3373.61	8951
3375.346	8776
3377.083	8901
3378.82	8799
3380.556	8827
3382.292	8655
3384.027	8633
3385.763	8860
3387.497	8656
3389.231	8745
3390.965	8768
3392.698	8643
3394.431	8784
3396.164	8639
3397.896	8790
3399.627	8658
3401.36	8726
3403.09	8665
3404.82	8726
3406.55	8625
3408.279	8588
3410.01	8663
3411.738	8713
3413.467	8659
3415.194	8539
3416.92	8605
3418.647	8621
3420.375	8519
3422.102	8503
3423.827	8506
3425.553	8673
3427.277	8552
3429.003	8491
3430.727	8524
3432.451	8662
3434.173	8345
3435.896	8509
3437.62	8471
3439.343	8409
3441.063	8523
3442.785	8446
3444.505	8412
3446.226	8443
3447.948	8494
3449.666	8464
3451.386	8393
3453.104	8463
3454.823	8478
3456.541	8382
3458.259	8296
3459.976	8281
3461.693	8306
3463.408	8284
3465.125	8205
3466.841	8388
3468.556	8175
3470.271	8337
3471.985	8227
3473.698	8055
3475.414	8243
3477.126	8137
3478.838	8272
3480.55	8144
3482.263	8190
3483.975	8184
3485.686	8184
3487.396	8011
3489.106	8229
3490.817	8151
3492.526	8015
3494.236	8120
3495.944	7929
3497.652	8210
3499.359	8005
3501.066	8108
3502.775	7939
3504.481	7960
3506.187	7939
3507.893	8022
3509.598	7923
3511.304	7942
3513.009	7961
3514.713	7995
3516.417	7825
3518.12	7978
3519.821	7894
3521.525	7859
3523.228	8030
3524.929	8074
3526.631	7966
3528.33	7934
3530.032	7824
3531.733	7917
3533.433	7881
3535.131	7845
3536.83	7784
3538.529	7772
3540.227	7832
3541.925	7864
3543.623	7778
3545.319	7913
3547.016	7774
3548.712	7758
3550.408	7770
3552.103	7859
3553.798	7780
3555.491	7725
3557.188	7774
3558.88	7623
3560.574	7706
3562.266	7723
3563.959	7648
3565.651	7689
3567.343	7633
3569.035	7719
3570.725	7685
3572.415	7615
3574.106	7634
3575.797	7658
3577.485	7663
3579.174	7642
3580.863	7599
3582.551	7576
3584.238	7676
3585.926	7557
3587.613	7540
3589.3	7566
3590.986	7469
3592.671	7435
3594.357	7470
3596.042	7595
3597.726	7574
3599.41	7552
3601.094	7414
3602.778	7571
3604.461	7413
3606.143	7468
3607.825	7425
3609.507	7447
3611.188	7282
3612.87	7331
3614.551	7411
3616.229	7350
3617.909	7321
3619.589	7407
3621.269	7280
3622.948	7243
3624.625	7437
3626.302	7475
3627.98	7206
3629.657	7212
3631.334	7341
3633.01	7299
3634.686	7291
3636.361	7248
3638.036	7364
3639.712	7325
3641.385	7189
3643.06	7234
3644.732	7200
3646.405	7212
3648.08	7179
3649.751	7255
3651.424	7021
3653.094	7096
3654.766	7257
3656.436	7184
3658.106	7038
3659.777	7067
3661.446	7103
3663.115	7115
3664.783	7241
3666.452	7132
3668.121	7089
3669.788	7090
3671.454	6995
3673.121	7065
3674.789	7082
3676.455	7030
3678.12	7008
3679.784	6956
3681.45	6940
3683.114	7050
3684.779	7088
3686.442	6932
3688.105	6963
3689.768	7020
3691.43	7054
3693.093	6926
3694.754	7019
3696.415	6877
3698.076	6938
3699.736	7146
3701.396	6928
3703.057	6925
3704.716	6975
3706.375	6840
3708.034	6918
3709.692	7012
3711.351	6795
3713.008	6888
3714.665	6957
3716.321	6811
3717.977	6853
3719.634	6884
3721.29	6844
3722.945	6867
3724.598	6811
3726.253	6832
3727.907	6880
3729.561	6787
3731.214	6806
3732.867	6864
3734.518	6846
3736.171	6941
3737.824	6852
3739.474	6788
3741.125	6896
3742.775	6672
3744.425	6778
3746.074	6775
3747.725	6756
3749.373	6704
3751.022	6609
3752.669	6761
3754.318	6732
3755.966	6703
3757.612	6638
3759.259	6811
3760.905	6624
3762.55	6638
3764.197	6627
3765.842	6739
3767.486	6716
3769.131	6619
3770.774	6645
3772.417	6632
3774.061	6697
3775.705	6738
3777.347	6593
3778.988	6693
3780.629	6593
3782.271	6680
3783.912	6570
3785.552	6663
3787.192	6592
3788.831	6511
3790.472	6523
3792.112	6612
3793.75	6536
3795.388	6578
3797.024	6532
3798.661	6441
3800.3	6506
3801.936	6399
3803.572	6427
3805.208	6532
3806.844	6446
3808.48	6448
3810.115	6417
3811.748	6479
3813.382	6311
3815.016	6490
3816.649	6553
3818.283	6498
3819.914	6441
3821.547	6282
3823.178	6404
3824.809	6364
3826.441	6304
3828.072	6310
3829.701	6457
3831.331	6342
3832.96	6324
3834.591	6336
3836.219	6336
3837.847	6355
3839.475	6368
3841.102	6324
3842.729	6480
3844.357	6351
3845.984	6249
3847.609	6272
3849.234	6294
3850.86	6253
3852.485	6236
3854.11	6327
3855.734	6349
3857.357	6224
3858.981	6163
3860.603	6280
3862.227	6188
3863.848	6283
3865.471	6140
3867.092	6263
3868.713	6115
3870.334	6203
3871.954	6224
3873.575	6231
3875.194	6224
3876.813	6203
3878.433	6140
3880.051	6084
3881.669	6151
3883.286	6108
3884.904	6205
3886.52	6084
3888.138	6207
3889.754	6164
3891.37	6139
3892.985	6099
3894.6	6188
3896.216	6077
3897.831	6093
3899.444	6044
3901.058	6204
3902.67	6096
3904.283	6109
3905.897	5950
3907.509	6103
3909.121	6031
3910.731	6046
3912.342	6077
3913.954	6079
3915.563	6155
3917.174	5977
3918.783	5993
3920.391	6113
3922.002	6063
3923.611	6049
3925.218	6117
3926.826	6060
3928.432	6057
3930.039	6046
3931.647	5999
3933.253	6129
3934.859	6017
3936.464	5923
3938.068	5990
3939.675	5958
3941.278	5974
3942.883	5868
3944.486	5854
3946.089	5993
3947.692	5969
3949.295	5826
3950.898	5894
3952.499	5820
3954.1	5973
3955.7	5899
3957.303	5849
3958.903	6025
3960.502	5854
3962.101	5869
3963.7	5794
3965.301	5847
3966.899	5725
3968.497	5746
3970.094	5763
3971.691	5874
3973.288	5754
3974.885	5755
3976.481	5713
3978.077	5748
3979.672	5721
3981.267	5835
3982.863	5870
3984.457	5760
3986.051	5742
3987.645	5802
3989.238	5761
3990.831	5736
3992.425	5750
3994.017	5713
3995.607	5774
3997.199	5744
3998.79	5657
4000.382	5644
4001.973	5665
4003.561	5596
4005.151	5478
4006.741	5621
4008.331	5591
4009.918	5603
4011.507	5657
4013.095	5594
4014.681	5666
4016.269	5611
4017.856	5464
4019.443	5649
4021.028	5689
4022.614	5496
4024.199	5598
4025.785	5527
4027.37	5669
4028.953	5531
4030.536	5449
4032.12	5497
4033.704	5524
4035.287	5484
4036.869	5533
4038.45	5526
4040.032	5458
4041.613	5377
4043.195	5444
4044.776	5457
4046.356	5458
4047.935	5530
4049.515	5442
4051.095	5447
4052.674	5431
4054.251	5373
4055.829	5406
4057.406	5280
4058.985	5529
4060.562	5349
4062.139	5373
4063.715	5426
4065.29	5436
4066.865	5430
4068.442	5373
4070.016	5437
4071.59	5375
4073.164	5449
4074.738	5371
4076.312	5362
4077.885	5372
4079.458	5371
4081.03	5341
4082.602	5381
4084.173	5373
4085.745	5327
4087.315	5296
4088.886	5308
4090.456	5239
4092.026	5239
4093.596	5190
4095.165	5276
4096.734	5255
4098.301	5197
4099.869	5272
4101.437	5278
4103.006	5240
4104.572	5215
4106.139	5135
4107.704	5221
4109.27	5266
4110.837	5192
4112.401	5240
4113.966	5213
4115.53	5147
4117.094	5236
4118.659	5150
4120.223	5128
4121.785	5184
4123.347	5190
4124.909	5127
4126.471	5149
4128.034	5134
4129.595	5058
4131.155	5107
4132.716	5101
4134.275	5007
4135.836	5152
4137.395	5023
4138.955	5173
4140.513	5102
4142.071	5069
4143.628	5055
4145.188	5090
4146.745	5000
4148.302	5031
4149.858	4995
4151.414	5020
4152.971	5005
4154.526	4959
4156.081	5010
4157.635	5005
4159.189	5016
4160.745	5009
4162.298	5022
4163.852	4945
4165.405	4911
4166.957	4967
4168.51	4958
4170.063	4917
4171.614	4981
4173.166	4951
4174.717	4941
4176.267	4842
4177.817	4891
4179.368	4882
4180.917	4838
4182.466	4872
4184.016	4820
4185.564	5004
4187.112	4838
4188.66	4729
4190.207	4832
4191.754	4954
4193.301	4848
4194.848	4856
4196.394	4889
4197.94	4840
4199.484	4922
4201.03	4889
4202.575	4813
4204.12	4797
4205.663	4849
4207.207	4763
4208.75	4809
4210.292	4697
4211.836	4701
4213.378	4749
4214.92	4778
4216.46	4825
4218.002	4732
4219.544	4809
4221.083	4763
4222.625	4794
4224.164	4748
4225.703	4797
4227.244	4764
4228.782	4716
4230.32	4775
4231.857	4712
4233.395	4711
4234.933	4698
4236.471	4740
4238.007	4611
4239.542	4678
4241.078	4715
4242.614	4708
4244.15	4707
4245.685	4694
4247.219	4704
4248.753	4696
4250.287	4646
4251.82	4697
4253.354	4658
4254.887	4701
4256.419	4748
4257.951	4600
4259.483	4629
4261.016	4614
4262.547	4631
4264.078	4551
4265.608	4607
4267.137	4625
4268.668	4538
4270.197	4620
4271.727	4555
4273.254	4592
4274.783	4599
4276.311	4542
4277.84	4707
4279.366	4597
4280.894	4483
4282.42	4555
4283.946	4579
4285.473	4487
4286.998	4536
4288.523	4532
4290.047	4484
4291.572	4520
4293.096	4472
4294.622	4493
4296.144	4490
4297.668	4496
4299.19	4482
4300.713	4520
4302.236	4471
4303.758	4469
4305.279	4455
4306.799	4471
4308.321	4473
4309.842	4340
4311.361	4460
4312.882	4401
4314.401	4377
