400.0961	3649
402.6185	3689
405.1424	3584
407.6635	3691
410.1838	3653
412.7035	3640
415.2225	3733
417.7388	3685
420.2585	3710
422.7754	3744
425.2917	3805
427.8072	3803
430.3221	3812
432.8363	3774
435.3498	3770
437.8626	3820
440.3727	3861
442.8841	3828
445.3969	3954
447.907	3881
450.4142	3926
452.9229	3829
455.4289	3888
457.9362	3900
460.4449	3879
462.9488	3876
465.454	3782
467.9566	3876
470.4604	3838
472.9637	3866
475.4662	3876
477.966	3837
480.4671	3883
482.9656	3870
485.4633	3944
487.9645	4020
490.4608	3959
492.9566	3882
495.4536	3946
497.948	3981
500.4437	3990
502.9387	3952
505.431	3969
507.9226	4039
510.4136	4007
512.9079	4033
515.3975	4063
517.8864	3955
520.3746	3945
522.8622	3989
525.3491	4117
527.8394	4037
530.3249	4069
532.8098	3930
535.2939	4047
537.7774	4123
540.2623	4124
542.7444	4124
545.2259	4117
547.7067	4075
550.1868	4084
552.6683	4057
555.147	4049
557.6231	4050
560.1005	4113
562.5773	4053
565.0534	4165
567.5308	4124
570.0056	4117
572.4776	4111
574.951	4084
577.4237	4235
579.8978	4192
582.3671	4131
584.8378	4194
587.3079	4212
589.7773	4114
592.244	4163
594.714	4220
597.1793	4273
599.6461	4225
602.1121	4204
604.5754	4196
607.0421	4241
609.5042	4244
611.9675	4171
614.4282	4121
616.8902	4181
619.3515	4206
621.8122	4259
624.2702	4223
626.7296	4196
629.1863	4160
631.6423	4160
634.1017	4201
636.5563	4159
639.0104	4185
641.4658	4203
643.9185	4237
646.3725	4212
648.8239	4244
651.2766	4344
653.7266	4226
656.176	4287
658.6247	4293
661.0748	4307
663.5242	4323
665.9709	4311
668.417	4391
670.8624	4379
673.3092	4257
675.7533	4354
678.1968	4250
680.6395	4419
683.0817	4453
685.5251	4372
687.9659	4297
690.4061	4341
692.8456	4376
695.2844	4354
697.7226	4430
700.1621	4330
702.599	4445
705.0332	4433
707.4688	4424
709.9036	4464
712.3399	4515
714.7735	4381
717.2044	4462
719.6367	4506
722.0683	4453
724.4993	4498
726.9296	4481
729.3593	4586
731.7883	4447
734.2147	4484
736.6423	4541
739.0714	4524
741.4958	4556
743.9216	4569
746.3447	4586
748.7691	4590
751.1929	4597
753.616	4613
756.0366	4623
758.4584	4582
760.8776	4663
763.2982	4610
765.718	4567
768.1373	4636
770.5539	4582
772.9698	4674
775.3871	4682
777.8038	4616
780.2178	4680
782.6332	4649
785.0459	4695
787.458	4606
789.8714	4687
792.2842	4677
794.6943	4652
797.1038	4683
799.5127	4645
801.9209	4638
804.3324	4598
806.7393	4732
809.1456	4634
811.5513	4672
813.9562	4742
816.3625	4700
818.7663	4683
821.1693	4732
823.5718	4727
825.9735	4776
828.3746	4741
830.7771	4636
833.177	4777
835.5762	4779
837.9747	4766
840.3727	4775
842.772	4769
845.1666	4792
847.5626	4762
849.958	4678
852.3527	4799
854.7488	4792
857.1403	4867
859.5331	4834
861.9253	4760
864.3168	4756
866.7057	4742
869.098	4721
871.4876	4783
873.8746	4831
876.263	4826
878.6487	4798
881.0378	4753
883.4243	4791
885.8081	4856
888.1933	4696
890.5759	4786
892.9598	4838
895.343	4818
897.7256	4775
900.1057	4885
902.4871	4799
904.8659	4847
907.246	4877
909.6254	4914
912.0023	4868
914.3786	5009
916.7562	5045
919.1331	5046
921.5074	5072
923.8831	5117
926.2562	5150
928.6287	5161
931.0005	5131
933.3757	4991
935.7462	5080
938.1162	5034
940.4855	5043
942.8542	5044
945.2242	5144
947.5916	5057
949.9584	5138
952.3266	5190
954.6921	5157
957.0571	5179
959.4233	5399
961.787	5383
964.15	5415
966.5125	5301
968.8742	5236
971.2354	5177
973.5959	5102
975.9559	5054
978.3151	5074
980.6738	5088
983.0338	4977
985.3912	4946
987.7461	4940
990.1022	4927
992.4578	4909
994.8127	4904
997.1689	4970
999.5207	5002
1001.874	4985
1004.226	5016
1006.576	4889
1008.929	5011
1011.28	4904
1013.628	4958
1015.977	5059
1018.324	4936
1020.674	5004
1023.019	4974
1025.366	4990
1027.713	5014
1030.056	5049
1032.399	4996
1034.746	5104
1037.087	5106
1039.431	5118
1041.771	5020
1044.113	5112
1046.454	5106
1048.793	5104
1051.133	5071
1053.471	5024
1055.807	5065
1058.146	4970
1060.483	5094
1062.818	4989
1065.153	5170
1067.489	5167
1069.822	5057
1072.156	5135
1074.488	5061
1076.82	5137
1079.15	5145
1081.48	5058
1083.814	5135
1086.143	5078
1088.471	5098
1090.799	5098
1093.126	5106
1095.452	5142
1097.78	5145
1100.105	5122
1102.43	5119
1104.754	5159
1107.077	5188
1109.4	5089
1111.722	5196
1114.044	5168
1116.365	5152
1118.685	5253
1121.005	5279
1123.324	5121
1125.643	5245
1127.961	5161
1130.278	5214
1132.595	5260
1134.911	5147
1137.226	5149
1139.541	5180
1141.854	5147
1144.167	5156
1146.482	5245
1148.793	5084
1151.105	5189
1153.414	5228
1155.725	5142
1158.033	5102
1160.344	5153
1162.651	5196
1164.959	5124
1167.265	5184
1169.572	5246
1171.878	5201
1174.184	5162
1176.488	5241
1178.79	5294
1181.094	5300
1183.396	5217
1185.699	5210
1188.001	5171
1190.301	5172
1192.6	5151
1194.9	5153
1197.2	5193
1199.497	5155
1201.794	5218
1204.09	5134
1206.387	5258
1208.684	5201
1210.978	5307
1213.272	5281
1215.565	5259
1217.858	5266
1220.15	5213
1222.443	5260
1224.734	5224
1227.024	5224
1229.313	5251
1231.602	5334
1233.892	5200
1236.18	5386
1238.467	5316
1240.754	5413
1243.04	5281
1245.325	5401
1247.612	5392
1249.896	5373
1252.178	5546
1254.461	5378
1256.743	5422
1259.027	5344
1261.308	5391
1263.587	5430
1265.867	5426
1268.146	5427
1270.425	5353
1272.703	5479
1274.981	5454
1277.256	5377
1279.532	5412
1281.808	5343
1284.083	5323
1286.358	5384
1288.63	5365
1290.904	5329
1293.175	5426
1295.449	5362
1297.719	5276
1299.99	5336
1302.259	5286
1304.529	5367
1306.798	5242
1309.065	5334
1311.333	5325
1313.599	5419
1315.866	5413
1318.131	5382
1320.396	5414
1322.66	5353
1324.925	5328
1327.187	5351
1329.448	5366
1331.711	5450
1333.974	5482
1336.234	5276
1338.493	5387
1340.752	5379
1343.01	5359
1345.269	5371
1347.526	5379
1349.784	5351
1352.04	5343
1354.295	5355
1356.552	5375
1358.806	5275
1361.059	5442
1363.312	5290
1365.564	5427
1367.818	5367
1370.069	5413
1372.318	5404
1374.568	5404
1376.817	5353
1379.066	5487
1381.316	5476
1383.564	5412
1385.809	5476
1388.056	5495
1390.301	5527
1392.549	5574
1394.793	5586
1397.036	5601
1399.279	5656
1401.522	5570
1403.763	5664
1406.007	5669
1408.248	5537
1410.487	5560
1412.727	5671
1414.965	5515
1417.205	5563
1419.442	5589
1421.68	5525
1423.915	5548
1426.152	5633
1428.388	5556
1430.623	5597
1432.857	5583
1435.091	5581
1437.323	5683
1439.556	5657
1441.789	5729
1444.019	5679
1446.25	5681
1448.48	5583
1450.708	5639
1452.938	5624
1455.167	5629
1457.394	5682
1459.62	5653
1461.846	5687
1464.073	5582
1466.299	5627
1468.523	5702
1470.746	5514
1472.969	5579
1475.191	5472
1477.415	5519
1479.636	5487
1481.858	5499
1484.078	5480
1486.298	5512
1488.518	5392
1490.736	5538
1492.954	5458
1495.169	5482
1497.386	5432
1499.602	5451
1501.819	5512
1504.034	5355
1506.248	5371
1508.462	5367
1510.675	5250
1512.888	5404
1515.1	5409
1517.311	5360
1519.522	5307
1521.732	5465
1523.942	5447
1526.151	5453
1528.36	5413
1530.566	5391
1532.773	5440
1534.98	5395
1537.187	5526
1539.392	5355
1541.596	5525
1543.801	5417
1546.005	5408
1548.208	5502
1550.411	5386
1552.612	5533
1554.814	5479
1557.013	5502
1559.212	5537
1561.414	5445
1563.612	5515
1565.811	5465
1568.007	5512
1570.203	5556
1572.403	5502
1574.598	5494
1576.792	5463
1578.988	5473
1581.181	5509
1583.376	5531
1585.568	5518
1587.761	5535
1589.952	5629
1592.143	5675
1594.333	5535
1596.524	5594
1598.715	5639
1600.903	5554
1603.091	5641
1605.278	5583
1607.466	5580
1609.652	5560
1611.838	5655
1614.023	5692
1616.207	5559
1618.391	5584
1620.576	5581
1622.759	5581
1624.941	5561
1627.123	5589
1629.304	5621
1631.484	5673
1633.664	5596
1635.844	5660
1638.022	5584
1640.201	5706
1642.38	5604
1644.556	5629
1646.732	5624
1648.908	5586
1651.084	5599
1653.257	5605
1655.433	5601
1657.607	5650
1659.779	5629
1661.951	5681
1664.122	5660
1666.295	5657
1668.467	5640
1670.635	5679
1672.805	5616
1674.973	5632
1677.142	5705
1679.31	5663
1681.478	5529
1683.644	5641
1685.81	5605
1687.975	5647
1690.142	5640
1692.305	5745
1694.468	5642
1696.632	5562
1698.794	5553
1700.957	5601
1703.119	5695
1705.279	5638
1707.439	5547
1709.598	5561
1711.758	5564
1713.917	5644
1716.075	5504
1718.231	5612
1720.388	5571
1722.543	5623
1724.702	5560
1726.856	5437
1729.01	5532
1731.164	5595
1733.317	5607
1735.471	5481
1737.623	5517
1739.774	5692
1741.925	5587
1744.075	5563
1746.225	5648
1748.376	5483
1750.524	5556
1752.672	5573
1754.82	5582
1756.965	5681
1759.113	5553
1761.259	5610
1763.405	5581
1765.549	5649
1767.694	5552
1769.836	5552
1771.981	5540
1774.123	5619
1776.264	5608
1778.405	5506
1780.546	5677
1782.687	5651
1784.827	5532
1786.966	5750
1789.103	5544
1791.242	5648
1793.381	5583
1795.517	5592
1797.653	5619
1799.788	5676
1801.923	5621
1804.057	5670
1806.193	5656
1808.326	5676
1810.457	5525
1812.59	5537
1814.721	5658
1816.855	5574
1818.984	5733
1821.113	5638
1823.244	5531
1825.372	5633
1827.499	5659
1829.63	5662
1831.756	5621
1833.882	5713
1836.007	5619
1838.132	5486
1840.26	5642
1842.384	5569
1844.507	5585
1846.63	5575
1848.752	5543
1850.875	5567
1852.996	5676
1855.118	5488
1857.238	5484
1859.358	5643
1861.477	5627
1863.597	5555
1865.715	5474
1867.832	5531
1869.948	5555
1872.064	5522
1874.181	5705
1876.297	5551
1878.411	5516
1880.526	5602
1882.639	5593
1884.752	5599
1886.865	5544
1888.977	5596
1891.089	5486
1893.2	5572
1895.308	5610
1897.42	5580
1899.53	5508
1901.639	5635
1903.745	5656
1905.853	5591
1907.962	5696
1910.067	5577
1912.174	5741
1914.278	5710
1916.383	5653
1918.486	5619
1920.592	5686
1922.694	5628
1924.797	5626
1926.898	5602
1929	5707
1931.102	5615
1933.203	5691
1935.301	5603
1937.401	5748
1939.499	5656
1941.598	5657
1943.697	5629
1945.793	5706
1947.888	5715
1949.985	5559
1952.08	5770
1954.176	5667
1956.269	5767
1958.364	5683
1960.457	5659
1962.549	5621
1964.642	5676
1966.733	5689
1968.823	5699
1970.913	5742
1973.005	5570
1975.093	5673
1977.184	5602
1979.271	5650
1981.359	5599
1983.446	5642
1985.532	5521
1987.619	5740
1989.705	5709
1991.789	5606
1993.874	5634
1995.956	5661
1998.041	5593
2000.123	5646
2002.206	5638
2004.287	5601
2006.368	5529
2008.449	5627
2010.529	5639
2012.609	5532
2014.688	5597
2016.766	5562
2018.843	5565
2020.922	5609
2022.999	5565
2025.074	5627
2027.15	5673
2029.225	5681
2031.299	5591
2033.375	5641
2035.447	5556
2037.52	5533
2039.592	5680
2041.664	5652
2043.736	5556
2045.807	5704
2047.876	5549
2049.947	5562
2052.015	5528
2054.086	5566
2056.153	5610
2058.221	5532
2060.288	5646
2062.353	5566
2064.42	5610
2066.486	5546
2068.55	5652
2070.614	5415
2072.678	5594
2074.741	5676
2076.805	5521
2078.866	5612
2080.929	5563
2082.99	5651
2085.049	5551
2087.109	5546
2089.17	5627
2091.228	5576
2093.286	5594
2095.344	5711
2097.4	5676
2099.46	5624
2101.516	5555
2103.572	5578
2105.626	5549
2107.679	5545
2109.735	5589
2111.788	5646
2113.841	5577
2115.894	5620
2117.945	5635
2119.997	5557
2122.049	5550
2124.1	5595
2126.148	5606
2128.197	5675
2130.246	5590
2132.296	5523
2134.342	5601
2136.39	5568
2138.437	5636
2140.483	5505
2142.527	5496
2144.574	5594
2146.619	5506
2148.661	5532
2150.705	5567
2152.747	5657
2154.792	5468
2156.832	5520
2158.874	5526
2160.915	5664
2162.954	5446
2164.995	5585
2167.034	5584
2169.072	5574
2171.111	5604
2173.148	5553
2175.186	5527
2177.223	5487
2179.258	5510
2181.294	5524
2183.328	5552
2185.362	5491
2187.398	5555
2189.431	5503
2191.463	5493
2193.495	5554
2195.528	5454
2197.56	5392
2199.59	5536
2201.62	5488
2203.649	5499
2205.678	5417
2207.708	5446
2209.737	5430
2211.764	5633
2213.791	5459
2215.817	5496
2217.843	5441
2219.87	5342
2221.895	5411
2223.919	5453
2225.942	5434
2227.966	5497
2229.988	5496
2232.012	5462
2234.032	5454
2236.054	5463
2238.074	5405
2240.095	5388
2242.116	5506
2244.135	5502
2246.153	5425
2248.171	5364
2250.188	5479
2252.208	5461
2254.223	5441
2256.239	5510
2258.255	5432
2260.269	5396
2262.283	5398
2264.3	5490
2266.312	5362
2268.325	5571
2270.336	5383
2272.349	5408
2274.362	5359
2276.372	5470
2278.383	5458
2280.392	5437
2282.402	5508
2284.409	5537
2286.418	5411
2288.427	5417
2290.433	5406
2292.441	5394
2294.446	5505
2296.453	5363
2298.459	5394
2300.463	5401
2302.466	5515
2304.471	5368
2306.475	5406
2308.477	5428
2310.478	5390
2312.481	5338
2314.481	5409
2316.481	5519
2318.482	5438
2320.482	5293
2322.48	5420
2324.48	5359
2326.478	5332
2328.476	5339
2330.473	5418
2332.469	5355
2334.465	5343
2336.46	5321
2338.454	5339
2340.45	5320
2342.444	5389
2344.437	5340
2346.43	5385
2348.421	5324
2350.414	5283
2352.405	5472
2354.396	5432
2356.386	5460
2358.376	5280
2360.366	5247
2362.355	5291
2364.343	5394
2366.331	5276
2368.317	5302
2370.304	5289
2372.292	5325
2374.278	5237
2376.262	5299
2378.247	5330
2380.23	5282
2382.216	5256
2384.199	5390
2386.181	5327
2388.163	5379
2390.144	5289
2392.127	5365
2394.107	5123
2396.087	5353
2398.066	5164
2400.046	5274
2402.023	5416
2404.004	5329
2405.981	5292
2407.957	5155
2409.934	5185
2411.91	5319
2413.886	5216
2415.862	5261
2417.836	5269
2419.809	5279
2421.784	5203
2423.756	5266
2425.73	5241
2427.701	5233
2429.672	5324
2431.644	5254
2433.615	5211
2435.586	5247
2437.555	5244
2439.523	5184
2441.491	5301
2443.459	5225
2445.428	5259
2447.395	5130
2449.361	5227
2451.327	5238
2453.292	5205
2455.257	5229
2457.223	5207
2459.187	5141
2461.15	5175
2463.113	5156
2465.076	5288
2467.039	5256
2468.999	5215
2470.96	5212
2472.921	5204
2474.881	5309
2476.841	5119
2478.8	5209
2480.759	5142
2482.717	5204
2484.675	5260
2486.63	5139
2488.589	5244
2490.545	5249
2492.5	5160
2494.455	5156
2496.408	5139
2498.364	5032
2500.318	5171
2502.27	5190
2504.223	4999
2506.174	5180
2508.126	5234
2510.078	5078
2512.03	5108
2513.979	5162
2515.927	5096
2517.877	5196
2519.826	5184
2521.775	5115
2523.722	5091
2525.668	5188
2527.616	5184
2529.561	5089
2531.508	5094
2533.452	5125
2535.398	5148
2537.342	5101
2539.284	5078
2541.229	5148
2543.173	5062
2545.114	5123
2547.055	5114
2548.996	5172
2550.938	5104
2552.878	5079
2554.817	5114
2556.756	5146
2558.695	5231
2560.633	5103
2562.572	5112
2564.509	5023
2566.445	5128
2568.382	5204
2570.317	5149
2572.254	5234
2574.189	5229
2576.123	5146
2578.057	5060
2579.99	5094
2581.923	5009
2583.855	5077
2585.788	5106
2587.719	5130
2589.65	5109
2591.579	5094
2593.511	5158
2595.44	5068
2597.37	5091
2599.297	5135
2601.225	5086
2603.153	5159
2605.08	5091
2607.007	5228
2608.932	5169
2610.858	5248
2612.782	5042
2614.709	5107
2616.632	5133
2618.556	5129
2620.478	5091
2622.401	5159
2624.324	5123
2626.247	5051
2628.167	5222
2630.088	5135
2632.008	5172
2633.928	5101
2635.848	5148
2637.766	5113
2639.684	5142
2641.603	5130
2643.519	5071
2645.437	5197
2647.353	5074
2649.27	5234
2651.184	5105
2653.099	5071
2655.014	5161
2656.928	5125
2658.842	5115
2660.755	5105
2662.667	5107
2664.579	5034
2666.491	5070
2668.402	5049
2670.312	5044
2672.222	5049
2674.132	5164
2676.042	5052
2677.951	5056
2679.859	5125
2681.766	5091
2683.674	5035
2685.582	5023
2687.488	5105
2689.392	5097
2691.298	5069
2693.202	5119
2695.107	5006
2697.012	4953
2698.914	5184
2700.817	5061
2702.72	5087
2704.622	5081
2706.524	5070
2708.425	5008
2710.326	5100
2712.225	5055
2714.125	5039
2716.024	5046
2717.923	5088
2719.822	4907
2721.719	5049
2723.616	5011
2725.512	5055
2727.41	4968
2729.305	4912
2731.201	4980
2733.095	5031
2734.99	4997
2736.884	4970
2738.778	5070
2740.67	4984
2742.562	4964
2744.455	5036
2746.346	4945
2748.238	5021
2750.129	5024
2752.018	5022
2753.907	4893
2755.797	5036
2757.687	5040
2759.575	4929
2761.462	4957
2763.349	4903
2765.237	4922
2767.124	4863
2769.009	5006
2770.894	4900
2772.779	4933
2774.663	4935
2776.547	4903
2778.431	4934
2780.314	4878
2782.197	4947
2784.078	4933
2785.96	5011
2787.842	4817
2789.723	4943
2791.603	4968
2793.483	4836
2795.362	5002
2797.241	4928
2799.121	4965
2800.997	4879
2802.874	4970
2804.751	4871
2806.628	5012
2808.506	4934
2810.38	4861
2812.255	4937
2814.13	4941
2816.003	4989
2817.878	4923
2819.752	4900
2821.623	4894
2823.496	4889
2825.368	4930
2827.238	4949
2829.111	4870
2830.98	4970
2832.851	4862
2834.719	4862
2836.589	4966
2838.458	4994
2840.327	4934
2842.193	4970
2844.061	4966
2845.927	4913
2847.794	4907
2849.66	4925
2851.525	4961
2853.39	4926
2855.254	4952
2857.117	5054
2858.983	5003
2860.845	5003
2862.707	5025
2864.569	5077
2866.431	4833
2868.293	5044
2870.154	5064
2872.013	5045
2873.873	5090
2875.733	4952
2877.592	5167
2879.451	5210
2881.309	5225
2883.166	5182
2885.022	5279
2886.879	5224
2888.736	5262
2890.591	5346
2892.446	5317
2894.301	5274
2896.155	5276
2898.009	5387
2899.863	5287
2901.716	5234
2903.568	5249
2905.419	5299
2907.27	5234
2909.123	5226
2910.973	5274
2912.824	5361
2914.673	5372
2916.521	5357
2918.372	5389
2920.22	5327
2922.067	5304
2923.914	5481
2925.761	5313
2927.607	5443
2929.455	5351
2931.301	5394
2933.144	5480
2934.99	5471
2936.833	5603
2938.678	5546
2940.522	5653
2942.364	5561
2944.207	5743
2946.048	5641
2947.891	5802
2949.731	5743
2951.571	5841
2953.412	5847
2955.25	5655
2957.09	5740
2958.93	5626
2960.767	5765
2962.606	5519
2964.443	5623
2966.279	5539
2968.116	5515
2969.953	5427
2971.788	5400
2973.623	5245
2975.457	5199
2977.292	5253
2979.127	5140
2980.959	5232
2982.792	5131
2984.624	5166
2986.455	5125
2988.288	5120
2990.119	5030
2991.949	5137
2993.779	4986
2995.608	5072
2997.439	4902
2999.268	4981
3001.096	4879
3002.923	4957
3004.751	4861
3006.578	4867
3008.406	4879
3010.232	4784
3012.057	4876
3013.883	4800
3015.706	4767
3017.532	4785
3019.356	4787
3021.179	4677
3023.002	4738
3024.823	4565
3026.646	4654
3028.469	4695
3030.289	4744
3032.11	4605
3033.93	4693
3035.749	4672
3037.57	4573
3039.39	4672
3041.207	4714
3043.026	4646
3044.842	4677
3046.661	4601
3048.477	4720
3050.294	4666
3052.109	4573
3053.925	4679
3055.739	4637
3057.555	4609
3059.368	4612
3061.181	4642
3062.995	4649
3064.807	4641
3066.62	4609
3068.433	4660
3070.243	4599
3072.054	4593
3073.865	4575
3075.675	4653
3077.485	4656
3079.293	4549
3081.102	4545
3082.911	4593
3084.719	4467
3086.527	4449
3088.333	4540
3090.139	4564
3091.945	4557
3093.75	4520
3095.557	4486
3097.361	4512
3099.165	4451
3100.969	4531
3102.772	4404
3104.575	4500
3106.379	4487
3108.181	4538
3109.982	4477
3111.783	4426
3113.584	4385
3115.386	4409
3117.186	4514
3118.985	4468
3120.783	4426
3122.582	4407
3124.381	4442
3126.179	4383
3127.975	4414
3129.772	4394
3131.569	4531
3133.365	4396
3135.161	4388
3136.956	4432
3138.751	4338
3140.544	4267
3142.338	4348
3144.132	4403
3145.925	4370
3147.717	4325
3149.509	4307
3151.301	4321
3153.091	4327
3154.884	4292
3156.673	4425
3158.462	4393
3160.252	4319
3162.041	4332
3163.831	4413
3165.618	4326
3167.405	4361
3169.193	4332
3170.979	4319
3172.767	4309
3174.553	4389
3176.338	4261
3178.123	4429
3179.907	4264
3181.692	4371
3183.477	4298
3185.259	4293
3187.042	4363
3188.824	4345
3190.607	4362
3192.389	4271
3194.17	4308
3195.951	4350
3197.73	4331
3199.51	4327
3201.289	4336
3203.07	4320
3204.848	4245
3206.626	4213
3208.403	4246
3210.18	4248
3211.959	4241
3213.735	4320
3215.511	4319
3217.285	4189
3219.06	4249
3220.836	4285
3222.611	4155
3224.384	4217
3226.158	4254
3227.929	4242
3229.702	4282
3231.476	4283
3233.248	4242
3235.018	4250
3236.789	4201
3238.56	4244
3240.33	4241
3242.1	4221
3243.869	4207
3245.637	4230
3247.405	4213
3249.172	4271
3250.941	4247
3252.707	4213
3254.474	4248
3256.24	4250
3258.006	4191
3259.772	4295
3261.537	4239
3263.301	4191
3265.065	4303
3266.828	4315
3268.592	4233
3270.355	4327
3272.117	4265
3273.878	4334
3275.64	4189
3277.401	4272
3279.162	4205
3280.922	4185
3282.682	4193
3284.441	4149
3286.199	4201
3287.959	4264
3289.716	4204
3291.475	4196
3293.232	4230
3294.988	4298
3296.744	4178
3298.501	4226
3300.256	4255
3302.011	4184
3303.766	4244
3305.52	4210
3307.275	4181
3309.028	4297
3310.781	4207
3312.533	4151
3314.285	4229
3316.038	4221
3317.789	4185
3319.54	4090
3321.289	4201
3323.039	4176
3324.789	4204
3326.539	4240
3328.288	4193
3330.035	4126
3331.783	4115
3333.531	4196
3335.28	4120
3337.025	4153
3338.771	4128
3340.518	4088
3342.262	4127
3344.009	4163
3345.753	4181
3347.497	4120
3349.24	4090
3350.983	4146
3352.726	4074
3354.469	4103
3356.212	4092
3357.952	4129
3359.694	4112
3361.434	4139
3363.176	4026
3364.916	4041
3366.654	4163
3368.394	4013
3370.132	4152
3371.871	4105
3373.61	4086
3375.346	4111
3377.083	4192
3378.82	4096
3380.556	4211
3382.292	4085
3384.027	4003
3385.763	4094
3387.497	4109
3389.231	4094
3390.965	4024
3392.698	4011
3394.431	4000
3396.164	4128
3397.896	4064
3399.627	4145
3401.36	4031
3403.09	4018
3404.82	4057
3406.55	4000
3408.279	3957
3410.01	4033
3411.738	4045
3413.467	4049
3415.194	3965
3416.92	3993
3418.647	3979
3420.375	4065
3422.102	4030
3423.827	3990
3425.553	3927
3427.277	3899
3429.003	3967
3430.727	3962
3432.451	3888
3434.173	4064
3435.896	3972
3437.62	3945
3439.343	3866
3441.063	4007
3442.785	3956
3444.505	3897
3446.226	3966
3447.948	3952
3449.666	3889
3451.386	3939
3453.104	3836
3454.823	3900
3456.541	3902
3458.259	3867
3459.976	3850
3461.693	3962
3463.408	3839
3465.125	3931
3466.841	3930
3468.556	3936
3470.271	3899
3471.985	3887
3473.698	3844
3475.414	3841
3477.126	3927
3478.838	3814
3480.55	3820
3482.263	3768
3483.975	3858
3485.686	3811
3487.396	3846
3489.106	3864
3490.817	3842
3492.526	3838
3494.236	3770
3495.944	3755
3497.652	3795
3499.359	3756
3501.066	3804
3502.775	3824
3504.481	3672
3506.187	3688
3507.893	3707
3509.598	3731
3511.304	3786
3513.009	3721
3514.713	3751
3516.417	3769
3518.12	3738
3519.821	3711
3521.525	3762
3523.228	3632
3524.929	3758
3526.631	3755
3528.33	3758
3530.032	3619
3531.733	3736
3533.433	3642
3535.131	3671
3536.83	3750
3538.529	3690
3540.227	3634
3541.925	3669
3543.623	3615
3545.319	3673
3547.016	3597
3548.712	3652
3550.408	3659
3552.103	3695
3553.798	3657
3555.491	3734
3557.188	3602
3558.88	3698
3560.574	3591
3562.266	3637
3563.959	3588
3565.651	3694
3567.343	3760
3569.035	3610
3570.725	3717
3572.415	3599
3574.106	3607
3575.797	3658
3577.485	3597
3579.174	3641
3580.863	3526
3582.551	3661
3584.238	3621
3585.926	3550
3587.613	3615
3589.3	3581
3590.986	3570
3592.671	3582
3594.357	3583
3596.042	3613
3597.726	3634
3599.41	3469
3601.094	3586
3602.778	3588
3604.461	3457
3606.143	3519
3607.825	3656
3609.507	3563
3611.188	3553
3612.87	3479
3614.551	3463
3616.229	3465
3617.909	3535
3619.589	3442
3621.269	3569
3622.948	3502
3624.625	3548
3626.302	3508
3627.98	3455
3629.657	3539
3631.334	3441
3633.01	3444
3634.686	3460
3636.361	3422
3638.036	3473
3639.712	3504
3641.385	3467
3643.06	3432
3644.732	3414
3646.405	3406
3648.08	3437
3649.751	3511
3651.424	3439
3653.094	3413
3654.766	3394
3656.436	3453
3658.106	3443
3659.777	3408
3661.446	3387
3663.115	3311
3664.783	3491
3666.452	3389
3668.121	3429
3669.788	3400
3671.454	3378
3673.121	3387
3674.789	3369
3676.455	3424
3678.12	3372
3679.784	3301
3681.45	3366
3683.114	3311
3684.779	3372
3686.442	3321
3688.105	3334
3689.768	3385
3691.43	3419
3693.093	3368
3694.754	3329
3696.415	3411
3698.076	3370
3699.736	3479
3701.396	3325
3703.057	3277
3704.716	3312
3706.375	3358
3708.034	3398
3709.692	3365
3711.351	3357
3713.008	3341
3714.665	3371
3716.321	3370
3717.977	3325
3719.634	3314
3721.29	3286
3722.945	3261
3724.598	3366
3726.253	3349
3727.907	3269
3729.561	3309
3731.214	3367
3732.867	3290
3734.518	3278
3736.171	3350
3737.824	3332
3739.474	3354
3741.125	3339
3742.775	3303
3744.425	3276
3746.074	3250
3747.725	3323
3749.373	3302
3751.022	3294
3752.669	3269
3754.318	3294
3755.966	3327
3757.612	3287
3759.259	3224
3760.905	3241
3762.55	3290
3764.197	3320
3765.842	3273
3767.486	3276
3769.131	3263
3770.774	3193
3772.417	3273
3774.061	3241
3775.705	3186
3777.347	3246
3778.988	3142
3780.629	3209
3782.271	3184
3783.912	3200
3785.552	3275
3787.192	3234
3788.831	3206
3790.472	3179
3792.112	3195
3793.75	3212
3795.388	3163
3797.024	3183
3798.661	3169
3800.3	3174
3801.936	3224
3803.572	3254
3805.208	3073
3806.844	3154
3808.48	3167
3810.115	3092
3811.748	3190
3813.382	3218
3815.016	3147
3816.649	3193
3818.283	3060
3819.914	3115
3821.547	3155
3823.178	3165
3824.809	3104
3826.441	3165
3828.072	3151
3829.701	3163
3831.331	3163
3832.96	3088
3834.591	3241
3836.219	3114
3837.847	3190
3839.475	3175
3841.102	3141
3842.729	3123
3844.357	3195
3845.984	3127
3847.609	3044
3849.234	3038
3850.86	3008
3852.485	3147
3854.11	3077
3855.734	3032
3857.357	3068
3858.981	3129
3860.603	3123
3862.227	3054
3863.848	3005
3865.471	3107
3867.092	3107
3868.713	3105
3870.334	3100
3871.954	3024
3873.575	3047
3875.194	3065
3876.813	3113
3878.433	3020
3880.051	3105
3881.669	3029
3883.286	3115
3884.904	3053
3886.52	3085
3888.138	3001
3889.754	3054
3891.37	3037
3892.985	3056
3894.6	3015
3896.216	3054
3897.831	3033
3899.444	3031
3901.058	2990
3902.67	3015
3904.283	3118
3905.897	2955
3907.509	2996
3909.121	3018
3910.731	2992
3912.342	3028
3913.954	3073
3915.563	2957
3917.174	3004
3918.783	3060
3920.391	2986
3922.002	3008
3923.611	3018
3925.218	2967
3926.826	3015
3928.432	2958
3930.039	3019
3931.647	2933
3933.253	2985
3934.859	3129
3936.464	2926
3938.068	2898
3939.675	2947
3941.278	3020
3942.883	2948
3944.486	2958
3946.089	2906
3947.692	2987
3949.295	2885
3950.898	2951
3952.499	2918
3954.1	2938
3955.7	3059
3957.303	2970
3958.903	2976
3960.502	2948
3962.101	2964
3963.7	2851
3965.301	2952
3966.899	2963
3968.497	2929
3970.094	2933
3971.691	2851
3973.288	2923
3974.885	2928
3976.481	2839
3978.077	2960
3979.672	2983
3981.267	2885
3982.863	2914
3984.457	2921
3986.051	2873
3987.645	2962
3989.238	2896
3990.831	2890
3992.425	2855
3994.017	2803
3995.607	2870
3997.199	2931
3998.79	2852
4000.382	2864
4001.973	2800
4003.561	2863
4005.151	2878
4006.741	2858
4008.331	2857
4009.918	2813
4011.507	2722
4013.095	2780
4014.681	2844
4016.269	2872
4017.856	2788
4019.443	2798
4021.028	2801
4022.614	2838
4024.199	2788
4025.785	2838
4027.37	2901
4028.953	2809
4030.536	2754
4032.12	2744
4033.704	2855
4035.287	2795
4036.869	2788
4038.45	2794
4040.032	2772
4041.613	2801
4043.195	2715
4044.776	2778
4046.356	2807
4047.935	2753
4049.515	2794
4051.095	2720
4052.674	2707
4054.251	2755
4055.829	2734
4057.406	2759
4058.985	2731
4060.562	2704
4062.139	2756
4063.715	2807
4065.29	2755
4066.865	2738
4068.442	2716
4070.016	2739
4071.59	2677
4073.164	2759
4074.738	2687
4076.312	2708
4077.885	2690
4079.458	2717
4081.03	2706
4082.602	2722
4084.173	2713
4085.745	2773
4087.315	2693
4088.886	2751
4090.456	2707
4092.026	2749
4093.596	2694
4095.165	2702
4096.734	2625
4098.301	2734
4099.869	2676
4101.437	2659
4103.006	2685
4104.572	2663
4106.139	2688
4107.704	2688
4109.27	2737
4110.837	2648
4112.401	2692
4113.966	2650
4115.53	2686
4117.094	2615
4118.659	2671
4120.223	2564
4121.785	2642
4123.347	2709
4124.909	2659
4126.471	2633
4128.034	2570
4129.595	2601
4131.155	2626
4132.716	2668
4134.275	2602
4135.836	2626
4137.395	2632
4138.955	2654
4140.513	2589
4142.071	2682
4143.628	2580
4145.188	2593
4146.745	2581
4148.302	2610
4149.858	2585
4151.414	2578
4152.971	2637
4154.526	2622
4156.081	2581
4157.635	2627
4159.189	2620
4160.745	2552
4162.298	2562
4163.852	2566
4165.405	2576
4166.957	2552
4168.51	2559
4170.063	2585
4171.614	2547
4173.166	2496
4174.717	2492
4176.267	2536
4177.817	2572
4179.368	2501
4180.917	2568
4182.466	2527
4184.016	2528
4185.564	2510
4187.112	2476
4188.66	2520
4190.207	2572
4191.754	2472
4193.301	2532
4194.848	2514
4196.394	2494
4197.94	2452
4199.484	2472
4201.03	2499
4202.575	2557
4204.12	2499
4205.663	2485
4207.207	2495
4208.75	2529
4210.292	2466
4211.836	2491
4213.378	2459
4214.92	2494
4216.46	2494
4218.002	2426
4219.544	2452
4221.083	2401
4222.625	2463
4224.164	2421
4225.703	2527
4227.244	2498
4228.782	2442
4230.32	2449
4231.857	2406
4233.395	2451
4234.933	2505
4236.471	2458
4238.007	2471
4239.542	2370
4241.078	2466
4242.614	2421
4244.15	2458
4245.685	2459
4247.219	2431
4248.753	2447
4250.287	2394
4251.82	2411
4253.354	2487
4254.887	2419
4256.419	2368
4257.951	2465
4259.483	2381
4261.016	2441
4262.547	2406
4264.078	2390
4265.608	2425
4267.137	2368
4268.668	2449
4270.197	2409
4271.727	2423
4273.254	2436
4274.783	2422
4276.311	2398
4277.84	2418
4279.366	2359
4280.894	2460
4282.42	2328
4283.946	2419
4285.473	2386
4286.998	2335
4288.523	2352
4290.047	2370
4291.572	2368
4293.096	2369
4294.622	2290
4296.144	2388
4297.668	2371
4299.19	2394
4300.713	2298
4302.236	2318
4303.758	2383
4305.279	2400
4306.799	2372
4308.321	2265
4309.842	2354
4311.361	2300
4312.882	2362
4314.401	2372
