400.0961	4168
402.6185	4246
405.1424	4229
407.6635	4272
410.1838	4222
412.7035	4258
415.2225	4218
417.7388	4376
420.2585	4302
422.7754	4373
425.2917	4330
427.8072	4514
430.3221	4496
432.8363	4415
435.3498	4546
437.8626	4541
440.3727	4463
442.8841	4513
445.3969	4461
447.907	4506
450.4142	4480
452.9229	4462
455.4289	4436
457.9362	4523
460.4449	4478
462.9488	4552
465.454	4418
467.9566	4429
470.4604	4502
472.9637	4470
475.4662	4505
477.966	4488
480.4671	4447
482.9656	4484
485.4633	4519
487.9645	4512
490.4608	4461
492.9566	4546
495.4536	4441
497.948	4663
500.4437	4572
502.9387	4551
505.431	4623
507.9226	4671
510.4136	4552
512.9079	4642
515.3975	4652
517.8864	4663
520.3746	4576
522.8622	4567
525.3491	4696
527.8394	4697
530.3249	4623
532.8098	4756
535.2939	4665
537.7774	4653
540.2623	4654
542.7444	4700
545.2259	4734
547.7067	4691
550.1868	4731
552.6683	4751
555.147	4678
557.6231	4681
560.1005	4725
562.5773	4723
565.0534	4740
567.5308	4736
570.0056	4807
572.4776	4864
574.951	4765
577.4237	4809
579.8978	4683
582.3671	4934
584.8378	4871
587.3079	4821
589.7773	4829
592.244	4946
594.714	4899
597.1793	4789
599.6461	4815
602.1121	4793
604.5754	4819
607.0421	4885
609.5042	4823
611.9675	4917
614.4282	4864
616.8902	4698
619.3515	4869
621.8122	4851
624.2702	4743
626.7296	4908
629.1863	4830
631.6423	4821
634.1017	4798
636.5563	4857
639.0104	4863
641.4658	4897
643.9185	4882
646.3725	4877
648.8239	4920
651.2766	4770
653.7266	4923
656.176	4938
658.6247	4887
661.0748	4922
663.5242	4974
665.9709	4973
668.417	4956
670.8624	4996
673.3092	4946
675.7533	4935
678.1968	4994
680.6395	4909
683.0817	4922
685.5251	4984
687.9659	4950
690.4061	4960
692.8456	4992
695.2844	5028
697.7226	5118
700.1621	5117
702.599	4997
705.0332	5076
707.4688	5014
709.9036	5176
712.3399	5140
714.7735	5055
717.2044	5086
719.6367	5157
722.0683	5138
724.4993	5149
726.9296	5239
729.3593	5236
731.7883	5185
734.2147	5253
736.6423	5157
739.0714	5241
741.4958	5272
743.9216	5302
746.3447	5226
748.7691	5197
751.1929	5291
753.616	5302
756.0366	5283
758.4584	5407
760.8776	5274
763.2982	5406
765.718	5367
768.1373	5291
770.5539	5408
772.9698	5331
775.3871	5383
777.8038	5359
780.2178	5349
782.6332	5391
785.0459	5373
787.458	5470
789.8714	5404
792.2842	5235
794.6943	5390
797.1038	5445
799.5127	5319
801.9209	5422
804.3324	5472
806.7393	5346
809.1456	5331
811.5513	5375
813.9562	5544
816.3625	5460
818.7663	5455
821.1693	5413
823.5718	5470
825.9735	5439
828.3746	5425
830.7771	5499
833.177	5471
835.5762	5455
837.9747	5555
840.3727	5549
842.772	5518
845.1666	5529
847.5626	5549
849.958	5566
852.3527	5537
854.7488	5657
857.1403	5604
859.5331	5565
861.9253	5625
864.3168	5602
866.7057	5542
869.098	5568
871.4876	5647
873.8746	5524
876.263	5545
878.6487	5508
881.0378	5501
883.4243	5665
885.8081	5490
888.1933	5457
890.5759	5466
892.9598	5563
895.343	5550
897.7256	5646
900.1057	5549
902.4871	5506
904.8659	5589
907.246	5606
909.6254	5623
912.0023	5691
914.3786	5782
916.7562	5812
919.1331	5871
921.5074	5966
923.8831	5987
926.2562	5951
928.6287	5966
931.0005	5965
933.3757	5884
935.7462	5861
938.1162	5817
940.4855	5887
942.8542	5890
945.2242	5956
947.5916	5986
949.9584	6061
952.3266	6238
954.6921	6389
957.0571	6408
959.4233	6628
961.787	6745
964.15	6765
966.5125	6671
968.8742	6301
971.2354	6227
973.5959	6126
975.9559	6065
978.3151	5986
980.6738	5991
983.0338	5909
985.3912	5872
987.7461	5818
990.1022	5800
992.4578	5781
994.8127	5750
997.1689	5869
999.5207	5773
1001.874	5846
1004.226	5875
1006.576	5748
1008.929	5774
1011.28	5824
1013.628	5771
1015.977	5877
1018.324	5735
1020.674	5786
1023.019	5751
1025.366	5778
1027.713	5739
1030.056	5844
1032.399	5832
1034.746	5825
1037.087	5866
1039.431	5860
1041.771	5772
1044.113	5912
1046.454	5893
1048.793	5912
1051.133	5958
1053.471	5886
1055.807	5865
1058.146	5921
1060.483	5775
1062.818	5894
1065.153	5911
1067.489	5894
1069.822	5983
1072.156	5831
1074.488	5933
1076.82	6061
1079.15	5944
1081.48	5843
1083.814	5921
1086.143	5995
1088.471	5843
1090.799	5965
1093.126	5946
1095.452	5785
1097.78	5927
1100.105	5900
1102.43	5953
1104.754	5784
1107.077	5912
1109.4	5835
1111.722	5891
1114.044	5958
1116.365	6020
1118.685	5985
1121.005	6015
1123.324	6035
1125.643	5984
1127.961	6059
1130.278	5923
1132.595	5961
1134.911	5956
1137.226	5931
1139.541	5960
1141.854	5964
1144.167	6034
1146.482	5996
1148.793	5973
1151.105	5950
1153.414	5979
1155.725	5925
1158.033	6064
1160.344	6082
1162.651	6010
1164.959	5965
1167.265	6000
1169.572	6201
1171.878	5973
1174.184	6015
1176.488	6007
1178.79	6044
1181.094	6004
1183.396	6093
1185.699	6028
1188.001	5986
1190.301	6082
1192.6	6077
1194.9	6034
1197.2	5962
1199.497	5979
1201.794	5950
1204.09	5966
1206.387	6009
1208.684	6070
1210.978	5989
1213.272	6030
1215.565	6081
1217.858	5970
1220.15	5998
1222.443	5987
1224.734	5955
1227.024	6118
1229.313	6173
1231.602	6086
1233.892	6072
1236.18	6160
1238.467	6186
1240.754	6249
1243.04	6201
1245.325	6141
1247.612	6279
1249.896	6278
1252.178	6303
1254.461	6135
1256.743	6196
1259.027	6236
1261.308	6382
1263.587	6314
1265.867	6244
1268.146	6358
1270.425	6314
1272.703	6459
1274.981	6194
1277.256	6324
1279.532	6223
1281.808	6254
1284.083	6174
1286.358	6275
1288.63	6272
1290.904	6128
1293.175	6288
1295.449	6083
1297.719	6242
1299.99	6209
1302.259	6208
1304.529	6224
1306.798	6204
1309.065	6179
1311.333	6248
1313.599	6273
1315.866	6264
1318.131	6105
1320.396	6218
1322.66	6227
1324.925	6285
1327.187	6306
1329.448	6281
1331.711	6275
1333.974	6205
1336.234	6245
1338.493	6292
1340.752	6251
1343.01	6169
1345.269	6185
1347.526	6233
1349.784	6278
1352.04	6274
1354.295	6230
1356.552	6186
1358.806	6248
1361.059	6167
1363.312	6200
1365.564	6148
1367.818	6249
1370.069	6235
1372.318	6272
1374.568	6252
1376.817	6276
1379.066	6310
1381.316	6287
1383.564	6284
1385.809	6303
1388.056	6287
1390.301	6334
1392.549	6408
1394.793	6484
1397.036	6558
1399.279	6656
1401.522	6632
1403.763	6575
1406.007	6517
1408.248	6392
1410.487	6536
1412.727	6568
1414.965	6404
1417.205	6635
1419.442	6444
1421.68	6369
1423.915	6488
1426.152	6445
1428.388	6435
1430.623	6386
1432.857	6460
1435.091	6500
1437.323	6531
1439.556	6493
1441.789	6523
1444.019	6600
1446.25	6484
1448.48	6514
1450.708	6544
1452.938	6624
1455.167	6556
1457.394	6540
1459.62	6533
1461.846	6409
1464.073	6479
1466.299	6419
1468.523	6414
1470.746	6545
1472.969	6363
1475.191	6300
1477.415	6362
1479.636	6415
1481.858	6258
1484.078	6245
1486.298	6230
1488.518	6218
1490.736	6266
1492.954	6293
1495.169	6152
1497.386	6329
1499.602	6242
1501.819	6313
1504.034	6276
1506.248	6223
1508.462	6271
1510.675	6248
1512.888	6235
1515.1	6203
1517.311	6215
1519.522	6265
1521.732	6163
1523.942	6251
1526.151	6326
1528.36	6191
1530.566	6198
1532.773	6216
1534.98	6122
1537.187	6272
1539.392	6231
1541.596	6155
1543.801	6360
1546.005	6376
1548.208	6333
1550.411	6259
1552.612	6243
1554.814	6375
1557.013	6253
1559.212	6400
1561.414	6391
1563.612	6461
1565.811	6452
1568.007	6461
1570.203	6333
1572.403	6378
1574.598	6426
1576.792	6467
1578.988	6516
1581.181	6367
1583.376	6414
1585.568	6580
1587.761	6402
1589.952	6474
1592.143	6507
1594.333	6454
1596.524	6457
1598.715	6524
1600.903	6564
1603.091	6517
1605.278	6479
1607.466	6480
1609.652	6349
1611.838	6420
1614.023	6415
1616.207	6413
1618.391	6494
1620.576	6487
1622.759	6546
1624.941	6455
1627.123	6570
1629.304	6471
1631.484	6424
1633.664	6437
1635.844	6418
1638.022	6506
1640.201	6536
1642.38	6542
1644.556	6540
1646.732	6544
1648.908	6545
1651.084	6551
1653.257	6535
1655.433	6607
1657.607	6644
1659.779	6638
1661.951	6563
1664.122	6511
1666.295	6605
1668.467	6584
1670.635	6626
1672.805	6643
1674.973	6620
1677.142	6639
1679.31	6484
1681.478	6572
1683.644	6600
1685.81	6666
1687.975	6635
1690.142	6451
1692.305	6495
1694.468	6509
1696.632	6525
1698.794	6477
1700.957	6400
1703.119	6470
1705.279	6465
1707.439	6503
1709.598	6442
1711.758	6477
1713.917	6485
1716.075	6509
1718.231	6393
1720.388	6390
1722.543	6585
1724.702	6427
1726.856	6483
1729.01	6385
1731.164	6458
1733.317	6537
1735.471	6421
1737.623	6430
1739.774	6477
1741.925	6520
1744.075	6434
1746.225	6429
1748.376	6391
1750.524	6414
1752.672	6345
1754.82	6572
1756.965	6541
1759.113	6433
1761.259	6548
1763.405	6560
1765.549	6477
1767.694	6344
1769.836	6498
1771.981	6409
1774.123	6614
1776.264	6503
1778.405	6572
1780.546	6558
1782.687	6505
1784.827	6451
1786.966	6561
1789.103	6513
1791.242	6481
1793.381	6524
1795.517	6616
1797.653	6490
1799.788	6564
1801.923	6539
1804.057	6386
1806.193	6344
1808.326	6560
1810.457	6526
1812.59	6508
1814.721	6562
1816.855	6475
1818.984	6362
1821.113	6423
1823.244	6375
1825.372	6511
1827.499	6518
1829.63	6573
1831.756	6486
1833.882	6457
1836.007	6538
1838.132	6535
1840.26	6524
1842.384	6522
1844.507	6469
1846.63	6636
1848.752	6424
1850.875	6497
1852.996	6531
1855.118	6505
1857.238	6462
1859.358	6458
1861.477	6353
1863.597	6531
1865.715	6596
1867.832	6533
1869.948	6488
1872.064	6514
1874.181	6442
1876.297	6383
1878.411	6418
1880.526	6389
1882.639	6477
1884.752	6529
1886.865	6390
1888.977	6400
1891.089	6599
1893.2	6431
1895.308	6387
1897.42	6543
1899.53	6551
1901.639	6563
1903.745	6505
1905.853	6539
1907.962	6542
1910.067	6489
1912.174	6535
1914.278	6572
1916.383	6623
1918.486	6505
1920.592	6562
1922.694	6522
1924.797	6673
1926.898	6567
1929	6688
1931.102	6579
1933.203	6754
1935.301	6508
1937.401	6493
1939.499	6626
1941.598	6479
1943.697	6610
1945.793	6543
1947.888	6653
1949.985	6675
1952.08	6527
1954.176	6574
1956.269	6503
1958.364	6574
1960.457	6530
1962.549	6557
1964.642	6652
1966.733	6571
1968.823	6596
1970.913	6582
1973.005	6468
1975.093	6542
1977.184	6553
1979.271	6572
1981.359	6508
1983.446	6539
1985.532	6590
1987.619	6597
1989.705	6472
1991.789	6514
1993.874	6495
1995.956	6496
1998.041	6477
2000.123	6559
2002.206	6499
2004.287	6488
2006.368	6645
2008.449	6545
2010.529	6506
2012.609	6539
2014.688	6582
2016.766	6518
2018.843	6508
2020.922	6426
2022.999	6538
2025.074	6557
2027.15	6494
2029.225	6478
2031.299	6508
2033.375	6477
2035.447	6397
2037.52	6456
2039.592	6555
2041.664	6439
2043.736	6557
2045.807	6457
2047.876	6466
2049.947	6468
2052.015	6442
2054.086	6575
2056.153	6521
2058.221	6358
2060.288	6667
2062.353	6419
2064.42	6520
2066.486	6435
2068.55	6556
2070.614	6462
2072.678	6483
2074.741	6482
2076.805	6479
2078.866	6383
2080.929	6474
2082.99	6481
2085.049	6554
2087.109	6492
2089.17	6449
2091.228	6550
2093.286	6395
2095.344	6470
2097.4	6500
2099.46	6444
2101.516	6617
2103.572	6437
2105.626	6668
2107.679	6548
2109.735	6599
2111.788	6475
2113.841	6547
2115.894	6495
2117.945	6405
2119.997	6440
2122.049	6488
2124.1	6581
2126.148	6652
2128.197	6510
2130.246	6447
2132.296	6447
2134.342	6481
2136.39	6477
2138.437	6471
2140.483	6572
2142.527	6533
2144.574	6445
2146.619	6436
2148.661	6659
2150.705	6374
2152.747	6530
2154.792	6526
2156.832	6449
2158.874	6509
2160.915	6417
2162.954	6448
2164.995	6430
2167.034	6436
2169.072	6419
2171.111	6539
2173.148	6485
2175.186	6489
2177.223	6523
2179.258	6412
2181.294	6462
2183.328	6324
2185.362	6361
2187.398	6281
2189.431	6411
2191.463	6354
2193.495	6334
2195.528	6233
2197.56	6359
2199.59	6317
2201.62	6423
2203.649	6480
2205.678	6465
2207.708	6235
2209.737	6239
2211.764	6386
2213.791	6410
2215.817	6421
2217.843	6251
2219.87	6260
2221.895	6359
2223.919	6259
2225.942	6281
2227.966	6274
2229.988	6284
2232.012	6247
2234.032	6265
2236.054	6351
2238.074	6346
2240.095	6226
2242.116	6284
2244.135	6343
2246.153	6372
2248.171	6287
2250.188	6384
2252.208	6294
2254.223	6388
2256.239	6264
2258.255	6296
2260.269	6178
2262.283	6298
2264.3	6324
2266.312	6278
2268.325	6309
2270.336	6423
2272.349	6352
2274.362	6270
2276.372	6322
2278.383	6293
2280.392	6357
2282.402	6314
2284.409	6321
2286.418	6382
2288.427	6312
2290.433	6277
2292.441	6341
2294.446	6299
2296.453	6268
2298.459	6322
2300.463	6257
2302.466	6255
2304.471	6304
2306.475	6281
2308.477	6383
2310.478	6300
2312.481	6306
2314.481	6195
2316.481	6338
2318.482	6233
2320.482	6288
2322.48	6307
2324.48	6252
2326.478	6257
2328.476	6164
2330.473	6218
2332.469	6236
2334.465	6215
2336.46	6361
2338.454	6268
2340.45	6260
2342.444	6151
2344.437	6229
2346.43	6203
2348.421	6236
2350.414	6153
2352.405	6199
2354.396	6178
2356.386	6225
2358.376	6117
2360.366	6184
2362.355	6306
2364.343	6100
2366.331	6171
2368.317	6141
2370.304	6069
2372.292	6108
2374.278	6079
2376.262	6166
2378.247	6079
2380.23	6129
2382.216	6096
2384.199	6108
2386.181	6112
2388.163	6045
2390.144	6127
2392.127	6147
2394.107	6041
2396.087	6166
2398.066	6015
2400.046	6117
2402.023	5907
2404.004	6064
2405.981	6067
2407.957	6169
2409.934	6040
2411.91	6111
2413.886	5994
2415.862	6094
2417.836	6139
2419.809	6130
2421.784	5998
2423.756	6036
2425.73	6164
2427.701	6009
2429.672	6119
2431.644	6042
2433.615	6022
2435.586	6113
2437.555	6123
2439.523	6057
2441.491	6190
2443.459	6021
2445.428	6051
2447.395	6026
2449.361	6035
2451.327	6012
2453.292	6071
2455.257	6057
2457.223	6000
2459.187	6042
2461.15	6016
2463.113	5941
2465.076	5948
2467.039	5903
2468.999	5987
2470.96	5952
2472.921	6095
2474.881	5954
2476.841	6069
2478.8	6055
2480.759	5951
2482.717	5949
2484.675	5958
2486.63	6031
2488.589	5886
2490.545	5971
2492.5	6020
2494.455	5981
2496.408	6032
2498.364	6045
2500.318	6005
2502.27	6054
2504.223	5930
2506.174	5925
2508.126	6030
2510.078	5900
2512.03	5977
2513.979	5933
2515.927	5990
2517.877	6029
2519.826	5917
2521.775	5952
2523.722	5865
2525.668	5948
2527.616	5938
2529.561	5861
2531.508	5929
2533.452	5969
2535.398	5998
2537.342	5827
2539.284	5982
2541.229	5970
2543.173	5986
2545.114	5862
2547.055	5924
2548.996	5977
2550.938	5899
2552.878	5844
2554.817	5926
2556.756	5982
2558.695	6010
2560.633	5799
2562.572	5850
2564.509	5948
2566.445	5901
2568.382	5970
2570.317	5987
2572.254	5857
2574.189	6016
2576.123	5858
2578.057	5888
2579.99	6002
2581.923	5898
2583.855	5898
2585.788	5978
2587.719	5844
2589.65	5934
2591.579	5984
2593.511	6026
2595.44	5851
2597.37	5823
2599.297	5894
2601.225	5889
2603.153	5857
2605.08	5808
2607.007	5902
2608.932	5859
2610.858	5918
2612.782	5886
2614.709	6055
2616.632	5866
2618.556	5894
2620.478	5919
2622.401	5848
2624.324	5922
2626.247	5857
2628.167	5897
2630.088	5909
2632.008	6005
2633.928	5856
2635.848	5810
2637.766	5924
2639.684	5925
2641.603	5895
2643.519	5817
2645.437	5967
2647.353	5939
2649.27	5946
2651.184	5999
2653.099	5903
2655.014	5847
2656.928	5818
2658.842	5987
2660.755	5790
2662.667	5984
2664.579	5903
2666.491	5847
2668.402	5837
2670.312	5877
2672.222	5820
2674.132	5825
2676.042	5921
2677.951	5904
2679.859	5842
2681.766	5882
2683.674	5931
2685.582	5767
2687.488	5857
2689.392	5756
2691.298	5878
2693.202	5857
2695.107	5934
2697.012	5812
2698.914	5825
2700.817	5790
2702.72	5771
2704.622	5736
2706.524	5746
2708.425	5789
2710.326	5708
2712.225	5823
2714.125	5741
2716.024	5919
2717.923	5731
2719.822	5776
2721.719	5727
2723.616	5694
2725.512	5858
2727.41	5722
2729.305	5733
2731.201	5743
2733.095	5843
2734.99	5797
2736.884	5769
2738.778	5740
2740.67	5769
2742.562	5787
2744.455	5815
2746.346	5836
2748.238	5756
2750.129	5739
2752.018	5787
2753.907	5814
2755.797	5769
2757.687	5651
2759.575	5748
2761.462	5735
2763.349	5731
2765.237	5771
2767.124	5843
2769.009	5698
2770.894	5690
2772.779	5571
2774.663	5736
2776.547	5733
2778.431	5730
2780.314	5694
2782.197	5808
2784.078	5693
2785.96	5711
2787.842	5688
2789.723	5585
2791.603	5721
2793.483	5748
2795.362	5624
2797.241	5690
2799.121	5756
2800.997	5698
2802.874	5746
2804.751	5686
2806.628	5768
2808.506	5799
2810.38	5666
2812.255	5852
2814.13	5692
2816.003	5647
2817.878	5588
2819.752	5588
2821.623	5751
2823.496	5582
2825.368	5700
2827.238	5660
2829.111	5724
2830.98	5684
2832.851	5632
2834.719	5654
2836.589	5715
2838.458	5782
2840.327	5793
2842.193	5688
2844.061	5740
2845.927	5766
2847.794	5739
2849.66	5690
2851.525	5698
2853.39	5825
2855.254	5695
2857.117	5813
2858.983	5774
2860.845	5827
2862.707	5806
2864.569	5831
2866.431	5906
2868.293	5823
2870.154	5955
2872.013	6041
2873.873	5881
2875.733	6023
2877.592	6062
2879.451	5919
2881.309	6079
2883.166	6093
2885.022	6211
2886.879	6259
2888.736	6295
2890.591	6335
2892.446	6188
2894.301	6326
2896.155	6182
2898.009	6117
2899.863	6270
2901.716	6361
2903.568	6134
2905.419	6230
2907.27	6222
2909.123	6125
2910.973	6169
2912.824	6357
2914.673	6326
2916.521	6300
2918.372	6362
2920.22	6463
2922.067	6324
2923.914	6364
2925.761	6448
2927.607	6527
2929.455	6506
2931.301	6501
2933.144	6532
2934.99	6561
2936.833	6521
2938.678	6603
2940.522	6744
2942.364	6755
2944.207	6841
2946.048	7108
2947.891	6948
2949.731	6952
2951.571	6999
2953.412	7029
2955.25	6812
2957.09	6928
2958.93	6887
2960.767	6858
2962.606	6697
2964.443	6601
2966.279	6609
2968.116	6532
2969.953	6479
2971.788	6408
2973.623	6355
2975.457	6334
2977.292	6170
2979.127	6092
2980.959	6203
2982.792	6137
2984.624	6030
2986.455	6164
2988.288	6199
2990.119	5919
2991.949	5940
2993.779	6020
2995.608	5981
2997.439	5856
2999.268	5832
3001.096	5746
3002.923	5849
3004.751	5675
3006.578	5696
3008.406	5647
3010.232	5696
3012.057	5640
3013.883	5525
3015.706	5606
3017.532	5626
3019.356	5412
3021.179	5586
3023.002	5488
3024.823	5533
3026.646	5551
3028.469	5443
3030.289	5432
3032.11	5427
3033.93	5610
3035.749	5472
3037.57	5407
3039.39	5421
3041.207	5422
3043.026	5444
3044.842	5419
3046.661	5313
3048.477	5404
3050.294	5459
3052.109	5375
3053.925	5448
3055.739	5344
3057.555	5378
3059.368	5409
3061.181	5426
3062.995	5393
3064.807	5340
3066.62	5344
3068.433	5326
3070.243	5369
3072.054	5356
3073.865	5336
3075.675	5316
3077.485	5253
3079.293	5307
3081.102	5298
3082.911	5339
3084.719	5280
3086.527	5274
3088.333	5333
3090.139	5338
3091.945	5236
3093.75	5171
3095.557	5254
3097.361	5243
3099.165	5356
3100.969	5116
3102.772	5189
3104.575	5135
3106.379	5260
3108.181	5160
3109.982	5142
3111.783	5170
3113.584	5175
3115.386	5094
3117.186	5140
3118.985	5222
3120.783	5087
3122.582	5190
3124.381	5089
3126.179	5174
3127.975	5087
3129.772	5075
3131.569	5182
3133.365	5162
3135.161	5152
3136.956	5047
3138.751	5100
3140.544	5084
3142.338	5091
3144.132	5015
3145.925	5087
3147.717	5147
3149.509	5119
3151.301	4961
3153.091	5063
3154.884	5035
3156.673	5120
3158.462	5046
3160.252	5076
3162.041	5031
3163.831	5036
3165.618	5113
3167.405	5049
3169.193	5047
3170.979	4865
3172.767	5064
3174.553	5090
3176.338	4957
3178.123	5025
3179.907	4975
3181.692	4999
3183.477	4986
3185.259	5048
3187.042	4945
3188.824	4914
3190.607	5144
3192.389	5015
3194.17	5086
3195.951	4989
3197.73	5067
3199.51	4888
3201.289	4955
3203.07	4898
3204.848	5016
3206.626	4955
3208.403	4978
3210.18	5008
3211.959	5026
3213.735	4925
3215.511	5052
3217.285	4866
3219.06	4969
3220.836	4925
3222.611	4926
3224.384	4952
3226.158	4889
3227.929	4868
3229.702	4930
3231.476	4970
3233.248	4988
3235.018	4901
3236.789	4906
3238.56	4885
3240.33	4878
3242.1	5032
3243.869	5034
3245.637	4962
3247.405	4892
3249.172	4911
3250.941	4979
3252.707	4901
3254.474	4864
3256.24	4892
3258.006	4941
3259.772	4952
3261.537	5006
3263.301	4907
3265.065	4898
3266.828	4964
3268.592	5011
3270.355	4894
3272.117	4912
3273.878	5002
3275.64	4947
3277.401	4912
3279.162	4963
3280.922	4963
3282.682	4886
3284.441	4923
3286.199	4927
3287.959	4933
3289.716	4919
3291.475	4995
3293.232	4984
3294.988	4973
3296.744	4954
3298.501	4931
3300.256	4863
3302.011	4974
3303.766	4877
3305.52	4908
3307.275	4898
3309.028	4766
3310.781	4999
3312.533	4861
3314.285	4836
3316.038	4939
3317.789	4908
3319.54	4945
3321.289	4815
3323.039	4901
3324.789	4899
3326.539	4843
3328.288	4794
3330.035	4954
3331.783	4855
3333.531	4889
3335.28	4836
3337.025	4885
3338.771	4813
3340.518	4807
3342.262	4829
3344.009	4765
3345.753	4866
3347.497	4810
3349.24	4876
3350.983	4757
3352.726	4761
3354.469	4748
3356.212	4729
3357.952	4770
3359.694	4816
3361.434	4695
3363.176	4684
3364.916	4763
3366.654	4682
3368.394	4744
3370.132	4742
3371.871	4768
3373.61	4779
3375.346	4715
3377.083	4768
3378.82	4683
3380.556	4728
3382.292	4610
3384.027	4754
3385.763	4744
3387.497	4642
3389.231	4613
3390.965	4752
3392.698	4738
3394.431	4715
3396.164	4662
3397.896	4673
3399.627	4684
3401.36	4688
3403.09	4663
3404.82	4629
3406.55	4626
3408.279	4564
3410.01	4658
3411.738	4738
3413.467	4589
3415.194	4693
3416.92	4693
3418.647	4611
3420.375	4622
3422.102	4618
3423.827	4643
3425.553	4659
3427.277	4592
3429.003	4673
3430.727	4541
3432.451	4523
3434.173	4479
3435.896	4519
3437.62	4632
3439.343	4549
3441.063	4544
3442.785	4608
3444.505	4472
3446.226	4573
3447.948	4498
3449.666	4471
3451.386	4524
3453.104	4444
3454.823	4541
3456.541	4448
3458.259	4428
3459.976	4521
3461.693	4491
3463.408	4578
3465.125	4440
3466.841	4396
3468.556	4453
3470.271	4367
3471.985	4415
3473.698	4405
3475.414	4525
3477.126	4473
3478.838	4420
3480.55	4405
3482.263	4405
3483.975	4388
3485.686	4418
3487.396	4410
3489.106	4398
3490.817	4369
3492.526	4365
3494.236	4415
3495.944	4358
3497.652	4288
3499.359	4432
3501.066	4470
3502.775	4322
3504.481	4290
3506.187	4339
3507.893	4339
3509.598	4304
3511.304	4338
3513.009	4260
3514.713	4306
3516.417	4345
3518.12	4334
3519.821	4304
3521.525	4207
3523.228	4252
3524.929	4327
3526.631	4237
3528.33	4292
3530.032	4207
3531.733	4260
3533.433	4245
3535.131	4277
3536.83	4240
3538.529	4245
3540.227	4161
3541.925	4270
3543.623	4258
3545.319	4194
3547.016	4192
3548.712	4239
3550.408	4248
3552.103	4181
3553.798	4225
3555.491	4145
3557.188	4197
3558.88	4256
3560.574	4142
3562.266	4199
3563.959	4155
3565.651	4284
3567.343	4210
3569.035	4203
3570.725	4179
3572.415	4064
3574.106	4039
3575.797	4152
3577.485	4171
3579.174	4204
3580.863	4093
3582.551	4091
3584.238	4113
3585.926	4109
3587.613	4144
3589.3	4177
3590.986	4108
3592.671	4072
3594.357	4046
3596.042	4142
3597.726	4044
3599.41	4152
3601.094	4093
3602.778	4085
3604.461	4069
3606.143	4074
3607.825	4057
3609.507	4028
3611.188	3991
3612.87	4020
3614.551	3965
3616.229	3968
3617.909	4023
3619.589	3994
3621.269	4104
3622.948	3985
3624.625	4027
3626.302	3997
3627.98	4038
3629.657	3863
3631.334	4002
3633.01	4006
3634.686	3915
3636.361	3876
3638.036	3899
3639.712	3880
3641.385	3913
3643.06	3950
3644.732	3924
3646.405	3937
3648.08	3896
3649.751	3942
3651.424	3991
3653.094	3882
3654.766	3864
3656.436	3831
3658.106	3841
3659.777	3849
3661.446	3962
3663.115	3935
3664.783	3972
3666.452	3792
3668.121	3965
3669.788	3794
3671.454	3732
3673.121	3890
3674.789	3796
3676.455	3835
3678.12	3809
3679.784	3822
3681.45	3852
3683.114	3857
3684.779	3751
3686.442	3791
3688.105	3759
3689.768	3768
3691.43	3859
3693.093	3852
3694.754	3883
3696.415	3788
3698.076	3664
3699.736	3789
3701.396	3859
3703.057	3793
3704.716	3927
3706.375	3783
3708.034	3802
3709.692	3756
3711.351	3648
3713.008	3729
3714.665	3840
3716.321	3753
3717.977	3800
3719.634	3825
3721.29	3788
3722.945	3764
3724.598	3757
3726.253	3745
3727.907	3790
3729.561	3682
3731.214	3740
3732.867	3696
3734.518	3721
3736.171	3713
3737.824	3737
3739.474	3759
3741.125	3675
3742.775	3684
3744.425	3651
3746.074	3667
3747.725	3710
3749.373	3727
3751.022	3702
3752.669	3721
3754.318	3620
3755.966	3709
3757.612	3600
3759.259	3652
3760.905	3598
3762.55	3728
3764.197	3642
3765.842	3652
3767.486	3630
3769.131	3666
3770.774	3692
3772.417	3734
3774.061	3651
3775.705	3610
3777.347	3605
3778.988	3580
3780.629	3662
3782.271	3675
3783.912	3686
3785.552	3709
3787.192	3556
3788.831	3663
3790.472	3499
3792.112	3593
3793.75	3568
3795.388	3625
3797.024	3608
3798.661	3504
3800.3	3613
3801.936	3517
3803.572	3648
3805.208	3587
3806.844	3525
3808.48	3581
3810.115	3518
3811.748	3558
3813.382	3502
3815.016	3524
3816.649	3517
3818.283	3528
3819.914	3583
3821.547	3574
3823.178	3586
3824.809	3492
3826.441	3458
3828.072	3540
3829.701	3579
3831.331	3521
3832.96	3467
3834.591	3432
3836.219	3495
3837.847	3599
3839.475	3434
3841.102	3474
3842.729	3471
3844.357	3544
3845.984	3507
3847.609	3538
3849.234	3454
3850.86	3448
3852.485	3433
3854.11	3429
3855.734	3528
3857.357	3460
3858.981	3412
3860.603	3420
3862.227	3483
3863.848	3381
3865.471	3450
3867.092	3383
3868.713	3440
3870.334	3413
3871.954	3420
3873.575	3447
3875.194	3436
3876.813	3397
3878.433	3421
3880.051	3437
3881.669	3356
3883.286	3345
3884.904	3342
3886.52	3428
3888.138	3353
3889.754	3343
3891.37	3395
3892.985	3395
3894.6	3379
3896.216	3376
3897.831	3348
3899.444	3351
3901.058	3393
3902.67	3330
3904.283	3301
3905.897	3388
3907.509	3390
3909.121	3329
3910.731	3372
3912.342	3316
3913.954	3358
3915.563	3394
3917.174	3326
3918.783	3421
3920.391	3366
3922.002	3401
3923.611	3347
3925.218	3283
3926.826	3310
3928.432	3359
3930.039	3325
3931.647	3378
3933.253	3369
3934.859	3323
3936.464	3314
3938.068	3248
3939.675	3350
3941.278	3358
3942.883	3317
3944.486	3347
3946.089	3327
3947.692	3276
3949.295	3330
3950.898	3326
3952.499	3297
3954.1	3318
3955.7	3280
3957.303	3339
3958.903	3230
3960.502	3262
3962.101	3303
3963.7	3267
3965.301	3267
3966.899	3258
3968.497	3231
3970.094	3246
3971.691	3258
3973.288	3200
3974.885	3273
3976.481	3236
3978.077	3247
3979.672	3174
3981.267	3274
3982.863	3267
3984.457	3287
3986.051	3178
3987.645	3302
3989.238	3157
3990.831	3203
3992.425	3257
3994.017	3188
3995.607	3173
3997.199	3247
3998.79	3226
4000.382	3229
4001.973	3126
4003.561	3136
4005.151	3223
4006.741	3143
4008.331	3162
4009.918	3127
4011.507	3130
4013.095	3149
4014.681	3172
4016.269	3131
4017.856	3116
4019.443	3166
4021.028	3197
4022.614	3131
4024.199	3106
4025.785	3123
4027.37	3129
4028.953	3146
4030.536	3127
4032.12	3056
4033.704	3075
4035.287	3075
4036.869	3127
4038.45	2957
4040.032	3131
4041.613	3091
4043.195	3094
4044.776	3053
4046.356	3058
4047.935	3110
4049.515	3076
4051.095	3050
4052.674	3084
4054.251	2995
4055.829	3052
4057.406	2921
4058.985	3019
4060.562	3019
4062.139	3018
4063.715	3017
4065.29	3011
4066.865	2994
4068.442	2948
4070.016	2938
4071.59	3045
4073.164	3061
4074.738	3038
4076.312	3016
4077.885	2969
4079.458	2996
4081.03	2999
4082.602	3013
4084.173	2929
4085.745	3050
4087.315	2989
4088.886	3041
4090.456	2983
4092.026	3029
4093.596	2953
4095.165	2972
4096.734	2921
4098.301	2956
4099.869	2988
4101.437	3015
4103.006	2975
4104.572	2970
4106.139	2934
4107.704	2976
4109.27	2974
4110.837	2975
4112.401	2959
4113.966	2929
4115.53	2964
4117.094	2879
4118.659	2940
4120.223	2934
4121.785	2932
4123.347	2937
4124.909	2938
4126.471	2885
4128.034	2927
4129.595	2866
4131.155	2966
4132.716	2908
4134.275	2860
4135.836	2885
4137.395	2893
4138.955	2937
4140.513	2851
4142.071	2901
4143.628	2898
4145.188	2828
4146.745	2832
4148.302	2857
4149.858	2849
4151.414	2764
4152.971	2804
4154.526	2852
4156.081	2821
4157.635	2826
4159.189	2895
4160.745	2811
4162.298	2843
4163.852	2929
4165.405	2822
4166.957	2832
4168.51	2773
4170.063	2781
4171.614	2822
4173.166	2825
4174.717	2781
4176.267	2822
4177.817	2796
4179.368	2756
4180.917	2820
4182.466	2754
4184.016	2756
4185.564	2786
4187.112	2801
4188.66	2794
4190.207	2771
4191.754	2788
4193.301	2761
4194.848	2754
4196.394	2758
4197.94	2753
4199.484	2811
4201.03	2790
4202.575	2768
4204.12	2754
4205.663	2760
4207.207	2698
4208.75	2709
4210.292	2800
4211.836	2713
4213.378	2695
4214.92	2761
4216.46	2726
4218.002	2758
4219.544	2702
4221.083	2735
4222.625	2714
4224.164	2732
4225.703	2758
4227.244	2698
4228.782	2701
4230.32	2723
4231.857	2688
4233.395	2677
4234.933	2714
4236.471	2680
4238.007	2724
4239.542	2685
4241.078	2663
4242.614	2666
4244.15	2765
4245.685	2713
4247.219	2674
4248.753	2686
4250.287	2631
4251.82	2732
4253.354	2638
4254.887	2695
4256.419	2612
4257.951	2598
4259.483	2643
4261.016	2739
4262.547	2630
4264.078	2628
4265.608	2626
4267.137	2686
4268.668	2638
4270.197	2638
4271.727	2693
4273.254	2663
4274.783	2619
4276.311	2631
4277.84	2678
4279.366	2625
4280.894	2654
4282.42	2631
4283.946	2693
4285.473	2596
4286.998	2684
4288.523	2666
4290.047	2565
4291.572	2622
4293.096	2626
4294.622	2601
4296.144	2582
4297.668	2587
4299.19	2594
4300.713	2615
4302.236	2585
4303.758	2677
4305.279	2576
4306.799	2573
4308.321	2584
4309.842	2620
4311.361	2555
4312.882	2530
4314.401	2614
