400.0961	5535
402.6185	5454
405.1424	5433
407.6635	5372
410.1838	5467
412.7035	5460
415.2225	5442
417.7388	5529
420.2585	5472
422.7754	5600
425.2917	5620
427.8072	5566
430.3221	5638
432.8363	5764
435.3498	5712
437.8626	5829
440.3727	5778
442.8841	5675
445.3969	5687
447.907	5856
450.4142	5764
452.9229	5801
455.4289	5688
457.9362	5813
460.4449	5831
462.9488	5763
465.454	5674
467.9566	5802
470.4604	5802
472.9637	5743
475.4662	5794
477.966	5750
480.4671	5784
482.9656	5887
485.4633	5785
487.9645	5927
490.4608	5877
492.9566	5972
495.4536	5915
497.948	5909
500.4437	6039
502.9387	5885
505.431	6038
507.9226	5896
510.4136	5996
512.9079	5992
515.3975	5982
517.8864	5952
520.3746	5955
522.8622	6062
525.3491	6089
527.8394	6042
530.3249	6105
532.8098	5990
535.2939	5970
537.7774	5950
540.2623	6148
542.7444	6000
545.2259	6144
547.7067	6099
550.1868	6106
552.6683	6107
555.147	6108
557.6231	6031
560.1005	5908
562.5773	6179
565.0534	6119
567.5308	6020
570.0056	6159
572.4776	6135
574.951	6216
577.4237	6223
579.8978	6197
582.3671	6300
584.8378	6311
587.3079	6182
589.7773	6226
592.244	6279
594.714	6228
597.1793	6282
599.6461	6119
602.1121	6250
604.5754	6153
607.0421	6329
609.5042	6163
611.9675	6286
614.4282	6291
616.8902	6324
619.3515	6199
621.8122	6256
624.2702	6291
626.7296	6108
629.1863	6157
631.6423	6157
634.1017	6274
636.5563	6204
639.0104	6237
641.4658	6326
643.9185	6284
646.3725	6359
648.8239	6254
651.2766	6423
653.7266	6311
656.176	6407
658.6247	6292
661.0748	6471
663.5242	6389
665.9709	6305
668.417	6362
670.8624	6424
673.3092	6455
675.7533	6451
678.1968	6424
680.6395	6490
683.0817	6365
685.5251	6524
687.9659	6563
690.4061	6603
692.8456	6584
695.2844	6623
697.7226	6520
700.1621	6552
702.599	6561
705.0332	6638
707.4688	6554
709.9036	6607
712.3399	6629
714.7735	6615
717.2044	6616
719.6367	6786
722.0683	6561
724.4993	6703
726.9296	6891
729.3593	6669
731.7883	6751
734.2147	6704
736.6423	6725
739.0714	6883
741.4958	6796
743.9216	6718
746.3447	6870
748.7691	6890
751.1929	6762
753.616	6876
756.0366	6888
758.4584	6886
760.8776	6794
763.2982	6973
765.718	6829
768.1373	6995
770.5539	6911
772.9698	7012
775.3871	6983
777.8038	6985
780.2178	6959
782.6332	6976
785.0459	6954
787.458	6970
789.8714	7056
792.2842	6948
794.6943	6989
797.1038	6975
799.5127	7032
801.9209	6980
804.3324	7036
806.7393	7039
809.1456	6866
811.5513	7064
813.9562	7072
816.3625	7131
818.7663	7176
821.1693	7042
823.5718	6956
825.9735	7087
828.3746	7104
830.7771	7081
833.177	7182
835.5762	7057
837.9747	7088
840.3727	7047
842.772	7166
845.1666	7154
847.5626	7227
849.958	7274
852.3527	7262
854.7488	7316
857.1403	7323
859.5331	7348
861.9253	7206
864.3168	7281
866.7057	7146
869.098	7163
871.4876	7237
873.8746	7168
876.263	7184
878.6487	7170
881.0378	7203
883.4243	7245
885.8081	7236
888.1933	7274
890.5759	7107
892.9598	7214
895.343	7145
897.7256	7263
900.1057	7130
902.4871	7183
904.8659	7281
907.246	7151
909.6254	7372
912.0023	7322
914.3786	7548
916.7562	7679
919.1331	7695
921.5074	7765
923.8831	7874
926.2562	7780
928.6287	7696
931.0005	7687
933.3757	7769
935.7462	7720
938.1162	7713
940.4855	7768
942.8542	7722
945.2242	7712
947.5916	7748
949.9584	7733
952.3266	8026
954.6921	8040
957.0571	8225
959.4233	8380
961.787	8343
964.15	8243
966.5125	8260
968.8742	8162
971.2354	7838
973.5959	7932
975.9559	7705
978.3151	7636
980.6738	7731
983.0338	7526
985.3912	7586
987.7461	7683
990.1022	7530
992.4578	7348
994.8127	7483
997.1689	7422
999.5207	7660
1001.874	7460
1004.226	7672
1006.576	7523
1008.929	7528
1011.28	7508
1013.628	7462
1015.977	7487
1018.324	7545
1020.674	7584
1023.019	7636
1025.366	7542
1027.713	7582
1030.056	7513
1032.399	7579
1034.746	7573
1037.087	7632
1039.431	7571
1041.771	7666
1044.113	7587
1046.454	7642
1048.793	7604
1051.133	7620
1053.471	7520
1055.807	7605
1058.146	7668
1060.483	7561
1062.818	7681
1065.153	7617
1067.489	7608
1069.822	7898
1072.156	7654
1074.488	7685
1076.82	7778
1079.15	7607
1081.48	7779
1083.814	7633
1086.143	7703
1088.471	7657
1090.799	7607
1093.126	7524
1095.452	7689
1097.78	7574
1100.105	7683
1102.43	7823
1104.754	7640
1107.077	7572
1109.4	7732
1111.722	7743
1114.044	7571
1116.365	7735
1118.685	7752
1121.005	7768
1123.324	7788
1125.643	7729
1127.961	7890
1130.278	7931
1132.595	7746
1134.911	7900
1137.226	7726
1139.541	7819
1141.854	7592
1144.167	7829
1146.482	7807
1148.793	7710
1151.105	7776
1153.414	7857
1155.725	7671
1158.033	7780
1160.344	7722
1162.651	7712
1164.959	7781
1167.265	7735
1169.572	7768
1171.878	7866
1174.184	7874
1176.488	7961
1178.79	7920
1181.094	7848
1183.396	7846
1185.699	7761
1188.001	7789
1190.301	7814
1192.6	7825
1194.9	7872
1197.2	7871
1199.497	7758
1201.794	7710
1204.09	7641
1206.387	7834
1208.684	7888
1210.978	7803
1213.272	7833
1215.565	7770
1217.858	7820
1220.15	7738
1222.443	7772
1224.734	7822
1227.024	7782
1229.313	7764
1231.602	7914
1233.892	7961
1236.18	8017
1238.467	7984
1240.754	7999
1243.04	8047
1245.325	8113
1247.612	8076
1249.896	8004
1252.178	8166
1254.461	8128
1256.743	8005
1259.027	8065
1261.308	8185
1263.587	8068
1265.867	8178
1268.146	8266
1270.425	8205
1272.703	8099
1274.981	8280
1277.256	8184
1279.532	8132
1281.808	8127
1284.083	8076
1286.358	8013
1288.63	8113
1290.904	7882
1293.175	8125
1295.449	7905
1297.719	8007
1299.99	7951
1302.259	8004
1304.529	7922
1306.798	7945
1309.065	7774
1311.333	8000
1313.599	8008
1315.866	8066
1318.131	8126
1320.396	7963
1322.66	8032
1324.925	8010
1327.187	7996
1329.448	8197
1331.711	8147
1333.974	8276
1336.234	8041
1338.493	8094
1340.752	8095
1343.01	8039
1345.269	8069
1347.526	7960
1349.784	8049
1352.04	8030
1354.295	7974
1356.552	7981
1358.806	7969
1361.059	7931
1363.312	7985
1365.564	8031
1367.818	8128
1370.069	8159
1372.318	8075
1374.568	7929
1376.817	8142
1379.066	8059
1381.316	8167
1383.564	8211
1385.809	8196
1388.056	8149
1390.301	8235
1392.549	8194
1394.793	8397
1397.036	8492
1399.279	8476
1401.522	8561
1403.763	8563
1406.007	8464
1408.248	8574
1410.487	8533
1412.727	8526
1414.965	8540
1417.205	8535
1419.442	8443
1421.68	8411
1423.915	8357
1426.152	8282
1428.388	8378
1430.623	8285
1432.857	8358
1435.091	8339
1437.323	8518
1439.556	8498
1441.789	8451
1444.019	8434
1446.25	8564
1448.48	8434
1450.708	8457
1452.938	8665
1455.167	8474
1457.394	8524
1459.62	8483
1461.846	8577
1464.073	8443
1466.299	8384
1468.523	8214
1470.746	8335
1472.969	8397
1475.191	8295
1477.415	8258
1479.636	8243
1481.858	8184
1484.078	8088
1486.298	8115
1488.518	8096
1490.736	8155
1492.954	8144
1495.169	8045
1497.386	8106
1499.602	8064
1501.819	7986
1504.034	8002
1506.248	8000
1508.462	8003
1510.675	7923
1512.888	7988
1515.1	8003
1517.311	8005
1519.522	8079
1521.732	7921
1523.942	7913
1526.151	7994
1528.36	8029
1530.566	8039
1532.773	8061
1534.98	8044
1537.187	8050
1539.392	8005
1541.596	8153
1543.801	8165
1546.005	7929
1548.208	8125
1550.411	8135
1552.612	8047
1554.814	8163
1557.013	8171
1559.212	8301
1561.414	8134
1563.612	8111
1565.811	8124
1568.007	8198
1570.203	8168
1572.403	8207
1574.598	8312
1576.792	8261
1578.988	8138
1581.181	8395
1583.376	8394
1585.568	8398
1587.761	8203
1589.952	8288
1592.143	8401
1594.333	8286
1596.524	8272
1598.715	8375
1600.903	8269
1603.091	8204
1605.278	8380
1607.466	8362
1609.652	8285
1611.838	8333
1614.023	8322
1616.207	8368
1618.391	8355
1620.576	8236
1622.759	8332
1624.941	8239
1627.123	8368
1629.304	8398
1631.484	8238
1633.664	8461
1635.844	8481
1638.022	8364
1640.201	8408
1642.38	8305
1644.556	8408
1646.732	8425
1648.908	8402
1651.084	8424
1653.257	8409
1655.433	8382
1657.607	8402
1659.779	8398
1661.951	8485
1664.122	8534
1666.295	8525
1668.467	8448
1670.635	8535
1672.805	8543
1674.973	8420
1677.142	8436
1679.31	8376
1681.478	8469
1683.644	8363
1685.81	8354
1687.975	8397
1690.142	8507
1692.305	8408
1694.468	8296
1696.632	8301
1698.794	8438
1700.957	8227
1703.119	8379
1705.279	8283
1707.439	8425
1709.598	8225
1711.758	8357
1713.917	8303
1716.075	8424
1718.231	8358
1720.388	8319
1722.543	8261
1724.702	8327
1726.856	8223
1729.01	8200
1731.164	8262
1733.317	8347
1735.471	8256
1737.623	8330
1739.774	8355
1741.925	8445
1744.075	8234
1746.225	8354
1748.376	8385
1750.524	8294
1752.672	8317
1754.82	8155
1756.965	8214
1759.113	8287
1761.259	8179
1763.405	8396
1765.549	8313
1767.694	8332
1769.836	8379
1771.981	8286
1774.123	8257
1776.264	8155
1778.405	8418
1780.546	8357
1782.687	8354
1784.827	8414
1786.966	8350
1789.103	8372
1791.242	8401
1793.381	8276
1795.517	8503
1797.653	8324
1799.788	8495
1801.923	8316
1804.057	8400
1806.193	8348
1808.326	8376
1810.457	8412
1812.59	8304
1814.721	8485
1816.855	8364
1818.984	8353
1821.113	8325
1823.244	8288
1825.372	8401
1827.499	8248
1829.63	8445
1831.756	8228
1833.882	8336
1836.007	8260
1838.132	8255
1840.26	8344
1842.384	8379
1844.507	8208
1846.63	8378
1848.752	8280
1850.875	8209
1852.996	8322
1855.118	8165
1857.238	8321
1859.358	8279
1861.477	8295
1863.597	8301
1865.715	8274
1867.832	8272
1869.948	8210
1872.064	8304
1874.181	8445
1876.297	8146
1878.411	8306
1880.526	8313
1882.639	8329
1884.752	8259
1886.865	8233
1888.977	8417
1891.089	8303
1893.2	8321
1895.308	8314
1897.42	8352
1899.53	8265
1901.639	8399
1903.745	8425
1905.853	8309
1907.962	8316
1910.067	8202
1912.174	8390
1914.278	8381
1916.383	8354
1918.486	8340
1920.592	8373
1922.694	8357
1924.797	8500
1926.898	8378
1929	8438
1931.102	8449
1933.203	8336
1935.301	8434
1937.401	8482
1939.499	8537
1941.598	8478
1943.697	8467
1945.793	8421
1947.888	8370
1949.985	8448
1952.08	8466
1954.176	8488
1956.269	8377
1958.364	8427
1960.457	8385
1962.549	8444
1964.642	8343
1966.733	8406
1968.823	8428
1970.913	8289
1973.005	8425
1975.093	8435
1977.184	8435
1979.271	8450
1981.359	8254
1983.446	8314
1985.532	8280
1987.619	8358
1989.705	8248
1991.789	8274
1993.874	8208
1995.956	8406
1998.041	8316
2000.123	8362
2002.206	8329
2004.287	8293
2006.368	8200
2008.449	8279
2010.529	8389
2012.609	8228
2014.688	8274
2016.766	8458
2018.843	8264
2020.922	8367
2022.999	8326
2025.074	8139
2027.15	8194
2029.225	8295
2031.299	8354
2033.375	8359
2035.447	8349
2037.52	8225
2039.592	8249
2041.664	8291
2043.736	8343
2045.807	8346
2047.876	8265
2049.947	8316
2052.015	8402
2054.086	8216
2056.153	8291
2058.221	8292
2060.288	8422
2062.353	8361
2064.42	8198
2066.486	8253
2068.55	8323
2070.614	8287
2072.678	8362
2074.741	8253
2076.805	8330
2078.866	8326
2080.929	8248
2082.99	8254
2085.049	8245
2087.109	8369
2089.17	8369
2091.228	8171
2093.286	8272
2095.344	8307
2097.4	8424
2099.46	8212
2101.516	8317
2103.572	8409
2105.626	8315
2107.679	8324
2109.735	8333
2111.788	8278
2113.841	8198
2115.894	8295
2117.945	8279
2119.997	8295
2122.049	8160
2124.1	8292
2126.148	8308
2128.197	8263
2130.246	8319
2132.296	8278
2134.342	8407
2136.39	8113
2138.437	8263
2140.483	8306
2142.527	8237
2144.574	8255
2146.619	8224
2148.661	8291
2150.705	8225
2152.747	8316
2154.792	8177
2156.832	8197
2158.874	8294
2160.915	8232
2162.954	8120
2164.995	8321
2167.034	8102
2169.072	8221
2171.111	8310
2173.148	8133
2175.186	8200
2177.223	8193
2179.258	8237
2181.294	8177
2183.328	8122
2185.362	8212
2187.398	8022
2189.431	8057
2191.463	8007
2193.495	8116
2195.528	8137
2197.56	8131
2199.59	8215
2201.62	8067
2203.649	8125
2205.678	8105
2207.708	8099
2209.737	8074
2211.764	8108
2213.791	8031
2215.817	8007
2217.843	7902
2219.87	8039
2221.895	8084
2223.919	8087
2225.942	7991
2227.966	7929
2229.988	7950
2232.012	8129
2234.032	8037
2236.054	7999
2238.074	7952
2240.095	8109
2242.116	8074
2244.135	7948
2246.153	8027
2248.171	7905
2250.188	8042
2252.208	8083
2254.223	8040
2256.239	8010
2258.255	7951
2260.269	8004
2262.283	8101
2264.3	8152
2266.312	7903
2268.325	8163
2270.336	7880
2272.349	8084
2274.362	8044
2276.372	8095
2278.383	7988
2280.392	8045
2282.402	8002
2284.409	8009
2286.418	7821
2288.427	8044
2290.433	8016
2292.441	7889
2294.446	7894
2296.453	7970
2298.459	7919
2300.463	8016
2302.466	8051
2304.471	7941
2306.475	7975
2308.477	7958
2310.478	7941
2312.481	8057
2314.481	7917
2316.481	7987
2318.482	7955
2320.482	7990
2322.48	7855
2324.48	7951
2326.478	7973
2328.476	7912
2330.473	7858
2332.469	7967
2334.465	7924
2336.46	7917
2338.454	7907
2340.45	8022
2342.444	7808
2344.437	7793
2346.43	7760
2348.421	7883
2350.414	7793
2352.405	7941
2354.396	7864
2356.386	7716
2358.376	7785
2360.366	7832
2362.355	7763
2364.343	7875
2366.331	7809
2368.317	7747
2370.304	7752
2372.292	7891
2374.278	7779
2376.262	7764
2378.247	7804
2380.23	7901
2382.216	7874
2384.199	7718
2386.181	7749
2388.163	7857
2390.144	7745
2392.127	7884
2394.107	7722
2396.087	7644
2398.066	7856
2400.046	7810
2402.023	7713
2404.004	7779
2405.981	7567
2407.957	7711
2409.934	7721
2411.91	7666
2413.886	7498
2415.862	7796
2417.836	7598
2419.809	7597
2421.784	7723
2423.756	7768
2425.73	7686
2427.701	7641
2429.672	7714
2431.644	7593
2433.615	7780
2435.586	7665
2437.555	7648
2439.523	7702
2441.491	7738
2443.459	7720
2445.428	7639
2447.395	7621
2449.361	7802
2451.327	7530
2453.292	7713
2455.257	7741
2457.223	7635
2459.187	7612
2461.15	7507
2463.113	7665
2465.076	7662
2467.039	7542
2468.999	7716
2470.96	7695
2472.921	7500
2474.881	7488
2476.841	7528
2478.8	7565
2480.759	7479
2482.717	7488
2484.675	7682
2486.63	7601
2488.589	7592
2490.545	7651
2492.5	7540
2494.455	7458
2496.408	7555
2498.364	7468
2500.318	7573
2502.27	7509
2504.223	7534
2506.174	7519
2508.126	7548
2510.078	7589
2512.03	7595
2513.979	7426
2515.927	7469
2517.877	7629
2519.826	7600
2521.775	7423
2523.722	7548
2525.668	7450
2527.616	7500
2529.561	7484
2531.508	7404
2533.452	7462
2535.398	7482
2537.342	7509
2539.284	7459
2541.229	7501
2543.173	7474
2545.114	7489
2547.055	7440
2548.996	7528
2550.938	7301
2552.878	7515
2554.817	7584
2556.756	7473
2558.695	7378
2560.633	7496
2562.572	7475
2564.509	7518
2566.445	7508
2568.382	7507
2570.317	7530
2572.254	7449
2574.189	7441
2576.123	7453
2578.057	7476
2579.99	7472
2581.923	7491
2583.855	7423
2585.788	7449
2587.719	7463
2589.65	7480
2591.579	7449
2593.511	7489
2595.44	7474
2597.37	7488
2599.297	7683
2601.225	7535
2603.153	7519
2605.08	7322
2607.007	7457
2608.932	7373
2610.858	7597
2612.782	7495
2614.709	7475
2616.632	7371
2618.556	7328
2620.478	7463
2622.401	7516
2624.324	7430
2626.247	7442
2628.167	7474
2630.088	7362
2632.008	7453
2633.928	7568
2635.848	7509
2637.766	7502
2639.684	7531
2641.603	7439
2643.519	7530
2645.437	7590
2647.353	7449
2649.27	7332
2651.184	7459
2653.099	7490
2655.014	7511
2656.928	7433
2658.842	7420
2660.755	7477
2662.667	7401
2664.579	7618
2666.491	7515
2668.402	7353
2670.312	7399
2672.222	7391
2674.132	7349
2676.042	7496
2677.951	7480
2679.859	7444
2681.766	7425
2683.674	7370
2685.582	7381
2687.488	7386
2689.392	7361
2691.298	7345
2693.202	7386
2695.107	7364
2697.012	7325
2698.914	7387
2700.817	7408
2702.72	7376
2704.622	7410
2706.524	7349
2708.425	7335
2710.326	7482
2712.225	7364
2714.125	7308
2716.024	7426
2717.923	7203
2719.822	7283
2721.719	7368
2723.616	7345
2725.512	7276
2727.41	7302
2729.305	7227
2731.201	7230
2733.095	7297
2734.99	7258
2736.884	7297
2738.778	7322
2740.67	7275
2742.562	7142
2744.455	7290
2746.346	7221
2748.238	7234
2750.129	7308
2752.018	7290
2753.907	7105
2755.797	7229
2757.687	7187
2759.575	7268
2761.462	7181
2763.349	7375
2765.237	7325
2767.124	7249
2769.009	7349
2770.894	7100
2772.779	7205
2774.663	7242
2776.547	7243
2778.431	7169
2780.314	7265
2782.197	7218
2784.078	7254
2785.96	7160
2787.842	7145
2789.723	7132
2791.603	7278
2793.483	7249
2795.362	7114
2797.241	7196
2799.121	7182
2800.997	7201
2802.874	7252
2804.751	7060
2806.628	7219
2808.506	7204
2810.38	7079
2812.255	7152
2814.13	7107
2816.003	7191
2817.878	7294
2819.752	7135
2821.623	7310
2823.496	7203
2825.368	7160
2827.238	7220
2829.111	7129
2830.98	7157
2832.851	7123
2834.719	7231
2836.589	7143
2838.458	7197
2840.327	7210
2842.193	7156
2844.061	7191
2845.927	7233
2847.794	7250
2849.66	7231
2851.525	7348
2853.39	7363
2855.254	7349
2857.117	7419
2858.983	7365
2860.845	7230
2862.707	7332
2864.569	7391
2866.431	7446
2868.293	7494
2870.154	7501
2872.013	7527
2873.873	7643
2875.733	7756
2877.592	7564
2879.451	7730
2881.309	7811
2883.166	7777
2885.022	7934
2886.879	7993
2888.736	7957
2890.591	7996
2892.446	8161
2894.301	8083
2896.155	8056
2898.009	8163
2899.863	8013
2901.716	8065
2903.568	7998
2905.419	7909
2907.27	8038
2909.123	8003
2910.973	8159
2912.824	8183
2914.673	8089
2916.521	8070
2918.372	8123
2920.22	8353
2922.067	8238
2923.914	8481
2925.761	8304
2927.607	8238
2929.455	8459
2931.301	8285
2933.144	8465
2934.99	8407
2936.833	8335
2938.678	8561
2940.522	8484
2942.364	8825
2944.207	8838
2946.048	8954
2947.891	9093
2949.731	9195
2951.571	9200
2953.412	9394
2955.25	9167
2957.09	9036
2958.93	8990
2960.767	8932
2962.606	8975
2964.443	8929
2966.279	8862
2968.116	8687
2969.953	8490
2971.788	8325
2973.623	8026
2975.457	8284
2977.292	8050
2979.127	7876
2980.959	7865
2982.792	7736
2984.624	7645
2986.455	7758
2988.288	7745
2990.119	7670
2991.949	7511
2993.779	7583
2995.608	7442
2997.439	7477
2999.268	7409
3001.096	7428
3002.923	7306
3004.751	7139
3006.578	7249
3008.406	7160
3010.232	7208
3012.057	7109
3013.883	7027
3015.706	7021
3017.532	7030
3019.356	6975
3021.179	6969
3023.002	6974
3024.823	6930
3026.646	6919
3028.469	6837
3030.289	6959
3032.11	6792
3033.93	6839
3035.749	6871
3037.57	6891
3039.39	6876
3041.207	6927
3043.026	6715
3044.842	6781
3046.661	6722
3048.477	6844
3050.294	6638
3052.109	6838
3053.925	6836
3055.739	6835
3057.555	6816
3059.368	6712
3061.181	6846
3062.995	6667
3064.807	6752
3066.62	6712
3068.433	6784
3070.243	6701
3072.054	6690
3073.865	6734
3075.675	6701
3077.485	6676
3079.293	6818
3081.102	6667
3082.911	6722
3084.719	6614
3086.527	6741
3088.333	6575
3090.139	6709
3091.945	6664
3093.75	6698
3095.557	6497
3097.361	6639
3099.165	6578
3100.969	6653
3102.772	6477
3104.575	6523
3106.379	6644
3108.181	6515
3109.982	6495
3111.783	6443
3113.584	6567
3115.386	6472
3117.186	6470
3118.985	6471
3120.783	6528
3122.582	6362
3124.381	6497
3126.179	6474
3127.975	6460
3129.772	6315
3131.569	6586
3133.365	6377
3135.161	6325
3136.956	6483
3138.751	6355
3140.544	6457
3142.338	6244
3144.132	6386
3145.925	6442
3147.717	6420
3149.509	6484
3151.301	6341
3153.091	6313
3154.884	6481
3156.673	6377
3158.462	6379
3160.252	6310
3162.041	6286
3163.831	6384
3165.618	6289
3167.405	6357
3169.193	6295
3170.979	6239
3172.767	6341
3174.553	6330
3176.338	6357
3178.123	6241
3179.907	6353
3181.692	6347
3183.477	6341
3185.259	6249
3187.042	6302
3188.824	6327
3190.607	6192
3192.389	6290
3194.17	6366
3195.951	6217
3197.73	6187
3199.51	6241
3201.289	6296
3203.07	6374
3204.848	6227
3206.626	6313
3208.403	6284
3210.18	6173
3211.959	6180
3213.735	6335
3215.511	6148
3217.285	6120
3219.06	6165
3220.836	6258
3222.611	6169
3224.384	6132
3226.158	6262
3227.929	6231
3229.702	6340
3231.476	6121
3233.248	6175
3235.018	6224
3236.789	6242
3238.56	6291
3240.33	6247
3242.1	6250
3243.869	6200
3245.637	6214
3247.405	6151
3249.172	6172
3250.941	6243
3252.707	6242
3254.474	6382
3256.24	6249
3258.006	6150
3259.772	6264
3261.537	6203
3263.301	6239
3265.065	6195
3266.828	6113
3268.592	6227
3270.355	6299
3272.117	6194
3273.878	6145
3275.64	6158
3277.401	6140
3279.162	6180
3280.922	6202
3282.682	6173
3284.441	6296
3286.199	6253
3287.959	6156
3289.716	6168
3291.475	6155
3293.232	6141
3294.988	6265
3296.744	6066
3298.501	6133
3300.256	6083
3302.011	6152
3303.766	6202
3305.52	6189
3307.275	6164
3309.028	6118
3310.781	6113
3312.533	6077
3314.285	6100
3316.038	6092
3317.789	6206
3319.54	6108
3321.289	6084
3323.039	6136
3324.789	6256
3326.539	6096
3328.288	6035
3330.035	6099
3331.783	6058
3333.531	6164
3335.28	5974
3337.025	6090
3338.771	6021
3340.518	6054
3342.262	5995
3344.009	6039
3345.753	6077
3347.497	6007
3349.24	6085
3350.983	6068
3352.726	6022
3354.469	6006
3356.212	5854
3357.952	6073
3359.694	5999
3361.434	6008
3363.176	6083
3364.916	6048
3366.654	5909
3368.394	5913
3370.132	6081
3371.871	5981
3373.61	5975
3375.346	5938
3377.083	5950
3378.82	6021
3380.556	5944
3382.292	5975
3384.027	5849
3385.763	5840
3387.497	5827
3389.231	5830
3390.965	5937
3392.698	5927
3394.431	5945
3396.164	5862
3397.896	5758
3399.627	5848
3401.36	5765
3403.09	5860
3404.82	5850
3406.55	5871
3408.279	5727
3410.01	5806
3411.738	5840
3413.467	5788
3415.194	5774
3416.92	5686
3418.647	5836
3420.375	5659
3422.102	5750
3423.827	5690
3425.553	5717
3427.277	5822
3429.003	5785
3430.727	5677
3432.451	5703
3434.173	5841
3435.896	5659
3437.62	5743
3439.343	5767
3441.063	5668
3442.785	5675
3444.505	5565
3446.226	5700
3447.948	5672
3449.666	5639
3451.386	5668
3453.104	5589
3454.823	5604
3456.541	5578
3458.259	5688
3459.976	5573
3461.693	5603
3463.408	5545
3465.125	5465
3466.841	5535
3468.556	5526
3470.271	5541
3471.985	5595
3473.698	5460
3475.414	5615
3477.126	5459
3478.838	5402
3480.55	5466
3482.263	5514
3483.975	5496
3485.686	5471
3487.396	5386
3489.106	5424
3490.817	5420
3492.526	5525
3494.236	5441
3495.944	5330
3497.652	5423
3499.359	5382
3501.066	5431
3502.775	5470
3504.481	5446
3506.187	5357
3507.893	5383
3509.598	5306
3511.304	5288
3513.009	5269
3514.713	5467
3516.417	5214
3518.12	5360
3519.821	5308
3521.525	5251
3523.228	5362
3524.929	5243
3526.631	5309
3528.33	5273
3530.032	5304
3531.733	5227
3533.433	5379
3535.131	5245
3536.83	5261
3538.529	5215
3540.227	5311
3541.925	5370
3543.623	5179
3545.319	5207
3547.016	5154
3548.712	5199
3550.408	5247
3552.103	5249
3553.798	5189
3555.491	5127
3557.188	5244
3558.88	5323
3560.574	5129
3562.266	5254
3563.959	5177
3565.651	5194
3567.343	5153
3569.035	5194
3570.725	5160
3572.415	5226
3574.106	5136
3575.797	5099
3577.485	5129
3579.174	5134
3580.863	5117
3582.551	5063
3584.238	5066
3585.926	5066
3587.613	5171
3589.3	5057
3590.986	5040
3592.671	4989
3594.357	5045
3596.042	4977
3597.726	5089
3599.41	5019
3601.094	4956
3602.778	4901
3604.461	4927
3606.143	4899
3607.825	4923
3609.507	5045
3611.188	4911
3612.87	4803
3614.551	4993
3616.229	4858
3617.909	4794
3619.589	4905
3621.269	4960
3622.948	4933
3624.625	4941
3626.302	4771
3627.98	4860
3629.657	4873
3631.334	4810
3633.01	4888
3634.686	4746
3636.361	4765
3638.036	4808
3639.712	4911
3641.385	4823
3643.06	4780
3644.732	4777
3646.405	4891
3648.08	4838
3649.751	4838
3651.424	4811
3653.094	4764
3654.766	4831
3656.436	4862
3658.106	4827
3659.777	4685
3661.446	4776
3663.115	4780
3664.783	4802
3666.452	4710
3668.121	4805
3669.788	4672
3671.454	4744
3673.121	4663
3674.789	4704
3676.455	4667
3678.12	4799
3679.784	4742
3681.45	4675
3683.114	4729
3684.779	4653
3686.442	4652
3688.105	4671
3689.768	4768
3691.43	4780
3693.093	4618
3694.754	4600
3696.415	4749
3698.076	4678
3699.736	4700
3701.396	4629
3703.057	4679
3704.716	4549
3706.375	4629
3708.034	4643
3709.692	4545
3711.351	4669
3713.008	4606
3714.665	4614
3716.321	4635
3717.977	4567
3719.634	4574
3721.29	4618
3722.945	4650
3724.598	4583
3726.253	4723
3727.907	4431
3729.561	4544
3731.214	4545
3732.867	4614
3734.518	4701
3736.171	4566
3737.824	4554
3739.474	4545
3741.125	4586
3742.775	4550
3744.425	4599
3746.074	4529
3747.725	4552
3749.373	4524
3751.022	4564
3752.669	4539
3754.318	4489
3755.966	4500
3757.612	4476
3759.259	4511
3760.905	4449
3762.55	4530
3764.197	4495
3765.842	4539
3767.486	4456
3769.131	4528
3770.774	4356
3772.417	4442
3774.061	4393
3775.705	4466
3777.347	4479
3778.988	4356
3780.629	4517
3782.271	4484
3783.912	4376
3785.552	4477
3787.192	4424
3788.831	4438
3790.472	4463
3792.112	4452
3793.75	4399
3795.388	4318
3797.024	4383
3798.661	4386
3800.3	4345
3801.936	4438
3803.572	4386
3805.208	4370
3806.844	4377
3808.48	4309
3810.115	4354
3811.748	4292
3813.382	4417
3815.016	4311
3816.649	4362
3818.283	4375
3819.914	4352
3821.547	4190
3823.178	4341
3824.809	4243
3826.441	4241
3828.072	4327
3829.701	4320
3831.331	4296
3832.96	4255
3834.591	4297
3836.219	4256
3837.847	4341
3839.475	4163
3841.102	4245
3842.729	4180
3844.357	4314
3845.984	4265
3847.609	4277
3849.234	4206
3850.86	4321
3852.485	4300
3854.11	4207
3855.734	4268
3857.357	4169
3858.981	4243
3860.603	4260
3862.227	4238
3863.848	4182
3865.471	4105
3867.092	4238
3868.713	4329
3870.334	4141
3871.954	4198
3873.575	4216
3875.194	4242
3876.813	4202
3878.433	4071
3880.051	4222
3881.669	4212
3883.286	4155
3884.904	4145
3886.52	4115
3888.138	4139
3889.754	4131
3891.37	4159
3892.985	4137
3894.6	4183
3896.216	4193
3897.831	4184
3899.444	4153
3901.058	4083
3902.67	4153
3904.283	4151
3905.897	4245
3907.509	4023
3909.121	4146
3910.731	4150
3912.342	4088
3913.954	4131
3915.563	4108
3917.174	4103
3918.783	4059
3920.391	4092
3922.002	4148
3923.611	4106
3925.218	4098
3926.826	4081
3928.432	4087
3930.039	4069
3931.647	4047
3933.253	4051
3934.859	4096
3936.464	4029
3938.068	4060
3939.675	4082
3941.278	4007
3942.883	4050
3944.486	4089
3946.089	4030
3947.692	3968
3949.295	4015
3950.898	3977
3952.499	4044
3954.1	4058
3955.7	3981
3957.303	3997
3958.903	4021
3960.502	4036
3962.101	3991
3963.7	3965
3965.301	3930
3966.899	4009
3968.497	3907
3970.094	3990
3971.691	3931
3973.288	3986
3974.885	3919
3976.481	3941
3978.077	3912
3979.672	3995
3981.267	3898
3982.863	3968
3984.457	3888
3986.051	3869
3987.645	3917
3989.238	3860
3990.831	3824
3992.425	3821
3994.017	3844
3995.607	3860
3997.199	3974
3998.79	3928
4000.382	3929
4001.973	3928
4003.561	3883
4005.151	3858
4006.741	3807
4008.331	3800
4009.918	3702
4011.507	3777
4013.095	3899
4014.681	3891
4016.269	3803
4017.856	3802
4019.443	3785
4021.028	3796
4022.614	3788
4024.199	3823
4025.785	3839
4027.37	3787
4028.953	3729
4030.536	3808
4032.12	3715
4033.704	3781
4035.287	3760
4036.869	3759
4038.45	3753
4040.032	3719
4041.613	3745
4043.195	3766
4044.776	3775
4046.356	3705
4047.935	3710
4049.515	3813
4051.095	3798
4052.674	3691
4054.251	3686
4055.829	3633
4057.406	3722
4058.985	3688
4060.562	3679
4062.139	3729
4063.715	3752
4065.29	3581
4066.865	3661
4068.442	3657
4070.016	3704
4071.59	3684
4073.164	3635
4074.738	3678
4076.312	3682
4077.885	3658
4079.458	3612
4081.03	3713
4082.602	3620
4084.173	3691
4085.745	3629
4087.315	3609
4088.886	3633
4090.456	3677
4092.026	3626
4093.596	3661
4095.165	3657
4096.734	3631
4098.301	3618
4099.869	3591
4101.437	3654
4103.006	3589
4104.572	3687
4106.139	3591
4107.704	3549
4109.27	3597
4110.837	3623
4112.401	3595
4113.966	3587
4115.53	3540
4117.094	3532
4118.659	3614
4120.223	3538
4121.785	3536
4123.347	3571
4124.909	3545
4126.471	3492
4128.034	3539
4129.595	3442
4131.155	3539
4132.716	3496
4134.275	3553
4135.836	3543
4137.395	3534
4138.955	3550
4140.513	3481
4142.071	3465
4143.628	3511
4145.188	3485
4146.745	3445
4148.302	3459
4149.858	3487
4151.414	3456
4152.971	3528
4154.526	3526
4156.081	3488
4157.635	3413
4159.189	3417
4160.745	3524
4162.298	3399
4163.852	3379
4165.405	3463
4166.957	3443
4168.51	3397
4170.063	3446
4171.614	3350
4173.166	3349
4174.717	3355
4176.267	3475
4177.817	3450
4179.368	3400
4180.917	3397
4182.466	3417
4184.016	3436
4185.564	3387
4187.112	3382
4188.66	3350
4190.207	3356
4191.754	3345
4193.301	3381
4194.848	3332
4196.394	3341
4197.94	3333
4199.484	3295
4201.03	3394
4202.575	3332
4204.12	3300
4205.663	3233
4207.207	3360
4208.75	3384
4210.292	3282
4211.836	3334
4213.378	3328
4214.92	3255
4216.46	3207
4218.002	3392
4219.544	3339
4221.083	3277
4222.625	3345
4224.164	3255
4225.703	3276
4227.244	3274
4228.782	3287
4230.32	3241
4231.857	3290
4233.395	3233
4234.933	3280
4236.471	3185
4238.007	3293
4239.542	3271
4241.078	3270
4242.614	3306
4244.15	3257
4245.685	3162
4247.219	3237
4248.753	3217
4250.287	3196
4251.82	3201
4253.354	3231
4254.887	3201
4256.419	3206
4257.951	3163
4259.483	3120
4261.016	3246
4262.547	3162
4264.078	3137
4265.608	3150
4267.137	3109
4268.668	3169
4270.197	3191
4271.727	3185
4273.254	3194
4274.783	3125
4276.311	3244
4277.84	3194
4279.366	3193
4280.894	3198
4282.42	3184
4283.946	3177
4285.473	3189
4286.998	3119
4288.523	3163
4290.047	3179
4291.572	3123
4293.096	3120
4294.622	3162
4296.144	3083
4297.668	3151
4299.19	3124
4300.713	3105
4302.236	3175
4303.758	3065
4305.279	3041
4306.799	3104
4308.321	3158
4309.842	3067
4311.361	3115
4312.882	3086
4314.401	3062
