400.0961	5287
402.6185	5291
405.1424	5221
407.6635	5408
410.1838	5409
412.7035	5390
415.2225	5392
417.7388	5319
420.2585	5476
422.7754	5405
425.2917	5483
427.8072	5419
430.3221	5476
432.8363	5496
435.3498	5584
437.8626	5612
440.3727	5522
442.8841	5594
445.3969	5564
447.907	5602
450.4142	5505
452.9229	5498
455.4289	5632
457.9362	5511
460.4449	5598
462.9488	5625
465.454	5584
467.9566	5543
470.4604	5628
472.9637	5630
475.4662	5596
477.966	5675
480.4671	5615
482.9656	5749
485.4633	5683
487.9645	5736
490.4608	5803
492.9566	5837
495.4536	5755
497.948	5911
500.4437	5907
502.9387	5901
505.431	5831
507.9226	5868
510.4136	5929
512.9079	5909
515.3975	5884
517.8864	5790
520.3746	5955
522.8622	5871
525.3491	5905
527.8394	5907
530.3249	5962
532.8098	6013
535.2939	5863
537.7774	5982
540.2623	5972
542.7444	5876
545.2259	5902
547.7067	5988
550.1868	5904
552.6683	5892
555.147	5942
557.6231	5984
560.1005	5897
562.5773	5945
565.0534	5929
567.5308	6014
570.0056	6017
572.4776	6075
574.951	6087
577.4237	6035
579.8978	6037
582.3671	6045
584.8378	6036
587.3079	6067
589.7773	6121
592.244	6139
594.714	6028
597.1793	6159
599.6461	6193
602.1121	6142
604.5754	6131
607.0421	6101
609.5042	6111
611.9675	6222
614.4282	6074
616.8902	6169
619.3515	6183
621.8122	6233
624.2702	6224
626.7296	6123
629.1863	6150
631.6423	6160
634.1017	6161
636.5563	6076
639.0104	6109
641.4658	6111
643.9185	6130
646.3725	6297
648.8239	6312
651.2766	6311
653.7266	6232
656.176	6243
658.6247	6310
661.0748	6336
663.5242	6390
665.9709	6316
668.417	6342
670.8624	6344
673.3092	6460
675.7533	6372
678.1968	6190
680.6395	6320
683.0817	6241
685.5251	6498
687.9659	6314
690.4061	6277
692.8456	6342
695.2844	6386
697.7226	6363
700.1621	6433
702.599	6462
705.0332	6453
707.4688	6495
709.9036	6520
712.3399	6501
714.7735	6467
717.2044	6499
719.6367	6531
722.0683	6525
724.4993	6545
726.9296	6568
729.3593	6576
731.7883	6689
734.2147	6631
736.6423	6639
739.0714	6722
741.4958	6586
743.9216	6730
746.3447	6753
748.7691	6619
751.1929	6746
753.616	6811
756.0366	6799
758.4584	6710
760.8776	6734
763.2982	6833
765.718	6872
768.1373	6854
770.5539	6845
772.9698	6817
775.3871	6973
777.8038	6815
780.2178	6874
782.6332	6866
785.0459	6881
787.458	6901
789.8714	6800
792.2842	6914
794.6943	6894
797.1038	6864
799.5127	6947
801.9209	6907
804.3324	6909
806.7393	6924
809.1456	6967
811.5513	6943
813.9562	6978
816.3625	6954
818.7663	6935
821.1693	7013
823.5718	6962
825.9735	6949
828.3746	6928
830.7771	6887
833.177	6893
835.5762	6887
837.9747	7064
840.3727	6960
842.772	6987
845.1666	6963
847.5626	7071
849.958	7063
852.3527	7130
854.7488	7117
857.1403	7019
859.5331	7043
861.9253	7097
864.3168	7037
866.7057	6947
869.098	7098
871.4876	7112
873.8746	6992
876.263	7177
878.6487	7021
881.0378	7132
883.4243	6984
885.8081	7095
888.1933	7069
890.5759	7068
892.9598	7132
895.343	7124
897.7256	7073
900.1057	6958
902.4871	7094
904.8659	7223
907.246	7091
909.6254	7147
912.0023	7214
914.3786	7287
916.7562	7389
919.1331	7324
921.5074	7502
923.8831	7503
926.2562	7357
928.6287	7358
931.0005	7424
933.3757	7394
935.7462	7376
938.1162	7313
940.4855	7339
942.8542	7393
945.2242	7394
947.5916	7464
949.9584	7522
952.3266	7501
954.6921	7567
957.0571	7631
959.4233	7694
961.787	7651
964.15	7713
966.5125	7665
968.8742	7542
971.2354	7427
973.5959	7544
975.9559	7426
978.3151	7392
980.6738	7386
983.0338	7345
985.3912	7309
987.7461	7297
990.1022	7274
992.4578	7283
994.8127	7289
997.1689	7381
999.5207	7341
1001.874	7432
1004.226	7302
1006.576	7330
1008.929	7322
1011.28	7213
1013.628	7259
1015.977	7132
1018.324	7405
1020.674	7336
1023.019	7274
1025.366	7400
1027.713	7260
1030.056	7329
1032.399	7332
1034.746	7237
1037.087	7482
1039.431	7282
1041.771	7498
1044.113	7307
1046.454	7397
1048.793	7410
1051.133	7434
1053.471	7352
1055.807	7405
1058.146	7460
1060.483	7438
1062.818	7404
1065.153	7474
1067.489	7452
1069.822	7445
1072.156	7426
1074.488	7379
1076.82	7633
1079.15	7563
1081.48	7336
1083.814	7498
1086.143	7458
1088.471	7480
1090.799	7401
1093.126	7514
1095.452	7547
1097.78	7376
1100.105	7564
1102.43	7496
1104.754	7636
1107.077	7530
1109.4	7556
1111.722	7599
1114.044	7636
1116.365	7597
1118.685	7628
1121.005	7700
1123.324	7565
1125.643	7620
1127.961	7631
1130.278	7667
1132.595	7560
1134.911	7667
1137.226	7507
1139.541	7579
1141.854	7593
1144.167	7540
1146.482	7525
1148.793	7587
1151.105	7644
1153.414	7623
1155.725	7550
1158.033	7569
1160.344	7616
1162.651	7683
1164.959	7525
1167.265	7589
1169.572	7626
1171.878	7591
1174.184	7593
1176.488	7649
1178.79	7636
1181.094	7736
1183.396	7588
1185.699	7566
1188.001	7600
1190.301	7561
1192.6	7599
1194.9	7583
1197.2	7607
1199.497	7532
1201.794	7523
1204.09	7744
1206.387	7610
1208.684	7668
1210.978	7706
1213.272	7641
1215.565	7552
1217.858	7701
1220.15	7705
1222.443	7692
1224.734	7618
1227.024	7627
1229.313	7590
1231.602	7718
1233.892	7694
1236.18	7783
1238.467	7776
1240.754	7827
1243.04	7817
1245.325	7843
1247.612	7835
1249.896	7867
1252.178	7821
1254.461	7885
1256.743	7831
1259.027	7799
1261.308	7840
1263.587	7889
1265.867	7852
1268.146	7851
1270.425	7801
1272.703	7970
1274.981	7909
1277.256	7823
1279.532	7848
1281.808	7822
1284.083	7890
1286.358	7779
1288.63	7707
1290.904	7794
1293.175	7870
1295.449	7737
1297.719	7773
1299.99	7817
1302.259	7714
1304.529	7803
1306.798	7748
1309.065	7789
1311.333	7788
1313.599	7828
1315.866	7725
1318.131	7778
1320.396	7758
1322.66	7735
1324.925	7846
1327.187	7862
1329.448	7791
1331.711	7778
1333.974	7903
1336.234	7901
1338.493	7817
1340.752	7737
1343.01	7729
1345.269	7797
1347.526	7776
1349.784	7832
1352.04	7834
1354.295	7834
1356.552	7767
1358.806	7810
1361.059	7790
1363.312	7781
1365.564	7852
1367.818	7897
1370.069	7873
1372.318	7930
1374.568	7732
1376.817	7821
1379.066	7827
1381.316	7763
1383.564	7966
1385.809	7989
1388.056	7867
1390.301	7910
1392.549	7884
1394.793	8162
1397.036	8065
1399.279	8174
1401.522	8135
1403.763	8209
1406.007	8127
1408.248	8148
1410.487	8091
1412.727	8110
1414.965	8069
1417.205	8096
1419.442	7972
1421.68	8064
1423.915	8123
1426.152	8133
1428.388	8071
1430.623	8109
1432.857	8228
1435.091	8137
1437.323	8067
1439.556	8121
1441.789	8126
1444.019	8157
1446.25	8068
1448.48	8249
1450.708	8036
1452.938	8078
1455.167	8310
1457.394	8317
1459.62	8271
1461.846	8299
1464.073	8124
1466.299	8232
1468.523	8096
1470.746	8155
1472.969	8202
1475.191	7991
1477.415	7905
1479.636	7882
1481.858	7897
1484.078	7923
1486.298	7924
1488.518	7892
1490.736	7912
1492.954	7872
1495.169	7937
1497.386	7830
1499.602	7864
1501.819	7757
1504.034	7777
1506.248	7794
1508.462	7736
1510.675	7892
1512.888	7777
1515.1	7744
1517.311	7765
1519.522	7805
1521.732	7781
1523.942	7854
1526.151	7835
1528.36	7790
1530.566	7824
1532.773	7844
1534.98	7859
1537.187	7841
1539.392	7818
1541.596	7859
1543.801	7893
1546.005	7981
1548.208	7819
1550.411	7890
1552.612	7818
1554.814	7855
1557.013	7837
1559.212	8084
1561.414	7974
1563.612	8012
1565.811	7970
1568.007	7995
1570.203	7988
1572.403	7929
1574.598	8117
1576.792	8051
1578.988	8040
1581.181	8114
1583.376	8023
1585.568	8127
1587.761	8023
1589.952	7940
1592.143	8055
1594.333	8029
1596.524	8052
1598.715	8091
1600.903	8123
1603.091	8033
1605.278	8097
1607.466	8033
1609.652	8035
1611.838	8123
1614.023	8049
1616.207	8165
1618.391	8074
1620.576	8082
1622.759	7955
1624.941	8195
1627.123	7938
1629.304	8051
1631.484	8103
1633.664	7981
1635.844	8039
1638.022	8105
1640.201	8141
1642.38	8161
1644.556	8240
1646.732	8254
1648.908	8146
1651.084	8030
1653.257	8099
1655.433	8128
1657.607	8225
1659.779	8210
1661.951	8231
1664.122	8117
1666.295	8134
1668.467	8216
1670.635	8094
1672.805	8266
1674.973	8139
1677.142	8189
1679.31	8183
1681.478	8022
1683.644	8185
1685.81	8263
1687.975	8100
1690.142	8239
1692.305	8180
1694.468	8131
1696.632	8168
1698.794	8171
1700.957	8075
1703.119	8161
1705.279	8002
1707.439	8009
1709.598	8086
1711.758	8034
1713.917	8200
1716.075	8006
1718.231	8100
1720.388	8075
1722.543	7989
1724.702	8172
1726.856	8077
1729.01	8067
1731.164	8081
1733.317	8039
1735.471	8045
1737.623	8017
1739.774	8226
1741.925	8202
1744.075	7992
1746.225	8095
1748.376	7967
1750.524	7952
1752.672	8182
1754.82	8063
1756.965	8252
1759.113	8127
1761.259	8186
1763.405	8184
1765.549	8187
1767.694	8089
1769.836	8190
1771.981	8031
1774.123	8063
1776.264	8119
1778.405	8028
1780.546	8202
1782.687	8045
1784.827	8179
1786.966	8189
1789.103	8086
1791.242	8047
1793.381	8299
1795.517	8276
1797.653	8190
1799.788	8058
1801.923	8142
1804.057	8222
1806.193	8234
1808.326	8169
1810.457	8190
1812.59	8202
1814.721	8306
1816.855	7962
1818.984	8141
1821.113	8108
1823.244	8194
1825.372	8122
1827.499	8060
1829.63	8150
1831.756	8113
1833.882	8042
1836.007	8163
1838.132	8076
1840.26	7990
1842.384	8187
1844.507	8111
1846.63	8030
1848.752	8135
1850.875	8068
1852.996	8122
1855.118	8091
1857.238	8092
1859.358	7919
1861.477	8020
1863.597	8101
1865.715	7958
1867.832	8131
1869.948	8015
1872.064	7976
1874.181	7964
1876.297	8028
1878.411	8067
1880.526	8170
1882.639	8128
1884.752	8128
1886.865	8080
1888.977	8074
1891.089	7959
1893.2	8132
1895.308	8149
1897.42	8089
1899.53	8081
1901.639	8224
1903.745	8125
1905.853	8025
1907.962	8101
1910.067	8102
1912.174	8130
1914.278	7934
1916.383	8203
1918.486	8145
1920.592	8198
1922.694	8130
1924.797	8198
1926.898	8149
1929	8177
1931.102	8118
1933.203	8225
1935.301	8260
1937.401	8249
1939.499	8210
1941.598	8300
1943.697	8190
1945.793	8125
1947.888	8129
1949.985	8164
1952.08	8231
1954.176	8217
1956.269	8213
1958.364	8130
1960.457	8158
1962.549	8158
1964.642	8121
1966.733	8141
1968.823	8158
1970.913	8161
1973.005	8123
1975.093	8162
1977.184	8096
1979.271	8022
1981.359	8117
1983.446	8128
1985.532	8124
1987.619	8124
1989.705	8077
1991.789	8049
1993.874	8176
1995.956	8027
1998.041	8106
2000.123	8031
2002.206	8273
2004.287	8050
2006.368	8129
2008.449	7922
2010.529	8077
2012.609	7973
2014.688	8090
2016.766	7948
2018.843	8144
2020.922	8123
2022.999	8085
2025.074	8017
2027.15	8126
2029.225	8038
2031.299	8145
2033.375	7942
2035.447	8021
2037.52	8113
2039.592	8070
2041.664	8017
2043.736	8107
2045.807	8093
2047.876	8045
2049.947	8100
2052.015	8048
2054.086	8090
2056.153	8103
2058.221	8024
2060.288	8127
2062.353	8075
2064.42	8100
2066.486	7962
2068.55	8069
2070.614	8001
2072.678	8125
2074.741	8083
2076.805	8080
2078.866	8071
2080.929	8014
2082.99	8012
2085.049	8086
2087.109	8170
2089.17	8099
2091.228	7963
2093.286	8027
2095.344	8086
2097.4	8021
2099.46	8022
2101.516	7984
2103.572	8114
2105.626	8041
2107.679	7950
2109.735	7995
2111.788	8052
2113.841	8004
2115.894	8021
2117.945	8044
2119.997	8107
2122.049	7944
2124.1	7960
2126.148	7976
2128.197	7948
2130.246	8000
2132.296	8011
2134.342	8098
2136.39	8063
2138.437	7933
2140.483	7961
2142.527	7983
2144.574	7966
2146.619	8039
2148.661	7931
2150.705	8020
2152.747	7870
2154.792	7943
2156.832	7944
2158.874	7975
2160.915	7889
2162.954	7967
2164.995	7895
2167.034	8057
2169.072	7797
2171.111	7892
2173.148	7820
2175.186	7856
2177.223	7795
2179.258	7973
2181.294	7926
2183.328	7838
2185.362	7858
2187.398	7716
2189.431	7914
2191.463	7857
2193.495	7883
2195.528	7871
2197.56	7850
2199.59	7920
2201.62	7756
2203.649	7840
2205.678	7887
2207.708	7856
2209.737	7752
2211.764	7841
2213.791	7731
2215.817	7883
2217.843	7770
2219.87	7905
2221.895	7859
2223.919	7718
2225.942	7840
2227.966	7765
2229.988	7669
2232.012	7691
2234.032	7815
2236.054	7807
2238.074	7823
2240.095	7643
2242.116	7790
2244.135	7682
2246.153	7933
2248.171	7847
2250.188	7746
2252.208	7797
2254.223	7685
2256.239	7703
2258.255	7773
2260.269	7719
2262.283	7841
2264.3	7731
2266.312	7836
2268.325	7764
2270.336	7872
2272.349	7663
2274.362	7810
2276.372	7823
2278.383	7748
2280.392	7686
2282.402	7815
2284.409	7716
2286.418	7800
2288.427	7725
2290.433	7687
2292.441	7764
2294.446	7799
2296.453	7753
2298.459	7731
2300.463	7811
2302.466	7767
2304.471	7734
2306.475	7721
2308.477	7634
2310.478	7776
2312.481	7623
2314.481	7579
2316.481	7751
2318.482	7778
2320.482	7642
2322.48	7676
2324.48	7638
2326.478	7624
2328.476	7691
2330.473	7685
2332.469	7678
2334.465	7616
2336.46	7598
2338.454	7636
2340.45	7572
2342.444	7596
2344.437	7571
2346.43	7655
2348.421	7591
2350.414	7697
2352.405	7568
2354.396	7598
2356.386	7608
2358.376	7620
2360.366	7572
2362.355	7537
2364.343	7518
2366.331	7591
2368.317	7467
2370.304	7585
2372.292	7545
2374.278	7561
2376.262	7628
2378.247	7528
2380.23	7588
2382.216	7654
2384.199	7407
2386.181	7523
2388.163	7474
2390.144	7628
2392.127	7590
2394.107	7351
2396.087	7525
2398.066	7358
2400.046	7541
2402.023	7477
2404.004	7393
2405.981	7434
2407.957	7490
2409.934	7322
2411.91	7457
2413.886	7588
2415.862	7526
2417.836	7358
2419.809	7535
2421.784	7380
2423.756	7382
2425.73	7428
2427.701	7431
2429.672	7624
2431.644	7469
2433.615	7479
2435.586	7322
2437.555	7456
2439.523	7416
2441.491	7314
2443.459	7429
2445.428	7432
2447.395	7302
2449.361	7485
2451.327	7352
2453.292	7418
2455.257	7473
2457.223	7318
2459.187	7286
2461.15	7377
2463.113	7442
2465.076	7489
2467.039	7304
2468.999	7375
2470.96	7391
2472.921	7335
2474.881	7281
2476.841	7327
2478.8	7367
2480.759	7407
2482.717	7361
2484.675	7386
2486.63	7385
2488.589	7285
2490.545	7420
2492.5	7327
2494.455	7321
2496.408	7325
2498.364	7291
2500.318	7293
2502.27	7295
2504.223	7301
2506.174	7429
2508.126	7364
2510.078	7341
2512.03	7244
2513.979	7300
2515.927	7274
2517.877	7156
2519.826	7295
2521.775	7305
2523.722	7237
2525.668	7232
2527.616	7343
2529.561	7335
2531.508	7257
2533.452	7365
2535.398	7274
2537.342	7172
2539.284	7221
2541.229	7223
2543.173	7143
2545.114	7229
2547.055	7225
2548.996	7206
2550.938	7282
2552.878	7219
2554.817	7208
2556.756	7166
2558.695	7257
2560.633	7152
2562.572	7199
2564.509	7375
2566.445	7196
2568.382	7188
2570.317	7297
2572.254	7246
2574.189	7239
2576.123	7193
2578.057	7198
2579.99	7192
2581.923	7128
2583.855	7261
2585.788	7204
2587.719	7306
2589.65	7273
2591.579	7231
2593.511	7253
2595.44	7286
2597.37	7182
2599.297	7311
2601.225	7201
2603.153	7140
2605.08	7372
2607.007	7300
2608.932	7060
2610.858	7074
2612.782	7263
2614.709	7183
2616.632	7257
2618.556	7181
2620.478	7180
2622.401	7248
2624.324	7160
2626.247	7211
2628.167	7223
2630.088	7247
2632.008	7347
2633.928	7278
2635.848	7207
2637.766	7129
2639.684	7171
2641.603	7140
2643.519	7175
2645.437	7258
2647.353	7315
2649.27	7189
2651.184	7098
2653.099	7126
2655.014	7192
2656.928	7067
2658.842	7301
2660.755	7170
2662.667	7138
2664.579	7176
2666.491	7193
2668.402	7186
2670.312	7221
2672.222	7163
2674.132	7089
2676.042	7230
2677.951	7230
2679.859	7146
2681.766	7220
2683.674	7145
2685.582	7147
2687.488	7123
2689.392	7082
2691.298	7131
2693.202	7143
2695.107	7022
2697.012	7025
2698.914	7028
2700.817	7099
2702.72	7157
2704.622	7050
2706.524	7041
2708.425	6979
2710.326	7053
2712.225	7203
2714.125	6971
2716.024	7038
2717.923	6997
2719.822	6942
2721.719	7022
2723.616	7060
2725.512	7122
2727.41	6908
2729.305	7023
2731.201	6979
2733.095	6970
2734.99	7060
2736.884	7060
2738.778	7029
2740.67	6922
2742.562	6880
2744.455	7093
2746.346	6954
2748.238	7045
2750.129	6930
2752.018	7065
2753.907	6992
2755.797	6936
2757.687	7094
2759.575	7000
2761.462	6929
2763.349	7001
2765.237	6891
2767.124	7081
2769.009	6903
2770.894	6910
2772.779	6968
2774.663	7103
2776.547	6992
2778.431	6931
2780.314	7063
2782.197	6867
2784.078	6992
2785.96	6841
2787.842	6935
2789.723	6943
2791.603	6898
2793.483	6873
2795.362	6867
2797.241	6925
2799.121	7053
2800.997	6762
2802.874	6852
2804.751	6946
2806.628	6902
2808.506	6931
2810.38	6801
2812.255	6815
2814.13	6781
2816.003	6964
2817.878	6800
2819.752	6789
2821.623	6858
2823.496	6867
2825.368	6897
2827.238	6880
2829.111	6961
2830.98	6824
2832.851	6979
2834.719	6727
2836.589	6911
2838.458	6885
2840.327	6831
2842.193	6867
2844.061	6889
2845.927	6856
2847.794	6855
2849.66	6866
2851.525	6863
2853.39	6999
2855.254	6869
2857.117	6924
2858.983	7023
2860.845	6949
2862.707	6984
2864.569	7080
2866.431	7044
2868.293	7022
2870.154	7043
2872.013	7101
2873.873	7029
2875.733	7116
2877.592	7097
2879.451	7087
2881.309	7065
2883.166	7201
2885.022	7183
2886.879	7351
2888.736	7219
2890.591	7282
2892.446	7382
2894.301	7308
2896.155	7380
2898.009	7331
2899.863	7299
2901.716	7236
2903.568	7250
2905.419	7217
2907.27	7238
2909.123	7189
2910.973	7249
2912.824	7336
2914.673	7346
2916.521	7229
2918.372	7428
2920.22	7413
2922.067	7426
2923.914	7429
2925.761	7439
2927.607	7654
2929.455	7552
2931.301	7420
2933.144	7477
2934.99	7521
2936.833	7627
2938.678	7577
2940.522	7640
2942.364	7722
2944.207	7750
2946.048	7861
2947.891	7935
2949.731	7882
2951.571	7892
2953.412	7883
2955.25	7842
2957.09	7868
2958.93	7825
2960.767	7898
2962.606	7727
2964.443	7686
2966.279	7698
2968.116	7656
2969.953	7375
2971.788	7422
2973.623	7303
2975.457	7366
2977.292	7275
2979.127	7268
2980.959	7187
2982.792	6994
2984.624	7123
2986.455	7067
2988.288	7016
2990.119	6990
2991.949	7071
2993.779	6907
2995.608	7040
2997.439	6859
2999.268	6995
3001.096	6895
3002.923	6870
3004.751	6729
3006.578	6803
3008.406	6756
3010.232	6725
3012.057	6606
3013.883	6585
3015.706	6619
3017.532	6540
3019.356	6535
3021.179	6693
3023.002	6712
3024.823	6509
3026.646	6554
3028.469	6510
3030.289	6579
3032.11	6424
3033.93	6548
3035.749	6455
3037.57	6519
3039.39	6390
3041.207	6454
3043.026	6538
3044.842	6453
3046.661	6479
3048.477	6303
3050.294	6426
3052.109	6291
3053.925	6304
3055.739	6450
3057.555	6406
3059.368	6313
3061.181	6449
3062.995	6311
3064.807	6368
3066.62	6325
3068.433	6475
3070.243	6449
3072.054	6371
3073.865	6319
3075.675	6300
3077.485	6379
3079.293	6321
3081.102	6276
3082.911	6294
3084.719	6282
3086.527	6282
3088.333	6342
3090.139	6256
3091.945	6293
3093.75	6299
3095.557	6185
3097.361	6274
3099.165	6229
3100.969	6147
3102.772	6146
3104.575	6171
3106.379	6223
3108.181	6123
3109.982	6160
3111.783	6137
3113.584	6150
3115.386	6087
3117.186	6183
3118.985	6162
3120.783	6068
3122.582	6217
3124.381	6048
3126.179	6154
3127.975	6076
3129.772	6172
3131.569	6166
3133.365	6216
3135.161	6140
3136.956	6082
3138.751	6074
3140.544	6068
3142.338	6036
3144.132	6189
3145.925	6106
3147.717	6009
3149.509	6141
3151.301	6051
3153.091	6041
3154.884	6067
3156.673	5998
3158.462	5976
3160.252	5984
3162.041	6086
3163.831	6030
3165.618	5916
3167.405	6003
3169.193	5999
3170.979	6015
3172.767	6002
3174.553	5947
3176.338	5958
3178.123	6010
3179.907	5959
3181.692	6035
3183.477	5972
3185.259	5906
3187.042	5882
3188.824	5964
3190.607	5920
3192.389	5863
3194.17	5984
3195.951	6005
3197.73	5867
3199.51	5813
3201.289	5893
3203.07	5890
3204.848	5846
3206.626	5858
3208.403	5876
3210.18	5790
3211.959	5956
3213.735	5874
3215.511	5791
3217.285	5945
3219.06	5926
3220.836	5883
3222.611	5933
3224.384	5879
3226.158	5949
3227.929	5915
3229.702	5928
3231.476	5832
3233.248	5834
3235.018	5920
3236.789	5847
3238.56	5866
3240.33	5854
3242.1	5800
3243.869	5856
3245.637	5880
3247.405	5798
3249.172	5885
3250.941	5815
3252.707	5892
3254.474	5806
3256.24	5781
3258.006	5866
3259.772	5843
3261.537	5832
3263.301	5838
3265.065	5902
3266.828	5744
3268.592	5810
3270.355	5833
3272.117	5913
3273.878	5821
3275.64	5802
3277.401	5792
3279.162	5888
3280.922	5772
3282.682	5777
3284.441	5787
3286.199	5864
3287.959	5759
3289.716	5782
3291.475	5751
3293.232	5819
3294.988	5800
3296.744	5806
3298.501	5773
3300.256	5781
3302.011	5793
3303.766	5762
3305.52	5777
3307.275	5802
3309.028	5722
3310.781	5870
3312.533	5701
3314.285	5762
3316.038	5655
3317.789	5775
3319.54	5753
3321.289	5788
3323.039	5751
3324.789	5795
3326.539	5658
3328.288	5759
3330.035	5798
3331.783	5660
3333.531	5714
3335.28	5694
3337.025	5675
3338.771	5706
3340.518	5738
3342.262	5704
3344.009	5720
3345.753	5775
3347.497	5696
3349.24	5764
3350.983	5749
3352.726	5731
3354.469	5738
3356.212	5624
3357.952	5729
3359.694	5618
3361.434	5665
3363.176	5439
3364.916	5672
3366.654	5486
3368.394	5654
3370.132	5622
3371.871	5577
3373.61	5559
3375.346	5556
3377.083	5530
3378.82	5548
3380.556	5658
3382.292	5574
3384.027	5715
3385.763	5519
3387.497	5524
3389.231	5630
3390.965	5622
3392.698	5622
3394.431	5471
3396.164	5552
3397.896	5631
3399.627	5588
3401.36	5551
3403.09	5484
3404.82	5511
3406.55	5582
3408.279	5546
3410.01	5514
3411.738	5485
3413.467	5453
3415.194	5463
3416.92	5557
3418.647	5540
3420.375	5525
3422.102	5576
3423.827	5524
3425.553	5473
3427.277	5501
3429.003	5454
3430.727	5500
3432.451	5459
3434.173	5566
3435.896	5297
3437.62	5424
3439.343	5492
3441.063	5372
3442.785	5389
3444.505	5339
3446.226	5402
3447.948	5349
3449.666	5368
3451.386	5314
3453.104	5339
3454.823	5435
3456.541	5471
3458.259	5298
3459.976	5365
3461.693	5405
3463.408	5404
3465.125	5391
3466.841	5282
3468.556	5336
3470.271	5396
3471.985	5339
3473.698	5281
3475.414	5343
3477.126	5268
3478.838	5273
3480.55	5325
3482.263	5280
3483.975	5263
3485.686	5381
3487.396	5200
3489.106	5213
3490.817	5243
3492.526	5297
3494.236	5189
3495.944	5231
3497.652	5287
3499.359	5258
3501.066	5195
3502.775	5359
3504.481	5288
3506.187	5152
3507.893	5276
3509.598	5210
3511.304	5168
3513.009	5167
3514.713	5160
3516.417	5210
3518.12	5263
3519.821	5260
3521.525	5181
3523.228	5199
3524.929	5205
3526.631	5189
3528.33	5165
3530.032	5202
3531.733	5101
3533.433	5069
3535.131	5015
3536.83	5063
3538.529	5026
3540.227	5050
3541.925	5034
3543.623	5128
3545.319	5194
3547.016	5067
3548.712	5223
3550.408	5129
3552.103	5128
3553.798	5121
3555.491	5100
3557.188	5085
3558.88	5124
3560.574	5033
3562.266	5027
3563.959	4998
3565.651	4950
3567.343	5016
3569.035	5034
3570.725	5027
3572.415	4991
3574.106	4981
3575.797	5075
3577.485	5021
3579.174	5056
3580.863	5088
3582.551	5075
3584.238	5006
3585.926	4899
3587.613	5030
3589.3	4920
3590.986	4975
3592.671	4887
3594.357	4985
3596.042	5000
3597.726	4789
3599.41	4907
3601.094	4929
3602.778	4941
3604.461	4892
3606.143	4920
3607.825	4920
3609.507	4881
3611.188	4889
3612.87	4921
3614.551	4862
3616.229	4833
3617.909	4829
3619.589	4857
3621.269	4873
3622.948	4796
3624.625	4830
3626.302	4861
3627.98	4861
3629.657	4821
3631.334	4798
3633.01	4740
3634.686	4783
3636.361	4824
3638.036	4853
3639.712	4916
3641.385	4753
3643.06	4808
3644.732	4859
3646.405	4783
3648.08	4741
3649.751	4780
3651.424	4821
3653.094	4715
3654.766	4789
3656.436	4799
3658.106	4653
3659.777	4728
3661.446	4717
3663.115	4738
3664.783	4731
3666.452	4683
3668.121	4698
3669.788	4820
3671.454	4680
3673.121	4754
3674.789	4799
3676.455	4742
3678.12	4770
3679.784	4717
3681.45	4748
3683.114	4734
3684.779	4701
3686.442	4622
3688.105	4686
3689.768	4674
3691.43	4823
3693.093	4707
3694.754	4781
3696.415	4757
3698.076	4703
3699.736	4727
3701.396	4713
3703.057	4491
3704.716	4805
3706.375	4721
3708.034	4708
3709.692	4615
3711.351	4644
3713.008	4661
3714.665	4668
3716.321	4753
3717.977	4591
3719.634	4675
3721.29	4561
3722.945	4567
3724.598	4546
3726.253	4636
3727.907	4707
3729.561	4579
3731.214	4601
3732.867	4578
3734.518	4523
3736.171	4615
3737.824	4580
3739.474	4684
3741.125	4580
3742.775	4593
3744.425	4607
3746.074	4681
3747.725	4591
3749.373	4627
3751.022	4520
3752.669	4551
3754.318	4549
3755.966	4594
3757.612	4561
3759.259	4515
3760.905	4514
3762.55	4628
3764.197	4517
3765.842	4576
3767.486	4404
3769.131	4496
3770.774	4592
3772.417	4438
3774.061	4447
3775.705	4476
3777.347	4541
3778.988	4473
3780.629	4502
3782.271	4517
3783.912	4503
3785.552	4450
3787.192	4551
3788.831	4468
3790.472	4417
3792.112	4521
3793.75	4429
3795.388	4478
3797.024	4434
3798.661	4513
3800.3	4427
3801.936	4494
3803.572	4384
3805.208	4336
3806.844	4466
3808.48	4385
3810.115	4382
3811.748	4482
3813.382	4486
3815.016	4401
3816.649	4427
3818.283	4435
3819.914	4322
3821.547	4391
3823.178	4498
3824.809	4410
3826.441	4498
3828.072	4404
3829.701	4346
3831.331	4398
3832.96	4386
3834.591	4264
3836.219	4436
3837.847	4345
3839.475	4340
3841.102	4423
3842.729	4456
3844.357	4386
3845.984	4350
3847.609	4332
3849.234	4320
3850.86	4366
3852.485	4292
3854.11	4374
3855.734	4378
3857.357	4278
3858.981	4369
3860.603	4393
3862.227	4391
3863.848	4322
3865.471	4322
3867.092	4259
3868.713	4313
3870.334	4288
3871.954	4284
3873.575	4287
3875.194	4294
3876.813	4328
3878.433	4171
3880.051	4267
3881.669	4258
3883.286	4336
3884.904	4294
3886.52	4301
3888.138	4311
3889.754	4217
3891.37	4268
3892.985	4362
3894.6	4197
3896.216	4324
3897.831	4306
3899.444	4217
3901.058	4343
3902.67	4225
3904.283	4235
3905.897	4215
3907.509	4181
3909.121	4276
3910.731	4278
3912.342	4281
3913.954	4216
3915.563	4274
3917.174	4275
3918.783	4304
3920.391	4233
3922.002	4326
3923.611	4297
3925.218	4160
3926.826	4245
3928.432	4212
3930.039	4277
3931.647	4184
3933.253	4240
3934.859	4222
3936.464	4221
3938.068	4196
3939.675	4181
3941.278	4244
3942.883	4259
3944.486	4165
3946.089	4166
3947.692	4142
3949.295	4192
3950.898	4131
3952.499	4184
3954.1	4188
3955.7	4184
3957.303	4159
3958.903	4147
3960.502	4211
3962.101	4159
3963.7	4065
3965.301	4157
3966.899	4147
3968.497	4214
3970.094	4084
3971.691	4162
3973.288	4122
3974.885	4122
3976.481	4080
3978.077	4271
3979.672	4075
3981.267	4121
3982.863	4065
3984.457	4145
3986.051	4166
3987.645	4180
3989.238	4049
3990.831	4059
3992.425	4000
3994.017	4099
3995.607	4063
3997.199	4041
3998.79	4137
4000.382	4047
4001.973	4080
4003.561	4051
4005.151	4011
4006.741	4061
4008.331	4078
4009.918	3988
4011.507	4088
4013.095	3984
4014.681	4077
4016.269	3998
4017.856	4000
4019.443	4117
4021.028	4000
4022.614	4013
4024.199	4024
4025.785	3986
4027.37	4004
4028.953	4055
4030.536	3975
4032.12	3936
4033.704	3983
4035.287	3953
4036.869	3918
4038.45	4035
4040.032	3842
4041.613	3844
4043.195	3948
4044.776	3919
4046.356	3996
4047.935	3966
4049.515	4005
4051.095	3899
4052.674	3866
4054.251	3982
4055.829	3911
4057.406	3932
4058.985	3833
4060.562	3900
4062.139	3918
4063.715	3923
4065.29	3972
4066.865	3915
4068.442	3879
4070.016	3961
4071.59	3911
4073.164	3852
4074.738	3928
4076.312	3960
4077.885	3881
4079.458	3785
4081.03	3923
4082.602	3775
4084.173	3920
4085.745	3892
4087.315	3860
4088.886	3933
4090.456	3781
4092.026	3798
4093.596	3898
4095.165	3840
4096.734	3806
4098.301	3804
4099.869	3770
4101.437	3815
4103.006	3900
4104.572	3812
4106.139	3816
4107.704	3893
4109.27	3800
4110.837	3853
4112.401	3863
4113.966	3788
4115.53	3887
4117.094	3809
4118.659	3804
4120.223	3814
4121.785	3844
4123.347	3785
4124.909	3707
4126.471	3749
4128.034	3793
4129.595	3765
4131.155	3747
4132.716	3825
4134.275	3771
4135.836	3781
4137.395	3734
4138.955	3774
4140.513	3684
4142.071	3747
4143.628	3795
4145.188	3762
4146.745	3729
4148.302	3777
4149.858	3779
4151.414	3662
4152.971	3730
4154.526	3655
4156.081	3752
4157.635	3648
4159.189	3701
4160.745	3711
4162.298	3728
4163.852	3683
4165.405	3629
4166.957	3644
4168.51	3637
4170.063	3615
4171.614	3615
4173.166	3675
4174.717	3620
4176.267	3634
4177.817	3667
4179.368	3704
4180.917	3682
4182.466	3643
4184.016	3688
4185.564	3696
4187.112	3624
4188.66	3637
4190.207	3637
4191.754	3687
4193.301	3664
4194.848	3610
4196.394	3667
4197.94	3588
4199.484	3627
4201.03	3558
4202.575	3570
4204.12	3623
4205.663	3646
4207.207	3633
4208.75	3614
4210.292	3598
4211.836	3591
4213.378	3588
4214.92	3598
4216.46	3622
4218.002	3685
4219.544	3578
4221.083	3586
4222.625	3582
4224.164	3643
4225.703	3571
4227.244	3579
4228.782	3553
4230.32	3565
4231.857	3516
4233.395	3549
4234.933	3642
4236.471	3669
4238.007	3619
4239.542	3609
4241.078	3591
4242.614	3482
4244.15	3612
4245.685	3513
4247.219	3567
4248.753	3500
4250.287	3559
4251.82	3578
4253.354	3486
4254.887	3554
4256.419	3478
4257.951	3457
4259.483	3512
4261.016	3553
4262.547	3596
4264.078	3555
4265.608	3540
4267.137	3509
4268.668	3526
4270.197	3556
4271.727	3547
4273.254	3457
4274.783	3503
4276.311	3478
4277.84	3486
4279.366	3428
4280.894	3555
4282.42	3480
4283.946	3488
4285.473	3572
4286.998	3526
4288.523	3623
4290.047	3463
4291.572	3470
4293.096	3485
4294.622	3457
4296.144	3339
4297.668	3447
4299.19	3489
4300.713	3471
4302.236	3486
4303.758	3471
4305.279	3415
4306.799	3496
4308.321	3387
4309.842	3467
4311.361	3454
4312.882	3315
4314.401	3525
