400.0961	4577
402.6185	4696
405.1424	4700
407.6635	4672
410.1838	4681
412.7035	4727
415.2225	4711
417.7388	4776
420.2585	4895
422.7754	4803
425.2917	4987
427.8072	4890
430.3221	5011
432.8363	5032
435.3498	5111
437.8626	5040
440.3727	5026
442.8841	5018
445.3969	4926
447.907	4963
450.4142	4999
452.9229	4987
455.4289	4939
457.9362	4986
460.4449	4958
462.9488	4835
465.454	4898
467.9566	4993
470.4604	4949
472.9637	4917
475.4662	4984
477.966	4968
480.4671	5008
482.9656	4956
485.4633	4997
487.9645	4974
490.4608	5017
492.9566	4997
495.4536	5037
497.948	4934
500.4437	4992
502.9387	5062
505.431	5006
507.9226	4999
510.4136	5133
512.9079	5068
515.3975	5015
517.8864	5037
520.3746	5093
522.8622	5071
525.3491	5187
527.8394	5042
530.3249	5125
532.8098	5192
535.2939	5095
537.7774	5149
540.2623	5166
542.7444	5090
545.2259	5134
547.7067	5159
550.1868	5202
552.6683	5196
555.147	5097
557.6231	5137
560.1005	5122
562.5773	5191
565.0534	5136
567.5308	5262
570.0056	5275
572.4776	5237
574.951	5197
577.4237	5324
579.8978	5449
582.3671	5362
584.8378	5365
587.3079	5523
589.7773	5407
592.244	5446
594.714	5389
597.1793	5315
599.6461	5332
602.1121	5326
604.5754	5186
607.0421	5359
609.5042	5288
611.9675	5411
614.4282	5330
616.8902	5316
619.3515	5319
621.8122	5358
624.2702	5322
626.7296	5298
629.1863	5352
631.6423	5250
634.1017	5252
636.5563	5274
639.0104	5248
641.4658	5291
643.9185	5346
646.3725	5294
648.8239	5310
651.2766	5260
653.7266	5378
656.176	5269
658.6247	5327
661.0748	5396
663.5242	5265
665.9709	5432
668.417	5389
670.8624	5480
673.3092	5287
675.7533	5473
678.1968	5469
680.6395	5402
683.0817	5498
685.5251	5453
687.9659	5433
690.4061	5477
692.8456	5519
695.2844	5609
697.7226	5453
700.1621	5544
702.599	5453
705.0332	5547
707.4688	5473
709.9036	5459
712.3399	5592
714.7735	5552
717.2044	5555
719.6367	5697
722.0683	5570
724.4993	5585
726.9296	5667
729.3593	5638
731.7883	5638
734.2147	5726
736.6423	5711
739.0714	5655
741.4958	5767
743.9216	5750
746.3447	5717
748.7691	5838
751.1929	5860
753.616	5870
756.0366	5809
758.4584	5848
760.8776	5859
763.2982	5901
765.718	5899
768.1373	5915
770.5539	5826
772.9698	5865
775.3871	5826
777.8038	5903
780.2178	5918
782.6332	5940
785.0459	5922
787.458	5906
789.8714	5791
792.2842	5909
794.6943	5995
797.1038	5872
799.5127	5877
801.9209	5966
804.3324	5896
806.7393	5841
809.1456	5980
811.5513	5896
813.9562	6005
816.3625	5945
818.7663	6029
821.1693	6014
823.5718	6107
825.9735	5981
828.3746	5978
830.7771	5834
833.177	6056
835.5762	6032
837.9747	5966
840.3727	6002
842.772	6131
845.1666	6052
847.5626	6175
849.958	6153
852.3527	6251
854.7488	6346
857.1403	6204
859.5331	6230
861.9253	6194
864.3168	6069
866.7057	6044
869.098	6205
871.4876	6063
873.8746	6085
876.263	6200
878.6487	6108
881.0378	6261
883.4243	6164
885.8081	6076
888.1933	6079
890.5759	6187
892.9598	6143
895.343	6073
897.7256	6090
900.1057	6208
902.4871	5992
904.8659	6120
907.246	5981
909.6254	6209
912.0023	6170
914.3786	6311
916.7562	6323
919.1331	6421
921.5074	6539
923.8831	6466
926.2562	6549
928.6287	6569
931.0005	6517
933.3757	6476
935.7462	6646
938.1162	6479
940.4855	6660
942.8542	6719
945.2242	6841
947.5916	7031
949.9584	7193
952.3266	7315
954.6921	7580
957.0571	7984
959.4233	8483
961.787	8562
964.15	8569
966.5125	8290
968.8742	7936
971.2354	7410
973.5959	7090
975.9559	6996
978.3151	6688
980.6738	6681
983.0338	6503
985.3912	6361
987.7461	6500
990.1022	6402
992.4578	6325
994.8127	6466
997.1689	6311
999.5207	6350
1001.874	6434
1004.226	6451
1006.576	6400
1008.929	6442
1011.28	6470
1013.628	6459
1015.977	6429
1018.324	6451
1020.674	6376
1023.019	6451
1025.366	6429
1027.713	6496
1030.056	6408
1032.399	6570
1034.746	6468
1037.087	6462
1039.431	6644
1041.771	6555
1044.113	6551
1046.454	6462
1048.793	6467
1051.133	6605
1053.471	6477
1055.807	6587
1058.146	6597
1060.483	6517
1062.818	6617
1065.153	6674
1067.489	6639
1069.822	6722
1072.156	6808
1074.488	6632
1076.82	6633
1079.15	6641
1081.48	6705
1083.814	6619
1086.143	6601
1088.471	6651
1090.799	6563
1093.126	6526
1095.452	6698
1097.78	6615
1100.105	6514
1102.43	6549
1104.754	6540
1107.077	6472
1109.4	6532
1111.722	6416
1114.044	6443
1116.365	6494
1118.685	6585
1121.005	6550
1123.324	6558
1125.643	6590
1127.961	6576
1130.278	6553
1132.595	6452
1134.911	6514
1137.226	6506
1139.541	6471
1141.854	6442
1144.167	6432
1146.482	6545
1148.793	6469
1151.105	6602
1153.414	6422
1155.725	6527
1158.033	6595
1160.344	6582
1162.651	6501
1164.959	6521
1167.265	6551
1169.572	6549
1171.878	6513
1174.184	6550
1176.488	6595
1178.79	6472
1181.094	6788
1183.396	6546
1185.699	6632
1188.001	6476
1190.301	6485
1192.6	6623
1194.9	6671
1197.2	6556
1199.497	6518
1201.794	6552
1204.09	6636
1206.387	6540
1208.684	6624
1210.978	6591
1213.272	6622
1215.565	6567
1217.858	6678
1220.15	6562
1222.443	6511
1224.734	6578
1227.024	6646
1229.313	6654
1231.602	6721
1233.892	6762
1236.18	6913
1238.467	6856
1240.754	6929
1243.04	6797
1245.325	6965
1247.612	6943
1249.896	7017
1252.178	6940
1254.461	6866
1256.743	6947
1259.027	6954
1261.308	6925
1263.587	6922
1265.867	6902
1268.146	6893
1270.425	6833
1272.703	6828
1274.981	6985
1277.256	6908
1279.532	6935
1281.808	6800
1284.083	6884
1286.358	6787
1288.63	6818
1290.904	6754
1293.175	6820
1295.449	6624
1297.719	6879
1299.99	6836
1302.259	6811
1304.529	6773
1306.798	6891
1309.065	6755
1311.333	6852
1313.599	6719
1315.866	6883
1318.131	6880
1320.396	6837
1322.66	6846
1324.925	6740
1327.187	6730
1329.448	6720
1331.711	6924
1333.974	6895
1336.234	6750
1338.493	6790
1340.752	6753
1343.01	6887
1345.269	6801
1347.526	6715
1349.784	6894
1352.04	6667
1354.295	6703
1356.552	6734
1358.806	6655
1361.059	6837
1363.312	6704
1365.564	6763
1367.818	6847
1370.069	6757
1372.318	6830
1374.568	6820
1376.817	6790
1379.066	6799
1381.316	6855
1383.564	6758
1385.809	6824
1388.056	6879
1390.301	7087
1392.549	6919
1394.793	7026
1397.036	6995
1399.279	6988
1401.522	7122
1403.763	7142
1406.007	7125
1408.248	7075
1410.487	6932
1412.727	7080
1414.965	7050
1417.205	7074
1419.442	6953
1421.68	7078
1423.915	7119
1426.152	6958
1428.388	7011
1430.623	7066
1432.857	7076
1435.091	7073
1437.323	7208
1439.556	7090
1441.789	7209
1444.019	6983
1446.25	7095
1448.48	7072
1450.708	7133
1452.938	7299
1455.167	7242
1457.394	7301
1459.62	7218
1461.846	7254
1464.073	7292
1466.299	7259
1468.523	7156
1470.746	6901
1472.969	7070
1475.191	7111
1477.415	7025
1479.636	6999
1481.858	6867
1484.078	6910
1486.298	6925
1488.518	6843
1490.736	6865
1492.954	6916
1495.169	6741
1497.386	6820
1499.602	6747
1501.819	6859
1504.034	6709
1506.248	6705
1508.462	6683
1510.675	6696
1512.888	6840
1515.1	6754
1517.311	6724
1519.522	6730
1521.732	6627
1523.942	6727
1526.151	6711
1528.36	6731
1530.566	6640
1532.773	6778
1534.98	6838
1537.187	6681
1539.392	6740
1541.596	6770
1543.801	6756
1546.005	6797
1548.208	6818
1550.411	6868
1552.612	6861
1554.814	6877
1557.013	6912
1559.212	6877
1561.414	6714
1563.612	6915
1565.811	6820
1568.007	6886
1570.203	6952
1572.403	6948
1574.598	6870
1576.792	6886
1578.988	6928
1581.181	6900
1583.376	6908
1585.568	6968
1587.761	6852
1589.952	6960
1592.143	7034
1594.333	7024
1596.524	7092
1598.715	6936
1600.903	7083
1603.091	6917
1605.278	7056
1607.466	6825
1609.652	7118
1611.838	7038
1614.023	7063
1616.207	7058
1618.391	6989
1620.576	7085
1622.759	7076
1624.941	7112
1627.123	6971
1629.304	7179
1631.484	7117
1633.664	7152
1635.844	7115
1638.022	7152
1640.201	6968
1642.38	7155
1644.556	7190
1646.732	7162
1648.908	7168
1651.084	7173
1653.257	7050
1655.433	7146
1657.607	7258
1659.779	7225
1661.951	7119
1664.122	7312
1666.295	7182
1668.467	7323
1670.635	7262
1672.805	7366
1674.973	7215
1677.142	7277
1679.31	7191
1681.478	7137
1683.644	7222
1685.81	7209
1687.975	7069
1690.142	7237
1692.305	7195
1694.468	7123
1696.632	7073
1698.794	7050
1700.957	7056
1703.119	7106
1705.279	7142
1707.439	7048
1709.598	7074
1711.758	6963
1713.917	6921
1716.075	6970
1718.231	6914
1720.388	6880
1722.543	6888
1724.702	6887
1726.856	6898
1729.01	7043
1731.164	6932
1733.317	6863
1735.471	6894
1737.623	6892
1739.774	6931
1741.925	7014
1744.075	6979
1746.225	7046
1748.376	6910
1750.524	7022
1752.672	6921
1754.82	6995
1756.965	7078
1759.113	7052
1761.259	7026
1763.405	6976
1765.549	7084
1767.694	6956
1769.836	7017
1771.981	6937
1774.123	6882
1776.264	7047
1778.405	6999
1780.546	7029
1782.687	7041
1784.827	6994
1786.966	7064
1789.103	6981
1791.242	7056
1793.381	6908
1795.517	6947
1797.653	7067
1799.788	7064
1801.923	7070
1804.057	7023
1806.193	7016
1808.326	7042
1810.457	6900
1812.59	6929
1814.721	7003
1816.855	7017
1818.984	7014
1821.113	7022
1823.244	7044
1825.372	6938
1827.499	7077
1829.63	6919
1831.756	7007
1833.882	6999
1836.007	7072
1838.132	6893
1840.26	7021
1842.384	6934
1844.507	7048
1846.63	6965
1848.752	6942
1850.875	7016
1852.996	6909
1855.118	6908
1857.238	6951
1859.358	7025
1861.477	6912
1863.597	6940
1865.715	6916
1867.832	6902
1869.948	6986
1872.064	6851
1874.181	6957
1876.297	6855
1878.411	6906
1880.526	6907
1882.639	6921
1884.752	7053
1886.865	6923
1888.977	6903
1891.089	6924
1893.2	7006
1895.308	6907
1897.42	6995
1899.53	6944
1901.639	7035
1903.745	7006
1905.853	6945
1907.962	6909
1910.067	7076
1912.174	7008
1914.278	7065
1916.383	7027
1918.486	7084
1920.592	6956
1922.694	6906
1924.797	7082
1926.898	7041
1929	7027
1931.102	7164
1933.203	7003
1935.301	7177
1937.401	7137
1939.499	7045
1941.598	7077
1943.697	7085
1945.793	7163
1947.888	7055
1949.985	7177
1952.08	7071
1954.176	7090
1956.269	7012
1958.364	7069
1960.457	7072
1962.549	6946
1964.642	6960
1966.733	7043
1968.823	7025
1970.913	6995
1973.005	7022
1975.093	6963
1977.184	7027
1979.271	7086
1981.359	6971
1983.446	7059
1985.532	7070
1987.619	7097
1989.705	7036
1991.789	6991
1993.874	7051
1995.956	7027
1998.041	6990
2000.123	6896
2002.206	6986
2004.287	6997
2006.368	7045
2008.449	7034
2010.529	6836
2012.609	7038
2014.688	6923
2016.766	6891
2018.843	6978
2020.922	6907
2022.999	6964
2025.074	6997
2027.15	7062
2029.225	7003
2031.299	6986
2033.375	6940
2035.447	6915
2037.52	6869
2039.592	6994
2041.664	7008
2043.736	7039
2045.807	7003
2047.876	6942
2049.947	7013
2052.015	6886
2054.086	6943
2056.153	6947
2058.221	6901
2060.288	7025
2062.353	7014
2064.42	6886
2066.486	6915
2068.55	6972
2070.614	7012
2072.678	6971
2074.741	6946
2076.805	7029
2078.866	7182
2080.929	6960
2082.99	7024
2085.049	6917
2087.109	6946
2089.17	6923
2091.228	7010
2093.286	7081
2095.344	7014
2097.4	6964
2099.46	6912
2101.516	6950
2103.572	7058
2105.626	6861
2107.679	6946
2109.735	7057
2111.788	6938
2113.841	6980
2115.894	6867
2117.945	7084
2119.997	7089
2122.049	6997
2124.1	6926
2126.148	7006
2128.197	6935
2130.246	6913
2132.296	6924
2134.342	6884
2136.39	6878
2138.437	7018
2140.483	7008
2142.527	6911
2144.574	6821
2146.619	6929
2148.661	7036
2150.705	6889
2152.747	6987
2154.792	6937
2156.832	6930
2158.874	6982
2160.915	6774
2162.954	6925
2164.995	6988
2167.034	6851
2169.072	6862
2171.111	6867
2173.148	6991
2175.186	6972
2177.223	6912
2179.258	6815
2181.294	6982
2183.328	6805
2185.362	6890
2187.398	6825
2189.431	6816
2191.463	6844
2193.495	6902
2195.528	6915
2197.56	6820
2199.59	6881
2201.62	6769
2203.649	6765
2205.678	6753
2207.708	6794
2209.737	6708
2211.764	6814
2213.791	6777
2215.817	6814
2217.843	6732
2219.87	6739
2221.895	6846
2223.919	6665
2225.942	6792
2227.966	6749
2229.988	6704
2232.012	6705
2234.032	6848
2236.054	6890
2238.074	6752
2240.095	6817
2242.116	6713
2244.135	6741
2246.153	6795
2248.171	6725
2250.188	6837
2252.208	6745
2254.223	6811
2256.239	6768
2258.255	6811
2260.269	6723
2262.283	6920
2264.3	6745
2266.312	6672
2268.325	6791
2270.336	6658
2272.349	6655
2274.362	6781
2276.372	6748
2278.383	6753
2280.392	6824
2282.402	6896
2284.409	6739
2286.418	6768
2288.427	6753
2290.433	6694
2292.441	6827
2294.446	6686
2296.453	6792
2298.459	6772
2300.463	6806
2302.466	6643
2304.471	6685
2306.475	6706
2308.477	6744
2310.478	6637
2312.481	6759
2314.481	6662
2316.481	6726
2318.482	6765
2320.482	6657
2322.48	6626
2324.48	6867
2326.478	6669
2328.476	6657
2330.473	6688
2332.469	6591
2334.465	6715
2336.46	6597
2338.454	6692
2340.45	6630
2342.444	6574
2344.437	6655
2346.43	6736
2348.421	6601
2350.414	6566
2352.405	6661
2354.396	6617
2356.386	6562
2358.376	6705
2360.366	6680
2362.355	6706
2364.343	6637
2366.331	6571
2368.317	6597
2370.304	6463
2372.292	6537
2374.278	6563
2376.262	6557
2378.247	6572
2380.23	6536
2382.216	6635
2384.199	6472
2386.181	6602
2388.163	6526
2390.144	6519
2392.127	6468
2394.107	6555
2396.087	6538
2398.066	6472
2400.046	6537
2402.023	6357
2404.004	6481
2405.981	6521
2407.957	6535
2409.934	6447
2411.91	6543
2413.886	6376
2415.862	6642
2417.836	6473
2419.809	6639
2421.784	6502
2423.756	6639
2425.73	6582
2427.701	6475
2429.672	6440
2431.644	6492
2433.615	6597
2435.586	6399
2437.555	6391
2439.523	6562
2441.491	6462
2443.459	6592
2445.428	6589
2447.395	6458
2449.361	6493
2451.327	6490
2453.292	6389
2455.257	6470
2457.223	6475
2459.187	6409
2461.15	6493
2463.113	6428
2465.076	6374
2467.039	6442
2468.999	6506
2470.96	6376
2472.921	6367
2474.881	6487
2476.841	6469
2478.8	6364
2480.759	6425
2482.717	6321
2484.675	6402
2486.63	6410
2488.589	6548
2490.545	6383
2492.5	6337
2494.455	6329
2496.408	6364
2498.364	6486
2500.318	6464
2502.27	6347
2504.223	6331
2506.174	6409
2508.126	6379
2510.078	6314
2512.03	6291
2513.979	6355
2515.927	6328
2517.877	6415
2519.826	6433
2521.775	6351
2523.722	6281
2525.668	6285
2527.616	6411
2529.561	6332
2531.508	6361
2533.452	6393
2535.398	6372
2537.342	6444
2539.284	6255
2541.229	6445
2543.173	6302
2545.114	6248
2547.055	6328
2548.996	6230
2550.938	6261
2552.878	6328
2554.817	6297
2556.756	6349
2558.695	6266
2560.633	6402
2562.572	6281
2564.509	6329
2566.445	6351
2568.382	6386
2570.317	6506
2572.254	6322
2574.189	6350
2576.123	6449
2578.057	6374
2579.99	6278
2581.923	6375
2583.855	6192
2585.788	6379
2587.719	6430
2589.65	6324
2591.579	6317
2593.511	6337
2595.44	6271
2597.37	6279
2599.297	6267
2601.225	6353
2603.153	6392
2605.08	6272
2607.007	6257
2608.932	6331
2610.858	6411
2612.782	6282
2614.709	6265
2616.632	6296
2618.556	6375
2620.478	6265
2622.401	6377
2624.324	6317
2626.247	6245
2628.167	6343
2630.088	6228
2632.008	6336
2633.928	6329
2635.848	6304
2637.766	6345
2639.684	6366
2641.603	6269
2643.519	6243
2645.437	6370
2647.353	6343
2649.27	6314
2651.184	6182
2653.099	6337
2655.014	6237
2656.928	6398
2658.842	6273
2660.755	6307
2662.667	6327
2664.579	6193
2666.491	6256
2668.402	6270
2670.312	6287
2672.222	6325
2674.132	6261
2676.042	6364
2677.951	6354
2679.859	6305
2681.766	6255
2683.674	6239
2685.582	6229
2687.488	6218
2689.392	6175
2691.298	6285
2693.202	6114
2695.107	6174
2697.012	6315
2698.914	6130
2700.817	6332
2702.72	6283
2704.622	6253
2706.524	6269
2708.425	6222
2710.326	6207
2712.225	6245
2714.125	6231
2716.024	6052
2717.923	6149
2719.822	6215
2721.719	6145
2723.616	6108
2725.512	6144
2727.41	6225
2729.305	6117
2731.201	6158
2733.095	6207
2734.99	6201
2736.884	6091
2738.778	6116
2740.67	6143
2742.562	6199
2744.455	6163
2746.346	6185
2748.238	6272
2750.129	6140
2752.018	6175
2753.907	6148
2755.797	6207
2757.687	6113
2759.575	6259
2761.462	6156
2763.349	6113
2765.237	6201
2767.124	6084
2769.009	6069
2770.894	6084
2772.779	6135
2774.663	6082
2776.547	6183
2778.431	6158
2780.314	6207
2782.197	6183
2784.078	6192
2785.96	6166
2787.842	6110
2789.723	6084
2791.603	6191
2793.483	6041
2795.362	6106
2797.241	6032
2799.121	6068
2800.997	6156
2802.874	6032
2804.751	5963
2806.628	5974
2808.506	6170
2810.38	6021
2812.255	6180
2814.13	6119
2816.003	6059
2817.878	6130
2819.752	6106
2821.623	6172
2823.496	6143
2825.368	6077
2827.238	6130
2829.111	6105
2830.98	6142
2832.851	6027
2834.719	6113
2836.589	5966
2838.458	6101
2840.327	6030
2842.193	6054
2844.061	6223
2845.927	6105
2847.794	6105
2849.66	6216
2851.525	6234
2853.39	6217
2855.254	6255
2857.117	6189
2858.983	6249
2860.845	6192
2862.707	6362
2864.569	6312
2866.431	6395
2868.293	6328
2870.154	6413
2872.013	6463
2873.873	6510
2875.733	6651
2877.592	6534
2879.451	6715
2881.309	6722
2883.166	6824
2885.022	6803
2886.879	6868
2888.736	6843
2890.591	6943
2892.446	6885
2894.301	6999
2896.155	6908
2898.009	6766
2899.863	6894
2901.716	6792
2903.568	6866
2905.419	6889
2907.27	6805
2909.123	6959
2910.973	6873
2912.824	7031
2914.673	6957
2916.521	7071
2918.372	7104
2920.22	7093
2922.067	7204
2923.914	7217
2925.761	7379
2927.607	7472
2929.455	7364
2931.301	7543
2933.144	7538
2934.99	7511
2936.833	7823
2938.678	7723
2940.522	7825
2942.364	7885
2944.207	8045
2946.048	7941
2947.891	8074
2949.731	7992
2951.571	8021
2953.412	8001
2955.25	7951
2957.09	7919
2958.93	7775
2960.767	7713
2962.606	7528
2964.443	7536
2966.279	7572
2968.116	7274
2969.953	7347
2971.788	7144
2973.623	7069
2975.457	7023
2977.292	7101
2979.127	7011
2980.959	6977
2982.792	6849
2984.624	6840
2986.455	6897
2988.288	6923
2990.119	6773
2991.949	6677
2993.779	6677
2995.608	6654
2997.439	6566
2999.268	6706
3001.096	6599
3002.923	6442
3004.751	6315
3006.578	6232
3008.406	6354
3010.232	6221
3012.057	6050
3013.883	6058
3015.706	6075
3017.532	6014
3019.356	6107
3021.179	6105
3023.002	5971
3024.823	5923
3026.646	5918
3028.469	5815
3030.289	5811
3032.11	5741
3033.93	5930
3035.749	5876
3037.57	5800
3039.39	5750
3041.207	5821
3043.026	5814
3044.842	5796
3046.661	5776
3048.477	5775
3050.294	5675
3052.109	5845
3053.925	5665
3055.739	5721
3057.555	5751
3059.368	5776
3061.181	5752
3062.995	5836
3064.807	5752
3066.62	5705
3068.433	5854
3070.243	5786
3072.054	5741
3073.865	5729
3075.675	5801
3077.485	5660
3079.293	5749
3081.102	5608
3082.911	5681
3084.719	5685
3086.527	5622
3088.333	5682
3090.139	5706
3091.945	5572
3093.75	5709
3095.557	5625
3097.361	5473
3099.165	5699
3100.969	5652
3102.772	5493
3104.575	5612
3106.379	5468
3108.181	5539
3109.982	5494
3111.783	5391
3113.584	5584
3115.386	5427
3117.186	5541
3118.985	5501
3120.783	5559
3122.582	5558
3124.381	5455
3126.179	5447
3127.975	5542
3129.772	5506
3131.569	5509
3133.365	5430
3135.161	5475
3136.956	5460
3138.751	5465
3140.544	5440
3142.338	5498
3144.132	5466
3145.925	5459
3147.717	5446
3149.509	5508
3151.301	5427
3153.091	5444
3154.884	5485
3156.673	5494
3158.462	5541
3160.252	5457
3162.041	5524
3163.831	5391
3165.618	5370
3167.405	5472
3169.193	5466
3170.979	5440
3172.767	5483
3174.553	5443
3176.338	5335
3178.123	5448
3179.907	5395
3181.692	5360
3183.477	5393
3185.259	5406
3187.042	5393
3188.824	5362
3190.607	5431
3192.389	5338
3194.17	5352
3195.951	5458
3197.73	5379
3199.51	5411
3201.289	5400
3203.07	5452
3204.848	5412
3206.626	5306
3208.403	5297
3210.18	5418
3211.959	5373
3213.735	5376
3215.511	5360
3217.285	5354
3219.06	5402
3220.836	5381
3222.611	5315
3224.384	5378
3226.158	5315
3227.929	5440
3229.702	5370
3231.476	5363
3233.248	5400
3235.018	5337
3236.789	5432
3238.56	5326
3240.33	5367
3242.1	5353
3243.869	5391
3245.637	5332
3247.405	5342
3249.172	5449
3250.941	5389
3252.707	5319
3254.474	5385
3256.24	5377
3258.006	5297
3259.772	5314
3261.537	5341
3263.301	5447
3265.065	5336
3266.828	5361
3268.592	5333
3270.355	5366
3272.117	5376
3273.878	5420
3275.64	5402
3277.401	5412
3279.162	5440
3280.922	5366
3282.682	5350
3284.441	5380
3286.199	5343
3287.959	5414
3289.716	5238
3291.475	5428
3293.232	5385
3294.988	5341
3296.744	5410
3298.501	5344
3300.256	5369
3302.011	5355
3303.766	5267
3305.52	5396
3307.275	5343
3309.028	5424
3310.781	5320
3312.533	5396
3314.285	5239
3316.038	5333
3317.789	5311
3319.54	5339
3321.289	5363
3323.039	5369
3324.789	5410
3326.539	5289
3328.288	5271
3330.035	5291
3331.783	5335
3333.531	5307
3335.28	5326
3337.025	5252
3338.771	5247
3340.518	5327
3342.262	5230
3344.009	5345
3345.753	5296
3347.497	5271
3349.24	5327
3350.983	5412
3352.726	5223
3354.469	5267
3356.212	5274
3357.952	5283
3359.694	5139
3361.434	5332
3363.176	5223
3364.916	5207
3366.654	5194
3368.394	5138
3370.132	5297
3371.871	5164
3373.61	5125
3375.346	5187
3377.083	5164
3378.82	5146
3380.556	5130
3382.292	5122
3384.027	5175
3385.763	5179
3387.497	5148
3389.231	5012
3390.965	5165
3392.698	5064
3394.431	5069
3396.164	5069
3397.896	5157
3399.627	5155
3401.36	5133
3403.09	5004
3404.82	5045
3406.55	5074
3408.279	5023
3410.01	5110
3411.738	5017
3413.467	5090
3415.194	5108
3416.92	5013
3418.647	5129
3420.375	4966
3422.102	5016
3423.827	5066
3425.553	5189
3427.277	5025
3429.003	5005
3430.727	5054
3432.451	4993
3434.173	4946
3435.896	5012
3437.62	5080
3439.343	4918
3441.063	5057
3442.785	5009
3444.505	5015
3446.226	4916
3447.948	5033
3449.666	4881
3451.386	4924
3453.104	4864
3454.823	4958
3456.541	4855
3458.259	4832
3459.976	4877
3461.693	4834
3463.408	4976
3465.125	4909
3466.841	4925
3468.556	4853
3470.271	4864
3471.985	4858
3473.698	4841
3475.414	4857
3477.126	4789
3478.838	4765
3480.55	4853
3482.263	4752
3483.975	4792
3485.686	4823
3487.396	4777
3489.106	4833
3490.817	4745
3492.526	4698
3494.236	4807
3495.944	4701
3497.652	4745
3499.359	4649
3501.066	4738
3502.775	4719
3504.481	4684
3506.187	4663
3507.893	4760
3509.598	4774
3511.304	4580
3513.009	4596
3514.713	4680
3516.417	4785
3518.12	4645
3519.821	4565
3521.525	4552
3523.228	4681
3524.929	4658
3526.631	4595
3528.33	4582
3530.032	4633
3531.733	4586
3533.433	4683
3535.131	4503
3536.83	4568
3538.529	4486
3540.227	4584
3541.925	4610
3543.623	4446
3545.319	4592
3547.016	4601
3548.712	4575
3550.408	4516
3552.103	4484
3553.798	4576
3555.491	4476
3557.188	4497
3558.88	4499
3560.574	4475
3562.266	4589
3563.959	4668
3565.651	4406
3567.343	4508
3569.035	4447
3570.725	4494
3572.415	4519
3574.106	4556
3575.797	4489
3577.485	4432
3579.174	4459
3580.863	4386
3582.551	4377
3584.238	4330
3585.926	4493
3587.613	4432
3589.3	4383
3590.986	4444
3592.671	4335
3594.357	4383
3596.042	4430
3597.726	4461
3599.41	4300
3601.094	4364
3602.778	4295
3604.461	4299
3606.143	4321
3607.825	4318
3609.507	4275
3611.188	4247
3612.87	4220
3614.551	4298
3616.229	4238
3617.909	4239
3619.589	4303
3621.269	4250
3622.948	4226
3624.625	4171
3626.302	4283
3627.98	4218
3629.657	4174
3631.334	4308
3633.01	4221
3634.686	4130
3636.361	4081
3638.036	4141
3639.712	4147
3641.385	4142
3643.06	4055
3644.732	4084
3646.405	4136
3648.08	4120
3649.751	4150
3651.424	4153
3653.094	4196
3654.766	4105
3656.436	4128
3658.106	4113
3659.777	4107
3661.446	4121
3663.115	4182
3664.783	4123
3666.452	4027
3668.121	4130
3669.788	4061
3671.454	4073
3673.121	4117
3674.789	4027
3676.455	3972
3678.12	4006
3679.784	4163
3681.45	3995
3683.114	3994
3684.779	4040
3686.442	4082
3688.105	4029
3689.768	3994
3691.43	3997
3693.093	3981
3694.754	3977
3696.415	4005
3698.076	3992
3699.736	4016
3701.396	4045
3703.057	3922
3704.716	3943
3706.375	4063
3708.034	4025
3709.692	3982
3711.351	3981
3713.008	4000
3714.665	4045
3716.321	4024
3717.977	3939
3719.634	3966
3721.29	3944
3722.945	3958
3724.598	3946
3726.253	3901
3727.907	3945
3729.561	3923
3731.214	3895
3732.867	3922
3734.518	3884
3736.171	3897
3737.824	3907
3739.474	3941
3741.125	3992
3742.775	3848
3744.425	3884
3746.074	3971
3747.725	3928
3749.373	3860
3751.022	3862
3752.669	3910
3754.318	3872
3755.966	3903
3757.612	3922
3759.259	3974
3760.905	3884
3762.55	3790
3764.197	3862
3765.842	3912
3767.486	3856
3769.131	3766
3770.774	3838
3772.417	3899
3774.061	3804
3775.705	3860
3777.347	3858
3778.988	3867
3780.629	3732
3782.271	3866
3783.912	3768
3785.552	3863
3787.192	3868
3788.831	3811
3790.472	3739
3792.112	3742
3793.75	3755
3795.388	3722
3797.024	3742
3798.661	3805
3800.3	3788
3801.936	3780
3803.572	3727
3805.208	3714
3806.844	3782
3808.48	3738
3810.115	3715
3811.748	3733
3813.382	3787
3815.016	3758
3816.649	3603
3818.283	3736
3819.914	3689
3821.547	3707
3823.178	3697
3824.809	3695
3826.441	3704
3828.072	3696
3829.701	3651
3831.331	3691
3832.96	3674
3834.591	3678
3836.219	3665
3837.847	3701
3839.475	3670
3841.102	3712
3842.729	3635
3844.357	3637
3845.984	3579
3847.609	3659
3849.234	3670
3850.86	3648
3852.485	3702
3854.11	3628
3855.734	3605
3857.357	3668
3858.981	3584
3860.603	3667
3862.227	3588
3863.848	3660
3865.471	3667
3867.092	3669
3868.713	3631
3870.334	3599
3871.954	3610
3873.575	3585
3875.194	3638
3876.813	3637
3878.433	3681
3880.051	3627
3881.669	3549
3883.286	3557
3884.904	3577
3886.52	3596
3888.138	3618
3889.754	3529
3891.37	3598
3892.985	3547
3894.6	3575
3896.216	3586
3897.831	3549
3899.444	3559
3901.058	3545
3902.67	3525
3904.283	3550
3905.897	3552
3907.509	3537
3909.121	3573
3910.731	3625
3912.342	3480
3913.954	3513
3915.563	3525
3917.174	3505
3918.783	3555
3920.391	3541
3922.002	3525
3923.611	3543
3925.218	3490
3926.826	3557
3928.432	3530
3930.039	3422
3931.647	3473
3933.253	3574
3934.859	3520
3936.464	3443
3938.068	3538
3939.675	3557
3941.278	3483
3942.883	3522
3944.486	3502
3946.089	3498
3947.692	3503
3949.295	3495
3950.898	3431
3952.499	3486
3954.1	3485
3955.7	3466
3957.303	3423
3958.903	3446
3960.502	3536
3962.101	3439
3963.7	3369
3965.301	3401
3966.899	3375
3968.497	3423
3970.094	3401
3971.691	3399
3973.288	3384
3974.885	3452
3976.481	3440
3978.077	3436
3979.672	3415
3981.267	3324
3982.863	3358
3984.457	3391
3986.051	3306
3987.645	3369
3989.238	3345
3990.831	3361
3992.425	3361
3994.017	3423
3995.607	3370
3997.199	3287
3998.79	3370
4000.382	3350
4001.973	3453
4003.561	3352
4005.151	3274
4006.741	3333
4008.331	3334
4009.918	3357
4011.507	3301
4013.095	3332
4014.681	3302
4016.269	3317
4017.856	3248
4019.443	3246
4021.028	3302
4022.614	3337
4024.199	3297
4025.785	3254
4027.37	3292
4028.953	3263
4030.536	3347
4032.12	3270
4033.704	3268
4035.287	3295
4036.869	3246
4038.45	3202
4040.032	3231
4041.613	3197
4043.195	3205
4044.776	3222
4046.356	3223
4047.935	3192
4049.515	3225
4051.095	3326
4052.674	3169
4054.251	3182
4055.829	3205
4057.406	3167
4058.985	3178
4060.562	3260
4062.139	3194
4063.715	3195
4065.29	3122
4066.865	3206
4068.442	3223
4070.016	3116
4071.59	3164
4073.164	3157
4074.738	3187
4076.312	3238
4077.885	3181
4079.458	3110
4081.03	3133
4082.602	3124
4084.173	3115
4085.745	3157
4087.315	3179
4088.886	3132
4090.456	3228
4092.026	3098
4093.596	3075
4095.165	3179
4096.734	3132
4098.301	3132
4099.869	3125
4101.437	3129
4103.006	3172
4104.572	3176
4106.139	3078
4107.704	3107
4109.27	3030
4110.837	3100
4112.401	3051
4113.966	3145
4115.53	3087
4117.094	3037
4118.659	3069
4120.223	3046
4121.785	3075
4123.347	3128
4124.909	3076
4126.471	3078
4128.034	3136
4129.595	3043
4131.155	3044
4132.716	3115
4134.275	3044
4135.836	3015
4137.395	3064
4138.955	3030
4140.513	3005
4142.071	3088
4143.628	3036
4145.188	2986
4146.745	3006
4148.302	3011
4149.858	2950
4151.414	2980
4152.971	3003
4154.526	2975
4156.081	3019
4157.635	2998
4159.189	3003
4160.745	3029
4162.298	2939
4163.852	2915
4165.405	2995
4166.957	3004
4168.51	2871
4170.063	2945
4171.614	2937
4173.166	2888
4174.717	2918
4176.267	2965
4177.817	2932
4179.368	2953
4180.917	2976
4182.466	2920
4184.016	2944
4185.564	2892
4187.112	2911
4188.66	2873
4190.207	2878
4191.754	2929
4193.301	2913
4194.848	3009
4196.394	2898
4197.94	2961
4199.484	2908
4201.03	2922
4202.575	2886
4204.12	2859
4205.663	2814
4207.207	2824
4208.75	2783
4210.292	2913
4211.836	2861
4213.378	2818
4214.92	2898
4216.46	2794
4218.002	2832
4219.544	2829
4221.083	2860
4222.625	2833
4224.164	2923
4225.703	2874
4227.244	2830
4228.782	2799
4230.32	2818
4231.857	2826
4233.395	2815
4234.933	2843
4236.471	2820
4238.007	2875
4239.542	2874
4241.078	2821
4242.614	2821
4244.15	2798
4245.685	2861
4247.219	2779
4248.753	2872
4250.287	2745
4251.82	2842
4253.354	2814
4254.887	2787
4256.419	2747
4257.951	2753
4259.483	2817
4261.016	2800
4262.547	2834
4264.078	2757
4265.608	2791
4267.137	2815
4268.668	2747
4270.197	2781
4271.727	2790
4273.254	2803
4274.783	2819
4276.311	2853
4277.84	2846
4279.366	2792
4280.894	2703
4282.42	2770
4283.946	2712
4285.473	2778
4286.998	2764
4288.523	2721
4290.047	2712
4291.572	2732
4293.096	2743
4294.622	2675
4296.144	2741
4297.668	2743
4299.19	2739
4300.713	2680
4302.236	2687
4303.758	2700
4305.279	2712
4306.799	2728
4308.321	2700
4309.842	2729
4311.361	2729
4312.882	2675
4314.401	2680
