400.0961	4084
402.6185	4087
405.1424	4140
407.6635	4207
410.1838	4090
412.7035	4067
415.2225	4200
417.7388	4178
420.2585	4291
422.7754	4254
425.2917	4225
427.8072	4370
430.3221	4339
432.8363	4326
435.3498	4413
437.8626	4334
440.3727	4410
442.8841	4443
445.3969	4383
447.907	4306
450.4142	4367
452.9229	4308
455.4289	4231
457.9362	4306
460.4449	4414
462.9488	4240
465.454	4411
467.9566	4291
470.4604	4364
472.9637	4345
475.4662	4359
477.966	4272
480.4671	4428
482.9656	4347
485.4633	4337
487.9645	4396
490.4608	4305
492.9566	4514
495.4536	4485
497.948	4315
500.4437	4436
502.9387	4525
505.431	4612
507.9226	4431
510.4136	4454
512.9079	4535
515.3975	4413
517.8864	4496
520.3746	4494
522.8622	4518
525.3491	4499
527.8394	4440
530.3249	4429
532.8098	4494
535.2939	4479
537.7774	4537
540.2623	4537
542.7444	4558
545.2259	4615
547.7067	4475
550.1868	4491
552.6683	4504
555.147	4498
557.6231	4582
560.1005	4514
562.5773	4620
565.0534	4505
567.5308	4513
570.0056	4651
572.4776	4725
574.951	4672
577.4237	4600
579.8978	4711
582.3671	4708
584.8378	4750
587.3079	4716
589.7773	4688
592.244	4665
594.714	4680
597.1793	4761
599.6461	4745
602.1121	4643
604.5754	4646
607.0421	4665
609.5042	4699
611.9675	4591
614.4282	4748
616.8902	4647
619.3515	4700
621.8122	4871
624.2702	4680
626.7296	4814
629.1863	4670
631.6423	4692
634.1017	4667
636.5563	4692
639.0104	4648
641.4658	4639
643.9185	4691
646.3725	4658
648.8239	4749
651.2766	4692
653.7266	4683
656.176	4727
658.6247	4772
661.0748	4774
663.5242	4795
665.9709	4724
668.417	4843
670.8624	4631
673.3092	4742
675.7533	4832
678.1968	4803
680.6395	4807
683.0817	4836
685.5251	4882
687.9659	4823
690.4061	4815
692.8456	4766
695.2844	4860
697.7226	4942
700.1621	4972
702.599	4900
705.0332	4815
707.4688	4920
709.9036	4963
712.3399	4960
714.7735	4852
717.2044	4830
719.6367	4994
722.0683	4964
724.4993	5024
726.9296	4995
729.3593	4931
731.7883	5103
734.2147	5064
736.6423	4979
739.0714	5083
741.4958	5086
743.9216	5142
746.3447	5120
748.7691	5128
751.1929	5068
753.616	5116
756.0366	5081
758.4584	5110
760.8776	5104
763.2982	5198
765.718	5295
768.1373	5145
770.5539	5185
772.9698	5131
775.3871	5102
777.8038	5295
780.2178	5234
782.6332	5255
785.0459	5147
787.458	5075
789.8714	5230
792.2842	5176
794.6943	5154
797.1038	5237
799.5127	5211
801.9209	5189
804.3324	5226
806.7393	5309
809.1456	5191
811.5513	5226
813.9562	5156
816.3625	5260
818.7663	5263
821.1693	5275
823.5718	5280
825.9735	5204
828.3746	5351
830.7771	5186
833.177	5233
835.5762	5285
837.9747	5414
840.3727	5285
842.772	5244
845.1666	5470
847.5626	5377
849.958	5434
852.3527	5446
854.7488	5438
857.1403	5442
859.5331	5495
861.9253	5421
864.3168	5510
866.7057	5472
869.098	5517
871.4876	5344
873.8746	5418
876.263	5460
878.6487	5443
881.0378	5428
883.4243	5446
885.8081	5406
888.1933	5394
890.5759	5319
892.9598	5334
895.343	5379
897.7256	5493
900.1057	5356
902.4871	5346
904.8659	5379
907.246	5478
909.6254	5510
912.0023	5595
914.3786	5595
916.7562	5743
919.1331	5962
921.5074	5821
923.8831	5858
926.2562	5879
928.6287	5845
931.0005	5830
933.3757	5771
935.7462	5829
938.1162	5750
940.4855	5829
942.8542	5845
945.2242	5802
947.5916	5886
949.9584	5980
952.3266	6054
954.6921	6227
957.0571	6431
959.4233	6672
961.787	6703
964.15	6778
966.5125	6423
968.8742	6313
971.2354	6182
973.5959	5937
975.9559	5861
978.3151	5683
980.6738	5721
983.0338	5789
985.3912	5673
987.7461	5643
990.1022	5619
992.4578	5576
994.8127	5634
997.1689	5629
999.5207	5680
1001.874	5694
1004.226	5659
1006.576	5627
1008.929	5642
1011.28	5565
1013.628	5653
1015.977	5612
1018.324	5541
1020.674	5676
1023.019	5672
1025.366	5645
1027.713	5702
1030.056	5625
1032.399	5595
1034.746	5754
1037.087	5647
1039.431	5677
1041.771	5700
1044.113	5774
1046.454	5733
1048.793	5629
1051.133	5573
1053.471	5651
1055.807	5670
1058.146	5695
1060.483	5666
1062.818	5667
1065.153	5841
1067.489	5801
1069.822	5743
1072.156	5799
1074.488	5838
1076.82	5817
1079.15	5828
1081.48	5766
1083.814	5775
1086.143	5747
1088.471	5723
1090.799	5694
1093.126	5801
1095.452	5809
1097.78	5714
1100.105	5781
1102.43	5721
1104.754	5786
1107.077	5636
1109.4	5703
1111.722	5731
1114.044	5733
1116.365	5803
1118.685	5733
1121.005	5710
1123.324	5745
1125.643	5811
1127.961	5796
1130.278	5738
1132.595	5673
1134.911	5801
1137.226	5749
1139.541	5671
1141.854	5680
1144.167	5786
1146.482	5735
1148.793	5700
1151.105	5755
1153.414	5816
1155.725	5733
1158.033	5780
1160.344	5803
1162.651	5856
1164.959	5739
1167.265	5830
1169.572	5754
1171.878	5773
1174.184	5854
1176.488	5808
1178.79	5892
1181.094	5879
1183.396	5857
1185.699	5854
1188.001	5805
1190.301	5706
1192.6	5743
1194.9	5830
1197.2	5744
1199.497	5874
1201.794	5800
1204.09	5909
1206.387	5772
1208.684	5794
1210.978	5797
1213.272	5834
1215.565	5838
1217.858	5786
1220.15	5866
1222.443	5811
1224.734	5866
1227.024	5867
1229.313	5745
1231.602	5936
1233.892	5829
1236.18	6056
1238.467	6113
1240.754	5981
1243.04	6090
1245.325	6074
1247.612	5990
1249.896	6158
1252.178	6041
1254.461	6140
1256.743	6127
1259.027	6137
1261.308	6155
1263.587	6053
1265.867	6082
1268.146	6133
1270.425	6127
1272.703	6089
1274.981	6151
1277.256	6047
1279.532	6078
1281.808	6114
1284.083	5953
1286.358	6089
1288.63	6099
1290.904	6017
1293.175	6007
1295.449	5947
1297.719	5989
1299.99	5846
1302.259	6049
1304.529	6022
1306.798	5995
1309.065	6122
1311.333	5965
1313.599	6084
1315.866	5999
1318.131	5915
1320.396	5908
1322.66	6002
1324.925	5998
1327.187	6019
1329.448	6145
1331.711	6138
1333.974	6036
1336.234	5945
1338.493	6054
1340.752	6017
1343.01	6020
1345.269	5970
1347.526	5773
1349.784	6097
1352.04	5954
1354.295	5964
1356.552	5990
1358.806	5853
1361.059	6022
1363.312	6041
1365.564	5911
1367.818	6011
1370.069	5975
1372.318	6073
1374.568	5988
1376.817	6106
1379.066	6054
1381.316	6037
1383.564	6009
1385.809	6065
1388.056	6133
1390.301	6092
1392.549	6218
1394.793	6280
1397.036	6366
1399.279	6262
1401.522	6383
1403.763	6469
1406.007	6370
1408.248	6363
1410.487	6391
1412.727	6468
1414.965	6300
1417.205	6375
1419.442	6284
1421.68	6235
1423.915	6300
1426.152	6228
1428.388	6226
1430.623	6241
1432.857	6320
1435.091	6343
1437.323	6240
1439.556	6471
1441.789	6433
1444.019	6199
1446.25	6418
1448.48	6319
1450.708	6452
1452.938	6529
1455.167	6452
1457.394	6500
1459.62	6356
1461.846	6489
1464.073	6326
1466.299	6360
1468.523	6281
1470.746	6219
1472.969	6147
1475.191	6058
1477.415	6126
1479.636	6072
1481.858	6153
1484.078	6103
1486.298	6105
1488.518	6041
1490.736	6035
1492.954	6076
1495.169	5952
1497.386	5980
1499.602	5908
1501.819	5939
1504.034	6037
1506.248	5947
1508.462	5970
1510.675	5994
1512.888	5945
1515.1	5908
1517.311	5922
1519.522	5983
1521.732	5895
1523.942	5928
1526.151	5977
1528.36	5851
1530.566	5921
1532.773	5950
1534.98	5874
1537.187	5904
1539.392	6037
1541.596	5886
1543.801	6030
1546.005	5924
1548.208	6088
1550.411	6039
1552.612	6115
1554.814	5949
1557.013	6060
1559.212	6188
1561.414	6073
1563.612	6037
1565.811	6018
1568.007	6182
1570.203	6073
1572.403	6116
1574.598	6039
1576.792	6180
1578.988	6135
1581.181	6166
1583.376	6154
1585.568	6150
1587.761	6131
1589.952	6221
1592.143	6154
1594.333	6088
1596.524	6268
1598.715	6146
1600.903	6179
1603.091	6237
1605.278	6246
1607.466	6113
1609.652	6247
1611.838	6240
1614.023	6232
1616.207	6225
1618.391	6219
1620.576	6124
1622.759	6276
1624.941	6312
1627.123	6117
1629.304	6308
1631.484	6210
1633.664	6268
1635.844	6301
1638.022	6222
1640.201	6258
1642.38	6271
1644.556	6277
1646.732	6391
1648.908	6270
1651.084	6356
1653.257	6287
1655.433	6340
1657.607	6333
1659.779	6329
1661.951	6250
1664.122	6348
1666.295	6466
1668.467	6370
1670.635	6337
1672.805	6271
1674.973	6348
1677.142	6347
1679.31	6312
1681.478	6284
1683.644	6273
1685.81	6352
1687.975	6336
1690.142	6351
1692.305	6321
1694.468	6210
1696.632	6151
1698.794	6286
1700.957	6092
1703.119	6248
1705.279	6240
1707.439	6165
1709.598	6158
1711.758	6194
1713.917	6073
1716.075	6158
1718.231	6100
1720.388	6128
1722.543	6100
1724.702	6261
1726.856	6173
1729.01	6152
1731.164	6193
1733.317	6206
1735.471	6251
1737.623	5956
1739.774	6196
1741.925	6242
1744.075	6068
1746.225	6204
1748.376	6161
1750.524	6161
1752.672	5992
1754.82	6170
1756.965	6185
1759.113	6143
1761.259	6146
1763.405	6259
1765.549	6097
1767.694	6106
1769.836	6056
1771.981	6068
1774.123	6203
1776.264	6236
1778.405	6344
1780.546	6267
1782.687	6117
1784.827	6184
1786.966	6104
1789.103	6204
1791.242	6274
1793.381	6265
1795.517	6220
1797.653	6213
1799.788	6142
1801.923	6208
1804.057	6343
1806.193	6241
1808.326	6193
1810.457	6115
1812.59	6264
1814.721	6250
1816.855	6156
1818.984	6213
1821.113	6212
1823.244	6186
1825.372	6166
1827.499	6176
1829.63	6172
1831.756	6224
1833.882	6265
1836.007	6183
1838.132	6074
1840.26	6178
1842.384	6139
1844.507	6160
1846.63	6200
1848.752	6169
1850.875	6183
1852.996	6112
1855.118	6054
1857.238	6168
1859.358	6159
1861.477	6156
1863.597	6212
1865.715	6196
1867.832	6046
1869.948	6153
1872.064	6177
1874.181	6154
1876.297	6120
1878.411	6218
1880.526	6264
1882.639	6196
1884.752	6134
1886.865	6120
1888.977	6195
1891.089	6086
1893.2	6204
1895.308	6134
1897.42	6178
1899.53	6191
1901.639	6256
1903.745	6096
1905.853	6221
1907.962	6232
1910.067	6179
1912.174	6158
1914.278	6221
1916.383	6204
1918.486	6354
1920.592	6234
1922.694	6229
1924.797	6107
1926.898	6171
1929	6247
1931.102	6251
1933.203	6254
1935.301	6107
1937.401	6283
1939.499	6182
1941.598	6314
1943.697	6180
1945.793	6154
1947.888	6312
1949.985	6183
1952.08	6245
1954.176	6363
1956.269	6176
1958.364	6279
1960.457	6198
1962.549	6377
1964.642	6134
1966.733	6227
1968.823	6283
1970.913	6230
1973.005	6167
1975.093	6254
1977.184	6196
1979.271	6252
1981.359	6173
1983.446	6415
1985.532	6203
1987.619	6190
1989.705	6219
1991.789	6114
1993.874	6116
1995.956	6107
1998.041	6166
2000.123	6178
2002.206	6235
2004.287	6304
2006.368	6045
2008.449	6129
2010.529	6215
2012.609	6148
2014.688	6095
2016.766	6144
2018.843	6118
2020.922	6171
2022.999	6209
2025.074	6198
2027.15	6085
2029.225	6164
2031.299	6201
2033.375	6159
2035.447	6169
2037.52	6169
2039.592	6189
2041.664	6192
2043.736	6084
2045.807	6154
2047.876	6140
2049.947	6230
2052.015	6143
2054.086	6279
2056.153	6169
2058.221	6195
2060.288	6289
2062.353	6240
2064.42	6111
2066.486	6212
2068.55	6185
2070.614	6188
2072.678	6130
2074.741	6237
2076.805	6101
2078.866	6207
2080.929	6171
2082.99	6184
2085.049	6245
2087.109	6130
2089.17	6269
2091.228	6272
2093.286	6186
2095.344	6255
2097.4	6027
2099.46	6120
2101.516	6136
2103.572	6170
2105.626	6172
2107.679	6203
2109.735	6184
2111.788	6109
2113.841	6083
2115.894	6190
2117.945	6078
2119.997	6194
2122.049	6192
2124.1	6128
2126.148	6166
2128.197	6139
2130.246	6204
2132.296	6092
2134.342	6125
2136.39	6094
2138.437	6144
2140.483	6074
2142.527	6054
2144.574	6075
2146.619	6094
2148.661	6140
2150.705	6093
2152.747	6039
2154.792	6185
2156.832	6106
2158.874	6143
2160.915	6036
2162.954	6040
2164.995	6074
2167.034	6135
2169.072	6178
2171.111	6007
2173.148	6052
2175.186	6082
2177.223	6063
2179.258	6071
2181.294	6120
2183.328	5988
2185.362	6118
2187.398	6044
2189.431	6048
2191.463	6057
2193.495	6077
2195.528	5910
2197.56	6071
2199.59	6032
2201.62	5933
2203.649	6116
2205.678	6033
2207.708	5992
2209.737	6036
2211.764	5976
2213.791	6032
2215.817	5941
2217.843	5899
2219.87	5962
2221.895	6018
2223.919	6008
2225.942	5975
2227.966	5955
2229.988	5992
2232.012	5896
2234.032	5949
2236.054	6072
2238.074	5922
2240.095	6031
2242.116	5968
2244.135	6026
2246.153	6011
2248.171	5924
2250.188	6011
2252.208	5990
2254.223	5937
2256.239	5933
2258.255	6150
2260.269	6014
2262.283	5993
2264.3	5923
2266.312	6025
2268.325	6045
2270.336	5840
2272.349	6000
2274.362	6125
2276.372	6018
2278.383	5989
2280.392	5996
2282.402	5897
2284.409	5986
2286.418	5937
2288.427	5937
2290.433	5989
2292.441	5987
2294.446	5923
2296.453	5905
2298.459	5972
2300.463	5963
2302.466	5806
2304.471	6016
2306.475	5985
2308.477	6010
2310.478	5968
2312.481	6003
2314.481	6006
2316.481	5938
2318.482	5936
2320.482	5927
2322.48	5956
2324.48	5985
2326.478	5891
2328.476	5887
2330.473	5846
2332.469	5850
2334.465	5894
2336.46	5827
2338.454	5774
2340.45	5854
2342.444	5944
2344.437	5876
2346.43	5938
2348.421	5786
2350.414	5816
2352.405	5903
2354.396	5901
2356.386	5919
2358.376	5797
2360.366	5882
2362.355	5870
2364.343	5961
2366.331	5809
2368.317	5781
2370.304	5815
2372.292	5858
2374.278	5813
2376.262	5930
2378.247	5715
2380.23	5887
2382.216	5858
2384.199	5709
2386.181	5808
2388.163	5772
2390.144	5784
2392.127	5799
2394.107	5804
2396.087	5778
2398.066	5762
2400.046	5845
2402.023	5709
2404.004	5824
2405.981	5720
2407.957	5792
2409.934	5712
2411.91	5740
2413.886	5668
2415.862	5712
2417.836	5751
2419.809	5719
2421.784	5750
2423.756	5798
2425.73	5778
2427.701	5726
2429.672	5706
2431.644	5735
2433.615	5831
2435.586	5671
2437.555	5835
2439.523	5805
2441.491	5690
2443.459	5751
2445.428	5783
2447.395	5806
2449.361	5718
2451.327	5703
2453.292	5655
2455.257	5724
2457.223	5714
2459.187	5696
2461.15	5750
2463.113	5674
2465.076	5664
2467.039	5733
2468.999	5832
2470.96	5608
2472.921	5685
2474.881	5700
2476.841	5697
2478.8	5622
2480.759	5739
2482.717	5698
2484.675	5675
2486.63	5627
2488.589	5665
2490.545	5751
2492.5	5654
2494.455	5717
2496.408	5653
2498.364	5678
2500.318	5654
2502.27	5744
2504.223	5672
2506.174	5751
2508.126	5663
2510.078	5642
2512.03	5512
2513.979	5654
2515.927	5670
2517.877	5729
2519.826	5660
2521.775	5581
2523.722	5555
2525.668	5702
2527.616	5608
2529.561	5651
2531.508	5643
2533.452	5644
2535.398	5618
2537.342	5646
2539.284	5635
2541.229	5647
2543.173	5618
2545.114	5469
2547.055	5671
2548.996	5671
2550.938	5670
2552.878	5597
2554.817	5621
2556.756	5644
2558.695	5727
2560.633	5650
2562.572	5610
2564.509	5592
2566.445	5660
2568.382	5537
2570.317	5616
2572.254	5560
2574.189	5702
2576.123	5535
2578.057	5492
2579.99	5602
2581.923	5549
2583.855	5632
2585.788	5621
2587.719	5540
2589.65	5678
2591.579	5575
2593.511	5652
2595.44	5547
2597.37	5631
2599.297	5596
2601.225	5620
2603.153	5605
2605.08	5522
2607.007	5572
2608.932	5641
2610.858	5556
2612.782	5523
2614.709	5747
2616.632	5585
2618.556	5620
2620.478	5594
2622.401	5645
2624.324	5611
2626.247	5541
2628.167	5566
2630.088	5580
2632.008	5632
2633.928	5590
2635.848	5653
2637.766	5705
2639.684	5710
2641.603	5507
2643.519	5720
2645.437	5626
2647.353	5553
2649.27	5572
2651.184	5705
2653.099	5623
2655.014	5603
2656.928	5581
2658.842	5661
2660.755	5672
2662.667	5666
2664.579	5658
2666.491	5593
2668.402	5565
2670.312	5637
2672.222	5668
2674.132	5449
2676.042	5546
2677.951	5552
2679.859	5504
2681.766	5509
2683.674	5600
2685.582	5520
2687.488	5586
2689.392	5558
2691.298	5454
2693.202	5480
2695.107	5541
2697.012	5510
2698.914	5537
2700.817	5492
2702.72	5504
2704.622	5506
2706.524	5460
2708.425	5487
2710.326	5486
2712.225	5523
2714.125	5449
2716.024	5512
2717.923	5537
2719.822	5541
2721.719	5557
2723.616	5463
2725.512	5481
2727.41	5524
2729.305	5433
2731.201	5417
2733.095	5441
2734.99	5647
2736.884	5435
2738.778	5529
2740.67	5533
2742.562	5387
2744.455	5518
2746.346	5475
2748.238	5523
2750.129	5544
2752.018	5475
2753.907	5438
2755.797	5525
2757.687	5617
2759.575	5430
2761.462	5410
2763.349	5468
2765.237	5381
2767.124	5495
2769.009	5413
2770.894	5435
2772.779	5421
2774.663	5564
2776.547	5445
2778.431	5498
2780.314	5468
2782.197	5477
2784.078	5540
2785.96	5403
2787.842	5477
2789.723	5390
2791.603	5511
2793.483	5466
2795.362	5411
2797.241	5459
2799.121	5383
2800.997	5451
2802.874	5527
2804.751	5406
2806.628	5362
2808.506	5337
2810.38	5473
2812.255	5502
2814.13	5435
2816.003	5415
2817.878	5488
2819.752	5571
2821.623	5470
2823.496	5503
2825.368	5365
2827.238	5373
2829.111	5437
2830.98	5442
2832.851	5531
2834.719	5365
2836.589	5530
2838.458	5365
2840.327	5512
2842.193	5508
2844.061	5463
2845.927	5498
2847.794	5456
2849.66	5468
2851.525	5525
2853.39	5538
2855.254	5557
2857.117	5544
2858.983	5593
2860.845	5646
2862.707	5676
2864.569	5713
2866.431	5616
2868.293	5762
2870.154	5817
2872.013	5885
2873.873	5905
2875.733	5975
2877.592	5964
2879.451	5981
2881.309	6078
2883.166	6094
2885.022	6174
2886.879	6211
2888.736	6172
2890.591	6175
2892.446	6318
2894.301	6296
2896.155	6349
2898.009	6294
2899.863	6298
2901.716	6180
2903.568	6228
2905.419	6155
2907.27	6246
2909.123	6224
2910.973	6136
2912.824	6217
2914.673	6355
2916.521	6362
2918.372	6439
2920.22	6543
2922.067	6486
2923.914	6607
2925.761	6548
2927.607	6642
2929.455	6650
2931.301	6701
2933.144	6774
2934.99	6680
2936.833	6814
2938.678	6939
2940.522	7043
2942.364	7105
2944.207	7114
2946.048	7350
2947.891	7432
2949.731	7389
2951.571	7424
2953.412	7268
2955.25	7189
2957.09	7152
2958.93	7106
2960.767	7048
2962.606	6993
2964.443	6859
2966.279	6931
2968.116	6615
2969.953	6582
2971.788	6473
2973.623	6426
2975.457	6317
2977.292	6326
2979.127	6168
2980.959	6208
2982.792	6075
2984.624	6100
2986.455	6094
2988.288	6045
2990.119	6023
2991.949	5959
2993.779	6029
2995.608	5834
2997.439	5744
2999.268	5815
3001.096	5692
3002.923	5686
3004.751	5588
3006.578	5689
3008.406	5553
3010.232	5562
3012.057	5396
3013.883	5454
3015.706	5492
3017.532	5333
3019.356	5326
3021.179	5330
3023.002	5286
3024.823	5337
3026.646	5345
3028.469	5259
3030.289	5308
3032.11	5129
3033.93	5225
3035.749	5333
3037.57	5187
3039.39	5132
3041.207	5207
3043.026	5096
3044.842	5277
3046.661	5143
3048.477	5192
3050.294	5196
3052.109	5206
3053.925	5214
3055.739	5065
3057.555	5219
3059.368	5061
3061.181	5213
3062.995	5159
3064.807	5089
3066.62	5176
3068.433	5150
3070.243	5110
3072.054	5102
3073.865	5231
3075.675	5126
3077.485	5088
3079.293	5198
3081.102	5129
3082.911	5057
3084.719	5035
3086.527	5095
3088.333	5037
3090.139	5074
3091.945	4962
3093.75	5067
3095.557	5015
3097.361	5062
3099.165	5035
3100.969	5038
3102.772	4996
3104.575	4993
3106.379	4952
3108.181	5032
3109.982	4984
3111.783	4984
3113.584	4917
3115.386	4897
3117.186	4975
3118.985	4952
3120.783	4847
3122.582	4910
3124.381	4942
3126.179	4905
3127.975	5016
3129.772	4908
3131.569	4892
3133.365	4863
3135.161	4911
3136.956	4893
3138.751	4970
3140.544	4832
3142.338	4962
3144.132	4933
3145.925	4940
3147.717	4910
3149.509	4873
3151.301	4872
3153.091	4908
3154.884	4762
3156.673	4852
3158.462	4806
3160.252	4898
3162.041	4874
3163.831	4861
3165.618	4851
3167.405	4823
3169.193	4735
3170.979	4872
3172.767	4791
3174.553	4826
3176.338	4803
3178.123	4929
3179.907	4803
3181.692	4783
3183.477	4742
3185.259	4861
3187.042	4808
3188.824	4753
3190.607	4803
3192.389	4825
3194.17	4754
3195.951	4869
3197.73	4743
3199.51	4862
3201.289	4742
3203.07	4717
3204.848	4836
3206.626	4770
3208.403	4773
3210.18	4808
3211.959	4785
3213.735	4831
3215.511	4747
3217.285	4723
3219.06	4772
3220.836	4853
3222.611	4789
3224.384	4758
3226.158	4736
3227.929	4729
3229.702	4817
3231.476	4849
3233.248	4833
3235.018	4815
3236.789	4789
3238.56	4830
3240.33	4794
3242.1	4739
3243.869	4827
3245.637	4709
3247.405	4700
3249.172	4754
3250.941	4744
3252.707	4835
3254.474	4791
3256.24	4799
3258.006	4649
3259.772	4864
3261.537	4775
3263.301	4822
3265.065	4771
3266.828	4708
3268.592	4821
3270.355	4786
3272.117	4866
3273.878	4724
3275.64	4732
3277.401	4788
3279.162	4764
3280.922	4738
3282.682	4771
3284.441	4768
3286.199	4770
3287.959	4795
3289.716	4732
3291.475	4795
3293.232	4784
3294.988	4797
3296.744	4785
3298.501	4616
3300.256	4764
3302.011	4800
3303.766	4785
3305.52	4757
3307.275	4755
3309.028	4793
3310.781	4741
3312.533	4747
3314.285	4684
3316.038	4755
3317.789	4753
3319.54	4788
3321.289	4718
3323.039	4836
3324.789	4684
3326.539	4704
3328.288	4730
3330.035	4676
3331.783	4743
3333.531	4673
3335.28	4770
3337.025	4714
3338.771	4635
3340.518	4623
3342.262	4610
3344.009	4748
3345.753	4655
3347.497	4719
3349.24	4662
3350.983	4619
3352.726	4674
3354.469	4693
3356.212	4616
3357.952	4602
3359.694	4702
3361.434	4618
3363.176	4601
3364.916	4694
3366.654	4564
3368.394	4599
3370.132	4663
3371.871	4620
3373.61	4570
3375.346	4529
3377.083	4633
3378.82	4562
3380.556	4608
3382.292	4583
3384.027	4605
3385.763	4534
3387.497	4510
3389.231	4550
3390.965	4592
3392.698	4535
3394.431	4456
3396.164	4568
3397.896	4533
3399.627	4433
3401.36	4472
3403.09	4590
3404.82	4548
3406.55	4582
3408.279	4491
3410.01	4516
3411.738	4565
3413.467	4516
3415.194	4516
3416.92	4463
3418.647	4407
3420.375	4458
3422.102	4481
3423.827	4476
3425.553	4479
3427.277	4547
3429.003	4560
3430.727	4311
3432.451	4425
3434.173	4488
3435.896	4395
3437.62	4497
3439.343	4543
3441.063	4404
3442.785	4431
3444.505	4368
3446.226	4417
3447.948	4427
3449.666	4463
3451.386	4438
3453.104	4429
3454.823	4450
3456.541	4393
3458.259	4275
3459.976	4412
3461.693	4310
3463.408	4313
3465.125	4382
3466.841	4263
3468.556	4339
3470.271	4243
3471.985	4372
3473.698	4225
3475.414	4236
3477.126	4384
3478.838	4257
3480.55	4286
3482.263	4246
3483.975	4202
3485.686	4261
3487.396	4237
3489.106	4218
3490.817	4156
3492.526	4171
3494.236	4174
3495.944	4196
3497.652	4265
3499.359	4155
3501.066	4272
3502.775	4196
3504.481	4091
3506.187	4177
3507.893	4135
3509.598	4164
3511.304	4138
3513.009	4086
3514.713	4092
3516.417	4097
3518.12	4239
3519.821	4111
3521.525	4074
3523.228	4114
3524.929	4092
3526.631	4052
3528.33	4076
3530.032	4038
3531.733	4034
3533.433	4098
3535.131	4018
3536.83	4047
3538.529	4185
3540.227	4103
3541.925	4082
3543.623	3982
3545.319	4003
3547.016	4109
3548.712	4083
3550.408	4053
3552.103	3987
3553.798	4040
3555.491	3971
3557.188	4080
3558.88	4044
3560.574	3959
3562.266	4086
3563.959	4048
3565.651	3959
3567.343	3873
3569.035	3908
3570.725	4009
3572.415	3953
3574.106	3966
3575.797	3942
3577.485	3962
3579.174	3982
3580.863	3936
3582.551	3987
3584.238	3854
3585.926	3887
3587.613	3904
3589.3	3934
3590.986	3930
3592.671	3964
3594.357	3830
3596.042	3843
3597.726	3838
3599.41	3910
3601.094	3917
3602.778	3884
3604.461	3846
3606.143	3862
3607.825	3777
3609.507	3848
3611.188	3797
3612.87	3772
3614.551	3811
3616.229	3755
3617.909	3861
3619.589	3822
3621.269	3788
3622.948	3745
3624.625	3779
3626.302	3817
3627.98	3708
3629.657	3835
3631.334	3678
3633.01	3722
3634.686	3773
3636.361	3654
3638.036	3696
3639.712	3743
3641.385	3754
3643.06	3591
3644.732	3743
3646.405	3685
3648.08	3741
3649.751	3721
3651.424	3664
3653.094	3670
3654.766	3665
3656.436	3582
3658.106	3667
3659.777	3622
3661.446	3625
3663.115	3705
3664.783	3677
3666.452	3638
3668.121	3601
3669.788	3584
3671.454	3681
3673.121	3655
3674.789	3623
3676.455	3588
3678.12	3587
3679.784	3643
3681.45	3597
3683.114	3555
3684.779	3557
3686.442	3571
3688.105	3575
3689.768	3594
3691.43	3614
3693.093	3502
3694.754	3630
3696.415	3549
3698.076	3671
3699.736	3540
3701.396	3594
3703.057	3586
3704.716	3577
3706.375	3552
3708.034	3518
3709.692	3579
3711.351	3556
3713.008	3561
3714.665	3551
3716.321	3486
3717.977	3535
3719.634	3557
3721.29	3565
3722.945	3437
3724.598	3522
3726.253	3505
3727.907	3592
3729.561	3529
3731.214	3572
3732.867	3425
3734.518	3530
3736.171	3511
3737.824	3559
3739.474	3511
3741.125	3457
3742.775	3476
3744.425	3491
3746.074	3602
3747.725	3451
3749.373	3501
3751.022	3452
3752.669	3488
3754.318	3482
3755.966	3424
3757.612	3465
3759.259	3403
3760.905	3471
3762.55	3350
3764.197	3423
3765.842	3464
3767.486	3450
3769.131	3395
3770.774	3467
3772.417	3507
3774.061	3392
3775.705	3407
3777.347	3513
3778.988	3357
3780.629	3421
3782.271	3401
3783.912	3428
3785.552	3394
3787.192	3392
3788.831	3403
3790.472	3363
3792.112	3382
3793.75	3435
3795.388	3340
3797.024	3397
3798.661	3367
3800.3	3336
3801.936	3341
3803.572	3326
3805.208	3363
3806.844	3324
3808.48	3342
3810.115	3408
3811.748	3294
3813.382	3334
3815.016	3401
3816.649	3329
3818.283	3340
3819.914	3332
3821.547	3319
3823.178	3315
3824.809	3352
3826.441	3347
3828.072	3373
3829.701	3299
3831.331	3340
3832.96	3277
3834.591	3245
3836.219	3266
3837.847	3291
3839.475	3330
3841.102	3261
3842.729	3291
3844.357	3276
3845.984	3328
3847.609	3288
3849.234	3305
3850.86	3318
3852.485	3292
3854.11	3235
3855.734	3272
3857.357	3252
3858.981	3201
3860.603	3240
3862.227	3249
3863.848	3225
3865.471	3237
3867.092	3247
3868.713	3295
3870.334	3183
3871.954	3232
3873.575	3251
3875.194	3262
3876.813	3264
3878.433	3279
3880.051	3223
3881.669	3240
3883.286	3173
3884.904	3194
3886.52	3202
3888.138	3283
3889.754	3238
3891.37	3234
3892.985	3156
3894.6	3139
3896.216	3185
3897.831	3233
3899.444	3207
3901.058	3140
3902.67	3157
3904.283	3178
3905.897	3179
3907.509	3175
3909.121	3205
3910.731	3143
3912.342	3229
3913.954	3151
3915.563	3218
3917.174	3156
3918.783	3178
3920.391	3190
3922.002	3152
3923.611	3132
3925.218	3208
3926.826	3072
3928.432	3128
3930.039	3127
3931.647	3145
3933.253	3139
3934.859	3088
3936.464	3125
3938.068	3149
3939.675	3180
3941.278	3123
3942.883	3151
3944.486	3089
3946.089	3140
3947.692	3138
3949.295	3132
3950.898	3088
3952.499	3154
3954.1	3096
3955.7	3096
3957.303	3135
3958.903	3079
3960.502	3061
3962.101	3044
3963.7	3058
3965.301	3054
3966.899	3050
3968.497	3112
3970.094	3086
3971.691	3056
3973.288	3139
3974.885	3060
3976.481	3050
3978.077	3136
3979.672	3034
3981.267	3061
3982.863	3086
3984.457	2994
3986.051	2997
3987.645	2970
3989.238	3051
3990.831	3010
3992.425	3121
3994.017	3015
3995.607	3035
3997.199	2972
3998.79	2949
4000.382	3022
4001.973	3029
4003.561	3010
4005.151	2992
4006.741	2990
4008.331	2945
4009.918	2969
4011.507	2928
4013.095	2973
4014.681	2974
4016.269	3015
4017.856	2968
4019.443	3025
4021.028	2898
4022.614	2878
4024.199	2954
4025.785	2975
4027.37	2923
4028.953	2955
4030.536	2944
4032.12	2828
4033.704	2934
4035.287	2932
4036.869	2942
4038.45	2972
4040.032	2994
4041.613	2969
4043.195	2888
4044.776	2897
4046.356	2960
4047.935	2888
4049.515	2910
4051.095	2913
4052.674	2879
4054.251	2968
4055.829	2902
4057.406	2933
4058.985	2860
4060.562	2925
4062.139	2879
4063.715	2868
4065.29	2812
4066.865	2878
4068.442	2799
4070.016	2875
4071.59	2819
4073.164	2832
4074.738	2804
4076.312	2829
4077.885	2786
4079.458	2813
4081.03	2809
4082.602	2835
4084.173	2834
4085.745	2830
4087.315	2757
4088.886	2831
4090.456	2876
4092.026	2798
4093.596	2807
4095.165	2780
4096.734	2790
4098.301	2808
4099.869	2848
4101.437	2812
4103.006	2768
4104.572	2769
4106.139	2792
4107.704	2849
4109.27	2797
4110.837	2797
4112.401	2776
4113.966	2739
4115.53	2774
4117.094	2753
4118.659	2755
4120.223	2817
4121.785	2729
4123.347	2798
4124.909	2756
4126.471	2739
4128.034	2719
4129.595	2695
4131.155	2781
4132.716	2692
4134.275	2813
4135.836	2687
4137.395	2762
4138.955	2682
4140.513	2755
4142.071	2666
4143.628	2705
4145.188	2697
4146.745	2743
4148.302	2691
4149.858	2662
4151.414	2651
4152.971	2665
4154.526	2664
4156.081	2711
4157.635	2672
4159.189	2703
4160.745	2681
4162.298	2705
4163.852	2709
4165.405	2689
4166.957	2645
4168.51	2599
4170.063	2717
4171.614	2673
4173.166	2728
4174.717	2653
4176.267	2650
4177.817	2633
4179.368	2649
4180.917	2606
4182.466	2654
4184.016	2665
4185.564	2649
4187.112	2653
4188.66	2628
4190.207	2625
4191.754	2532
4193.301	2585
4194.848	2630
4196.394	2537
4197.94	2606
4199.484	2545
4201.03	2593
4202.575	2611
4204.12	2611
4205.663	2541
4207.207	2613
4208.75	2607
4210.292	2642
4211.836	2615
4213.378	2599
4214.92	2555
4216.46	2614
4218.002	2517
4219.544	2577
4221.083	2534
4222.625	2572
4224.164	2548
4225.703	2443
4227.244	2541
4228.782	2606
4230.32	2604
4231.857	2585
4233.395	2573
4234.933	2511
4236.471	2597
4238.007	2560
4239.542	2540
4241.078	2562
4242.614	2607
4244.15	2565
4245.685	2544
4247.219	2595
4248.753	2527
4250.287	2523
4251.82	2548
4253.354	2466
4254.887	2493
4256.419	2416
4257.951	2509
4259.483	2457
4261.016	2503
4262.547	2535
4264.078	2500
4265.608	2479
4267.137	2557
4268.668	2506
4270.197	2447
4271.727	2438
4273.254	2473
4274.783	2534
4276.311	2531
4277.84	2448
4279.366	2471
4280.894	2461
4282.42	2424
4283.946	2472
4285.473	2526
4286.998	2492
4288.523	2482
4290.047	2481
4291.572	2431
4293.096	2457
4294.622	2412
4296.144	2477
4297.668	2447
4299.19	2447
4300.713	2417
4302.236	2402
4303.758	2442
4305.279	2420
4306.799	2489
4308.321	2419
4309.842	2447
4311.361	2426
4312.882	2514
4314.401	2433
