400.0961	1783
402.6185	1737
405.1424	1748
407.6635	1718
410.1838	1808
412.7035	1791
415.2225	1816
417.7388	1821
420.2585	1799
422.7754	1836
425.2917	1799
427.8072	1834
430.3221	1875
432.8363	1854
435.3498	1846
437.8626	1841
440.3727	1862
442.8841	1823
445.3969	1923
447.907	1858
450.4142	1852
452.9229	1831
455.4289	1916
457.9362	1912
460.4449	1898
462.9488	1918
465.454	1953
467.9566	1897
470.4604	1899
472.9637	1907
475.4662	1921
477.966	1919
480.4671	1949
482.9656	1897
485.4633	1900
487.9645	1922
490.4608	2027
492.9566	1947
495.4536	1927
497.948	1941
500.4437	1905
502.9387	1973
505.431	1972
507.9226	1919
510.4136	2001
512.9079	1909
515.3975	2035
517.8864	1996
520.3746	2043
522.8622	2007
525.3491	1996
527.8394	2017
530.3249	1985
532.8098	1954
535.2939	1977
537.7774	1989
540.2623	1975
542.7444	1952
545.2259	1990
547.7067	1994
550.1868	1966
552.6683	2004
555.147	2015
557.6231	1981
560.1005	1989
562.5773	1955
565.0534	2008
567.5308	2027
570.0056	1995
572.4776	1989
574.951	1990
577.4237	2005
579.8978	2039
582.3671	2077
584.8378	2000
587.3079	2087
589.7773	2054
592.244	2009
594.714	2002
597.1793	2042
599.6461	2024
602.1121	2049
604.5754	2024
607.0421	2026
609.5042	2064
611.9675	1990
614.4282	1995
616.8902	2090
619.3515	2024
621.8122	2028
624.2702	2010
626.7296	2026
629.1863	2032
631.6423	2047
634.1017	2113
636.5563	2122
639.0104	2024
641.4658	2071
643.9185	2089
646.3725	2126
648.8239	2110
651.2766	2106
653.7266	2090
656.176	2074
658.6247	2083
661.0748	2062
663.5242	2134
665.9709	2143
668.417	2073
670.8624	2094
673.3092	2089
675.7533	2108
678.1968	2120
680.6395	2197
683.0817	2121
685.5251	2086
687.9659	2132
690.4061	2115
692.8456	2132
695.2844	2133
697.7226	2113
700.1621	2122
702.599	2142
705.0332	2164
707.4688	2099
709.9036	2100
712.3399	2182
714.7735	2162
717.2044	2151
719.6367	2193
722.0683	2167
724.4993	2201
726.9296	2198
729.3593	2190
731.7883	2171
734.2147	2196
736.6423	2187
739.0714	2149
741.4958	2184
743.9216	2244
746.3447	2246
748.7691	2182
751.1929	2198
753.616	2226
756.0366	2245
758.4584	2234
760.8776	2147
763.2982	2228
765.718	2286
768.1373	2231
770.5539	2293
772.9698	2298
775.3871	2233
777.8038	2248
780.2178	2294
782.6332	2234
785.0459	2277
787.458	2235
789.8714	2254
792.2842	2288
794.6943	2270
797.1038	2286
799.5127	2276
801.9209	2296
804.3324	2248
806.7393	2259
809.1456	2249
811.5513	2316
813.9562	2249
816.3625	2282
818.7663	2229
821.1693	2266
823.5718	2258
825.9735	2282
828.3746	2301
830.7771	2281
833.177	2268
835.5762	2310
837.9747	2322
840.3727	2283
842.772	2349
845.1666	2283
847.5626	2226
849.958	2299
852.3527	2231
854.7488	2224
857.1403	2287
859.5331	2329
861.9253	2299
864.3168	2267
866.7057	2248
869.098	2283
871.4876	2288
873.8746	2254
876.263	2307
878.6487	2245
881.0378	2302
883.4243	2268
885.8081	2287
888.1933	2270
890.5759	2230
892.9598	2279
895.343	2276
897.7256	2274
900.1057	2251
902.4871	2311
904.8659	2287
907.246	2254
909.6254	2323
912.0023	2239
914.3786	2376
916.7562	2265
919.1331	2283
921.5074	2328
923.8831	2322
926.2562	2327
928.6287	2334
931.0005	2385
933.3757	2333
935.7462	2424
938.1162	2346
940.4855	2347
942.8542	2348
945.2242	2376
947.5916	2368
949.9584	2371
952.3266	2382
954.6921	2371
957.0571	2352
959.4233	2334
961.787	2329
964.15	2360
966.5125	2431
968.8742	2380
971.2354	2393
973.5959	2324
975.9559	2393
978.3151	2329
980.6738	2389
983.0338	2361
985.3912	2403
987.7461	2376
990.1022	2374
992.4578	2370
994.8127	2306
997.1689	2342
999.5207	2422
1001.874	2384
1004.226	2419
1006.576	2329
1008.929	2382
1011.28	2382
1013.628	2330
1015.977	2342
1018.324	2336
1020.674	2423
1023.019	2439
1025.366	2446
1027.713	2352
1030.056	2387
1032.399	2352
1034.746	2410
1037.087	2378
1039.431	2374
1041.771	2416
1044.113	2408
1046.454	2407
1048.793	2378
1051.133	2376
1053.471	2346
1055.807	2400
1058.146	2367
1060.483	2382
1062.818	2480
1065.153	2443
1067.489	2378
1069.822	2417
1072.156	2433
1074.488	2408
1076.82	2404
1079.15	2403
1081.48	2408
1083.814	2459
1086.143	2399
1088.471	2476
1090.799	2455
1093.126	2427
1095.452	2449
1097.78	2436
1100.105	2433
1102.43	2370
1104.754	2482
1107.077	2425
1109.4	2407
1111.722	2471
1114.044	2461
1116.365	2391
1118.685	2417
1121.005	2464
1123.324	2511
1125.643	2468
1127.961	2490
1130.278	2467
1132.595	2451
1134.911	2465
1137.226	2446
1139.541	2517
1141.854	2495
1144.167	2494
1146.482	2457
1148.793	2401
1151.105	2509
1153.414	2498
1155.725	2534
1158.033	2491
1160.344	2503
1162.651	2489
1164.959	2448
1167.265	2447
1169.572	2486
1171.878	2482
1174.184	2377
1176.488	2495
1178.79	2480
1181.094	2467
1183.396	2487
1185.699	2446
1188.001	2482
1190.301	2434
1192.6	2488
1194.9	2473
1197.2	2476
1199.497	2531
1201.794	2414
1204.09	2441
1206.387	2471
1208.684	2492
1210.978	2447
1213.272	2393
1215.565	2450
1217.858	2460
1220.15	2502
1222.443	2492
1224.734	2487
1227.024	2470
1229.313	2555
1231.602	2555
1233.892	2470
1236.18	2539
1238.467	2526
1240.754	2480
1243.04	2504
1245.325	2509
1247.612	2514
1249.896	2498
1252.178	2514
1254.461	2555
1256.743	2482
1259.027	2517
1261.308	2525
1263.587	2571
1265.867	2507
1268.146	2556
1270.425	2507
1272.703	2528
1274.981	2551
1277.256	2534
1279.532	2593
1281.808	2543
1284.083	2570
1286.358	2535
1288.63	2605
1290.904	2505
1293.175	2498
1295.449	2514
1297.719	2556
1299.99	2456
1302.259	2536
1304.529	2547
1306.798	2565
1309.065	2487
1311.333	2555
1313.599	2504
1315.866	2492
1318.131	2537
1320.396	2555
1322.66	2510
1324.925	2458
1327.187	2485
1329.448	2532
1331.711	2641
1333.974	2593
1336.234	2544
1338.493	2568
1340.752	2515
1343.01	2492
1345.269	2582
1347.526	2537
1349.784	2548
1352.04	2529
1354.295	2527
1356.552	2547
1358.806	2527
1361.059	2605
1363.312	2609
1365.564	2518
1367.818	2588
1370.069	2586
1372.318	2485
1374.568	2565
1376.817	2553
1379.066	2563
1381.316	2520
1383.564	2565
1385.809	2535
1388.056	2523
1390.301	2564
1392.549	2550
1394.793	2553
1397.036	2593
1399.279	2613
1401.522	2520
1403.763	2593
1406.007	2611
1408.248	2577
1410.487	2502
1412.727	2551
1414.965	2578
1417.205	2607
1419.442	2539
1421.68	2603
1423.915	2594
1426.152	2625
1428.388	2631
1430.623	2596
1432.857	2605
1435.091	2579
1437.323	2606
1439.556	2611
1441.789	2643
1444.019	2636
1446.25	2636
1448.48	2599
1450.708	2610
1452.938	2575
1455.167	2598
1457.394	2656
1459.62	2618
1461.846	2600
1464.073	2686
1466.299	2611
1468.523	2614
1470.746	2599
1472.969	2576
1475.191	2609
1477.415	2569
1479.636	2618
1481.858	2609
1484.078	2613
1486.298	2523
1488.518	2593
1490.736	2553
1492.954	2542
1495.169	2585
1497.386	2599
1499.602	2553
1501.819	2603
1504.034	2575
1506.248	2572
1508.462	2576
1510.675	2597
1512.888	2550
1515.1	2643
1517.311	2620
1519.522	2564
1521.732	2575
1523.942	2588
1526.151	2566
1528.36	2530
1530.566	2545
1532.773	2562
1534.98	2597
1537.187	2575
1539.392	2585
1541.596	2574
1543.801	2572
1546.005	2570
1548.208	2488
1550.411	2529
1552.612	2658
1554.814	2570
1557.013	2592
1559.212	2565
1561.414	2697
1563.612	2639
1565.811	2696
1568.007	2637
1570.203	2603
1572.403	2627
1574.598	2659
1576.792	2654
1578.988	2720
1581.181	2650
1583.376	2695
1585.568	2647
1587.761	2647
1589.952	2649
1592.143	2667
1594.333	2710
1596.524	2653
1598.715	2679
1600.903	2638
1603.091	2710
1605.278	2706
1607.466	2614
1609.652	2690
1611.838	2660
1614.023	2613
1616.207	2667
1618.391	2709
1620.576	2626
1622.759	2670
1624.941	2659
1627.123	2637
1629.304	2662
1631.484	2691
1633.664	2661
1635.844	2665
1638.022	2650
1640.201	2686
1642.38	2719
1644.556	2658
1646.732	2618
1648.908	2683
1651.084	2716
1653.257	2680
1655.433	2691
1657.607	2660
1659.779	2663
1661.951	2666
1664.122	2637
1666.295	2656
1668.467	2662
1670.635	2649
1672.805	2641
1674.973	2618
1677.142	2622
1679.31	2730
1681.478	2665
1683.644	2700
1685.81	2687
1687.975	2652
1690.142	2586
1692.305	2598
1694.468	2680
1696.632	2635
1698.794	2622
1700.957	2636
1703.119	2699
1705.279	2616
1707.439	2706
1709.598	2633
1711.758	2652
1713.917	2609
1716.075	2692
1718.231	2661
1720.388	2643
1722.543	2654
1724.702	2624
1726.856	2668
1729.01	2723
1731.164	2663
1733.317	2621
1735.471	2733
1737.623	2694
1739.774	2666
1741.925	2615
1744.075	2709
1746.225	2693
1748.376	2617
1750.524	2749
1752.672	2683
1754.82	2663
1756.965	2666
1759.113	2611
1761.259	2700
1763.405	2703
1765.549	2689
1767.694	2626
1769.836	2693
1771.981	2706
1774.123	2707
1776.264	2717
1778.405	2707
1780.546	2625
1782.687	2682
1784.827	2715
1786.966	2672
1789.103	2698
1791.242	2700
1793.381	2697
1795.517	2637
1797.653	2640
1799.788	2717
1801.923	2718
1804.057	2672
1806.193	2710
1808.326	2649
1810.457	2705
1812.59	2631
1814.721	2672
1816.855	2690
1818.984	2697
1821.113	2673
1823.244	2727
1825.372	2723
1827.499	2713
1829.63	2661
1831.756	2679
1833.882	2693
1836.007	2671
1838.132	2657
1840.26	2683
1842.384	2638
1844.507	2654
1846.63	2632
1848.752	2693
1850.875	2638
1852.996	2662
1855.118	2660
1857.238	2613
1859.358	2663
1861.477	2689
1863.597	2689
1865.715	2607
1867.832	2534
1869.948	2649
1872.064	2674
1874.181	2631
1876.297	2657
1878.411	2598
1880.526	2600
1882.639	2704
1884.752	2632
1886.865	2661
1888.977	2598
1891.089	2660
1893.2	2620
1895.308	2713
1897.42	2751
1899.53	2608
1901.639	2610
1903.745	2642
1905.853	2667
1907.962	2686
1910.067	2657
1912.174	2669
1914.278	2606
1916.383	2636
1918.486	2737
1920.592	2727
1922.694	2741
1924.797	2678
1926.898	2660
1929	2741
1931.102	2701
1933.203	2761
1935.301	2762
1937.401	2613
1939.499	2716
1941.598	2683
1943.697	2641
1945.793	2662
1947.888	2679
1949.985	2735
1952.08	2655
1954.176	2630
1956.269	2678
1958.364	2645
1960.457	2702
1962.549	2644
1964.642	2658
1966.733	2641
1968.823	2681
1970.913	2683
1973.005	2710
1975.093	2629
1977.184	2669
1979.271	2652
1981.359	2654
1983.446	2661
1985.532	2636
1987.619	2658
1989.705	2689
1991.789	2702
1993.874	2685
1995.956	2724
1998.041	2659
2000.123	2607
2002.206	2646
2004.287	2616
2006.368	2657
2008.449	2641
2010.529	2674
2012.609	2625
2014.688	2663
2016.766	2611
2018.843	2605
2020.922	2627
2022.999	2570
2025.074	2625
2027.15	2666
2029.225	2618
2031.299	2572
2033.375	2583
2035.447	2609
2037.52	2607
2039.592	2613
2041.664	2649
2043.736	2624
2045.807	2608
2047.876	2631
2049.947	2560
2052.015	2649
2054.086	2588
2056.153	2669
2058.221	2611
2060.288	2607
2062.353	2573
2064.42	2647
2066.486	2680
2068.55	2678
2070.614	2646
2072.678	2705
2074.741	2645
2076.805	2558
2078.866	2618
2080.929	2625
2082.99	2645
2085.049	2677
2087.109	2621
2089.17	2655
2091.228	2619
2093.286	2619
2095.344	2666
2097.4	2614
2099.46	2634
2101.516	2631
2103.572	2589
2105.626	2661
2107.679	2577
2109.735	2578
2111.788	2655
2113.841	2593
2115.894	2632
2117.945	2580
2119.997	2627
2122.049	2579
2124.1	2582
2126.148	2634
2128.197	2569
2130.246	2651
2132.296	2622
2134.342	2627
2136.39	2647
2138.437	2621
2140.483	2618
2142.527	2570
2144.574	2613
2146.619	2665
2148.661	2627
2150.705	2556
2152.747	2570
2154.792	2571
2156.832	2667
2158.874	2594
2160.915	2590
2162.954	2614
2164.995	2587
2167.034	2532
2169.072	2621
2171.111	2487
2173.148	2533
2175.186	2608
2177.223	2554
2179.258	2534
2181.294	2574
2183.328	2548
2185.362	2503
2187.398	2667
2189.431	2595
2191.463	2571
2193.495	2565
2195.528	2471
2197.56	2565
2199.59	2500
2201.62	2603
2203.649	2560
2205.678	2499
2207.708	2483
2209.737	2552
2211.764	2559
2213.791	2566
2215.817	2567
2217.843	2516
2219.87	2512
2221.895	2519
2223.919	2526
2225.942	2499
2227.966	2527
2229.988	2559
2232.012	2603
2234.032	2535
2236.054	2594
2238.074	2440
2240.095	2536
2242.116	2524
2244.135	2502
2246.153	2562
2248.171	2559
2250.188	2587
2252.208	2578
2254.223	2522
2256.239	2501
2258.255	2486
2260.269	2536
2262.283	2525
2264.3	2550
2266.312	2528
2268.325	2509
2270.336	2534
2272.349	2473
2274.362	2561
2276.372	2488
2278.383	2494
2280.392	2541
2282.402	2462
2284.409	2529
2286.418	2481
2288.427	2613
2290.433	2561
2292.441	2527
2294.446	2526
2296.453	2490
2298.459	2566
2300.463	2549
2302.466	2518
2304.471	2475
2306.475	2543
2308.477	2568
2310.478	2511
2312.481	2559
2314.481	2540
2316.481	2484
2318.482	2454
2320.482	2485
2322.48	2510
2324.48	2527
2326.478	2556
2328.476	2486
2330.473	2483
2332.469	2513
2334.465	2457
2336.46	2517
2338.454	2442
2340.45	2489
2342.444	2507
2344.437	2492
2346.43	2507
2348.421	2437
2350.414	2424
2352.405	2501
2354.396	2460
2356.386	2507
2358.376	2437
2360.366	2489
2362.355	2517
2364.343	2462
2366.331	2417
2368.317	2450
2370.304	2497
2372.292	2441
2374.278	2444
2376.262	2482
2378.247	2473
2380.23	2488
2382.216	2433
2384.199	2455
2386.181	2437
2388.163	2468
2390.144	2391
2392.127	2485
2394.107	2448
2396.087	2421
2398.066	2420
2400.046	2470
2402.023	2475
2404.004	2412
2405.981	2471
2407.957	2387
2409.934	2390
2411.91	2463
2413.886	2487
2415.862	2463
2417.836	2467
2419.809	2478
2421.784	2401
2423.756	2494
2425.73	2408
2427.701	2416
2429.672	2377
2431.644	2424
2433.615	2375
2435.586	2445
2437.555	2407
2439.523	2442
2441.491	2388
2443.459	2470
2445.428	2479
2447.395	2464
2449.361	2446
2451.327	2407
2453.292	2415
2455.257	2384
2457.223	2457
2459.187	2376
2461.15	2457
2463.113	2434
2465.076	2427
2467.039	2431
2468.999	2407
2470.96	2349
2472.921	2432
2474.881	2426
2476.841	2380
2478.8	2411
2480.759	2405
2482.717	2433
2484.675	2422
2486.63	2366
2488.589	2325
2490.545	2475
2492.5	2377
2494.455	2410
2496.408	2383
2498.364	2362
2500.318	2438
2502.27	2336
2504.223	2329
2506.174	2412
2508.126	2403
2510.078	2360
2512.03	2376
2513.979	2394
2515.927	2371
2517.877	2356
2519.826	2407
2521.775	2350
2523.722	2352
2525.668	2358
2527.616	2365
2529.561	2326
2531.508	2366
2533.452	2373
2535.398	2368
2537.342	2360
2539.284	2379
2541.229	2332
2543.173	2360
2545.114	2334
2547.055	2424
2548.996	2321
2550.938	2375
2552.878	2351
2554.817	2359
2556.756	2339
2558.695	2339
2560.633	2354
2562.572	2386
2564.509	2362
2566.445	2402
2568.382	2375
2570.317	2325
2572.254	2376
2574.189	2374
2576.123	2311
2578.057	2330
2579.99	2334
2581.923	2364
2583.855	2329
2585.788	2345
2587.719	2404
2589.65	2403
2591.579	2420
2593.511	2431
2595.44	2410
2597.37	2338
2599.297	2387
2601.225	2342
2603.153	2347
2605.08	2375
2607.007	2442
2608.932	2383
2610.858	2386
2612.782	2371
2614.709	2386
2616.632	2425
2618.556	2348
2620.478	2370
2622.401	2390
2624.324	2329
2626.247	2437
2628.167	2406
2630.088	2373
2632.008	2306
2633.928	2376
2635.848	2388
2637.766	2320
2639.684	2412
2641.603	2373
2643.519	2376
2645.437	2423
2647.353	2330
2649.27	2385
2651.184	2386
2653.099	2447
2655.014	2402
2656.928	2337
2658.842	2348
2660.755	2324
2662.667	2387
2664.579	2345
2666.491	2318
2668.402	2366
2670.312	2313
2672.222	2370
2674.132	2301
2676.042	2320
2677.951	2323
2679.859	2336
2681.766	2376
2683.674	2319
2685.582	2314
2687.488	2374
2689.392	2368
2691.298	2303
2693.202	2366
2695.107	2292
2697.012	2331
2698.914	2343
2700.817	2329
2702.72	2335
2704.622	2311
2706.524	2299
2708.425	2395
2710.326	2329
2712.225	2336
2714.125	2385
2716.024	2315
2717.923	2334
2719.822	2330
2721.719	2298
2723.616	2321
2725.512	2329
2727.41	2321
2729.305	2345
2731.201	2319
2733.095	2307
2734.99	2319
2736.884	2329
2738.778	2306
2740.67	2338
2742.562	2253
2744.455	2302
2746.346	2293
2748.238	2313
2750.129	2386
2752.018	2276
2753.907	2305
2755.797	2294
2757.687	2311
2759.575	2270
2761.462	2342
2763.349	2315
2765.237	2387
2767.124	2306
2769.009	2246
2770.894	2302
2772.779	2212
2774.663	2258
2776.547	2298
2778.431	2299
2780.314	2318
2782.197	2254
2784.078	2324
2785.96	2280
2787.842	2244
2789.723	2272
2791.603	2295
2793.483	2322
2795.362	2256
2797.241	2311
2799.121	2308
2800.997	2289
2802.874	2298
2804.751	2216
2806.628	2254
2808.506	2265
2810.38	2274
2812.255	2253
2814.13	2239
2816.003	2314
2817.878	2233
2819.752	2293
2821.623	2333
2823.496	2256
2825.368	2245
2827.238	2253
2829.111	2256
2830.98	2235
2832.851	2206
2834.719	2280
2836.589	2230
2838.458	2245
2840.327	2221
2842.193	2228
2844.061	2176
2845.927	2279
2847.794	2204
2849.66	2297
2851.525	2227
2853.39	2211
2855.254	2231
2857.117	2320
2858.983	2235
2860.845	2242
2862.707	2287
2864.569	2253
2866.431	2315
2868.293	2264
2870.154	2257
2872.013	2248
2873.873	2285
2875.733	2238
2877.592	2191
2879.451	2236
2881.309	2246
2883.166	2253
2885.022	2227
2886.879	2265
2888.736	2221
2890.591	2278
2892.446	2199
2894.301	2226
2896.155	2230
2898.009	2233
2899.863	2229
2901.716	2213
2903.568	2257
2905.419	2278
2907.27	2240
2909.123	2203
2910.973	2220
2912.824	2206
2914.673	2175
2916.521	2160
2918.372	2238
2920.22	2187
2922.067	2153
2923.914	2186
2925.761	2222
2927.607	2170
2929.455	2209
2931.301	2194
2933.144	2182
2934.99	2232
2936.833	2193
2938.678	2204
2940.522	2202
2942.364	2243
2944.207	2162
2946.048	2210
2947.891	2200
2949.731	2174
2951.571	2179
2953.412	2216
2955.25	2208
2957.09	2268
2958.93	2234
2960.767	2203
2962.606	2197
2964.443	2196
2966.279	2174
2968.116	2185
2969.953	2159
2971.788	2146
2973.623	2178
2975.457	2191
2977.292	2194
2979.127	2176
2980.959	2181
2982.792	2204
2984.624	2187
2986.455	2116
2988.288	2174
2990.119	2134
2991.949	2182
2993.779	2118
2995.608	2166
2997.439	2200
2999.268	2158
3001.096	2157
3002.923	2173
3004.751	2137
3006.578	2214
3008.406	2176
3010.232	2131
3012.057	2169
3013.883	2149
3015.706	2174
3017.532	2135
3019.356	2166
3021.179	2198
3023.002	2091
3024.823	2178
3026.646	2167
3028.469	2159
3030.289	2177
3032.11	2152
3033.93	2103
3035.749	2139
3037.57	2184
3039.39	2157
3041.207	2114
3043.026	2157
3044.842	2190
3046.661	2191
3048.477	2122
3050.294	2103
3052.109	2149
3053.925	2107
3055.739	2106
3057.555	2153
3059.368	2145
3061.181	2117
3062.995	2072
3064.807	2135
3066.62	2105
3068.433	2060
3070.243	2125
3072.054	2139
3073.865	2138
3075.675	2063
3077.485	2043
3079.293	2111
3081.102	2080
3082.911	2116
3084.719	2024
3086.527	2156
3088.333	2061
3090.139	2047
3091.945	2052
3093.75	2070
3095.557	2048
3097.361	2014
3099.165	2058
3100.969	2029
3102.772	2050
3104.575	2005
3106.379	2062
3108.181	2089
3109.982	2049
3111.783	1998
3113.584	2042
3115.386	2027
3117.186	1979
3118.985	2031
3120.783	1999
3122.582	2038
3124.381	2053
3126.179	2015
3127.975	2037
3129.772	1954
3131.569	2030
3133.365	2026
3135.161	2001
3136.956	2031
3138.751	1990
3140.544	2033
3142.338	1989
3144.132	1948
3145.925	1970
3147.717	2001
3149.509	2033
3151.301	1988
3153.091	2048
3154.884	1962
3156.673	1982
3158.462	2003
3160.252	2025
3162.041	2030
3163.831	1984
3165.618	1942
3167.405	1999
3169.193	1923
3170.979	2043
3172.767	1946
3174.553	1975
3176.338	1993
3178.123	1954
3179.907	1978
3181.692	1954
3183.477	1890
3185.259	1989
3187.042	1972
3188.824	2010
3190.607	1910
3192.389	1966
3194.17	1955
3195.951	1980
3197.73	1896
3199.51	1949
3201.289	1977
3203.07	1920
3204.848	1996
3206.626	1908
3208.403	1945
3210.18	1944
3211.959	1968
3213.735	1952
3215.511	1937
3217.285	1901
3219.06	1949
3220.836	1949
3222.611	1953
3224.384	1902
3226.158	1935
3227.929	1881
3229.702	1971
3231.476	1898
3233.248	1897
3235.018	1915
3236.789	1878
3238.56	1886
3240.33	1935
3242.1	1955
3243.869	1901
3245.637	1883
3247.405	1882
3249.172	1895
3250.941	1908
3252.707	1843
3254.474	1943
3256.24	1941
3258.006	1905
3259.772	1917
3261.537	1918
3263.301	1947
3265.065	1917
3266.828	1897
3268.592	1907
3270.355	1915
3272.117	1885
3273.878	1882
3275.64	1883
3277.401	1867
3279.162	1900
3280.922	1879
3282.682	1864
3284.441	1914
3286.199	1806
3287.959	1891
3289.716	1880
3291.475	1829
3293.232	1887
3294.988	1889
3296.744	1899
3298.501	1874
3300.256	1861
3302.011	1888
3303.766	1851
3305.52	1895
3307.275	1846
3309.028	1928
3310.781	1912
3312.533	1847
3314.285	1889
3316.038	1809
3317.789	1825
3319.54	1823
3321.289	1837
3323.039	1851
3324.789	1823
3326.539	1876
3328.288	1872
3330.035	1820
3331.783	1876
3333.531	1845
3335.28	1821
3337.025	1831
3338.771	1877
3340.518	1853
3342.262	1871
3344.009	1857
3345.753	1828
3347.497	1803
3349.24	1847
3350.983	1853
3352.726	1852
3354.469	1869
3356.212	1877
3357.952	1835
3359.694	1796
3361.434	1891
3363.176	1837
3364.916	1864
3366.654	1812
3368.394	1864
3370.132	1828
3371.871	1852
3373.61	1843
3375.346	1859
3377.083	1818
3378.82	1831
3380.556	1826
3382.292	1785
3384.027	1835
3385.763	1859
3387.497	1839
3389.231	1813
3390.965	1823
3392.698	1808
3394.431	1859
3396.164	1860
3397.896	1849
3399.627	1868
3401.36	1821
3403.09	1825
3404.82	1829
3406.55	1841
3408.279	1832
3410.01	1843
3411.738	1816
3413.467	1817
3415.194	1783
3416.92	1813
3418.647	1817
3420.375	1774
3422.102	1827
3423.827	1791
3425.553	1835
3427.277	1877
3429.003	1798
3430.727	1757
3432.451	1781
3434.173	1796
3435.896	1829
3437.62	1839
3439.343	1721
3441.063	1786
3442.785	1808
3444.505	1826
3446.226	1816
3447.948	1716
3449.666	1766
3451.386	1759
3453.104	1754
3454.823	1841
3456.541	1771
3458.259	1780
3459.976	1802
3461.693	1780
3463.408	1747
3465.125	1785
3466.841	1760
3468.556	1844
3470.271	1773
3471.985	1758
3473.698	1760
3475.414	1762
3477.126	1734
3478.838	1788
3480.55	1783
3482.263	1759
3483.975	1750
3485.686	1793
3487.396	1710
3489.106	1766
3490.817	1709
3492.526	1716
3494.236	1744
3495.944	1713
3497.652	1746
3499.359	1783
3501.066	1759
3502.775	1755
3504.481	1792
3506.187	1725
3507.893	1730
3509.598	1738
3511.304	1717
3513.009	1711
3514.713	1729
3516.417	1685
3518.12	1734
3519.821	1721
3521.525	1744
3523.228	1699
3524.929	1759
3526.631	1705
3528.33	1748
3530.032	1718
3531.733	1702
3533.433	1707
3535.131	1692
3536.83	1666
3538.529	1701
3540.227	1711
3541.925	1744
3543.623	1748
3545.319	1685
3547.016	1670
3548.712	1742
3550.408	1734
3552.103	1726
3553.798	1726
3555.491	1690
3557.188	1720
3558.88	1696
3560.574	1738
3562.266	1706
3563.959	1699
3565.651	1681
3567.343	1701
3569.035	1688
3570.725	1670
3572.415	1666
3574.106	1701
3575.797	1609
3577.485	1710
3579.174	1668
3580.863	1681
3582.551	1652
3584.238	1695
3585.926	1718
3587.613	1710
3589.3	1652
3590.986	1702
3592.671	1662
3594.357	1682
3596.042	1660
3597.726	1674
3599.41	1679
3601.094	1668
3602.778	1652
3604.461	1635
3606.143	1640
3607.825	1680
3609.507	1658
3611.188	1685
3612.87	1637
3614.551	1667
3616.229	1684
3617.909	1671
3619.589	1638
3621.269	1677
3622.948	1655
3624.625	1650
3626.302	1635
3627.98	1640
3629.657	1636
3631.334	1636
3633.01	1624
3634.686	1609
3636.361	1660
3638.036	1667
3639.712	1648
3641.385	1614
3643.06	1633
3644.732	1619
3646.405	1591
3648.08	1640
3649.751	1631
3651.424	1622
3653.094	1645
3654.766	1663
3656.436	1721
3658.106	1629
3659.777	1594
3661.446	1640
3663.115	1626
3664.783	1586
3666.452	1667
3668.121	1621
3669.788	1636
3671.454	1608
3673.121	1623
3674.789	1652
3676.455	1620
3678.12	1636
3679.784	1611
3681.45	1598
3683.114	1614
3684.779	1599
3686.442	1603
3688.105	1594
3689.768	1636
3691.43	1608
3693.093	1597
3694.754	1569
3696.415	1601
3698.076	1579
3699.736	1559
3701.396	1614
3703.057	1630
3704.716	1585
3706.375	1658
3708.034	1583
3709.692	1630
3711.351	1591
3713.008	1611
3714.665	1610
3716.321	1585
3717.977	1564
3719.634	1591
3721.29	1601
3722.945	1569
3724.598	1638
3726.253	1582
3727.907	1566
3729.561	1630
3731.214	1629
3732.867	1524
3734.518	1557
3736.171	1594
3737.824	1604
3739.474	1526
3741.125	1556
3742.775	1557
3744.425	1563
3746.074	1603
3747.725	1603
3749.373	1558
3751.022	1577
3752.669	1582
3754.318	1576
3755.966	1569
3757.612	1596
3759.259	1536
3760.905	1539
3762.55	1515
3764.197	1542
3765.842	1566
3767.486	1535
3769.131	1545
3770.774	1551
3772.417	1584
3774.061	1582
3775.705	1522
3777.347	1568
3778.988	1554
3780.629	1493
3782.271	1545
3783.912	1515
3785.552	1534
3787.192	1563
3788.831	1548
3790.472	1549
3792.112	1559
3793.75	1542
3795.388	1493
3797.024	1543
3798.661	1565
3800.3	1549
3801.936	1557
3803.572	1587
3805.208	1516
3806.844	1544
3808.48	1512
3810.115	1577
3811.748	1539
3813.382	1522
3815.016	1501
3816.649	1503
3818.283	1543
3819.914	1518
3821.547	1517
3823.178	1504
3824.809	1513
3826.441	1501
3828.072	1536
3829.701	1522
3831.331	1516
3832.96	1539
3834.591	1478
3836.219	1515
3837.847	1484
3839.475	1490
3841.102	1471
3842.729	1552
3844.357	1533
3845.984	1464
3847.609	1530
3849.234	1504
3850.86	1490
3852.485	1487
3854.11	1478
3855.734	1531
3857.357	1471
3858.981	1485
3860.603	1509
3862.227	1477
3863.848	1458
3865.471	1492
3867.092	1506
3868.713	1488
3870.334	1512
3871.954	1460
3873.575	1472
3875.194	1468
3876.813	1465
3878.433	1493
3880.051	1473
3881.669	1461
3883.286	1472
3884.904	1464
3886.52	1482
3888.138	1496
3889.754	1466
3891.37	1484
3892.985	1428
3894.6	1510
3896.216	1476
3897.831	1427
3899.444	1454
3901.058	1461
3902.67	1552
3904.283	1438
3905.897	1485
3907.509	1450
3909.121	1451
3910.731	1434
3912.342	1456
3913.954	1459
3915.563	1471
3917.174	1501
3918.783	1450
3920.391	1481
3922.002	1447
3923.611	1437
3925.218	1442
3926.826	1434
3928.432	1463
3930.039	1411
3931.647	1469
3933.253	1496
3934.859	1496
3936.464	1454
3938.068	1476
3939.675	1456
3941.278	1423
3942.883	1421
3944.486	1408
3946.089	1439
3947.692	1439
3949.295	1432
3950.898	1442
3952.499	1417
3954.1	1484
3955.7	1419
3957.303	1432
3958.903	1428
3960.502	1407
3962.101	1420
3963.7	1369
3965.301	1467
3966.899	1400
3968.497	1444
3970.094	1414
3971.691	1433
3973.288	1462
3974.885	1384
3976.481	1406
3978.077	1424
3979.672	1393
3981.267	1371
3982.863	1381
3984.457	1412
3986.051	1382
3987.645	1411
3989.238	1434
3990.831	1389
3992.425	1409
3994.017	1422
3995.607	1394
3997.199	1377
3998.79	1440
4000.382	1383
4001.973	1407
4003.561	1387
4005.151	1409
4006.741	1412
4008.331	1411
4009.918	1357
4011.507	1416
4013.095	1397
4014.681	1379
4016.269	1386
4017.856	1404
4019.443	1374
4021.028	1388
4022.614	1368
4024.199	1347
4025.785	1388
4027.37	1402
4028.953	1333
4030.536	1393
4032.12	1391
4033.704	1407
4035.287	1352
4036.869	1393
4038.45	1375
4040.032	1376
4041.613	1334
4043.195	1362
4044.776	1318
4046.356	1356
4047.935	1365
4049.515	1316
4051.095	1365
4052.674	1329
4054.251	1369
4055.829	1383
4057.406	1336
4058.985	1339
4060.562	1377
4062.139	1384
4063.715	1366
4065.29	1357
4066.865	1360
4068.442	1330
4070.016	1323
4071.59	1320
4073.164	1317
4074.738	1277
4076.312	1330
4077.885	1364
4079.458	1319
4081.03	1260
4082.602	1334
4084.173	1369
4085.745	1318
4087.315	1341
4088.886	1336
4090.456	1354
4092.026	1377
4093.596	1353
4095.165	1336
4096.734	1372
4098.301	1319
4099.869	1301
4101.437	1323
4103.006	1329
4104.572	1353
4106.139	1364
4107.704	1295
4109.27	1294
4110.837	1373
4112.401	1312
4113.966	1324
4115.53	1305
4117.094	1309
4118.659	1318
4120.223	1285
4121.785	1304
4123.347	1315
4124.909	1339
4126.471	1338
4128.034	1314
4129.595	1326
4131.155	1320
4132.716	1300
4134.275	1307
4135.836	1285
4137.395	1290
4138.955	1322
4140.513	1306
4142.071	1316
4143.628	1282
4145.188	1321
4146.745	1327
4148.302	1248
4149.858	1276
4151.414	1319
4152.971	1299
4154.526	1292
4156.081	1265
4157.635	1296
4159.189	1281
4160.745	1287
4162.298	1290
4163.852	1321
4165.405	1310
4166.957	1278
4168.51	1274
4170.063	1247
4171.614	1254
4173.166	1277
4174.717	1283
4176.267	1255
4177.817	1264
4179.368	1290
4180.917	1285
4182.466	1307
4184.016	1224
4185.564	1263
4187.112	1229
4188.66	1303
4190.207	1279
4191.754	1249
4193.301	1241
4194.848	1257
4196.394	1252
4197.94	1275
4199.484	1246
4201.03	1256
4202.575	1238
4204.12	1255
4205.663	1271
4207.207	1221
4208.75	1235
4210.292	1232
4211.836	1255
4213.378	1306
4214.92	1253
4216.46	1220
4218.002	1247
4219.544	1263
4221.083	1257
4222.625	1249
4224.164	1207
4225.703	1263
4227.244	1224
4228.782	1249
4230.32	1244
4231.857	1260
4233.395	1247
4234.933	1241
4236.471	1257
4238.007	1288
4239.542	1262
4241.078	1224
4242.614	1250
4244.15	1271
4245.685	1231
4247.219	1237
4248.753	1238
4250.287	1231
4251.82	1248
4253.354	1246
4254.887	1238
4256.419	1246
4257.951	1253
4259.483	1244
4261.016	1230
4262.547	1216
4264.078	1227
4265.608	1223
4267.137	1203
4268.668	1209
4270.197	1211
4271.727	1263
4273.254	1216
4274.783	1245
4276.311	1226
4277.84	1214
4279.366	1236
4280.894	1246
4282.42	1196
4283.946	1233
4285.473	1207
4286.998	1209
4288.523	1180
4290.047	1232
4291.572	1201
4293.096	1250
4294.622	1204
4296.144	1206
4297.668	1220
4299.19	1200
4300.713	1223
4302.236	1188
4303.758	1198
4305.279	1212
4306.799	1174
4308.321	1201
4309.842	1177
4311.361	1181
4312.882	1222
4314.401	1188
