400.0961	5729
402.6185	5763
405.1424	5897
407.6635	5739
410.1838	5829
412.7035	5772
415.2225	5780
417.7388	5860
420.2585	5882
422.7754	6116
425.2917	6029
427.8072	6044
430.3221	5996
432.8363	6078
435.3498	6127
437.8626	6197
440.3727	6190
442.8841	6209
445.3969	6137
447.907	6248
450.4142	6105
452.9229	6178
455.4289	6207
457.9362	6218
460.4449	6191
462.9488	6193
465.454	6175
467.9566	6080
470.4604	6056
472.9637	6175
475.4662	6088
477.966	6220
480.4671	6227
482.9656	6265
485.4633	6294
487.9645	6331
490.4608	6248
492.9566	6296
495.4536	6181
497.948	6336
500.4437	6291
502.9387	6228
505.431	6305
507.9226	6332
510.4136	6381
512.9079	6415
515.3975	6396
517.8864	6492
520.3746	6475
522.8622	6507
525.3491	6422
527.8394	6385
530.3249	6342
532.8098	6441
535.2939	6503
537.7774	6401
540.2623	6440
542.7444	6425
545.2259	6514
547.7067	6416
550.1868	6425
552.6683	6491
555.147	6401
557.6231	6515
560.1005	6501
562.5773	6501
565.0534	6505
567.5308	6526
570.0056	6482
572.4776	6608
574.951	6624
577.4237	6654
579.8978	6662
582.3671	6639
584.8378	6764
587.3079	6626
589.7773	6650
592.244	6693
594.714	6719
597.1793	6685
599.6461	6575
602.1121	6633
604.5754	6585
607.0421	6649
609.5042	6641
611.9675	6683
614.4282	6645
616.8902	6731
619.3515	6636
621.8122	6619
624.2702	6642
626.7296	6668
629.1863	6525
631.6423	6695
634.1017	6748
636.5563	6621
639.0104	6678
641.4658	6571
643.9185	6701
646.3725	6764
648.8239	6647
651.2766	6664
653.7266	6636
656.176	6879
658.6247	6759
661.0748	6698
663.5242	6778
665.9709	6783
668.417	6861
670.8624	6851
673.3092	6733
675.7533	6818
678.1968	6865
680.6395	6989
683.0817	6884
685.5251	6852
687.9659	6838
690.4061	6986
692.8456	6921
695.2844	6857
697.7226	6922
700.1621	7027
702.599	6911
705.0332	6909
707.4688	7023
709.9036	7043
712.3399	7119
714.7735	6937
717.2044	7025
719.6367	7022
722.0683	7059
724.4993	7112
726.9296	7174
729.3593	7058
731.7883	7198
734.2147	7073
736.6423	7160
739.0714	7214
741.4958	7186
743.9216	7167
746.3447	7222
748.7691	7313
751.1929	7147
753.616	7284
756.0366	7356
758.4584	7362
760.8776	7287
763.2982	7343
765.718	7577
768.1373	7378
770.5539	7462
772.9698	7368
775.3871	7485
777.8038	7352
780.2178	7396
782.6332	7484
785.0459	7435
787.458	7522
789.8714	7453
792.2842	7371
794.6943	7304
797.1038	7423
799.5127	7438
801.9209	7510
804.3324	7375
806.7393	7570
809.1456	7383
811.5513	7463
813.9562	7491
816.3625	7541
818.7663	7467
821.1693	7600
823.5718	7532
825.9735	7637
828.3746	7515
830.7771	7508
833.177	7470
835.5762	7517
837.9747	7707
840.3727	7584
842.772	7586
845.1666	7594
847.5626	7715
849.958	7608
852.3527	7714
854.7488	7574
857.1403	7724
859.5331	7636
861.9253	7740
864.3168	7703
866.7057	7685
869.098	7741
871.4876	7578
873.8746	7573
876.263	7721
878.6487	7539
881.0378	7626
883.4243	7563
885.8081	7618
888.1933	7684
890.5759	7570
892.9598	7591
895.343	7679
897.7256	7527
900.1057	7703
902.4871	7694
904.8659	7671
907.246	7718
909.6254	7823
912.0023	7766
914.3786	7798
916.7562	7991
919.1331	7940
921.5074	8058
923.8831	8134
926.2562	8112
928.6287	8187
931.0005	8201
933.3757	8075
935.7462	8115
938.1162	8046
940.4855	8176
942.8542	8288
945.2242	8091
947.5916	8368
949.9584	8601
952.3266	8623
954.6921	8719
957.0571	9320
959.4233	9431
961.787	9510
964.15	9478
966.5125	9241
968.8742	9169
971.2354	8767
973.5959	8449
975.9559	8331
978.3151	8239
980.6738	8086
983.0338	7939
985.3912	8107
987.7461	8133
990.1022	8059
992.4578	7973
994.8127	7961
997.1689	7983
999.5207	7999
1001.874	7905
1004.226	8069
1006.576	7950
1008.929	7966
1011.28	8055
1013.628	8006
1015.977	8039
1018.324	7952
1020.674	7906
1023.019	8033
1025.366	8138
1027.713	8125
1030.056	8006
1032.399	7931
1034.746	8047
1037.087	8137
1039.431	7978
1041.771	8205
1044.113	8177
1046.454	8095
1048.793	8102
1051.133	8123
1053.471	8137
1055.807	8236
1058.146	8114
1060.483	8137
1062.818	8152
1065.153	8217
1067.489	8300
1069.822	8268
1072.156	8278
1074.488	8323
1076.82	8333
1079.15	8262
1081.48	8148
1083.814	8222
1086.143	8214
1088.471	8030
1090.799	8210
1093.126	8134
1095.452	8151
1097.78	8114
1100.105	8313
1102.43	8150
1104.754	8191
1107.077	8014
1109.4	8143
1111.722	8168
1114.044	8140
1116.365	8194
1118.685	8148
1121.005	8298
1123.324	8146
1125.643	8217
1127.961	8316
1130.278	8337
1132.595	8237
1134.911	8211
1137.226	8124
1139.541	8175
1141.854	8130
1144.167	8217
1146.482	8165
1148.793	8282
1151.105	8214
1153.414	8343
1155.725	8277
1158.033	8160
1160.344	8156
1162.651	8230
1164.959	8144
1167.265	8272
1169.572	8333
1171.878	8159
1174.184	8273
1176.488	8175
1178.79	8127
1181.094	8400
1183.396	8276
1185.699	8177
1188.001	8200
1190.301	8185
1192.6	8123
1194.9	8052
1197.2	8244
1199.497	8267
1201.794	8267
1204.09	8257
1206.387	8315
1208.684	8233
1210.978	8226
1213.272	8122
1215.565	8350
1217.858	8331
1220.15	8300
1222.443	8430
1224.734	8312
1227.024	8441
1229.313	8303
1231.602	8491
1233.892	8414
1236.18	8439
1238.467	8519
1240.754	8558
1243.04	8593
1245.325	8573
1247.612	8657
1249.896	8530
1252.178	8485
1254.461	8493
1256.743	8596
1259.027	8588
1261.308	8518
1263.587	8692
1265.867	8643
1268.146	8587
1270.425	8714
1272.703	8582
1274.981	8652
1277.256	8617
1279.532	8666
1281.808	8590
1284.083	8543
1286.358	8430
1288.63	8547
1290.904	8625
1293.175	8396
1295.449	8555
1297.719	8538
1299.99	8413
1302.259	8543
1304.529	8407
1306.798	8525
1309.065	8470
1311.333	8397
1313.599	8472
1315.866	8429
1318.131	8562
1320.396	8445
1322.66	8434
1324.925	8546
1327.187	8470
1329.448	8622
1331.711	8397
1333.974	8636
1336.234	8486
1338.493	8596
1340.752	8561
1343.01	8391
1345.269	8563
1347.526	8571
1349.784	8417
1352.04	8482
1354.295	8368
1356.552	8537
1358.806	8498
1361.059	8501
1363.312	8355
1365.564	8472
1367.818	8576
1370.069	8652
1372.318	8547
1374.568	8648
1376.817	8453
1379.066	8502
1381.316	8612
1383.564	8496
1385.809	8646
1388.056	8543
1390.301	8665
1392.549	8560
1394.793	8770
1397.036	8697
1399.279	8788
1401.522	8911
1403.763	8815
1406.007	8815
1408.248	8753
1410.487	8818
1412.727	8745
1414.965	8797
1417.205	8818
1419.442	8852
1421.68	8755
1423.915	8768
1426.152	8839
1428.388	8791
1430.623	8861
1432.857	8791
1435.091	8775
1437.323	8882
1439.556	8841
1441.789	8826
1444.019	8936
1446.25	9033
1448.48	8935
1450.708	8898
1452.938	8987
1455.167	8855
1457.394	8962
1459.62	8928
1461.846	8878
1464.073	8907
1466.299	8923
1468.523	8869
1470.746	8724
1472.969	8839
1475.191	8749
1477.415	8765
1479.636	8654
1481.858	8646
1484.078	8661
1486.298	8643
1488.518	8614
1490.736	8631
1492.954	8481
1495.169	8626
1497.386	8552
1499.602	8509
1501.819	8610
1504.034	8514
1506.248	8442
1508.462	8545
1510.675	8433
1512.888	8517
1515.1	8527
1517.311	8480
1519.522	8455
1521.732	8498
1523.942	8564
1526.151	8411
1528.36	8553
1530.566	8391
1532.773	8508
1534.98	8536
1537.187	8466
1539.392	8569
1541.596	8511
1543.801	8536
1546.005	8574
1548.208	8485
1550.411	8798
1552.612	8562
1554.814	8526
1557.013	8614
1559.212	8539
1561.414	8671
1563.612	8589
1565.811	8682
1568.007	8692
1570.203	8711
1572.403	8621
1574.598	8680
1576.792	8767
1578.988	8700
1581.181	8691
1583.376	8704
1585.568	8693
1587.761	8770
1589.952	8642
1592.143	8725
1594.333	8823
1596.524	8888
1598.715	8708
1600.903	8816
1603.091	8793
1605.278	8911
1607.466	8861
1609.652	8933
1611.838	8738
1614.023	8719
1616.207	8778
1618.391	8789
1620.576	8656
1622.759	8780
1624.941	8848
1627.123	8800
1629.304	8914
1631.484	8815
1633.664	8904
1635.844	8797
1638.022	8972
1640.201	8917
1642.38	8969
1644.556	8930
1646.732	8892
1648.908	8841
1651.084	8961
1653.257	8930
1655.433	9062
1657.607	8912
1659.779	8902
1661.951	8955
1664.122	9061
1666.295	8935
1668.467	8974
1670.635	9014
1672.805	9039
1674.973	8954
1677.142	8923
1679.31	8887
1681.478	8932
1683.644	8938
1685.81	8953
1687.975	8929
1690.142	8944
1692.305	8909
1694.468	8873
1696.632	8888
1698.794	8864
1700.957	8678
1703.119	8916
1705.279	8771
1707.439	8881
1709.598	8738
1711.758	8752
1713.917	8759
1716.075	8695
1718.231	8661
1720.388	8743
1722.543	8763
1724.702	8787
1726.856	8828
1729.01	8812
1731.164	8754
1733.317	8759
1735.471	8762
1737.623	8755
1739.774	8729
1741.925	8893
1744.075	8729
1746.225	8867
1748.376	8646
1750.524	8787
1752.672	8715
1754.82	8861
1756.965	8679
1759.113	8719
1761.259	8664
1763.405	8807
1765.549	8836
1767.694	8821
1769.836	8731
1771.981	8727
1774.123	8874
1776.264	8894
1778.405	8957
1780.546	8770
1782.687	8748
1784.827	8883
1786.966	8809
1789.103	8836
1791.242	8797
1793.381	8856
1795.517	8829
1797.653	8876
1799.788	8890
1801.923	8728
1804.057	8966
1806.193	8766
1808.326	8822
1810.457	8783
1812.59	8930
1814.721	8738
1816.855	8865
1818.984	8770
1821.113	8886
1823.244	8673
1825.372	8704
1827.499	8827
1829.63	8886
1831.756	8815
1833.882	8831
1836.007	8772
1838.132	8720
1840.26	8839
1842.384	8780
1844.507	8724
1846.63	8763
1848.752	8765
1850.875	8805
1852.996	8883
1855.118	8788
1857.238	8777
1859.358	8666
1861.477	8692
1863.597	8691
1865.715	8573
1867.832	8673
1869.948	8767
1872.064	8584
1874.181	8758
1876.297	8604
1878.411	8643
1880.526	8704
1882.639	8653
1884.752	8654
1886.865	8781
1888.977	8682
1891.089	8830
1893.2	8743
1895.308	8683
1897.42	8705
1899.53	8761
1901.639	8825
1903.745	8777
1905.853	8784
1907.962	8733
1910.067	8781
1912.174	8837
1914.278	8953
1916.383	8882
1918.486	8870
1920.592	8913
1922.694	8874
1924.797	8862
1926.898	8898
1929	8835
1931.102	8926
1933.203	8984
1935.301	8811
1937.401	8973
1939.499	9004
1941.598	8952
1943.697	8853
1945.793	8790
1947.888	8837
1949.985	8994
1952.08	8930
1954.176	8874
1956.269	8890
1958.364	8833
1960.457	8800
1962.549	8902
1964.642	8865
1966.733	8994
1968.823	8761
1970.913	8802
1973.005	8887
1975.093	8935
1977.184	8843
1979.271	8670
1981.359	8754
1983.446	8908
1985.532	8823
1987.619	8780
1989.705	8753
1991.789	8880
1993.874	8839
1995.956	8829
1998.041	8732
2000.123	8742
2002.206	8601
2004.287	8754
2006.368	8646
2008.449	8789
2010.529	8868
2012.609	8631
2014.688	8657
2016.766	8850
2018.843	8698
2020.922	8567
2022.999	8681
2025.074	8897
2027.15	8788
2029.225	8699
2031.299	8744
2033.375	8696
2035.447	8707
2037.52	8798
2039.592	8778
2041.664	8770
2043.736	8795
2045.807	8796
2047.876	8819
2049.947	8877
2052.015	8687
2054.086	8699
2056.153	8834
2058.221	8767
2060.288	8824
2062.353	8689
2064.42	8672
2066.486	8720
2068.55	8802
2070.614	8623
2072.678	8733
2074.741	8739
2076.805	8723
2078.866	8709
2080.929	8931
2082.99	8767
2085.049	8685
2087.109	8672
2089.17	8791
2091.228	8734
2093.286	8601
2095.344	8747
2097.4	8681
2099.46	8713
2101.516	8825
2103.572	8847
2105.626	8819
2107.679	8770
2109.735	8885
2111.788	8519
2113.841	8764
2115.894	8757
2117.945	8683
2119.997	8790
2122.049	8573
2124.1	8781
2126.148	8742
2128.197	8674
2130.246	8858
2132.296	8699
2134.342	8781
2136.39	8679
2138.437	8757
2140.483	8701
2142.527	8837
2144.574	8717
2146.619	8645
2148.661	8739
2150.705	8655
2152.747	8626
2154.792	8638
2156.832	8683
2158.874	8599
2160.915	8808
2162.954	8569
2164.995	8651
2167.034	8620
2169.072	8497
2171.111	8505
2173.148	8585
2175.186	8719
2177.223	8670
2179.258	8629
2181.294	8528
2183.328	8573
2185.362	8436
2187.398	8570
2189.431	8645
2191.463	8619
2193.495	8595
2195.528	8724
2197.56	8480
2199.59	8654
2201.62	8547
2203.649	8583
2205.678	8565
2207.708	8476
2209.737	8441
2211.764	8507
2213.791	8519
2215.817	8438
2217.843	8462
2219.87	8510
2221.895	8419
2223.919	8551
2225.942	8363
2227.966	8417
2229.988	8531
2232.012	8476
2234.032	8654
2236.054	8452
2238.074	8452
2240.095	8390
2242.116	8587
2244.135	8423
2246.153	8454
2248.171	8490
2250.188	8457
2252.208	8503
2254.223	8476
2256.239	8525
2258.255	8615
2260.269	8471
2262.283	8509
2264.3	8366
2266.312	8389
2268.325	8433
2270.336	8393
2272.349	8463
2274.362	8547
2276.372	8459
2278.383	8526
2280.392	8390
2282.402	8502
2284.409	8522
2286.418	8427
2288.427	8493
2290.433	8412
2292.441	8434
2294.446	8435
2296.453	8354
2298.459	8533
2300.463	8407
2302.466	8313
2304.471	8414
2306.475	8493
2308.477	8440
2310.478	8410
2312.481	8443
2314.481	8384
2316.481	8383
2318.482	8532
2320.482	8363
2322.48	8400
2324.48	8408
2326.478	8447
2328.476	8431
2330.473	8283
2332.469	8379
2334.465	8338
2336.46	8335
2338.454	8304
2340.45	8433
2342.444	8357
2344.437	8189
2346.43	8322
2348.421	8320
2350.414	8288
2352.405	8250
2354.396	8428
2356.386	8369
2358.376	8417
2360.366	8322
2362.355	8219
2364.343	8301
2366.331	8200
2368.317	8286
2370.304	8233
2372.292	8349
2374.278	8223
2376.262	8247
2378.247	8188
2380.23	8223
2382.216	8198
2384.199	8274
2386.181	8367
2388.163	8176
2390.144	8046
2392.127	8303
2394.107	8204
2396.087	8222
2398.066	8054
2400.046	8152
2402.023	8069
2404.004	8154
2405.981	8078
2407.957	8268
2409.934	8176
2411.91	8073
2413.886	8081
2415.862	8068
2417.836	8089
2419.809	8043
2421.784	8181
2423.756	8211
2425.73	8149
2427.701	8158
2429.672	8123
2431.644	8153
2433.615	8117
2435.586	8186
2437.555	8080
2439.523	8300
2441.491	8088
2443.459	8064
2445.428	8129
2447.395	8154
2449.361	8139
2451.327	7933
2453.292	8052
2455.257	8071
2457.223	8116
2459.187	8104
2461.15	8093
2463.113	8032
2465.076	8168
2467.039	8029
2468.999	8095
2470.96	7973
2472.921	8059
2474.881	7997
2476.841	8047
2478.8	8057
2480.759	8002
2482.717	7905
2484.675	8106
2486.63	7939
2488.589	7911
2490.545	7967
2492.5	7982
2494.455	7976
2496.408	7983
2498.364	7916
2500.318	8090
2502.27	7917
2504.223	7923
2506.174	7962
2508.126	7937
2510.078	7928
2512.03	7974
2513.979	7835
2515.927	7998
2517.877	7931
2519.826	7871
2521.775	7886
2523.722	7998
2525.668	7807
2527.616	7963
2529.561	7889
2531.508	7846
2533.452	7934
2535.398	7926
2537.342	7992
2539.284	7907
2541.229	7954
2543.173	7736
2545.114	7892
2547.055	7984
2548.996	7924
2550.938	7656
2552.878	7926
2554.817	7980
2556.756	7837
2558.695	7830
2560.633	7891
2562.572	7872
2564.509	7938
2566.445	7859
2568.382	7819
2570.317	7814
2572.254	7834
2574.189	7898
2576.123	7733
2578.057	7871
2579.99	7866
2581.923	7937
2583.855	7935
2585.788	8017
2587.719	7797
2589.65	8084
2591.579	7862
2593.511	7892
2595.44	7895
2597.37	7840
2599.297	8032
2601.225	7951
2603.153	7877
2605.08	7856
2607.007	7962
2608.932	7966
2610.858	7903
2612.782	7824
2614.709	7907
2616.632	7899
2618.556	7910
2620.478	7873
2622.401	7771
2624.324	7889
2626.247	7797
2628.167	7992
2630.088	7908
2632.008	7863
2633.928	7859
2635.848	7904
2637.766	7883
2639.684	7875
2641.603	7892
2643.519	7826
2645.437	7863
2647.353	7977
2649.27	7738
2651.184	7836
2653.099	7893
2655.014	7697
2656.928	7835
2658.842	7888
2660.755	7894
2662.667	7770
2664.579	7855
2666.491	7812
2668.402	7924
2670.312	7899
2672.222	7774
2674.132	7769
2676.042	7937
2677.951	7909
2679.859	7828
2681.766	7764
2683.674	7830
2685.582	7758
2687.488	7803
2689.392	7754
2691.298	7848
2693.202	7813
2695.107	7698
2697.012	7778
2698.914	7739
2700.817	7723
2702.72	7724
2704.622	7517
2706.524	7752
2708.425	7689
2710.326	7714
2712.225	7718
2714.125	7727
2716.024	7729
2717.923	7721
2719.822	7745
2721.719	7667
2723.616	7644
2725.512	7712
2727.41	7747
2729.305	7644
2731.201	7685
2733.095	7746
2734.99	7654
2736.884	7719
2738.778	7610
2740.67	7664
2742.562	7758
2744.455	7813
2746.346	7723
2748.238	7803
2750.129	7552
2752.018	7605
2753.907	7615
2755.797	7553
2757.687	7565
2759.575	7644
2761.462	7605
2763.349	7548
2765.237	7648
2767.124	7638
2769.009	7602
2770.894	7666
2772.779	7674
2774.663	7541
2776.547	7666
2778.431	7533
2780.314	7715
2782.197	7644
2784.078	7776
2785.96	7615
2787.842	7668
2789.723	7543
2791.603	7619
2793.483	7516
2795.362	7542
2797.241	7552
2799.121	7602
2800.997	7634
2802.874	7520
2804.751	7486
2806.628	7471
2808.506	7505
2810.38	7575
2812.255	7486
2814.13	7415
2816.003	7523
2817.878	7594
2819.752	7531
2821.623	7529
2823.496	7510
2825.368	7519
2827.238	7399
2829.111	7522
2830.98	7474
2832.851	7444
2834.719	7555
2836.589	7626
2838.458	7483
2840.327	7468
2842.193	7557
2844.061	7470
2845.927	7470
2847.794	7511
2849.66	7587
2851.525	7554
2853.39	7640
2855.254	7536
2857.117	7675
2858.983	7617
2860.845	7734
2862.707	7546
2864.569	7847
2866.431	7700
2868.293	7783
2870.154	7771
2872.013	7966
2873.873	7924
2875.733	7930
2877.592	8018
2879.451	8019
2881.309	8209
2883.166	8086
2885.022	8196
2886.879	8210
2888.736	8158
2890.591	8206
2892.446	8336
2894.301	8217
2896.155	8244
2898.009	8194
2899.863	8293
2901.716	8130
2903.568	8148
2905.419	8098
2907.27	8091
2909.123	8157
2910.973	8225
2912.824	8187
2914.673	8339
2916.521	8278
2918.372	8463
2920.22	8282
2922.067	8408
2923.914	8567
2925.761	8682
2927.607	8530
2929.455	8653
2931.301	8610
2933.144	8842
2934.99	8736
2936.833	8730
2938.678	9022
2940.522	8831
2942.364	9057
2944.207	9171
2946.048	9199
2947.891	9256
2949.731	9162
2951.571	9144
2953.412	9089
2955.25	9101
2957.09	8929
2958.93	8934
2960.767	9153
2962.606	8861
2964.443	8734
2966.279	8861
2968.116	8717
2969.953	8570
2971.788	8431
2973.623	8470
2975.457	8362
2977.292	8468
2979.127	8221
2980.959	8237
2982.792	8058
2984.624	8100
2986.455	8162
2988.288	8017
2990.119	7967
2991.949	7880
2993.779	7837
2995.608	7896
2997.439	7707
2999.268	7780
3001.096	7760
3002.923	7869
3004.751	7626
3006.578	7696
3008.406	7532
3010.232	7440
3012.057	7476
3013.883	7431
3015.706	7461
3017.532	7348
3019.356	7272
3021.179	7297
3023.002	7396
3024.823	7145
3026.646	7241
3028.469	7156
3030.289	7189
3032.11	7233
3033.93	7123
3035.749	7117
3037.57	7070
3039.39	7118
3041.207	7271
3043.026	7121
3044.842	7193
3046.661	7017
3048.477	7033
3050.294	6911
3052.109	6976
3053.925	7026
3055.739	7146
3057.555	7180
3059.368	7016
3061.181	7105
3062.995	6987
3064.807	6911
3066.62	7098
3068.433	7012
3070.243	6966
3072.054	7060
3073.865	6911
3075.675	6999
3077.485	6887
3079.293	6940
3081.102	6941
3082.911	7020
3084.719	6909
3086.527	6990
3088.333	6885
3090.139	6906
3091.945	6817
3093.75	6895
3095.557	6929
3097.361	6866
3099.165	6946
3100.969	6840
3102.772	6808
3104.575	6763
3106.379	6845
3108.181	6877
3109.982	6814
3111.783	6703
3113.584	6714
3115.386	6646
3117.186	6695
3118.985	6688
3120.783	6577
3122.582	6761
3124.381	6648
3126.179	6684
3127.975	6748
3129.772	6823
3131.569	6709
3133.365	6655
3135.161	6686
3136.956	6748
3138.751	6756
3140.544	6636
3142.338	6741
3144.132	6656
3145.925	6737
3147.717	6607
3149.509	6678
3151.301	6579
3153.091	6722
3154.884	6567
3156.673	6650
3158.462	6594
3160.252	6647
3162.041	6467
3163.831	6560
3165.618	6578
3167.405	6686
3169.193	6651
3170.979	6582
3172.767	6594
3174.553	6597
3176.338	6579
3178.123	6544
3179.907	6625
3181.692	6565
3183.477	6604
3185.259	6559
3187.042	6528
3188.824	6648
3190.607	6530
3192.389	6566
3194.17	6544
3195.951	6527
3197.73	6552
3199.51	6501
3201.289	6591
3203.07	6627
3204.848	6417
3206.626	6648
3208.403	6557
3210.18	6424
3211.959	6488
3213.735	6540
3215.511	6412
3217.285	6471
3219.06	6526
3220.836	6481
3222.611	6400
3224.384	6445
3226.158	6629
3227.929	6494
3229.702	6452
3231.476	6536
3233.248	6385
3235.018	6374
3236.789	6515
3238.56	6528
3240.33	6520
3242.1	6514
3243.869	6417
3245.637	6467
3247.405	6363
3249.172	6547
3250.941	6499
3252.707	6406
3254.474	6465
3256.24	6482
3258.006	6352
3259.772	6466
3261.537	6460
3263.301	6425
3265.065	6387
3266.828	6455
3268.592	6419
3270.355	6471
3272.117	6327
3273.878	6467
3275.64	6459
3277.401	6404
3279.162	6459
3280.922	6423
3282.682	6330
3284.441	6482
3286.199	6424
3287.959	6366
3289.716	6395
3291.475	6517
3293.232	6357
3294.988	6463
3296.744	6420
3298.501	6433
3300.256	6446
3302.011	6336
3303.766	6375
3305.52	6502
3307.275	6446
3309.028	6388
3310.781	6455
3312.533	6431
3314.285	6459
3316.038	6432
3317.789	6295
3319.54	6427
3321.289	6493
3323.039	6405
3324.789	6404
3326.539	6332
3328.288	6349
3330.035	6373
3331.783	6327
3333.531	6306
3335.28	6340
3337.025	6305
3338.771	6389
3340.518	6377
3342.262	6212
3344.009	6370
3345.753	6211
3347.497	6336
3349.24	6284
3350.983	6323
3352.726	6323
3354.469	6400
3356.212	6209
3357.952	6273
3359.694	6200
3361.434	6154
3363.176	6140
3364.916	6146
3366.654	6238
3368.394	6199
3370.132	6217
3371.871	6203
3373.61	6213
3375.346	6143
3377.083	6212
3378.82	6296
3380.556	6144
3382.292	6103
3384.027	6180
3385.763	6241
3387.497	6162
3389.231	6155
3390.965	6228
3392.698	6167
3394.431	6153
3396.164	6107
3397.896	6153
3399.627	6023
3401.36	6127
3403.09	6000
3404.82	6259
3406.55	6098
3408.279	6020
3410.01	6064
3411.738	6008
3413.467	6147
3415.194	6087
3416.92	6161
3418.647	6012
3420.375	5884
3422.102	6110
3423.827	5984
3425.553	6089
3427.277	6007
3429.003	6000
3430.727	5984
3432.451	6012
3434.173	6091
3435.896	5973
3437.62	6077
3439.343	5961
3441.063	6001
3442.785	5913
3444.505	5891
3446.226	5893
3447.948	5911
3449.666	5797
3451.386	5931
3453.104	5863
3454.823	5966
3456.541	5921
3458.259	5973
3459.976	5926
3461.693	5866
3463.408	5875
3465.125	5798
3466.841	5746
3468.556	5776
3470.271	5775
3471.985	5906
3473.698	5797
3475.414	5827
3477.126	5749
3478.838	5719
3480.55	5768
3482.263	5769
3483.975	5823
3485.686	5830
3487.396	5669
3489.106	5806
3490.817	5742
3492.526	5729
3494.236	5788
3495.944	5771
3497.652	5627
3499.359	5718
3501.066	5728
3502.775	5658
3504.481	5682
3506.187	5593
3507.893	5678
3509.598	5730
3511.304	5709
3513.009	5639
3514.713	5652
3516.417	5643
3518.12	5617
3519.821	5462
3521.525	5565
3523.228	5565
3524.929	5554
3526.631	5574
3528.33	5586
3530.032	5550
3531.733	5513
3533.433	5524
3535.131	5486
3536.83	5571
3538.529	5573
3540.227	5632
3541.925	5520
3543.623	5455
3545.319	5496
3547.016	5509
3548.712	5592
3550.408	5508
3552.103	5605
3553.798	5562
3555.491	5473
3557.188	5447
3558.88	5543
3560.574	5475
3562.266	5401
3563.959	5515
3565.651	5493
3567.343	5546
3569.035	5427
3570.725	5443
3572.415	5502
3574.106	5349
3575.797	5401
3577.485	5368
3579.174	5302
3580.863	5327
3582.551	5396
3584.238	5427
3585.926	5307
3587.613	5395
3589.3	5266
3590.986	5326
3592.671	5248
3594.357	5308
3596.042	5359
3597.726	5219
3599.41	5285
3601.094	5225
3602.778	5171
3604.461	5234
3606.143	5228
3607.825	5249
3609.507	5198
3611.188	5201
3612.87	5214
3614.551	5170
3616.229	5199
3617.909	5145
3619.589	5118
3621.269	5163
3622.948	5242
3624.625	5210
3626.302	5125
3627.98	5050
3629.657	5138
3631.334	5103
3633.01	5154
3634.686	5166
3636.361	5158
3638.036	5121
3639.712	5047
3641.385	5143
3643.06	5134
3644.732	5053
3646.405	4994
3648.08	5094
3649.751	5072
3651.424	5046
3653.094	5013
3654.766	5058
3656.436	5002
3658.106	5068
3659.777	5011
3661.446	4983
3663.115	4977
3664.783	4941
3666.452	5067
3668.121	5069
3669.788	5040
3671.454	4892
3673.121	4962
3674.789	4957
3676.455	4975
3678.12	4910
3679.784	4902
3681.45	4930
3683.114	4928
3684.779	4921
3686.442	4856
3688.105	4894
3689.768	4936
3691.43	4869
3693.093	4901
3694.754	4887
3696.415	4929
3698.076	4886
3699.736	4894
3701.396	4855
3703.057	4977
3704.716	4851
3706.375	4889
3708.034	4928
3709.692	4823
3711.351	4830
3713.008	4875
3714.665	4933
3716.321	4912
3717.977	4863
3719.634	4886
3721.29	4821
3722.945	4817
3724.598	4833
3726.253	4823
3727.907	4924
3729.561	4706
3731.214	4794
3732.867	4835
3734.518	4811
3736.171	4883
3737.824	4851
3739.474	4847
3741.125	4713
3742.775	4751
3744.425	4844
3746.074	4833
3747.725	4664
3749.373	4727
3751.022	4699
3752.669	4764
3754.318	4709
3755.966	4736
3757.612	4724
3759.259	4790
3760.905	4853
3762.55	4737
3764.197	4722
3765.842	4834
3767.486	4755
3769.131	4686
3770.774	4684
3772.417	4579
3774.061	4733
3775.705	4694
3777.347	4696
3778.988	4745
3780.629	4697
3782.271	4709
3783.912	4549
3785.552	4737
3787.192	4682
3788.831	4683
3790.472	4637
3792.112	4612
3793.75	4673
3795.388	4582
3797.024	4612
3798.661	4709
3800.3	4623
3801.936	4600
3803.572	4513
3805.208	4584
3806.844	4593
3808.48	4586
3810.115	4495
3811.748	4618
3813.382	4583
3815.016	4473
3816.649	4540
3818.283	4544
3819.914	4485
3821.547	4567
3823.178	4517
3824.809	4470
3826.441	4515
3828.072	4549
3829.701	4504
3831.331	4530
3832.96	4534
3834.591	4543
3836.219	4526
3837.847	4437
3839.475	4558
3841.102	4530
3842.729	4486
3844.357	4514
3845.984	4477
3847.609	4522
3849.234	4488
3850.86	4475
3852.485	4427
3854.11	4476
3855.734	4451
3857.357	4580
3858.981	4504
3860.603	4410
3862.227	4446
3863.848	4401
3865.471	4355
3867.092	4419
3868.713	4409
3870.334	4393
3871.954	4398
3873.575	4346
3875.194	4348
3876.813	4456
3878.433	4360
3880.051	4404
3881.669	4357
3883.286	4398
3884.904	4390
3886.52	4376
3888.138	4398
3889.754	4480
3891.37	4372
3892.985	4426
3894.6	4362
3896.216	4397
3897.831	4406
3899.444	4361
3901.058	4410
3902.67	4292
3904.283	4414
3905.897	4324
3907.509	4380
3909.121	4354
3910.731	4278
3912.342	4270
3913.954	4345
3915.563	4257
3917.174	4242
3918.783	4339
3920.391	4266
3922.002	4326
3923.611	4304
3925.218	4313
3926.826	4279
3928.432	4284
3930.039	4241
3931.647	4314
3933.253	4341
3934.859	4300
3936.464	4233
3938.068	4259
3939.675	4254
3941.278	4310
3942.883	4357
3944.486	4254
3946.089	4298
3947.692	4283
3949.295	4370
3950.898	4148
3952.499	4212
3954.1	4215
3955.7	4236
3957.303	4234
3958.903	4198
3960.502	4227
3962.101	4196
3963.7	4161
3965.301	4223
3966.899	4220
3968.497	4203
3970.094	4194
3971.691	4251
3973.288	4170
3974.885	4200
3976.481	4077
3978.077	4072
3979.672	4124
3981.267	4053
3982.863	4176
3984.457	4145
3986.051	4111
3987.645	4128
3989.238	4067
3990.831	4168
3992.425	4097
3994.017	4090
3995.607	4069
3997.199	4150
3998.79	4047
4000.382	4031
4001.973	4145
4003.561	3994
4005.151	3987
4006.741	4035
4008.331	4009
4009.918	4075
4011.507	4128
4013.095	3974
4014.681	4021
4016.269	4088
4017.856	3962
4019.443	3951
4021.028	4040
4022.614	3968
4024.199	3950
4025.785	3887
4027.37	3874
4028.953	3947
4030.536	3933
4032.12	3978
4033.704	3908
4035.287	3962
4036.869	3961
4038.45	3990
4040.032	3867
4041.613	3909
4043.195	3848
4044.776	3955
4046.356	3940
4047.935	3920
4049.515	3881
4051.095	3903
4052.674	3811
4054.251	3906
4055.829	3909
4057.406	3932
4058.985	3843
4060.562	3907
4062.139	3909
4063.715	3881
4065.29	3981
4066.865	3823
4068.442	3774
4070.016	3873
4071.59	3883
4073.164	3892
4074.738	3844
4076.312	3900
4077.885	3870
4079.458	3815
4081.03	3856
4082.602	3806
4084.173	3790
4085.745	3816
4087.315	3764
4088.886	3817
4090.456	3799
4092.026	3867
4093.596	3858
4095.165	3691
4096.734	3833
4098.301	3842
4099.869	3847
4101.437	3821
4103.006	3838
4104.572	3736
4106.139	3791
4107.704	3743
4109.27	3744
4110.837	3808
4112.401	3785
4113.966	3797
4115.53	3810
4117.094	3693
4118.659	3710
4120.223	3783
4121.785	3727
4123.347	3667
4124.909	3709
4126.471	3728
4128.034	3692
4129.595	3723
4131.155	3708
4132.716	3729
4134.275	3708
4135.836	3705
4137.395	3711
4138.955	3716
4140.513	3745
4142.071	3628
4143.628	3622
4145.188	3697
4146.745	3684
4148.302	3666
4149.858	3628
4151.414	3672
4152.971	3644
4154.526	3608
4156.081	3596
4157.635	3624
4159.189	3615
4160.745	3695
4162.298	3642
4163.852	3547
4165.405	3631
4166.957	3623
4168.51	3648
4170.063	3609
4171.614	3575
4173.166	3580
4174.717	3549
4176.267	3522
4177.817	3530
4179.368	3538
4180.917	3549
4182.466	3565
4184.016	3531
4185.564	3569
4187.112	3508
4188.66	3578
4190.207	3607
4191.754	3495
4193.301	3505
4194.848	3574
4196.394	3497
4197.94	3531
4199.484	3456
4201.03	3537
4202.575	3588
4204.12	3550
4205.663	3496
4207.207	3419
4208.75	3480
4210.292	3457
4211.836	3435
4213.378	3453
4214.92	3463
4216.46	3388
4218.002	3519
4219.544	3502
4221.083	3409
4222.625	3412
4224.164	3467
4225.703	3409
4227.244	3400
4228.782	3457
4230.32	3368
4231.857	3329
4233.395	3444
4234.933	3434
4236.471	3377
4238.007	3466
4239.542	3461
4241.078	3415
4242.614	3437
4244.15	3375
4245.685	3373
4247.219	3438
4248.753	3422
4250.287	3435
4251.82	3435
4253.354	3438
4254.887	3454
4256.419	3407
4257.951	3415
4259.483	3343
4261.016	3321
4262.547	3363
4264.078	3353
4265.608	3334
4267.137	3417
4268.668	3333
4270.197	3377
4271.727	3408
4273.254	3363
4274.783	3340
4276.311	3346
4277.84	3333
4279.366	3392
4280.894	3315
4282.42	3302
4283.946	3369
4285.473	3352
4286.998	3303
4288.523	3308
4290.047	3271
4291.572	3302
4293.096	3256
4294.622	3290
4296.144	3305
4297.668	3307
4299.19	3211
4300.713	3290
4302.236	3309
4303.758	3301
4305.279	3252
4306.799	3288
4308.321	3315
4309.842	3314
4311.361	3212
4312.882	3197
4314.401	3224
