400.0961	4775
402.6185	4795
405.1424	4719
407.6635	4818
410.1838	4894
412.7035	4917
415.2225	4999
417.7388	4841
420.2585	5019
422.7754	5048
425.2917	5088
427.8072	5071
430.3221	5131
432.8363	5146
435.3498	5225
437.8626	5249
440.3727	5116
442.8841	5171
445.3969	5163
447.907	5124
450.4142	5175
452.9229	5275
455.4289	5191
457.9362	5232
460.4449	5095
462.9488	5164
465.454	5091
467.9566	5058
470.4604	5111
472.9637	5171
475.4662	5171
477.966	5037
480.4671	5182
482.9656	5251
485.4633	5123
487.9645	5226
490.4608	5149
492.9566	5199
495.4536	5240
497.948	5115
500.4437	5252
502.9387	5271
505.431	5244
507.9226	5322
510.4136	5341
512.9079	5344
515.3975	5317
517.8864	5310
520.3746	5287
522.8622	5275
525.3491	5336
527.8394	5343
530.3249	5310
532.8098	5274
535.2939	5410
537.7774	5355
540.2623	5353
542.7444	5312
545.2259	5402
547.7067	5333
550.1868	5368
552.6683	5351
555.147	5398
557.6231	5435
560.1005	5493
562.5773	5469
565.0534	5409
567.5308	5455
570.0056	5466
572.4776	5583
574.951	5595
577.4237	5583
579.8978	5593
582.3671	5548
584.8378	5673
587.3079	5690
589.7773	5611
592.244	5671
594.714	5598
597.1793	5676
599.6461	5574
602.1121	5665
604.5754	5542
607.0421	5659
609.5042	5452
611.9675	5607
614.4282	5539
616.8902	5573
619.3515	5583
621.8122	5542
624.2702	5506
626.7296	5671
629.1863	5486
631.6423	5391
634.1017	5504
636.5563	5436
639.0104	5550
641.4658	5591
643.9185	5474
646.3725	5498
648.8239	5554
651.2766	5569
653.7266	5483
656.176	5547
658.6247	5578
661.0748	5555
663.5242	5664
665.9709	5583
668.417	5620
670.8624	5638
673.3092	5652
675.7533	5719
678.1968	5791
680.6395	5715
683.0817	5602
685.5251	5707
687.9659	5754
690.4061	5791
692.8456	5730
695.2844	5781
697.7226	5738
700.1621	5765
702.599	5750
705.0332	5693
707.4688	5736
709.9036	5778
712.3399	5925
714.7735	5697
717.2044	5843
719.6367	5969
722.0683	5818
724.4993	5910
726.9296	5907
729.3593	5933
731.7883	6015
734.2147	5879
736.6423	5978
739.0714	6043
741.4958	6003
743.9216	6085
746.3447	6095
748.7691	5940
751.1929	6086
753.616	6037
756.0366	6050
758.4584	6168
760.8776	6092
763.2982	6223
765.718	6120
768.1373	6189
770.5539	6241
772.9698	6172
775.3871	6170
777.8038	6104
780.2178	6166
782.6332	6123
785.0459	6168
787.458	6033
789.8714	6133
792.2842	6144
794.6943	6149
797.1038	6179
799.5127	6109
801.9209	6158
804.3324	6144
806.7393	6183
809.1456	6067
811.5513	6192
813.9562	6250
816.3625	6205
818.7663	6291
821.1693	6309
823.5718	6151
825.9735	6314
828.3746	6216
830.7771	6392
833.177	6316
835.5762	6224
837.9747	6323
840.3727	6273
842.772	6236
845.1666	6271
847.5626	6410
849.958	6453
852.3527	6504
854.7488	6442
857.1403	6427
859.5331	6639
861.9253	6518
864.3168	6413
866.7057	6456
869.098	6381
871.4876	6460
873.8746	6469
876.263	6417
878.6487	6354
881.0378	6417
883.4243	6442
885.8081	6435
888.1933	6465
890.5759	6332
892.9598	6428
895.343	6380
897.7256	6465
900.1057	6397
902.4871	6407
904.8659	6417
907.246	6506
909.6254	6549
912.0023	6478
914.3786	6590
916.7562	6573
919.1331	6842
921.5074	6827
923.8831	6790
926.2562	6866
928.6287	6943
931.0005	6810
933.3757	6825
935.7462	6904
938.1162	6928
940.4855	6982
942.8542	6919
945.2242	7141
947.5916	7210
949.9584	7318
952.3266	7454
954.6921	7762
957.0571	8064
959.4233	8553
961.787	8664
964.15	8535
966.5125	8450
968.8742	8056
971.2354	7621
973.5959	7418
975.9559	7207
978.3151	6979
980.6738	6890
983.0338	6764
985.3912	6666
987.7461	6702
990.1022	6664
992.4578	6685
994.8127	6673
997.1689	6577
999.5207	6620
1001.874	6710
1004.226	6657
1006.576	6694
1008.929	6720
1011.28	6577
1013.628	6646
1015.977	6675
1018.324	6772
1020.674	6739
1023.019	6728
1025.366	6801
1027.713	6825
1030.056	6797
1032.399	6849
1034.746	6790
1037.087	6744
1039.431	6753
1041.771	6851
1044.113	6871
1046.454	6844
1048.793	6770
1051.133	6915
1053.471	6737
1055.807	6804
1058.146	6872
1060.483	6852
1062.818	6955
1065.153	6932
1067.489	6968
1069.822	6952
1072.156	6920
1074.488	7002
1076.82	7062
1079.15	7019
1081.48	6836
1083.814	6855
1086.143	6823
1088.471	6860
1090.799	6871
1093.126	6922
1095.452	6964
1097.78	6767
1100.105	6785
1102.43	6804
1104.754	6747
1107.077	6862
1109.4	6828
1111.722	6853
1114.044	6846
1116.365	6972
1118.685	6793
1121.005	6876
1123.324	6956
1125.643	6816
1127.961	6864
1130.278	6725
1132.595	6875
1134.911	6866
1137.226	6892
1139.541	6816
1141.854	6777
1144.167	6864
1146.482	6772
1148.793	6793
1151.105	6801
1153.414	6781
1155.725	6873
1158.033	6809
1160.344	6905
1162.651	6883
1164.959	6862
1167.265	6805
1169.572	6885
1171.878	6998
1174.184	6865
1176.488	6795
1178.79	6860
1181.094	6967
1183.396	6920
1185.699	6846
1188.001	6790
1190.301	6699
1192.6	6819
1194.9	6740
1197.2	6792
1199.497	6897
1201.794	6898
1204.09	6888
1206.387	6856
1208.684	6892
1210.978	6862
1213.272	6883
1215.565	6926
1217.858	7030
1220.15	6902
1222.443	6981
1224.734	6856
1227.024	7018
1229.313	6957
1231.602	6981
1233.892	7024
1236.18	7150
1238.467	7231
1240.754	7157
1243.04	7199
1245.325	7118
1247.612	7083
1249.896	7309
1252.178	7245
1254.461	7171
1256.743	7212
1259.027	7140
1261.308	7081
1263.587	7173
1265.867	7250
1268.146	7269
1270.425	7165
1272.703	7194
1274.981	7210
1277.256	7186
1279.532	7151
1281.808	7094
1284.083	7225
1286.358	7218
1288.63	7216
1290.904	7177
1293.175	7142
1295.449	7116
1297.719	7059
1299.99	6932
1302.259	7023
1304.529	7040
1306.798	7096
1309.065	7064
1311.333	7026
1313.599	7003
1315.866	7065
1318.131	7022
1320.396	7027
1322.66	7054
1324.925	7125
1327.187	7072
1329.448	7132
1331.711	7213
1333.974	7079
1336.234	6998
1338.493	7029
1340.752	7039
1343.01	7047
1345.269	6965
1347.526	7065
1349.784	7130
1352.04	7068
1354.295	7038
1356.552	7080
1358.806	7034
1361.059	7071
1363.312	7015
1365.564	6946
1367.818	7072
1370.069	7134
1372.318	7067
1374.568	7052
1376.817	7103
1379.066	7041
1381.316	7155
1383.564	7162
1385.809	7030
1388.056	7099
1390.301	7228
1392.549	7147
1394.793	7379
1397.036	7354
1399.279	7211
1401.522	7221
1403.763	7318
1406.007	7266
1408.248	7283
1410.487	7357
1412.727	7385
1414.965	7262
1417.205	7234
1419.442	7378
1421.68	7150
1423.915	7280
1426.152	7193
1428.388	7262
1430.623	7373
1432.857	7375
1435.091	7305
1437.323	7319
1439.556	7426
1441.789	7414
1444.019	7302
1446.25	7371
1448.48	7525
1450.708	7469
1452.938	7526
1455.167	7476
1457.394	7659
1459.62	7519
1461.846	7486
1464.073	7442
1466.299	7380
1468.523	7472
1470.746	7414
1472.969	7260
1475.191	7278
1477.415	7239
1479.636	7197
1481.858	7190
1484.078	7166
1486.298	7118
1488.518	7083
1490.736	7187
1492.954	7022
1495.169	7041
1497.386	7105
1499.602	7146
1501.819	7014
1504.034	7000
1506.248	6986
1508.462	7055
1510.675	7079
1512.888	7006
1515.1	7016
1517.311	7068
1519.522	7063
1521.732	7033
1523.942	7107
1526.151	7092
1528.36	6975
1530.566	7017
1532.773	7037
1534.98	6980
1537.187	7023
1539.392	7059
1541.596	7031
1543.801	7033
1546.005	7122
1548.208	7053
1550.411	7124
1552.612	7139
1554.814	7153
1557.013	7150
1559.212	7178
1561.414	7075
1563.612	7196
1565.811	7200
1568.007	7230
1570.203	7307
1572.403	7140
1574.598	7212
1576.792	7051
1578.988	7230
1581.181	7205
1583.376	7264
1585.568	7224
1587.761	7152
1589.952	7123
1592.143	7323
1594.333	7334
1596.524	7219
1598.715	7385
1600.903	7344
1603.091	7182
1605.278	7264
1607.466	7337
1609.652	7453
1611.838	7325
1614.023	7368
1616.207	7359
1618.391	7277
1620.576	7332
1622.759	7363
1624.941	7291
1627.123	7332
1629.304	7368
1631.484	7355
1633.664	7374
1635.844	7437
1638.022	7437
1640.201	7406
1642.38	7274
1644.556	7474
1646.732	7356
1648.908	7308
1651.084	7311
1653.257	7478
1655.433	7356
1657.607	7509
1659.779	7532
1661.951	7517
1664.122	7470
1666.295	7464
1668.467	7479
1670.635	7402
1672.805	7482
1674.973	7567
1677.142	7610
1679.31	7543
1681.478	7552
1683.644	7506
1685.81	7460
1687.975	7428
1690.142	7425
1692.305	7420
1694.468	7325
1696.632	7259
1698.794	7338
1700.957	7388
1703.119	7388
1705.279	7277
1707.439	7351
1709.598	7375
1711.758	7228
1713.917	7236
1716.075	7260
1718.231	7225
1720.388	7222
1722.543	7243
1724.702	7170
1726.856	7244
1729.01	7285
1731.164	7284
1733.317	7273
1735.471	7298
1737.623	7257
1739.774	7337
1741.925	7340
1744.075	7290
1746.225	7339
1748.376	7291
1750.524	7228
1752.672	7309
1754.82	7306
1756.965	7406
1759.113	7273
1761.259	7194
1763.405	7287
1765.549	7137
1767.694	7324
1769.836	7298
1771.981	7225
1774.123	7287
1776.264	7495
1778.405	7305
1780.546	7288
1782.687	7257
1784.827	7331
1786.966	7304
1789.103	7273
1791.242	7332
1793.381	7295
1795.517	7410
1797.653	7452
1799.788	7278
1801.923	7309
1804.057	7297
1806.193	7202
1808.326	7334
1810.457	7335
1812.59	7221
1814.721	7309
1816.855	7202
1818.984	7257
1821.113	7377
1823.244	7335
1825.372	7237
1827.499	7390
1829.63	7420
1831.756	7190
1833.882	7315
1836.007	7283
1838.132	7400
1840.26	7335
1842.384	7187
1844.507	7166
1846.63	7301
1848.752	7291
1850.875	7113
1852.996	7304
1855.118	7259
1857.238	7228
1859.358	7172
1861.477	7238
1863.597	7307
1865.715	7268
1867.832	7251
1869.948	7203
1872.064	7142
1874.181	7272
1876.297	7259
1878.411	7234
1880.526	7262
1882.639	7318
1884.752	7306
1886.865	7223
1888.977	7276
1891.089	7167
1893.2	7429
1895.308	7293
1897.42	7289
1899.53	7370
1901.639	7118
1903.745	7266
1905.853	7406
1907.962	7319
1910.067	7331
1912.174	7267
1914.278	7231
1916.383	7332
1918.486	7397
1920.592	7390
1922.694	7292
1924.797	7283
1926.898	7299
1929	7293
1931.102	7319
1933.203	7460
1935.301	7371
1937.401	7369
1939.499	7253
1941.598	7330
1943.697	7440
1945.793	7241
1947.888	7392
1949.985	7432
1952.08	7387
1954.176	7261
1956.269	7416
1958.364	7274
1960.457	7447
1962.549	7337
1964.642	7333
1966.733	7364
1968.823	7186
1970.913	7407
1973.005	7347
1975.093	7421
1977.184	7241
1979.271	7449
1981.359	7288
1983.446	7264
1985.532	7285
1987.619	7340
1989.705	7310
1991.789	7275
1993.874	7415
1995.956	7245
1998.041	7314
2000.123	7273
2002.206	7283
2004.287	7318
2006.368	7282
2008.449	7255
2010.529	7279
2012.609	7178
2014.688	7283
2016.766	7165
2018.843	7477
2020.922	7188
2022.999	7334
2025.074	7241
2027.15	7110
2029.225	7367
2031.299	7325
2033.375	7324
2035.447	7194
2037.52	7227
2039.592	7192
2041.664	7222
2043.736	7163
2045.807	7288
2047.876	7358
2049.947	7293
2052.015	7277
2054.086	7332
2056.153	7334
2058.221	7359
2060.288	7204
2062.353	7314
2064.42	7229
2066.486	7239
2068.55	7214
2070.614	7243
2072.678	7268
2074.741	7314
2076.805	7373
2078.866	7167
2080.929	7297
2082.99	7326
2085.049	7303
2087.109	7379
2089.17	7219
2091.228	7285
2093.286	7323
2095.344	7304
2097.4	7341
2099.46	7251
2101.516	7255
2103.572	7274
2105.626	7230
2107.679	7237
2109.735	7255
2111.788	7190
2113.841	7316
2115.894	7283
2117.945	7352
2119.997	7237
2122.049	7213
2124.1	7346
2126.148	7224
2128.197	7217
2130.246	7191
2132.296	7295
2134.342	7212
2136.39	7183
2138.437	7198
2140.483	7201
2142.527	7368
2144.574	7166
2146.619	7187
2148.661	7267
2150.705	7192
2152.747	7087
2154.792	7189
2156.832	7217
2158.874	7185
2160.915	7228
2162.954	7210
2164.995	7077
2167.034	7034
2169.072	7084
2171.111	7159
2173.148	7116
2175.186	7235
2177.223	7160
2179.258	7087
2181.294	7150
2183.328	7112
2185.362	7199
2187.398	7177
2189.431	7160
2191.463	7082
2193.495	7115
2195.528	7161
2197.56	7285
2199.59	7179
2201.62	7083
2203.649	7130
2205.678	7039
2207.708	7050
2209.737	7114
2211.764	7069
2213.791	7098
2215.817	7018
2217.843	6978
2219.87	7130
2221.895	7093
2223.919	7086
2225.942	7018
2227.966	7138
2229.988	7159
2232.012	6983
2234.032	7053
2236.054	7010
2238.074	7066
2240.095	7045
2242.116	6979
2244.135	7056
2246.153	7002
2248.171	7049
2250.188	6962
2252.208	6887
2254.223	7065
2256.239	7062
2258.255	7059
2260.269	6930
2262.283	7066
2264.3	7026
2266.312	7093
2268.325	7022
2270.336	7080
2272.349	7146
2274.362	7047
2276.372	6930
2278.383	6973
2280.392	6925
2282.402	6973
2284.409	6937
2286.418	7006
2288.427	7059
2290.433	6904
2292.441	7176
2294.446	7061
2296.453	7144
2298.459	6997
2300.463	7158
2302.466	7023
2304.471	6953
2306.475	6889
2308.477	6995
2310.478	7043
2312.481	6881
2314.481	6892
2316.481	6975
2318.482	7047
2320.482	7036
2322.48	6941
2324.48	6967
2326.478	6951
2328.476	6866
2330.473	6998
2332.469	6851
2334.465	7087
2336.46	6990
2338.454	6757
2340.45	6911
2342.444	6947
2344.437	6810
2346.43	6844
2348.421	6971
2350.414	7010
2352.405	6898
2354.396	6835
2356.386	6856
2358.376	6883
2360.366	6870
2362.355	6838
2364.343	6859
2366.331	6866
2368.317	6758
2370.304	6812
2372.292	6820
2374.278	6900
2376.262	6714
2378.247	6792
2380.23	6856
2382.216	6924
2384.199	6842
2386.181	6750
2388.163	6743
2390.144	6761
2392.127	6859
2394.107	6810
2396.087	6686
2398.066	6719
2400.046	6782
2402.023	6698
2404.004	6787
2405.981	6753
2407.957	6836
2409.934	6748
2411.91	6864
2413.886	6785
2415.862	6755
2417.836	6724
2419.809	6721
2421.784	6687
2423.756	6758
2425.73	6683
2427.701	6813
2429.672	6686
2431.644	6719
2433.615	6813
2435.586	6693
2437.555	6721
2439.523	6734
2441.491	6700
2443.459	6833
2445.428	6799
2447.395	6763
2449.361	6745
2451.327	6699
2453.292	6715
2455.257	6739
2457.223	6631
2459.187	6563
2461.15	6680
2463.113	6796
2465.076	6682
2467.039	6589
2468.999	6706
2470.96	6659
2472.921	6641
2474.881	6692
2476.841	6644
2478.8	6681
2480.759	6736
2482.717	6581
2484.675	6689
2486.63	6578
2488.589	6666
2490.545	6709
2492.5	6551
2494.455	6790
2496.408	6644
2498.364	6570
2500.318	6637
2502.27	6586
2504.223	6636
2506.174	6618
2508.126	6585
2510.078	6614
2512.03	6624
2513.979	6626
2515.927	6469
2517.877	6651
2519.826	6623
2521.775	6521
2523.722	6569
2525.668	6559
2527.616	6547
2529.561	6521
2531.508	6592
2533.452	6568
2535.398	6626
2537.342	6682
2539.284	6685
2541.229	6676
2543.173	6554
2545.114	6551
2547.055	6636
2548.996	6547
2550.938	6563
2552.878	6598
2554.817	6622
2556.756	6641
2558.695	6550
2560.633	6507
2562.572	6586
2564.509	6533
2566.445	6653
2568.382	6568
2570.317	6565
2572.254	6625
2574.189	6635
2576.123	6511
2578.057	6596
2579.99	6599
2581.923	6493
2583.855	6501
2585.788	6663
2587.719	6466
2589.65	6622
2591.579	6505
2593.511	6593
2595.44	6517
2597.37	6562
2599.297	6579
2601.225	6634
2603.153	6490
2605.08	6566
2607.007	6620
2608.932	6544
2610.858	6542
2612.782	6603
2614.709	6595
2616.632	6533
2618.556	6529
2620.478	6542
2622.401	6574
2624.324	6596
2626.247	6626
2628.167	6572
2630.088	6684
2632.008	6541
2633.928	6547
2635.848	6559
2637.766	6498
2639.684	6633
2641.603	6595
2643.519	6501
2645.437	6618
2647.353	6606
2649.27	6550
2651.184	6587
2653.099	6605
2655.014	6606
2656.928	6545
2658.842	6546
2660.755	6587
2662.667	6631
2664.579	6494
2666.491	6628
2668.402	6457
2670.312	6460
2672.222	6386
2674.132	6513
2676.042	6545
2677.951	6492
2679.859	6422
2681.766	6536
2683.674	6475
2685.582	6462
2687.488	6456
2689.392	6541
2691.298	6435
2693.202	6502
2695.107	6404
2697.012	6335
2698.914	6443
2700.817	6499
2702.72	6451
2704.622	6309
2706.524	6429
2708.425	6435
2710.326	6489
2712.225	6480
2714.125	6465
2716.024	6534
2717.923	6450
2719.822	6467
2721.719	6422
2723.616	6343
2725.512	6365
2727.41	6398
2729.305	6422
2731.201	6392
2733.095	6300
2734.99	6456
2736.884	6427
2738.778	6344
2740.67	6319
2742.562	6352
2744.455	6450
2746.346	6308
2748.238	6356
2750.129	6472
2752.018	6434
2753.907	6428
2755.797	6408
2757.687	6314
2759.575	6389
2761.462	6375
2763.349	6303
2765.237	6304
2767.124	6330
2769.009	6252
2770.894	6394
2772.779	6258
2774.663	6313
2776.547	6302
2778.431	6351
2780.314	6348
2782.197	6353
2784.078	6405
2785.96	6319
2787.842	6296
2789.723	6370
2791.603	6344
2793.483	6294
2795.362	6291
2797.241	6398
2799.121	6340
2800.997	6235
2802.874	6267
2804.751	6305
2806.628	6349
2808.506	6179
2810.38	6276
2812.255	6260
2814.13	6310
2816.003	6363
2817.878	6264
2819.752	6263
2821.623	6267
2823.496	6299
2825.368	6276
2827.238	6298
2829.111	6225
2830.98	6229
2832.851	6242
2834.719	6255
2836.589	6271
2838.458	6338
2840.327	6345
2842.193	6280
2844.061	6370
2845.927	6322
2847.794	6345
2849.66	6378
2851.525	6438
2853.39	6334
2855.254	6368
2857.117	6419
2858.983	6492
2860.845	6519
2862.707	6520
2864.569	6594
2866.431	6559
2868.293	6493
2870.154	6602
2872.013	6582
2873.873	6751
2875.733	6784
2877.592	6803
2879.451	6878
2881.309	6949
2883.166	6964
2885.022	6964
2886.879	7005
2888.736	7186
2890.591	6990
2892.446	6968
2894.301	7082
2896.155	7063
2898.009	7023
2899.863	7050
2901.716	6957
2903.568	6994
2905.419	6967
2907.27	7120
2909.123	6994
2910.973	7169
2912.824	7078
2914.673	7097
2916.521	7169
2918.372	7135
2920.22	7196
2922.067	7396
2923.914	7307
2925.761	7379
2927.607	7476
2929.455	7587
2931.301	7548
2933.144	7599
2934.99	7747
2936.833	7824
2938.678	7836
2940.522	7892
2942.364	8003
2944.207	8035
2946.048	8039
2947.891	8160
2949.731	8091
2951.571	8117
2953.412	8043
2955.25	7940
2957.09	7877
2958.93	7988
2960.767	7820
2962.606	7823
2964.443	7864
2966.279	7589
2968.116	7528
2969.953	7479
2971.788	7404
2973.623	7198
2975.457	7253
2977.292	7207
2979.127	7046
2980.959	7106
2982.792	7031
2984.624	7071
2986.455	6972
2988.288	6956
2990.119	6888
2991.949	6906
2993.779	6770
2995.608	6846
2997.439	6659
2999.268	6675
3001.096	6548
3002.923	6553
3004.751	6537
3006.578	6593
3008.406	6348
3010.232	6465
3012.057	6342
3013.883	6276
3015.706	6290
3017.532	6244
3019.356	6181
3021.179	6154
3023.002	6159
3024.823	6194
3026.646	5974
3028.469	6163
3030.289	6123
3032.11	6027
3033.93	5948
3035.749	6008
3037.57	6016
3039.39	6047
3041.207	5863
3043.026	6049
3044.842	5987
3046.661	5907
3048.477	6031
3050.294	6030
3052.109	6026
3053.925	5944
3055.739	5892
3057.555	6037
3059.368	5934
3061.181	5943
3062.995	5934
3064.807	6052
3066.62	6071
3068.433	5957
3070.243	5945
3072.054	5911
3073.865	5823
3075.675	5875
3077.485	5878
3079.293	5847
3081.102	5889
3082.911	5737
3084.719	5841
3086.527	5865
3088.333	5731
3090.139	5904
3091.945	5807
3093.75	5774
3095.557	5769
3097.361	5689
3099.165	5765
3100.969	5752
3102.772	5692
3104.575	5678
3106.379	5716
3108.181	5796
3109.982	5732
3111.783	5725
3113.584	5694
3115.386	5682
3117.186	5607
3118.985	5672
3120.783	5725
3122.582	5755
3124.381	5629
3126.179	5810
3127.975	5663
3129.772	5590
3131.569	5651
3133.365	5662
3135.161	5578
3136.956	5648
3138.751	5637
3140.544	5606
3142.338	5641
3144.132	5658
3145.925	5577
3147.717	5579
3149.509	5601
3151.301	5598
3153.091	5532
3154.884	5602
3156.673	5523
3158.462	5571
3160.252	5616
3162.041	5487
3163.831	5597
3165.618	5558
3167.405	5605
3169.193	5620
3170.979	5519
3172.767	5582
3174.553	5503
3176.338	5550
3178.123	5560
3179.907	5490
3181.692	5630
3183.477	5526
3185.259	5484
3187.042	5625
3188.824	5566
3190.607	5630
3192.389	5551
3194.17	5571
3195.951	5488
3197.73	5507
3199.51	5494
3201.289	5574
3203.07	5572
3204.848	5483
3206.626	5486
3208.403	5550
3210.18	5358
3211.959	5587
3213.735	5430
3215.511	5585
3217.285	5586
3219.06	5447
3220.836	5468
3222.611	5368
3224.384	5581
3226.158	5600
3227.929	5475
3229.702	5487
3231.476	5540
3233.248	5517
3235.018	5408
3236.789	5540
3238.56	5548
3240.33	5424
3242.1	5504
3243.869	5437
3245.637	5551
3247.405	5529
3249.172	5432
3250.941	5538
3252.707	5513
3254.474	5525
3256.24	5623
3258.006	5463
3259.772	5428
3261.537	5477
3263.301	5568
3265.065	5579
3266.828	5418
3268.592	5661
3270.355	5495
3272.117	5487
3273.878	5364
3275.64	5486
3277.401	5492
3279.162	5382
3280.922	5527
3282.682	5433
3284.441	5593
3286.199	5394
3287.959	5363
3289.716	5402
3291.475	5548
3293.232	5404
3294.988	5526
3296.744	5482
3298.501	5585
3300.256	5507
3302.011	5491
3303.766	5513
3305.52	5470
3307.275	5375
3309.028	5421
3310.781	5457
3312.533	5470
3314.285	5479
3316.038	5500
3317.789	5394
3319.54	5433
3321.289	5446
3323.039	5383
3324.789	5513
3326.539	5518
3328.288	5446
3330.035	5519
3331.783	5399
3333.531	5455
3335.28	5382
3337.025	5319
3338.771	5437
3340.518	5379
3342.262	5330
3344.009	5461
3345.753	5294
3347.497	5458
3349.24	5392
3350.983	5397
3352.726	5473
3354.469	5358
3356.212	5234
3357.952	5417
3359.694	5267
3361.434	5415
3363.176	5281
3364.916	5347
3366.654	5278
3368.394	5242
3370.132	5283
3371.871	5267
3373.61	5377
3375.346	5215
3377.083	5359
3378.82	5219
3380.556	5315
3382.292	5234
3384.027	5267
3385.763	5320
3387.497	5244
3389.231	5349
3390.965	5198
3392.698	5206
3394.431	5262
3396.164	5263
3397.896	5211
3399.627	5181
3401.36	5118
3403.09	5140
3404.82	5165
3406.55	5215
3408.279	5133
3410.01	5331
3411.738	5243
3413.467	5095
3415.194	5164
3416.92	5123
3418.647	5252
3420.375	5147
3422.102	5151
3423.827	5217
3425.553	5144
3427.277	5141
3429.003	5086
3430.727	5122
3432.451	5077
3434.173	5100
3435.896	5131
3437.62	5074
3439.343	5017
3441.063	5111
3442.785	5012
3444.505	5016
3446.226	5106
3447.948	5013
3449.666	4942
3451.386	5070
3453.104	5042
3454.823	5157
3456.541	5159
3458.259	5025
3459.976	5140
3461.693	4986
3463.408	4993
3465.125	4998
3466.841	4998
3468.556	4998
3470.271	5022
3471.985	5067
3473.698	4878
3475.414	4943
3477.126	4917
3478.838	4885
3480.55	4947
3482.263	4855
3483.975	4943
3485.686	4872
3487.396	4936
3489.106	4886
3490.817	4878
3492.526	4767
3494.236	4967
3495.944	4987
3497.652	4859
3499.359	4882
3501.066	4667
3502.775	4782
3504.481	4820
3506.187	4833
3507.893	4767
3509.598	4836
3511.304	4723
3513.009	4682
3514.713	4801
3516.417	4777
3518.12	4718
3519.821	4700
3521.525	4732
3523.228	4704
3524.929	4793
3526.631	4732
3528.33	4697
3530.032	4831
3531.733	4727
3533.433	4769
3535.131	4700
3536.83	4667
3538.529	4721
3540.227	4666
3541.925	4767
3543.623	4656
3545.319	4671
3547.016	4720
3548.712	4604
3550.408	4664
3552.103	4743
3553.798	4665
3555.491	4704
3557.188	4610
3558.88	4580
3560.574	4604
3562.266	4676
3563.959	4637
3565.651	4678
3567.343	4557
3569.035	4550
3570.725	4523
3572.415	4576
3574.106	4622
3575.797	4547
3577.485	4537
3579.174	4611
3580.863	4489
3582.551	4523
3584.238	4550
3585.926	4533
3587.613	4523
3589.3	4449
3590.986	4547
3592.671	4529
3594.357	4537
3596.042	4465
3597.726	4447
3599.41	4417
3601.094	4411
3602.778	4442
3604.461	4415
3606.143	4390
3607.825	4520
3609.507	4405
3611.188	4482
3612.87	4330
3614.551	4392
3616.229	4339
3617.909	4315
3619.589	4308
3621.269	4287
3622.948	4320
3624.625	4412
3626.302	4313
3627.98	4329
3629.657	4321
3631.334	4308
3633.01	4329
3634.686	4388
3636.361	4186
3638.036	4242
3639.712	4275
3641.385	4251
3643.06	4279
3644.732	4174
3646.405	4396
3648.08	4235
3649.751	4230
3651.424	4206
3653.094	4290
3654.766	4312
3656.436	4192
3658.106	4327
3659.777	4181
3661.446	4244
3663.115	4250
3664.783	4270
3666.452	4191
3668.121	4182
3669.788	4133
3671.454	4183
3673.121	4201
3674.789	4187
3676.455	4093
3678.12	4226
3679.784	4181
3681.45	4188
3683.114	4169
3684.779	4132
3686.442	4147
3688.105	4142
3689.768	4136
3691.43	4191
3693.093	4084
3694.754	4193
3696.415	4093
3698.076	4097
3699.736	4225
3701.396	4101
3703.057	4137
3704.716	4140
3706.375	4079
3708.034	4130
3709.692	4018
3711.351	4099
3713.008	4118
3714.665	4047
3716.321	4143
3717.977	4028
3719.634	4146
3721.29	4085
3722.945	4054
3724.598	4040
3726.253	4055
3727.907	4051
3729.561	4047
3731.214	4025
3732.867	3981
3734.518	4040
3736.171	4067
3737.824	3950
3739.474	4066
3741.125	4058
3742.775	4024
3744.425	4037
3746.074	4007
3747.725	3960
3749.373	4046
3751.022	4003
3752.669	3985
3754.318	3880
3755.966	4030
3757.612	4063
3759.259	3990
3760.905	3957
3762.55	4007
3764.197	3859
3765.842	4029
3767.486	3928
3769.131	3942
3770.774	3915
3772.417	3911
3774.061	4012
3775.705	3991
3777.347	3891
3778.988	3963
3780.629	3939
3782.271	3890
3783.912	3930
3785.552	3974
3787.192	3924
3788.831	3930
3790.472	3852
3792.112	3926
3793.75	3900
3795.388	3931
3797.024	3913
3798.661	3868
3800.3	3757
3801.936	3864
3803.572	3903
3805.208	3842
3806.844	3856
3808.48	3757
3810.115	3792
3811.748	3924
3813.382	3804
3815.016	3876
3816.649	3909
3818.283	3826
3819.914	3825
3821.547	3824
3823.178	3818
3824.809	3822
3826.441	3786
3828.072	3820
3829.701	3885
3831.331	3771
3832.96	3862
3834.591	3734
3836.219	3841
3837.847	3793
3839.475	3801
3841.102	3762
3842.729	3745
3844.357	3748
3845.984	3764
3847.609	3857
3849.234	3700
3850.86	3710
3852.485	3757
3854.11	3785
3855.734	3615
3857.357	3687
3858.981	3766
3860.603	3697
3862.227	3761
3863.848	3813
3865.471	3708
3867.092	3776
3868.713	3687
3870.334	3744
3871.954	3698
3873.575	3731
3875.194	3701
3876.813	3698
3878.433	3819
3880.051	3733
3881.669	3725
3883.286	3700
3884.904	3715
3886.52	3726
3888.138	3616
3889.754	3571
3891.37	3657
3892.985	3643
3894.6	3665
3896.216	3646
3897.831	3787
3899.444	3632
3901.058	3659
3902.67	3631
3904.283	3589
3905.897	3655
3907.509	3536
3909.121	3629
3910.731	3651
3912.342	3596
3913.954	3644
3915.563	3696
3917.174	3586
3918.783	3622
3920.391	3670
3922.002	3612
3923.611	3638
3925.218	3584
3926.826	3583
3928.432	3615
3930.039	3612
3931.647	3562
3933.253	3596
3934.859	3541
3936.464	3596
3938.068	3571
3939.675	3684
3941.278	3521
3942.883	3601
3944.486	3606
3946.089	3537
3947.692	3632
3949.295	3603
3950.898	3571
3952.499	3568
3954.1	3629
3955.7	3580
3957.303	3608
3958.903	3594
3960.502	3543
3962.101	3459
3963.7	3593
3965.301	3527
3966.899	3543
3968.497	3578
3970.094	3524
3971.691	3546
3973.288	3471
3974.885	3593
3976.481	3562
3978.077	3447
3979.672	3497
3981.267	3491
3982.863	3486
3984.457	3520
3986.051	3446
3987.645	3424
3989.238	3521
3990.831	3462
3992.425	3529
3994.017	3420
3995.607	3418
3997.199	3464
3998.79	3458
4000.382	3389
4001.973	3520
4003.561	3417
4005.151	3393
4006.741	3427
4008.331	3370
4009.918	3381
4011.507	3369
4013.095	3442
4014.681	3305
4016.269	3449
4017.856	3391
4019.443	3347
4021.028	3322
4022.614	3343
4024.199	3363
4025.785	3360
4027.37	3340
4028.953	3356
4030.536	3410
4032.12	3328
4033.704	3334
4035.287	3277
4036.869	3314
4038.45	3326
4040.032	3314
4041.613	3322
4043.195	3338
4044.776	3345
4046.356	3237
4047.935	3274
4049.515	3307
4051.095	3271
4052.674	3330
4054.251	3216
4055.829	3313
4057.406	3285
4058.985	3275
4060.562	3265
4062.139	3249
4063.715	3265
4065.29	3192
4066.865	3296
4068.442	3228
4070.016	3228
4071.59	3237
4073.164	3272
4074.738	3234
4076.312	3325
4077.885	3209
4079.458	3314
4081.03	3280
4082.602	3253
4084.173	3305
4085.745	3254
4087.315	3189
4088.886	3218
4090.456	3279
4092.026	3137
4093.596	3267
4095.165	3239
4096.734	3205
4098.301	3186
4099.869	3157
4101.437	3217
4103.006	3179
4104.572	3228
4106.139	3195
4107.704	3209
4109.27	3144
4110.837	3197
4112.401	3167
4113.966	3153
4115.53	3254
4117.094	3126
4118.659	3150
4120.223	3107
4121.785	3090
4123.347	3161
4124.909	3113
4126.471	3140
4128.034	3096
4129.595	3095
4131.155	3142
4132.716	3148
4134.275	3085
4135.836	3200
4137.395	3073
4138.955	3181
4140.513	3103
4142.071	3143
4143.628	3076
4145.188	3109
4146.745	3029
4148.302	3102
4149.858	3086
4151.414	3076
4152.971	3086
4154.526	3084
4156.081	3129
4157.635	3096
4159.189	3068
4160.745	3049
4162.298	3001
4163.852	3009
4165.405	3036
4166.957	3032
4168.51	2990
4170.063	3056
4171.614	2993
4173.166	3012
4174.717	2994
4176.267	2962
4177.817	3034
4179.368	3018
4180.917	2978
4182.466	2968
4184.016	2997
4185.564	2927
4187.112	2943
4188.66	2950
4190.207	2904
4191.754	2995
4193.301	2927
4194.848	2984
4196.394	3006
4197.94	2959
4199.484	2944
4201.03	2982
4202.575	2944
4204.12	2940
4205.663	2955
4207.207	2900
4208.75	2942
4210.292	2964
4211.836	2924
4213.378	2903
4214.92	2979
4216.46	2920
4218.002	2882
4219.544	2896
4221.083	2894
4222.625	2917
4224.164	2867
4225.703	2866
4227.244	2977
4228.782	2882
4230.32	2985
4231.857	2856
4233.395	2916
4234.933	2908
4236.471	2911
4238.007	2840
4239.542	2928
4241.078	2908
4242.614	2858
4244.15	2858
4245.685	2850
4247.219	2871
4248.753	2907
4250.287	2849
4251.82	2909
4253.354	2844
4254.887	2848
4256.419	2831
4257.951	2887
4259.483	2893
4261.016	2868
4262.547	2875
4264.078	2833
4265.608	2819
4267.137	2905
4268.668	2786
4270.197	2839
4271.727	2841
4273.254	2772
4274.783	2848
4276.311	2779
4277.84	2914
4279.366	2851
4280.894	2830
4282.42	2802
4283.946	2830
4285.473	2845
4286.998	2767
4288.523	2804
4290.047	2835
4291.572	2820
4293.096	2790
4294.622	2788
4296.144	2875
4297.668	2711
4299.19	2781
4300.713	2770
4302.236	2765
4303.758	2764
4305.279	2772
4306.799	2831
4308.321	2731
4309.842	2730
4311.361	2736
4312.882	2698
4314.401	2703
