400.0961	8000
402.6185	8002
405.1424	8075
407.6635	8013
410.1838	8182
412.7035	8020
415.2225	8163
417.7388	8283
420.2585	8291
422.7754	8302
425.2917	8390
427.8072	8410
430.3221	8578
432.8363	8567
435.3498	8535
437.8626	8643
440.3727	8580
442.8841	8595
445.3969	8544
447.907	8627
450.4142	8598
452.9229	8660
455.4289	8725
457.9362	8623
460.4449	8611
462.9488	8539
465.454	8580
467.9566	8559
470.4604	8658
472.9637	8563
475.4662	8726
477.966	8635
480.4671	8631
482.9656	8635
485.4633	8824
487.9645	8808
490.4608	8843
492.9566	9059
495.4536	8939
497.948	8992
500.4437	8736
502.9387	8914
505.431	8891
507.9226	9020
510.4136	8907
512.9079	9180
515.3975	8955
517.8864	8940
520.3746	8844
522.8622	8957
525.3491	9044
527.8394	9025
530.3249	9025
532.8098	8995
535.2939	9012
537.7774	9097
540.2623	9105
542.7444	9071
545.2259	9022
547.7067	9141
550.1868	9159
552.6683	9097
555.147	8906
557.6231	9075
560.1005	9173
562.5773	9191
565.0534	9083
567.5308	9164
570.0056	9253
572.4776	9228
574.951	9257
577.4237	9298
579.8978	9486
582.3671	9335
584.8378	9540
587.3079	9429
589.7773	9535
592.244	9400
594.714	9394
597.1793	9329
599.6461	9433
602.1121	9405
604.5754	9482
607.0421	9317
609.5042	9485
611.9675	9327
614.4282	9463
616.8902	9368
619.3515	9429
621.8122	9459
624.2702	9429
626.7296	9403
629.1863	9293
631.6423	9397
634.1017	9307
636.5563	9382
639.0104	9450
641.4658	9362
643.9185	9428
646.3725	9358
648.8239	9465
651.2766	9535
653.7266	9548
656.176	9592
658.6247	9537
661.0748	9549
663.5242	9529
665.9709	9585
668.417	9741
670.8624	9582
673.3092	9723
675.7533	9622
678.1968	9679
680.6395	9681
683.0817	9718
685.5251	9758
687.9659	9783
690.4061	9761
692.8456	9849
695.2844	9772
697.7226	9853
700.1621	10000
702.599	9775
705.0332	9868
707.4688	9812
709.9036	9855
712.3399	9908
714.7735	9933
717.2044	9866
719.6367	9991
722.0683	9972
724.4993	10021
726.9296	10040
729.3593	10112
731.7883	9922
734.2147	10101
736.6423	10089
739.0714	10215
741.4958	10195
743.9216	10219
746.3447	10288
748.7691	10256
751.1929	10445
753.616	10380
756.0366	10370
758.4584	10494
760.8776	10391
763.2982	10335
765.718	10614
768.1373	10467
770.5539	10581
772.9698	10571
775.3871	10302
777.8038	10557
780.2178	10549
782.6332	10368
785.0459	10390
787.458	10412
789.8714	10529
792.2842	10578
794.6943	10331
797.1038	10440
799.5127	10403
801.9209	10579
804.3324	10599
806.7393	10671
809.1456	10634
811.5513	10691
813.9562	10649
816.3625	10516
818.7663	10433
821.1693	10513
823.5718	10553
825.9735	10597
828.3746	10762
830.7771	10575
833.177	10805
835.5762	10781
837.9747	10634
840.3727	10704
842.772	10724
845.1666	10884
847.5626	10751
849.958	10887
852.3527	10851
854.7488	10898
857.1403	10849
859.5331	10780
861.9253	10813
864.3168	10851
866.7057	10690
869.098	10809
871.4876	10822
873.8746	10760
876.263	10838
878.6487	11016
881.0378	10797
883.4243	10653
885.8081	10736
888.1933	10859
890.5759	10817
892.9598	10925
895.343	10882
897.7256	10842
900.1057	10894
902.4871	10719
904.8659	10840
907.246	10821
909.6254	10801
912.0023	10981
914.3786	10948
916.7562	11110
919.1331	11267
921.5074	11312
923.8831	11370
926.2562	11320
928.6287	11380
931.0005	11400
933.3757	11458
935.7462	11470
938.1162	11384
940.4855	11393
942.8542	11427
945.2242	11674
947.5916	11701
949.9584	11889
952.3266	11930
954.6921	12288
957.0571	12577
959.4233	12979
961.787	12878
964.15	12881
966.5125	12752
968.8742	12298
971.2354	11887
973.5959	11778
975.9559	11691
978.3151	11465
980.6738	11299
983.0338	11291
985.3912	11280
987.7461	11327
990.1022	11254
992.4578	11209
994.8127	11111
997.1689	11149
999.5207	11279
1001.874	11341
1004.226	11291
1006.576	11297
1008.929	11265
1011.28	11222
1013.628	11293
1015.977	11180
1018.324	11227
1020.674	11216
1023.019	11281
1025.366	11323
1027.713	11301
1030.056	11364
1032.399	11357
1034.746	11305
1037.087	11474
1039.431	11525
1041.771	11291
1044.113	11404
1046.454	11321
1048.793	11432
1051.133	11287
1053.471	11369
1055.807	11568
1058.146	11278
1060.483	11411
1062.818	11554
1065.153	11621
1067.489	11398
1069.822	11652
1072.156	11475
1074.488	11546
1076.82	11596
1079.15	11509
1081.48	11447
1083.814	11450
1086.143	11519
1088.471	11521
1090.799	11317
1093.126	11485
1095.452	11544
1097.78	11578
1100.105	11479
1102.43	11451
1104.754	11486
1107.077	11470
1109.4	11542
1111.722	11620
1114.044	11492
1116.365	11545
1118.685	11585
1121.005	11512
1123.324	11692
1125.643	11573
1127.961	11623
1130.278	11610
1132.595	11514
1134.911	11584
1137.226	11557
1139.541	11593
1141.854	11655
1144.167	11442
1146.482	11561
1148.793	11607
1151.105	11623
1153.414	11605
1155.725	11474
1158.033	11539
1160.344	11589
1162.651	11623
1164.959	11429
1167.265	11663
1169.572	11605
1171.878	11530
1174.184	11535
1176.488	11540
1178.79	11729
1181.094	11536
1183.396	11729
1185.699	11512
1188.001	11686
1190.301	11552
1192.6	11595
1194.9	11497
1197.2	11567
1199.497	11628
1201.794	11442
1204.09	11776
1206.387	11604
1208.684	11510
1210.978	11580
1213.272	11656
1215.565	11566
1217.858	11615
1220.15	11592
1222.443	11556
1224.734	11661
1227.024	11702
1229.313	11711
1231.602	11887
1233.892	11786
1236.18	11902
1238.467	11789
1240.754	12028
1243.04	12064
1245.325	11933
1247.612	11952
1249.896	11871
1252.178	12026
1254.461	11911
1256.743	11920
1259.027	11956
1261.308	12096
1263.587	12169
1265.867	11836
1268.146	12077
1270.425	12069
1272.703	11967
1274.981	12041
1277.256	11965
1279.532	12076
1281.808	11884
1284.083	11946
1286.358	11813
1288.63	11879
1290.904	11841
1293.175	11862
1295.449	11945
1297.719	11856
1299.99	11820
1302.259	11884
1304.529	11703
1306.798	11909
1309.065	11868
1311.333	11929
1313.599	11792
1315.866	11785
1318.131	12001
1320.396	11846
1322.66	11821
1324.925	11901
1327.187	11674
1329.448	11821
1331.711	11854
1333.974	12067
1336.234	12013
1338.493	11887
1340.752	11818
1343.01	11880
1345.269	12078
1347.526	11914
1349.784	11985
1352.04	11850
1354.295	11782
1356.552	11973
1358.806	11814
1361.059	11788
1363.312	11991
1365.564	11826
1367.818	11996
1370.069	11989
1372.318	12048
1374.568	11983
1376.817	11942
1379.066	11910
1381.316	11952
1383.564	12060
1385.809	11980
1388.056	12169
1390.301	11981
1392.549	11928
1394.793	12136
1397.036	12171
1399.279	12210
1401.522	12323
1403.763	12325
1406.007	12327
1408.248	12173
1410.487	12454
1412.727	12309
1414.965	12300
1417.205	12185
1419.442	12271
1421.68	12179
1423.915	12118
1426.152	12185
1428.388	12184
1430.623	12197
1432.857	12326
1435.091	12398
1437.323	12464
1439.556	12307
1441.789	12228
1444.019	12341
1446.25	12371
1448.48	12333
1450.708	12328
1452.938	12437
1455.167	12472
1457.394	12533
1459.62	12339
1461.846	12393
1464.073	12179
1466.299	12394
1468.523	12437
1470.746	12171
1472.969	12250
1475.191	12026
1477.415	12153
1479.636	12025
1481.858	12182
1484.078	12097
1486.298	12072
1488.518	11949
1490.736	12115
1492.954	12015
1495.169	12022
1497.386	11999
1499.602	11936
1501.819	12018
1504.034	11733
1506.248	11876
1508.462	11887
1510.675	11797
1512.888	11949
1515.1	11763
1517.311	11850
1519.522	11788
1521.732	11777
1523.942	11758
1526.151	11884
1528.36	11872
1530.566	11809
1532.773	11932
1534.98	11913
1537.187	11912
1539.392	11920
1541.596	11990
1543.801	11963
1546.005	11849
1548.208	11822
1550.411	12059
1552.612	11930
1554.814	12079
1557.013	11999
1559.212	11907
1561.414	11938
1563.612	12045
1565.811	12144
1568.007	12213
1570.203	12199
1572.403	12174
1574.598	12176
1576.792	12190
1578.988	12104
1581.181	12090
1583.376	12045
1585.568	12167
1587.761	12084
1589.952	12245
1592.143	12292
1594.333	12181
1596.524	12353
1598.715	12259
1600.903	12236
1603.091	12296
1605.278	12425
1607.466	12254
1609.652	12290
1611.838	12272
1614.023	12337
1616.207	12140
1618.391	12247
1620.576	12172
1622.759	12408
1624.941	12286
1627.123	12185
1629.304	12545
1631.484	12403
1633.664	12353
1635.844	12478
1638.022	12461
1640.201	12390
1642.38	12449
1644.556	12377
1646.732	12392
1648.908	12363
1651.084	12560
1653.257	12541
1655.433	12266
1657.607	12383
1659.779	12401
1661.951	12199
1664.122	12568
1666.295	12312
1668.467	12510
1670.635	12415
1672.805	12528
1674.973	12457
1677.142	12533
1679.31	12476
1681.478	12512
1683.644	12344
1685.81	12562
1687.975	12428
1690.142	12398
1692.305	12373
1694.468	12284
1696.632	12312
1698.794	12360
1700.957	12358
1703.119	12328
1705.279	12146
1707.439	12369
1709.598	12115
1711.758	12218
1713.917	12239
1716.075	12092
1718.231	12229
1720.388	12161
1722.543	12308
1724.702	12255
1726.856	12246
1729.01	12007
1731.164	12233
1733.317	12144
1735.471	12335
1737.623	12245
1739.774	12253
1741.925	12180
1744.075	12266
1746.225	12237
1748.376	12099
1750.524	12306
1752.672	12342
1754.82	12407
1756.965	12324
1759.113	12314
1761.259	12202
1763.405	12388
1765.549	12267
1767.694	12292
1769.836	12476
1771.981	12350
1774.123	12192
1776.264	12312
1778.405	12195
1780.546	12389
1782.687	12123
1784.827	12377
1786.966	12288
1789.103	12192
1791.242	12404
1793.381	12388
1795.517	12196
1797.653	12304
1799.788	12248
1801.923	12244
1804.057	12312
1806.193	12407
1808.326	12411
1810.457	12302
1812.59	12288
1814.721	12401
1816.855	12296
1818.984	12364
1821.113	12300
1823.244	12275
1825.372	12380
1827.499	12136
1829.63	12281
1831.756	12305
1833.882	12024
1836.007	12253
1838.132	12157
1840.26	12146
1842.384	12198
1844.507	11964
1846.63	12113
1848.752	12149
1850.875	12230
1852.996	12257
1855.118	12136
1857.238	12290
1859.358	12027
1861.477	12153
1863.597	12201
1865.715	12176
1867.832	12229
1869.948	12198
1872.064	12114
1874.181	12140
1876.297	12039
1878.411	12056
1880.526	12156
1882.639	12237
1884.752	12265
1886.865	12240
1888.977	12233
1891.089	12095
1893.2	12122
1895.308	12331
1897.42	12181
1899.53	12405
1901.639	12183
1903.745	12217
1905.853	12411
1907.962	12344
1910.067	12374
1912.174	12326
1914.278	12252
1916.383	12432
1918.486	12285
1920.592	12160
1922.694	12421
1924.797	12392
1926.898	12524
1929	12356
1931.102	12365
1933.203	12342
1935.301	12361
1937.401	12283
1939.499	12593
1941.598	12372
1943.697	12421
1945.793	12289
1947.888	12428
1949.985	12455
1952.08	12441
1954.176	12160
1956.269	12487
1958.364	12360
1960.457	12396
1962.549	12280
1964.642	12274
1966.733	12389
1968.823	12154
1970.913	12264
1973.005	12223
1975.093	12456
1977.184	12310
1979.271	12335
1981.359	12319
1983.446	12185
1985.532	12239
1987.619	12245
1989.705	12200
1991.789	12259
1993.874	12116
1995.956	12195
1998.041	12208
2000.123	12154
2002.206	12314
2004.287	12179
2006.368	12200
2008.449	12215
2010.529	12041
2012.609	12250
2014.688	12134
2016.766	12092
2018.843	12138
2020.922	12176
2022.999	12062
2025.074	12082
2027.15	12272
2029.225	12134
2031.299	12137
2033.375	12279
2035.447	12092
2037.52	12090
2039.592	12150
2041.664	12224
2043.736	12121
2045.807	12018
2047.876	12139
2049.947	12266
2052.015	12029
2054.086	12261
2056.153	12191
2058.221	12259
2060.288	12338
2062.353	12089
2064.42	12285
2066.486	12104
2068.55	12315
2070.614	12257
2072.678	12257
2074.741	12302
2076.805	12202
2078.866	12214
2080.929	12060
2082.99	12293
2085.049	12182
2087.109	12058
2089.17	12134
2091.228	11961
2093.286	12017
2095.344	12307
2097.4	12179
2099.46	11971
2101.516	12058
2103.572	12255
2105.626	12109
2107.679	12047
2109.735	12090
2111.788	12224
2113.841	12246
2115.894	12260
2117.945	12068
2119.997	12247
2122.049	12131
2124.1	12236
2126.148	11964
2128.197	12138
2130.246	12026
2132.296	11933
2134.342	12097
2136.39	12163
2138.437	12285
2140.483	12031
2142.527	11922
2144.574	12146
2146.619	12013
2148.661	11934
2150.705	11941
2152.747	12138
2154.792	12042
2156.832	11926
2158.874	12152
2160.915	11936
2162.954	12048
2164.995	11902
2167.034	11956
2169.072	11883
2171.111	11998
2173.148	12014
2175.186	12053
2177.223	11893
2179.258	12004
2181.294	12009
2183.328	11993
2185.362	12061
2187.398	11978
2189.431	11712
2191.463	11898
2193.495	11964
2195.528	11698
2197.56	11880
2199.59	11905
2201.62	11743
2203.649	11816
2205.678	11808
2207.708	11873
2209.737	11875
2211.764	11714
2213.791	11854
2215.817	11837
2217.843	11755
2219.87	11717
2221.895	11728
2223.919	11644
2225.942	11704
2227.966	11833
2229.988	11761
2232.012	11832
2234.032	11821
2236.054	11795
2238.074	11631
2240.095	11706
2242.116	11744
2244.135	11647
2246.153	11682
2248.171	11782
2250.188	11662
2252.208	11659
2254.223	11650
2256.239	11626
2258.255	11766
2260.269	11649
2262.283	11864
2264.3	11705
2266.312	11719
2268.325	11825
2270.336	11715
2272.349	11890
2274.362	11729
2276.372	11758
2278.383	11773
2280.392	11597
2282.402	11737
2284.409	11793
2286.418	11651
2288.427	11638
2290.433	11780
2292.441	11730
2294.446	11728
2296.453	11648
2298.459	11592
2300.463	11619
2302.466	11550
2304.471	11860
2306.475	11708
2308.477	11462
2310.478	11530
2312.481	11683
2314.481	11669
2316.481	11701
2318.482	11647
2320.482	11730
2322.48	11622
2324.48	11776
2326.478	11627
2328.476	11539
2330.473	11652
2332.469	11538
2334.465	11492
2336.46	11601
2338.454	11459
2340.45	11324
2342.444	11497
2344.437	11480
2346.43	11413
2348.421	11516
2350.414	11362
2352.405	11402
2354.396	11502
2356.386	11336
2358.376	11328
2360.366	11464
2362.355	11360
2364.343	11454
2366.331	11403
2368.317	11337
2370.304	11206
2372.292	11369
2374.278	11408
2376.262	11377
2378.247	11489
2380.23	11253
2382.216	11325
2384.199	11343
2386.181	11198
2388.163	11324
2390.144	11242
2392.127	11247
2394.107	11211
2396.087	11101
2398.066	11375
2400.046	11270
2402.023	11326
2404.004	11314
2405.981	11161
2407.957	11337
2409.934	11185
2411.91	11163
2413.886	11092
2415.862	11282
2417.836	11270
2419.809	11202
2421.784	11172
2423.756	11366
2425.73	11061
2427.701	11107
2429.672	11173
2431.644	11127
2433.615	11141
2435.586	11286
2437.555	11190
2439.523	11176
2441.491	11166
2443.459	11192
2445.428	11213
2447.395	11112
2449.361	11145
2451.327	11046
2453.292	11090
2455.257	11173
2457.223	11135
2459.187	11019
2461.15	11047
2463.113	11249
2465.076	11064
2467.039	11025
2468.999	11052
2470.96	10916
2472.921	11038
2474.881	11072
2476.841	10859
2478.8	11009
2480.759	10937
2482.717	10903
2484.675	10976
2486.63	10903
2488.589	10878
2490.545	10865
2492.5	10945
2494.455	10921
2496.408	10874
2498.364	10857
2500.318	11039
2502.27	10998
2504.223	10889
2506.174	10939
2508.126	11012
2510.078	10843
2512.03	10978
2513.979	10803
2515.927	10930
2517.877	10868
2519.826	10871
2521.775	10951
2523.722	10970
2525.668	11104
2527.616	10782
2529.561	10818
2531.508	10867
2533.452	11011
2535.398	10873
2537.342	10910
2539.284	10688
2541.229	10885
2543.173	10757
2545.114	10724
2547.055	10774
2548.996	10955
2550.938	10880
2552.878	10804
2554.817	10874
2556.756	10842
2558.695	10807
2560.633	10827
2562.572	10844
2564.509	10782
2566.445	10691
2568.382	10691
2570.317	10861
2572.254	10722
2574.189	10841
2576.123	10740
2578.057	10903
2579.99	10958
2581.923	10713
2583.855	10747
2585.788	10762
2587.719	10836
2589.65	10942
2591.579	10909
2593.511	10841
2595.44	10861
2597.37	10747
2599.297	10788
2601.225	10885
2603.153	10843
2605.08	10734
2607.007	10950
2608.932	10832
2610.858	10789
2612.782	10820
2614.709	10821
2616.632	10786
2618.556	10711
2620.478	10901
2622.401	10882
2624.324	10745
2626.247	10653
2628.167	10981
2630.088	10732
2632.008	10726
2633.928	10862
2635.848	10793
2637.766	10638
2639.684	10859
2641.603	10771
2643.519	10899
2645.437	10793
2647.353	10693
2649.27	10873
2651.184	10909
2653.099	10725
2655.014	10801
2656.928	10916
2658.842	10674
2660.755	10915
2662.667	10946
2664.579	10889
2666.491	10637
2668.402	10884
2670.312	10716
2672.222	10808
2674.132	10552
2676.042	10639
2677.951	10721
2679.859	10616
2681.766	10625
2683.674	10682
2685.582	10643
2687.488	10753
2689.392	10605
2691.298	10637
2693.202	10504
2695.107	10590
2697.012	10679
2698.914	10608
2700.817	10673
2702.72	10622
2704.622	10496
2706.524	10757
2708.425	10493
2710.326	10516
2712.225	10468
2714.125	10500
2716.024	10506
2717.923	10507
2719.822	10499
2721.719	10494
2723.616	10470
2725.512	10626
2727.41	10498
2729.305	10508
2731.201	10416
2733.095	10463
2734.99	10405
2736.884	10345
2738.778	10489
2740.67	10466
2742.562	10482
2744.455	10404
2746.346	10496
2748.238	10425
2750.129	10570
2752.018	10387
2753.907	10355
2755.797	10405
2757.687	10530
2759.575	10424
2761.462	10312
2763.349	10292
2765.237	10371
2767.124	10625
2769.009	10359
2770.894	10320
2772.779	10269
2774.663	10489
2776.547	10373
2778.431	10444
2780.314	10239
2782.197	10393
2784.078	10405
2785.96	10252
2787.842	10412
2789.723	10441
2791.603	10362
2793.483	10470
2795.362	10378
2797.241	10343
2799.121	10283
2800.997	10262
2802.874	10279
2804.751	10236
2806.628	10232
2808.506	10322
2810.38	10343
2812.255	10353
2814.13	10240
2816.003	10241
2817.878	10248
2819.752	10360
2821.623	10336
2823.496	10148
2825.368	10192
2827.238	10261
2829.111	10161
2830.98	10259
2832.851	10199
2834.719	10305
2836.589	10329
2838.458	10377
2840.327	10033
2842.193	10263
2844.061	10174
2845.927	10291
2847.794	10297
2849.66	10367
2851.525	10315
2853.39	10288
2855.254	10284
2857.117	10375
2858.983	10243
2860.845	10328
2862.707	10335
2864.569	10534
2866.431	10418
2868.293	10299
2870.154	10577
2872.013	10582
2873.873	10633
2875.733	10640
2877.592	10666
2879.451	10826
2881.309	10839
2883.166	10753
2885.022	10846
2886.879	11019
2888.736	10902
2890.591	10892
2892.446	10955
2894.301	11067
2896.155	11028
2898.009	11005
2899.863	10985
2901.716	10928
2903.568	11055
2905.419	10866
2907.27	10846
2909.123	10922
2910.973	10896
2912.824	10999
2914.673	10884
2916.521	11053
2918.372	11106
2920.22	11239
2922.067	11221
2923.914	11318
2925.761	11374
2927.607	11366
2929.455	11405
2931.301	11645
2933.144	11420
2934.99	11629
2936.833	11611
2938.678	11825
2940.522	11647
2942.364	11749
2944.207	12035
2946.048	11926
2947.891	12101
2949.731	12099
2951.571	11967
2953.412	12001
2955.25	11856
2957.09	11777
2958.93	11687
2960.767	11788
2962.606	11593
2964.443	11616
2966.279	11524
2968.116	11405
2969.953	11328
2971.788	11279
2973.623	11086
2975.457	11161
2977.292	10941
2979.127	10778
2980.959	10851
2982.792	10746
2984.624	10732
2986.455	10789
2988.288	10828
2990.119	10530
2991.949	10712
2993.779	10619
2995.608	10446
2997.439	10398
2999.268	10549
3001.096	10271
3002.923	10293
3004.751	10274
3006.578	10083
3008.406	10077
3010.232	10087
3012.057	10123
3013.883	9931
3015.706	10069
3017.532	9787
3019.356	9717
3021.179	9839
3023.002	9748
3024.823	9570
3026.646	9707
3028.469	9690
3030.289	9643
3032.11	9678
3033.93	9623
3035.749	9689
3037.57	9556
3039.39	9593
3041.207	9605
3043.026	9554
3044.842	9542
3046.661	9511
3048.477	9416
3050.294	9510
3052.109	9611
3053.925	9511
3055.739	9417
3057.555	9570
3059.368	9420
3061.181	9476
3062.995	9424
3064.807	9480
3066.62	9432
3068.433	9542
3070.243	9509
3072.054	9401
3073.865	9532
3075.675	9345
3077.485	9371
3079.293	9316
3081.102	9430
3082.911	9428
3084.719	9313
3086.527	9283
3088.333	9261
3090.139	9265
3091.945	9296
3093.75	9418
3095.557	9221
3097.361	9269
3099.165	9202
3100.969	9150
3102.772	9124
3104.575	9171
3106.379	9163
3108.181	9212
3109.982	9278
3111.783	9159
3113.584	9168
3115.386	9165
3117.186	9161
3118.985	9065
3120.783	9044
3122.582	9114
3124.381	8956
3126.179	9082
3127.975	9124
3129.772	8949
3131.569	9042
3133.365	8907
3135.161	9059
3136.956	8859
3138.751	8886
3140.544	8868
3142.338	8924
3144.132	9008
3145.925	8997
3147.717	8853
3149.509	8805
3151.301	9031
3153.091	8868
3154.884	8954
3156.673	8823
3158.462	8987
3160.252	8895
3162.041	8761
3163.831	8970
3165.618	8893
3167.405	8893
3169.193	8805
3170.979	8766
3172.767	8755
3174.553	8838
3176.338	8817
3178.123	8842
3179.907	8833
3181.692	8916
3183.477	8897
3185.259	8681
3187.042	8764
3188.824	8752
3190.607	8774
3192.389	8613
3194.17	8834
3195.951	8685
3197.73	8757
3199.51	8733
3201.289	8788
3203.07	8735
3204.848	8648
3206.626	8810
3208.403	8821
3210.18	8851
3211.959	8597
3213.735	8785
3215.511	8828
3217.285	8695
3219.06	8639
3220.836	8680
3222.611	8538
3224.384	8763
3226.158	8729
3227.929	8757
3229.702	8509
3231.476	8640
3233.248	8615
3235.018	8522
3236.789	8629
3238.56	8502
3240.33	8641
3242.1	8699
3243.869	8605
3245.637	8660
3247.405	8682
3249.172	8681
3250.941	8658
3252.707	8657
3254.474	8624
3256.24	8652
3258.006	8734
3259.772	8550
3261.537	8705
3263.301	8571
3265.065	8596
3266.828	8678
3268.592	8600
3270.355	8633
3272.117	8552
3273.878	8753
3275.64	8593
3277.401	8585
3279.162	8620
3280.922	8554
3282.682	8492
3284.441	8481
3286.199	8603
3287.959	8582
3289.716	8544
3291.475	8555
3293.232	8606
3294.988	8466
3296.744	8521
3298.501	8641
3300.256	8630
3302.011	8548
3303.766	8554
3305.52	8570
3307.275	8612
3309.028	8490
3310.781	8506
3312.533	8541
3314.285	8469
3316.038	8435
3317.789	8550
3319.54	8502
3321.289	8501
3323.039	8460
3324.789	8574
3326.539	8415
3328.288	8448
3330.035	8479
3331.783	8385
3333.531	8480
3335.28	8537
3337.025	8365
3338.771	8442
3340.518	8291
3342.262	8462
3344.009	8459
3345.753	8441
3347.497	8395
3349.24	8252
3350.983	8326
3352.726	8317
3354.469	8370
3356.212	8253
3357.952	8276
3359.694	8287
3361.434	8353
3363.176	8209
3364.916	8370
3366.654	8189
3368.394	8190
3370.132	8337
3371.871	8183
3373.61	8214
3375.346	8176
3377.083	8106
3378.82	8272
3380.556	8267
3382.292	8089
3384.027	8145
3385.763	8145
3387.497	8215
3389.231	8102
3390.965	8312
3392.698	8277
3394.431	8126
3396.164	8243
3397.896	8093
3399.627	8064
3401.36	8192
3403.09	8190
3404.82	8166
3406.55	8242
3408.279	8132
3410.01	8100
3411.738	8113
3413.467	8080
3415.194	8176
3416.92	8139
3418.647	8116
3420.375	8075
3422.102	8032
3423.827	8058
3425.553	8090
3427.277	7938
3429.003	8022
3430.727	7949
3432.451	7905
3434.173	7868
3435.896	7934
3437.62	8082
3439.343	8014
3441.063	7851
3442.785	7952
3444.505	7850
3446.226	7759
3447.948	7935
3449.666	7852
3451.386	7928
3453.104	7877
3454.823	7964
3456.541	7864
3458.259	7906
3459.976	7811
3461.693	7789
3463.408	7839
3465.125	7777
3466.841	7715
3468.556	7773
3470.271	7725
3471.985	7728
3473.698	7618
3475.414	7796
3477.126	7698
3478.838	7638
3480.55	7554
3482.263	7725
3483.975	7639
3485.686	7666
3487.396	7644
3489.106	7646
3490.817	7612
3492.526	7561
3494.236	7658
3495.944	7721
3497.652	7525
3499.359	7664
3501.066	7548
3502.775	7602
3504.481	7528
3506.187	7487
3507.893	7583
3509.598	7545
3511.304	7588
3513.009	7393
3514.713	7589
3516.417	7363
3518.12	7428
3519.821	7548
3521.525	7445
3523.228	7482
3524.929	7463
3526.631	7499
3528.33	7428
3530.032	7350
3531.733	7492
3533.433	7441
3535.131	7340
3536.83	7419
3538.529	7438
3540.227	7248
3541.925	7298
3543.623	7298
3545.319	7281
3547.016	7412
3548.712	7369
3550.408	7397
3552.103	7253
3553.798	7271
3555.491	7204
3557.188	7304
3558.88	7346
3560.574	7214
3562.266	7239
3563.959	7324
3565.651	7147
3567.343	7228
3569.035	7256
3570.725	7203
3572.415	7088
3574.106	7146
3575.797	7119
3577.485	7179
3579.174	7215
3580.863	7201
3582.551	7015
3584.238	7104
3585.926	7277
3587.613	7189
3589.3	7052
3590.986	7240
3592.671	7086
3594.357	7011
3596.042	7037
3597.726	7046
3599.41	6988
3601.094	6925
3602.778	6979
3604.461	7056
3606.143	7081
3607.825	7161
3609.507	6939
3611.188	7026
3612.87	6777
3614.551	6972
3616.229	6810
3617.909	6889
3619.589	6940
3621.269	6900
3622.948	6906
3624.625	6973
3626.302	6937
3627.98	6974
3629.657	6857
3631.334	6893
3633.01	6730
3634.686	6860
3636.361	6804
3638.036	6815
3639.712	6780
3641.385	6719
3643.06	6792
3644.732	6721
3646.405	6809
3648.08	6809
3649.751	6759
3651.424	6712
3653.094	6666
3654.766	6730
3656.436	6766
3658.106	6671
3659.777	6741
3661.446	6735
3663.115	6822
3664.783	6488
3666.452	6745
3668.121	6639
3669.788	6663
3671.454	6585
3673.121	6687
3674.789	6772
3676.455	6771
3678.12	6625
3679.784	6628
3681.45	6637
3683.114	6606
3684.779	6595
3686.442	6503
3688.105	6754
3689.768	6688
3691.43	6574
3693.093	6530
3694.754	6537
3696.415	6511
3698.076	6711
3699.736	6591
3701.396	6493
3703.057	6482
3704.716	6560
3706.375	6546
3708.034	6504
3709.692	6496
3711.351	6563
3713.008	6588
3714.665	6544
3716.321	6460
3717.977	6415
3719.634	6451
3721.29	6543
3722.945	6595
3724.598	6499
3726.253	6411
3727.907	6395
3729.561	6472
3731.214	6538
3732.867	6449
3734.518	6363
3736.171	6311
3737.824	6411
3739.474	6521
3741.125	6408
3742.775	6436
3744.425	6580
3746.074	6407
3747.725	6412
3749.373	6329
3751.022	6300
3752.669	6309
3754.318	6317
3755.966	6334
3757.612	6294
3759.259	6296
3760.905	6130
3762.55	6225
3764.197	6249
3765.842	6242
3767.486	6212
3769.131	6146
3770.774	6319
3772.417	6225
3774.061	6176
3775.705	6234
3777.347	6356
3778.988	6245
3780.629	6190
3782.271	6284
3783.912	6061
3785.552	6230
3787.192	6188
3788.831	6311
3790.472	6157
3792.112	6127
3793.75	6149
3795.388	6245
3797.024	6108
3798.661	6058
3800.3	6214
3801.936	6178
3803.572	6121
3805.208	6003
3806.844	6224
3808.48	6055
3810.115	6055
3811.748	6141
3813.382	6081
3815.016	6116
3816.649	5969
3818.283	5967
3819.914	6023
3821.547	6000
3823.178	6047
3824.809	6137
3826.441	6004
3828.072	5980
3829.701	6025
3831.331	5976
3832.96	6117
3834.591	5941
3836.219	5907
3837.847	5968
3839.475	5900
3841.102	6014
3842.729	5939
3844.357	5805
3845.984	5993
3847.609	5916
3849.234	6005
3850.86	5928
3852.485	5941
3854.11	5952
3855.734	5850
3857.357	5827
3858.981	5911
3860.603	5991
3862.227	5883
3863.848	5881
3865.471	5745
3867.092	5844
3868.713	5907
3870.334	5877
3871.954	5913
3873.575	5944
3875.194	5911
3876.813	5917
3878.433	5927
3880.051	5893
3881.669	5811
3883.286	5804
3884.904	5701
3886.52	5778
3888.138	5823
3889.754	5741
3891.37	5881
3892.985	5772
3894.6	5785
3896.216	5876
3897.831	5742
3899.444	5685
3901.058	5706
3902.67	5656
3904.283	5711
3905.897	5769
3907.509	5706
3909.121	5637
3910.731	5738
3912.342	5768
3913.954	5772
3915.563	5747
3917.174	5717
3918.783	5865
3920.391	5766
3922.002	5750
3923.611	5665
3925.218	5573
3926.826	5723
3928.432	5812
3930.039	5740
3931.647	5690
3933.253	5594
3934.859	5691
3936.464	5624
3938.068	5651
3939.675	5736
3941.278	5713
3942.883	5687
3944.486	5570
3946.089	5666
3947.692	5619
3949.295	5630
3950.898	5610
3952.499	5571
3954.1	5545
3955.7	5566
3957.303	5583
3958.903	5555
3960.502	5584
3962.101	5533
3963.7	5527
3965.301	5524
3966.899	5544
3968.497	5477
3970.094	5454
3971.691	5576
3973.288	5472
3974.885	5599
3976.481	5433
3978.077	5554
3979.672	5456
3981.267	5453
3982.863	5498
3984.457	5502
3986.051	5356
3987.645	5370
3989.238	5497
3990.831	5422
3992.425	5418
3994.017	5416
3995.607	5369
3997.199	5280
3998.79	5339
4000.382	5371
4001.973	5319
4003.561	5349
4005.151	5309
4006.741	5389
4008.331	5341
4009.918	5341
4011.507	5361
4013.095	5308
4014.681	5201
4016.269	5283
4017.856	5202
4019.443	5370
4021.028	5333
4022.614	5212
4024.199	5247
4025.785	5236
4027.37	5402
4028.953	5160
4030.536	5232
4032.12	5142
4033.704	5210
4035.287	5184
4036.869	5258
4038.45	5114
4040.032	5202
4041.613	5149
4043.195	5202
4044.776	5147
4046.356	5086
4047.935	5153
4049.515	5175
4051.095	5195
4052.674	5109
4054.251	5132
4055.829	5131
4057.406	5155
4058.985	5267
4060.562	5111
4062.139	5160
4063.715	5071
4065.29	5060
4066.865	5196
4068.442	4999
4070.016	4998
4071.59	5042
4073.164	5073
4074.738	5116
4076.312	4990
4077.885	4962
4079.458	4920
4081.03	5029
4082.602	4983
4084.173	5070
4085.745	4938
4087.315	5151
4088.886	5138
4090.456	5120
4092.026	5019
4093.596	4991
4095.165	5012
4096.734	5145
4098.301	5057
4099.869	4928
4101.437	5035
4103.006	4960
4104.572	4965
4106.139	4955
4107.704	5021
4109.27	4904
4110.837	5004
4112.401	5044
4113.966	4898
4115.53	4900
4117.094	4947
4118.659	4923
4120.223	5028
4121.785	4935
4123.347	4944
4124.909	4868
4126.471	4845
4128.034	4865
4129.595	4902
4131.155	4956
4132.716	4795
4134.275	4832
4135.836	4801
4137.395	4872
4138.955	4825
4140.513	4843
4142.071	4837
4143.628	4808
4145.188	4822
4146.745	4796
4148.302	4827
4149.858	4755
4151.414	4766
4152.971	4831
4154.526	4761
4156.081	4766
4157.635	4798
4159.189	4721
4160.745	4692
4162.298	4723
4163.852	4739
4165.405	4672
4166.957	4745
4168.51	4600
4170.063	4722
4171.614	4706
4173.166	4564
4174.717	4689
4176.267	4557
4177.817	4745
4179.368	4651
4180.917	4564
4182.466	4576
4184.016	4623
4185.564	4653
4187.112	4606
4188.66	4708
4190.207	4570
4191.754	4627
4193.301	4607
4194.848	4510
4196.394	4588
4197.94	4532
4199.484	4608
4201.03	4582
4202.575	4667
4204.12	4580
4205.663	4615
4207.207	4596
4208.75	4580
4210.292	4572
4211.836	4505
4213.378	4540
4214.92	4562
4216.46	4545
4218.002	4605
4219.544	4462
4221.083	4528
4222.625	4530
4224.164	4535
4225.703	4480
4227.244	4514
4228.782	4449
4230.32	4539
4231.857	4503
4233.395	4500
4234.933	4481
4236.471	4497
4238.007	4511
4239.542	4489
4241.078	4427
4242.614	4508
4244.15	4443
4245.685	4507
4247.219	4501
4248.753	4302
4250.287	4372
4251.82	4442
4253.354	4306
4254.887	4424
4256.419	4439
4257.951	4517
4259.483	4504
4261.016	4439
4262.547	4336
4264.078	4401
4265.608	4404
4267.137	4313
4268.668	4330
4270.197	4329
4271.727	4384
4273.254	4298
4274.783	4380
4276.311	4397
4277.84	4367
4279.366	4364
4280.894	4287
4282.42	4372
4283.946	4345
4285.473	4415
4286.998	4346
4288.523	4394
4290.047	4394
4291.572	4263
4293.096	4353
4294.622	4318
4296.144	4378
4297.668	4365
4299.19	4279
4300.713	4254
4302.236	4257
4303.758	4256
4305.279	4263
4306.799	4305
4308.321	4243
4309.842	4230
4311.361	4266
4312.882	4309
4314.401	4249
