400.0961	4927
402.6185	4925
405.1424	4962
407.6635	4876
410.1838	4947
412.7035	4899
415.2225	5012
417.7388	4952
420.2585	5115
422.7754	5148
425.2917	5156
427.8072	5185
430.3221	5276
432.8363	5181
435.3498	5233
437.8626	5204
440.3727	5322
442.8841	5193
445.3969	5301
447.907	5322
450.4142	5278
452.9229	5182
455.4289	5222
457.9362	5295
460.4449	5178
462.9488	5213
465.454	5199
467.9566	5284
470.4604	5336
472.9637	5244
475.4662	5244
477.966	5214
480.4671	5275
482.9656	5276
485.4633	5206
487.9645	5295
490.4608	5233
492.9566	5250
495.4536	5350
497.948	5338
500.4437	5331
502.9387	5330
505.431	5362
507.9226	5359
510.4136	5317
512.9079	5347
515.3975	5329
517.8864	5399
520.3746	5415
522.8622	5374
525.3491	5350
527.8394	5375
530.3249	5390
532.8098	5420
535.2939	5372
537.7774	5463
540.2623	5401
542.7444	5384
545.2259	5426
547.7067	5440
550.1868	5393
552.6683	5379
555.147	5435
557.6231	5461
560.1005	5505
562.5773	5499
565.0534	5473
567.5308	5610
570.0056	5489
572.4776	5554
574.951	5616
577.4237	5677
579.8978	5672
582.3671	5717
584.8378	5648
587.3079	5786
589.7773	5833
592.244	5802
594.714	5763
597.1793	5687
599.6461	5670
602.1121	5752
604.5754	5653
607.0421	5661
609.5042	5713
611.9675	5761
614.4282	5621
616.8902	5651
619.3515	5653
621.8122	5729
624.2702	5637
626.7296	5650
629.1863	5697
631.6423	5520
634.1017	5565
636.5563	5536
639.0104	5594
641.4658	5649
643.9185	5669
646.3725	5567
648.8239	5680
651.2766	5818
653.7266	5700
656.176	5715
658.6247	5719
661.0748	5677
663.5242	5699
665.9709	5736
668.417	5708
670.8624	5769
673.3092	5777
675.7533	5759
678.1968	5779
680.6395	5817
683.0817	5769
685.5251	5865
687.9659	5810
690.4061	5769
692.8456	5932
695.2844	5744
697.7226	5867
700.1621	5847
702.599	5935
705.0332	5845
707.4688	5808
709.9036	5821
712.3399	5985
714.7735	5961
717.2044	5961
719.6367	5960
722.0683	5856
724.4993	6010
726.9296	5878
729.3593	6058
731.7883	5997
734.2147	6049
736.6423	6002
739.0714	6105
741.4958	6082
743.9216	6157
746.3447	6043
748.7691	6059
751.1929	6227
753.616	6143
756.0366	6176
758.4584	6206
760.8776	6105
763.2982	6147
765.718	6258
768.1373	6156
770.5539	6203
772.9698	6266
775.3871	6236
777.8038	6168
780.2178	6200
782.6332	6265
785.0459	6292
787.458	6329
789.8714	6223
792.2842	6156
794.6943	6234
797.1038	6157
799.5127	6310
801.9209	6286
804.3324	6326
806.7393	6395
809.1456	6208
811.5513	6240
813.9562	6377
816.3625	6370
818.7663	6431
821.1693	6343
823.5718	6352
825.9735	6486
828.3746	6243
830.7771	6409
833.177	6333
835.5762	6341
837.9747	6410
840.3727	6428
842.772	6464
845.1666	6451
847.5626	6465
849.958	6373
852.3527	6508
854.7488	6542
857.1403	6611
859.5331	6585
861.9253	6526
864.3168	6369
866.7057	6439
869.098	6424
871.4876	6445
873.8746	6462
876.263	6373
878.6487	6471
881.0378	6425
883.4243	6456
885.8081	6399
888.1933	6521
890.5759	6478
892.9598	6518
895.343	6493
897.7256	6452
900.1057	6569
902.4871	6506
904.8659	6645
907.246	6542
909.6254	6596
912.0023	6627
914.3786	6671
916.7562	6656
919.1331	6794
921.5074	6830
923.8831	6813
926.2562	6806
928.6287	6813
931.0005	6900
933.3757	6924
935.7462	6891
938.1162	6958
940.4855	7084
942.8542	7073
945.2242	7158
947.5916	7251
949.9584	7637
952.3266	7707
954.6921	8041
957.0571	8410
959.4233	8822
961.787	8904
964.15	8777
966.5125	8493
968.8742	8147
971.2354	7632
973.5959	7487
975.9559	7280
978.3151	7086
980.6738	6950
983.0338	6991
985.3912	6849
987.7461	6788
990.1022	6717
992.4578	6741
994.8127	6783
997.1689	6850
999.5207	6766
1001.874	6805
1004.226	6718
1006.576	6784
1008.929	6898
1011.28	6862
1013.628	6702
1015.977	6702
1018.324	6745
1020.674	6821
1023.019	6769
1025.366	6900
1027.713	6821
1030.056	6864
1032.399	6920
1034.746	6824
1037.087	6839
1039.431	6983
1041.771	6903
1044.113	6871
1046.454	6807
1048.793	6893
1051.133	6860
1053.471	6946
1055.807	7025
1058.146	6938
1060.483	6927
1062.818	6999
1065.153	7008
1067.489	7108
1069.822	7074
1072.156	7119
1074.488	7139
1076.82	7147
1079.15	7140
1081.48	7123
1083.814	7138
1086.143	7052
1088.471	6982
1090.799	6891
1093.126	6955
1095.452	6891
1097.78	6930
1100.105	7009
1102.43	7034
1104.754	6930
1107.077	7025
1109.4	6883
1111.722	6949
1114.044	6879
1116.365	6818
1118.685	6991
1121.005	6969
1123.324	6768
1125.643	6981
1127.961	7009
1130.278	6980
1132.595	6827
1134.911	7023
1137.226	6933
1139.541	6818
1141.854	6868
1144.167	6882
1146.482	6865
1148.793	7050
1151.105	7036
1153.414	6962
1155.725	6957
1158.033	7049
1160.344	6941
1162.651	6906
1164.959	7030
1167.265	6951
1169.572	6957
1171.878	6842
1174.184	6848
1176.488	6937
1178.79	6903
1181.094	6988
1183.396	7084
1185.699	6937
1188.001	6943
1190.301	6905
1192.6	6879
1194.9	6821
1197.2	6836
1199.497	7047
1201.794	6956
1204.09	6862
1206.387	7083
1208.684	6953
1210.978	6924
1213.272	6869
1215.565	6925
1217.858	6968
1220.15	6960
1222.443	7005
1224.734	7053
1227.024	7089
1229.313	7171
1231.602	7176
1233.892	7095
1236.18	7323
1238.467	7206
1240.754	7261
1243.04	7270
1245.325	7208
1247.612	7231
1249.896	7208
1252.178	7337
1254.461	7171
1256.743	7287
1259.027	7261
1261.308	7324
1263.587	7209
1265.867	7346
1268.146	7284
1270.425	7213
1272.703	7200
1274.981	7305
1277.256	7382
1279.532	7298
1281.808	7062
1284.083	7239
1286.358	7179
1288.63	7235
1290.904	7097
1293.175	7045
1295.449	7200
1297.719	7096
1299.99	7205
1302.259	7101
1304.529	7092
1306.798	7201
1309.065	7027
1311.333	7152
1313.599	7190
1315.866	7258
1318.131	6965
1320.396	7114
1322.66	7082
1324.925	7181
1327.187	7032
1329.448	7064
1331.711	7218
1333.974	7237
1336.234	7088
1338.493	7128
1340.752	7224
1343.01	7094
1345.269	7176
1347.526	7218
1349.784	7197
1352.04	7056
1354.295	7064
1356.552	7207
1358.806	7074
1361.059	7209
1363.312	7005
1365.564	7062
1367.818	7143
1370.069	7202
1372.318	7095
1374.568	7159
1376.817	7302
1379.066	7321
1381.316	7124
1383.564	7355
1385.809	7254
1388.056	7233
1390.301	7198
1392.549	7271
1394.793	7339
1397.036	7365
1399.279	7353
1401.522	7356
1403.763	7451
1406.007	7305
1408.248	7355
1410.487	7359
1412.727	7367
1414.965	7347
1417.205	7418
1419.442	7461
1421.68	7372
1423.915	7330
1426.152	7367
1428.388	7469
1430.623	7338
1432.857	7454
1435.091	7522
1437.323	7522
1439.556	7486
1441.789	7525
1444.019	7307
1446.25	7565
1448.48	7436
1450.708	7566
1452.938	7651
1455.167	7430
1457.394	7645
1459.62	7509
1461.846	7459
1464.073	7455
1466.299	7529
1468.523	7447
1470.746	7429
1472.969	7409
1475.191	7412
1477.415	7496
1479.636	7323
1481.858	7252
1484.078	7317
1486.298	7330
1488.518	7083
1490.736	7358
1492.954	7334
1495.169	7150
1497.386	7081
1499.602	7202
1501.819	7178
1504.034	6997
1506.248	7186
1508.462	7120
1510.675	7066
1512.888	7191
1515.1	7143
1517.311	7190
1519.522	7174
1521.732	7172
1523.942	7165
1526.151	7230
1528.36	7126
1530.566	7236
1532.773	7182
1534.98	7262
1537.187	7173
1539.392	7288
1541.596	7364
1543.801	7176
1546.005	7222
1548.208	7240
1550.411	7205
1552.612	7258
1554.814	7401
1557.013	7123
1559.212	7351
1561.414	7306
1563.612	7253
1565.811	7321
1568.007	7460
1570.203	7306
1572.403	7338
1574.598	7313
1576.792	7256
1578.988	7455
1581.181	7442
1583.376	7320
1585.568	7368
1587.761	7397
1589.952	7466
1592.143	7345
1594.333	7462
1596.524	7418
1598.715	7371
1600.903	7480
1603.091	7409
1605.278	7413
1607.466	7350
1609.652	7402
1611.838	7401
1614.023	7532
1616.207	7458
1618.391	7373
1620.576	7457
1622.759	7363
1624.941	7515
1627.123	7285
1629.304	7491
1631.484	7580
1633.664	7463
1635.844	7618
1638.022	7558
1640.201	7393
1642.38	7480
1644.556	7486
1646.732	7499
1648.908	7545
1651.084	7552
1653.257	7528
1655.433	7630
1657.607	7497
1659.779	7513
1661.951	7673
1664.122	7621
1666.295	7647
1668.467	7694
1670.635	7628
1672.805	7671
1674.973	7599
1677.142	7575
1679.31	7500
1681.478	7649
1683.644	7525
1685.81	7562
1687.975	7534
1690.142	7624
1692.305	7422
1694.468	7597
1696.632	7589
1698.794	7364
1700.957	7446
1703.119	7453
1705.279	7348
1707.439	7306
1709.598	7383
1711.758	7429
1713.917	7391
1716.075	7383
1718.231	7448
1720.388	7369
1722.543	7274
1724.702	7390
1726.856	7411
1729.01	7402
1731.164	7343
1733.317	7344
1735.471	7441
1737.623	7270
1739.774	7458
1741.925	7488
1744.075	7396
1746.225	7350
1748.376	7348
1750.524	7382
1752.672	7381
1754.82	7392
1756.965	7471
1759.113	7392
1761.259	7459
1763.405	7424
1765.549	7431
1767.694	7344
1769.836	7367
1771.981	7378
1774.123	7384
1776.264	7402
1778.405	7504
1780.546	7388
1782.687	7421
1784.827	7370
1786.966	7355
1789.103	7461
1791.242	7390
1793.381	7435
1795.517	7569
1797.653	7461
1799.788	7454
1801.923	7627
1804.057	7407
1806.193	7482
1808.326	7470
1810.457	7528
1812.59	7320
1814.721	7451
1816.855	7494
1818.984	7496
1821.113	7417
1823.244	7332
1825.372	7481
1827.499	7525
1829.63	7443
1831.756	7421
1833.882	7479
1836.007	7462
1838.132	7386
1840.26	7417
1842.384	7431
1844.507	7338
1846.63	7421
1848.752	7270
1850.875	7385
1852.996	7354
1855.118	7320
1857.238	7348
1859.358	7424
1861.477	7316
1863.597	7367
1865.715	7447
1867.832	7329
1869.948	7221
1872.064	7399
1874.181	7388
1876.297	7443
1878.411	7373
1880.526	7391
1882.639	7386
1884.752	7424
1886.865	7319
1888.977	7395
1891.089	7451
1893.2	7491
1895.308	7383
1897.42	7449
1899.53	7531
1901.639	7450
1903.745	7447
1905.853	7446
1907.962	7432
1910.067	7440
1912.174	7409
1914.278	7456
1916.383	7444
1918.486	7362
1920.592	7452
1922.694	7557
1924.797	7597
1926.898	7537
1929	7540
1931.102	7362
1933.203	7465
1935.301	7455
1937.401	7464
1939.499	7584
1941.598	7522
1943.697	7433
1945.793	7389
1947.888	7468
1949.985	7507
1952.08	7379
1954.176	7586
1956.269	7486
1958.364	7451
1960.457	7625
1962.549	7522
1964.642	7518
1966.733	7436
1968.823	7418
1970.913	7461
1973.005	7454
1975.093	7456
1977.184	7425
1979.271	7492
1981.359	7481
1983.446	7446
1985.532	7411
1987.619	7311
1989.705	7430
1991.789	7370
1993.874	7515
1995.956	7536
1998.041	7445
2000.123	7448
2002.206	7368
2004.287	7392
2006.368	7530
2008.449	7367
2010.529	7314
2012.609	7440
2014.688	7377
2016.766	7319
2018.843	7449
2020.922	7417
2022.999	7514
2025.074	7482
2027.15	7472
2029.225	7401
2031.299	7328
2033.375	7335
2035.447	7422
2037.52	7363
2039.592	7372
2041.664	7475
2043.736	7387
2045.807	7337
2047.876	7443
2049.947	7536
2052.015	7476
2054.086	7406
2056.153	7348
2058.221	7485
2060.288	7447
2062.353	7376
2064.42	7440
2066.486	7473
2068.55	7497
2070.614	7328
2072.678	7535
2074.741	7345
2076.805	7398
2078.866	7457
2080.929	7414
2082.99	7380
2085.049	7393
2087.109	7477
2089.17	7392
2091.228	7373
2093.286	7435
2095.344	7647
2097.4	7429
2099.46	7312
2101.516	7355
2103.572	7535
2105.626	7362
2107.679	7469
2109.735	7427
2111.788	7326
2113.841	7405
2115.894	7469
2117.945	7391
2119.997	7456
2122.049	7446
2124.1	7537
2126.148	7451
2128.197	7442
2130.246	7387
2132.296	7400
2134.342	7428
2136.39	7358
2138.437	7367
2140.483	7429
2142.527	7448
2144.574	7430
2146.619	7391
2148.661	7319
2150.705	7344
2152.747	7399
2154.792	7350
2156.832	7328
2158.874	7355
2160.915	7323
2162.954	7341
2164.995	7118
2167.034	7316
2169.072	7327
2171.111	7334
2173.148	7355
2175.186	7267
2177.223	7335
2179.258	7226
2181.294	7300
2183.328	7390
2185.362	7335
2187.398	7153
2189.431	7295
2191.463	7290
2193.495	7169
2195.528	7238
2197.56	7280
2199.59	7315
2201.62	7134
2203.649	7232
2205.678	7199
2207.708	7153
2209.737	7266
2211.764	7262
2213.791	7275
2215.817	7176
2217.843	7217
2219.87	7287
2221.895	7284
2223.919	7206
2225.942	7158
2227.966	7272
2229.988	7212
2232.012	7161
2234.032	7178
2236.054	7244
2238.074	7162
2240.095	7142
2242.116	7204
2244.135	7275
2246.153	7224
2248.171	7219
2250.188	7164
2252.208	7179
2254.223	7181
2256.239	7138
2258.255	7098
2260.269	7168
2262.283	7160
2264.3	7112
2266.312	7210
2268.325	7155
2270.336	7188
2272.349	7266
2274.362	7240
2276.372	7231
2278.383	7078
2280.392	7122
2282.402	7220
2284.409	7104
2286.418	7193
2288.427	7243
2290.433	7119
2292.441	7334
2294.446	7212
2296.453	7249
2298.459	7244
2300.463	7209
2302.466	7150
2304.471	7094
2306.475	7269
2308.477	7099
2310.478	7178
2312.481	7197
2314.481	7238
2316.481	7076
2318.482	7164
2320.482	7058
2322.48	7088
2324.48	7043
2326.478	7007
2328.476	7129
2330.473	7153
2332.469	7081
2334.465	6981
2336.46	7126
2338.454	7102
2340.45	7164
2342.444	7039
2344.437	7027
2346.43	7070
2348.421	7077
2350.414	7094
2352.405	7012
2354.396	6952
2356.386	7108
2358.376	7125
2360.366	6959
2362.355	6936
2364.343	7040
2366.331	7009
2368.317	7119
2370.304	6987
2372.292	6936
2374.278	7073
2376.262	7084
2378.247	6956
2380.23	7024
2382.216	6983
2384.199	6891
2386.181	6959
2388.163	6865
2390.144	7079
2392.127	7021
2394.107	6993
2396.087	6895
2398.066	6957
2400.046	6896
2402.023	6898
2404.004	6917
2405.981	6975
2407.957	6889
2409.934	6835
2411.91	6900
2413.886	6946
2415.862	6944
2417.836	6854
2419.809	6839
2421.784	6913
2423.756	6860
2425.73	6835
2427.701	6926
2429.672	6916
2431.644	6871
2433.615	6909
2435.586	6880
2437.555	6903
2439.523	6810
2441.491	6916
2443.459	6908
2445.428	6793
2447.395	6893
2449.361	6931
2451.327	6816
2453.292	6829
2455.257	6875
2457.223	6848
2459.187	6771
2461.15	6881
2463.113	6826
2465.076	6843
2467.039	6822
2468.999	6979
2470.96	6804
2472.921	6862
2474.881	6818
2476.841	6769
2478.8	6874
2480.759	6773
2482.717	6750
2484.675	6870
2486.63	6647
2488.589	6793
2490.545	6748
2492.5	6793
2494.455	6743
2496.408	6760
2498.364	6788
2500.318	6729
2502.27	6782
2504.223	6823
2506.174	6758
2508.126	6652
2510.078	6810
2512.03	6699
2513.979	6705
2515.927	6715
2517.877	6807
2519.826	6655
2521.775	6791
2523.722	6637
2525.668	6693
2527.616	6699
2529.561	6653
2531.508	6711
2533.452	6724
2535.398	6740
2537.342	6761
2539.284	6734
2541.229	6817
2543.173	6675
2545.114	6706
2547.055	6757
2548.996	6805
2550.938	6689
2552.878	6855
2554.817	6832
2556.756	6738
2558.695	6795
2560.633	6669
2562.572	6665
2564.509	6803
2566.445	6768
2568.382	6774
2570.317	6745
2572.254	6822
2574.189	6730
2576.123	6769
2578.057	6594
2579.99	6721
2581.923	6727
2583.855	6700
2585.788	6753
2587.719	6658
2589.65	6757
2591.579	6591
2593.511	6792
2595.44	6767
2597.37	6676
2599.297	6759
2601.225	6778
2603.153	6585
2605.08	6668
2607.007	6701
2608.932	6600
2610.858	6795
2612.782	6723
2614.709	6722
2616.632	6541
2618.556	6740
2620.478	6686
2622.401	6683
2624.324	6918
2626.247	6674
2628.167	6692
2630.088	6699
2632.008	6815
2633.928	6808
2635.848	6810
2637.766	6687
2639.684	6660
2641.603	6688
2643.519	6666
2645.437	6728
2647.353	6793
2649.27	6674
2651.184	6650
2653.099	6664
2655.014	6589
2656.928	6744
2658.842	6613
2660.755	6729
2662.667	6707
2664.579	6704
2666.491	6680
2668.402	6656
2670.312	6622
2672.222	6690
2674.132	6739
2676.042	6702
2677.951	6566
2679.859	6654
2681.766	6587
2683.674	6706
2685.582	6624
2687.488	6602
2689.392	6701
2691.298	6644
2693.202	6645
2695.107	6642
2697.012	6583
2698.914	6656
2700.817	6591
2702.72	6462
2704.622	6572
2706.524	6565
2708.425	6556
2710.326	6636
2712.225	6693
2714.125	6509
2716.024	6622
2717.923	6628
2719.822	6531
2721.719	6504
2723.616	6711
2725.512	6607
2727.41	6529
2729.305	6586
2731.201	6566
2733.095	6555
2734.99	6550
2736.884	6560
2738.778	6461
2740.67	6594
2742.562	6454
2744.455	6563
2746.346	6513
2748.238	6456
2750.129	6558
2752.018	6490
2753.907	6507
2755.797	6606
2757.687	6450
2759.575	6596
2761.462	6537
2763.349	6523
2765.237	6465
2767.124	6549
2769.009	6434
2770.894	6447
2772.779	6484
2774.663	6427
2776.547	6607
2778.431	6461
2780.314	6374
2782.197	6492
2784.078	6379
2785.96	6349
2787.842	6509
2789.723	6527
2791.603	6511
2793.483	6423
2795.362	6248
2797.241	6492
2799.121	6452
2800.997	6375
2802.874	6433
2804.751	6403
2806.628	6420
2808.506	6394
2810.38	6462
2812.255	6417
2814.13	6501
2816.003	6459
2817.878	6467
2819.752	6402
2821.623	6415
2823.496	6371
2825.368	6466
2827.238	6353
2829.111	6502
2830.98	6346
2832.851	6400
2834.719	6461
2836.589	6456
2838.458	6437
2840.327	6369
2842.193	6373
2844.061	6350
2845.927	6477
2847.794	6525
2849.66	6463
2851.525	6499
2853.39	6439
2855.254	6504
2857.117	6502
2858.983	6601
2860.845	6503
2862.707	6580
2864.569	6573
2866.431	6654
2868.293	6662
2870.154	6688
2872.013	6841
2873.873	6771
2875.733	6831
2877.592	6820
2879.451	6811
2881.309	6847
2883.166	6946
2885.022	6943
2886.879	7110
2888.736	7004
2890.591	7113
2892.446	7063
2894.301	7001
2896.155	6971
2898.009	6993
2899.863	6986
2901.716	7044
2903.568	6929
2905.419	6839
2907.27	6933
2909.123	6937
2910.973	7008
2912.824	7045
2914.673	7148
2916.521	7081
2918.372	7073
2920.22	7248
2922.067	7169
2923.914	7244
2925.761	7486
2927.607	7523
2929.455	7533
2931.301	7513
2933.144	7678
2934.99	7697
2936.833	7707
2938.678	7762
2940.522	7687
2942.364	7903
2944.207	7963
2946.048	7905
2947.891	8055
2949.731	7983
2951.571	7953
2953.412	7918
2955.25	7831
2957.09	7791
2958.93	7748
2960.767	7700
2962.606	7571
2964.443	7515
2966.279	7509
2968.116	7336
2969.953	7342
2971.788	7317
2973.623	7188
2975.457	7195
2977.292	7234
2979.127	7145
2980.959	7142
2982.792	7110
2984.624	7095
2986.455	7101
2988.288	7041
2990.119	6981
2991.949	6959
2993.779	6906
2995.608	6888
2997.439	6775
2999.268	6839
3001.096	6616
3002.923	6708
3004.751	6637
3006.578	6477
3008.406	6474
3010.232	6612
3012.057	6412
3013.883	6404
3015.706	6406
3017.532	6342
3019.356	6387
3021.179	6292
3023.002	6356
3024.823	6047
3026.646	6139
3028.469	6213
3030.289	6165
3032.11	6122
3033.93	6163
3035.749	6083
3037.57	6132
3039.39	6123
3041.207	6108
3043.026	6059
3044.842	6072
3046.661	6089
3048.477	6161
3050.294	5975
3052.109	6056
3053.925	6133
3055.739	6095
3057.555	6018
3059.368	6002
3061.181	6144
3062.995	5929
3064.807	6182
3066.62	6076
3068.433	6097
3070.243	6021
3072.054	6081
3073.865	6039
3075.675	5991
3077.485	6036
3079.293	6022
3081.102	5982
3082.911	6003
3084.719	5792
3086.527	5931
3088.333	5938
3090.139	5899
3091.945	5890
3093.75	5858
3095.557	5937
3097.361	5969
3099.165	5866
3100.969	5834
3102.772	5741
3104.575	5763
3106.379	5848
3108.181	5802
3109.982	5844
3111.783	5816
3113.584	5855
3115.386	5745
3117.186	5897
3118.985	5836
3120.783	5630
3122.582	5788
3124.381	5849
3126.179	5692
3127.975	5861
3129.772	5783
3131.569	5786
3133.365	5785
3135.161	5765
3136.956	5582
3138.751	5670
3140.544	5642
3142.338	5688
3144.132	5668
3145.925	5614
3147.717	5588
3149.509	5710
3151.301	5781
3153.091	5686
3154.884	5754
3156.673	5699
3158.462	5728
3160.252	5641
3162.041	5703
3163.831	5733
3165.618	5743
3167.405	5754
3169.193	5647
3170.979	5673
3172.767	5710
3174.553	5612
3176.338	5734
3178.123	5585
3179.907	5658
3181.692	5686
3183.477	5606
3185.259	5577
3187.042	5680
3188.824	5649
3190.607	5651
3192.389	5607
3194.17	5602
3195.951	5678
3197.73	5574
3199.51	5659
3201.289	5572
3203.07	5635
3204.848	5672
3206.626	5655
3208.403	5630
3210.18	5672
3211.959	5700
3213.735	5547
3215.511	5592
3217.285	5606
3219.06	5625
3220.836	5634
3222.611	5622
3224.384	5568
3226.158	5667
3227.929	5633
3229.702	5633
3231.476	5682
3233.248	5643
3235.018	5657
3236.789	5667
3238.56	5572
3240.33	5657
3242.1	5562
3243.869	5706
3245.637	5560
3247.405	5552
3249.172	5678
3250.941	5613
3252.707	5597
3254.474	5661
3256.24	5634
3258.006	5576
3259.772	5574
3261.537	5583
3263.301	5651
3265.065	5711
3266.828	5563
3268.592	5634
3270.355	5482
3272.117	5592
3273.878	5520
3275.64	5595
3277.401	5572
3279.162	5599
3280.922	5561
3282.682	5531
3284.441	5597
3286.199	5682
3287.959	5660
3289.716	5511
3291.475	5554
3293.232	5673
3294.988	5557
3296.744	5587
3298.501	5566
3300.256	5667
3302.011	5438
3303.766	5641
3305.52	5653
3307.275	5513
3309.028	5475
3310.781	5651
3312.533	5640
3314.285	5653
3316.038	5549
3317.789	5601
3319.54	5654
3321.289	5643
3323.039	5446
3324.789	5663
3326.539	5512
3328.288	5452
3330.035	5586
3331.783	5551
3333.531	5561
3335.28	5563
3337.025	5548
3338.771	5570
3340.518	5562
3342.262	5522
3344.009	5535
3345.753	5462
3347.497	5550
3349.24	5610
3350.983	5453
3352.726	5468
3354.469	5490
3356.212	5539
3357.952	5415
3359.694	5512
3361.434	5584
3363.176	5469
3364.916	5456
3366.654	5426
3368.394	5442
3370.132	5426
3371.871	5324
3373.61	5332
3375.346	5402
3377.083	5362
3378.82	5400
3380.556	5374
3382.292	5343
3384.027	5395
3385.763	5340
3387.497	5423
3389.231	5399
3390.965	5400
3392.698	5302
3394.431	5286
3396.164	5400
3397.896	5435
3399.627	5362
3401.36	5287
3403.09	5324
3404.82	5230
3406.55	5315
3408.279	5322
3410.01	5370
3411.738	5425
3413.467	5298
3415.194	5301
3416.92	5251
3418.647	5382
3420.375	5238
3422.102	5257
3423.827	5351
3425.553	5260
3427.277	5268
3429.003	5255
3430.727	5122
3432.451	5252
3434.173	5208
3435.896	5132
3437.62	5305
3439.343	5231
3441.063	5304
3442.785	5175
3444.505	5222
3446.226	5235
3447.948	5257
3449.666	5178
3451.386	5074
3453.104	5194
3454.823	5109
3456.541	5132
3458.259	5181
3459.976	5079
3461.693	5048
3463.408	5206
3465.125	5041
3466.841	5058
3468.556	5045
3470.271	5032
3471.985	5110
3473.698	5081
3475.414	4973
3477.126	4977
3478.838	5061
3480.55	5131
3482.263	5088
3483.975	5083
3485.686	5145
3487.396	5006
3489.106	4974
3490.817	5024
3492.526	5050
3494.236	4999
3495.944	4953
3497.652	4927
3499.359	4887
3501.066	4921
3502.775	5046
3504.481	4943
3506.187	4929
3507.893	4963
3509.598	4907
3511.304	4907
3513.009	4906
3514.713	4972
3516.417	4879
3518.12	4770
3519.821	4923
3521.525	4892
3523.228	4827
3524.929	4983
3526.631	4850
3528.33	4814
3530.032	4829
3531.733	4854
3533.433	4835
3535.131	4861
3536.83	4778
3538.529	4828
3540.227	4860
3541.925	4888
3543.623	4843
3545.319	4815
3547.016	4826
3548.712	4857
3550.408	4760
3552.103	4766
3553.798	4707
3555.491	4727
3557.188	4762
3558.88	4746
3560.574	4733
3562.266	4783
3563.959	4738
3565.651	4652
3567.343	4744
3569.035	4793
3570.725	4698
3572.415	4745
3574.106	4683
3575.797	4665
3577.485	4787
3579.174	4749
3580.863	4803
3582.551	4605
3584.238	4670
3585.926	4757
3587.613	4632
3589.3	4595
3590.986	4613
3592.671	4594
3594.357	4674
3596.042	4511
3597.726	4602
3599.41	4688
3601.094	4569
3602.778	4584
3604.461	4521
3606.143	4544
3607.825	4543
3609.507	4539
3611.188	4580
3612.87	4521
3614.551	4466
3616.229	4463
3617.909	4467
3619.589	4573
3621.269	4436
3622.948	4478
3624.625	4507
3626.302	4492
3627.98	4462
3629.657	4463
3631.334	4388
3633.01	4453
3634.686	4457
3636.361	4422
3638.036	4464
3639.712	4450
3641.385	4356
3643.06	4461
3644.732	4470
3646.405	4385
3648.08	4364
3649.751	4371
3651.424	4252
3653.094	4306
3654.766	4371
3656.436	4325
3658.106	4411
3659.777	4271
3661.446	4405
3663.115	4299
3664.783	4359
3666.452	4327
3668.121	4351
3669.788	4296
3671.454	4237
3673.121	4302
3674.789	4398
3676.455	4236
3678.12	4288
3679.784	4290
3681.45	4313
3683.114	4250
3684.779	4315
3686.442	4238
3688.105	4324
3689.768	4211
3691.43	4196
3693.093	4220
3694.754	4208
3696.415	4267
3698.076	4237
3699.736	4227
3701.396	4246
3703.057	4119
3704.716	4255
3706.375	4227
3708.034	4168
3709.692	4274
3711.351	4098
3713.008	4177
3714.665	4217
3716.321	4266
3717.977	4157
3719.634	4196
3721.29	4192
3722.945	4239
3724.598	4271
3726.253	4154
3727.907	4156
3729.561	4233
3731.214	4089
3732.867	4134
3734.518	4106
3736.171	4195
3737.824	4146
3739.474	4054
3741.125	4164
3742.775	4086
3744.425	4150
3746.074	4203
3747.725	4168
3749.373	4011
3751.022	4138
3752.669	4054
3754.318	4082
3755.966	4080
3757.612	4155
3759.259	4102
3760.905	4091
3762.55	4137
3764.197	4144
3765.842	4107
3767.486	4168
3769.131	4088
3770.774	4027
3772.417	4116
3774.061	4078
3775.705	4042
3777.347	4067
3778.988	4031
3780.629	4042
3782.271	4026
3783.912	4073
3785.552	4098
3787.192	4011
3788.831	4032
3790.472	4064
3792.112	4049
3793.75	3927
3795.388	3962
3797.024	4043
3798.661	3988
3800.3	4007
3801.936	3988
3803.572	3949
3805.208	3956
3806.844	3935
3808.48	3968
3810.115	4022
3811.748	3937
3813.382	3923
3815.016	3976
3816.649	3893
3818.283	3973
3819.914	3846
3821.547	3875
3823.178	3897
3824.809	3841
3826.441	4039
3828.072	3997
3829.701	3882
3831.331	3959
3832.96	3891
3834.591	3924
3836.219	3926
3837.847	3938
3839.475	3855
3841.102	3933
3842.729	3860
3844.357	3941
3845.984	3874
3847.609	3931
3849.234	3857
3850.86	3890
3852.485	3895
3854.11	3821
3855.734	3903
3857.357	3859
3858.981	3944
3860.603	3835
3862.227	3824
3863.848	3843
3865.471	3808
3867.092	3880
3868.713	3864
3870.334	3752
3871.954	3861
3873.575	3944
3875.194	3811
3876.813	3826
3878.433	3828
3880.051	3777
3881.669	3857
3883.286	3782
3884.904	3802
3886.52	3814
3888.138	3807
3889.754	3837
3891.37	3835
3892.985	3820
3894.6	3745
3896.216	3806
3897.831	3697
3899.444	3762
3901.058	3786
3902.67	3741
3904.283	3785
3905.897	3704
3907.509	3763
3909.121	3829
3910.731	3798
3912.342	3770
3913.954	3748
3915.563	3732
3917.174	3700
3918.783	3750
3920.391	3786
3922.002	3672
3923.611	3745
3925.218	3723
3926.826	3689
3928.432	3797
3930.039	3691
3931.647	3690
3933.253	3662
3934.859	3713
3936.464	3773
3938.068	3803
3939.675	3751
3941.278	3706
3942.883	3625
3944.486	3721
3946.089	3700
3947.692	3711
3949.295	3734
3950.898	3637
3952.499	3656
3954.1	3764
3955.7	3705
3957.303	3694
3958.903	3551
3960.502	3807
3962.101	3616
3963.7	3592
3965.301	3649
3966.899	3642
3968.497	3636
3970.094	3584
3971.691	3540
3973.288	3594
3974.885	3563
3976.481	3551
3978.077	3655
3979.672	3684
3981.267	3630
3982.863	3657
3984.457	3597
3986.051	3543
3987.645	3562
3989.238	3620
3990.831	3629
3992.425	3524
3994.017	3542
3995.607	3551
3997.199	3567
3998.79	3601
4000.382	3530
4001.973	3558
4003.561	3529
4005.151	3464
4006.741	3483
4008.331	3521
4009.918	3405
4011.507	3454
4013.095	3511
4014.681	3474
4016.269	3513
4017.856	3504
4019.443	3439
4021.028	3429
4022.614	3457
4024.199	3407
4025.785	3459
4027.37	3427
4028.953	3491
4030.536	3489
4032.12	3493
4033.704	3419
4035.287	3356
4036.869	3435
4038.45	3467
4040.032	3364
4041.613	3458
4043.195	3407
4044.776	3385
4046.356	3331
4047.935	3420
4049.515	3449
4051.095	3453
4052.674	3363
4054.251	3544
4055.829	3420
4057.406	3417
4058.985	3370
4060.562	3457
4062.139	3403
4063.715	3388
4065.29	3409
4066.865	3348
4068.442	3412
4070.016	3359
4071.59	3380
4073.164	3420
4074.738	3386
4076.312	3390
4077.885	3268
4079.458	3355
4081.03	3243
4082.602	3265
4084.173	3374
4085.745	3209
4087.315	3258
4088.886	3375
4090.456	3254
4092.026	3304
4093.596	3319
4095.165	3314
4096.734	3283
4098.301	3322
4099.869	3243
4101.437	3268
4103.006	3281
4104.572	3295
4106.139	3314
4107.704	3271
4109.27	3237
4110.837	3288
4112.401	3219
4113.966	3227
4115.53	3234
4117.094	3229
4118.659	3297
4120.223	3210
4121.785	3218
4123.347	3227
4124.909	3238
4126.471	3233
4128.034	3278
4129.595	3221
4131.155	3254
4132.716	3178
4134.275	3231
4135.836	3125
4137.395	3239
4138.955	3122
4140.513	3207
4142.071	3237
4143.628	3139
4145.188	3167
4146.745	3252
4148.302	3111
4149.858	3187
4151.414	3181
4152.971	3151
4154.526	3172
4156.081	3233
4157.635	3144
4159.189	3158
4160.745	3171
4162.298	3191
4163.852	3008
4165.405	3145
4166.957	3107
4168.51	3089
4170.063	3155
4171.614	3115
4173.166	3154
4174.717	3100
4176.267	3070
4177.817	3099
4179.368	3025
4180.917	3061
4182.466	3137
4184.016	3084
4185.564	3158
4187.112	3108
4188.66	3087
4190.207	3094
4191.754	3027
4193.301	3116
4194.848	3151
4196.394	3085
4197.94	3024
4199.484	2971
4201.03	3047
4202.575	3041
4204.12	3038
4205.663	3024
4207.207	3026
4208.75	3109
4210.292	2975
4211.836	2991
4213.378	3048
4214.92	3013
4216.46	2970
4218.002	3018
4219.544	3001
4221.083	2977
4222.625	3005
4224.164	3023
4225.703	3031
4227.244	3031
4228.782	2986
4230.32	3042
4231.857	2937
4233.395	2968
4234.933	2998
4236.471	3034
4238.007	2959
4239.542	2877
4241.078	2966
4242.614	2963
4244.15	2956
4245.685	3025
4247.219	2988
4248.753	2928
4250.287	2951
4251.82	3002
4253.354	2928
4254.887	2892
4256.419	3012
4257.951	2878
4259.483	2989
4261.016	2928
4262.547	2937
4264.078	2943
4265.608	2893
4267.137	2970
4268.668	2848
4270.197	2893
4271.727	2948
4273.254	2944
4274.783	2912
4276.311	2905
4277.84	2986
4279.366	2870
4280.894	2997
4282.42	2933
4283.946	2872
4285.473	2860
4286.998	2965
4288.523	2829
4290.047	2924
4291.572	2899
4293.096	2867
4294.622	2851
4296.144	2916
4297.668	2932
4299.19	2870
4300.713	2893
4302.236	2875
4303.758	2893
4305.279	2850
4306.799	2820
4308.321	2769
4309.842	2877
4311.361	2907
4312.882	2941
4314.401	2789
