400.0961	4422
402.6185	4505
405.1424	4433
407.6635	4434
410.1838	4541
412.7035	4497
415.2225	4500
417.7388	4589
420.2585	4588
422.7754	4788
425.2917	4742
427.8072	4870
430.3221	4869
432.8363	4840
435.3498	4915
437.8626	4832
440.3727	4748
442.8841	4763
445.3969	4832
447.907	4850
450.4142	4821
452.9229	4864
455.4289	4875
457.9362	4834
460.4449	4737
462.9488	4801
465.454	4797
467.9566	4718
470.4604	4763
472.9637	4692
475.4662	4683
477.966	4702
480.4671	4680
482.9656	4780
485.4633	4709
487.9645	4680
490.4608	4882
492.9566	4830
495.4536	4736
497.948	4893
500.4437	4686
502.9387	4720
505.431	4794
507.9226	4859
510.4136	4674
512.9079	4782
515.3975	4900
517.8864	4760
520.3746	4840
522.8622	4868
525.3491	4846
527.8394	4929
530.3249	4929
532.8098	4914
535.2939	4845
537.7774	4918
540.2623	4876
542.7444	4999
545.2259	4924
547.7067	4925
550.1868	4911
552.6683	4852
555.147	5053
557.6231	4825
560.1005	4880
562.5773	4957
565.0534	4974
567.5308	5038
570.0056	5060
572.4776	5093
574.951	5127
577.4237	5130
579.8978	5187
582.3671	5374
584.8378	5174
587.3079	5163
589.7773	5258
592.244	5181
594.714	5241
597.1793	5169
599.6461	5205
602.1121	5079
604.5754	5139
607.0421	5070
609.5042	5091
611.9675	5063
614.4282	5152
616.8902	5135
619.3515	5067
621.8122	5025
624.2702	5014
626.7296	5050
629.1863	4983
631.6423	5046
634.1017	5106
636.5563	5074
639.0104	5109
641.4658	5002
643.9185	5061
646.3725	5040
648.8239	5121
651.2766	5048
653.7266	5025
656.176	5168
658.6247	5118
661.0748	5166
663.5242	5195
665.9709	5246
668.417	5178
670.8624	5190
673.3092	5226
675.7533	5153
678.1968	5086
680.6395	5199
683.0817	5186
685.5251	5240
687.9659	5143
690.4061	5210
692.8456	5112
695.2844	5253
697.7226	5237
700.1621	5227
702.599	5159
705.0332	5267
707.4688	5305
709.9036	5297
712.3399	5284
714.7735	5240
717.2044	5311
719.6367	5273
722.0683	5435
724.4993	5371
726.9296	5431
729.3593	5324
731.7883	5331
734.2147	5400
736.6423	5460
739.0714	5450
741.4958	5542
743.9216	5506
746.3447	5464
748.7691	5477
751.1929	5541
753.616	5565
756.0366	5494
758.4584	5661
760.8776	5577
763.2982	5520
765.718	5519
768.1373	5660
770.5539	5664
772.9698	5659
775.3871	5607
777.8038	5648
780.2178	5670
782.6332	5628
785.0459	5576
787.458	5679
789.8714	5680
792.2842	5590
794.6943	5595
797.1038	5612
799.5127	5622
801.9209	5522
804.3324	5691
806.7393	5677
809.1456	5511
811.5513	5672
813.9562	5800
816.3625	5765
818.7663	5659
821.1693	5737
823.5718	5614
825.9735	5855
828.3746	5605
830.7771	5671
833.177	5701
835.5762	5739
837.9747	5698
840.3727	5783
842.772	5835
845.1666	5826
847.5626	5798
849.958	5893
852.3527	5909
854.7488	5919
857.1403	5928
859.5331	5914
861.9253	5926
864.3168	5860
866.7057	5791
869.098	5909
871.4876	5906
873.8746	5835
876.263	5849
878.6487	5888
881.0378	5852
883.4243	5866
885.8081	5820
888.1933	5869
890.5759	5947
892.9598	5826
895.343	5925
897.7256	5745
900.1057	5936
902.4871	5829
904.8659	5977
907.246	6013
909.6254	5949
912.0023	5915
914.3786	6121
916.7562	6159
919.1331	6131
921.5074	6194
923.8831	6137
926.2562	6281
928.6287	6114
931.0005	6277
933.3757	6195
935.7462	6257
938.1162	6421
940.4855	6386
942.8542	6480
945.2242	6616
947.5916	6921
949.9584	7139
952.3266	7456
954.6921	7888
957.0571	8176
959.4233	8512
961.787	8724
964.15	8654
966.5125	8506
968.8742	7838
971.2354	7389
973.5959	7046
975.9559	6698
978.3151	6448
980.6738	6428
983.0338	6248
985.3912	6262
987.7461	6301
990.1022	6154
992.4578	6119
994.8127	6051
997.1689	6150
999.5207	6064
1001.874	6265
1004.226	6273
1006.576	6095
1008.929	6308
1011.28	6204
1013.628	6085
1015.977	6207
1018.324	6226
1020.674	6159
1023.019	6127
1025.366	6260
1027.713	6298
1030.056	6355
1032.399	6170
1034.746	6303
1037.087	6222
1039.431	6357
1041.771	6321
1044.113	6349
1046.454	6260
1048.793	6450
1051.133	6208
1053.471	6340
1055.807	6401
1058.146	6248
1060.483	6401
1062.818	6384
1065.153	6364
1067.489	6383
1069.822	6441
1072.156	6440
1074.488	6542
1076.82	6557
1079.15	6346
1081.48	6430
1083.814	6284
1086.143	6352
1088.471	6250
1090.799	6326
1093.126	6138
1095.452	6266
1097.78	6271
1100.105	6249
1102.43	6359
1104.754	6155
1107.077	6275
1109.4	6188
1111.722	6234
1114.044	6219
1116.365	6202
1118.685	6235
1121.005	6246
1123.324	6358
1125.643	6286
1127.961	6282
1130.278	6323
1132.595	6215
1134.911	6236
1137.226	6325
1139.541	6226
1141.854	6082
1144.167	6235
1146.482	6294
1148.793	6047
1151.105	6207
1153.414	6210
1155.725	6124
1158.033	6138
1160.344	6224
1162.651	6262
1164.959	6178
1167.265	6213
1169.572	6128
1171.878	6210
1174.184	6353
1176.488	6219
1178.79	6238
1181.094	6335
1183.396	6378
1185.699	6203
1188.001	6150
1190.301	6251
1192.6	6214
1194.9	6236
1197.2	6154
1199.497	6263
1201.794	6252
1204.09	6200
1206.387	6342
1208.684	6182
1210.978	6338
1213.272	6274
1215.565	6262
1217.858	6235
1220.15	6242
1222.443	6285
1224.734	6400
1227.024	6280
1229.313	6463
1231.602	6475
1233.892	6485
1236.18	6444
1238.467	6628
1240.754	6468
1243.04	6599
1245.325	6602
1247.612	6545
1249.896	6617
1252.178	6607
1254.461	6575
1256.743	6593
1259.027	6615
1261.308	6453
1263.587	6567
1265.867	6647
1268.146	6646
1270.425	6616
1272.703	6689
1274.981	6633
1277.256	6639
1279.532	6616
1281.808	6599
1284.083	6534
1286.358	6515
1288.63	6565
1290.904	6420
1293.175	6468
1295.449	6346
1297.719	6441
1299.99	6438
1302.259	6391
1304.529	6353
1306.798	6506
1309.065	6485
1311.333	6408
1313.599	6377
1315.866	6490
1318.131	6439
1320.396	6506
1322.66	6461
1324.925	6537
1327.187	6420
1329.448	6471
1331.711	6389
1333.974	6429
1336.234	6423
1338.493	6591
1340.752	6426
1343.01	6432
1345.269	6457
1347.526	6465
1349.784	6489
1352.04	6449
1354.295	6452
1356.552	6437
1358.806	6447
1361.059	6579
1363.312	6473
1365.564	6324
1367.818	6487
1370.069	6512
1372.318	6456
1374.568	6500
1376.817	6526
1379.066	6545
1381.316	6453
1383.564	6567
1385.809	6430
1388.056	6492
1390.301	6577
1392.549	6583
1394.793	6529
1397.036	6656
1399.279	6549
1401.522	6718
1403.763	6708
1406.007	6624
1408.248	6739
1410.487	6686
1412.727	6679
1414.965	6636
1417.205	6744
1419.442	6719
1421.68	6629
1423.915	6646
1426.152	6802
1428.388	6654
1430.623	6675
1432.857	6800
1435.091	6719
1437.323	6781
1439.556	6739
1441.789	6735
1444.019	6833
1446.25	6796
1448.48	6820
1450.708	6895
1452.938	6905
1455.167	6897
1457.394	6960
1459.62	6898
1461.846	6943
1464.073	6800
1466.299	6878
1468.523	6849
1470.746	6699
1472.969	6800
1475.191	6657
1477.415	6646
1479.636	6716
1481.858	6529
1484.078	6568
1486.298	6519
1488.518	6376
1490.736	6444
1492.954	6448
1495.169	6475
1497.386	6430
1499.602	6516
1501.819	6433
1504.034	6410
1506.248	6481
1508.462	6406
1510.675	6441
1512.888	6417
1515.1	6460
1517.311	6420
1519.522	6356
1521.732	6417
1523.942	6405
1526.151	6428
1528.36	6247
1530.566	6463
1532.773	6475
1534.98	6490
1537.187	6457
1539.392	6607
1541.596	6546
1543.801	6469
1546.005	6377
1548.208	6474
1550.411	6555
1552.612	6418
1554.814	6507
1557.013	6559
1559.212	6577
1561.414	6513
1563.612	6523
1565.811	6507
1568.007	6486
1570.203	6613
1572.403	6513
1574.598	6581
1576.792	6520
1578.988	6667
1581.181	6705
1583.376	6625
1585.568	6611
1587.761	6756
1589.952	6663
1592.143	6656
1594.333	6611
1596.524	6753
1598.715	6633
1600.903	6638
1603.091	6643
1605.278	6694
1607.466	6695
1609.652	6721
1611.838	6704
1614.023	6715
1616.207	6618
1618.391	6798
1620.576	6725
1622.759	6698
1624.941	6679
1627.123	6724
1629.304	6720
1631.484	6781
1633.664	6659
1635.844	6797
1638.022	6736
1640.201	6844
1642.38	6827
1644.556	6772
1646.732	6864
1648.908	6806
1651.084	6815
1653.257	6905
1655.433	6721
1657.607	6881
1659.779	6886
1661.951	6920
1664.122	6934
1666.295	6922
1668.467	6956
1670.635	6953
1672.805	6951
1674.973	6869
1677.142	6923
1679.31	6946
1681.478	6881
1683.644	6978
1685.81	6961
1687.975	6914
1690.142	6832
1692.305	6770
1694.468	6902
1696.632	6827
1698.794	6795
1700.957	6666
1703.119	6703
1705.279	6724
1707.439	6725
1709.598	6644
1711.758	6704
1713.917	6612
1716.075	6570
1718.231	6717
1720.388	6572
1722.543	6583
1724.702	6574
1726.856	6533
1729.01	6611
1731.164	6695
1733.317	6655
1735.471	6642
1737.623	6550
1739.774	6630
1741.925	6637
1744.075	6611
1746.225	6760
1748.376	6592
1750.524	6630
1752.672	6624
1754.82	6557
1756.965	6639
1759.113	6628
1761.259	6782
1763.405	6641
1765.549	6697
1767.694	6718
1769.836	6707
1771.981	6703
1774.123	6590
1776.264	6647
1778.405	6666
1780.546	6664
1782.687	6660
1784.827	6556
1786.966	6695
1789.103	6717
1791.242	6806
1793.381	6781
1795.517	6713
1797.653	6832
1799.788	6670
1801.923	6588
1804.057	6753
1806.193	6663
1808.326	6723
1810.457	6656
1812.59	6632
1814.721	6710
1816.855	6780
1818.984	6660
1821.113	6719
1823.244	6625
1825.372	6820
1827.499	6802
1829.63	6485
1831.756	6677
1833.882	6601
1836.007	6707
1838.132	6789
1840.26	6725
1842.384	6693
1844.507	6712
1846.63	6735
1848.752	6666
1850.875	6539
1852.996	6657
1855.118	6717
1857.238	6615
1859.358	6656
1861.477	6526
1863.597	6723
1865.715	6596
1867.832	6620
1869.948	6705
1872.064	6654
1874.181	6609
1876.297	6515
1878.411	6607
1880.526	6710
1882.639	6608
1884.752	6637
1886.865	6666
1888.977	6630
1891.089	6683
1893.2	6708
1895.308	6673
1897.42	6740
1899.53	6674
1901.639	6692
1903.745	6696
1905.853	6707
1907.962	6705
1910.067	6674
1912.174	6665
1914.278	6683
1916.383	6718
1918.486	6746
1920.592	6726
1922.694	6788
1924.797	6664
1926.898	6609
1929	6677
1931.102	6708
1933.203	6770
1935.301	6752
1937.401	6754
1939.499	6818
1941.598	6842
1943.697	6713
1945.793	6647
1947.888	6712
1949.985	6713
1952.08	6791
1954.176	6712
1956.269	6750
1958.364	6718
1960.457	6756
1962.549	6723
1964.642	6832
1966.733	6780
1968.823	6719
1970.913	6796
1973.005	6651
1975.093	6680
1977.184	6816
1979.271	6722
1981.359	6644
1983.446	6676
1985.532	6688
1987.619	6723
1989.705	6721
1991.789	6681
1993.874	6798
1995.956	6680
1998.041	6673
2000.123	6592
2002.206	6764
2004.287	6675
2006.368	6560
2008.449	6698
2010.529	6503
2012.609	6721
2014.688	6749
2016.766	6702
2018.843	6641
2020.922	6702
2022.999	6481
2025.074	6751
2027.15	6670
2029.225	6646
2031.299	6711
2033.375	6630
2035.447	6610
2037.52	6639
2039.592	6629
2041.664	6665
2043.736	6791
2045.807	6654
2047.876	6692
2049.947	6634
2052.015	6602
2054.086	6669
2056.153	6673
2058.221	6797
2060.288	6595
2062.353	6663
2064.42	6657
2066.486	6805
2068.55	6647
2070.614	6762
2072.678	6611
2074.741	6629
2076.805	6662
2078.866	6795
2080.929	6703
2082.99	6623
2085.049	6751
2087.109	6651
2089.17	6725
2091.228	6725
2093.286	6847
2095.344	6744
2097.4	6712
2099.46	6636
2101.516	6653
2103.572	6724
2105.626	6618
2107.679	6586
2109.735	6665
2111.788	6626
2113.841	6721
2115.894	6773
2117.945	6739
2119.997	6676
2122.049	6659
2124.1	6786
2126.148	6649
2128.197	6631
2130.246	6692
2132.296	6653
2134.342	6741
2136.39	6732
2138.437	6671
2140.483	6625
2142.527	6638
2144.574	6649
2146.619	6601
2148.661	6667
2150.705	6532
2152.747	6681
2154.792	6661
2156.832	6696
2158.874	6542
2160.915	6525
2162.954	6762
2164.995	6610
2167.034	6548
2169.072	6686
2171.111	6632
2173.148	6650
2175.186	6539
2177.223	6513
2179.258	6600
2181.294	6612
2183.328	6553
2185.362	6530
2187.398	6515
2189.431	6571
2191.463	6510
2193.495	6610
2195.528	6589
2197.56	6610
2199.59	6383
2201.62	6563
2203.649	6549
2205.678	6576
2207.708	6490
2209.737	6414
2211.764	6535
2213.791	6588
2215.817	6495
2217.843	6531
2219.87	6474
2221.895	6484
2223.919	6620
2225.942	6406
2227.966	6577
2229.988	6335
2232.012	6444
2234.032	6472
2236.054	6461
2238.074	6410
2240.095	6548
2242.116	6546
2244.135	6419
2246.153	6544
2248.171	6391
2250.188	6687
2252.208	6477
2254.223	6514
2256.239	6407
2258.255	6449
2260.269	6458
2262.283	6360
2264.3	6345
2266.312	6457
2268.325	6515
2270.336	6416
2272.349	6561
2274.362	6534
2276.372	6434
2278.383	6377
2280.392	6459
2282.402	6428
2284.409	6538
2286.418	6305
2288.427	6501
2290.433	6543
2292.441	6569
2294.446	6529
2296.453	6517
2298.459	6447
2300.463	6510
2302.466	6429
2304.471	6375
2306.475	6494
2308.477	6419
2310.478	6421
2312.481	6492
2314.481	6469
2316.481	6488
2318.482	6350
2320.482	6466
2322.48	6511
2324.48	6377
2326.478	6412
2328.476	6405
2330.473	6368
2332.469	6409
2334.465	6494
2336.46	6385
2338.454	6384
2340.45	6354
2342.444	6301
2344.437	6490
2346.43	6321
2348.421	6346
2350.414	6319
2352.405	6419
2354.396	6389
2356.386	6490
2358.376	6308
2360.366	6391
2362.355	6294
2364.343	6429
2366.331	6271
2368.317	6342
2370.304	6457
2372.292	6354
2374.278	6343
2376.262	6384
2378.247	6217
2380.23	6297
2382.216	6352
2384.199	6318
2386.181	6212
2388.163	6232
2390.144	6227
2392.127	6268
2394.107	6287
2396.087	6299
2398.066	6223
2400.046	6268
2402.023	6222
2404.004	6249
2405.981	6137
2407.957	6189
2409.934	6230
2411.91	6380
2413.886	6163
2415.862	6181
2417.836	6110
2419.809	6293
2421.784	6246
2423.756	6287
2425.73	6286
2427.701	6147
2429.672	6181
2431.644	6364
2433.615	6185
2435.586	6213
2437.555	6247
2439.523	6181
2441.491	6180
2443.459	6204
2445.428	6240
2447.395	6252
2449.361	6301
2451.327	6170
2453.292	6135
2455.257	6284
2457.223	6153
2459.187	6180
2461.15	6232
2463.113	6175
2465.076	6216
2467.039	6093
2468.999	6169
2470.96	6114
2472.921	6246
2474.881	6254
2476.841	6058
2478.8	6193
2480.759	6169
2482.717	6084
2484.675	6146
2486.63	6159
2488.589	6071
2490.545	6172
2492.5	6159
2494.455	6123
2496.408	6011
2498.364	6163
2500.318	6038
2502.27	6113
2504.223	6173
2506.174	6079
2508.126	6134
2510.078	6152
2512.03	6240
2513.979	6110
2515.927	6082
2517.877	6087
2519.826	6058
2521.775	6181
2523.722	6214
2525.668	6067
2527.616	6139
2529.561	6060
2531.508	6034
2533.452	6133
2535.398	6088
2537.342	5969
2539.284	6093
2541.229	6025
2543.173	6086
2545.114	6048
2547.055	6127
2548.996	6051
2550.938	6104
2552.878	6165
2554.817	6086
2556.756	6195
2558.695	6147
2560.633	6097
2562.572	6092
2564.509	6131
2566.445	6065
2568.382	6076
2570.317	5962
2572.254	6055
2574.189	6103
2576.123	6139
2578.057	6109
2579.99	5988
2581.923	6135
2583.855	6086
2585.788	6028
2587.719	5984
2589.65	6073
2591.579	6088
2593.511	6141
2595.44	6048
2597.37	6119
2599.297	6024
2601.225	6014
2603.153	6189
2605.08	6072
2607.007	6100
2608.932	6144
2610.858	6113
2612.782	6029
2614.709	6182
2616.632	6029
2618.556	6059
2620.478	6044
2622.401	6098
2624.324	6126
2626.247	6012
2628.167	6128
2630.088	5987
2632.008	6161
2633.928	6162
2635.848	6130
2637.766	6053
2639.684	6075
2641.603	6174
2643.519	6038
2645.437	6177
2647.353	6042
2649.27	6077
2651.184	6076
2653.099	6057
2655.014	5929
2656.928	5950
2658.842	6062
2660.755	6132
2662.667	6020
2664.579	6021
2666.491	6179
2668.402	6246
2670.312	5983
2672.222	6138
2674.132	5989
2676.042	6042
2677.951	5964
2679.859	6056
2681.766	6003
2683.674	6022
2685.582	6108
2687.488	5930
2689.392	6158
2691.298	6132
2693.202	6020
2695.107	6070
2697.012	5987
2698.914	6045
2700.817	6070
2702.72	5957
2704.622	6066
2706.524	6036
2708.425	5874
2710.326	5956
2712.225	6016
2714.125	5854
2716.024	6037
2717.923	6058
2719.822	5982
2721.719	6052
2723.616	5883
2725.512	6034
2727.41	5993
2729.305	6048
2731.201	5996
2733.095	6041
2734.99	5993
2736.884	6006
2738.778	6034
2740.67	5872
2742.562	5856
2744.455	5987
2746.346	5869
2748.238	5834
2750.129	5926
2752.018	5980
2753.907	5875
2755.797	5932
2757.687	5969
2759.575	5866
2761.462	5928
2763.349	5876
2765.237	5853
2767.124	5840
2769.009	5869
2770.894	5864
2772.779	5849
2774.663	5906
2776.547	5898
2778.431	5846
2780.314	5902
2782.197	5898
2784.078	5947
2785.96	5902
2787.842	5905
2789.723	5965
2791.603	5906
2793.483	5835
2795.362	5878
2797.241	5911
2799.121	5971
2800.997	5911
2802.874	5955
2804.751	5787
2806.628	5795
2808.506	5908
2810.38	5916
2812.255	5905
2814.13	5773
2816.003	5927
2817.878	5809
2819.752	5818
2821.623	5819
2823.496	5938
2825.368	5989
2827.238	5911
2829.111	5832
2830.98	5784
2832.851	5885
2834.719	5785
2836.589	5883
2838.458	5947
2840.327	5898
2842.193	5822
2844.061	5879
2845.927	5836
2847.794	5818
2849.66	5865
2851.525	5844
2853.39	5942
2855.254	5894
2857.117	5872
2858.983	6052
2860.845	6019
2862.707	6029
2864.569	6050
2866.431	6167
2868.293	6055
2870.154	6186
2872.013	6232
2873.873	6238
2875.733	6358
2877.592	6509
2879.451	6442
2881.309	6529
2883.166	6552
2885.022	6697
2886.879	6670
2888.736	6595
2890.591	6724
2892.446	6635
2894.301	6629
2896.155	6619
2898.009	6627
2899.863	6688
2901.716	6520
2903.568	6657
2905.419	6575
2907.27	6596
2909.123	6612
2910.973	6746
2912.824	6731
2914.673	6684
2916.521	6935
2918.372	6954
2920.22	6862
2922.067	6875
2923.914	7105
2925.761	7229
2927.607	7193
2929.455	7217
2931.301	7417
2933.144	7469
2934.99	7467
2936.833	7443
2938.678	7654
2940.522	7702
2942.364	7724
2944.207	7925
2946.048	7828
2947.891	7852
2949.731	7982
2951.571	7813
2953.412	7739
2955.25	7788
2957.09	7665
2958.93	7457
2960.767	7524
2962.606	7362
2964.443	7253
2966.279	7208
2968.116	7131
2969.953	7063
2971.788	7058
2973.623	6981
2975.457	6958
2977.292	6911
2979.127	6917
2980.959	6900
2982.792	6841
2984.624	6814
2986.455	6765
2988.288	6821
2990.119	6676
2991.949	6610
2993.779	6715
2995.608	6534
2997.439	6506
2999.268	6452
3001.096	6326
3002.923	6342
3004.751	6215
3006.578	6197
3008.406	6155
3010.232	6013
3012.057	6086
3013.883	5946
3015.706	5889
3017.532	5975
3019.356	5832
3021.179	5830
3023.002	5847
3024.823	5746
3026.646	5769
3028.469	5712
3030.289	5648
3032.11	5637
3033.93	5794
3035.749	5637
3037.57	5602
3039.39	5572
3041.207	5573
3043.026	5562
3044.842	5646
3046.661	5625
3048.477	5624
3050.294	5631
3052.109	5547
3053.925	5532
3055.739	5546
3057.555	5535
3059.368	5658
3061.181	5606
3062.995	5571
3064.807	5638
3066.62	5575
3068.433	5667
3070.243	5591
3072.054	5534
3073.865	5532
3075.675	5539
3077.485	5583
3079.293	5552
3081.102	5615
3082.911	5600
3084.719	5453
3086.527	5541
3088.333	5456
3090.139	5575
3091.945	5446
3093.75	5427
3095.557	5436
3097.361	5453
3099.165	5384
3100.969	5398
3102.772	5476
3104.575	5410
3106.379	5416
3108.181	5311
3109.982	5376
3111.783	5337
3113.584	5328
3115.386	5502
3117.186	5368
3118.985	5366
3120.783	5291
3122.582	5301
3124.381	5438
3126.179	5310
3127.975	5327
3129.772	5275
3131.569	5274
3133.365	5367
3135.161	5257
3136.956	5300
3138.751	5327
3140.544	5231
3142.338	5382
3144.132	5378
3145.925	5346
3147.717	5216
3149.509	5380
3151.301	5305
3153.091	5374
3154.884	5222
3156.673	5270
3158.462	5365
3160.252	5319
3162.041	5215
3163.831	5222
3165.618	5227
3167.405	5409
3169.193	5129
3170.979	5215
3172.767	5286
3174.553	5329
3176.338	5318
3178.123	5269
3179.907	5241
3181.692	5286
3183.477	5277
3185.259	5215
3187.042	5261
3188.824	5245
3190.607	5242
3192.389	5288
3194.17	5329
3195.951	5233
3197.73	5265
3199.51	5312
3201.289	5103
3203.07	5263
3204.848	5220
3206.626	5232
3208.403	5234
3210.18	5247
3211.959	5186
3213.735	5298
3215.511	5179
3217.285	5217
3219.06	5226
3220.836	5336
3222.611	5158
3224.384	5223
3226.158	5335
3227.929	5232
3229.702	5214
3231.476	5294
3233.248	5191
3235.018	5332
3236.789	5213
3238.56	5264
3240.33	5263
3242.1	5188
3243.869	5181
3245.637	5212
3247.405	5207
3249.172	5252
3250.941	5235
3252.707	5307
3254.474	5235
3256.24	5276
3258.006	5130
3259.772	5210
3261.537	5319
3263.301	5255
3265.065	5209
3266.828	5226
3268.592	5284
3270.355	5224
3272.117	5220
3273.878	5246
3275.64	5210
3277.401	5269
3279.162	5204
3280.922	5223
3282.682	5283
3284.441	5177
3286.199	5341
3287.959	5202
3289.716	5184
3291.475	5330
3293.232	5244
3294.988	5244
3296.744	5244
3298.501	5322
3300.256	5213
3302.011	5294
3303.766	5302
3305.52	5238
3307.275	5346
3309.028	5250
3310.781	5245
3312.533	5202
3314.285	5208
3316.038	5215
3317.789	5272
3319.54	5244
3321.289	5243
3323.039	5205
3324.789	5272
3326.539	5171
3328.288	5299
3330.035	5191
3331.783	5229
3333.531	5197
3335.28	5240
3337.025	5234
3338.771	5306
3340.518	5215
3342.262	5204
3344.009	5240
3345.753	5208
3347.497	5188
3349.24	5102
3350.983	5167
3352.726	5115
3354.469	5207
3356.212	5189
3357.952	5238
3359.694	5176
3361.434	5146
3363.176	5137
3364.916	5187
3366.654	5064
3368.394	5167
3370.132	5140
3371.871	5112
3373.61	5030
3375.346	5135
3377.083	5119
3378.82	5068
3380.556	5058
3382.292	5070
3384.027	5003
3385.763	5057
3387.497	5030
3389.231	5080
3390.965	4986
3392.698	5048
3394.431	4991
3396.164	5009
3397.896	5049
3399.627	5022
3401.36	5086
3403.09	5042
3404.82	4914
3406.55	5054
3408.279	5019
3410.01	4965
3411.738	5030
3413.467	5000
3415.194	4931
3416.92	5030
3418.647	4951
3420.375	4913
3422.102	4986
3423.827	5009
3425.553	4970
3427.277	5048
3429.003	4973
3430.727	4943
3432.451	4831
3434.173	4957
3435.896	4956
3437.62	4970
3439.343	4915
3441.063	4950
3442.785	4846
3444.505	4860
3446.226	4860
3447.948	4924
3449.666	4767
3451.386	4900
3453.104	4894
3454.823	4928
3456.541	4884
3458.259	4826
3459.976	4794
3461.693	4962
3463.408	4850
3465.125	4745
3466.841	4856
3468.556	4737
3470.271	4741
3471.985	4853
3473.698	4759
3475.414	4750
3477.126	4846
3478.838	4730
3480.55	4648
3482.263	4722
3483.975	4615
3485.686	4755
3487.396	4656
3489.106	4739
3490.817	4685
3492.526	4688
3494.236	4723
3495.944	4738
3497.652	4535
3499.359	4714
3501.066	4676
3502.775	4649
3504.481	4576
3506.187	4645
3507.893	4690
3509.598	4604
3511.304	4513
3513.009	4567
3514.713	4616
3516.417	4616
3518.12	4650
3519.821	4563
3521.525	4499
3523.228	4630
3524.929	4570
3526.631	4459
3528.33	4557
3530.032	4539
3531.733	4561
3533.433	4446
3535.131	4556
3536.83	4471
3538.529	4554
3540.227	4502
3541.925	4472
3543.623	4452
3545.319	4417
3547.016	4533
3548.712	4510
3550.408	4492
3552.103	4475
3553.798	4484
3555.491	4429
3557.188	4380
3558.88	4403
3560.574	4436
3562.266	4458
3563.959	4443
3565.651	4380
3567.343	4411
3569.035	4381
3570.725	4408
3572.415	4333
3574.106	4397
3575.797	4343
3577.485	4328
3579.174	4369
3580.863	4347
3582.551	4373
3584.238	4314
3585.926	4283
3587.613	4243
3589.3	4298
3590.986	4298
3592.671	4255
3594.357	4342
3596.042	4335
3597.726	4235
3599.41	4196
3601.094	4298
3602.778	4288
3604.461	4270
3606.143	4214
3607.825	4237
3609.507	4174
3611.188	4170
3612.87	4171
3614.551	4181
3616.229	4209
3617.909	4110
3619.589	4162
3621.269	4148
3622.948	4160
3624.625	4137
3626.302	4190
3627.98	4133
3629.657	4104
3631.334	4141
3633.01	4058
3634.686	4092
3636.361	4158
3638.036	4025
3639.712	4038
3641.385	4007
3643.06	4098
3644.732	4031
3646.405	3984
3648.08	4013
3649.751	4083
3651.424	4032
3653.094	4080
3654.766	4030
3656.436	4003
3658.106	4082
3659.777	4006
3661.446	4002
3663.115	3982
3664.783	3928
3666.452	3988
3668.121	3957
3669.788	3943
3671.454	3983
3673.121	3987
3674.789	3840
3676.455	3987
3678.12	3950
3679.784	3888
3681.45	3996
3683.114	4009
3684.779	4038
3686.442	3966
3688.105	3907
3689.768	3899
3691.43	3976
3693.093	3831
3694.754	3845
3696.415	3946
3698.076	3938
3699.736	3881
3701.396	3982
3703.057	3912
3704.716	3880
3706.375	3847
3708.034	3870
3709.692	3870
3711.351	3861
3713.008	3842
3714.665	3871
3716.321	3827
3717.977	3855
3719.634	3812
3721.29	3868
3722.945	3800
3724.598	3983
3726.253	3931
3727.907	3858
3729.561	3893
3731.214	3811
3732.867	3855
3734.518	3886
3736.171	3830
3737.824	3832
3739.474	3810
3741.125	3805
3742.775	3849
3744.425	3800
3746.074	3771
3747.725	3788
3749.373	3790
3751.022	3775
3752.669	3716
3754.318	3756
3755.966	3723
3757.612	3815
3759.259	3736
3760.905	3791
3762.55	3762
3764.197	3799
3765.842	3706
3767.486	3715
3769.131	3775
3770.774	3701
3772.417	3779
3774.061	3804
3775.705	3723
3777.347	3735
3778.988	3776
3780.629	3757
3782.271	3789
3783.912	3716
3785.552	3767
3787.192	3607
3788.831	3621
3790.472	3677
3792.112	3647
3793.75	3655
3795.388	3707
3797.024	3612
3798.661	3664
3800.3	3685
3801.936	3572
3803.572	3682
3805.208	3619
3806.844	3632
3808.48	3582
3810.115	3616
3811.748	3643
3813.382	3685
3815.016	3624
3816.649	3629
3818.283	3629
3819.914	3645
3821.547	3639
3823.178	3597
3824.809	3616
3826.441	3507
3828.072	3607
3829.701	3667
3831.331	3587
3832.96	3583
3834.591	3552
3836.219	3698
3837.847	3576
3839.475	3520
3841.102	3528
3842.729	3541
3844.357	3661
3845.984	3605
3847.609	3550
3849.234	3581
3850.86	3480
3852.485	3475
3854.11	3576
3855.734	3535
3857.357	3513
3858.981	3511
3860.603	3484
3862.227	3596
3863.848	3497
3865.471	3601
3867.092	3570
3868.713	3514
3870.334	3507
3871.954	3515
3873.575	3536
3875.194	3622
3876.813	3514
3878.433	3499
3880.051	3507
3881.669	3482
3883.286	3492
3884.904	3562
3886.52	3491
3888.138	3529
3889.754	3511
3891.37	3556
3892.985	3493
3894.6	3433
3896.216	3451
3897.831	3458
3899.444	3458
3901.058	3565
3902.67	3564
3904.283	3414
3905.897	3575
3907.509	3510
3909.121	3463
3910.731	3541
3912.342	3424
3913.954	3457
3915.563	3443
3917.174	3422
3918.783	3434
3920.391	3512
3922.002	3427
3923.611	3438
3925.218	3490
3926.826	3403
3928.432	3548
3930.039	3455
3931.647	3472
3933.253	3494
3934.859	3454
3936.464	3465
3938.068	3460
3939.675	3387
3941.278	3487
3942.883	3412
3944.486	3363
3946.089	3410
3947.692	3339
3949.295	3412
3950.898	3327
3952.499	3408
3954.1	3435
3955.7	3374
3957.303	3316
3958.903	3373
3960.502	3480
3962.101	3365
3963.7	3338
3965.301	3306
3966.899	3376
3968.497	3338
3970.094	3392
3971.691	3340
3973.288	3322
3974.885	3352
3976.481	3313
3978.077	3360
3979.672	3312
3981.267	3305
3982.863	3254
3984.457	3302
3986.051	3266
3987.645	3349
3989.238	3307
3990.831	3322
3992.425	3286
3994.017	3352
3995.607	3275
3997.199	3326
3998.79	3326
4000.382	3259
4001.973	3302
4003.561	3249
4005.151	3206
4006.741	3268
4008.331	3189
4009.918	3267
4011.507	3218
4013.095	3267
4014.681	3174
4016.269	3200
4017.856	3174
4019.443	3273
4021.028	3181
4022.614	3134
4024.199	3200
4025.785	3134
4027.37	3230
4028.953	3210
4030.536	3135
4032.12	3191
4033.704	3165
4035.287	3256
4036.869	3147
4038.45	3173
4040.032	3154
4041.613	3148
4043.195	3126
4044.776	3119
4046.356	3125
4047.935	3136
4049.515	3088
4051.095	3171
4052.674	3103
4054.251	3148
4055.829	3112
4057.406	3147
4058.985	3171
4060.562	3099
4062.139	3091
4063.715	3140
4065.29	3104
4066.865	3129
4068.442	3104
4070.016	3175
4071.59	3148
4073.164	3128
4074.738	3048
4076.312	3146
4077.885	3057
4079.458	3089
4081.03	3137
4082.602	3168
4084.173	3033
4085.745	3041
4087.315	3077
4088.886	3064
4090.456	3093
4092.026	3057
4093.596	3146
4095.165	3147
4096.734	3098
4098.301	3055
4099.869	3051
4101.437	3096
4103.006	3045
4104.572	3054
4106.139	3010
4107.704	3105
4109.27	3069
4110.837	3096
4112.401	3057
4113.966	3066
4115.53	3059
4117.094	3057
4118.659	2967
4120.223	2982
4121.785	3051
4123.347	3015
4124.909	2911
4126.471	2968
4128.034	2979
4129.595	3019
4131.155	2979
4132.716	2954
4134.275	3002
4135.836	2990
4137.395	2947
4138.955	2998
4140.513	2971
4142.071	2939
4143.628	2993
4145.188	2932
4146.745	2941
4148.302	2906
4149.858	2910
4151.414	2950
4152.971	2922
4154.526	2940
4156.081	2903
4157.635	2965
4159.189	2958
4160.745	2925
4162.298	2854
4163.852	2857
4165.405	2887
4166.957	2895
4168.51	2982
4170.063	2861
4171.614	2916
4173.166	2867
4174.717	2860
4176.267	2914
4177.817	2914
4179.368	2850
4180.917	2828
4182.466	2859
4184.016	2892
4185.564	2853
4187.112	2811
4188.66	2873
4190.207	2852
4191.754	2810
4193.301	2855
4194.848	2943
4196.394	2815
4197.94	2827
4199.484	2838
4201.03	2861
4202.575	2848
4204.12	2824
4205.663	2772
4207.207	2848
4208.75	2816
4210.292	2877
4211.836	2800
4213.378	2773
4214.92	2861
4216.46	2866
4218.002	2834
4219.544	2807
4221.083	2777
4222.625	2809
4224.164	2764
4225.703	2794
4227.244	2817
4228.782	2704
4230.32	2864
4231.857	2785
4233.395	2722
4234.933	2743
4236.471	2743
4238.007	2773
4239.542	2778
4241.078	2757
4242.614	2715
4244.15	2715
4245.685	2792
4247.219	2777
4248.753	2806
4250.287	2670
4251.82	2818
4253.354	2777
4254.887	2704
4256.419	2773
4257.951	2739
4259.483	2791
4261.016	2732
4262.547	2737
4264.078	2802
4265.608	2687
4267.137	2687
4268.668	2782
4270.197	2681
4271.727	2740
4273.254	2729
4274.783	2780
4276.311	2677
4277.84	2676
4279.366	2667
4280.894	2701
4282.42	2725
4283.946	2667
4285.473	2679
4286.998	2708
4288.523	2730
4290.047	2700
4291.572	2685
4293.096	2677
4294.622	2622
4296.144	2662
4297.668	2686
4299.19	2671
4300.713	2715
4302.236	2597
4303.758	2703
4305.279	2666
4306.799	2651
4308.321	2679
4309.842	2642
4311.361	2615
4312.882	2592
4314.401	2698
