400.0961	10060
402.6185	10095
405.1424	10030
407.6635	10249
410.1838	10092
412.7035	10120
415.2225	10206
417.7388	10174
420.2585	10283
422.7754	10456
425.2917	10500
427.8072	10528
430.3221	10644
432.8363	10582
435.3498	10539
437.8626	10633
440.3727	10604
442.8841	10962
445.3969	10746
447.907	10820
450.4142	10799
452.9229	10714
455.4289	10733
457.9362	10856
460.4449	10822
462.9488	10748
465.454	10759
467.9566	10925
470.4604	10877
472.9637	10888
475.4662	11059
477.966	10971
480.4671	10887
482.9656	11041
485.4633	11019
487.9645	11169
490.4608	11145
492.9566	11374
495.4536	11384
497.948	11353
500.4437	11369
502.9387	11293
505.431	11221
507.9226	11258
510.4136	11445
512.9079	11322
515.3975	11501
517.8864	11407
520.3746	11428
522.8622	11431
525.3491	11579
527.8394	11408
530.3249	11436
532.8098	11447
535.2939	11528
537.7774	11457
540.2623	11467
542.7444	11333
545.2259	11389
547.7067	11617
550.1868	11658
552.6683	11559
555.147	11476
557.6231	11552
560.1005	11723
562.5773	11546
565.0534	11624
567.5308	11704
570.0056	11664
572.4776	11841
574.951	11648
577.4237	11672
579.8978	11833
582.3671	11871
584.8378	11918
587.3079	11868
589.7773	11839
592.244	11832
594.714	11770
597.1793	11694
599.6461	11949
602.1121	11864
604.5754	11809
607.0421	11839
609.5042	11932
611.9675	11816
614.4282	11815
616.8902	11941
619.3515	11806
621.8122	11934
624.2702	11910
626.7296	12048
629.1863	11973
631.6423	11933
634.1017	11921
636.5563	11830
639.0104	11851
641.4658	11891
643.9185	11954
646.3725	12105
648.8239	12138
651.2766	12089
653.7266	12067
656.176	12190
658.6247	12211
661.0748	12072
663.5242	12070
665.9709	12217
668.417	12183
670.8624	12238
673.3092	12280
675.7533	12213
678.1968	12233
680.6395	12151
683.0817	12360
685.5251	12464
687.9659	12351
690.4061	12567
692.8456	12347
695.2844	12473
697.7226	12442
700.1621	12602
702.599	12392
705.0332	12509
707.4688	12534
709.9036	12400
712.3399	12548
714.7735	12617
717.2044	12680
719.6367	12754
722.0683	12622
724.4993	12507
726.9296	12854
729.3593	12857
731.7883	12688
734.2147	12856
736.6423	12809
739.0714	13051
741.4958	13007
743.9216	13109
746.3447	13136
748.7691	12991
751.1929	12891
753.616	13207
756.0366	13206
758.4584	13173
760.8776	13360
763.2982	13213
765.718	13426
768.1373	13315
770.5539	13361
772.9698	13364
775.3871	13233
777.8038	13342
780.2178	13284
782.6332	13358
785.0459	13201
787.458	13316
789.8714	13428
792.2842	13325
794.6943	13359
797.1038	13503
799.5127	13437
801.9209	13353
804.3324	13289
806.7393	13327
809.1456	13388
811.5513	13487
813.9562	13502
816.3625	13424
818.7663	13266
821.1693	13660
823.5718	13519
825.9735	13439
828.3746	13355
830.7771	13464
833.177	13510
835.5762	13629
837.9747	13598
840.3727	13705
842.772	13610
845.1666	13471
847.5626	13641
849.958	13644
852.3527	13731
854.7488	13780
857.1403	13647
859.5331	13624
861.9253	13513
864.3168	13564
866.7057	13586
869.098	13492
871.4876	13569
873.8746	13666
876.263	13802
878.6487	13430
881.0378	13765
883.4243	13754
885.8081	13700
888.1933	13808
890.5759	13456
892.9598	13651
895.343	13678
897.7256	13720
900.1057	13695
902.4871	13846
904.8659	13949
907.246	13853
909.6254	13955
912.0023	13910
914.3786	13822
916.7562	13935
919.1331	13866
921.5074	14202
923.8831	13945
926.2562	14126
928.6287	14157
931.0005	14317
933.3757	14127
935.7462	14287
938.1162	14282
940.4855	14371
942.8542	14313
945.2242	14373
947.5916	14637
949.9584	14617
952.3266	15026
954.6921	15088
957.0571	15414
959.4233	15421
961.787	15697
964.15	15617
966.5125	15533
968.8742	15206
971.2354	15099
973.5959	14753
975.9559	14514
978.3151	14226
980.6738	14331
983.0338	14188
985.3912	14156
987.7461	14151
990.1022	14220
992.4578	14145
994.8127	13886
997.1689	14284
999.5207	14060
1001.874	14065
1004.226	14299
1006.576	14164
1008.929	14289
1011.28	14120
1013.628	14079
1015.977	14250
1018.324	14130
1020.674	14163
1023.019	14335
1025.366	14212
1027.713	14211
1030.056	14164
1032.399	14408
1034.746	14373
1037.087	14331
1039.431	14307
1041.771	14255
1044.113	14330
1046.454	14314
1048.793	14453
1051.133	14369
1053.471	14379
1055.807	14406
1058.146	14351
1060.483	14307
1062.818	14583
1065.153	14407
1067.489	14444
1069.822	14380
1072.156	14473
1074.488	14496
1076.82	14624
1079.15	14560
1081.48	14557
1083.814	14437
1086.143	14471
1088.471	14622
1090.799	14460
1093.126	14433
1095.452	14624
1097.78	14483
1100.105	14623
1102.43	14493
1104.754	14574
1107.077	14556
1109.4	14435
1111.722	14471
1114.044	14571
1116.365	14434
1118.685	14519
1121.005	14631
1123.324	14656
1125.643	14688
1127.961	14731
1130.278	14561
1132.595	14686
1134.911	14672
1137.226	14586
1139.541	14513
1141.854	14757
1144.167	14523
1146.482	14645
1148.793	14611
1151.105	14691
1153.414	14687
1155.725	14688
1158.033	14622
1160.344	14620
1162.651	14473
1164.959	14629
1167.265	14771
1169.572	14649
1171.878	14769
1174.184	14841
1176.488	14641
1178.79	14851
1181.094	14809
1183.396	14578
1185.699	14595
1188.001	14724
1190.301	14666
1192.6	14751
1194.9	14643
1197.2	14803
1199.497	14571
1201.794	14642
1204.09	14599
1206.387	14796
1208.684	14696
1210.978	14645
1213.272	14760
1215.565	14783
1217.858	14774
1220.15	14860
1222.443	14931
1224.734	14817
1227.024	14958
1229.313	14844
1231.602	14750
1233.892	14892
1236.18	15089
1238.467	15013
1240.754	15000
1243.04	15216
1245.325	14866
1247.612	15018
1249.896	15267
1252.178	15107
1254.461	15357
1256.743	14974
1259.027	15092
1261.308	15180
1263.587	15106
1265.867	15074
1268.146	15262
1270.425	15206
1272.703	15059
1274.981	15060
1277.256	15250
1279.532	14958
1281.808	15086
1284.083	15008
1286.358	15030
1288.63	15220
1290.904	15037
1293.175	15006
1295.449	14971
1297.719	15151
1299.99	14941
1302.259	14853
1304.529	15038
1306.798	14971
1309.065	14959
1311.333	14954
1313.599	14948
1315.866	14991
1318.131	14918
1320.396	14969
1322.66	15065
1324.925	15076
1327.187	14929
1329.448	15069
1331.711	15035
1333.974	15046
1336.234	15025
1338.493	14932
1340.752	15083
1343.01	14917
1345.269	15108
1347.526	15049
1349.784	14905
1352.04	14944
1354.295	15009
1356.552	15089
1358.806	14935
1361.059	14783
1363.312	15182
1365.564	15024
1367.818	15233
1370.069	15179
1372.318	14964
1374.568	15082
1376.817	15232
1379.066	15131
1381.316	15260
1383.564	15336
1385.809	15041
1388.056	15030
1390.301	15236
1392.549	15264
1394.793	15185
1397.036	15440
1399.279	15367
1401.522	15334
1403.763	15181
1406.007	15280
1408.248	15351
1410.487	15319
1412.727	15418
1414.965	15459
1417.205	15495
1419.442	15292
1421.68	15374
1423.915	15342
1426.152	15467
1428.388	15336
1430.623	15547
1432.857	15534
1435.091	15523
1437.323	15494
1439.556	15600
1441.789	15638
1444.019	15534
1446.25	15627
1448.48	15602
1450.708	15515
1452.938	15846
1455.167	15584
1457.394	15674
1459.62	15586
1461.846	15490
1464.073	15500
1466.299	15518
1468.523	15360
1470.746	15635
1472.969	15280
1475.191	15443
1477.415	15468
1479.636	15560
1481.858	15326
1484.078	15283
1486.298	15128
1488.518	15232
1490.736	15179
1492.954	15298
1495.169	15090
1497.386	15249
1499.602	15210
1501.819	15351
1504.034	15009
1506.248	15088
1508.462	15174
1510.675	15150
1512.888	15276
1515.1	15150
1517.311	15034
1519.522	14825
1521.732	15059
1523.942	15226
1526.151	15236
1528.36	15142
1530.566	15105
1532.773	15120
1534.98	15076
1537.187	14938
1539.392	15310
1541.596	15185
1543.801	15237
1546.005	15103
1548.208	15349
1550.411	15277
1552.612	15220
1554.814	15485
1557.013	15448
1559.212	15364
1561.414	15321
1563.612	15314
1565.811	15245
1568.007	15500
1570.203	15470
1572.403	15463
1574.598	15586
1576.792	15437
1578.988	15402
1581.181	15418
1583.376	15506
1585.568	15341
1587.761	15560
1589.952	15525
1592.143	15621
1594.333	15653
1596.524	15580
1598.715	15621
1600.903	15544
1603.091	15621
1605.278	15643
1607.466	15750
1609.652	15723
1611.838	15597
1614.023	15439
1616.207	15659
1618.391	15547
1620.576	15476
1622.759	15850
1624.941	15523
1627.123	15636
1629.304	15525
1631.484	15683
1633.664	15714
1635.844	15741
1638.022	15642
1640.201	15787
1642.38	15902
1644.556	15775
1646.732	15823
1648.908	15690
1651.084	15728
1653.257	15614
1655.433	15706
1657.607	15612
1659.779	15716
1661.951	15691
1664.122	15878
1666.295	15825
1668.467	15798
1670.635	15638
1672.805	15735
1674.973	15841
1677.142	15647
1679.31	15782
1681.478	15733
1683.644	15930
1685.81	15470
1687.975	15692
1690.142	15708
1692.305	15626
1694.468	15671
1696.632	15530
1698.794	15862
1700.957	15560
1703.119	15630
1705.279	15570
1707.439	15462
1709.598	15508
1711.758	15554
1713.917	15422
1716.075	15463
1718.231	15550
1720.388	15516
1722.543	15442
1724.702	15767
1726.856	15503
1729.01	15535
1731.164	15656
1733.317	15400
1735.471	15666
1737.623	15569
1739.774	15546
1741.925	15661
1744.075	15602
1746.225	15590
1748.376	15519
1750.524	15685
1752.672	15446
1754.82	15775
1756.965	15612
1759.113	15528
1761.259	15684
1763.405	15680
1765.549	15865
1767.694	15599
1769.836	15528
1771.981	15696
1774.123	15686
1776.264	15612
1778.405	15755
1780.546	15801
1782.687	15528
1784.827	15732
1786.966	15555
1789.103	15837
1791.242	15887
1793.381	15667
1795.517	15767
1797.653	15736
1799.788	15808
1801.923	15900
1804.057	15775
1806.193	15697
1808.326	15649
1810.457	15858
1812.59	15821
1814.721	15813
1816.855	15826
1818.984	15754
1821.113	15829
1823.244	15532
1825.372	15748
1827.499	15485
1829.63	15735
1831.756	15498
1833.882	15670
1836.007	15453
1838.132	15702
1840.26	15499
1842.384	15470
1844.507	15636
1846.63	15526
1848.752	15555
1850.875	15486
1852.996	15499
1855.118	15429
1857.238	15616
1859.358	15663
1861.477	15494
1863.597	15551
1865.715	15522
1867.832	15541
1869.948	15500
1872.064	15559
1874.181	15567
1876.297	15462
1878.411	15500
1880.526	15558
1882.639	15639
1884.752	15552
1886.865	15647
1888.977	15454
1891.089	15705
1893.2	15681
1895.308	15750
1897.42	15572
1899.53	15366
1901.639	15766
1903.745	15592
1905.853	15781
1907.962	15592
1910.067	15718
1912.174	15732
1914.278	15762
1916.383	15751
1918.486	15640
1920.592	15907
1922.694	15676
1924.797	15755
1926.898	15683
1929	15803
1931.102	15764
1933.203	15664
1935.301	15894
1937.401	15761
1939.499	15713
1941.598	15813
1943.697	15768
1945.793	15724
1947.888	15937
1949.985	15836
1952.08	15660
1954.176	15854
1956.269	15822
1958.364	15433
1960.457	15835
1962.549	15826
1964.642	15739
1966.733	15722
1968.823	15851
1970.913	15723
1973.005	15675
1975.093	15741
1977.184	15675
1979.271	15647
1981.359	15744
1983.446	15659
1985.532	15700
1987.619	15663
1989.705	15552
1991.789	15630
1993.874	15641
1995.956	15748
1998.041	15590
2000.123	15513
2002.206	15555
2004.287	15756
2006.368	15263
2008.449	15488
2010.529	15394
2012.609	15591
2014.688	15533
2016.766	15461
2018.843	15557
2020.922	15524
2022.999	15468
2025.074	15363
2027.15	15617
2029.225	15413
2031.299	15371
2033.375	15520
2035.447	15537
2037.52	15344
2039.592	15686
2041.664	15503
2043.736	15410
2045.807	15557
2047.876	15435
2049.947	15498
2052.015	15502
2054.086	15559
2056.153	15538
2058.221	15523
2060.288	15769
2062.353	15537
2064.42	15497
2066.486	15612
2068.55	15612
2070.614	15422
2072.678	15498
2074.741	15724
2076.805	15606
2078.866	15480
2080.929	15601
2082.99	15697
2085.049	15312
2087.109	15629
2089.17	15453
2091.228	15590
2093.286	15441
2095.344	15687
2097.4	15432
2099.46	15586
2101.516	15574
2103.572	15563
2105.626	15566
2107.679	15518
2109.735	15673
2111.788	15390
2113.841	15542
2115.894	15363
2117.945	15427
2119.997	15564
2122.049	15533
2124.1	15528
2126.148	15463
2128.197	15353
2130.246	15229
2132.296	15452
2134.342	15447
2136.39	15548
2138.437	15426
2140.483	15563
2142.527	15395
2144.574	15339
2146.619	15311
2148.661	15373
2150.705	15333
2152.747	15410
2154.792	15343
2156.832	15657
2158.874	15186
2160.915	15353
2162.954	15411
2164.995	15278
2167.034	15297
2169.072	15199
2171.111	15291
2173.148	15262
2175.186	15326
2177.223	15244
2179.258	15146
2181.294	15403
2183.328	15172
2185.362	15077
2187.398	14913
2189.431	15238
2191.463	14978
2193.495	15159
2195.528	15223
2197.56	15169
2199.59	14963
2201.62	15090
2203.649	15067
2205.678	15007
2207.708	15057
2209.737	15104
2211.764	14929
2213.791	14930
2215.817	15122
2217.843	15137
2219.87	15146
2221.895	14845
2223.919	14865
2225.942	15057
2227.966	14800
2229.988	14844
2232.012	14837
2234.032	15091
2236.054	15007
2238.074	14775
2240.095	15084
2242.116	15017
2244.135	15059
2246.153	14699
2248.171	14805
2250.188	15027
2252.208	14883
2254.223	14821
2256.239	14991
2258.255	15073
2260.269	14962
2262.283	14918
2264.3	14696
2266.312	14828
2268.325	14897
2270.336	14959
2272.349	14890
2274.362	14968
2276.372	14862
2278.383	14933
2280.392	14947
2282.402	14908
2284.409	14933
2286.418	14939
2288.427	14945
2290.433	14870
2292.441	14791
2294.446	15033
2296.453	14982
2298.459	14865
2300.463	14960
2302.466	14772
2304.471	14798
2306.475	14879
2308.477	14830
2310.478	14689
2312.481	14747
2314.481	14839
2316.481	14816
2318.482	14669
2320.482	14670
2322.48	14800
2324.48	14822
2326.478	14689
2328.476	14861
2330.473	14704
2332.469	14611
2334.465	14771
2336.46	14737
2338.454	14505
2340.45	14683
2342.444	14648
2344.437	14610
2346.43	14547
2348.421	14499
2350.414	14564
2352.405	14429
2354.396	14634
2356.386	14487
2358.376	14551
2360.366	14679
2362.355	14466
2364.343	14425
2366.331	14465
2368.317	14618
2370.304	14541
2372.292	14394
2374.278	14430
2376.262	14459
2378.247	14546
2380.23	14428
2382.216	14404
2384.199	14374
2386.181	14453
2388.163	14265
2390.144	14202
2392.127	14393
2394.107	14288
2396.087	14331
2398.066	14309
2400.046	14428
2402.023	14299
2404.004	14309
2405.981	14424
2407.957	14247
2409.934	14262
2411.91	14214
2413.886	14395
2415.862	14141
2417.836	14147
2419.809	14301
2421.784	14132
2423.756	14280
2425.73	14177
2427.701	14123
2429.672	14386
2431.644	14174
2433.615	14204
2435.586	14096
2437.555	14277
2439.523	14318
2441.491	14118
2443.459	14363
2445.428	13987
2447.395	14239
2449.361	14227
2451.327	14133
2453.292	14176
2455.257	14029
2457.223	14290
2459.187	14174
2461.15	13984
2463.113	14077
2465.076	14155
2467.039	14111
2468.999	14024
2470.96	14033
2472.921	13934
2474.881	14140
2476.841	13980
2478.8	14095
2480.759	13952
2482.717	13878
2484.675	14064
2486.63	13986
2488.589	13997
2490.545	13943
2492.5	13911
2494.455	14021
2496.408	13977
2498.364	13904
2500.318	14074
2502.27	13786
2504.223	14001
2506.174	14075
2508.126	13931
2510.078	13721
2512.03	13926
2513.979	13897
2515.927	13877
2517.877	13926
2519.826	13848
2521.775	13867
2523.722	13913
2525.668	13816
2527.616	13719
2529.561	14019
2531.508	13713
2533.452	13811
2535.398	13835
2537.342	13869
2539.284	13787
2541.229	13781
2543.173	13596
2545.114	13654
2547.055	13739
2548.996	13902
2550.938	13873
2552.878	13663
2554.817	13734
2556.756	13805
2558.695	13838
2560.633	13770
2562.572	13933
2564.509	13743
2566.445	13718
2568.382	13694
2570.317	13760
2572.254	13707
2574.189	13829
2576.123	13696
2578.057	13686
2579.99	13795
2581.923	13668
2583.855	13626
2585.788	13699
2587.719	13782
2589.65	13800
2591.579	13808
2593.511	13789
2595.44	13736
2597.37	13619
2599.297	13822
2601.225	13633
2603.153	13797
2605.08	13836
2607.007	13671
2608.932	13830
2610.858	13845
2612.782	13640
2614.709	13746
2616.632	13695
2618.556	13839
2620.478	13758
2622.401	13626
2624.324	13875
2626.247	13622
2628.167	13850
2630.088	13696
2632.008	13586
2633.928	13691
2635.848	13714
2637.766	13679
2639.684	13770
2641.603	13753
2643.519	13626
2645.437	13827
2647.353	13741
2649.27	13739
2651.184	13621
2653.099	13685
2655.014	13601
2656.928	13542
2658.842	13948
2660.755	13665
2662.667	13717
2664.579	13656
2666.491	13477
2668.402	13694
2670.312	13615
2672.222	13755
2674.132	13584
2676.042	13593
2677.951	13634
2679.859	13725
2681.766	13467
2683.674	13568
2685.582	13569
2687.488	13502
2689.392	13512
2691.298	13464
2693.202	13357
2695.107	13407
2697.012	13427
2698.914	13537
2700.817	13403
2702.72	13386
2704.622	13360
2706.524	13459
2708.425	13330
2710.326	13413
2712.225	13479
2714.125	13325
2716.024	13344
2717.923	13346
2719.822	13202
2721.719	13347
2723.616	13137
2725.512	13365
2727.41	13261
2729.305	13415
2731.201	13365
2733.095	13146
2734.99	13381
2736.884	13347
2738.778	13446
2740.67	13448
2742.562	13260
2744.455	13288
2746.346	13309
2748.238	13286
2750.129	13139
2752.018	13134
2753.907	13162
2755.797	13220
2757.687	13195
2759.575	13187
2761.462	13151
2763.349	13131
2765.237	13286
2767.124	13228
2769.009	13262
2770.894	13097
2772.779	13196
2774.663	13151
2776.547	13119
2778.431	13117
2780.314	13062
2782.197	13257
2784.078	13240
2785.96	13019
2787.842	13151
2789.723	13064
2791.603	13081
2793.483	13046
2795.362	13214
2797.241	13117
2799.121	13008
2800.997	13026
2802.874	13053
2804.751	13037
2806.628	13002
2808.506	13168
2810.38	12900
2812.255	12922
2814.13	12822
2816.003	12948
2817.878	12999
2819.752	12952
2821.623	12897
2823.496	12953
2825.368	12935
2827.238	12816
2829.111	12966
2830.98	12963
2832.851	12851
2834.719	12846
2836.589	12928
2838.458	12933
2840.327	12820
2842.193	12938
2844.061	12894
2845.927	12983
2847.794	12873
2849.66	12797
2851.525	13033
2853.39	12981
2855.254	13004
2857.117	12904
2858.983	13035
2860.845	12902
2862.707	12997
2864.569	13050
2866.431	13043
2868.293	13041
2870.154	13050
2872.013	13008
2873.873	13107
2875.733	13192
2877.592	13201
2879.451	13228
2881.309	13444
2883.166	13346
2885.022	13209
2886.879	13534
2888.736	13306
2890.591	13321
2892.446	13335
2894.301	13308
2896.155	13280
2898.009	13237
2899.863	13274
2901.716	13227
2903.568	13409
2905.419	13315
2907.27	13230
2909.123	13291
2910.973	13227
2912.824	13460
2914.673	13429
2916.521	13266
2918.372	13458
2920.22	13422
2922.067	13326
2923.914	13487
2925.761	13519
2927.607	13662
2929.455	13769
2931.301	13686
2933.144	13787
2934.99	13878
2936.833	13740
2938.678	13868
2940.522	13778
2942.364	13899
2944.207	14124
2946.048	14044
2947.891	14231
2949.731	14200
2951.571	13883
2953.412	14128
2955.25	13986
2957.09	13912
2958.93	13786
2960.767	13975
2962.606	13665
2964.443	13588
2966.279	13514
2968.116	13541
2969.953	13451
2971.788	13535
2973.623	13295
2975.457	13139
2977.292	13309
2979.127	13015
2980.959	13296
2982.792	13026
2984.624	13147
2986.455	13131
2988.288	13072
2990.119	12916
2991.949	13015
2993.779	12896
2995.608	12850
2997.439	12837
2999.268	12885
3001.096	12713
3002.923	12731
3004.751	12552
3006.578	12470
3008.406	12508
3010.232	12575
3012.057	12444
3013.883	12329
3015.706	12565
3017.532	12274
3019.356	12332
3021.179	12146
3023.002	12442
3024.823	12189
3026.646	12259
3028.469	12094
3030.289	12013
3032.11	11906
3033.93	12030
3035.749	12093
3037.57	12092
3039.39	12058
3041.207	12007
3043.026	11953
3044.842	12153
3046.661	11930
3048.477	11963
3050.294	11994
3052.109	12037
3053.925	12049
3055.739	11896
3057.555	11977
3059.368	11809
3061.181	11967
3062.995	12038
3064.807	11856
3066.62	11913
3068.433	12015
3070.243	11768
3072.054	11955
3073.865	11722
3075.675	11947
3077.485	11942
3079.293	11734
3081.102	11781
3082.911	11822
3084.719	11595
3086.527	11870
3088.333	11632
3090.139	11745
3091.945	11573
3093.75	11678
3095.557	11468
3097.361	11643
3099.165	11508
3100.969	11614
3102.772	11513
3104.575	11671
3106.379	11496
3108.181	11401
3109.982	11459
3111.783	11457
3113.584	11503
3115.386	11397
3117.186	11515
3118.985	11557
3120.783	11486
3122.582	11440
3124.381	11355
3126.179	11441
3127.975	11421
3129.772	11372
3131.569	11598
3133.365	11245
3135.161	11364
3136.956	11296
3138.751	11347
3140.544	11323
3142.338	11283
3144.132	11334
3145.925	11148
3147.717	11216
3149.509	11256
3151.301	11279
3153.091	11259
3154.884	11109
3156.673	11100
3158.462	11079
3160.252	11042
3162.041	11169
3163.831	11143
3165.618	10956
3167.405	11251
3169.193	11217
3170.979	11147
3172.767	11067
3174.553	11000
3176.338	11179
3178.123	11078
3179.907	11107
3181.692	10922
3183.477	11104
3185.259	11071
3187.042	11100
3188.824	11018
3190.607	10946
3192.389	10991
3194.17	11099
3195.951	10901
3197.73	10838
3199.51	11052
3201.289	10985
3203.07	11035
3204.848	10990
3206.626	10789
3208.403	10882
3210.18	11034
3211.959	10887
3213.735	10841
3215.511	10794
3217.285	10733
3219.06	10875
3220.836	10820
3222.611	10757
3224.384	10923
3226.158	10788
3227.929	10868
3229.702	10767
3231.476	10788
3233.248	10788
3235.018	10816
3236.789	10777
3238.56	10877
3240.33	10667
3242.1	10715
3243.869	10845
3245.637	10736
3247.405	10717
3249.172	10751
3250.941	10789
3252.707	10787
3254.474	10738
3256.24	10774
3258.006	10667
3259.772	10736
3261.537	10742
3263.301	10631
3265.065	10782
3266.828	10873
3268.592	10684
3270.355	10829
3272.117	10732
3273.878	10796
3275.64	10623
3277.401	10752
3279.162	10742
3280.922	10689
3282.682	10626
3284.441	10732
3286.199	10657
3287.959	10782
3289.716	10628
3291.475	10663
3293.232	10581
3294.988	10768
3296.744	10632
3298.501	10778
3300.256	10527
3302.011	10685
3303.766	10667
3305.52	10788
3307.275	10638
3309.028	10544
3310.781	10672
3312.533	10663
3314.285	10604
3316.038	10488
3317.789	10456
3319.54	10518
3321.289	10550
3323.039	10604
3324.789	10526
3326.539	10607
3328.288	10456
3330.035	10547
3331.783	10499
3333.531	10491
3335.28	10485
3337.025	10317
3338.771	10554
3340.518	10417
3342.262	10422
3344.009	10520
3345.753	10460
3347.497	10461
3349.24	10367
3350.983	10381
3352.726	10395
3354.469	10257
3356.212	10281
3357.952	10435
3359.694	10453
3361.434	10368
3363.176	10354
3364.916	10293
3366.654	10260
3368.394	10303
3370.132	10389
3371.871	10197
3373.61	10309
3375.346	10289
3377.083	10293
3378.82	10169
3380.556	10372
3382.292	10290
3384.027	10230
3385.763	10258
3387.497	10157
3389.231	10219
3390.965	10323
3392.698	10206
3394.431	10169
3396.164	10173
3397.896	10311
3399.627	10106
3401.36	10075
3403.09	10159
3404.82	10096
3406.55	10175
3408.279	10056
3410.01	9954
3411.738	10045
3413.467	9953
3415.194	9999
3416.92	10070
3418.647	10008
3420.375	9990
3422.102	9973
3423.827	10044
3425.553	10117
3427.277	10158
3429.003	9947
3430.727	9901
3432.451	9980
3434.173	10067
3435.896	9880
3437.62	9938
3439.343	9878
3441.063	9949
3442.785	9848
3444.505	9867
3446.226	9935
3447.948	9830
3449.666	9754
3451.386	9754
3453.104	9716
3454.823	9955
3456.541	9814
3458.259	9824
3459.976	9708
3461.693	9714
3463.408	9737
3465.125	9587
3466.841	9603
3468.556	9607
3470.271	9504
3471.985	9561
3473.698	9680
3475.414	9692
3477.126	9665
3478.838	9471
3480.55	9502
3482.263	9587
3483.975	9644
3485.686	9714
3487.396	9520
3489.106	9593
3490.817	9406
3492.526	9502
3494.236	9499
3495.944	9468
3497.652	9586
3499.359	9424
3501.066	9438
3502.775	9417
3504.481	9448
3506.187	9534
3507.893	9382
3509.598	9428
3511.304	9462
3513.009	9259
3514.713	9369
3516.417	9365
3518.12	9479
3519.821	9334
3521.525	9323
3523.228	9406
3524.929	9220
3526.631	9258
3528.33	9235
3530.032	9138
3531.733	9315
3533.433	9206
3535.131	9095
3536.83	9098
3538.529	9216
3540.227	9362
3541.925	9170
3543.623	9159
3545.319	9115
3547.016	9250
3548.712	9146
3550.408	9243
3552.103	9194
3553.798	9077
3555.491	9186
3557.188	9152
3558.88	9113
3560.574	9146
3562.266	9085
3563.959	9120
3565.651	9042
3567.343	9105
3569.035	9073
3570.725	9099
3572.415	9179
3574.106	9039
3575.797	9043
3577.485	9076
3579.174	8982
3580.863	9062
3582.551	9001
3584.238	8968
3585.926	8997
3587.613	8957
3589.3	8821
3590.986	8762
3592.671	8793
3594.357	8891
3596.042	8758
3597.726	8870
3599.41	8874
3601.094	8905
3602.778	8813
3604.461	8794
3606.143	8817
3607.825	8785
3609.507	8802
3611.188	8801
3612.87	8831
3614.551	8761
3616.229	8767
3617.909	8710
3619.589	8667
3621.269	8731
3622.948	8764
3624.625	8709
3626.302	8519
3627.98	8677
3629.657	8526
3631.334	8764
3633.01	8581
3634.686	8721
3636.361	8388
3638.036	8517
3639.712	8546
3641.385	8608
3643.06	8586
3644.732	8377
3646.405	8594
3648.08	8567
3649.751	8478
3651.424	8464
3653.094	8589
3654.766	8378
3656.436	8473
3658.106	8473
3659.777	8396
3661.446	8436
3663.115	8398
3664.783	8264
3666.452	8364
3668.121	8514
3669.788	8291
3671.454	8359
3673.121	8401
3674.789	8440
3676.455	8325
3678.12	8346
3679.784	8404
3681.45	8367
3683.114	8334
3684.779	8360
3686.442	8289
3688.105	8233
3689.768	8404
3691.43	8326
3693.093	8319
3694.754	8275
3696.415	8268
3698.076	8243
3699.736	8227
3701.396	8232
3703.057	8249
3704.716	8294
3706.375	8186
3708.034	8376
3709.692	8150
3711.351	8322
3713.008	8219
3714.665	8269
3716.321	8182
3717.977	8280
3719.634	8239
3721.29	8219
3722.945	8187
3724.598	8179
3726.253	8340
3727.907	8304
3729.561	8140
3731.214	7995
3732.867	8184
3734.518	8127
3736.171	8068
3737.824	8109
3739.474	8032
3741.125	7932
3742.775	8061
3744.425	8048
3746.074	8065
3747.725	8112
3749.373	8094
3751.022	8079
3752.669	8037
3754.318	8004
3755.966	8070
3757.612	7948
3759.259	8039
3760.905	7999
3762.55	8094
3764.197	7920
3765.842	7937
3767.486	8056
3769.131	7892
3770.774	7834
3772.417	7818
3774.061	7896
3775.705	7940
3777.347	7960
3778.988	7894
3780.629	7796
3782.271	7967
3783.912	7977
3785.552	7779
3787.192	7904
3788.831	7728
3790.472	7859
3792.112	7816
3793.75	7838
3795.388	7702
3797.024	7632
3798.661	7709
3800.3	7747
3801.936	7702
3803.572	7772
3805.208	7688
3806.844	7837
3808.48	7723
3810.115	7684
3811.748	7647
3813.382	7697
3815.016	7551
3816.649	7684
3818.283	7694
3819.914	7607
3821.547	7704
3823.178	7624
3824.809	7605
3826.441	7707
3828.072	7663
3829.701	7611
3831.331	7577
3832.96	7723
3834.591	7659
3836.219	7397
3837.847	7614
3839.475	7456
3841.102	7624
3842.729	7470
3844.357	7641
3845.984	7441
3847.609	7599
3849.234	7495
3850.86	7519
3852.485	7489
3854.11	7636
3855.734	7460
3857.357	7491
3858.981	7381
3860.603	7470
3862.227	7425
3863.848	7378
3865.471	7386
3867.092	7538
3868.713	7348
3870.334	7463
3871.954	7338
3873.575	7328
3875.194	7239
3876.813	7399
3878.433	7302
3880.051	7396
3881.669	7366
3883.286	7407
3884.904	7332
3886.52	7384
3888.138	7356
3889.754	7274
3891.37	7372
3892.985	7332
3894.6	7380
3896.216	7419
3897.831	7212
3899.444	7282
3901.058	7349
3902.67	7287
3904.283	7258
3905.897	7225
3907.509	7237
3909.121	7196
3910.731	7238
3912.342	7257
3913.954	7226
3915.563	7115
3917.174	7155
3918.783	7134
3920.391	7196
3922.002	7346
3923.611	7318
3925.218	7173
3926.826	7296
3928.432	7168
3930.039	7187
3931.647	7200
3933.253	7175
3934.859	7146
3936.464	7247
3938.068	7168
3939.675	7111
3941.278	7137
3942.883	6994
3944.486	7109
3946.089	7178
3947.692	7035
3949.295	7071
3950.898	7064
3952.499	7037
3954.1	7218
3955.7	7082
3957.303	7082
3958.903	7045
3960.502	7047
3962.101	6988
3963.7	7018
3965.301	6963
3966.899	6907
3968.497	6976
3970.094	6996
3971.691	6936
3973.288	6825
3974.885	6940
3976.481	6877
3978.077	6949
3979.672	6890
3981.267	6985
3982.863	6860
3984.457	7032
3986.051	6744
3987.645	6925
3989.238	6860
3990.831	6966
3992.425	6703
3994.017	6841
3995.607	6986
3997.199	6803
3998.79	6850
4000.382	6890
4001.973	6822
4003.561	6692
4005.151	6669
4006.741	6655
4008.331	6856
4009.918	6700
4011.507	6625
4013.095	6686
4014.681	6722
4016.269	6666
4017.856	6707
4019.443	6723
4021.028	6652
4022.614	6679
4024.199	6675
4025.785	6691
4027.37	6692
4028.953	6577
4030.536	6449
4032.12	6685
4033.704	6576
4035.287	6557
4036.869	6548
4038.45	6446
4040.032	6533
4041.613	6527
4043.195	6593
4044.776	6479
4046.356	6496
4047.935	6516
4049.515	6631
4051.095	6547
4052.674	6431
4054.251	6424
4055.829	6562
4057.406	6392
4058.985	6398
4060.562	6451
4062.139	6421
4063.715	6428
4065.29	6381
4066.865	6480
4068.442	6387
4070.016	6451
4071.59	6408
4073.164	6420
4074.738	6397
4076.312	6411
4077.885	6367
4079.458	6329
4081.03	6315
4082.602	6295
4084.173	6346
4085.745	6295
4087.315	6370
4088.886	6401
4090.456	6434
4092.026	6346
4093.596	6346
4095.165	6317
4096.734	6319
4098.301	6443
4099.869	6352
4101.437	6346
4103.006	6381
4104.572	6231
4106.139	6262
4107.704	6310
4109.27	6182
4110.837	6285
4112.401	6281
4113.966	6204
4115.53	6274
4117.094	6242
4118.659	6221
4120.223	6164
4121.785	6134
4123.347	6149
4124.909	6117
4126.471	6190
4128.034	6077
4129.595	6164
4131.155	6162
4132.716	6094
4134.275	6031
4135.836	6083
4137.395	6123
4138.955	6079
4140.513	6030
4142.071	6072
4143.628	6149
4145.188	6094
4146.745	6088
4148.302	6081
4149.858	5867
4151.414	6115
4152.971	6039
4154.526	6044
4156.081	6024
4157.635	5991
4159.189	5992
4160.745	5976
4162.298	5963
4163.852	5985
4165.405	5949
4166.957	5891
4168.51	5967
4170.063	5872
4171.614	5867
4173.166	5955
4174.717	5958
4176.267	5934
4177.817	5893
4179.368	5840
4180.917	5867
4182.466	5815
4184.016	5805
4185.564	5801
4187.112	5844
4188.66	5828
4190.207	5781
4191.754	5844
4193.301	5799
4194.848	5756
4196.394	5756
4197.94	5824
4199.484	5753
4201.03	5840
4202.575	5706
4204.12	5760
4205.663	5800
4207.207	5733
4208.75	5841
4210.292	5872
4211.836	5748
4213.378	5663
4214.92	5581
4216.46	5692
4218.002	5712
4219.544	5695
4221.083	5736
4222.625	5656
4224.164	5641
4225.703	5667
4227.244	5640
4228.782	5687
4230.32	5739
4231.857	5673
4233.395	5663
4234.933	5677
4236.471	5633
4238.007	5636
4239.542	5603
4241.078	5609
4242.614	5636
4244.15	5641
4245.685	5642
4247.219	5664
4248.753	5673
4250.287	5586
4251.82	5649
4253.354	5626
4254.887	5492
4256.419	5640
4257.951	5497
4259.483	5618
4261.016	5586
4262.547	5512
4264.078	5648
4265.608	5438
4267.137	5537
4268.668	5554
4270.197	5499
4271.727	5472
4273.254	5579
4274.783	5427
4276.311	5512
4277.84	5459
4279.366	5447
4280.894	5463
4282.42	5480
4283.946	5516
4285.473	5404
4286.998	5450
4288.523	5472
4290.047	5400
4291.572	5421
4293.096	5418
4294.622	5356
4296.144	5341
4297.668	5291
4299.19	5393
4300.713	5406
4302.236	5342
4303.758	5364
4305.279	5276
4306.799	5372
4308.321	5324
4309.842	5344
4311.361	5331
4312.882	5336
4314.401	5252
