400.0961	6003
402.6185	5897
405.1424	5818
407.6635	5892
410.1838	5966
412.7035	5896
415.2225	5896
417.7388	5970
420.2585	6035
422.7754	6001
425.2917	6062
427.8072	6136
430.3221	6171
432.8363	6170
435.3498	6201
437.8626	6199
440.3727	6186
442.8841	6238
445.3969	6203
447.907	6256
450.4142	6292
452.9229	6355
455.4289	6271
457.9362	6242
460.4449	6304
462.9488	6182
465.454	6352
467.9566	6228
470.4604	6278
472.9637	6241
475.4662	6402
477.966	6276
480.4671	6382
482.9656	6319
485.4633	6473
487.9645	6316
490.4608	6394
492.9566	6484
495.4536	6557
497.948	6475
500.4437	6527
502.9387	6506
505.431	6629
507.9226	6469
510.4136	6658
512.9079	6536
515.3975	6579
517.8864	6599
520.3746	6721
522.8622	6601
525.3491	6616
527.8394	6539
530.3249	6546
532.8098	6642
535.2939	6476
537.7774	6667
540.2623	6673
542.7444	6578
545.2259	6656
547.7067	6577
550.1868	6656
552.6683	6664
555.147	6688
557.6231	6651
560.1005	6616
562.5773	6660
565.0534	6635
567.5308	6697
570.0056	6750
572.4776	6811
574.951	6835
577.4237	6883
579.8978	6871
582.3671	6812
584.8378	6866
587.3079	6801
589.7773	6846
592.244	6795
594.714	6912
597.1793	6940
599.6461	6805
602.1121	6799
604.5754	6858
607.0421	6841
609.5042	6778
611.9675	6823
614.4282	6806
616.8902	6882
619.3515	6943
621.8122	6897
624.2702	6923
626.7296	6941
629.1863	6842
631.6423	6881
634.1017	6858
636.5563	6860
639.0104	6925
641.4658	6958
643.9185	6915
646.3725	7004
648.8239	6886
651.2766	6939
653.7266	7007
656.176	7076
658.6247	6949
661.0748	7071
663.5242	7078
665.9709	7068
668.417	7105
670.8624	7097
673.3092	6997
675.7533	7091
678.1968	7140
680.6395	7098
683.0817	7147
685.5251	7104
687.9659	7050
690.4061	7196
692.8456	7226
695.2844	7251
697.7226	7093
700.1621	7259
702.599	7126
705.0332	7223
707.4688	7262
709.9036	7242
712.3399	7304
714.7735	7328
717.2044	7247
719.6367	7311
722.0683	7318
724.4993	7275
726.9296	7437
729.3593	7379
731.7883	7491
734.2147	7495
736.6423	7370
739.0714	7388
741.4958	7543
743.9216	7589
746.3447	7535
748.7691	7453
751.1929	7564
753.616	7730
756.0366	7551
758.4584	7720
760.8776	7588
763.2982	7510
765.718	7661
768.1373	7619
770.5539	7706
772.9698	7605
775.3871	7541
777.8038	7643
780.2178	7668
782.6332	7690
785.0459	7591
787.458	7672
789.8714	7720
792.2842	7739
794.6943	7686
797.1038	7734
799.5127	7620
801.9209	7722
804.3324	7695
806.7393	7659
809.1456	7663
811.5513	7712
813.9562	7704
816.3625	7744
818.7663	7751
821.1693	7803
823.5718	7777
825.9735	7698
828.3746	7746
830.7771	7853
833.177	7887
835.5762	7770
837.9747	7696
840.3727	7831
842.772	7854
845.1666	7936
847.5626	7944
849.958	7817
852.3527	7882
854.7488	7922
857.1403	7965
859.5331	7908
861.9253	7967
864.3168	7715
866.7057	7845
869.098	7967
871.4876	7874
873.8746	7855
876.263	7988
878.6487	7903
881.0378	7975
883.4243	8041
885.8081	7911
888.1933	7995
890.5759	7811
892.9598	7896
895.343	7912
897.7256	7960
900.1057	7922
902.4871	8049
904.8659	7904
907.246	7902
909.6254	7858
912.0023	8030
914.3786	8136
916.7562	8196
919.1331	8168
921.5074	8238
923.8831	8298
926.2562	8267
928.6287	8406
931.0005	8210
933.3757	8081
935.7462	8292
938.1162	8175
940.4855	8303
942.8542	8226
945.2242	8402
947.5916	8468
949.9584	8573
952.3266	8626
954.6921	8745
957.0571	9017
959.4233	9150
961.787	9067
964.15	8954
966.5125	8887
968.8742	8778
971.2354	8707
973.5959	8402
975.9559	8447
978.3151	8430
980.6738	8188
983.0338	8266
985.3912	8272
987.7461	8278
990.1022	8181
992.4578	8147
994.8127	8203
997.1689	8162
999.5207	8343
1001.874	8211
1004.226	8314
1006.576	8156
1008.929	8251
1011.28	8174
1013.628	8194
1015.977	8159
1018.324	8196
1020.674	8112
1023.019	8257
1025.366	8110
1027.713	8266
1030.056	8241
1032.399	8292
1034.746	8277
1037.087	8327
1039.431	8199
1041.771	8320
1044.113	8210
1046.454	8301
1048.793	8268
1051.133	8248
1053.471	8289
1055.807	8423
1058.146	8353
1060.483	8182
1062.818	8371
1065.153	8386
1067.489	8366
1069.822	8360
1072.156	8411
1074.488	8502
1076.82	8468
1079.15	8526
1081.48	8302
1083.814	8406
1086.143	8441
1088.471	8463
1090.799	8389
1093.126	8282
1095.452	8371
1097.78	8279
1100.105	8302
1102.43	8412
1104.754	8379
1107.077	8402
1109.4	8452
1111.722	8470
1114.044	8434
1116.365	8551
1118.685	8379
1121.005	8414
1123.324	8503
1125.643	8481
1127.961	8461
1130.278	8441
1132.595	8562
1134.911	8458
1137.226	8536
1139.541	8332
1141.854	8379
1144.167	8466
1146.482	8386
1148.793	8364
1151.105	8420
1153.414	8453
1155.725	8482
1158.033	8403
1160.344	8476
1162.651	8542
1164.959	8506
1167.265	8619
1169.572	8519
1171.878	8383
1174.184	8403
1176.488	8546
1178.79	8564
1181.094	8533
1183.396	8475
1185.699	8525
1188.001	8474
1190.301	8524
1192.6	8370
1194.9	8444
1197.2	8460
1199.497	8476
1201.794	8554
1204.09	8338
1206.387	8484
1208.684	8514
1210.978	8530
1213.272	8541
1215.565	8466
1217.858	8453
1220.15	8535
1222.443	8463
1224.734	8577
1227.024	8515
1229.313	8523
1231.602	8637
1233.892	8591
1236.18	8668
1238.467	8679
1240.754	8544
1243.04	8725
1245.325	8675
1247.612	8839
1249.896	8761
1252.178	8707
1254.461	8799
1256.743	8868
1259.027	8787
1261.308	8671
1263.587	8838
1265.867	8796
1268.146	8731
1270.425	8836
1272.703	8692
1274.981	8873
1277.256	8724
1279.532	8803
1281.808	8729
1284.083	8652
1286.358	8628
1288.63	8716
1290.904	8655
1293.175	8618
1295.449	8751
1297.719	8605
1299.99	8610
1302.259	8644
1304.529	8726
1306.798	8743
1309.065	8597
1311.333	8669
1313.599	8667
1315.866	8720
1318.131	8646
1320.396	8660
1322.66	8668
1324.925	8667
1327.187	8518
1329.448	8790
1331.711	8824
1333.974	8851
1336.234	8649
1338.493	8741
1340.752	8808
1343.01	8779
1345.269	8651
1347.526	8638
1349.784	8741
1352.04	8591
1354.295	8626
1356.552	8737
1358.806	8700
1361.059	8629
1363.312	8621
1365.564	8705
1367.818	8789
1370.069	8781
1372.318	8790
1374.568	8775
1376.817	8858
1379.066	8731
1381.316	8724
1383.564	8868
1385.809	8894
1388.056	8766
1390.301	8884
1392.549	8905
1394.793	8830
1397.036	8937
1399.279	8744
1401.522	9013
1403.763	8999
1406.007	8913
1408.248	8938
1410.487	9049
1412.727	9014
1414.965	9087
1417.205	8953
1419.442	9032
1421.68	8885
1423.915	8856
1426.152	9053
1428.388	9017
1430.623	8897
1432.857	9073
1435.091	9123
1437.323	9110
1439.556	8987
1441.789	9140
1444.019	9117
1446.25	9042
1448.48	9060
1450.708	9141
1452.938	9163
1455.167	9016
1457.394	9064
1459.62	9142
1461.846	9003
1464.073	9271
1466.299	9018
1468.523	8990
1470.746	8936
1472.969	8836
1475.191	8841
1477.415	8987
1479.636	8923
1481.858	8784
1484.078	8789
1486.298	8907
1488.518	8725
1490.736	8789
1492.954	8827
1495.169	8803
1497.386	8784
1499.602	8866
1501.819	8714
1504.034	8824
1506.248	8836
1508.462	8678
1510.675	8767
1512.888	8690
1515.1	8641
1517.311	8642
1519.522	8754
1521.732	8815
1523.942	8734
1526.151	8639
1528.36	8712
1530.566	8693
1532.773	8912
1534.98	8899
1537.187	8827
1539.392	8750
1541.596	8773
1543.801	8966
1546.005	8829
1548.208	8783
1550.411	8823
1552.612	8792
1554.814	8995
1557.013	8649
1559.212	8899
1561.414	9045
1563.612	8835
1565.811	8977
1568.007	8951
1570.203	8869
1572.403	8840
1574.598	9081
1576.792	9000
1578.988	8888
1581.181	8919
1583.376	9048
1585.568	8975
1587.761	8867
1589.952	9047
1592.143	9001
1594.333	9112
1596.524	9048
1598.715	9011
1600.903	9024
1603.091	9178
1605.278	9033
1607.466	9032
1609.652	9013
1611.838	8992
1614.023	9054
1616.207	9042
1618.391	9074
1620.576	9016
1622.759	9141
1624.941	9081
1627.123	9179
1629.304	9062
1631.484	9024
1633.664	9192
1635.844	9042
1638.022	8990
1640.201	9076
1642.38	9148
1644.556	9087
1646.732	9059
1648.908	8973
1651.084	9136
1653.257	9258
1655.433	9143
1657.607	9171
1659.779	9177
1661.951	8897
1664.122	9076
1666.295	9137
1668.467	9115
1670.635	9111
1672.805	9072
1674.973	9040
1677.142	9178
1679.31	9196
1681.478	9146
1683.644	9140
1685.81	9136
1687.975	9133
1690.142	9119
1692.305	9071
1694.468	9098
1696.632	9060
1698.794	8982
1700.957	9155
1703.119	9044
1705.279	9057
1707.439	8980
1709.598	8993
1711.758	9088
1713.917	8992
1716.075	9079
1718.231	8969
1720.388	8886
1722.543	9053
1724.702	9101
1726.856	9084
1729.01	9033
1731.164	8935
1733.317	9051
1735.471	9084
1737.623	8887
1739.774	8977
1741.925	8996
1744.075	9045
1746.225	8943
1748.376	9035
1750.524	8866
1752.672	9077
1754.82	9083
1756.965	9109
1759.113	9046
1761.259	8973
1763.405	9094
1765.549	9048
1767.694	9061
1769.836	9082
1771.981	9064
1774.123	9062
1776.264	9043
1778.405	9042
1780.546	9149
1782.687	9052
1784.827	9060
1786.966	9175
1789.103	9033
1791.242	9066
1793.381	9204
1795.517	9124
1797.653	8980
1799.788	9059
1801.923	9300
1804.057	9073
1806.193	9146
1808.326	9148
1810.457	9057
1812.59	9009
1814.721	9056
1816.855	9048
1818.984	9160
1821.113	9053
1823.244	9111
1825.372	9095
1827.499	9037
1829.63	8961
1831.756	9083
1833.882	8882
1836.007	8976
1838.132	8978
1840.26	9136
1842.384	8963
1844.507	8977
1846.63	9009
1848.752	9101
1850.875	8931
1852.996	8880
1855.118	8915
1857.238	8980
1859.358	8949
1861.477	9012
1863.597	8972
1865.715	8939
1867.832	8924
1869.948	8973
1872.064	8952
1874.181	8920
1876.297	9005
1878.411	8962
1880.526	8964
1882.639	9028
1884.752	9028
1886.865	9041
1888.977	9054
1891.089	8910
1893.2	9055
1895.308	9035
1897.42	9056
1899.53	9004
1901.639	9057
1903.745	9035
1905.853	9037
1907.962	9078
1910.067	8971
1912.174	9039
1914.278	9136
1916.383	9091
1918.486	9114
1920.592	9075
1922.694	9180
1924.797	9123
1926.898	8996
1929	9213
1931.102	9176
1933.203	9143
1935.301	9213
1937.401	9042
1939.499	9090
1941.598	9099
1943.697	9183
1945.793	9213
1947.888	9115
1949.985	9152
1952.08	9106
1954.176	9007
1956.269	9248
1958.364	9107
1960.457	9163
1962.549	9200
1964.642	8974
1966.733	9158
1968.823	9119
1970.913	9116
1973.005	9142
1975.093	8880
1977.184	9014
1979.271	9021
1981.359	9115
1983.446	9198
1985.532	9014
1987.619	9042
1989.705	8984
1991.789	8989
1993.874	9117
1995.956	8971
1998.041	9033
2000.123	8956
2002.206	8969
2004.287	8872
2006.368	8958
2008.449	8945
2010.529	9016
2012.609	8913
2014.688	8890
2016.766	8930
2018.843	8993
2020.922	8929
2022.999	8881
2025.074	8938
2027.15	9066
2029.225	8835
2031.299	8953
2033.375	8928
2035.447	8890
2037.52	8913
2039.592	9017
2041.664	9025
2043.736	9083
2045.807	8952
2047.876	8832
2049.947	8997
2052.015	8847
2054.086	9031
2056.153	8960
2058.221	8935
2060.288	9015
2062.353	9015
2064.42	8956
2066.486	9007
2068.55	8963
2070.614	8932
2072.678	8973
2074.741	8896
2076.805	8926
2078.866	8890
2080.929	8991
2082.99	8914
2085.049	8957
2087.109	8993
2089.17	8987
2091.228	8930
2093.286	8888
2095.344	8973
2097.4	8910
2099.46	8963
2101.516	8900
2103.572	9136
2105.626	9040
2107.679	8871
2109.735	8922
2111.788	9000
2113.841	8985
2115.894	8979
2117.945	8967
2119.997	9010
2122.049	8886
2124.1	8871
2126.148	8936
2128.197	8872
2130.246	9018
2132.296	9048
2134.342	8883
2136.39	8932
2138.437	8931
2140.483	8906
2142.527	8849
2144.574	8872
2146.619	8844
2148.661	8938
2150.705	8852
2152.747	8865
2154.792	8848
2156.832	8919
2158.874	8866
2160.915	8821
2162.954	8844
2164.995	8800
2167.034	8842
2169.072	8795
2171.111	8857
2173.148	8903
2175.186	8768
2177.223	8659
2179.258	8823
2181.294	8837
2183.328	8840
2185.362	8668
2187.398	8762
2189.431	8798
2191.463	8789
2193.495	8817
2195.528	8703
2197.56	8682
2199.59	8598
2201.62	8665
2203.649	8645
2205.678	8760
2207.708	8701
2209.737	8686
2211.764	8661
2213.791	8605
2215.817	8604
2217.843	8701
2219.87	8848
2221.895	8704
2223.919	8706
2225.942	8670
2227.966	8686
2229.988	8715
2232.012	8543
2234.032	8777
2236.054	8649
2238.074	8560
2240.095	8612
2242.116	8509
2244.135	8664
2246.153	8533
2248.171	8588
2250.188	8713
2252.208	8649
2254.223	8650
2256.239	8656
2258.255	8742
2260.269	8755
2262.283	8639
2264.3	8632
2266.312	8603
2268.325	8786
2270.336	8642
2272.349	8529
2274.362	8728
2276.372	8630
2278.383	8683
2280.392	8569
2282.402	8632
2284.409	8594
2286.418	8602
2288.427	8630
2290.433	8642
2292.441	8668
2294.446	8667
2296.453	8694
2298.459	8647
2300.463	8602
2302.466	8560
2304.471	8615
2306.475	8658
2308.477	8662
2310.478	8580
2312.481	8554
2314.481	8641
2316.481	8502
2318.482	8639
2320.482	8535
2322.48	8556
2324.48	8578
2326.478	8498
2328.476	8567
2330.473	8525
2332.469	8584
2334.465	8559
2336.46	8609
2338.454	8322
2340.45	8313
2342.444	8602
2344.437	8474
2346.43	8395
2348.421	8497
2350.414	8499
2352.405	8482
2354.396	8575
2356.386	8327
2358.376	8445
2360.366	8451
2362.355	8340
2364.343	8418
2366.331	8452
2368.317	8377
2370.304	8369
2372.292	8371
2374.278	8194
2376.262	8598
2378.247	8276
2380.23	8462
2382.216	8309
2384.199	8368
2386.181	8379
2388.163	8320
2390.144	8222
2392.127	8371
2394.107	8281
2396.087	8306
2398.066	8263
2400.046	8221
2402.023	8173
2404.004	8477
2405.981	8392
2407.957	8355
2409.934	8228
2411.91	8166
2413.886	8253
2415.862	8363
2417.836	8260
2419.809	8191
2421.784	8332
2423.756	8363
2425.73	8170
2427.701	8229
2429.672	8285
2431.644	8299
2433.615	8261
2435.586	8169
2437.555	8447
2439.523	8240
2441.491	8264
2443.459	8205
2445.428	8297
2447.395	8163
2449.361	8334
2451.327	8360
2453.292	8195
2455.257	8209
2457.223	8307
2459.187	8232
2461.15	8184
2463.113	8253
2465.076	8092
2467.039	8169
2468.999	8137
2470.96	8027
2472.921	8194
2474.881	8246
2476.841	8139
2478.8	8149
2480.759	8262
2482.717	8114
2484.675	8172
2486.63	8026
2488.589	8201
2490.545	8149
2492.5	7984
2494.455	8074
2496.408	7968
2498.364	8157
2500.318	8039
2502.27	8001
2504.223	7957
2506.174	8139
2508.126	8043
2510.078	7951
2512.03	8145
2513.979	8127
2515.927	8132
2517.877	8140
2519.826	7986
2521.775	8089
2523.722	8048
2525.668	8078
2527.616	8077
2529.561	8147
2531.508	7963
2533.452	8049
2535.398	8029
2537.342	7978
2539.284	8023
2541.229	8027
2543.173	8060
2545.114	8155
2547.055	7962
2548.996	8029
2550.938	7836
2552.878	8013
2554.817	8027
2556.756	8025
2558.695	8015
2560.633	7896
2562.572	8085
2564.509	8200
2566.445	7956
2568.382	8026
2570.317	8069
2572.254	7950
2574.189	8010
2576.123	7948
2578.057	7981
2579.99	7975
2581.923	8046
2583.855	7974
2585.788	8057
2587.719	8008
2589.65	8042
2591.579	8139
2593.511	7980
2595.44	7842
2597.37	7935
2599.297	7881
2601.225	7975
2603.153	7910
2605.08	7906
2607.007	7986
2608.932	8014
2610.858	7953
2612.782	7929
2614.709	8103
2616.632	7932
2618.556	8022
2620.478	8022
2622.401	7973
2624.324	7884
2626.247	7992
2628.167	8053
2630.088	7999
2632.008	8103
2633.928	8134
2635.848	7956
2637.766	7981
2639.684	7961
2641.603	8054
2643.519	8033
2645.437	7885
2647.353	7991
2649.27	7984
2651.184	8068
2653.099	7991
2655.014	7940
2656.928	7988
2658.842	7946
2660.755	7868
2662.667	7891
2664.579	7928
2666.491	7976
2668.402	7931
2670.312	7891
2672.222	7913
2674.132	7918
2676.042	7961
2677.951	7976
2679.859	7911
2681.766	7959
2683.674	7790
2685.582	7908
2687.488	7703
2689.392	8013
2691.298	7830
2693.202	7876
2695.107	7877
2697.012	7770
2698.914	7989
2700.817	7777
2702.72	7739
2704.622	7884
2706.524	7812
2708.425	7748
2710.326	7808
2712.225	7796
2714.125	7860
2716.024	7842
2717.923	7749
2719.822	7764
2721.719	7878
2723.616	7771
2725.512	7756
2727.41	7780
2729.305	7853
2731.201	7722
2733.095	7770
2734.99	7809
2736.884	7698
2738.778	7668
2740.67	7813
2742.562	7634
2744.455	7580
2746.346	7686
2748.238	7683
2750.129	7770
2752.018	7752
2753.907	7589
2755.797	7664
2757.687	7863
2759.575	7694
2761.462	7709
2763.349	7699
2765.237	7698
2767.124	7640
2769.009	7776
2770.894	7771
2772.779	7641
2774.663	7651
2776.547	7568
2778.431	7735
2780.314	7736
2782.197	7754
2784.078	7687
2785.96	7667
2787.842	7530
2789.723	7660
2791.603	7688
2793.483	7625
2795.362	7620
2797.241	7587
2799.121	7581
2800.997	7591
2802.874	7660
2804.751	7636
2806.628	7579
2808.506	7628
2810.38	7620
2812.255	7625
2814.13	7622
2816.003	7651
2817.878	7554
2819.752	7642
2821.623	7642
2823.496	7479
2825.368	7619
2827.238	7446
2829.111	7637
2830.98	7632
2832.851	7611
2834.719	7610
2836.589	7458
2838.458	7477
2840.327	7575
2842.193	7494
2844.061	7668
2845.927	7575
2847.794	7569
2849.66	7579
2851.525	7593
2853.39	7647
2855.254	7593
2857.117	7659
2858.983	7662
2860.845	7664
2862.707	7577
2864.569	7585
2866.431	7593
2868.293	7767
2870.154	7547
2872.013	7653
2873.873	7804
2875.733	7784
2877.592	7869
2879.451	7842
2881.309	7902
2883.166	7865
2885.022	7851
2886.879	7917
2888.736	8021
2890.591	8086
2892.446	8033
2894.301	7877
2896.155	8114
2898.009	7968
2899.863	7921
2901.716	7855
2903.568	7878
2905.419	7848
2907.27	7974
2909.123	7894
2910.973	7815
2912.824	8050
2914.673	7943
2916.521	8029
2918.372	8092
2920.22	8194
2922.067	7938
2923.914	8174
2925.761	8047
2927.607	8244
2929.455	8228
2931.301	8298
2933.144	8245
2934.99	8307
2936.833	8399
2938.678	8354
2940.522	8353
2942.364	8550
2944.207	8515
2946.048	8625
2947.891	8587
2949.731	8637
2951.571	8383
2953.412	8584
2955.25	8588
2957.09	8375
2958.93	8343
2960.767	8485
2962.606	8331
2964.443	8317
2966.279	8264
2968.116	8106
2969.953	8105
2971.788	8007
2973.623	7927
2975.457	7853
2977.292	7950
2979.127	7799
2980.959	7938
2982.792	7706
2984.624	7791
2986.455	7753
2988.288	7858
2990.119	7708
2991.949	7638
2993.779	7655
2995.608	7591
2997.439	7592
2999.268	7586
3001.096	7577
3002.923	7494
3004.751	7603
3006.578	7378
3008.406	7355
3010.232	7269
3012.057	7260
3013.883	7277
3015.706	7292
3017.532	7207
3019.356	7238
3021.179	7180
3023.002	7176
3024.823	7141
3026.646	7191
3028.469	7218
3030.289	7156
3032.11	7054
3033.93	7289
3035.749	7095
3037.57	7026
3039.39	7140
3041.207	7192
3043.026	7146
3044.842	7101
3046.661	7024
3048.477	7232
3050.294	6964
3052.109	6902
3053.925	6919
3055.739	6968
3057.555	7069
3059.368	7044
3061.181	6888
3062.995	6969
3064.807	6964
3066.62	6980
3068.433	6958
3070.243	6973
3072.054	6993
3073.865	6978
3075.675	6912
3077.485	6973
3079.293	6897
3081.102	6910
3082.911	6806
3084.719	6918
3086.527	6917
3088.333	6872
3090.139	6914
3091.945	6806
3093.75	6817
3095.557	6763
3097.361	6853
3099.165	6806
3100.969	6769
3102.772	6922
3104.575	6778
3106.379	6678
3108.181	6821
3109.982	6811
3111.783	6603
3113.584	6822
3115.386	6683
3117.186	6722
3118.985	6728
3120.783	6785
3122.582	6694
3124.381	6621
3126.179	6629
3127.975	6597
3129.772	6679
3131.569	6745
3133.365	6645
3135.161	6659
3136.956	6634
3138.751	6701
3140.544	6583
3142.338	6557
3144.132	6537
3145.925	6698
3147.717	6653
3149.509	6472
3151.301	6678
3153.091	6562
3154.884	6546
3156.673	6634
3158.462	6593
3160.252	6577
3162.041	6522
3163.831	6664
3165.618	6500
3167.405	6594
3169.193	6618
3170.979	6566
3172.767	6454
3174.553	6358
3176.338	6425
3178.123	6515
3179.907	6530
3181.692	6509
3183.477	6500
3185.259	6394
3187.042	6429
3188.824	6451
3190.607	6497
3192.389	6521
3194.17	6381
3195.951	6402
3197.73	6417
3199.51	6480
3201.289	6426
3203.07	6440
3204.848	6446
3206.626	6419
3208.403	6448
3210.18	6410
3211.959	6416
3213.735	6358
3215.511	6360
3217.285	6362
3219.06	6406
3220.836	6424
3222.611	6320
3224.384	6469
3226.158	6382
3227.929	6369
3229.702	6449
3231.476	6275
3233.248	6448
3235.018	6401
3236.789	6425
3238.56	6415
3240.33	6315
3242.1	6456
3243.869	6311
3245.637	6230
3247.405	6410
3249.172	6442
3250.941	6382
3252.707	6418
3254.474	6381
3256.24	6289
3258.006	6291
3259.772	6281
3261.537	6315
3263.301	6339
3265.065	6312
3266.828	6407
3268.592	6299
3270.355	6375
3272.117	6271
3273.878	6395
3275.64	6354
3277.401	6321
3279.162	6236
3280.922	6225
3282.682	6372
3284.441	6404
3286.199	6308
3287.959	6344
3289.716	6251
3291.475	6289
3293.232	6336
3294.988	6264
3296.744	6308
3298.501	6215
3300.256	6171
3302.011	6320
3303.766	6294
3305.52	6251
3307.275	6319
3309.028	6330
3310.781	6336
3312.533	6209
3314.285	6206
3316.038	6260
3317.789	6259
3319.54	6189
3321.289	6237
3323.039	6271
3324.789	6257
3326.539	6242
3328.288	6383
3330.035	6147
3331.783	6161
3333.531	6244
3335.28	6180
3337.025	6197
3338.771	6180
3340.518	6078
3342.262	6134
3344.009	6164
3345.753	6186
3347.497	6045
3349.24	6163
3350.983	6283
3352.726	6096
3354.469	6130
3356.212	6204
3357.952	6087
3359.694	6085
3361.434	6201
3363.176	6065
3364.916	6244
3366.654	6138
3368.394	6151
3370.132	6117
3371.871	6056
3373.61	6151
3375.346	6055
3377.083	6021
3378.82	6040
3380.556	6129
3382.292	6024
3384.027	6062
3385.763	6000
3387.497	5969
3389.231	6087
3390.965	5994
3392.698	5948
3394.431	5997
3396.164	6051
3397.896	6099
3399.627	5964
3401.36	5926
3403.09	6028
3404.82	5945
3406.55	5993
3408.279	5982
3410.01	5915
3411.738	5959
3413.467	5807
3415.194	5907
3416.92	5925
3418.647	5894
3420.375	5850
3422.102	5876
3423.827	5877
3425.553	5881
3427.277	5902
3429.003	5799
3430.727	5896
3432.451	5964
3434.173	5941
3435.896	5909
3437.62	5906
3439.343	5895
3441.063	5863
3442.785	5791
3444.505	5821
3446.226	5866
3447.948	5815
3449.666	5672
3451.386	5773
3453.104	5740
3454.823	5852
3456.541	5787
3458.259	5751
3459.976	5722
3461.693	5726
3463.408	5781
3465.125	5685
3466.841	5662
3468.556	5686
3470.271	5689
3471.985	5706
3473.698	5667
3475.414	5710
3477.126	5626
3478.838	5665
3480.55	5713
3482.263	5666
3483.975	5630
3485.686	5665
3487.396	5500
3489.106	5618
3490.817	5573
3492.526	5593
3494.236	5569
3495.944	5625
3497.652	5554
3499.359	5609
3501.066	5553
3502.775	5538
3504.481	5551
3506.187	5531
3507.893	5553
3509.598	5448
3511.304	5440
3513.009	5484
3514.713	5579
3516.417	5498
3518.12	5562
3519.821	5613
3521.525	5560
3523.228	5475
3524.929	5526
3526.631	5465
3528.33	5477
3530.032	5488
3531.733	5493
3533.433	5383
3535.131	5386
3536.83	5443
3538.529	5437
3540.227	5425
3541.925	5435
3543.623	5540
3545.319	5366
3547.016	5413
3548.712	5447
3550.408	5454
3552.103	5346
3553.798	5398
3555.491	5452
3557.188	5347
3558.88	5347
3560.574	5422
3562.266	5412
3563.959	5364
3565.651	5329
3567.343	5360
3569.035	5181
3570.725	5364
3572.415	5339
3574.106	5395
3575.797	5381
3577.485	5299
3579.174	5342
3580.863	5321
3582.551	5338
3584.238	5210
3585.926	5240
3587.613	5305
3589.3	5173
3590.986	5143
3592.671	5185
3594.357	5277
3596.042	5224
3597.726	5288
3599.41	5228
3601.094	5154
3602.778	5181
3604.461	5145
3606.143	5207
3607.825	5210
3609.507	5117
3611.188	5177
3612.87	5017
3614.551	5198
3616.229	5185
3617.909	5168
3619.589	5159
3621.269	5135
3622.948	5066
3624.625	5091
3626.302	5042
3627.98	5094
3629.657	5144
3631.334	5059
3633.01	5165
3634.686	5084
3636.361	5016
3638.036	5046
3639.712	5113
3641.385	5020
3643.06	4986
3644.732	5007
3646.405	5033
3648.08	5031
3649.751	5089
3651.424	4989
3653.094	5036
3654.766	4962
3656.436	5083
3658.106	5025
3659.777	4952
3661.446	4970
3663.115	4970
3664.783	5012
3666.452	5019
3668.121	4933
3669.788	4903
3671.454	4884
3673.121	4914
3674.789	4990
3676.455	4919
3678.12	4949
3679.784	4798
3681.45	4890
3683.114	4821
3684.779	4838
3686.442	4953
3688.105	4861
3689.768	4839
3691.43	4894
3693.093	4933
3694.754	4829
3696.415	4917
3698.076	4935
3699.736	4928
3701.396	4918
3703.057	4834
3704.716	4807
3706.375	4752
3708.034	4802
3709.692	4837
3711.351	4877
3713.008	4786
3714.665	4802
3716.321	4850
3717.977	4881
3719.634	4844
3721.29	4811
3722.945	4756
3724.598	4705
3726.253	4753
3727.907	4815
3729.561	4834
3731.214	4721
3732.867	4719
3734.518	4822
3736.171	4786
3737.824	4687
3739.474	4725
3741.125	4710
3742.775	4797
3744.425	4809
3746.074	4727
3747.725	4754
3749.373	4691
3751.022	4719
3752.669	4699
3754.318	4710
3755.966	4748
3757.612	4642
3759.259	4696
3760.905	4735
3762.55	4657
3764.197	4671
3765.842	4627
3767.486	4676
3769.131	4655
3770.774	4726
3772.417	4597
3774.061	4599
3775.705	4629
3777.347	4705
3778.988	4565
3780.629	4672
3782.271	4658
3783.912	4485
3785.552	4705
3787.192	4557
3788.831	4586
3790.472	4561
3792.112	4672
3793.75	4571
3795.388	4564
3797.024	4623
3798.661	4517
3800.3	4630
3801.936	4601
3803.572	4559
3805.208	4523
3806.844	4429
3808.48	4549
3810.115	4486
3811.748	4573
3813.382	4461
3815.016	4620
3816.649	4489
3818.283	4425
3819.914	4490
3821.547	4492
3823.178	4504
3824.809	4456
3826.441	4526
3828.072	4460
3829.701	4561
3831.331	4566
3832.96	4577
3834.591	4473
3836.219	4478
3837.847	4401
3839.475	4449
3841.102	4396
3842.729	4461
3844.357	4360
3845.984	4492
3847.609	4377
3849.234	4421
3850.86	4426
3852.485	4349
3854.11	4392
3855.734	4407
3857.357	4461
3858.981	4324
3860.603	4407
3862.227	4405
3863.848	4451
3865.471	4319
3867.092	4397
3868.713	4386
3870.334	4343
3871.954	4298
3873.575	4323
3875.194	4363
3876.813	4404
3878.433	4298
3880.051	4322
3881.669	4384
3883.286	4354
3884.904	4282
3886.52	4423
3888.138	4292
3889.754	4245
3891.37	4447
3892.985	4329
3894.6	4280
3896.216	4410
3897.831	4302
3899.444	4346
3901.058	4362
3902.67	4345
3904.283	4290
3905.897	4273
3907.509	4320
3909.121	4258
3910.731	4307
3912.342	4243
3913.954	4249
3915.563	4326
3917.174	4195
3918.783	4276
3920.391	4299
3922.002	4149
3923.611	4231
3925.218	4238
3926.826	4285
3928.432	4301
3930.039	4238
3931.647	4283
3933.253	4243
3934.859	4210
3936.464	4205
3938.068	4292
3939.675	4225
3941.278	4230
3942.883	4233
3944.486	4192
3946.089	4171
3947.692	4151
3949.295	4273
3950.898	4188
3952.499	4111
3954.1	4197
3955.7	4122
3957.303	4200
3958.903	4211
3960.502	4142
3962.101	4174
3963.7	4127
3965.301	4223
3966.899	4172
3968.497	4249
3970.094	4205
3971.691	4179
3973.288	4068
3974.885	4217
3976.481	4146
3978.077	4149
3979.672	4181
3981.267	4048
3982.863	4088
3984.457	4122
3986.051	4103
3987.645	4056
3989.238	4206
3990.831	4059
3992.425	4039
3994.017	4026
3995.607	3957
3997.199	4074
3998.79	3966
4000.382	4047
4001.973	3993
4003.561	3983
4005.151	3980
4006.741	3920
4008.331	3976
4009.918	4000
4011.507	3900
4013.095	3947
4014.681	3966
4016.269	3977
4017.856	3986
4019.443	3993
4021.028	3860
4022.614	3945
4024.199	3950
4025.785	3955
4027.37	3955
4028.953	3929
4030.536	3965
4032.12	3900
4033.704	3890
4035.287	3921
4036.869	3945
4038.45	3833
4040.032	3847
4041.613	3854
4043.195	3871
4044.776	3862
4046.356	3912
4047.935	3931
4049.515	3875
4051.095	3839
4052.674	3837
4054.251	3867
4055.829	3906
4057.406	3868
4058.985	3741
4060.562	3835
4062.139	3799
4063.715	3717
4065.29	3868
4066.865	3818
4068.442	3744
4070.016	3824
4071.59	3851
4073.164	3809
4074.738	3821
4076.312	3756
4077.885	3793
4079.458	3832
4081.03	3703
4082.602	3864
4084.173	3695
4085.745	3698
4087.315	3763
4088.886	3800
4090.456	3756
4092.026	3767
4093.596	3775
4095.165	3753
4096.734	3723
4098.301	3750
4099.869	3679
4101.437	3770
4103.006	3715
4104.572	3784
4106.139	3755
4107.704	3735
4109.27	3742
4110.837	3670
4112.401	3694
4113.966	3677
4115.53	3746
4117.094	3637
4118.659	3730
4120.223	3750
4121.785	3697
4123.347	3697
4124.909	3741
4126.471	3685
4128.034	3697
4129.595	3637
4131.155	3604
4132.716	3627
4134.275	3740
4135.836	3676
4137.395	3666
4138.955	3568
4140.513	3663
4142.071	3606
4143.628	3694
4145.188	3621
4146.745	3631
4148.302	3581
4149.858	3576
4151.414	3567
4152.971	3616
4154.526	3545
4156.081	3580
4157.635	3527
4159.189	3570
4160.745	3496
4162.298	3515
4163.852	3548
4165.405	3577
4166.957	3520
4168.51	3542
4170.063	3523
4171.614	3503
4173.166	3563
4174.717	3486
4176.267	3470
4177.817	3463
4179.368	3467
4180.917	3483
4182.466	3490
4184.016	3500
4185.564	3451
4187.112	3531
4188.66	3449
4190.207	3397
4191.754	3455
4193.301	3464
4194.848	3405
4196.394	3453
4197.94	3509
4199.484	3514
4201.03	3374
4202.575	3454
4204.12	3488
4205.663	3404
4207.207	3441
4208.75	3488
4210.292	3424
4211.836	3471
4213.378	3447
4214.92	3468
4216.46	3424
4218.002	3422
4219.544	3363
4221.083	3369
4222.625	3357
4224.164	3317
4225.703	3422
4227.244	3405
4228.782	3347
4230.32	3370
4231.857	3433
4233.395	3329
4234.933	3375
4236.471	3248
4238.007	3330
4239.542	3343
4241.078	3340
4242.614	3407
4244.15	3288
4245.685	3403
4247.219	3335
4248.753	3338
4250.287	3299
4251.82	3391
4253.354	3421
4254.887	3353
4256.419	3398
4257.951	3328
4259.483	3337
4261.016	3371
4262.547	3229
4264.078	3290
4265.608	3322
4267.137	3266
4268.668	3319
4270.197	3308
4271.727	3247
4273.254	3268
4274.783	3330
4276.311	3307
4277.84	3252
4279.366	3340
4280.894	3212
4282.42	3247
4283.946	3261
4285.473	3285
4286.998	3202
4288.523	3241
4290.047	3321
4291.572	3235
4293.096	3294
4294.622	3228
4296.144	3297
4297.668	3215
4299.19	3263
4300.713	3203
4302.236	3166
4303.758	3205
4305.279	3224
4306.799	3237
4308.321	3152
4309.842	3163
4311.361	3194
4312.882	3207
4314.401	3206
