400.0961	7149
402.6185	7256
405.1424	7094
407.6635	7152
410.1838	7146
412.7035	7239
415.2225	7373
417.7388	7374
420.2585	7405
422.7754	7510
425.2917	7451
427.8072	7595
430.3221	7609
432.8363	7542
435.3498	7556
437.8626	7628
440.3727	7486
442.8841	7668
445.3969	7660
447.907	7673
450.4142	7625
452.9229	7751
455.4289	7652
457.9362	7654
460.4449	7811
462.9488	7631
465.454	7714
467.9566	7675
470.4604	7697
472.9637	7752
475.4662	7733
477.966	7662
480.4671	7648
482.9656	7683
485.4633	7775
487.9645	7844
490.4608	7927
492.9566	7899
495.4536	7930
497.948	7998
500.4437	7896
502.9387	7815
505.431	7987
507.9226	8001
510.4136	8038
512.9079	7938
515.3975	8043
517.8864	7994
520.3746	8084
522.8622	7948
525.3491	8002
527.8394	7920
530.3249	8017
532.8098	8148
535.2939	8082
537.7774	8125
540.2623	8114
542.7444	8171
545.2259	8093
547.7067	8168
550.1868	8185
552.6683	8147
555.147	8006
557.6231	8076
560.1005	8103
562.5773	8242
565.0534	8148
567.5308	8231
570.0056	8184
572.4776	8253
574.951	8314
577.4237	8415
579.8978	8474
582.3671	8382
584.8378	8394
587.3079	8463
589.7773	8417
592.244	8599
594.714	8227
597.1793	8363
599.6461	8404
602.1121	8370
604.5754	8309
607.0421	8383
609.5042	8410
611.9675	8383
614.4282	8280
616.8902	8473
619.3515	8362
621.8122	8419
624.2702	8335
626.7296	8226
629.1863	8294
631.6423	8444
634.1017	8332
636.5563	8426
639.0104	8354
641.4658	8298
643.9185	8290
646.3725	8405
648.8239	8572
651.2766	8422
653.7266	8415
656.176	8660
658.6247	8524
661.0748	8517
663.5242	8504
665.9709	8670
668.417	8625
670.8624	8749
673.3092	8700
675.7533	8595
678.1968	8595
680.6395	8702
683.0817	8657
685.5251	8691
687.9659	8626
690.4061	8804
692.8456	8659
695.2844	8695
697.7226	8805
700.1621	8778
702.599	8714
705.0332	8866
707.4688	8872
709.9036	8971
712.3399	8760
714.7735	8917
717.2044	8801
719.6367	8930
722.0683	8859
724.4993	8801
726.9296	8963
729.3593	8978
731.7883	8960
734.2147	9038
736.6423	9017
739.0714	9105
741.4958	9133
743.9216	9142
746.3447	9087
748.7691	9189
751.1929	9219
753.616	9263
756.0366	9305
758.4584	9269
760.8776	9268
763.2982	9358
765.718	9246
768.1373	9340
770.5539	9290
772.9698	9458
775.3871	9272
777.8038	9312
780.2178	9360
782.6332	9357
785.0459	9374
787.458	9282
789.8714	9315
792.2842	9510
794.6943	9257
797.1038	9412
799.5127	9417
801.9209	9490
804.3324	9448
806.7393	9441
809.1456	9445
811.5513	9427
813.9562	9401
816.3625	9425
818.7663	9437
821.1693	9562
823.5718	9686
825.9735	9470
828.3746	9316
830.7771	9371
833.177	9403
835.5762	9590
837.9747	9530
840.3727	9696
842.772	9666
845.1666	9627
847.5626	9703
849.958	9698
852.3527	9661
854.7488	9575
857.1403	9785
859.5331	9810
861.9253	9656
864.3168	9721
866.7057	9684
869.098	9603
871.4876	9738
873.8746	9765
876.263	9769
878.6487	9625
881.0378	9582
883.4243	9596
885.8081	9616
888.1933	9704
890.5759	9656
892.9598	9668
895.343	9607
897.7256	9733
900.1057	9738
902.4871	9624
904.8659	9729
907.246	9600
909.6254	9720
912.0023	9707
914.3786	9699
916.7562	9922
919.1331	9902
921.5074	9988
923.8831	10097
926.2562	10146
928.6287	10006
931.0005	10091
933.3757	10234
935.7462	10166
938.1162	10208
940.4855	10332
942.8542	10294
945.2242	10257
947.5916	10340
949.9584	10550
952.3266	10776
954.6921	11074
957.0571	11286
959.4233	11498
961.787	11657
964.15	11444
966.5125	11504
968.8742	11064
971.2354	10713
973.5959	10567
975.9559	10385
978.3151	10255
980.6738	10235
983.0338	10163
985.3912	9974
987.7461	10097
990.1022	9912
992.4578	10048
994.8127	10010
997.1689	10078
999.5207	10000
1001.874	10265
1004.226	10159
1006.576	9987
1008.929	10186
1011.28	10106
1013.628	9938
1015.977	10084
1018.324	10068
1020.674	10033
1023.019	10052
1025.366	10059
1027.713	10144
1030.056	10014
1032.399	10202
1034.746	10284
1037.087	10235
1039.431	10215
1041.771	10152
1044.113	10226
1046.454	10069
1048.793	10227
1051.133	10120
1053.471	10117
1055.807	10304
1058.146	10182
1060.483	10272
1062.818	10349
1065.153	10338
1067.489	10369
1069.822	10325
1072.156	10316
1074.488	10241
1076.82	10300
1079.15	10248
1081.48	10257
1083.814	10246
1086.143	10225
1088.471	10185
1090.799	10293
1093.126	10363
1095.452	10131
1097.78	10148
1100.105	10183
1102.43	10254
1104.754	10233
1107.077	10193
1109.4	10347
1111.722	10263
1114.044	10357
1116.365	10157
1118.685	10232
1121.005	10324
1123.324	10326
1125.643	10340
1127.961	10442
1130.278	10336
1132.595	10365
1134.911	10423
1137.226	10322
1139.541	10254
1141.854	10321
1144.167	10270
1146.482	10267
1148.793	10430
1151.105	10418
1153.414	10375
1155.725	10386
1158.033	10294
1160.344	10322
1162.651	10490
1164.959	10307
1167.265	10336
1169.572	10393
1171.878	10511
1174.184	10464
1176.488	10340
1178.79	10373
1181.094	10227
1183.396	10403
1185.699	10255
1188.001	10371
1190.301	10358
1192.6	10384
1194.9	10346
1197.2	10368
1199.497	10327
1201.794	10283
1204.09	10403
1206.387	10406
1208.684	10345
1210.978	10453
1213.272	10324
1215.565	10451
1217.858	10410
1220.15	10458
1222.443	10495
1224.734	10412
1227.024	10480
1229.313	10495
1231.602	10368
1233.892	10648
1236.18	10660
1238.467	10458
1240.754	10696
1243.04	10691
1245.325	10529
1247.612	10594
1249.896	10478
1252.178	10689
1254.461	10782
1256.743	10527
1259.027	10531
1261.308	10696
1263.587	10568
1265.867	10554
1268.146	10624
1270.425	10684
1272.703	10527
1274.981	10693
1277.256	10836
1279.532	10620
1281.808	10636
1284.083	10590
1286.358	10541
1288.63	10634
1290.904	10567
1293.175	10663
1295.449	10648
1297.719	10476
1299.99	10666
1302.259	10602
1304.529	10406
1306.798	10553
1309.065	10497
1311.333	10589
1313.599	10603
1315.866	10682
1318.131	10545
1320.396	10650
1322.66	10504
1324.925	10591
1327.187	10626
1329.448	10464
1331.711	10611
1333.974	10712
1336.234	10537
1338.493	10509
1340.752	10505
1343.01	10618
1345.269	10444
1347.526	10616
1349.784	10716
1352.04	10615
1354.295	10637
1356.552	10597
1358.806	10567
1361.059	10562
1363.312	10428
1365.564	10489
1367.818	10649
1370.069	10432
1372.318	10559
1374.568	10565
1376.817	10670
1379.066	10711
1381.316	10708
1383.564	10801
1385.809	10608
1388.056	10702
1390.301	10695
1392.549	10847
1394.793	10729
1397.036	10781
1399.279	10775
1401.522	10910
1403.763	10947
1406.007	10811
1408.248	10878
1410.487	10843
1412.727	10915
1414.965	10917
1417.205	10910
1419.442	11098
1421.68	10852
1423.915	10928
1426.152	10776
1428.388	10872
1430.623	10812
1432.857	10916
1435.091	10932
1437.323	10872
1439.556	11078
1441.789	11292
1444.019	10816
1446.25	10951
1448.48	11005
1450.708	11111
1452.938	11159
1455.167	11102
1457.394	11185
1459.62	11201
1461.846	11221
1464.073	10929
1466.299	11006
1468.523	10924
1470.746	10926
1472.969	10841
1475.191	10736
1477.415	10907
1479.636	10852
1481.858	10852
1484.078	10631
1486.298	10721
1488.518	10820
1490.736	10655
1492.954	10819
1495.169	10584
1497.386	10736
1499.602	10619
1501.819	10659
1504.034	10627
1506.248	10529
1508.462	10588
1510.675	10572
1512.888	10543
1515.1	10653
1517.311	10642
1519.522	10579
1521.732	10584
1523.942	10632
1526.151	10471
1528.36	10518
1530.566	10605
1532.773	10667
1534.98	10588
1537.187	10564
1539.392	10701
1541.596	10592
1543.801	10852
1546.005	10738
1548.208	10612
1550.411	10838
1552.612	10702
1554.814	10790
1557.013	10787
1559.212	10660
1561.414	10767
1563.612	10702
1565.811	10617
1568.007	10865
1570.203	10808
1572.403	10892
1574.598	10830
1576.792	10800
1578.988	10868
1581.181	10949
1583.376	10874
1585.568	10811
1587.761	10991
1589.952	10905
1592.143	10909
1594.333	10802
1596.524	10828
1598.715	10888
1600.903	11011
1603.091	10974
1605.278	11052
1607.466	11001
1609.652	11009
1611.838	10955
1614.023	11052
1616.207	11059
1618.391	10941
1620.576	10899
1622.759	11045
1624.941	11053
1627.123	11074
1629.304	11053
1631.484	11034
1633.664	11119
1635.844	10900
1638.022	11039
1640.201	11069
1642.38	11080
1644.556	11103
1646.732	11030
1648.908	11065
1651.084	10975
1653.257	11133
1655.433	11072
1657.607	11212
1659.779	11285
1661.951	11182
1664.122	11223
1666.295	11205
1668.467	11174
1670.635	11154
1672.805	11203
1674.973	10985
1677.142	11353
1679.31	11051
1681.478	11156
1683.644	11161
1685.81	11128
1687.975	11062
1690.142	11075
1692.305	11006
1694.468	10917
1696.632	11074
1698.794	10993
1700.957	10927
1703.119	11077
1705.279	10862
1707.439	10913
1709.598	10957
1711.758	10892
1713.917	10910
1716.075	11014
1718.231	10900
1720.388	10987
1722.543	10876
1724.702	11009
1726.856	10904
1729.01	10992
1731.164	10809
1733.317	10904
1735.471	10976
1737.623	10820
1739.774	10821
1741.925	10969
1744.075	10739
1746.225	10917
1748.376	10902
1750.524	11000
1752.672	11003
1754.82	10898
1756.965	11044
1759.113	10986
1761.259	10879
1763.405	10943
1765.549	10998
1767.694	10945
1769.836	11055
1771.981	11113
1774.123	10950
1776.264	10942
1778.405	11051
1780.546	11048
1782.687	11026
1784.827	11031
1786.966	11013
1789.103	10971
1791.242	10973
1793.381	11156
1795.517	11182
1797.653	10904
1799.788	11060
1801.923	10970
1804.057	10963
1806.193	10892
1808.326	10981
1810.457	11069
1812.59	11093
1814.721	11117
1816.855	10974
1818.984	10931
1821.113	11048
1823.244	10903
1825.372	10923
1827.499	10967
1829.63	10914
1831.756	10875
1833.882	10943
1836.007	10943
1838.132	10877
1840.26	11042
1842.384	10773
1844.507	11071
1846.63	10781
1848.752	10881
1850.875	10898
1852.996	10882
1855.118	10957
1857.238	10791
1859.358	10967
1861.477	10916
1863.597	10824
1865.715	10913
1867.832	11008
1869.948	10842
1872.064	11040
1874.181	11079
1876.297	10869
1878.411	10792
1880.526	10890
1882.639	10898
1884.752	10841
1886.865	10977
1888.977	10919
1891.089	10862
1893.2	10872
1895.308	10876
1897.42	10898
1899.53	10815
1901.639	10918
1903.745	10954
1905.853	11094
1907.962	11043
1910.067	10902
1912.174	10983
1914.278	10918
1916.383	10877
1918.486	10958
1920.592	11003
1922.694	11034
1924.797	10975
1926.898	10997
1929	11031
1931.102	11041
1933.203	11024
1935.301	11085
1937.401	11056
1939.499	10973
1941.598	11036
1943.697	11213
1945.793	11039
1947.888	11018
1949.985	11065
1952.08	11087
1954.176	11011
1956.269	11033
1958.364	11067
1960.457	10937
1962.549	11001
1964.642	10825
1966.733	11046
1968.823	10975
1970.913	10990
1973.005	10920
1975.093	10974
1977.184	10930
1979.271	10875
1981.359	11035
1983.446	11008
1985.532	11014
1987.619	11079
1989.705	10864
1991.789	10977
1993.874	10975
1995.956	11016
1998.041	10941
2000.123	10839
2002.206	10947
2004.287	10998
2006.368	10920
2008.449	11045
2010.529	10859
2012.609	10896
2014.688	10845
2016.766	10752
2018.843	10806
2020.922	10812
2022.999	10986
2025.074	10870
2027.15	10860
2029.225	10860
2031.299	10831
2033.375	10889
2035.447	10885
2037.52	10849
2039.592	10751
2041.664	10850
2043.736	10925
2045.807	10866
2047.876	10866
2049.947	10811
2052.015	10785
2054.086	10842
2056.153	10854
2058.221	10779
2060.288	10840
2062.353	10993
2064.42	10682
2066.486	10804
2068.55	10917
2070.614	10874
2072.678	10928
2074.741	10795
2076.805	10945
2078.866	10897
2080.929	10796
2082.99	10851
2085.049	10847
2087.109	10972
2089.17	10865
2091.228	10792
2093.286	10823
2095.344	10849
2097.4	10804
2099.46	10724
2101.516	10811
2103.572	10649
2105.626	10831
2107.679	10762
2109.735	10704
2111.788	10858
2113.841	10690
2115.894	10969
2117.945	10805
2119.997	10845
2122.049	10902
2124.1	10845
2126.148	10632
2128.197	10881
2130.246	10807
2132.296	10658
2134.342	10785
2136.39	10773
2138.437	10802
2140.483	10842
2142.527	10787
2144.574	10845
2146.619	10780
2148.661	10812
2150.705	10715
2152.747	10732
2154.792	10709
2156.832	10679
2158.874	10647
2160.915	10812
2162.954	10804
2164.995	10630
2167.034	10781
2169.072	10681
2171.111	10736
2173.148	10729
2175.186	10696
2177.223	10715
2179.258	10717
2181.294	10663
2183.328	10623
2185.362	10588
2187.398	10562
2189.431	10713
2191.463	10576
2193.495	10528
2195.528	10503
2197.56	10560
2199.59	10544
2201.62	10574
2203.649	10619
2205.678	10555
2207.708	10465
2209.737	10479
2211.764	10522
2213.791	10404
2215.817	10526
2217.843	10515
2219.87	10390
2221.895	10569
2223.919	10372
2225.942	10526
2227.966	10497
2229.988	10519
2232.012	10276
2234.032	10544
2236.054	10584
2238.074	10279
2240.095	10533
2242.116	10465
2244.135	10339
2246.153	10326
2248.171	10537
2250.188	10483
2252.208	10429
2254.223	10541
2256.239	10241
2258.255	10456
2260.269	10402
2262.283	10681
2264.3	10388
2266.312	10364
2268.325	10332
2270.336	10374
2272.349	10627
2274.362	10554
2276.372	10512
2278.383	10409
2280.392	10367
2282.402	10545
2284.409	10427
2286.418	10503
2288.427	10527
2290.433	10367
2292.441	10547
2294.446	10343
2296.453	10543
2298.459	10358
2300.463	10485
2302.466	10365
2304.471	10331
2306.475	10373
2308.477	10396
2310.478	10351
2312.481	10359
2314.481	10312
2316.481	10335
2318.482	10195
2320.482	10251
2322.48	10382
2324.48	10310
2326.478	10371
2328.476	10324
2330.473	10387
2332.469	10341
2334.465	10315
2336.46	10307
2338.454	10110
2340.45	10159
2342.444	10154
2344.437	10195
2346.43	10249
2348.421	10125
2350.414	10180
2352.405	10184
2354.396	10170
2356.386	10097
2358.376	10174
2360.366	10156
2362.355	10190
2364.343	10112
2366.331	10066
2368.317	10163
2370.304	10056
2372.292	10023
2374.278	9884
2376.262	10233
2378.247	10144
2380.23	10142
2382.216	10130
2384.199	9961
2386.181	10070
2388.163	10137
2390.144	10038
2392.127	10168
2394.107	10004
2396.087	10091
2398.066	10053
2400.046	10075
2402.023	9928
2404.004	9984
2405.981	10023
2407.957	9981
2409.934	10023
2411.91	10044
2413.886	9952
2415.862	9979
2417.836	9939
2419.809	10059
2421.784	9931
2423.756	9983
2425.73	9862
2427.701	9934
2429.672	10004
2431.644	9914
2433.615	9929
2435.586	9909
2437.555	9927
2439.523	9931
2441.491	9992
2443.459	9968
2445.428	9823
2447.395	10018
2449.361	9914
2451.327	9934
2453.292	9802
2455.257	10025
2457.223	10021
2459.187	9946
2461.15	9960
2463.113	9874
2465.076	9872
2467.039	9822
2468.999	9706
2470.96	9846
2472.921	9806
2474.881	9901
2476.841	9702
2478.8	9848
2480.759	9811
2482.717	9599
2484.675	9773
2486.63	9875
2488.589	9807
2490.545	9852
2492.5	9786
2494.455	9698
2496.408	9779
2498.364	9836
2500.318	9662
2502.27	9816
2504.223	9659
2506.174	9841
2508.126	9721
2510.078	9693
2512.03	9720
2513.979	9748
2515.927	9670
2517.877	9799
2519.826	9709
2521.775	9790
2523.722	9686
2525.668	9669
2527.616	9715
2529.561	9828
2531.508	9634
2533.452	9683
2535.398	9696
2537.342	9576
2539.284	9589
2541.229	9805
2543.173	9629
2545.114	9666
2547.055	9678
2548.996	9622
2550.938	9767
2552.878	9682
2554.817	9616
2556.756	9652
2558.695	9611
2560.633	9682
2562.572	9582
2564.509	9619
2566.445	9930
2568.382	9560
2570.317	9663
2572.254	9613
2574.189	9732
2576.123	9635
2578.057	9639
2579.99	9569
2581.923	9708
2583.855	9656
2585.788	9657
2587.719	9674
2589.65	9690
2591.579	9662
2593.511	9647
2595.44	9593
2597.37	9680
2599.297	9674
2601.225	9431
2603.153	9584
2605.08	9752
2607.007	9585
2608.932	9749
2610.858	9758
2612.782	9658
2614.709	9752
2616.632	9489
2618.556	9634
2620.478	9671
2622.401	9627
2624.324	9549
2626.247	9566
2628.167	9402
2630.088	9760
2632.008	9643
2633.928	9727
2635.848	9590
2637.766	9768
2639.684	9621
2641.603	9638
2643.519	9584
2645.437	9703
2647.353	9739
2649.27	9623
2651.184	9492
2653.099	9695
2655.014	9703
2656.928	9662
2658.842	9602
2660.755	9688
2662.667	9536
2664.579	9711
2666.491	9712
2668.402	9529
2670.312	9543
2672.222	9678
2674.132	9563
2676.042	9610
2677.951	9617
2679.859	9596
2681.766	9431
2683.674	9667
2685.582	9575
2687.488	9519
2689.392	9533
2691.298	9445
2693.202	9498
2695.107	9612
2697.012	9457
2698.914	9255
2700.817	9455
2702.72	9586
2704.622	9304
2706.524	9453
2708.425	9426
2710.326	9427
2712.225	9352
2714.125	9217
2716.024	9475
2717.923	9324
2719.822	9316
2721.719	9413
2723.616	9184
2725.512	9357
2727.41	9406
2729.305	9364
2731.201	9356
2733.095	9218
2734.99	9304
2736.884	9348
2738.778	9333
2740.67	9430
2742.562	9324
2744.455	9266
2746.346	9334
2748.238	9187
2750.129	9137
2752.018	9280
2753.907	9319
2755.797	9362
2757.687	9249
2759.575	9218
2761.462	9361
2763.349	9217
2765.237	9233
2767.124	9181
2769.009	9249
2770.894	9254
2772.779	9334
2774.663	9265
2776.547	9388
2778.431	9160
2780.314	9205
2782.197	9184
2784.078	9189
2785.96	9162
2787.842	9161
2789.723	9177
2791.603	9188
2793.483	9082
2795.362	9123
2797.241	9211
2799.121	9174
2800.997	9107
2802.874	9054
2804.751	9097
2806.628	9068
2808.506	9164
2810.38	9177
2812.255	9190
2814.13	9132
2816.003	9087
2817.878	9227
2819.752	9119
2821.623	9135
2823.496	9037
2825.368	9227
2827.238	9098
2829.111	9016
2830.98	9157
2832.851	9106
2834.719	9202
2836.589	9092
2838.458	9204
2840.327	9053
2842.193	9135
2844.061	8998
2845.927	9231
2847.794	9150
2849.66	9236
2851.525	9198
2853.39	9176
2855.254	9055
2857.117	9312
2858.983	9208
2860.845	9205
2862.707	9216
2864.569	9351
2866.431	9270
2868.293	9394
2870.154	9303
2872.013	9247
2873.873	9426
2875.733	9480
2877.592	9366
2879.451	9521
2881.309	9519
2883.166	9515
2885.022	9643
2886.879	9624
2888.736	9547
2890.591	9617
2892.446	9759
2894.301	9710
2896.155	9656
2898.009	9559
2899.863	9769
2901.716	9783
2903.568	9474
2905.419	9552
2907.27	9633
2909.123	9647
2910.973	9563
2912.824	9786
2914.673	9808
2916.521	9688
2918.372	9893
2920.22	9921
2922.067	9827
2923.914	9943
2925.761	10056
2927.607	10053
2929.455	10157
2931.301	10133
2933.144	10284
2934.99	10272
2936.833	10269
2938.678	10304
2940.522	10118
2942.364	10474
2944.207	10575
2946.048	10646
2947.891	10598
2949.731	10490
2951.571	10562
2953.412	10470
2955.25	10325
2957.09	10367
2958.93	10344
2960.767	10199
2962.606	10258
2964.443	10101
2966.279	10154
2968.116	10039
2969.953	9916
2971.788	9884
2973.623	9595
2975.457	9755
2977.292	9635
2979.127	9481
2980.959	9516
2982.792	9598
2984.624	9373
2986.455	9647
2988.288	9526
2990.119	9348
2991.949	9452
2993.779	9207
2995.608	9281
2997.439	9176
2999.268	9315
3001.096	9195
3002.923	9201
3004.751	9021
3006.578	8955
3008.406	9151
3010.232	8947
3012.057	8913
3013.883	8788
3015.706	8729
3017.532	8777
3019.356	8847
3021.179	8668
3023.002	8747
3024.823	8660
3026.646	8760
3028.469	8622
3030.289	8710
3032.11	8544
3033.93	8543
3035.749	8660
3037.57	8437
3039.39	8545
3041.207	8642
3043.026	8434
3044.842	8508
3046.661	8409
3048.477	8541
3050.294	8446
3052.109	8595
3053.925	8456
3055.739	8452
3057.555	8439
3059.368	8327
3061.181	8421
3062.995	8348
3064.807	8468
3066.62	8407
3068.433	8538
3070.243	8447
3072.054	8426
3073.865	8467
3075.675	8431
3077.485	8301
3079.293	8328
3081.102	8391
3082.911	8353
3084.719	8318
3086.527	8229
3088.333	8263
3090.139	8313
3091.945	8333
3093.75	8311
3095.557	8220
3097.361	8283
3099.165	8260
3100.969	8203
3102.772	8147
3104.575	8124
3106.379	8227
3108.181	8110
3109.982	8179
3111.783	8186
3113.584	8131
3115.386	8219
3117.186	8274
3118.985	8090
3120.783	8015
3122.582	8020
3124.381	8045
3126.179	8074
3127.975	8120
3129.772	7971
3131.569	8014
3133.365	8010
3135.161	7979
3136.956	7952
3138.751	7969
3140.544	7946
3142.338	7972
3144.132	7904
3145.925	8079
3147.717	7960
3149.509	8044
3151.301	7958
3153.091	7929
3154.884	7921
3156.673	7946
3158.462	7949
3160.252	7812
3162.041	8002
3163.831	7876
3165.618	7768
3167.405	7918
3169.193	7981
3170.979	7840
3172.767	7806
3174.553	7957
3176.338	7778
3178.123	7831
3179.907	7985
3181.692	7863
3183.477	7905
3185.259	7909
3187.042	7741
3188.824	7863
3190.607	7769
3192.389	7702
3194.17	7793
3195.951	7768
3197.73	7667
3199.51	7800
3201.289	7810
3203.07	7676
3204.848	7736
3206.626	7713
3208.403	7979
3210.18	7735
3211.959	7711
3213.735	7762
3215.511	7722
3217.285	7794
3219.06	7866
3220.836	7909
3222.611	7714
3224.384	7718
3226.158	7713
3227.929	7675
3229.702	7664
3231.476	7638
3233.248	7777
3235.018	7775
3236.789	7772
3238.56	7657
3240.33	7770
3242.1	7738
3243.869	7703
3245.637	7621
3247.405	7691
3249.172	7622
3250.941	7602
3252.707	7673
3254.474	7680
3256.24	7697
3258.006	7632
3259.772	7612
3261.537	7674
3263.301	7527
3265.065	7687
3266.828	7650
3268.592	7652
3270.355	7693
3272.117	7563
3273.878	7651
3275.64	7636
3277.401	7664
3279.162	7620
3280.922	7689
3282.682	7575
3284.441	7564
3286.199	7621
3287.959	7713
3289.716	7568
3291.475	7688
3293.232	7661
3294.988	7514
3296.744	7522
3298.501	7546
3300.256	7590
3302.011	7668
3303.766	7669
3305.52	7635
3307.275	7606
3309.028	7494
3310.781	7587
3312.533	7533
3314.285	7684
3316.038	7535
3317.789	7625
3319.54	7570
3321.289	7605
3323.039	7497
3324.789	7538
3326.539	7621
3328.288	7528
3330.035	7727
3331.783	7533
3333.531	7670
3335.28	7491
3337.025	7424
3338.771	7434
3340.518	7548
3342.262	7513
3344.009	7487
3345.753	7572
3347.497	7468
3349.24	7463
3350.983	7443
3352.726	7523
3354.469	7438
3356.212	7485
3357.952	7387
3359.694	7362
3361.434	7427
3363.176	7374
3364.916	7501
3366.654	7370
3368.394	7403
3370.132	7442
3371.871	7309
3373.61	7361
3375.346	7423
3377.083	7346
3378.82	7311
3380.556	7405
3382.292	7400
3384.027	7333
3385.763	7283
3387.497	7327
3389.231	7347
3390.965	7254
3392.698	7202
3394.431	7312
3396.164	7291
3397.896	7280
3399.627	7302
3401.36	7295
3403.09	7293
3404.82	7181
3406.55	7231
3408.279	7077
3410.01	7229
3411.738	7173
3413.467	7136
3415.194	7114
3416.92	7169
3418.647	7246
3420.375	7154
3422.102	7092
3423.827	7174
3425.553	7079
3427.277	7137
3429.003	7282
3430.727	7206
3432.451	7093
3434.173	6999
3435.896	7143
3437.62	7110
3439.343	7142
3441.063	7005
3442.785	7182
3444.505	7030
3446.226	6991
3447.948	7078
3449.666	7048
3451.386	7113
3453.104	7023
3454.823	7037
3456.541	7017
3458.259	6993
3459.976	6836
3461.693	6956
3463.408	6936
3465.125	6947
3466.841	6924
3468.556	6928
3470.271	7013
3471.985	6974
3473.698	6863
3475.414	6878
3477.126	6885
3478.838	6785
3480.55	6824
3482.263	6955
3483.975	6922
3485.686	6704
3487.396	6624
3489.106	6883
3490.817	6814
3492.526	6736
3494.236	6653
3495.944	6818
3497.652	6699
3499.359	6828
3501.066	6734
3502.775	6695
3504.481	6715
3506.187	6725
3507.893	6786
3509.598	6771
3511.304	6691
3513.009	6784
3514.713	6704
3516.417	6619
3518.12	6605
3519.821	6665
3521.525	6643
3523.228	6618
3524.929	6765
3526.631	6612
3528.33	6503
3530.032	6587
3531.733	6645
3533.433	6555
3535.131	6478
3536.83	6586
3538.529	6557
3540.227	6501
3541.925	6494
3543.623	6488
3545.319	6510
3547.016	6501
3548.712	6513
3550.408	6536
3552.103	6495
3553.798	6435
3555.491	6570
3557.188	6415
3558.88	6432
3560.574	6576
3562.266	6479
3563.959	6555
3565.651	6462
3567.343	6563
3569.035	6479
3570.725	6369
3572.415	6344
3574.106	6470
3575.797	6481
3577.485	6432
3579.174	6449
3580.863	6273
3582.551	6321
3584.238	6361
3585.926	6390
3587.613	6435
3589.3	6213
3590.986	6372
3592.671	6292
3594.357	6343
3596.042	6320
3597.726	6258
3599.41	6233
3601.094	6352
3602.778	6211
3604.461	6106
3606.143	6204
3607.825	6167
3609.507	6207
3611.188	6116
3612.87	6155
3614.551	6156
3616.229	6136
3617.909	6140
3619.589	6171
3621.269	6231
3622.948	6098
3624.625	6134
3626.302	6088
3627.98	6102
3629.657	6187
3631.334	6048
3633.01	6054
3634.686	6083
3636.361	6101
3638.036	6022
3639.712	6100
3641.385	6081
3643.06	5973
3644.732	5965
3646.405	6026
3648.08	6044
3649.751	6075
3651.424	5999
3653.094	5967
3654.766	5969
3656.436	6008
3658.106	5906
3659.777	5974
3661.446	5937
3663.115	5857
3664.783	5890
3666.452	6030
3668.121	5934
3669.788	5882
3671.454	5925
3673.121	5999
3674.789	5943
3676.455	5829
3678.12	5951
3679.784	5895
3681.45	5844
3683.114	5871
3684.779	5877
3686.442	5745
3688.105	5897
3689.768	5879
3691.43	5898
3693.093	5762
3694.754	5798
3696.415	5919
3698.076	5769
3699.736	5766
3701.396	5868
3703.057	5841
3704.716	5860
3706.375	5819
3708.034	5774
3709.692	5802
3711.351	5872
3713.008	5734
3714.665	5954
3716.321	5724
3717.977	5763
3719.634	5718
3721.29	5788
3722.945	5762
3724.598	5692
3726.253	5828
3727.907	5718
3729.561	5811
3731.214	5795
3732.867	5704
3734.518	5697
3736.171	5697
3737.824	5717
3739.474	5687
3741.125	5686
3742.775	5662
3744.425	5625
3746.074	5709
3747.725	5642
3749.373	5644
3751.022	5666
3752.669	5623
3754.318	5583
3755.966	5700
3757.612	5701
3759.259	5586
3760.905	5561
3762.55	5646
3764.197	5595
3765.842	5470
3767.486	5649
3769.131	5622
3770.774	5487
3772.417	5633
3774.061	5614
3775.705	5488
3777.347	5524
3778.988	5494
3780.629	5569
3782.271	5612
3783.912	5398
3785.552	5525
3787.192	5537
3788.831	5565
3790.472	5498
3792.112	5497
3793.75	5441
3795.388	5405
3797.024	5507
3798.661	5490
3800.3	5398
3801.936	5394
3803.572	5408
3805.208	5377
3806.844	5366
3808.48	5456
3810.115	5307
3811.748	5423
3813.382	5429
3815.016	5361
3816.649	5453
3818.283	5421
3819.914	5365
3821.547	5373
3823.178	5313
3824.809	5352
3826.441	5325
3828.072	5327
3829.701	5232
3831.331	5389
3832.96	5407
3834.591	5341
3836.219	5453
3837.847	5288
3839.475	5378
3841.102	5374
3842.729	5380
3844.357	5350
3845.984	5291
3847.609	5260
3849.234	5293
3850.86	5305
3852.485	5280
3854.11	5342
3855.734	5223
3857.357	5169
3858.981	5267
3860.603	5196
3862.227	5156
3863.848	5329
3865.471	5332
3867.092	5351
3868.713	5193
3870.334	5251
3871.954	5236
3873.575	5241
3875.194	5153
3876.813	5084
3878.433	5158
3880.051	5144
3881.669	5111
3883.286	5164
3884.904	5046
3886.52	5283
3888.138	5197
3889.754	5149
3891.37	5130
3892.985	5019
3894.6	5105
3896.216	5127
3897.831	5136
3899.444	5083
3901.058	5123
3902.67	5044
3904.283	5123
3905.897	5106
3907.509	5140
3909.121	5172
3910.731	5113
3912.342	5122
3913.954	5163
3915.563	5035
3917.174	5098
3918.783	5093
3920.391	5029
3922.002	5068
3923.611	5008
3925.218	5081
3926.826	5095
3928.432	4929
3930.039	5132
3931.647	5027
3933.253	5001
3934.859	5024
3936.464	5090
3938.068	5021
3939.675	5057
3941.278	4991
3942.883	5050
3944.486	4917
3946.089	5041
3947.692	4981
3949.295	4963
3950.898	4979
3952.499	4918
3954.1	5018
3955.7	4952
3957.303	4975
3958.903	5004
3960.502	5103
3962.101	5046
3963.7	4965
3965.301	5009
3966.899	4906
3968.497	5055
3970.094	4902
3971.691	4854
3973.288	4918
3974.885	4963
3976.481	4855
3978.077	4874
3979.672	4872
3981.267	4826
3982.863	4966
3984.457	4796
3986.051	4833
3987.645	4784
3989.238	4983
3990.831	4755
3992.425	4824
3994.017	4793
3995.607	4816
3997.199	4809
3998.79	4852
4000.382	4820
4001.973	4823
4003.561	4762
4005.151	4742
4006.741	4719
4008.331	4724
4009.918	4720
4011.507	4766
4013.095	4757
4014.681	4727
4016.269	4745
4017.856	4725
4019.443	4735
4021.028	4624
4022.614	4748
4024.199	4751
4025.785	4703
4027.37	4643
4028.953	4683
4030.536	4656
4032.12	4596
4033.704	4676
4035.287	4686
4036.869	4661
4038.45	4595
4040.032	4609
4041.613	4667
4043.195	4581
4044.776	4680
4046.356	4526
4047.935	4550
4049.515	4628
4051.095	4590
4052.674	4637
4054.251	4521
4055.829	4615
4057.406	4607
4058.985	4659
4060.562	4573
4062.139	4510
4063.715	4637
4065.29	4610
4066.865	4477
4068.442	4485
4070.016	4485
4071.59	4446
4073.164	4497
4074.738	4432
4076.312	4486
4077.885	4625
4079.458	4476
4081.03	4483
4082.602	4514
4084.173	4535
4085.745	4388
4087.315	4582
4088.886	4436
4090.456	4513
4092.026	4406
4093.596	4500
4095.165	4441
4096.734	4442
4098.301	4523
4099.869	4336
4101.437	4467
4103.006	4389
4104.572	4448
4106.139	4327
4107.704	4534
4109.27	4490
4110.837	4390
4112.401	4441
4113.966	4359
4115.53	4409
4117.094	4423
4118.659	4411
4120.223	4406
4121.785	4341
4123.347	4440
4124.909	4358
4126.471	4460
4128.034	4375
4129.595	4368
4131.155	4331
4132.716	4293
4134.275	4288
4135.836	4329
4137.395	4278
4138.955	4294
4140.513	4286
4142.071	4329
4143.628	4293
4145.188	4302
4146.745	4194
4148.302	4355
4149.858	4244
4151.414	4273
4152.971	4237
4154.526	4204
4156.081	4228
4157.635	4250
4159.189	4169
4160.745	4120
4162.298	4195
4163.852	4233
4165.405	4280
4166.957	4155
4168.51	4192
4170.063	4153
4171.614	4180
4173.166	4189
4174.717	4181
4176.267	4154
4177.817	4168
4179.368	4197
4180.917	4164
4182.466	4053
4184.016	4170
4185.564	4107
4187.112	4124
4188.66	4164
4190.207	4074
4191.754	4066
4193.301	4107
4194.848	4080
4196.394	4028
4197.94	4144
4199.484	4124
4201.03	4044
4202.575	4084
4204.12	4031
4205.663	4025
4207.207	4062
4208.75	4031
4210.292	3996
4211.836	4086
4213.378	4008
4214.92	3965
4216.46	4047
4218.002	3975
4219.544	3920
4221.083	4031
4222.625	3984
4224.164	4047
4225.703	4033
4227.244	4026
4228.782	4029
4230.32	4042
4231.857	3964
4233.395	3985
4234.933	3991
4236.471	4079
4238.007	4012
4239.542	3983
4241.078	3993
4242.614	3957
4244.15	3977
4245.685	3874
4247.219	3982
4248.753	4028
4250.287	3872
4251.82	4023
4253.354	3967
4254.887	4011
4256.419	3882
4257.951	3983
4259.483	3901
4261.016	3930
4262.547	3900
4264.078	3956
4265.608	3866
4267.137	3892
4268.668	3917
4270.197	3903
4271.727	3890
4273.254	3976
4274.783	3840
4276.311	3899
4277.84	3906
4279.366	3891
4280.894	3806
4282.42	3814
4283.946	3842
4285.473	3910
4286.998	3849
4288.523	3931
4290.047	3939
4291.572	3873
4293.096	3922
4294.622	3887
4296.144	3807
4297.668	3868
4299.19	3807
4300.713	3823
4302.236	3756
4303.758	3799
4305.279	3744
4306.799	3820
4308.321	3791
4309.842	3838
4311.361	3754
4312.882	3806
4314.401	3837
