400.0961	5580
402.6185	5524
405.1424	5550
407.6635	5571
410.1838	5618
412.7035	5516
415.2225	5627
417.7388	5625
420.2585	5727
422.7754	5822
425.2917	5779
427.8072	5902
430.3221	5901
432.8363	5963
435.3498	6017
437.8626	5999
440.3727	5925
442.8841	5854
445.3969	5905
447.907	5747
450.4142	5904
452.9229	5923
455.4289	5914
457.9362	5833
460.4449	6031
462.9488	5710
465.454	5868
467.9566	6005
470.4604	5806
472.9637	5910
475.4662	5921
477.966	5929
480.4671	5843
482.9656	6039
485.4633	6010
487.9645	5939
490.4608	6009
492.9566	5984
495.4536	5920
497.948	5951
500.4437	6085
502.9387	5911
505.431	5926
507.9226	6040
510.4136	6170
512.9079	6004
515.3975	6087
517.8864	6093
520.3746	6131
522.8622	6134
525.3491	6091
527.8394	6193
530.3249	6227
532.8098	6088
535.2939	6172
537.7774	6231
540.2623	6162
542.7444	6143
545.2259	6161
547.7067	6151
550.1868	6193
552.6683	6175
555.147	6130
557.6231	6317
560.1005	6176
562.5773	6350
565.0534	6159
567.5308	6236
570.0056	6365
572.4776	6454
574.951	6361
577.4237	6333
579.8978	6336
582.3671	6466
584.8378	6475
587.3079	6437
589.7773	6440
592.244	6352
594.714	6469
597.1793	6543
599.6461	6541
602.1121	6501
604.5754	6285
607.0421	6393
609.5042	6356
611.9675	6427
614.4282	6526
616.8902	6406
619.3515	6458
621.8122	6383
624.2702	6473
626.7296	6342
629.1863	6307
631.6423	6370
634.1017	6383
636.5563	6436
639.0104	6519
641.4658	6300
643.9185	6438
646.3725	6365
648.8239	6387
651.2766	6349
653.7266	6435
656.176	6467
658.6247	6342
661.0748	6540
663.5242	6558
665.9709	6542
668.417	6473
670.8624	6649
673.3092	6490
675.7533	6573
678.1968	6528
680.6395	6456
683.0817	6520
685.5251	6596
687.9659	6385
690.4061	6628
692.8456	6622
695.2844	6585
697.7226	6720
700.1621	6603
702.599	6776
705.0332	6768
707.4688	6633
709.9036	6661
712.3399	6749
714.7735	6736
717.2044	6776
719.6367	6756
722.0683	6674
724.4993	6791
726.9296	6765
729.3593	6869
731.7883	6831
734.2147	6922
736.6423	6860
739.0714	6914
741.4958	6926
743.9216	7029
746.3447	6941
748.7691	7056
751.1929	7061
753.616	7101
756.0366	6993
758.4584	7145
760.8776	7135
763.2982	7044
765.718	7082
768.1373	6976
770.5539	7043
772.9698	7074
775.3871	6975
777.8038	7150
780.2178	7249
782.6332	7079
785.0459	7054
787.458	7143
789.8714	7245
792.2842	7038
794.6943	7135
797.1038	7075
799.5127	7094
801.9209	7127
804.3324	7268
806.7393	7131
809.1456	7115
811.5513	7256
813.9562	7181
816.3625	7270
818.7663	7190
821.1693	7229
823.5718	7231
825.9735	7348
828.3746	7219
830.7771	7322
833.177	7333
835.5762	7300
837.9747	7345
840.3727	7362
842.772	7322
845.1666	7340
847.5626	7374
849.958	7367
852.3527	7340
854.7488	7378
857.1403	7451
859.5331	7431
861.9253	7318
864.3168	7335
866.7057	7337
869.098	7392
871.4876	7350
873.8746	7333
876.263	7428
878.6487	7461
881.0378	7288
883.4243	7270
885.8081	7214
888.1933	7497
890.5759	7303
892.9598	7390
895.343	7352
897.7256	7506
900.1057	7328
902.4871	7414
904.8659	7354
907.246	7397
909.6254	7680
912.0023	7511
914.3786	7582
916.7562	7512
919.1331	7573
921.5074	7655
923.8831	7709
926.2562	7595
928.6287	7742
931.0005	7705
933.3757	7847
935.7462	7847
938.1162	7857
940.4855	7859
942.8542	8013
945.2242	7882
947.5916	8149
949.9584	8395
952.3266	8476
954.6921	8819
957.0571	9264
959.4233	9695
961.787	9747
964.15	9537
966.5125	9430
968.8742	8975
971.2354	8600
973.5959	8323
975.9559	7997
978.3151	7752
980.6738	7867
983.0338	7784
985.3912	7709
987.7461	7757
990.1022	7591
992.4578	7621
994.8127	7692
997.1689	7782
999.5207	7711
1001.874	7836
1004.226	7712
1006.576	7743
1008.929	7719
1011.28	7719
1013.628	7697
1015.977	7742
1018.324	7567
1020.674	7609
1023.019	7638
1025.366	7757
1027.713	7625
1030.056	7838
1032.399	7970
1034.746	7751
1037.087	7890
1039.431	7753
1041.771	7766
1044.113	7884
1046.454	7875
1048.793	7861
1051.133	7904
1053.471	7797
1055.807	7856
1058.146	7912
1060.483	7866
1062.818	7905
1065.153	8049
1067.489	7992
1069.822	8017
1072.156	8051
1074.488	7997
1076.82	8048
1079.15	7951
1081.48	8016
1083.814	7960
1086.143	7968
1088.471	7993
1090.799	7840
1093.126	7777
1095.452	7928
1097.78	7729
1100.105	7842
1102.43	7906
1104.754	7959
1107.077	7970
1109.4	7821
1111.722	7850
1114.044	7931
1116.365	7741
1118.685	7870
1121.005	7929
1123.324	7900
1125.643	7828
1127.961	7887
1130.278	7882
1132.595	7914
1134.911	7823
1137.226	7857
1139.541	7766
1141.854	7878
1144.167	7971
1146.482	7842
1148.793	8007
1151.105	7848
1153.414	7929
1155.725	7809
1158.033	7842
1160.344	7887
1162.651	7929
1164.959	7950
1167.265	7900
1169.572	7887
1171.878	7883
1174.184	7943
1176.488	7974
1178.79	7843
1181.094	7888
1183.396	7946
1185.699	8002
1188.001	7979
1190.301	7798
1192.6	7867
1194.9	7922
1197.2	7924
1199.497	7890
1201.794	7824
1204.09	8001
1206.387	8021
1208.684	7921
1210.978	8001
1213.272	7876
1215.565	7933
1217.858	7903
1220.15	8083
1222.443	8051
1224.734	7937
1227.024	7951
1229.313	8035
1231.602	8244
1233.892	8127
1236.18	8018
1238.467	8158
1240.754	8194
1243.04	8228
1245.325	8239
1247.612	8158
1249.896	8268
1252.178	8179
1254.461	8282
1256.743	8220
1259.027	8189
1261.308	8350
1263.587	8182
1265.867	8298
1268.146	8171
1270.425	8233
1272.703	8311
1274.981	8185
1277.256	8165
1279.532	8076
1281.808	8121
1284.083	8151
1286.358	8261
1288.63	8105
1290.904	8176
1293.175	8132
1295.449	8103
1297.719	8156
1299.99	8011
1302.259	8047
1304.529	8210
1306.798	8105
1309.065	8148
1311.333	8052
1313.599	8015
1315.866	8062
1318.131	8019
1320.396	8033
1322.66	8102
1324.925	8020
1327.187	8138
1329.448	8082
1331.711	8191
1333.974	8192
1336.234	8089
1338.493	8170
1340.752	8166
1343.01	8294
1345.269	8178
1347.526	8191
1349.784	8149
1352.04	8206
1354.295	8142
1356.552	8007
1358.806	8031
1361.059	8189
1363.312	8148
1365.564	8114
1367.818	8135
1370.069	8251
1372.318	8168
1374.568	8128
1376.817	8163
1379.066	8145
1381.316	8017
1383.564	8181
1385.809	8202
1388.056	8212
1390.301	8235
1392.549	8269
1394.793	8476
1397.036	8492
1399.279	8382
1401.522	8206
1403.763	8378
1406.007	8242
1408.248	8291
1410.487	8422
1412.727	8415
1414.965	8352
1417.205	8392
1419.442	8338
1421.68	8335
1423.915	8324
1426.152	8431
1428.388	8399
1430.623	8380
1432.857	8338
1435.091	8457
1437.323	8405
1439.556	8438
1441.789	8527
1444.019	8423
1446.25	8496
1448.48	8604
1450.708	8480
1452.938	8543
1455.167	8412
1457.394	8522
1459.62	8606
1461.846	8594
1464.073	8654
1466.299	8485
1468.523	8474
1470.746	8382
1472.969	8372
1475.191	8320
1477.415	8305
1479.636	8206
1481.858	8230
1484.078	8475
1486.298	8155
1488.518	8209
1490.736	8266
1492.954	8237
1495.169	8137
1497.386	8119
1499.602	8230
1501.819	8060
1504.034	8223
1506.248	8188
1508.462	8212
1510.675	8021
1512.888	8070
1515.1	8014
1517.311	8175
1519.522	8200
1521.732	8056
1523.942	8047
1526.151	8106
1528.36	8082
1530.566	8060
1532.773	8150
1534.98	8112
1537.187	8135
1539.392	8159
1541.596	8289
1543.801	8192
1546.005	8200
1548.208	8299
1550.411	8233
1552.612	8294
1554.814	8236
1557.013	8271
1559.212	8314
1561.414	8393
1563.612	8357
1565.811	8340
1568.007	8346
1570.203	8354
1572.403	8454
1574.598	8470
1576.792	8296
1578.988	8341
1581.181	8308
1583.376	8426
1585.568	8363
1587.761	8431
1589.952	8296
1592.143	8355
1594.333	8350
1596.524	8502
1598.715	8447
1600.903	8361
1603.091	8420
1605.278	8422
1607.466	8491
1609.652	8460
1611.838	8564
1614.023	8489
1616.207	8416
1618.391	8339
1620.576	8443
1622.759	8507
1624.941	8451
1627.123	8507
1629.304	8451
1631.484	8616
1633.664	8527
1635.844	8536
1638.022	8477
1640.201	8506
1642.38	8453
1644.556	8464
1646.732	8509
1648.908	8516
1651.084	8581
1653.257	8635
1655.433	8490
1657.607	8568
1659.779	8636
1661.951	8685
1664.122	8562
1666.295	8607
1668.467	8688
1670.635	8512
1672.805	8540
1674.973	8553
1677.142	8600
1679.31	8644
1681.478	8708
1683.644	8534
1685.81	8513
1687.975	8595
1690.142	8577
1692.305	8509
1694.468	8499
1696.632	8466
1698.794	8610
1700.957	8411
1703.119	8461
1705.279	8574
1707.439	8480
1709.598	8484
1711.758	8366
1713.917	8544
1716.075	8488
1718.231	8412
1720.388	8481
1722.543	8423
1724.702	8526
1726.856	8406
1729.01	8367
1731.164	8496
1733.317	8485
1735.471	8393
1737.623	8384
1739.774	8435
1741.925	8465
1744.075	8415
1746.225	8401
1748.376	8497
1750.524	8539
1752.672	8385
1754.82	8359
1756.965	8556
1759.113	8459
1761.259	8418
1763.405	8434
1765.549	8449
1767.694	8407
1769.836	8500
1771.981	8341
1774.123	8368
1776.264	8470
1778.405	8431
1780.546	8636
1782.687	8541
1784.827	8593
1786.966	8448
1789.103	8514
1791.242	8539
1793.381	8471
1795.517	8565
1797.653	8405
1799.788	8640
1801.923	8477
1804.057	8408
1806.193	8464
1808.326	8482
1810.457	8562
1812.59	8442
1814.721	8633
1816.855	8466
1818.984	8490
1821.113	8471
1823.244	8451
1825.372	8562
1827.499	8538
1829.63	8447
1831.756	8578
1833.882	8445
1836.007	8365
1838.132	8411
1840.26	8451
1842.384	8456
1844.507	8466
1846.63	8544
1848.752	8418
1850.875	8458
1852.996	8526
1855.118	8388
1857.238	8435
1859.358	8439
1861.477	8539
1863.597	8316
1865.715	8393
1867.832	8400
1869.948	8343
1872.064	8394
1874.181	8321
1876.297	8391
1878.411	8463
1880.526	8422
1882.639	8364
1884.752	8409
1886.865	8378
1888.977	8445
1891.089	8422
1893.2	8469
1895.308	8464
1897.42	8478
1899.53	8425
1901.639	8481
1903.745	8517
1905.853	8612
1907.962	8437
1910.067	8424
1912.174	8460
1914.278	8496
1916.383	8520
1918.486	8482
1920.592	8532
1922.694	8587
1924.797	8555
1926.898	8410
1929	8594
1931.102	8561
1933.203	8505
1935.301	8569
1937.401	8640
1939.499	8557
1941.598	8599
1943.697	8514
1945.793	8589
1947.888	8594
1949.985	8564
1952.08	8485
1954.176	8511
1956.269	8568
1958.364	8498
1960.457	8500
1962.549	8621
1964.642	8452
1966.733	8452
1968.823	8553
1970.913	8356
1973.005	8505
1975.093	8455
1977.184	8577
1979.271	8462
1981.359	8558
1983.446	8478
1985.532	8507
1987.619	8394
1989.705	8398
1991.789	8378
1993.874	8570
1995.956	8540
1998.041	8364
2000.123	8355
2002.206	8381
2004.287	8565
2006.368	8438
2008.449	8416
2010.529	8340
2012.609	8570
2014.688	8258
2016.766	8397
2018.843	8550
2020.922	8342
2022.999	8508
2025.074	8399
2027.15	8505
2029.225	8340
2031.299	8380
2033.375	8380
2035.447	8368
2037.52	8495
2039.592	8400
2041.664	8431
2043.736	8360
2045.807	8476
2047.876	8336
2049.947	8516
2052.015	8205
2054.086	8414
2056.153	8490
2058.221	8385
2060.288	8487
2062.353	8420
2064.42	8507
2066.486	8488
2068.55	8389
2070.614	8434
2072.678	8525
2074.741	8433
2076.805	8379
2078.866	8364
2080.929	8397
2082.99	8419
2085.049	8398
2087.109	8463
2089.17	8386
2091.228	8403
2093.286	8528
2095.344	8499
2097.4	8427
2099.46	8484
2101.516	8354
2103.572	8345
2105.626	8455
2107.679	8389
2109.735	8477
2111.788	8430
2113.841	8530
2115.894	8428
2117.945	8380
2119.997	8360
2122.049	8418
2124.1	8408
2126.148	8335
2128.197	8344
2130.246	8412
2132.296	8416
2134.342	8459
2136.39	8389
2138.437	8450
2140.483	8325
2142.527	8373
2144.574	8343
2146.619	8401
2148.661	8356
2150.705	8303
2152.747	8405
2154.792	8339
2156.832	8286
2158.874	8368
2160.915	8439
2162.954	8377
2164.995	8350
2167.034	8310
2169.072	8320
2171.111	8321
2173.148	8298
2175.186	8330
2177.223	8305
2179.258	8272
2181.294	8249
2183.328	8210
2185.362	8295
2187.398	8315
2189.431	8243
2191.463	8166
2193.495	8124
2195.528	8255
2197.56	8281
2199.59	8351
2201.62	8217
2203.649	8337
2205.678	8215
2207.708	8274
2209.737	8484
2211.764	8253
2213.791	8177
2215.817	8197
2217.843	8251
2219.87	8221
2221.895	8095
2223.919	8157
2225.942	8081
2227.966	8049
2229.988	8136
2232.012	8016
2234.032	8157
2236.054	8171
2238.074	8076
2240.095	8130
2242.116	8081
2244.135	8173
2246.153	8190
2248.171	8239
2250.188	8086
2252.208	8013
2254.223	8026
2256.239	8313
2258.255	8212
2260.269	8143
2262.283	8170
2264.3	8022
2266.312	8123
2268.325	8245
2270.336	8226
2272.349	8049
2274.362	8046
2276.372	8088
2278.383	8159
2280.392	8194
2282.402	8303
2284.409	8161
2286.418	8107
2288.427	8219
2290.433	8105
2292.441	8188
2294.446	8136
2296.453	8153
2298.459	8248
2300.463	8045
2302.466	8181
2304.471	8174
2306.475	8003
2308.477	8045
2310.478	7986
2312.481	7982
2314.481	8136
2316.481	8146
2318.482	8111
2320.482	8095
2322.48	8099
2324.48	8066
2326.478	8006
2328.476	8099
2330.473	8041
2332.469	8103
2334.465	8097
2336.46	8111
2338.454	7888
2340.45	8052
2342.444	8021
2344.437	7988
2346.43	8090
2348.421	8055
2350.414	8072
2352.405	8123
2354.396	8058
2356.386	8029
2358.376	8000
2360.366	8007
2362.355	8058
2364.343	7941
2366.331	7966
2368.317	7986
2370.304	7962
2372.292	7972
2374.278	7852
2376.262	7816
2378.247	7988
2380.23	8008
2382.216	7947
2384.199	7848
2386.181	7816
2388.163	7874
2390.144	7848
2392.127	8011
2394.107	7804
2396.087	7905
2398.066	8019
2400.046	7888
2402.023	7861
2404.004	7834
2405.981	7949
2407.957	7890
2409.934	7776
2411.91	7917
2413.886	7796
2415.862	7913
2417.836	7800
2419.809	7806
2421.784	7882
2423.756	7764
2425.73	7751
2427.701	7847
2429.672	7863
2431.644	7724
2433.615	7833
2435.586	7819
2437.555	7835
2439.523	7742
2441.491	7821
2443.459	7798
2445.428	7846
2447.395	7783
2449.361	7796
2451.327	7782
2453.292	7788
2455.257	7810
2457.223	7757
2459.187	7752
2461.15	7693
2463.113	7835
2465.076	7760
2467.039	7777
2468.999	7708
2470.96	7796
2472.921	7806
2474.881	7799
2476.841	7787
2478.8	7762
2480.759	7795
2482.717	7676
2484.675	7707
2486.63	7608
2488.589	7747
2490.545	7791
2492.5	7606
2494.455	7695
2496.408	7756
2498.364	7800
2500.318	7672
2502.27	7641
2504.223	7588
2506.174	7764
2508.126	7657
2510.078	7627
2512.03	7589
2513.979	7615
2515.927	7644
2517.877	7464
2519.826	7654
2521.775	7764
2523.722	7645
2525.668	7586
2527.616	7599
2529.561	7540
2531.508	7576
2533.452	7566
2535.398	7670
2537.342	7716
2539.284	7501
2541.229	7663
2543.173	7699
2545.114	7533
2547.055	7648
2548.996	7595
2550.938	7652
2552.878	7575
2554.817	7626
2556.756	7603
2558.695	7613
2560.633	7674
2562.572	7640
2564.509	7677
2566.445	7520
2568.382	7627
2570.317	7641
2572.254	7495
2574.189	7735
2576.123	7612
2578.057	7640
2579.99	7521
2581.923	7479
2583.855	7615
2585.788	7632
2587.719	7640
2589.65	7577
2591.579	7497
2593.511	7540
2595.44	7451
2597.37	7480
2599.297	7617
2601.225	7760
2603.153	7616
2605.08	7625
2607.007	7541
2608.932	7543
2610.858	7514
2612.782	7628
2614.709	7602
2616.632	7604
2618.556	7546
2620.478	7661
2622.401	7640
2624.324	7635
2626.247	7618
2628.167	7569
2630.088	7660
2632.008	7647
2633.928	7620
2635.848	7637
2637.766	7605
2639.684	7573
2641.603	7764
2643.519	7547
2645.437	7652
2647.353	7594
2649.27	7584
2651.184	7561
2653.099	7672
2655.014	7575
2656.928	7676
2658.842	7613
2660.755	7595
2662.667	7573
2664.579	7585
2666.491	7579
2668.402	7589
2670.312	7682
2672.222	7480
2674.132	7567
2676.042	7445
2677.951	7524
2679.859	7554
2681.766	7401
2683.674	7611
2685.582	7461
2687.488	7387
2689.392	7533
2691.298	7416
2693.202	7321
2695.107	7416
2697.012	7474
2698.914	7343
2700.817	7545
2702.72	7416
2704.622	7461
2706.524	7460
2708.425	7321
2710.326	7508
2712.225	7496
2714.125	7346
2716.024	7458
2717.923	7378
2719.822	7403
2721.719	7481
2723.616	7401
2725.512	7442
2727.41	7412
2729.305	7351
2731.201	7427
2733.095	7464
2734.99	7407
2736.884	7397
2738.778	7417
2740.67	7422
2742.562	7313
2744.455	7490
2746.346	7386
2748.238	7436
2750.129	7322
2752.018	7393
2753.907	7229
2755.797	7395
2757.687	7455
2759.575	7406
2761.462	7332
2763.349	7294
2765.237	7433
2767.124	7322
2769.009	7213
2770.894	7360
2772.779	7298
2774.663	7202
2776.547	7393
2778.431	7294
2780.314	7323
2782.197	7280
2784.078	7459
2785.96	7310
2787.842	7424
2789.723	7264
2791.603	7358
2793.483	7277
2795.362	7278
2797.241	7249
2799.121	7238
2800.997	7272
2802.874	7284
2804.751	7252
2806.628	7314
2808.506	7276
2810.38	7302
2812.255	7381
2814.13	7173
2816.003	7276
2817.878	7325
2819.752	7282
2821.623	7332
2823.496	7080
2825.368	7265
2827.238	7111
2829.111	7327
2830.98	7247
2832.851	7241
2834.719	7400
2836.589	7237
2838.458	7334
2840.327	7257
2842.193	7317
2844.061	7183
2845.927	7289
2847.794	7208
2849.66	7383
2851.525	7179
2853.39	7347
2855.254	7243
2857.117	7303
2858.983	7208
2860.845	7307
2862.707	7338
2864.569	7279
2866.431	7446
2868.293	7421
2870.154	7388
2872.013	7453
2873.873	7535
2875.733	7622
2877.592	7610
2879.451	7610
2881.309	7632
2883.166	7787
2885.022	7886
2886.879	7623
2888.736	7659
2890.591	7769
2892.446	7770
2894.301	7801
2896.155	7881
2898.009	7797
2899.863	7716
2901.716	7681
2903.568	7803
2905.419	7784
2907.27	7690
2909.123	7803
2910.973	7789
2912.824	7824
2914.673	7893
2916.521	7956
2918.372	7846
2920.22	7844
2922.067	8132
2923.914	8045
2925.761	8305
2927.607	8222
2929.455	8297
2931.301	8232
2933.144	8341
2934.99	8297
2936.833	8306
2938.678	8564
2940.522	8466
2942.364	8679
2944.207	8705
2946.048	8700
2947.891	8723
2949.731	8608
2951.571	8749
2953.412	8761
2955.25	8595
2957.09	8509
2958.93	8490
2960.767	8369
2962.606	8260
2964.443	8212
2966.279	8066
2968.116	7966
2969.953	8087
2971.788	7986
2973.623	7939
2975.457	7909
2977.292	7811
2979.127	7739
2980.959	7869
2982.792	7798
2984.624	7797
2986.455	7657
2988.288	7819
2990.119	7683
2991.949	7654
2993.779	7638
2995.608	7632
2997.439	7734
2999.268	7462
3001.096	7517
3002.923	7467
3004.751	7354
3006.578	7396
3008.406	7300
3010.232	7207
3012.057	7186
3013.883	7104
3015.706	7142
3017.532	6998
3019.356	7038
3021.179	7021
3023.002	6990
3024.823	6944
3026.646	6904
3028.469	6890
3030.289	6981
3032.11	6820
3033.93	6887
3035.749	6861
3037.57	6797
3039.39	6946
3041.207	6786
3043.026	6787
3044.842	6863
3046.661	6762
3048.477	6873
3050.294	6872
3052.109	6939
3053.925	6842
3055.739	6668
3057.555	6898
3059.368	6745
3061.181	6858
3062.995	6721
3064.807	6835
3066.62	6722
3068.433	6924
3070.243	6773
3072.054	6834
3073.865	6795
3075.675	6723
3077.485	6667
3079.293	6751
3081.102	6656
3082.911	6651
3084.719	6645
3086.527	6645
3088.333	6541
3090.139	6634
3091.945	6667
3093.75	6647
3095.557	6706
3097.361	6598
3099.165	6580
3100.969	6565
3102.772	6640
3104.575	6611
3106.379	6554
3108.181	6555
3109.982	6492
3111.783	6531
3113.584	6533
3115.386	6610
3117.186	6580
3118.985	6404
3120.783	6630
3122.582	6549
3124.381	6507
3126.179	6437
3127.975	6547
3129.772	6483
3131.569	6468
3133.365	6441
3135.161	6434
3136.956	6488
3138.751	6436
3140.544	6318
3142.338	6534
3144.132	6514
3145.925	6366
3147.717	6486
3149.509	6321
3151.301	6358
3153.091	6445
3154.884	6345
3156.673	6458
3158.462	6344
3160.252	6387
3162.041	6344
3163.831	6374
3165.618	6373
3167.405	6404
3169.193	6336
3170.979	6276
3172.767	6340
3174.553	6356
3176.338	6243
3178.123	6392
3179.907	6417
3181.692	6360
3183.477	6498
3185.259	6279
3187.042	6402
3188.824	6400
3190.607	6394
3192.389	6288
3194.17	6290
3195.951	6320
3197.73	6158
3199.51	6282
3201.289	6296
3203.07	6388
3204.848	6312
3206.626	6279
3208.403	6263
3210.18	6300
3211.959	6315
3213.735	6347
3215.511	6177
3217.285	6312
3219.06	6394
3220.836	6293
3222.611	6285
3224.384	6125
3226.158	6147
3227.929	6297
3229.702	6236
3231.476	6290
3233.248	6273
3235.018	6281
3236.789	6302
3238.56	6283
3240.33	6167
3242.1	6230
3243.869	6259
3245.637	6126
3247.405	6242
3249.172	6406
3250.941	6181
3252.707	6244
3254.474	6172
3256.24	6180
3258.006	6240
3259.772	6253
3261.537	6227
3263.301	6250
3265.065	6201
3266.828	6225
3268.592	6258
3270.355	6286
3272.117	6341
3273.878	6287
3275.64	6183
3277.401	6290
3279.162	6256
3280.922	6245
3282.682	6216
3284.441	6170
3286.199	6273
3287.959	6358
3289.716	6216
3291.475	6286
3293.232	6350
3294.988	6257
3296.744	6251
3298.501	6229
3300.256	6242
3302.011	6184
3303.766	6226
3305.52	6282
3307.275	6253
3309.028	6343
3310.781	6183
3312.533	6128
3314.285	6185
3316.038	6168
3317.789	6117
3319.54	6214
3321.289	6149
3323.039	6275
3324.789	6146
3326.539	6209
3328.288	6168
3330.035	6197
3331.783	6165
3333.531	6182
3335.28	6137
3337.025	6128
3338.771	6245
3340.518	6147
3342.262	6088
3344.009	6143
3345.753	6027
3347.497	6072
3349.24	6021
3350.983	6073
3352.726	6158
3354.469	6112
3356.212	6102
3357.952	6062
3359.694	6109
3361.434	5971
3363.176	6002
3364.916	6041
3366.654	6044
3368.394	6200
3370.132	6065
3371.871	6074
3373.61	6175
3375.346	6117
3377.083	5982
3378.82	6027
3380.556	6070
3382.292	5937
3384.027	5940
3385.763	6003
3387.497	6067
3389.231	5985
3390.965	6020
3392.698	5983
3394.431	5951
3396.164	5948
3397.896	5909
3399.627	5874
3401.36	5957
3403.09	5940
3404.82	5865
3406.55	5880
3408.279	6005
3410.01	5963
3411.738	5862
3413.467	5928
3415.194	5890
3416.92	5887
3418.647	5897
3420.375	5890
3422.102	5869
3423.827	5900
3425.553	5864
3427.277	5820
3429.003	5859
3430.727	5817
3432.451	5867
3434.173	5747
3435.896	5861
3437.62	5817
3439.343	5816
3441.063	5765
3442.785	5843
3444.505	5651
3446.226	5832
3447.948	5755
3449.666	5692
3451.386	5752
3453.104	5686
3454.823	5766
3456.541	5727
3458.259	5777
3459.976	5713
3461.693	5616
3463.408	5690
3465.125	5720
3466.841	5633
3468.556	5655
3470.271	5681
3471.985	5623
3473.698	5687
3475.414	5701
3477.126	5637
3478.838	5659
3480.55	5581
3482.263	5552
3483.975	5620
3485.686	5643
3487.396	5569
3489.106	5643
3490.817	5548
3492.526	5493
3494.236	5577
3495.944	5453
3497.652	5559
3499.359	5564
3501.066	5538
3502.775	5400
3504.481	5613
3506.187	5515
3507.893	5426
3509.598	5396
3511.304	5516
3513.009	5523
3514.713	5471
3516.417	5584
3518.12	5474
3519.821	5448
3521.525	5413
3523.228	5429
3524.929	5405
3526.631	5428
3528.33	5287
3530.032	5493
3531.733	5505
3533.433	5440
3535.131	5413
3536.83	5341
3538.529	5461
3540.227	5304
3541.925	5430
3543.623	5445
3545.319	5353
3547.016	5406
3548.712	5411
3550.408	5326
3552.103	5263
3553.798	5363
3555.491	5378
3557.188	5291
3558.88	5332
3560.574	5284
3562.266	5329
3563.959	5332
3565.651	5361
3567.343	5297
3569.035	5309
3570.725	5323
3572.415	5241
3574.106	5214
3575.797	5228
3577.485	5151
3579.174	5210
3580.863	5193
3582.551	5220
3584.238	5289
3585.926	5240
3587.613	5171
3589.3	5164
3590.986	5209
3592.671	5120
3594.357	5158
3596.042	5125
3597.726	5218
3599.41	5136
3601.094	5165
3602.778	5190
3604.461	5157
3606.143	5207
3607.825	5078
3609.507	5104
3611.188	5018
3612.87	5132
3614.551	5077
3616.229	5101
3617.909	5134
3619.589	4937
3621.269	5091
3622.948	5049
3624.625	5027
3626.302	4941
3627.98	4934
3629.657	5030
3631.334	5000
3633.01	4993
3634.686	4964
3636.361	4956
3638.036	4909
3639.712	5003
3641.385	5007
3643.06	5022
3644.732	4819
3646.405	4875
3648.08	5005
3649.751	4892
3651.424	4852
3653.094	4945
3654.766	4916
3656.436	4889
3658.106	5001
3659.777	4805
3661.446	4900
3663.115	4903
3664.783	4843
3666.452	4775
3668.121	4880
3669.788	4896
3671.454	4823
3673.121	4807
3674.789	4782
3676.455	4808
3678.12	4815
3679.784	4906
3681.45	4787
3683.114	4746
3684.779	4819
3686.442	4727
3688.105	4780
3689.768	4833
3691.43	4858
3693.093	4783
3694.754	4754
3696.415	4815
3698.076	4768
3699.736	4786
3701.396	4770
3703.057	4672
3704.716	4749
3706.375	4683
3708.034	4797
3709.692	4682
3711.351	4737
3713.008	4730
3714.665	4676
3716.321	4742
3717.977	4690
3719.634	4723
3721.29	4737
3722.945	4634
3724.598	4630
3726.253	4780
3727.907	4608
3729.561	4671
3731.214	4710
3732.867	4719
3734.518	4764
3736.171	4588
3737.824	4726
3739.474	4675
3741.125	4576
3742.775	4588
3744.425	4623
3746.074	4675
3747.725	4719
3749.373	4629
3751.022	4617
3752.669	4673
3754.318	4728
3755.966	4642
3757.612	4633
3759.259	4593
3760.905	4551
3762.55	4582
3764.197	4601
3765.842	4659
3767.486	4571
3769.131	4638
3770.774	4435
3772.417	4632
3774.061	4487
3775.705	4457
3777.347	4525
3778.988	4666
3780.629	4517
3782.271	4450
3783.912	4483
3785.552	4624
3787.192	4488
3788.831	4542
3790.472	4497
3792.112	4478
3793.75	4467
3795.388	4482
3797.024	4479
3798.661	4462
3800.3	4441
3801.936	4350
3803.572	4520
3805.208	4453
3806.844	4467
3808.48	4450
3810.115	4530
3811.748	4419
3813.382	4410
3815.016	4320
3816.649	4445
3818.283	4470
3819.914	4410
3821.547	4394
3823.178	4439
3824.809	4397
3826.441	4372
3828.072	4378
3829.701	4315
3831.331	4328
3832.96	4351
3834.591	4405
3836.219	4420
3837.847	4307
3839.475	4291
3841.102	4343
3842.729	4379
3844.357	4289
3845.984	4410
3847.609	4308
3849.234	4373
3850.86	4342
3852.485	4393
3854.11	4201
3855.734	4322
3857.357	4269
3858.981	4378
3860.603	4219
3862.227	4338
3863.848	4303
3865.471	4292
3867.092	4301
3868.713	4247
3870.334	4324
3871.954	4225
3873.575	4291
3875.194	4321
3876.813	4347
3878.433	4294
3880.051	4273
3881.669	4294
3883.286	4279
3884.904	4281
3886.52	4299
3888.138	4191
3889.754	4277
3891.37	4299
3892.985	4246
3894.6	4189
3896.216	4201
3897.831	4208
3899.444	4225
3901.058	4249
3902.67	4271
3904.283	4263
3905.897	4214
3907.509	4281
3909.121	4205
3910.731	4199
3912.342	4222
3913.954	4263
3915.563	4246
3917.174	4283
3918.783	4170
3920.391	4235
3922.002	4224
3923.611	4263
3925.218	4125
3926.826	4220
3928.432	4124
3930.039	4150
3931.647	4127
3933.253	4196
3934.859	4117
3936.464	4159
3938.068	4177
3939.675	4107
3941.278	4226
3942.883	4115
3944.486	4138
3946.089	4138
3947.692	4108
3949.295	4168
3950.898	4106
3952.499	4137
3954.1	4082
3955.7	4064
3957.303	4149
3958.903	4107
3960.502	4083
3962.101	4133
3963.7	4009
3965.301	4058
3966.899	4043
3968.497	4097
3970.094	4050
3971.691	4078
3973.288	4098
3974.885	4038
3976.481	4033
3978.077	4050
3979.672	4044
3981.267	4095
3982.863	4052
3984.457	3998
3986.051	3943
3987.645	3931
3989.238	4034
3990.831	3977
3992.425	3906
3994.017	3921
3995.607	3997
3997.199	3918
3998.79	3929
4000.382	3914
4001.973	3997
4003.561	4036
4005.151	3922
4006.741	3989
4008.331	3994
4009.918	3878
4011.507	3939
4013.095	3954
4014.681	3880
4016.269	3941
4017.856	3808
4019.443	3975
4021.028	3930
4022.614	3843
4024.199	3795
4025.785	3830
4027.37	3866
4028.953	3928
4030.536	3808
4032.12	3882
4033.704	3722
4035.287	3887
4036.869	3895
4038.45	3896
4040.032	3877
4041.613	3868
4043.195	3815
4044.776	3788
4046.356	3759
4047.935	3823
4049.515	3769
4051.095	3771
4052.674	3769
4054.251	3789
4055.829	3885
4057.406	3791
4058.985	3787
4060.562	3755
4062.139	3704
4063.715	3814
4065.29	3784
4066.865	3742
4068.442	3785
4070.016	3761
4071.59	3821
4073.164	3732
4074.738	3701
4076.312	3754
4077.885	3658
4079.458	3568
4081.03	3668
4082.602	3777
4084.173	3743
4085.745	3757
4087.315	3646
4088.886	3704
4090.456	3738
4092.026	3756
4093.596	3728
4095.165	3638
4096.734	3692
4098.301	3667
4099.869	3709
4101.437	3698
4103.006	3746
4104.572	3648
4106.139	3725
4107.704	3690
4109.27	3695
4110.837	3743
4112.401	3607
4113.966	3622
4115.53	3592
4117.094	3679
4118.659	3696
4120.223	3670
4121.785	3584
4123.347	3609
4124.909	3665
4126.471	3635
4128.034	3625
4129.595	3657
4131.155	3538
4132.716	3550
4134.275	3578
4135.836	3543
4137.395	3644
4138.955	3512
4140.513	3511
4142.071	3567
4143.628	3479
4145.188	3532
4146.745	3615
4148.302	3514
4149.858	3499
4151.414	3548
4152.971	3481
4154.526	3467
4156.081	3496
4157.635	3537
4159.189	3515
4160.745	3503
4162.298	3544
4163.852	3464
4165.405	3495
4166.957	3519
4168.51	3490
4170.063	3397
4171.614	3469
4173.166	3409
4174.717	3458
4176.267	3450
4177.817	3432
4179.368	3532
4180.917	3489
4182.466	3439
4184.016	3452
4185.564	3505
4187.112	3423
4188.66	3407
4190.207	3382
4191.754	3307
4193.301	3404
4194.848	3449
4196.394	3412
4197.94	3377
4199.484	3454
4201.03	3430
4202.575	3352
4204.12	3353
4205.663	3364
4207.207	3370
4208.75	3364
4210.292	3377
4211.836	3354
4213.378	3289
4214.92	3422
4216.46	3363
4218.002	3380
4219.544	3338
4221.083	3485
4222.625	3376
4224.164	3421
4225.703	3342
4227.244	3278
4228.782	3403
4230.32	3385
4231.857	3334
4233.395	3350
4234.933	3271
4236.471	3348
4238.007	3352
4239.542	3334
4241.078	3301
4242.614	3365
4244.15	3313
4245.685	3287
4247.219	3241
4248.753	3239
4250.287	3332
4251.82	3271
4253.354	3309
4254.887	3209
4256.419	3320
4257.951	3265
4259.483	3355
4261.016	3247
4262.547	3399
4264.078	3250
4265.608	3264
4267.137	3295
4268.668	3248
4270.197	3261
4271.727	3291
4273.254	3313
4274.783	3318
4276.311	3237
4277.84	3257
4279.366	3256
4280.894	3276
4282.42	3213
4283.946	3271
4285.473	3227
4286.998	3205
4288.523	3228
4290.047	3194
4291.572	3212
4293.096	3191
4294.622	3201
4296.144	3207
4297.668	3216
4299.19	3215
4300.713	3188
4302.236	3177
4303.758	3180
4305.279	3181
4306.799	3141
4308.321	3103
4309.842	3222
4311.361	3200
4312.882	3122
4314.401	3139
