400.0961	7092
402.6185	7124
405.1424	7067
407.6635	7100
410.1838	7091
412.7035	7165
415.2225	7236
417.7388	7279
420.2585	7327
422.7754	7338
425.2917	7496
427.8072	7480
430.3221	7585
432.8363	7581
435.3498	7721
437.8626	7724
440.3727	7500
442.8841	7586
445.3969	7577
447.907	7579
450.4142	7723
452.9229	7604
455.4289	7599
457.9362	7673
460.4449	7611
462.9488	7670
465.454	7638
467.9566	7703
470.4604	7654
472.9637	7692
475.4662	7723
477.966	7736
480.4671	7748
482.9656	7821
485.4633	7803
487.9645	7797
490.4608	7745
492.9566	7753
495.4536	7781
497.948	7922
500.4437	7799
502.9387	7924
505.431	7956
507.9226	7971
510.4136	8018
512.9079	8066
515.3975	7978
517.8864	7997
520.3746	7889
522.8622	8082
525.3491	8029
527.8394	7911
530.3249	7926
532.8098	8136
535.2939	7934
537.7774	8110
540.2623	8028
542.7444	8007
545.2259	7994
547.7067	7997
550.1868	8217
552.6683	8011
555.147	8089
557.6231	8099
560.1005	8054
562.5773	8091
565.0534	8028
567.5308	8151
570.0056	8110
572.4776	8253
574.951	8185
577.4237	8260
579.8978	8327
582.3671	8435
584.8378	8221
587.3079	8384
589.7773	8320
592.244	8436
594.714	8435
597.1793	8321
599.6461	8284
602.1121	8289
604.5754	8435
607.0421	8239
609.5042	8328
611.9675	8323
614.4282	8228
616.8902	8379
619.3515	8313
621.8122	8332
624.2702	8348
626.7296	8258
629.1863	8315
631.6423	8414
634.1017	8182
636.5563	8265
639.0104	8389
641.4658	8427
643.9185	8387
646.3725	8318
648.8239	8355
651.2766	8390
653.7266	8407
656.176	8367
658.6247	8430
661.0748	8350
663.5242	8619
665.9709	8568
668.417	8606
670.8624	8572
673.3092	8511
675.7533	8667
678.1968	8702
680.6395	8690
683.0817	8626
685.5251	8686
687.9659	8608
690.4061	8634
692.8456	8654
695.2844	8713
697.7226	8623
700.1621	8692
702.599	8819
705.0332	8823
707.4688	8826
709.9036	8746
712.3399	8733
714.7735	8827
717.2044	8850
719.6367	9001
722.0683	8771
724.4993	8919
726.9296	8917
729.3593	8972
731.7883	8885
734.2147	8990
736.6423	9033
739.0714	9090
741.4958	8964
743.9216	9101
746.3447	8994
748.7691	9154
751.1929	9141
753.616	9303
756.0366	9253
758.4584	9118
760.8776	9321
763.2982	9270
765.718	9188
768.1373	9344
770.5539	9253
772.9698	9294
775.3871	9324
777.8038	9455
780.2178	9320
782.6332	9377
785.0459	9249
787.458	9252
789.8714	9335
792.2842	9360
794.6943	9338
797.1038	9366
799.5127	9450
801.9209	9367
804.3324	9266
806.7393	9311
809.1456	9400
811.5513	9411
813.9562	9443
816.3625	9469
818.7663	9399
821.1693	9358
823.5718	9542
825.9735	9496
828.3746	9511
830.7771	9372
833.177	9543
835.5762	9535
837.9747	9580
840.3727	9452
842.772	9451
845.1666	9606
847.5626	9694
849.958	9785
852.3527	9718
854.7488	9671
857.1403	9614
859.5331	9629
861.9253	9609
864.3168	9516
866.7057	9558
869.098	9661
871.4876	9590
873.8746	9542
876.263	9684
878.6487	9565
881.0378	9528
883.4243	9531
885.8081	9581
888.1933	9635
890.5759	9536
892.9598	9578
895.343	9601
897.7256	9769
900.1057	9623
902.4871	9653
904.8659	9690
907.246	9630
909.6254	9800
912.0023	9665
914.3786	9780
916.7562	9804
919.1331	9915
921.5074	10118
923.8831	9955
926.2562	10034
928.6287	10040
931.0005	10012
933.3757	9968
935.7462	10113
938.1162	10137
940.4855	10160
942.8542	10194
945.2242	10337
947.5916	10286
949.9584	10629
952.3266	10470
954.6921	10860
957.0571	11135
959.4233	11454
961.787	11370
964.15	11602
966.5125	11314
968.8742	10986
971.2354	10583
973.5959	10556
975.9559	10402
978.3151	10243
980.6738	10053
983.0338	9963
985.3912	10074
987.7461	10020
990.1022	9931
992.4578	9968
994.8127	9989
997.1689	9924
999.5207	9938
1001.874	10017
1004.226	10034
1006.576	10011
1008.929	9989
1011.28	10058
1013.628	9949
1015.977	10007
1018.324	9876
1020.674	9950
1023.019	9886
1025.366	10090
1027.713	10023
1030.056	10269
1032.399	10200
1034.746	10060
1037.087	10075
1039.431	10020
1041.771	10063
1044.113	10126
1046.454	10240
1048.793	10128
1051.133	10220
1053.471	10088
1055.807	10262
1058.146	10246
1060.483	10123
1062.818	10296
1065.153	10168
1067.489	10111
1069.822	10266
1072.156	10441
1074.488	10299
1076.82	10078
1079.15	10359
1081.48	10314
1083.814	10198
1086.143	10316
1088.471	10280
1090.799	10346
1093.126	10131
1095.452	10238
1097.78	10206
1100.105	10281
1102.43	10227
1104.754	10131
1107.077	10060
1109.4	10161
1111.722	10215
1114.044	10283
1116.365	10378
1118.685	10108
1121.005	10237
1123.324	10491
1125.643	10279
1127.961	10394
1130.278	10363
1132.595	10263
1134.911	10276
1137.226	10411
1139.541	10251
1141.854	10244
1144.167	10308
1146.482	10383
1148.793	10313
1151.105	10349
1153.414	10417
1155.725	10338
1158.033	10307
1160.344	10337
1162.651	10334
1164.959	10431
1167.265	10423
1169.572	10330
1171.878	10257
1174.184	10319
1176.488	10186
1178.79	10323
1181.094	10280
1183.396	10331
1185.699	10394
1188.001	10397
1190.301	10172
1192.6	10459
1194.9	10342
1197.2	10297
1199.497	10239
1201.794	10400
1204.09	10223
1206.387	10365
1208.684	10332
1210.978	10374
1213.272	10339
1215.565	10194
1217.858	10468
1220.15	10432
1222.443	10542
1224.734	10330
1227.024	10615
1229.313	10466
1231.602	10466
1233.892	10457
1236.18	10577
1238.467	10515
1240.754	10664
1243.04	10727
1245.325	10607
1247.612	10615
1249.896	10580
1252.178	10579
1254.461	10599
1256.743	10726
1259.027	10703
1261.308	10647
1263.587	10575
1265.867	10698
1268.146	10597
1270.425	10817
1272.703	10583
1274.981	10633
1277.256	10802
1279.532	10689
1281.808	10610
1284.083	10540
1286.358	10677
1288.63	10533
1290.904	10570
1293.175	10471
1295.449	10548
1297.719	10529
1299.99	10592
1302.259	10613
1304.529	10605
1306.798	10536
1309.065	10455
1311.333	10502
1313.599	10409
1315.866	10679
1318.131	10467
1320.396	10602
1322.66	10601
1324.925	10531
1327.187	10662
1329.448	10563
1331.711	10574
1333.974	10621
1336.234	10597
1338.493	10616
1340.752	10667
1343.01	10613
1345.269	10500
1347.526	10639
1349.784	10590
1352.04	10548
1354.295	10553
1356.552	10526
1358.806	10580
1361.059	10646
1363.312	10756
1365.564	10584
1367.818	10651
1370.069	10651
1372.318	10604
1374.568	10640
1376.817	10756
1379.066	10708
1381.316	10705
1383.564	10542
1385.809	10706
1388.056	10629
1390.301	10687
1392.549	10511
1394.793	10775
1397.036	10900
1399.279	10763
1401.522	10813
1403.763	10901
1406.007	10777
1408.248	10757
1410.487	10884
1412.727	10920
1414.965	10814
1417.205	10923
1419.442	10742
1421.68	10765
1423.915	11059
1426.152	10686
1428.388	10848
1430.623	10797
1432.857	11026
1435.091	10882
1437.323	10929
1439.556	10996
1441.789	11025
1444.019	10920
1446.25	10998
1448.48	11073
1450.708	11132
1452.938	11113
1455.167	11096
1457.394	10981
1459.62	11107
1461.846	11028
1464.073	11135
1466.299	11086
1468.523	11017
1470.746	11068
1472.969	10841
1475.191	10857
1477.415	10701
1479.636	10923
1481.858	10842
1484.078	10662
1486.298	10714
1488.518	10801
1490.736	10760
1492.954	10701
1495.169	10835
1497.386	10520
1499.602	10661
1501.819	10832
1504.034	10619
1506.248	10499
1508.462	10585
1510.675	10660
1512.888	10522
1515.1	10627
1517.311	10664
1519.522	10644
1521.732	10702
1523.942	10597
1526.151	10427
1528.36	10648
1530.566	10603
1532.773	10663
1534.98	10672
1537.187	10731
1539.392	10758
1541.596	10663
1543.801	10658
1546.005	10619
1548.208	10514
1550.411	10671
1552.612	10760
1554.814	10801
1557.013	10788
1559.212	10861
1561.414	10847
1563.612	10781
1565.811	10960
1568.007	10858
1570.203	11094
1572.403	10846
1574.598	10905
1576.792	10760
1578.988	11064
1581.181	10934
1583.376	10894
1585.568	10930
1587.761	10976
1589.952	11003
1592.143	11002
1594.333	11044
1596.524	10945
1598.715	11004
1600.903	10976
1603.091	10993
1605.278	11113
1607.466	10979
1609.652	10971
1611.838	11055
1614.023	11078
1616.207	11073
1618.391	10906
1620.576	10956
1622.759	11142
1624.941	10993
1627.123	10937
1629.304	11162
1631.484	11014
1633.664	11095
1635.844	11036
1638.022	11053
1640.201	11120
1642.38	11191
1644.556	10948
1646.732	11143
1648.908	11068
1651.084	10984
1653.257	11023
1655.433	11156
1657.607	11057
1659.779	11056
1661.951	11105
1664.122	11105
1666.295	11141
1668.467	11017
1670.635	11085
1672.805	11188
1674.973	11191
1677.142	11140
1679.31	11084
1681.478	11149
1683.644	11057
1685.81	11155
1687.975	11131
1690.142	11027
1692.305	11195
1694.468	11074
1696.632	11175
1698.794	11026
1700.957	11047
1703.119	11164
1705.279	10953
1707.439	11052
1709.598	10877
1711.758	10978
1713.917	10872
1716.075	11009
1718.231	11044
1720.388	10894
1722.543	11030
1724.702	11080
1726.856	11064
1729.01	10908
1731.164	10886
1733.317	10909
1735.471	10956
1737.623	11031
1739.774	11035
1741.925	10898
1744.075	10894
1746.225	11026
1748.376	10987
1750.524	11079
1752.672	11064
1754.82	11040
1756.965	11147
1759.113	10980
1761.259	10924
1763.405	11110
1765.549	11021
1767.694	11057
1769.836	11048
1771.981	11094
1774.123	11061
1776.264	11140
1778.405	11112
1780.546	10988
1782.687	11209
1784.827	11050
1786.966	11083
1789.103	11013
1791.242	11149
1793.381	11115
1795.517	11138
1797.653	11065
1799.788	11227
1801.923	11124
1804.057	11235
1806.193	11017
1808.326	11145
1810.457	10999
1812.59	11148
1814.721	11079
1816.855	11152
1818.984	10957
1821.113	11065
1823.244	10953
1825.372	11175
1827.499	11104
1829.63	11175
1831.756	11048
1833.882	11050
1836.007	10972
1838.132	10735
1840.26	11068
1842.384	11073
1844.507	11093
1846.63	11025
1848.752	11092
1850.875	10905
1852.996	11076
1855.118	10940
1857.238	11006
1859.358	10809
1861.477	10925
1863.597	11127
1865.715	10945
1867.832	11042
1869.948	11031
1872.064	11062
1874.181	10971
1876.297	10922
1878.411	11033
1880.526	10919
1882.639	11020
1884.752	11087
1886.865	10983
1888.977	11073
1891.089	10996
1893.2	11058
1895.308	10968
1897.42	11093
1899.53	11141
1901.639	11132
1903.745	10855
1905.853	11244
1907.962	11032
1910.067	10999
1912.174	11057
1914.278	11275
1916.383	11086
1918.486	11048
1920.592	11092
1922.694	11157
1924.797	11064
1926.898	11030
1929	11292
1931.102	11183
1933.203	11106
1935.301	11223
1937.401	11265
1939.499	11226
1941.598	11117
1943.697	11182
1945.793	11039
1947.888	11174
1949.985	11175
1952.08	11206
1954.176	11099
1956.269	11281
1958.364	11097
1960.457	11013
1962.549	11204
1964.642	11189
1966.733	11148
1968.823	11245
1970.913	11123
1973.005	11084
1975.093	10924
1977.184	11050
1979.271	11111
1981.359	11084
1983.446	11126
1985.532	10924
1987.619	11247
1989.705	11041
1991.789	11121
1993.874	11050
1995.956	11131
1998.041	11001
2000.123	11062
2002.206	10972
2004.287	11028
2006.368	11022
2008.449	10893
2010.529	11113
2012.609	10999
2014.688	11053
2016.766	11010
2018.843	11007
2020.922	10988
2022.999	10858
2025.074	10954
2027.15	11000
2029.225	11184
2031.299	10995
2033.375	10965
2035.447	11128
2037.52	10774
2039.592	11025
2041.664	10877
2043.736	11041
2045.807	10918
2047.876	11016
2049.947	10931
2052.015	10961
2054.086	11118
2056.153	10969
2058.221	10890
2060.288	10905
2062.353	11056
2064.42	11049
2066.486	10981
2068.55	11042
2070.614	11046
2072.678	11012
2074.741	10944
2076.805	11019
2078.866	11061
2080.929	11029
2082.99	10959
2085.049	10985
2087.109	10973
2089.17	10835
2091.228	11057
2093.286	10938
2095.344	10946
2097.4	11001
2099.46	10981
2101.516	11106
2103.572	11122
2105.626	11024
2107.679	11044
2109.735	11105
2111.788	11074
2113.841	11038
2115.894	11022
2117.945	10942
2119.997	11023
2122.049	10813
2124.1	10831
2126.148	11003
2128.197	10969
2130.246	10890
2132.296	10930
2134.342	10942
2136.39	10999
2138.437	10957
2140.483	10891
2142.527	10928
2144.574	10990
2146.619	10916
2148.661	11061
2150.705	10927
2152.747	10990
2154.792	10801
2156.832	10979
2158.874	10638
2160.915	10883
2162.954	10941
2164.995	10863
2167.034	10922
2169.072	10757
2171.111	10789
2173.148	10918
2175.186	10769
2177.223	10754
2179.258	10676
2181.294	10717
2183.328	10768
2185.362	10755
2187.398	10968
2189.431	10765
2191.463	10651
2193.495	10846
2195.528	10607
2197.56	10692
2199.59	10698
2201.62	10739
2203.649	10705
2205.678	10706
2207.708	10590
2209.737	10641
2211.764	10782
2213.791	10619
2215.817	10774
2217.843	10756
2219.87	10664
2221.895	10729
2223.919	10561
2225.942	10690
2227.966	10694
2229.988	10605
2232.012	10659
2234.032	10744
2236.054	10590
2238.074	10646
2240.095	10504
2242.116	10576
2244.135	10742
2246.153	10616
2248.171	10659
2250.188	10697
2252.208	10609
2254.223	10713
2256.239	10690
2258.255	10751
2260.269	10504
2262.283	10621
2264.3	10528
2266.312	10547
2268.325	10766
2270.336	10596
2272.349	10707
2274.362	10674
2276.372	10783
2278.383	10712
2280.392	10620
2282.402	10594
2284.409	10771
2286.418	10562
2288.427	10661
2290.433	10530
2292.441	10729
2294.446	10666
2296.453	10630
2298.459	10696
2300.463	10726
2302.466	10535
2304.471	10515
2306.475	10704
2308.477	10519
2310.478	10616
2312.481	10503
2314.481	10546
2316.481	10600
2318.482	10535
2320.482	10385
2322.48	10575
2324.48	10504
2326.478	10462
2328.476	10534
2330.473	10490
2332.469	10490
2334.465	10295
2336.46	10496
2338.454	10433
2340.45	10345
2342.444	10493
2344.437	10308
2346.43	10340
2348.421	10430
2350.414	10426
2352.405	10364
2354.396	10401
2356.386	10401
2358.376	10412
2360.366	10352
2362.355	10422
2364.343	10415
2366.331	10455
2368.317	10375
2370.304	10301
2372.292	10215
2374.278	10348
2376.262	10373
2378.247	10261
2380.23	10411
2382.216	10130
2384.199	10111
2386.181	10279
2388.163	10249
2390.144	10341
2392.127	10298
2394.107	10254
2396.087	10154
2398.066	10341
2400.046	10302
2402.023	10143
2404.004	10280
2405.981	10183
2407.957	10308
2409.934	10172
2411.91	9975
2413.886	10281
2415.862	10116
2417.836	10249
2419.809	10298
2421.784	10187
2423.756	10265
2425.73	10234
2427.701	10245
2429.672	10204
2431.644	10146
2433.615	10173
2435.586	10024
2437.555	10209
2439.523	10114
2441.491	10132
2443.459	10228
2445.428	10182
2447.395	10151
2449.361	10312
2451.327	10237
2453.292	10044
2455.257	10165
2457.223	10232
2459.187	10120
2461.15	10180
2463.113	9994
2465.076	10161
2467.039	10070
2468.999	10307
2470.96	10110
2472.921	10098
2474.881	10244
2476.841	9896
2478.8	10235
2480.759	10052
2482.717	10096
2484.675	10082
2486.63	10013
2488.589	10044
2490.545	10122
2492.5	9991
2494.455	9996
2496.408	9994
2498.364	10204
2500.318	10065
2502.27	9998
2504.223	9987
2506.174	9948
2508.126	10060
2510.078	9907
2512.03	10064
2513.979	9934
2515.927	9980
2517.877	9974
2519.826	9892
2521.775	9980
2523.722	9906
2525.668	10008
2527.616	9905
2529.561	10018
2531.508	9990
2533.452	9963
2535.398	10045
2537.342	9921
2539.284	9851
2541.229	10048
2543.173	10013
2545.114	9856
2547.055	9836
2548.996	10008
2550.938	9766
2552.878	9933
2554.817	9961
2556.756	9733
2558.695	9830
2560.633	9834
2562.572	9934
2564.509	10040
2566.445	9896
2568.382	9937
2570.317	9866
2572.254	9965
2574.189	9897
2576.123	10064
2578.057	9871
2579.99	9852
2581.923	9901
2583.855	9950
2585.788	9966
2587.719	9907
2589.65	9919
2591.579	9942
2593.511	9986
2595.44	9886
2597.37	9802
2599.297	9967
2601.225	9888
2603.153	9876
2605.08	9928
2607.007	9956
2608.932	9833
2610.858	9883
2612.782	9882
2614.709	9885
2616.632	9989
2618.556	9826
2620.478	9966
2622.401	9910
2624.324	9925
2626.247	9781
2628.167	9861
2630.088	9972
2632.008	9762
2633.928	9954
2635.848	9798
2637.766	9920
2639.684	10025
2641.603	9865
2643.519	9821
2645.437	9876
2647.353	9867
2649.27	9936
2651.184	9749
2653.099	9833
2655.014	9804
2656.928	10002
2658.842	9786
2660.755	9789
2662.667	9796
2664.579	9719
2666.491	9677
2668.402	9715
2670.312	9775
2672.222	9783
2674.132	9943
2676.042	9729
2677.951	9803
2679.859	9675
2681.766	9787
2683.674	9760
2685.582	9619
2687.488	9752
2689.392	9845
2691.298	9664
2693.202	9697
2695.107	9651
2697.012	9736
2698.914	9615
2700.817	9605
2702.72	9659
2704.622	9701
2706.524	9713
2708.425	9688
2710.326	9756
2712.225	9580
2714.125	9695
2716.024	9750
2717.923	9476
2719.822	9600
2721.719	9575
2723.616	9528
2725.512	9668
2727.41	9621
2729.305	9564
2731.201	9569
2733.095	9567
2734.99	9524
2736.884	9611
2738.778	9477
2740.67	9588
2742.562	9515
2744.455	9626
2746.346	9606
2748.238	9417
2750.129	9569
2752.018	9597
2753.907	9609
2755.797	9531
2757.687	9569
2759.575	9475
2761.462	9385
2763.349	9304
2765.237	9412
2767.124	9406
2769.009	9519
2770.894	9539
2772.779	9415
2774.663	9526
2776.547	9404
2778.431	9500
2780.314	9382
2782.197	9487
2784.078	9413
2785.96	9484
2787.842	9420
2789.723	9495
2791.603	9487
2793.483	9447
2795.362	9368
2797.241	9465
2799.121	9328
2800.997	9338
2802.874	9500
2804.751	9329
2806.628	9396
2808.506	9328
2810.38	9470
2812.255	9426
2814.13	9348
2816.003	9385
2817.878	9499
2819.752	9278
2821.623	9372
2823.496	9364
2825.368	9252
2827.238	9253
2829.111	9277
2830.98	9302
2832.851	9404
2834.719	9395
2836.589	9289
2838.458	9385
2840.327	9236
2842.193	9268
2844.061	9401
2845.927	9254
2847.794	9489
2849.66	9440
2851.525	9320
2853.39	9467
2855.254	9427
2857.117	9343
2858.983	9305
2860.845	9435
2862.707	9396
2864.569	9351
2866.431	9650
2868.293	9387
2870.154	9512
2872.013	9607
2873.873	9614
2875.733	9574
2877.592	9611
2879.451	9762
2881.309	9745
2883.166	9681
2885.022	9991
2886.879	9849
2888.736	9889
2890.591	9763
2892.446	9826
2894.301	9926
2896.155	9848
2898.009	9975
2899.863	9786
2901.716	9857
2903.568	9882
2905.419	9812
2907.27	9707
2909.123	9860
2910.973	9865
2912.824	9742
2914.673	9771
2916.521	9723
2918.372	10004
2920.22	9975
2922.067	9924
2923.914	10184
2925.761	9947
2927.607	10062
2929.455	10267
2931.301	10277
2933.144	10217
2934.99	10382
2936.833	10364
2938.678	10319
2940.522	10401
2942.364	10568
2944.207	10565
2946.048	10590
2947.891	10662
2949.731	10659
2951.571	10629
2953.412	10702
2955.25	10376
2957.09	10391
2958.93	10505
2960.767	10478
2962.606	10356
2964.443	10188
2966.279	10117
2968.116	10044
2969.953	9990
2971.788	10082
2973.623	9887
2975.457	9840
2977.292	9861
2979.127	9760
2980.959	9678
2982.792	9644
2984.624	9701
2986.455	9654
2988.288	9683
2990.119	9631
2991.949	9452
2993.779	9429
2995.608	9424
2997.439	9438
2999.268	9382
3001.096	9182
3002.923	9361
3004.751	9158
3006.578	9276
3008.406	9105
3010.232	9160
3012.057	9211
3013.883	9044
3015.706	9093
3017.532	9067
3019.356	8973
3021.179	8978
3023.002	8926
3024.823	8793
3026.646	8905
3028.469	8795
3030.289	8876
3032.11	8753
3033.93	8791
3035.749	8786
3037.57	8775
3039.39	8656
3041.207	8811
3043.026	8745
3044.842	8831
3046.661	8750
3048.477	8818
3050.294	8767
3052.109	8610
3053.925	8607
3055.739	8644
3057.555	8819
3059.368	8556
3061.181	8693
3062.995	8560
3064.807	8727
3066.62	8597
3068.433	8704
3070.243	8648
3072.054	8712
3073.865	8626
3075.675	8609
3077.485	8666
3079.293	8668
3081.102	8442
3082.911	8514
3084.719	8564
3086.527	8531
3088.333	8536
3090.139	8603
3091.945	8480
3093.75	8456
3095.557	8424
3097.361	8670
3099.165	8465
3100.969	8353
3102.772	8478
3104.575	8296
3106.379	8410
3108.181	8458
3109.982	8354
3111.783	8255
3113.584	8375
3115.386	8339
3117.186	8345
3118.985	8351
3120.783	8232
3122.582	8315
3124.381	8305
3126.179	8271
3127.975	8240
3129.772	8258
3131.569	8336
3133.365	8225
3135.161	8223
3136.956	8243
3138.751	8393
3140.544	8061
3142.338	8231
3144.132	8239
3145.925	8271
3147.717	8222
3149.509	8159
3151.301	8220
3153.091	8255
3154.884	8087
3156.673	8197
3158.462	8165
3160.252	8094
3162.041	8074
3163.831	8207
3165.618	8116
3167.405	8159
3169.193	8218
3170.979	8064
3172.767	8203
3174.553	8122
3176.338	8074
3178.123	8152
3179.907	8003
3181.692	8022
3183.477	8085
3185.259	8127
3187.042	8060
3188.824	7981
3190.607	7990
3192.389	8026
3194.17	8031
3195.951	8019
3197.73	7988
3199.51	8009
3201.289	7805
3203.07	8090
3204.848	7999
3206.626	7946
3208.403	7982
3210.18	8103
3211.959	7917
3213.735	7920
3215.511	7964
3217.285	7967
3219.06	8004
3220.836	8028
3222.611	7995
3224.384	7863
3226.158	7877
3227.929	7932
3229.702	8042
3231.476	8036
3233.248	7876
3235.018	7775
3236.789	7954
3238.56	7975
3240.33	7947
3242.1	7960
3243.869	7876
3245.637	7800
3247.405	7897
3249.172	7837
3250.941	8020
3252.707	7806
3254.474	8008
3256.24	7794
3258.006	7819
3259.772	7960
3261.537	7977
3263.301	7907
3265.065	7816
3266.828	8015
3268.592	7898
3270.355	7784
3272.117	7802
3273.878	7849
3275.64	7922
3277.401	7808
3279.162	7768
3280.922	7836
3282.682	7866
3284.441	7953
3286.199	7813
3287.959	7836
3289.716	7733
3291.475	7786
3293.232	7820
3294.988	7835
3296.744	7926
3298.501	7935
3300.256	7776
3302.011	7750
3303.766	7873
3305.52	7904
3307.275	7688
3309.028	7813
3310.781	7804
3312.533	7775
3314.285	7802
3316.038	7817
3317.789	7811
3319.54	7720
3321.289	7801
3323.039	7725
3324.789	7886
3326.539	7743
3328.288	7748
3330.035	7782
3331.783	7786
3333.531	7800
3335.28	7642
3337.025	7667
3338.771	7653
3340.518	7813
3342.262	7697
3344.009	7738
3345.753	7754
3347.497	7695
3349.24	7597
3350.983	7597
3352.726	7600
3354.469	7656
3356.212	7665
3357.952	7658
3359.694	7648
3361.434	7593
3363.176	7444
3364.916	7627
3366.654	7497
3368.394	7648
3370.132	7522
3371.871	7612
3373.61	7586
3375.346	7555
3377.083	7562
3378.82	7472
3380.556	7535
3382.292	7400
3384.027	7501
3385.763	7628
3387.497	7503
3389.231	7409
3390.965	7510
3392.698	7538
3394.431	7534
3396.164	7434
3397.896	7527
3399.627	7494
3401.36	7424
3403.09	7531
3404.82	7485
3406.55	7458
3408.279	7453
3410.01	7532
3411.738	7456
3413.467	7486
3415.194	7409
3416.92	7452
3418.647	7415
3420.375	7368
3422.102	7388
3423.827	7332
3425.553	7518
3427.277	7367
3429.003	7404
3430.727	7327
3432.451	7378
3434.173	7356
3435.896	7438
3437.62	7374
3439.343	7364
3441.063	7215
3442.785	7296
3444.505	7281
3446.226	7302
3447.948	7340
3449.666	7278
3451.386	7236
3453.104	7315
3454.823	7264
3456.541	7082
3458.259	7219
3459.976	7068
3461.693	7238
3463.408	7216
3465.125	7253
3466.841	7079
3468.556	7037
3470.271	7178
3471.985	7114
3473.698	7157
3475.414	7205
3477.126	7167
3478.838	7023
3480.55	7115
3482.263	7037
3483.975	7118
3485.686	7110
3487.396	6989
3489.106	6936
3490.817	6999
3492.526	7042
3494.236	6981
3495.944	6996
3497.652	6951
3499.359	6978
3501.066	6896
3502.775	7023
3504.481	7048
3506.187	6907
3507.893	7057
3509.598	6834
3511.304	7038
3513.009	6940
3514.713	6818
3516.417	6787
3518.12	6955
3519.821	6878
3521.525	6873
3523.228	6934
3524.929	6951
3526.631	6790
3528.33	6913
3530.032	6923
3531.733	6807
3533.433	6803
3535.131	6864
3536.83	6882
3538.529	6924
3540.227	6748
3541.925	6650
3543.623	6735
3545.319	6678
3547.016	6751
3548.712	6768
3550.408	6743
3552.103	6639
3553.798	6713
3555.491	6760
3557.188	6716
3558.88	6721
3560.574	6747
3562.266	6785
3563.959	6768
3565.651	6638
3567.343	6759
3569.035	6699
3570.725	6715
3572.415	6738
3574.106	6635
3575.797	6599
3577.485	6586
3579.174	6629
3580.863	6703
3582.551	6693
3584.238	6513
3585.926	6698
3587.613	6677
3589.3	6532
3590.986	6593
3592.671	6561
3594.357	6496
3596.042	6535
3597.726	6441
3599.41	6583
3601.094	6433
3602.778	6514
3604.461	6585
3606.143	6510
3607.825	6539
3609.507	6452
3611.188	6420
3612.87	6383
3614.551	6409
3616.229	6413
3617.909	6392
3619.589	6293
3621.269	6336
3622.948	6400
3624.625	6443
3626.302	6449
3627.98	6274
3629.657	6340
3631.334	6425
3633.01	6297
3634.686	6496
3636.361	6248
3638.036	6340
3639.712	6276
3641.385	6359
3643.06	6246
3644.732	6221
3646.405	6259
3648.08	6225
3649.751	6243
3651.424	6119
3653.094	6383
3654.766	6206
3656.436	6221
3658.106	6139
3659.777	6148
3661.446	6191
3663.115	6149
3664.783	6393
3666.452	6266
3668.121	6278
3669.788	6266
3671.454	6282
3673.121	6285
3674.789	6121
3676.455	6266
3678.12	6012
3679.784	6200
3681.45	6103
3683.114	6125
3684.779	6090
3686.442	6197
3688.105	6100
3689.768	6106
3691.43	6066
3693.093	6151
3694.754	6087
3696.415	6160
3698.076	6147
3699.736	6192
3701.396	6092
3703.057	6043
3704.716	6093
3706.375	6044
3708.034	6036
3709.692	6028
3711.351	6067
3713.008	6064
3714.665	6074
3716.321	6011
3717.977	6000
3719.634	6042
3721.29	6074
3722.945	5998
3724.598	6000
3726.253	5896
3727.907	6091
3729.561	5945
3731.214	6015
3732.867	5903
3734.518	6009
3736.171	6036
3737.824	5989
3739.474	6053
3741.125	6023
3742.775	5879
3744.425	5951
3746.074	5974
3747.725	5992
3749.373	5957
3751.022	5977
3752.669	5876
3754.318	5875
3755.966	5832
3757.612	5876
3759.259	5939
3760.905	5958
3762.55	5975
3764.197	5710
3765.842	5976
3767.486	5920
3769.131	5763
3770.774	5809
3772.417	5739
3774.061	5782
3775.705	5838
3777.347	5908
3778.988	5784
3780.629	5825
3782.271	5741
3783.912	5785
3785.552	5781
3787.192	5798
3788.831	5943
3790.472	5870
3792.112	5834
3793.75	5828
3795.388	5843
3797.024	5737
3798.661	5774
3800.3	5755
3801.936	5716
3803.572	5783
3805.208	5691
3806.844	5726
3808.48	5680
3810.115	5664
3811.748	5682
3813.382	5700
3815.016	5711
3816.649	5623
3818.283	5590
3819.914	5648
3821.547	5624
3823.178	5515
3824.809	5617
3826.441	5665
3828.072	5472
3829.701	5625
3831.331	5731
3832.96	5642
3834.591	5670
3836.219	5696
3837.847	5676
3839.475	5542
3841.102	5652
3842.729	5574
3844.357	5543
3845.984	5581
3847.609	5574
3849.234	5517
3850.86	5629
3852.485	5468
3854.11	5460
3855.734	5433
3857.357	5538
3858.981	5571
3860.603	5486
3862.227	5514
3863.848	5478
3865.471	5588
3867.092	5463
3868.713	5596
3870.334	5489
3871.954	5490
3873.575	5524
3875.194	5459
3876.813	5404
3878.433	5471
3880.051	5463
3881.669	5577
3883.286	5549
3884.904	5510
3886.52	5347
3888.138	5285
3889.754	5392
3891.37	5448
3892.985	5395
3894.6	5439
3896.216	5350
3897.831	5390
3899.444	5375
3901.058	5426
3902.67	5318
3904.283	5391
3905.897	5324
3907.509	5367
3909.121	5323
3910.731	5411
3912.342	5377
3913.954	5325
3915.563	5376
3917.174	5396
3918.783	5306
3920.391	5306
3922.002	5295
3923.611	5272
3925.218	5431
3926.826	5354
3928.432	5363
3930.039	5272
3931.647	5321
3933.253	5340
3934.859	5193
3936.464	5304
3938.068	5311
3939.675	5301
3941.278	5282
3942.883	5217
3944.486	5285
3946.089	5391
3947.692	5208
3949.295	5179
3950.898	5319
3952.499	5287
3954.1	5235
3955.7	5334
3957.303	5267
3958.903	5227
3960.502	5322
3962.101	5180
3963.7	5226
3965.301	5229
3966.899	5184
3968.497	5150
3970.094	5208
3971.691	5109
3973.288	5183
3974.885	5198
3976.481	5201
3978.077	5175
3979.672	5025
3981.267	5126
3982.863	5128
3984.457	5110
3986.051	5053
3987.645	5142
3989.238	5176
3990.831	5074
3992.425	4997
3994.017	5134
3995.607	5040
3997.199	5085
3998.79	4988
4000.382	5046
4001.973	4979
4003.561	5022
4005.151	5000
4006.741	4961
4008.331	5097
4009.918	5059
4011.507	5035
4013.095	4984
4014.681	4994
4016.269	4880
4017.856	4971
4019.443	4959
4021.028	4850
4022.614	4888
4024.199	4920
4025.785	4990
4027.37	4986
4028.953	4833
4030.536	5025
4032.12	4874
4033.704	4840
4035.287	4859
4036.869	4855
4038.45	4934
4040.032	4855
4041.613	4850
4043.195	4839
4044.776	4815
4046.356	4885
4047.935	4934
4049.515	4838
4051.095	4874
4052.674	4812
4054.251	4794
4055.829	4842
4057.406	4784
4058.985	4809
4060.562	4826
4062.139	4845
4063.715	4818
4065.29	4708
4066.865	4832
4068.442	4756
4070.016	4795
4071.59	4720
4073.164	4766
4074.738	4764
4076.312	4802
4077.885	4689
4079.458	4818
4081.03	4811
4082.602	4785
4084.173	4776
4085.745	4786
4087.315	4715
4088.886	4820
4090.456	4692
4092.026	4740
4093.596	4721
4095.165	4731
4096.734	4666
4098.301	4658
4099.869	4706
4101.437	4704
4103.006	4648
4104.572	4590
4106.139	4590
4107.704	4685
4109.27	4583
4110.837	4596
4112.401	4703
4113.966	4649
4115.53	4588
4117.094	4694
4118.659	4722
4120.223	4639
4121.785	4552
4123.347	4603
4124.909	4520
4126.471	4552
4128.034	4662
4129.595	4588
4131.155	4635
4132.716	4664
4134.275	4489
4135.836	4545
4137.395	4647
4138.955	4496
4140.513	4604
4142.071	4565
4143.628	4551
4145.188	4556
4146.745	4555
4148.302	4525
4149.858	4416
4151.414	4473
4152.971	4454
4154.526	4485
4156.081	4439
4157.635	4507
4159.189	4408
4160.745	4565
4162.298	4503
4163.852	4507
4165.405	4431
4166.957	4422
4168.51	4421
4170.063	4470
4171.614	4425
4173.166	4404
4174.717	4290
4176.267	4385
4177.817	4427
4179.368	4387
4180.917	4470
4182.466	4408
4184.016	4426
4185.564	4315
4187.112	4252
4188.66	4309
4190.207	4300
4191.754	4373
4193.301	4335
4194.848	4387
4196.394	4343
4197.94	4394
4199.484	4305
4201.03	4293
4202.575	4256
4204.12	4250
4205.663	4334
4207.207	4270
4208.75	4456
4210.292	4295
4211.836	4198
4213.378	4252
4214.92	4238
4216.46	4239
4218.002	4353
4219.544	4261
4221.083	4202
4222.625	4291
4224.164	4288
4225.703	4157
4227.244	4196
4228.782	4094
4230.32	4267
4231.857	4270
4233.395	4172
4234.933	4269
4236.471	4212
4238.007	4230
4239.542	4246
4241.078	4322
4242.614	4238
4244.15	4279
4245.685	4250
4247.219	4211
4248.753	4221
4250.287	4106
4251.82	4141
4253.354	4167
4254.887	4216
4256.419	4109
4257.951	4208
4259.483	4078
4261.016	4147
4262.547	4107
4264.078	4123
4265.608	4124
4267.137	4137
4268.668	4059
4270.197	4138
4271.727	4107
4273.254	4048
4274.783	4199
4276.311	4102
4277.84	4158
4279.366	4070
4280.894	4089
4282.42	4108
4283.946	4093
4285.473	4078
4286.998	4149
4288.523	4133
4290.047	4095
4291.572	4081
4293.096	4142
4294.622	3960
4296.144	3987
4297.668	4073
4299.19	4110
4300.713	3989
4302.236	3917
4303.758	4053
4305.279	4028
4306.799	4030
4308.321	4025
4309.842	3948
4311.361	4050
4312.882	4042
4314.401	4021
