400.0961	4836
402.6185	4921
405.1424	4934
407.6635	4957
410.1838	5009
412.7035	5011
415.2225	4935
417.7388	5006
420.2585	5081
422.7754	5178
425.2917	5242
427.8072	5234
430.3221	5294
432.8363	5280
435.3498	5268
437.8626	5379
440.3727	5227
442.8841	5238
445.3969	5354
447.907	5343
450.4142	5305
452.9229	5241
455.4289	5319
457.9362	5335
460.4449	5333
462.9488	5252
465.454	5320
467.9566	5312
470.4604	5276
472.9637	5224
475.4662	5339
477.966	5328
480.4671	5235
482.9656	5268
485.4633	5377
487.9645	5411
490.4608	5444
492.9566	5349
495.4536	5430
497.948	5397
500.4437	5404
502.9387	5407
505.431	5431
507.9226	5492
510.4136	5417
512.9079	5457
515.3975	5454
517.8864	5443
520.3746	5473
522.8622	5416
525.3491	5482
527.8394	5360
530.3249	5575
532.8098	5496
535.2939	5415
537.7774	5577
540.2623	5462
542.7444	5530
545.2259	5466
547.7067	5591
550.1868	5512
552.6683	5525
555.147	5546
557.6231	5596
560.1005	5689
562.5773	5586
565.0534	5539
567.5308	5607
570.0056	5655
572.4776	5580
574.951	5734
577.4237	5683
579.8978	5826
582.3671	5795
584.8378	5739
587.3079	5799
589.7773	5745
592.244	5806
594.714	5775
597.1793	5749
599.6461	5808
602.1121	5810
604.5754	5713
607.0421	5804
609.5042	5746
611.9675	5720
614.4282	5733
616.8902	5733
619.3515	5757
621.8122	5760
624.2702	5699
626.7296	5741
629.1863	5719
631.6423	5734
634.1017	5715
636.5563	5690
639.0104	5628
641.4658	5758
643.9185	5691
646.3725	5633
648.8239	5811
651.2766	5670
653.7266	5790
656.176	5809
658.6247	5825
661.0748	5805
663.5242	5882
665.9709	5871
668.417	5655
670.8624	5895
673.3092	5901
675.7533	5804
678.1968	5839
680.6395	5874
683.0817	5945
685.5251	5936
687.9659	5960
690.4061	5899
692.8456	5918
695.2844	5923
697.7226	5952
700.1621	5829
702.599	5936
705.0332	5990
707.4688	6010
709.9036	6031
712.3399	6002
714.7735	6037
717.2044	6042
719.6367	6085
722.0683	6071
724.4993	6055
726.9296	6082
729.3593	6121
731.7883	6102
734.2147	6223
736.6423	6052
739.0714	6133
741.4958	6189
743.9216	6300
746.3447	6347
748.7691	6243
751.1929	6256
753.616	6266
756.0366	6309
758.4584	6304
760.8776	6347
763.2982	6363
765.718	6409
768.1373	6347
770.5539	6284
772.9698	6309
775.3871	6379
777.8038	6435
780.2178	6451
782.6332	6370
785.0459	6317
787.458	6392
789.8714	6367
792.2842	6375
794.6943	6351
797.1038	6428
799.5127	6340
801.9209	6267
804.3324	6437
806.7393	6530
809.1456	6357
811.5513	6479
813.9562	6391
816.3625	6494
818.7663	6586
821.1693	6477
823.5718	6477
825.9735	6467
828.3746	6599
830.7771	6481
833.177	6469
835.5762	6513
837.9747	6548
840.3727	6414
842.772	6512
845.1666	6599
847.5626	6664
849.958	6632
852.3527	6777
854.7488	6698
857.1403	6597
859.5331	6636
861.9253	6766
864.3168	6643
866.7057	6539
869.098	6650
871.4876	6669
873.8746	6602
876.263	6687
878.6487	6609
881.0378	6435
883.4243	6657
885.8081	6544
888.1933	6497
890.5759	6453
892.9598	6515
895.343	6706
897.7256	6535
900.1057	6690
902.4871	6550
904.8659	6666
907.246	6582
909.6254	6722
912.0023	6693
914.3786	6711
916.7562	6776
919.1331	6948
921.5074	6954
923.8831	7043
926.2562	7013
928.6287	6860
931.0005	7057
933.3757	6985
935.7462	6938
938.1162	6982
940.4855	7109
942.8542	7187
945.2242	7111
947.5916	7317
949.9584	7512
952.3266	7574
954.6921	7876
957.0571	8086
959.4233	8392
961.787	8425
964.15	8391
966.5125	8169
968.8742	7958
971.2354	7719
973.5959	7329
975.9559	7253
978.3151	7167
980.6738	7062
983.0338	7099
985.3912	6981
987.7461	6864
990.1022	6810
992.4578	6838
994.8127	6756
997.1689	6857
999.5207	6923
1001.874	6942
1004.226	7037
1006.576	6883
1008.929	6923
1011.28	6833
1013.628	6917
1015.977	6952
1018.324	6885
1020.674	6907
1023.019	6982
1025.366	6985
1027.713	6896
1030.056	6949
1032.399	6842
1034.746	7100
1037.087	7046
1039.431	6926
1041.771	7041
1044.113	6923
1046.454	6994
1048.793	7084
1051.133	7009
1053.471	7057
1055.807	7019
1058.146	6891
1060.483	7018
1062.818	7060
1065.153	6950
1067.489	7138
1069.822	7085
1072.156	7157
1074.488	7057
1076.82	7202
1079.15	7000
1081.48	7111
1083.814	7065
1086.143	7084
1088.471	7016
1090.799	6863
1093.126	6940
1095.452	7019
1097.78	7001
1100.105	7103
1102.43	6987
1104.754	7057
1107.077	7060
1109.4	7065
1111.722	7079
1114.044	7011
1116.365	7102
1118.685	7040
1121.005	7067
1123.324	7092
1125.643	7169
1127.961	7002
1130.278	6932
1132.595	7072
1134.911	7101
1137.226	7165
1139.541	6959
1141.854	7031
1144.167	7090
1146.482	7069
1148.793	6993
1151.105	7096
1153.414	7103
1155.725	7008
1158.033	7003
1160.344	7028
1162.651	7068
1164.959	7010
1167.265	7041
1169.572	7194
1171.878	7103
1174.184	7003
1176.488	7146
1178.79	7129
1181.094	7168
1183.396	7134
1185.699	7066
1188.001	7054
1190.301	7126
1192.6	7026
1194.9	7115
1197.2	7029
1199.497	7125
1201.794	7020
1204.09	7153
1206.387	7034
1208.684	7180
1210.978	7054
1213.272	7114
1215.565	7030
1217.858	7249
1220.15	7201
1222.443	7150
1224.734	7205
1227.024	7163
1229.313	7233
1231.602	7330
1233.892	7227
1236.18	7105
1238.467	7330
1240.754	7367
1243.04	7342
1245.325	7427
1247.612	7206
1249.896	7348
1252.178	7360
1254.461	7544
1256.743	7452
1259.027	7332
1261.308	7316
1263.587	7372
1265.867	7391
1268.146	7444
1270.425	7451
1272.703	7447
1274.981	7457
1277.256	7423
1279.532	7302
1281.808	7445
1284.083	7384
1286.358	7211
1288.63	7209
1290.904	7321
1293.175	7382
1295.449	7287
1297.719	7211
1299.99	7093
1302.259	7265
1304.529	7214
1306.798	7317
1309.065	7308
1311.333	7310
1313.599	7250
1315.866	7266
1318.131	7332
1320.396	7214
1322.66	7234
1324.925	7314
1327.187	7374
1329.448	7439
1331.711	7399
1333.974	7346
1336.234	7275
1338.493	7355
1340.752	7317
1343.01	7327
1345.269	7395
1347.526	7194
1349.784	7203
1352.04	7279
1354.295	7302
1356.552	7265
1358.806	7270
1361.059	7251
1363.312	7437
1365.564	7253
1367.818	7234
1370.069	7352
1372.318	7254
1374.568	7323
1376.817	7357
1379.066	7310
1381.316	7305
1383.564	7338
1385.809	7299
1388.056	7456
1390.301	7359
1392.549	7372
1394.793	7478
1397.036	7563
1399.279	7530
1401.522	7578
1403.763	7639
1406.007	7587
1408.248	7571
1410.487	7505
1412.727	7446
1414.965	7604
1417.205	7548
1419.442	7557
1421.68	7533
1423.915	7606
1426.152	7572
1428.388	7404
1430.623	7507
1432.857	7680
1435.091	7474
1437.323	7664
1439.556	7627
1441.789	7712
1444.019	7671
1446.25	7559
1448.48	7695
1450.708	7651
1452.938	7685
1455.167	7711
1457.394	7667
1459.62	7669
1461.846	7687
1464.073	7759
1466.299	7730
1468.523	7573
1470.746	7597
1472.969	7509
1475.191	7423
1477.415	7439
1479.636	7534
1481.858	7398
1484.078	7361
1486.298	7338
1488.518	7338
1490.736	7293
1492.954	7257
1495.169	7341
1497.386	7259
1499.602	7310
1501.819	7300
1504.034	7227
1506.248	7249
1508.462	7356
1510.675	7323
1512.888	7293
1515.1	7197
1517.311	7371
1519.522	7126
1521.732	7340
1523.942	7370
1526.151	7145
1528.36	7391
1530.566	7216
1532.773	7368
1534.98	7311
1537.187	7366
1539.392	7393
1541.596	7346
1543.801	7222
1546.005	7267
1548.208	7349
1550.411	7505
1552.612	7331
1554.814	7420
1557.013	7432
1559.212	7387
1561.414	7464
1563.612	7470
1565.811	7475
1568.007	7320
1570.203	7493
1572.403	7449
1574.598	7445
1576.792	7396
1578.988	7495
1581.181	7500
1583.376	7437
1585.568	7516
1587.761	7567
1589.952	7548
1592.143	7561
1594.333	7445
1596.524	7601
1598.715	7487
1600.903	7503
1603.091	7468
1605.278	7619
1607.466	7582
1609.652	7530
1611.838	7717
1614.023	7616
1616.207	7658
1618.391	7405
1620.576	7501
1622.759	7742
1624.941	7524
1627.123	7654
1629.304	7679
1631.484	7578
1633.664	7793
1635.844	7607
1638.022	7747
1640.201	7556
1642.38	7547
1644.556	7740
1646.732	7692
1648.908	7637
1651.084	7777
1653.257	7716
1655.433	7704
1657.607	7626
1659.779	7691
1661.951	7605
1664.122	7765
1666.295	7769
1668.467	7745
1670.635	7784
1672.805	7706
1674.973	7754
1677.142	7820
1679.31	7775
1681.478	7776
1683.644	7793
1685.81	7601
1687.975	7751
1690.142	7771
1692.305	7660
1694.468	7705
1696.632	7601
1698.794	7584
1700.957	7498
1703.119	7536
1705.279	7596
1707.439	7490
1709.598	7639
1711.758	7480
1713.917	7418
1716.075	7557
1718.231	7686
1720.388	7500
1722.543	7439
1724.702	7506
1726.856	7480
1729.01	7584
1731.164	7490
1733.317	7547
1735.471	7489
1737.623	7427
1739.774	7501
1741.925	7552
1744.075	7499
1746.225	7451
1748.376	7432
1750.524	7506
1752.672	7587
1754.82	7519
1756.965	7513
1759.113	7479
1761.259	7666
1763.405	7451
1765.549	7540
1767.694	7582
1769.836	7461
1771.981	7572
1774.123	7516
1776.264	7536
1778.405	7552
1780.546	7508
1782.687	7478
1784.827	7480
1786.966	7685
1789.103	7528
1791.242	7732
1793.381	7546
1795.517	7701
1797.653	7593
1799.788	7591
1801.923	7603
1804.057	7470
1806.193	7568
1808.326	7519
1810.457	7652
1812.59	7543
1814.721	7682
1816.855	7650
1818.984	7586
1821.113	7716
1823.244	7580
1825.372	7503
1827.499	7530
1829.63	7476
1831.756	7445
1833.882	7520
1836.007	7616
1838.132	7412
1840.26	7519
1842.384	7458
1844.507	7375
1846.63	7579
1848.752	7523
1850.875	7518
1852.996	7545
1855.118	7612
1857.238	7513
1859.358	7408
1861.477	7528
1863.597	7507
1865.715	7459
1867.832	7435
1869.948	7472
1872.064	7535
1874.181	7402
1876.297	7547
1878.411	7497
1880.526	7497
1882.639	7481
1884.752	7417
1886.865	7526
1888.977	7618
1891.089	7498
1893.2	7490
1895.308	7575
1897.42	7550
1899.53	7512
1901.639	7425
1903.745	7624
1905.853	7708
1907.962	7600
1910.067	7666
1912.174	7693
1914.278	7602
1916.383	7582
1918.486	7593
1920.592	7668
1922.694	7692
1924.797	7648
1926.898	7650
1929	7578
1931.102	7590
1933.203	7661
1935.301	7689
1937.401	7713
1939.499	7721
1941.598	7571
1943.697	7600
1945.793	7613
1947.888	7677
1949.985	7653
1952.08	7675
1954.176	7630
1956.269	7632
1958.364	7635
1960.457	7617
1962.549	7693
1964.642	7596
1966.733	7561
1968.823	7528
1970.913	7576
1973.005	7538
1975.093	7656
1977.184	7553
1979.271	7663
1981.359	7433
1983.446	7498
1985.532	7697
1987.619	7495
1989.705	7629
1991.789	7435
1993.874	7606
1995.956	7440
1998.041	7402
2000.123	7593
2002.206	7557
2004.287	7526
2006.368	7681
2008.449	7433
2010.529	7433
2012.609	7588
2014.688	7391
2016.766	7565
2018.843	7529
2020.922	7478
2022.999	7539
2025.074	7530
2027.15	7558
2029.225	7497
2031.299	7492
2033.375	7575
2035.447	7475
2037.52	7474
2039.592	7524
2041.664	7625
2043.736	7548
2045.807	7485
2047.876	7505
2049.947	7393
2052.015	7460
2054.086	7537
2056.153	7453
2058.221	7514
2060.288	7408
2062.353	7567
2064.42	7587
2066.486	7523
2068.55	7682
2070.614	7575
2072.678	7571
2074.741	7512
2076.805	7510
2078.866	7502
2080.929	7478
2082.99	7601
2085.049	7609
2087.109	7589
2089.17	7483
2091.228	7544
2093.286	7489
2095.344	7512
2097.4	7536
2099.46	7540
2101.516	7514
2103.572	7536
2105.626	7477
2107.679	7453
2109.735	7600
2111.788	7528
2113.841	7460
2115.894	7521
2117.945	7605
2119.997	7506
2122.049	7495
2124.1	7519
2126.148	7524
2128.197	7570
2130.246	7553
2132.296	7449
2134.342	7419
2136.39	7381
2138.437	7491
2140.483	7484
2142.527	7419
2144.574	7480
2146.619	7351
2148.661	7509
2150.705	7500
2152.747	7468
2154.792	7574
2156.832	7532
2158.874	7466
2160.915	7463
2162.954	7450
2164.995	7384
2167.034	7479
2169.072	7493
2171.111	7468
2173.148	7393
2175.186	7302
2177.223	7456
2179.258	7381
2181.294	7413
2183.328	7426
2185.362	7404
2187.398	7331
2189.431	7329
2191.463	7325
2193.495	7341
2195.528	7260
2197.56	7309
2199.59	7333
2201.62	7263
2203.649	7272
2205.678	7241
2207.708	7254
2209.737	7389
2211.764	7339
2213.791	7253
2215.817	7279
2217.843	7391
2219.87	7250
2221.895	7351
2223.919	7274
2225.942	7329
2227.966	7368
2229.988	7230
2232.012	7270
2234.032	7322
2236.054	7315
2238.074	7353
2240.095	7267
2242.116	7340
2244.135	7322
2246.153	7296
2248.171	7323
2250.188	7436
2252.208	7280
2254.223	7187
2256.239	7324
2258.255	7294
2260.269	7196
2262.283	7262
2264.3	7308
2266.312	7280
2268.325	7388
2270.336	7242
2272.349	7265
2274.362	7346
2276.372	7360
2278.383	7195
2280.392	7213
2282.402	7322
2284.409	7289
2286.418	7146
2288.427	7365
2290.433	7322
2292.441	7310
2294.446	7172
2296.453	7262
2298.459	7302
2300.463	7183
2302.466	7096
2304.471	7073
2306.475	7237
2308.477	7165
2310.478	7190
2312.481	7345
2314.481	7198
2316.481	7226
2318.482	7285
2320.482	7143
2322.48	7104
2324.48	7172
2326.478	7204
2328.476	7200
2330.473	7078
2332.469	7277
2334.465	7186
2336.46	7149
2338.454	7146
2340.45	7054
2342.444	7103
2344.437	7148
2346.43	7093
2348.421	7153
2350.414	7162
2352.405	7124
2354.396	7128
2356.386	7061
2358.376	7005
2360.366	7161
2362.355	7116
2364.343	7023
2366.331	7099
2368.317	7149
2370.304	7081
2372.292	7066
2374.278	7059
2376.262	7029
2378.247	7012
2380.23	7073
2382.216	7144
2384.199	7005
2386.181	6926
2388.163	6904
2390.144	6976
2392.127	6974
2394.107	7025
2396.087	6966
2398.066	6979
2400.046	7155
2402.023	6918
2404.004	7074
2405.981	7120
2407.957	7085
2409.934	6991
2411.91	7079
2413.886	6891
2415.862	6927
2417.836	6996
2419.809	6972
2421.784	6984
2423.756	6903
2425.73	7016
2427.701	7087
2429.672	6876
2431.644	7088
2433.615	6987
2435.586	6863
2437.555	6965
2439.523	6986
2441.491	6894
2443.459	7019
2445.428	7026
2447.395	6910
2449.361	6917
2451.327	6824
2453.292	7003
2455.257	6950
2457.223	6965
2459.187	6985
2461.15	6984
2463.113	6963
2465.076	6840
2467.039	6969
2468.999	6962
2470.96	6917
2472.921	6782
2474.881	7053
2476.841	6890
2478.8	6907
2480.759	6914
2482.717	6878
2484.675	6923
2486.63	6754
2488.589	6815
2490.545	6974
2492.5	6802
2494.455	6838
2496.408	6844
2498.364	6745
2500.318	6858
2502.27	6790
2504.223	6727
2506.174	6852
2508.126	6745
2510.078	6741
2512.03	6834
2513.979	6975
2515.927	6772
2517.877	6806
2519.826	6802
2521.775	6845
2523.722	6803
2525.668	6735
2527.616	6680
2529.561	6887
2531.508	6716
2533.452	6846
2535.398	6882
2537.342	6784
2539.284	6886
2541.229	6867
2543.173	6644
2545.114	6786
2547.055	6828
2548.996	6793
2550.938	6771
2552.878	6889
2554.817	6826
2556.756	6798
2558.695	6678
2560.633	6742
2562.572	6753
2564.509	6749
2566.445	6722
2568.382	6745
2570.317	6773
2572.254	6843
2574.189	6860
2576.123	6860
2578.057	6671
2579.99	6768
2581.923	6740
2583.855	6735
2585.788	6746
2587.719	6708
2589.65	6822
2591.579	6787
2593.511	6846
2595.44	6684
2597.37	6733
2599.297	6734
2601.225	6845
2603.153	6725
2605.08	6704
2607.007	6914
2608.932	6745
2610.858	6830
2612.782	6655
2614.709	6784
2616.632	6859
2618.556	6764
2620.478	6818
2622.401	6766
2624.324	6872
2626.247	6708
2628.167	6749
2630.088	6820
2632.008	6791
2633.928	6823
2635.848	6807
2637.766	6693
2639.684	6762
2641.603	6783
2643.519	6866
2645.437	6884
2647.353	6835
2649.27	6822
2651.184	6734
2653.099	6747
2655.014	6764
2656.928	6709
2658.842	6802
2660.755	6806
2662.667	6795
2664.579	6759
2666.491	6853
2668.402	6793
2670.312	6760
2672.222	6719
2674.132	6744
2676.042	6653
2677.951	6702
2679.859	6817
2681.766	6738
2683.674	6649
2685.582	6760
2687.488	6731
2689.392	6741
2691.298	6604
2693.202	6729
2695.107	6669
2697.012	6668
2698.914	6634
2700.817	6643
2702.72	6587
2704.622	6647
2706.524	6577
2708.425	6615
2710.326	6534
2712.225	6656
2714.125	6569
2716.024	6681
2717.923	6600
2719.822	6674
2721.719	6578
2723.616	6594
2725.512	6599
2727.41	6629
2729.305	6658
2731.201	6518
2733.095	6610
2734.99	6641
2736.884	6545
2738.778	6630
2740.67	6606
2742.562	6462
2744.455	6701
2746.346	6676
2748.238	6508
2750.129	6549
2752.018	6471
2753.907	6663
2755.797	6486
2757.687	6605
2759.575	6549
2761.462	6569
2763.349	6513
2765.237	6535
2767.124	6516
2769.009	6609
2770.894	6475
2772.779	6611
2774.663	6619
2776.547	6496
2778.431	6399
2780.314	6540
2782.197	6602
2784.078	6479
2785.96	6543
2787.842	6490
2789.723	6454
2791.603	6492
2793.483	6469
2795.362	6536
2797.241	6553
2799.121	6469
2800.997	6447
2802.874	6499
2804.751	6445
2806.628	6433
2808.506	6389
2810.38	6499
2812.255	6532
2814.13	6390
2816.003	6550
2817.878	6496
2819.752	6430
2821.623	6549
2823.496	6563
2825.368	6470
2827.238	6477
2829.111	6523
2830.98	6492
2832.851	6494
2834.719	6514
2836.589	6556
2838.458	6491
2840.327	6506
2842.193	6546
2844.061	6536
2845.927	6594
2847.794	6559
2849.66	6438
2851.525	6506
2853.39	6646
2855.254	6599
2857.117	6593
2858.983	6640
2860.845	6726
2862.707	6599
2864.569	6668
2866.431	6637
2868.293	6714
2870.154	6780
2872.013	6842
2873.873	6719
2875.733	6845
2877.592	6881
2879.451	6909
2881.309	6940
2883.166	7047
2885.022	7148
2886.879	7017
2888.736	7214
2890.591	7022
2892.446	7173
2894.301	7140
2896.155	7094
2898.009	7165
2899.863	7080
2901.716	7093
2903.568	6989
2905.419	7060
2907.27	7067
2909.123	7117
2910.973	7063
2912.824	7356
2914.673	7135
2916.521	7173
2918.372	7357
2920.22	7308
2922.067	7284
2923.914	7362
2925.761	7380
2927.607	7480
2929.455	7607
2931.301	7531
2933.144	7543
2934.99	7628
2936.833	7721
2938.678	7693
2940.522	7743
2942.364	7907
2944.207	7997
2946.048	8117
2947.891	7951
2949.731	8037
2951.571	8073
2953.412	8095
2955.25	7992
2957.09	7892
2958.93	7772
2960.767	7789
2962.606	7696
2964.443	7819
2966.279	7697
2968.116	7501
2969.953	7378
2971.788	7465
2973.623	7145
2975.457	7335
2977.292	7267
2979.127	7166
2980.959	7254
2982.792	7134
2984.624	7043
2986.455	7070
2988.288	6963
2990.119	6950
2991.949	6924
2993.779	6880
2995.608	6949
2997.439	6823
2999.268	6717
3001.096	6695
3002.923	6682
3004.751	6686
3006.578	6530
3008.406	6462
3010.232	6519
3012.057	6373
3013.883	6359
3015.706	6367
3017.532	6398
3019.356	6312
3021.179	6278
3023.002	6248
3024.823	6277
3026.646	6182
3028.469	6273
3030.289	6138
3032.11	6196
3033.93	6119
3035.749	6297
3037.57	6155
3039.39	6159
3041.207	6148
3043.026	6070
3044.842	6082
3046.661	6007
3048.477	6051
3050.294	6016
3052.109	6171
3053.925	6031
3055.739	6069
3057.555	6243
3059.368	6068
3061.181	6081
3062.995	6042
3064.807	6125
3066.62	6094
3068.433	6131
3070.243	6061
3072.054	6048
3073.865	6059
3075.675	6062
3077.485	5946
3079.293	5986
3081.102	6082
3082.911	5873
3084.719	5944
3086.527	5983
3088.333	5952
3090.139	6007
3091.945	5953
3093.75	5887
3095.557	5949
3097.361	5924
3099.165	5860
3100.969	5915
3102.772	5866
3104.575	5924
3106.379	5846
3108.181	5920
3109.982	5895
3111.783	5826
3113.584	5884
3115.386	5788
3117.186	5875
3118.985	5829
3120.783	5829
3122.582	5697
3124.381	5816
3126.179	5725
3127.975	5773
3129.772	5834
3131.569	5820
3133.365	5789
3135.161	5685
3136.956	5768
3138.751	5861
3140.544	5674
3142.338	5712
3144.132	5754
3145.925	5751
3147.717	5798
3149.509	5797
3151.301	5751
3153.091	5761
3154.884	5703
3156.673	5789
3158.462	5664
3160.252	5674
3162.041	5693
3163.831	5727
3165.618	5659
3167.405	5731
3169.193	5596
3170.979	5656
3172.767	5549
3174.553	5646
3176.338	5610
3178.123	5716
3179.907	5596
3181.692	5705
3183.477	5672
3185.259	5672
3187.042	5532
3188.824	5602
3190.607	5700
3192.389	5605
3194.17	5604
3195.951	5592
3197.73	5658
3199.51	5647
3201.289	5655
3203.07	5558
3204.848	5661
3206.626	5568
3208.403	5543
3210.18	5646
3211.959	5656
3213.735	5561
3215.511	5602
3217.285	5581
3219.06	5610
3220.836	5819
3222.611	5557
3224.384	5577
3226.158	5572
3227.929	5640
3229.702	5559
3231.476	5599
3233.248	5618
3235.018	5570
3236.789	5668
3238.56	5515
3240.33	5519
3242.1	5450
3243.869	5569
3245.637	5586
3247.405	5598
3249.172	5673
3250.941	5604
3252.707	5649
3254.474	5592
3256.24	5662
3258.006	5516
3259.772	5662
3261.537	5481
3263.301	5549
3265.065	5608
3266.828	5528
3268.592	5590
3270.355	5608
3272.117	5589
3273.878	5498
3275.64	5657
3277.401	5642
3279.162	5565
3280.922	5612
3282.682	5455
3284.441	5671
3286.199	5555
3287.959	5607
3289.716	5515
3291.475	5596
3293.232	5494
3294.988	5483
3296.744	5673
3298.501	5518
3300.256	5653
3302.011	5554
3303.766	5642
3305.52	5615
3307.275	5569
3309.028	5516
3310.781	5530
3312.533	5562
3314.285	5567
3316.038	5459
3317.789	5614
3319.54	5544
3321.289	5471
3323.039	5627
3324.789	5604
3326.539	5491
3328.288	5473
3330.035	5452
3331.783	5487
3333.531	5585
3335.28	5518
3337.025	5463
3338.771	5542
3340.518	5481
3342.262	5480
3344.009	5634
3345.753	5581
3347.497	5448
3349.24	5445
3350.983	5483
3352.726	5498
3354.469	5455
3356.212	5437
3357.952	5552
3359.694	5454
3361.434	5320
3363.176	5403
3364.916	5442
3366.654	5464
3368.394	5360
3370.132	5518
3371.871	5434
3373.61	5356
3375.346	5420
3377.083	5371
3378.82	5314
3380.556	5362
3382.292	5432
3384.027	5380
3385.763	5301
3387.497	5382
3389.231	5313
3390.965	5458
3392.698	5364
3394.431	5239
3396.164	5303
3397.896	5318
3399.627	5241
3401.36	5203
3403.09	5401
3404.82	5250
3406.55	5346
3408.279	5305
3410.01	5266
3411.738	5278
3413.467	5382
3415.194	5336
3416.92	5230
3418.647	5247
3420.375	5299
3422.102	5194
3423.827	5285
3425.553	5224
3427.277	5268
3429.003	5235
3430.727	5127
3432.451	5252
3434.173	5204
3435.896	5229
3437.62	5259
3439.343	5303
3441.063	5197
3442.785	5212
3444.505	5103
3446.226	5106
3447.948	5179
3449.666	5096
3451.386	5146
3453.104	5153
3454.823	5118
3456.541	5104
3458.259	5219
3459.976	5115
3461.693	5071
3463.408	5067
3465.125	4995
3466.841	5072
3468.556	4984
3470.271	5060
3471.985	5022
3473.698	4971
3475.414	4995
3477.126	5005
3478.838	5011
3480.55	5019
3482.263	5064
3483.975	4899
3485.686	5031
3487.396	4886
3489.106	4968
3490.817	4895
3492.526	4965
3494.236	4887
3495.944	5008
3497.652	5001
3499.359	4897
3501.066	4912
3502.775	4919
3504.481	4818
3506.187	4936
3507.893	4922
3509.598	4820
3511.304	4856
3513.009	4968
3514.713	4911
3516.417	4856
3518.12	5003
3519.821	4839
3521.525	4880
3523.228	4795
3524.929	4852
3526.631	4810
3528.33	4801
3530.032	4815
3531.733	4904
3533.433	4862
3535.131	4813
3536.83	4740
3538.529	4846
3540.227	4702
3541.925	4799
3543.623	4755
3545.319	4777
3547.016	4788
3548.712	4815
3550.408	4770
3552.103	4810
3553.798	4736
3555.491	4764
3557.188	4752
3558.88	4800
3560.574	4720
3562.266	4786
3563.959	4704
3565.651	4741
3567.343	4647
3569.035	4759
3570.725	4680
3572.415	4788
3574.106	4755
3575.797	4736
3577.485	4647
3579.174	4734
3580.863	4625
3582.551	4632
3584.238	4690
3585.926	4647
3587.613	4697
3589.3	4665
3590.986	4616
3592.671	4581
3594.357	4611
3596.042	4571
3597.726	4574
3599.41	4618
3601.094	4539
3602.778	4545
3604.461	4514
3606.143	4590
3607.825	4617
3609.507	4514
3611.188	4473
3612.87	4498
3614.551	4506
3616.229	4522
3617.909	4384
3619.589	4433
3621.269	4471
3622.948	4471
3624.625	4436
3626.302	4457
3627.98	4482
3629.657	4452
3631.334	4461
3633.01	4457
3634.686	4485
3636.361	4376
3638.036	4449
3639.712	4395
3641.385	4563
3643.06	4376
3644.732	4336
3646.405	4403
3648.08	4317
3649.751	4395
3651.424	4353
3653.094	4379
3654.766	4327
3656.436	4351
3658.106	4353
3659.777	4360
3661.446	4320
3663.115	4343
3664.783	4365
3666.452	4331
3668.121	4286
3669.788	4351
3671.454	4294
3673.121	4333
3674.789	4369
3676.455	4228
3678.12	4275
3679.784	4269
3681.45	4221
3683.114	4370
3684.779	4292
3686.442	4240
3688.105	4210
3689.768	4228
3691.43	4244
3693.093	4215
3694.754	4195
3696.415	4186
3698.076	4270
3699.736	4186
3701.396	4300
3703.057	4369
3704.716	4282
3706.375	4215
3708.034	4191
3709.692	4137
3711.351	4206
3713.008	4237
3714.665	4275
3716.321	4209
3717.977	4135
3719.634	4130
3721.29	4246
3722.945	4197
3724.598	4247
3726.253	4183
3727.907	4100
3729.561	4204
3731.214	4149
3732.867	4143
3734.518	4118
3736.171	4146
3737.824	4081
3739.474	4210
3741.125	4193
3742.775	4174
3744.425	4179
3746.074	4122
3747.725	4218
3749.373	4110
3751.022	4116
3752.669	4122
3754.318	4153
3755.966	4132
3757.612	4060
3759.259	4055
3760.905	4155
3762.55	4115
3764.197	4099
3765.842	4079
3767.486	4086
3769.131	4100
3770.774	4024
3772.417	4108
3774.061	4135
3775.705	4050
3777.347	4041
3778.988	3992
3780.629	4022
3782.271	4089
3783.912	4007
3785.552	4013
3787.192	4005
3788.831	4047
3790.472	4032
3792.112	4047
3793.75	4067
3795.388	3983
3797.024	3951
3798.661	4091
3800.3	4026
3801.936	3952
3803.572	3963
3805.208	3988
3806.844	4020
3808.48	3965
3810.115	3971
3811.748	3974
3813.382	3975
3815.016	3911
3816.649	4005
3818.283	3915
3819.914	3888
3821.547	3940
3823.178	3948
3824.809	3875
3826.441	3896
3828.072	3847
3829.701	3898
3831.331	3988
3832.96	3900
3834.591	3807
3836.219	3865
3837.847	3918
3839.475	3960
3841.102	3909
3842.729	3894
3844.357	3886
3845.984	3841
3847.609	3891
3849.234	3763
3850.86	3898
3852.485	3898
3854.11	3937
3855.734	3784
3857.357	3844
3858.981	3928
3860.603	3899
3862.227	3796
3863.848	3843
3865.471	3842
3867.092	3789
3868.713	3812
3870.334	3755
3871.954	3801
3873.575	3797
3875.194	3821
3876.813	3766
3878.433	3852
3880.051	3870
3881.669	3770
3883.286	3831
3884.904	3747
3886.52	3790
3888.138	3793
3889.754	3795
3891.37	3826
3892.985	3796
3894.6	3789
3896.216	3766
3897.831	3747
3899.444	3779
3901.058	3727
3902.67	3736
3904.283	3890
3905.897	3733
3907.509	3800
3909.121	3751
3910.731	3750
3912.342	3729
3913.954	3689
3915.563	3765
3917.174	3696
3918.783	3748
3920.391	3763
3922.002	3733
3923.611	3713
3925.218	3819
3926.826	3742
3928.432	3704
3930.039	3738
3931.647	3665
3933.253	3778
3934.859	3749
3936.464	3707
3938.068	3732
3939.675	3664
3941.278	3658
3942.883	3712
3944.486	3660
3946.089	3767
3947.692	3711
3949.295	3615
3950.898	3655
3952.499	3666
3954.1	3716
3955.7	3687
3957.303	3741
3958.903	3650
3960.502	3630
3962.101	3523
3963.7	3721
3965.301	3642
3966.899	3631
3968.497	3605
3970.094	3580
3971.691	3660
3973.288	3656
3974.885	3660
3976.481	3471
3978.077	3618
3979.672	3618
3981.267	3578
3982.863	3577
3984.457	3529
3986.051	3603
3987.645	3633
3989.238	3562
3990.831	3571
3992.425	3572
3994.017	3633
3995.607	3604
3997.199	3567
3998.79	3524
4000.382	3524
4001.973	3533
4003.561	3476
4005.151	3515
4006.741	3480
4008.331	3505
4009.918	3543
4011.507	3605
4013.095	3441
4014.681	3473
4016.269	3520
4017.856	3429
4019.443	3540
4021.028	3449
4022.614	3406
4024.199	3541
4025.785	3557
4027.37	3520
4028.953	3532
4030.536	3425
4032.12	3391
4033.704	3485
4035.287	3501
4036.869	3454
4038.45	3466
4040.032	3394
4041.613	3404
4043.195	3447
4044.776	3454
4046.356	3402
4047.935	3370
4049.515	3433
4051.095	3357
4052.674	3346
4054.251	3407
4055.829	3372
4057.406	3337
4058.985	3312
4060.562	3328
4062.139	3373
4063.715	3392
4065.29	3310
4066.865	3336
4068.442	3338
4070.016	3415
4071.59	3314
4073.164	3364
4074.738	3406
4076.312	3351
4077.885	3324
4079.458	3341
4081.03	3362
4082.602	3381
4084.173	3395
4085.745	3287
4087.315	3343
4088.886	3287
4090.456	3328
4092.026	3255
4093.596	3270
4095.165	3298
4096.734	3304
4098.301	3370
4099.869	3354
4101.437	3294
4103.006	3334
4104.572	3281
4106.139	3178
4107.704	3251
4109.27	3221
4110.837	3255
4112.401	3326
4113.966	3233
4115.53	3235
4117.094	3239
4118.659	3287
4120.223	3235
4121.785	3325
4123.347	3236
4124.909	3191
4126.471	3208
4128.034	3208
4129.595	3225
4131.155	3170
4132.716	3198
4134.275	3187
4135.836	3193
4137.395	3129
4138.955	3217
4140.513	3159
4142.071	3171
4143.628	3199
4145.188	3249
4146.745	3216
4148.302	3144
4149.858	3183
4151.414	3170
4152.971	3186
4154.526	3170
4156.081	3169
4157.635	3147
4159.189	3205
4160.745	3118
4162.298	3071
4163.852	3197
4165.405	3149
4166.957	3122
4168.51	3056
4170.063	3127
4171.614	3145
4173.166	3106
4174.717	3148
4176.267	3073
4177.817	3133
4179.368	3062
4180.917	3100
4182.466	3049
4184.016	3107
4185.564	3078
4187.112	3030
4188.66	3020
4190.207	3062
4191.754	3042
4193.301	3105
4194.848	3113
4196.394	3049
4197.94	3076
4199.484	3041
4201.03	3024
4202.575	3061
4204.12	3039
4205.663	3035
4207.207	3017
4208.75	3040
4210.292	3066
4211.836	2972
4213.378	2985
4214.92	2983
4216.46	3016
4218.002	2977
4219.544	3066
4221.083	2901
4222.625	3070
4224.164	2992
4225.703	2963
4227.244	2935
4228.782	2970
4230.32	3025
4231.857	2992
4233.395	2977
4234.933	3026
4236.471	2995
4238.007	3075
4239.542	2991
4241.078	2982
4242.614	2931
4244.15	2975
4245.685	3002
4247.219	2947
4248.753	2923
4250.287	2933
4251.82	2952
4253.354	2914
4254.887	2980
4256.419	2936
4257.951	2940
4259.483	2897
4261.016	2941
4262.547	2867
4264.078	2942
4265.608	2939
4267.137	2929
4268.668	2931
4270.197	2864
4271.727	2889
4273.254	2949
4274.783	2921
4276.311	2858
4277.84	2860
4279.366	2807
4280.894	2886
4282.42	2841
4283.946	2874
4285.473	2862
4286.998	2912
4288.523	2947
4290.047	2901
4291.572	2864
4293.096	2945
4294.622	2895
4296.144	2864
4297.668	2897
4299.19	2890
4300.713	2906
4302.236	2844
4303.758	2860
4305.279	2837
4306.799	2812
4308.321	2874
4309.842	2901
4311.361	2841
4312.882	2811
4314.401	2848
