400.0961	3923
402.6185	3949
405.1424	3864
407.6635	3946
410.1838	3922
412.7035	3922
415.2225	3964
417.7388	3919
420.2585	4001
422.7754	4068
425.2917	4050
427.8072	4043
430.3221	4123
432.8363	4052
435.3498	4187
437.8626	4105
440.3727	4086
442.8841	4140
445.3969	4289
447.907	4217
450.4142	4138
452.9229	4210
455.4289	4147
457.9362	4045
460.4449	4076
462.9488	4129
465.454	4215
467.9566	4138
470.4604	4164
472.9637	4149
475.4662	4122
477.966	4134
480.4671	4197
482.9656	4181
485.4633	4228
487.9645	4197
490.4608	4182
492.9566	4258
495.4536	4276
497.948	4229
500.4437	4300
502.9387	4226
505.431	4263
507.9226	4301
510.4136	4265
512.9079	4277
515.3975	4310
517.8864	4283
520.3746	4236
522.8622	4282
525.3491	4291
527.8394	4345
530.3249	4311
532.8098	4262
535.2939	4391
537.7774	4361
540.2623	4380
542.7444	4386
545.2259	4335
547.7067	4399
550.1868	4336
552.6683	4326
555.147	4268
557.6231	4411
560.1005	4253
562.5773	4328
565.0534	4350
567.5308	4385
570.0056	4329
572.4776	4343
574.951	4381
577.4237	4411
579.8978	4477
582.3671	4506
584.8378	4458
587.3079	4532
589.7773	4529
592.244	4389
594.714	4483
597.1793	4473
599.6461	4582
602.1121	4432
604.5754	4391
607.0421	4423
609.5042	4528
611.9675	4534
614.4282	4423
616.8902	4563
619.3515	4444
621.8122	4494
624.2702	4470
626.7296	4438
629.1863	4447
631.6423	4522
634.1017	4399
636.5563	4506
639.0104	4362
641.4658	4471
643.9185	4426
646.3725	4495
648.8239	4534
651.2766	4557
653.7266	4523
656.176	4496
658.6247	4455
661.0748	4468
663.5242	4621
665.9709	4534
668.417	4510
670.8624	4529
673.3092	4687
675.7533	4554
678.1968	4545
680.6395	4664
683.0817	4572
685.5251	4645
687.9659	4654
690.4061	4667
692.8456	4713
695.2844	4620
697.7226	4667
700.1621	4721
702.599	4712
705.0332	4738
707.4688	4723
709.9036	4802
712.3399	4774
714.7735	4676
717.2044	4732
719.6367	4692
722.0683	4714
724.4993	4801
726.9296	4815
729.3593	4708
731.7883	4769
734.2147	4728
736.6423	4831
739.0714	4827
741.4958	4875
743.9216	4747
746.3447	4928
748.7691	4914
751.1929	4856
753.616	4980
756.0366	4998
758.4584	4947
760.8776	4853
763.2982	4905
765.718	4902
768.1373	4896
770.5539	5009
772.9698	4961
775.3871	5011
777.8038	4831
780.2178	4957
782.6332	4962
785.0459	4988
787.458	4957
789.8714	5016
792.2842	4969
794.6943	4963
797.1038	4895
799.5127	4975
801.9209	4895
804.3324	5000
806.7393	4996
809.1456	4955
811.5513	4903
813.9562	5013
816.3625	4983
818.7663	5003
821.1693	4932
823.5718	5037
825.9735	5097
828.3746	4930
830.7771	5016
833.177	5031
835.5762	5045
837.9747	5007
840.3727	5048
842.772	5054
845.1666	5106
847.5626	5167
849.958	5161
852.3527	5266
854.7488	5219
857.1403	5144
859.5331	5196
861.9253	5296
864.3168	5272
866.7057	5204
869.098	5199
871.4876	5149
873.8746	5128
876.263	5157
878.6487	5030
881.0378	5117
883.4243	5111
885.8081	5177
888.1933	5144
890.5759	5152
892.9598	5070
895.343	5178
897.7256	5066
900.1057	5128
902.4871	5153
904.8659	5197
907.246	5220
909.6254	5258
912.0023	5306
914.3786	5336
916.7562	5494
919.1331	5527
921.5074	5642
923.8831	5681
926.2562	5680
928.6287	5597
931.0005	5535
933.3757	5498
935.7462	5412
938.1162	5456
940.4855	5503
942.8542	5474
945.2242	5474
947.5916	5572
949.9584	5497
952.3266	5502
954.6921	5744
957.0571	5789
959.4233	5955
961.787	6142
964.15	5952
966.5125	5932
968.8742	5841
971.2354	5777
973.5959	5533
975.9559	5588
978.3151	5456
980.6738	5505
983.0338	5439
985.3912	5418
987.7461	5349
990.1022	5370
992.4578	5247
994.8127	5380
997.1689	5412
999.5207	5359
1001.874	5401
1004.226	5392
1006.576	5316
1008.929	5409
1011.28	5327
1013.628	5260
1015.977	5320
1018.324	5347
1020.674	5313
1023.019	5268
1025.366	5262
1027.713	5342
1030.056	5397
1032.399	5416
1034.746	5382
1037.087	5377
1039.431	5400
1041.771	5487
1044.113	5383
1046.454	5437
1048.793	5382
1051.133	5432
1053.471	5384
1055.807	5372
1058.146	5456
1060.483	5449
1062.818	5344
1065.153	5415
1067.489	5319
1069.822	5492
1072.156	5435
1074.488	5235
1076.82	5537
1079.15	5494
1081.48	5454
1083.814	5386
1086.143	5352
1088.471	5413
1090.799	5379
1093.126	5430
1095.452	5446
1097.78	5445
1100.105	5372
1102.43	5401
1104.754	5389
1107.077	5412
1109.4	5452
1111.722	5435
1114.044	5457
1116.365	5387
1118.685	5479
1121.005	5522
1123.324	5562
1125.643	5522
1127.961	5624
1130.278	5517
1132.595	5540
1134.911	5440
1137.226	5464
1139.541	5517
1141.854	5454
1144.167	5488
1146.482	5527
1148.793	5594
1151.105	5576
1153.414	5395
1155.725	5553
1158.033	5452
1160.344	5585
1162.651	5619
1164.959	5532
1167.265	5557
1169.572	5459
1171.878	5470
1174.184	5590
1176.488	5586
1178.79	5647
1181.094	5621
1183.396	5671
1185.699	5471
1188.001	5550
1190.301	5554
1192.6	5521
1194.9	5584
1197.2	5528
1199.497	5563
1201.794	5449
1204.09	5548
1206.387	5565
1208.684	5517
1210.978	5522
1213.272	5619
1215.565	5497
1217.858	5553
1220.15	5566
1222.443	5634
1224.734	5627
1227.024	5608
1229.313	5546
1231.602	5725
1233.892	5602
1236.18	5697
1238.467	5640
1240.754	5617
1243.04	5758
1245.325	5782
1247.612	5737
1249.896	5791
1252.178	5726
1254.461	5760
1256.743	5740
1259.027	5845
1261.308	5832
1263.587	5654
1265.867	5903
1268.146	5884
1270.425	5863
1272.703	5730
1274.981	5896
1277.256	5805
1279.532	5765
1281.808	5800
1284.083	5692
1286.358	5691
1288.63	5715
1290.904	5658
1293.175	5646
1295.449	5705
1297.719	5667
1299.99	5628
1302.259	5621
1304.529	5665
1306.798	5632
1309.065	5656
1311.333	5643
1313.599	5667
1315.866	5817
1318.131	5679
1320.396	5716
1322.66	5710
1324.925	5618
1327.187	5736
1329.448	5844
1331.711	5839
1333.974	5724
1336.234	5753
1338.493	5786
1340.752	5720
1343.01	5750
1345.269	5727
1347.526	5697
1349.784	5619
1352.04	5663
1354.295	5579
1356.552	5691
1358.806	5659
1361.059	5615
1363.312	5746
1365.564	5759
1367.818	5769
1370.069	5777
1372.318	5720
1374.568	5754
1376.817	5984
1379.066	5731
1381.316	5771
1383.564	5807
1385.809	5830
1388.056	5801
1390.301	5876
1392.549	5848
1394.793	6006
1397.036	6136
1399.279	6197
1401.522	6144
1403.763	6201
1406.007	6163
1408.248	6129
1410.487	6095
1412.727	6141
1414.965	5979
1417.205	6122
1419.442	6140
1421.68	5996
1423.915	5983
1426.152	5983
1428.388	5938
1430.623	6029
1432.857	6028
1435.091	6074
1437.323	5975
1439.556	6009
1441.789	6084
1444.019	6029
1446.25	6136
1448.48	6026
1450.708	6021
1452.938	6149
1455.167	6115
1457.394	6162
1459.62	6201
1461.846	6155
1464.073	6126
1466.299	6005
1468.523	5980
1470.746	5943
1472.969	5983
1475.191	5849
1477.415	5870
1479.636	5842
1481.858	5936
1484.078	5740
1486.298	5762
1488.518	5732
1490.736	5755
1492.954	5783
1495.169	5768
1497.386	5780
1499.602	5579
1501.819	5770
1504.034	5623
1506.248	5733
1508.462	5715
1510.675	5653
1512.888	5749
1515.1	5610
1517.311	5719
1519.522	5594
1521.732	5732
1523.942	5665
1526.151	5742
1528.36	5608
1530.566	5768
1532.773	5640
1534.98	5676
1537.187	5756
1539.392	5628
1541.596	5633
1543.801	5706
1546.005	5714
1548.208	5715
1550.411	5728
1552.612	5696
1554.814	5784
1557.013	5754
1559.212	5776
1561.414	5789
1563.612	5770
1565.811	5754
1568.007	5838
1570.203	5814
1572.403	5830
1574.598	5861
1576.792	5806
1578.988	5733
1581.181	5841
1583.376	5874
1585.568	5894
1587.761	5864
1589.952	5837
1592.143	5873
1594.333	5885
1596.524	5900
1598.715	5957
1600.903	5954
1603.091	5965
1605.278	6060
1607.466	5834
1609.652	5829
1611.838	5881
1614.023	5922
1616.207	5784
1618.391	5905
1620.576	5895
1622.759	5911
1624.941	5939
1627.123	5837
1629.304	6034
1631.484	5886
1633.664	5967
1635.844	6027
1638.022	5935
1640.201	5937
1642.38	5961
1644.556	5932
1646.732	6025
1648.908	5921
1651.084	6027
1653.257	5972
1655.433	6142
1657.607	5938
1659.779	6065
1661.951	6015
1664.122	5976
1666.295	6096
1668.467	5983
1670.635	6044
1672.805	6018
1674.973	6064
1677.142	6095
1679.31	6083
1681.478	6143
1683.644	5953
1685.81	5990
1687.975	5983
1690.142	6024
1692.305	5935
1694.468	5960
1696.632	5920
1698.794	6006
1700.957	5886
1703.119	5969
1705.279	5863
1707.439	5891
1709.598	5838
1711.758	5813
1713.917	5850
1716.075	5870
1718.231	5846
1720.388	5889
1722.543	5789
1724.702	5943
1726.856	5914
1729.01	5785
1731.164	5938
1733.317	5921
1735.471	5823
1737.623	5809
1739.774	5958
1741.925	5832
1744.075	5937
1746.225	5892
1748.376	5908
1750.524	6037
1752.672	5822
1754.82	5811
1756.965	5918
1759.113	5885
1761.259	5913
1763.405	5968
1765.549	5860
1767.694	5934
1769.836	5969
1771.981	5942
1774.123	5901
1776.264	5929
1778.405	5856
1780.546	5962
1782.687	6043
1784.827	5864
1786.966	5982
1789.103	5882
1791.242	5913
1793.381	6044
1795.517	5917
1797.653	5990
1799.788	5927
1801.923	5976
1804.057	5906
1806.193	5923
1808.326	6000
1810.457	5988
1812.59	5960
1814.721	5959
1816.855	5890
1818.984	5952
1821.113	5892
1823.244	5817
1825.372	5943
1827.499	5824
1829.63	5839
1831.756	5861
1833.882	5841
1836.007	5964
1838.132	5954
1840.26	5754
1842.384	5974
1844.507	5907
1846.63	5947
1848.752	5823
1850.875	5829
1852.996	5825
1855.118	5755
1857.238	5932
1859.358	5802
1861.477	5785
1863.597	5817
1865.715	5801
1867.832	5893
1869.948	5822
1872.064	5858
1874.181	5977
1876.297	5874
1878.411	5824
1880.526	5821
1882.639	5895
1884.752	5801
1886.865	5901
1888.977	5894
1891.089	5887
1893.2	5890
1895.308	5886
1897.42	5892
1899.53	6014
1901.639	5879
1903.745	5858
1905.853	5907
1907.962	5964
1910.067	5921
1912.174	5840
1914.278	5924
1916.383	5964
1918.486	5981
1920.592	5837
1922.694	5909
1924.797	5911
1926.898	5906
1929	6069
1931.102	5909
1933.203	5949
1935.301	5996
1937.401	6029
1939.499	5978
1941.598	5976
1943.697	5910
1945.793	5971
1947.888	5943
1949.985	5987
1952.08	5956
1954.176	5919
1956.269	5857
1958.364	5961
1960.457	5895
1962.549	5996
1964.642	5960
1966.733	5869
1968.823	5918
1970.913	6008
1973.005	5870
1975.093	5903
1977.184	5906
1979.271	5907
1981.359	5885
1983.446	6000
1985.532	5927
1987.619	6011
1989.705	5865
1991.789	5972
1993.874	5925
1995.956	6002
1998.041	5896
2000.123	5814
2002.206	5908
2004.287	5955
2006.368	5907
2008.449	5943
2010.529	5946
2012.609	5904
2014.688	5959
2016.766	5844
2018.843	5919
2020.922	5866
2022.999	5803
2025.074	5748
2027.15	5885
2029.225	5851
2031.299	6013
2033.375	5856
2035.447	5969
2037.52	5946
2039.592	5889
2041.664	5900
2043.736	5901
2045.807	5881
2047.876	5878
2049.947	5909
2052.015	6005
2054.086	5941
2056.153	5898
2058.221	5891
2060.288	5896
2062.353	5792
2064.42	5800
2066.486	5901
2068.55	5940
2070.614	5866
2072.678	5831
2074.741	5900
2076.805	5757
2078.866	5909
2080.929	5882
2082.99	5837
2085.049	5976
2087.109	5963
2089.17	5882
2091.228	5993
2093.286	5859
2095.344	5941
2097.4	5778
2099.46	5865
2101.516	5988
2103.572	5959
2105.626	5757
2107.679	6021
2109.735	5902
2111.788	5824
2113.841	6003
2115.894	5915
2117.945	5886
2119.997	5799
2122.049	5840
2124.1	5919
2126.148	5749
2128.197	5950
2130.246	5881
2132.296	5897
2134.342	5953
2136.39	5803
2138.437	5891
2140.483	5896
2142.527	5817
2144.574	5797
2146.619	5884
2148.661	5874
2150.705	5819
2152.747	5929
2154.792	5915
2156.832	5866
2158.874	5903
2160.915	5868
2162.954	5850
2164.995	5795
2167.034	5782
2169.072	5848
2171.111	5841
2173.148	5756
2175.186	5823
2177.223	5739
2179.258	5773
2181.294	5863
2183.328	5814
2185.362	5807
2187.398	5799
2189.431	5709
2191.463	5948
2193.495	5678
2195.528	5724
2197.56	5792
2199.59	5730
2201.62	5683
2203.649	5649
2205.678	5738
2207.708	5726
2209.737	5724
2211.764	5806
2213.791	5659
2215.817	5686
2217.843	5779
2219.87	5746
2221.895	5788
2223.919	5715
2225.942	5725
2227.966	5774
2229.988	5726
2232.012	5655
2234.032	5800
2236.054	5658
2238.074	5749
2240.095	5761
2242.116	5756
2244.135	5819
2246.153	5684
2248.171	5657
2250.188	5672
2252.208	5765
2254.223	5614
2256.239	5807
2258.255	5707
2260.269	5829
2262.283	5627
2264.3	5683
2266.312	5737
2268.325	5730
2270.336	5732
2272.349	5645
2274.362	5691
2276.372	5697
2278.383	5721
2280.392	5656
2282.402	5766
2284.409	5641
2286.418	5666
2288.427	5705
2290.433	5624
2292.441	5761
2294.446	5678
2296.453	5683
2298.459	5700
2300.463	5735
2302.466	5625
2304.471	5668
2306.475	5686
2308.477	5652
2310.478	5630
2312.481	5701
2314.481	5608
2316.481	5640
2318.482	5677
2320.482	5661
2322.48	5700
2324.48	5655
2326.478	5687
2328.476	5552
2330.473	5627
2332.469	5625
2334.465	5680
2336.46	5642
2338.454	5682
2340.45	5603
2342.444	5594
2344.437	5623
2346.43	5587
2348.421	5610
2350.414	5640
2352.405	5701
2354.396	5656
2356.386	5700
2358.376	5477
2360.366	5568
2362.355	5622
2364.343	5629
2366.331	5386
2368.317	5604
2370.304	5529
2372.292	5563
2374.278	5512
2376.262	5514
2378.247	5574
2380.23	5516
2382.216	5600
2384.199	5498
2386.181	5486
2388.163	5540
2390.144	5546
2392.127	5465
2394.107	5500
2396.087	5562
2398.066	5562
2400.046	5544
2402.023	5510
2404.004	5550
2405.981	5464
2407.957	5439
2409.934	5525
2411.91	5463
2413.886	5473
2415.862	5460
2417.836	5517
2419.809	5588
2421.784	5422
2423.756	5516
2425.73	5450
2427.701	5505
2429.672	5435
2431.644	5499
2433.615	5585
2435.586	5497
2437.555	5553
2439.523	5467
2441.491	5441
2443.459	5469
2445.428	5431
2447.395	5502
2449.361	5466
2451.327	5398
2453.292	5491
2455.257	5465
2457.223	5527
2459.187	5491
2461.15	5431
2463.113	5490
2465.076	5550
2467.039	5447
2468.999	5464
2470.96	5383
2472.921	5478
2474.881	5398
2476.841	5397
2478.8	5487
2480.759	5494
2482.717	5396
2484.675	5454
2486.63	5419
2488.589	5445
2490.545	5398
2492.5	5384
2494.455	5486
2496.408	5445
2498.364	5349
2500.318	5332
2502.27	5397
2504.223	5395
2506.174	5490
2508.126	5471
2510.078	5288
2512.03	5393
2513.979	5355
2515.927	5360
2517.877	5318
2519.826	5354
2521.775	5327
2523.722	5392
2525.668	5479
2527.616	5332
2529.561	5502
2531.508	5412
2533.452	5404
2535.398	5296
2537.342	5331
2539.284	5414
2541.229	5369
2543.173	5433
2545.114	5350
2547.055	5368
2548.996	5324
2550.938	5408
2552.878	5343
2554.817	5386
2556.756	5370
2558.695	5419
2560.633	5368
2562.572	5339
2564.509	5359
2566.445	5433
2568.382	5330
2570.317	5237
2572.254	5413
2574.189	5360
2576.123	5283
2578.057	5267
2579.99	5272
2581.923	5409
2583.855	5390
2585.788	5428
2587.719	5348
2589.65	5344
2591.579	5352
2593.511	5278
2595.44	5391
2597.37	5329
2599.297	5412
2601.225	5340
2603.153	5303
2605.08	5313
2607.007	5387
2608.932	5353
2610.858	5336
2612.782	5234
2614.709	5362
2616.632	5341
2618.556	5368
2620.478	5454
2622.401	5330
2624.324	5381
2626.247	5345
2628.167	5324
2630.088	5303
2632.008	5342
2633.928	5397
2635.848	5255
2637.766	5332
2639.684	5473
2641.603	5273
2643.519	5336
2645.437	5279
2647.353	5366
2649.27	5302
2651.184	5292
2653.099	5379
2655.014	5302
2656.928	5304
2658.842	5391
2660.755	5413
2662.667	5350
2664.579	5316
2666.491	5338
2668.402	5301
2670.312	5395
2672.222	5295
2674.132	5296
2676.042	5331
2677.951	5315
2679.859	5278
2681.766	5286
2683.674	5291
2685.582	5233
2687.488	5268
2689.392	5217
2691.298	5346
2693.202	5246
2695.107	5273
2697.012	5300
2698.914	5265
2700.817	5297
2702.72	5297
2704.622	5216
2706.524	5214
2708.425	5188
2710.326	5286
2712.225	5281
2714.125	5357
2716.024	5105
2717.923	5248
2719.822	5109
2721.719	5286
2723.616	5241
2725.512	5337
2727.41	5234
2729.305	5253
2731.201	5207
2733.095	5231
2734.99	5330
2736.884	5184
2738.778	5268
2740.67	5190
2742.562	5234
2744.455	5269
2746.346	5202
2748.238	5188
2750.129	5194
2752.018	5219
2753.907	5180
2755.797	5184
2757.687	5215
2759.575	5357
2761.462	5230
2763.349	5198
2765.237	5202
2767.124	5188
2769.009	5128
2770.894	5272
2772.779	5206
2774.663	5295
2776.547	5237
2778.431	5179
2780.314	5098
2782.197	5227
2784.078	5127
2785.96	5154
2787.842	5123
2789.723	5251
2791.603	5179
2793.483	5208
2795.362	5142
2797.241	5228
2799.121	5133
2800.997	5207
2802.874	5258
2804.751	5137
2806.628	5190
2808.506	5226
2810.38	5084
2812.255	5149
2814.13	5149
2816.003	5164
2817.878	5134
2819.752	5183
2821.623	5264
2823.496	5196
2825.368	5138
2827.238	5136
2829.111	5208
2830.98	5233
2832.851	5221
2834.719	5239
2836.589	5225
2838.458	5274
2840.327	5266
2842.193	5156
2844.061	5285
2845.927	5214
2847.794	5240
2849.66	5346
2851.525	5268
2853.39	5354
2855.254	5307
2857.117	5325
2858.983	5320
2860.845	5435
2862.707	5457
2864.569	5427
2866.431	5422
2868.293	5505
2870.154	5498
2872.013	5461
2873.873	5639
2875.733	5569
2877.592	5612
2879.451	5726
2881.309	5720
2883.166	5643
2885.022	5814
2886.879	5856
2888.736	5878
2890.591	5835
2892.446	6000
2894.301	6004
2896.155	6006
2898.009	5922
2899.863	5953
2901.716	5947
2903.568	5927
2905.419	5817
2907.27	5917
2909.123	5882
2910.973	5884
2912.824	5912
2914.673	5975
2916.521	6007
2918.372	6131
2920.22	6081
2922.067	6047
2923.914	6103
2925.761	6217
2927.607	6255
2929.455	6193
2931.301	6175
2933.144	6243
2934.99	6258
2936.833	6349
2938.678	6405
2940.522	6435
2942.364	6688
2944.207	6642
2946.048	6716
2947.891	6807
2949.731	6920
2951.571	6979
2953.412	6873
2955.25	6850
2957.09	6796
2958.93	6617
2960.767	6850
2962.606	6665
2964.443	6664
2966.279	6526
2968.116	6321
2969.953	6346
2971.788	6085
2973.623	6139
2975.457	5870
2977.292	5960
2979.127	5853
2980.959	5924
2982.792	5771
2984.624	5661
2986.455	5659
2988.288	5676
2990.119	5612
2991.949	5610
2993.779	5547
2995.608	5538
2997.439	5465
2999.268	5378
3001.096	5492
3002.923	5432
3004.751	5325
3006.578	5197
3008.406	5303
3010.232	5158
3012.057	5156
3013.883	5136
3015.706	5172
3017.532	5109
3019.356	4977
3021.179	5147
3023.002	5168
3024.823	5040
3026.646	5040
3028.469	5004
3030.289	5087
3032.11	4975
3033.93	5008
3035.749	4939
3037.57	4976
3039.39	4925
3041.207	4893
3043.026	4973
3044.842	4903
3046.661	4920
3048.477	4936
3050.294	4921
3052.109	5000
3053.925	4876
3055.739	4850
3057.555	4944
3059.368	4940
3061.181	4899
3062.995	4923
3064.807	4922
3066.62	4826
3068.433	4944
3070.243	4834
3072.054	4967
3073.865	4872
3075.675	4908
3077.485	4911
3079.293	4938
3081.102	4822
3082.911	4865
3084.719	4791
3086.527	4849
3088.333	4831
3090.139	4765
3091.945	4701
3093.75	4816
3095.557	4847
3097.361	4793
3099.165	4843
3100.969	4775
3102.772	4735
3104.575	4720
3106.379	4817
3108.181	4754
3109.982	4739
3111.783	4733
3113.584	4735
3115.386	4819
3117.186	4690
3118.985	4696
3120.783	4675
3122.582	4666
3124.381	4679
3126.179	4727
3127.975	4753
3129.772	4609
3131.569	4727
3133.365	4725
3135.161	4575
3136.956	4632
3138.751	4661
3140.544	4635
3142.338	4651
3144.132	4560
3145.925	4637
3147.717	4605
3149.509	4608
3151.301	4558
3153.091	4704
3154.884	4598
3156.673	4555
3158.462	4645
3160.252	4607
3162.041	4588
3163.831	4546
3165.618	4510
3167.405	4525
3169.193	4600
3170.979	4515
3172.767	4575
3174.553	4510
3176.338	4564
3178.123	4565
3179.907	4458
3181.692	4559
3183.477	4540
3185.259	4581
3187.042	4640
3188.824	4616
3190.607	4618
3192.389	4513
3194.17	4494
3195.951	4551
3197.73	4591
3199.51	4626
3201.289	4557
3203.07	4589
3204.848	4590
3206.626	4508
3208.403	4533
3210.18	4528
3211.959	4509
3213.735	4532
3215.511	4576
3217.285	4571
3219.06	4550
3220.836	4485
3222.611	4465
3224.384	4544
3226.158	4572
3227.929	4573
3229.702	4565
3231.476	4570
3233.248	4556
3235.018	4422
3236.789	4442
3238.56	4520
3240.33	4534
3242.1	4525
3243.869	4592
3245.637	4520
3247.405	4563
3249.172	4566
3250.941	4555
3252.707	4533
3254.474	4546
3256.24	4501
3258.006	4493
3259.772	4519
3261.537	4465
3263.301	4558
3265.065	4505
3266.828	4430
3268.592	4507
3270.355	4412
3272.117	4416
3273.878	4453
3275.64	4524
3277.401	4521
3279.162	4452
3280.922	4549
3282.682	4490
3284.441	4463
3286.199	4519
3287.959	4446
3289.716	4473
3291.475	4559
3293.232	4546
3294.988	4448
3296.744	4585
3298.501	4459
3300.256	4527
3302.011	4480
3303.766	4538
3305.52	4545
3307.275	4409
3309.028	4444
3310.781	4489
3312.533	4446
3314.285	4409
3316.038	4396
3317.789	4446
3319.54	4553
3321.289	4443
3323.039	4498
3324.789	4455
3326.539	4432
3328.288	4398
3330.035	4555
3331.783	4380
3333.531	4446
3335.28	4481
3337.025	4417
3338.771	4502
3340.518	4418
3342.262	4367
3344.009	4415
3345.753	4412
3347.497	4315
3349.24	4348
3350.983	4391
3352.726	4400
3354.469	4380
3356.212	4384
3357.952	4356
3359.694	4407
3361.434	4376
3363.176	4320
3364.916	4326
3366.654	4318
3368.394	4352
3370.132	4379
3371.871	4345
3373.61	4245
3375.346	4307
3377.083	4317
3378.82	4360
3380.556	4221
3382.292	4358
3384.027	4354
3385.763	4332
3387.497	4315
3389.231	4311
3390.965	4367
3392.698	4266
3394.431	4280
3396.164	4276
3397.896	4304
3399.627	4250
3401.36	4255
3403.09	4320
3404.82	4234
3406.55	4311
3408.279	4209
3410.01	4292
3411.738	4293
3413.467	4242
3415.194	4206
3416.92	4185
3418.647	4282
3420.375	4230
3422.102	4284
3423.827	4196
3425.553	4243
3427.277	4237
3429.003	4193
3430.727	4147
3432.451	4260
3434.173	4133
3435.896	4212
3437.62	4149
3439.343	4078
3441.063	4152
3442.785	4210
3444.505	4117
3446.226	4159
3447.948	4185
3449.666	4205
3451.386	4131
3453.104	4160
3454.823	4191
3456.541	4078
3458.259	4143
3459.976	4124
3461.693	4090
3463.408	4075
3465.125	4073
3466.841	4023
3468.556	4168
3470.271	4023
3471.985	4123
3473.698	4068
3475.414	4008
3477.126	3987
3478.838	4000
3480.55	4030
3482.263	3984
3483.975	4037
3485.686	4062
3487.396	4024
3489.106	3950
3490.817	4041
3492.526	3948
3494.236	3958
3495.944	3991
3497.652	3986
3499.359	3958
3501.066	3831
3502.775	3943
3504.481	3926
3506.187	3978
3507.893	4004
3509.598	3943
3511.304	3977
3513.009	3874
3514.713	3936
3516.417	3857
3518.12	3883
3519.821	3896
3521.525	3877
3523.228	3935
3524.929	3907
3526.631	3854
3528.33	3928
3530.032	3883
3531.733	3860
3533.433	3839
3535.131	3841
3536.83	3831
3538.529	3952
3540.227	3898
3541.925	3784
3543.623	3781
3545.319	3848
3547.016	3865
3548.712	3849
3550.408	3903
3552.103	3818
3553.798	3818
3555.491	3808
3557.188	3768
3558.88	3841
3560.574	3750
3562.266	3754
3563.959	3726
3565.651	3730
3567.343	3760
3569.035	3823
3570.725	3693
3572.415	3715
3574.106	3736
3575.797	3770
3577.485	3806
3579.174	3735
3580.863	3698
3582.551	3727
3584.238	3767
3585.926	3664
3587.613	3633
3589.3	3720
3590.986	3661
3592.671	3657
3594.357	3743
3596.042	3636
3597.726	3742
3599.41	3646
3601.094	3668
3602.778	3622
3604.461	3580
3606.143	3620
3607.825	3682
3609.507	3529
3611.188	3771
3612.87	3662
3614.551	3629
3616.229	3664
3617.909	3569
3619.589	3621
3621.269	3542
3622.948	3617
3624.625	3560
3626.302	3659
3627.98	3659
3629.657	3576
3631.334	3583
3633.01	3676
3634.686	3602
3636.361	3537
3638.036	3576
3639.712	3575
3641.385	3498
3643.06	3546
3644.732	3524
3646.405	3577
3648.08	3490
3649.751	3552
3651.424	3516
3653.094	3508
3654.766	3511
3656.436	3499
3658.106	3525
3659.777	3443
3661.446	3554
3663.115	3447
3664.783	3516
3666.452	3503
3668.121	3477
3669.788	3453
3671.454	3459
3673.121	3379
3674.789	3486
3676.455	3430
3678.12	3424
3679.784	3434
3681.45	3468
3683.114	3488
3684.779	3444
3686.442	3427
3688.105	3409
3689.768	3510
3691.43	3461
3693.093	3432
3694.754	3464
3696.415	3435
3698.076	3371
3699.736	3432
3701.396	3406
3703.057	3539
3704.716	3410
3706.375	3434
3708.034	3456
3709.692	3354
3711.351	3302
3713.008	3484
3714.665	3403
3716.321	3404
3717.977	3349
3719.634	3367
3721.29	3321
3722.945	3344
3724.598	3373
3726.253	3367
3727.907	3333
3729.561	3331
3731.214	3359
3732.867	3355
3734.518	3275
3736.171	3280
3737.824	3291
3739.474	3345
3741.125	3329
3742.775	3292
3744.425	3327
3746.074	3338
3747.725	3294
3749.373	3333
3751.022	3300
3752.669	3279
3754.318	3338
3755.966	3278
3757.612	3211
3759.259	3295
3760.905	3274
3762.55	3281
3764.197	3264
3765.842	3289
3767.486	3258
3769.131	3307
3770.774	3243
3772.417	3217
3774.061	3261
3775.705	3308
3777.347	3298
3778.988	3252
3780.629	3241
3782.271	3250
3783.912	3249
3785.552	3261
3787.192	3230
3788.831	3257
3790.472	3249
3792.112	3279
3793.75	3262
3795.388	3216
3797.024	3309
3798.661	3199
3800.3	3208
3801.936	3191
3803.572	3223
3805.208	3176
3806.844	3226
3808.48	3188
3810.115	3282
3811.748	3156
3813.382	3215
3815.016	3220
3816.649	3101
3818.283	3228
3819.914	3151
3821.547	3179
3823.178	3124
3824.809	3118
3826.441	3183
3828.072	3154
3829.701	3109
3831.331	3118
3832.96	3151
3834.591	3167
3836.219	3131
3837.847	3044
3839.475	3178
3841.102	3150
3842.729	3148
3844.357	3110
3845.984	3186
3847.609	3170
3849.234	3030
3850.86	3080
3852.485	3184
3854.11	3102
3855.734	3110
3857.357	3117
3858.981	3075
3860.603	3170
3862.227	3086
3863.848	3011
3865.471	3117
3867.092	3095
3868.713	3129
3870.334	3105
3871.954	3079
3873.575	3032
3875.194	3157
3876.813	3119
3878.433	3011
3880.051	3035
3881.669	3090
3883.286	3120
3884.904	3112
3886.52	3025
3888.138	3059
3889.754	3079
3891.37	3090
3892.985	3083
3894.6	2985
3896.216	3058
3897.831	3119
3899.444	2976
3901.058	3068
3902.67	3086
3904.283	3098
3905.897	3053
3907.509	3035
3909.121	3034
3910.731	2953
3912.342	3013
3913.954	3045
3915.563	3033
3917.174	3069
3918.783	3017
3920.391	3048
3922.002	3038
3923.611	3014
3925.218	2971
3926.826	2995
3928.432	3008
3930.039	3030
3931.647	3023
3933.253	2996
3934.859	3030
3936.464	3030
3938.068	2977
3939.675	2977
3941.278	2941
3942.883	2906
3944.486	2986
3946.089	2971
3947.692	2965
3949.295	2918
3950.898	2969
3952.499	3024
3954.1	2936
3955.7	3035
3957.303	2997
3958.903	2924
3960.502	3015
3962.101	2968
3963.7	3005
3965.301	2911
3966.899	2883
3968.497	2966
3970.094	2948
3971.691	2860
3973.288	2856
3974.885	2992
3976.481	2937
3978.077	2952
3979.672	2920
3981.267	2881
3982.863	2904
3984.457	2874
3986.051	2886
3987.645	2937
3989.238	2939
3990.831	2841
3992.425	2837
3994.017	2820
3995.607	2834
3997.199	2878
3998.79	2841
4000.382	2880
4001.973	2889
4003.561	2827
4005.151	2882
4006.741	2787
4008.331	2871
4009.918	2782
4011.507	2828
4013.095	2804
4014.681	2821
4016.269	2801
4017.856	2849
4019.443	2799
4021.028	2761
4022.614	2749
4024.199	2857
4025.785	2731
4027.37	2786
4028.953	2779
4030.536	2811
4032.12	2824
4033.704	2789
4035.287	2791
4036.869	2753
4038.45	2791
4040.032	2769
4041.613	2806
4043.195	2791
4044.776	2764
4046.356	2760
4047.935	2674
4049.515	2692
4051.095	2728
4052.674	2698
4054.251	2815
4055.829	2777
4057.406	2762
4058.985	2715
4060.562	2744
4062.139	2725
4063.715	2756
4065.29	2689
4066.865	2757
4068.442	2700
4070.016	2742
4071.59	2743
4073.164	2645
4074.738	2699
4076.312	2743
4077.885	2800
4079.458	2767
4081.03	2686
4082.602	2680
4084.173	2719
4085.745	2619
4087.315	2704
4088.886	2628
4090.456	2697
4092.026	2719
4093.596	2662
4095.165	2647
4096.734	2748
4098.301	2708
4099.869	2707
4101.437	2661
4103.006	2653
4104.572	2617
4106.139	2722
4107.704	2644
4109.27	2674
4110.837	2625
4112.401	2690
4113.966	2593
4115.53	2636
4117.094	2642
4118.659	2641
4120.223	2674
4121.785	2621
4123.347	2709
4124.909	2649
4126.471	2660
4128.034	2607
4129.595	2586
4131.155	2623
4132.716	2634
4134.275	2525
4135.836	2659
4137.395	2572
4138.955	2611
4140.513	2651
4142.071	2548
4143.628	2639
4145.188	2542
4146.745	2549
4148.302	2562
4149.858	2573
4151.414	2554
4152.971	2553
4154.526	2570
4156.081	2590
4157.635	2565
4159.189	2623
4160.745	2524
4162.298	2534
4163.852	2579
4165.405	2578
4166.957	2470
4168.51	2563
4170.063	2548
4171.614	2541
4173.166	2503
4174.717	2496
4176.267	2535
4177.817	2570
4179.368	2510
4180.917	2543
4182.466	2559
4184.016	2475
4185.564	2475
4187.112	2447
4188.66	2546
4190.207	2465
4191.754	2515
4193.301	2432
4194.848	2522
4196.394	2542
4197.94	2489
4199.484	2520
4201.03	2520
4202.575	2484
4204.12	2522
4205.663	2486
4207.207	2471
4208.75	2525
4210.292	2512
4211.836	2454
4213.378	2513
4214.92	2522
4216.46	2477
4218.002	2451
4219.544	2446
4221.083	2441
4222.625	2493
4224.164	2442
4225.703	2513
4227.244	2426
4228.782	2428
4230.32	2480
4231.857	2371
4233.395	2411
4234.933	2446
4236.471	2471
4238.007	2440
4239.542	2432
4241.078	2420
4242.614	2483
4244.15	2400
4245.685	2448
4247.219	2436
4248.753	2441
4250.287	2439
4251.82	2447
4253.354	2420
4254.887	2413
4256.419	2428
4257.951	2408
4259.483	2409
4261.016	2398
4262.547	2372
4264.078	2422
4265.608	2404
4267.137	2413
4268.668	2371
4270.197	2375
4271.727	2421
4273.254	2378
4274.783	2324
4276.311	2369
4277.84	2387
4279.366	2401
4280.894	2365
4282.42	2351
4283.946	2316
4285.473	2395
4286.998	2340
4288.523	2347
4290.047	2358
4291.572	2310
4293.096	2323
4294.622	2391
4296.144	2356
4297.668	2351
4299.19	2342
4300.713	2322
4302.236	2311
4303.758	2305
4305.279	2369
4306.799	2350
4308.321	2361
4309.842	2370
4311.361	2252
4312.882	2338
4314.401	2325
