400.0961	6528
402.6185	6317
405.1424	6381
407.6635	6323
410.1838	6424
412.7035	6534
415.2225	6318
417.7388	6531
420.2585	6602
422.7754	6634
425.2917	6617
427.8072	6801
430.3221	6822
432.8363	6743
435.3498	6926
437.8626	6727
440.3727	6824
442.8841	6863
445.3969	6845
447.907	6870
450.4142	6909
452.9229	6745
455.4289	6914
457.9362	6835
460.4449	6834
462.9488	6728
465.454	6850
467.9566	6793
470.4604	6989
472.9637	6930
475.4662	6937
477.966	7039
480.4671	6923
482.9656	6908
485.4633	6871
487.9645	6935
490.4608	7067
492.9566	7031
495.4536	7133
497.948	7082
500.4437	7067
502.9387	7195
505.431	7094
507.9226	7147
510.4136	7179
512.9079	7078
515.3975	7113
517.8864	7164
520.3746	7134
522.8622	7199
525.3491	7179
527.8394	7119
530.3249	7210
532.8098	7055
535.2939	7265
537.7774	7269
540.2623	7284
542.7444	7199
545.2259	7261
547.7067	7283
550.1868	7182
552.6683	7243
555.147	7254
557.6231	7292
560.1005	7180
562.5773	7194
565.0534	7260
567.5308	7281
570.0056	7300
572.4776	7391
574.951	7359
577.4237	7510
579.8978	7599
582.3671	7550
584.8378	7505
587.3079	7559
589.7773	7487
592.244	7569
594.714	7605
597.1793	7440
599.6461	7548
602.1121	7311
604.5754	7412
607.0421	7454
609.5042	7448
611.9675	7432
614.4282	7583
616.8902	7430
619.3515	7373
621.8122	7433
624.2702	7456
626.7296	7410
629.1863	7463
631.6423	7452
634.1017	7428
636.5563	7545
639.0104	7488
641.4658	7541
643.9185	7432
646.3725	7495
648.8239	7689
651.2766	7454
653.7266	7510
656.176	7607
658.6247	7508
661.0748	7575
663.5242	7572
665.9709	7696
668.417	7713
670.8624	7707
673.3092	7710
675.7533	7638
678.1968	7666
680.6395	7681
683.0817	7684
685.5251	7815
687.9659	7862
690.4061	7734
692.8456	7799
695.2844	7726
697.7226	7816
700.1621	7604
702.599	7853
705.0332	7720
707.4688	7918
709.9036	7883
712.3399	7973
714.7735	7869
717.2044	7887
719.6367	8129
722.0683	8024
724.4993	7956
726.9296	7864
729.3593	8039
731.7883	8038
734.2147	8147
736.6423	8108
739.0714	8185
741.4958	8198
743.9216	8149
746.3447	7986
748.7691	8020
751.1929	8346
753.616	8189
756.0366	8167
758.4584	8439
760.8776	8260
763.2982	8517
765.718	8403
768.1373	8333
770.5539	8451
772.9698	8242
775.3871	8388
777.8038	8390
780.2178	8253
782.6332	8364
785.0459	8308
787.458	8452
789.8714	8219
792.2842	8248
794.6943	8341
797.1038	8387
799.5127	8330
801.9209	8364
804.3324	8405
806.7393	8526
809.1456	8445
811.5513	8450
813.9562	8483
816.3625	8408
818.7663	8504
821.1693	8473
823.5718	8468
825.9735	8498
828.3746	8515
830.7771	8379
833.177	8617
835.5762	8479
837.9747	8578
840.3727	8631
842.772	8491
845.1666	8562
847.5626	8565
849.958	8622
852.3527	8916
854.7488	8663
857.1403	8521
859.5331	8711
861.9253	8672
864.3168	8565
866.7057	8645
869.098	8635
871.4876	8484
873.8746	8518
876.263	8586
878.6487	8572
881.0378	8617
883.4243	8533
885.8081	8576
888.1933	8559
890.5759	8625
892.9598	8521
895.343	8601
897.7256	8521
900.1057	8586
902.4871	8636
904.8659	8723
907.246	8576
909.6254	8761
912.0023	8806
914.3786	8788
916.7562	8895
919.1331	8990
921.5074	8923
923.8831	9032
926.2562	8887
928.6287	9070
931.0005	9027
933.3757	9070
935.7462	9061
938.1162	9088
940.4855	9194
942.8542	9259
945.2242	9410
947.5916	9418
949.9584	9627
952.3266	9796
954.6921	10022
957.0571	10249
959.4233	10499
961.787	10764
964.15	10593
966.5125	10490
968.8742	9962
971.2354	9921
973.5959	9402
975.9559	9344
978.3151	9261
980.6738	9191
983.0338	9109
985.3912	8905
987.7461	8947
990.1022	8928
992.4578	9013
994.8127	8993
997.1689	8968
999.5207	8998
1001.874	9060
1004.226	9023
1006.576	9055
1008.929	9065
1011.28	8914
1013.628	8941
1015.977	8998
1018.324	8983
1020.674	9082
1023.019	9086
1025.366	9232
1027.713	9024
1030.056	9084
1032.399	9080
1034.746	9037
1037.087	9177
1039.431	9013
1041.771	9244
1044.113	9083
1046.454	9209
1048.793	9164
1051.133	9077
1053.471	9009
1055.807	9108
1058.146	9084
1060.483	9103
1062.818	9211
1065.153	9150
1067.489	9177
1069.822	9158
1072.156	9238
1074.488	9246
1076.82	9362
1079.15	9200
1081.48	9276
1083.814	9171
1086.143	9229
1088.471	9121
1090.799	9166
1093.126	9144
1095.452	9121
1097.78	9176
1100.105	9123
1102.43	9131
1104.754	9217
1107.077	9149
1109.4	9293
1111.722	9087
1114.044	9245
1116.365	9196
1118.685	9015
1121.005	9138
1123.324	9120
1125.643	9223
1127.961	9100
1130.278	9118
1132.595	9149
1134.911	9253
1137.226	9227
1139.541	9231
1141.854	9251
1144.167	9061
1146.482	9231
1148.793	9265
1151.105	9378
1153.414	9137
1155.725	9203
1158.033	9086
1160.344	9237
1162.651	9208
1164.959	9191
1167.265	9288
1169.572	9173
1171.878	9269
1174.184	9316
1176.488	9263
1178.79	9243
1181.094	9279
1183.396	9193
1185.699	9185
1188.001	9200
1190.301	9127
1192.6	9175
1194.9	9268
1197.2	9247
1199.497	9220
1201.794	9290
1204.09	9371
1206.387	9228
1208.684	9328
1210.978	9285
1213.272	9307
1215.565	9297
1217.858	9256
1220.15	9346
1222.443	9200
1224.734	9267
1227.024	9342
1229.313	9310
1231.602	9512
1233.892	9494
1236.18	9535
1238.467	9428
1240.754	9694
1243.04	9702
1245.325	9690
1247.612	9647
1249.896	9669
1252.178	9543
1254.461	9417
1256.743	9667
1259.027	9546
1261.308	9572
1263.587	9439
1265.867	9468
1268.146	9550
1270.425	9580
1272.703	9628
1274.981	9629
1277.256	9501
1279.532	9459
1281.808	9567
1284.083	9502
1286.358	9530
1288.63	9398
1290.904	9533
1293.175	9496
1295.449	9333
1297.719	9493
1299.99	9497
1302.259	9431
1304.529	9446
1306.798	9571
1309.065	9438
1311.333	9526
1313.599	9421
1315.866	9391
1318.131	9534
1320.396	9570
1322.66	9424
1324.925	9509
1327.187	9489
1329.448	9435
1331.711	9647
1333.974	9566
1336.234	9458
1338.493	9472
1340.752	9577
1343.01	9569
1345.269	9334
1347.526	9397
1349.784	9452
1352.04	9385
1354.295	9367
1356.552	9449
1358.806	9579
1361.059	9589
1363.312	9496
1365.564	9528
1367.818	9531
1370.069	9539
1372.318	9522
1374.568	9533
1376.817	9610
1379.066	9618
1381.316	9484
1383.564	9443
1385.809	9562
1388.056	9622
1390.301	9543
1392.549	9555
1394.793	9566
1397.036	9791
1399.279	9747
1401.522	9708
1403.763	9659
1406.007	9738
1408.248	9628
1410.487	9711
1412.727	9664
1414.965	9823
1417.205	9765
1419.442	9830
1421.68	9661
1423.915	9649
1426.152	9795
1428.388	9737
1430.623	9782
1432.857	9859
1435.091	9883
1437.323	9802
1439.556	9988
1441.789	10014
1444.019	9883
1446.25	9894
1448.48	9825
1450.708	9914
1452.938	9947
1455.167	10030
1457.394	9932
1459.62	9958
1461.846	10011
1464.073	9893
1466.299	9784
1468.523	9861
1470.746	9914
1472.969	9656
1475.191	9694
1477.415	9759
1479.636	9671
1481.858	9609
1484.078	9670
1486.298	9550
1488.518	9582
1490.736	9562
1492.954	9465
1495.169	9481
1497.386	9576
1499.602	9509
1501.819	9691
1504.034	9456
1506.248	9586
1508.462	9510
1510.675	9537
1512.888	9521
1515.1	9509
1517.311	9446
1519.522	9382
1521.732	9393
1523.942	9476
1526.151	9451
1528.36	9402
1530.566	9550
1532.773	9518
1534.98	9588
1537.187	9549
1539.392	9456
1541.596	9613
1543.801	9603
1546.005	9602
1548.208	9648
1550.411	9635
1552.612	9612
1554.814	9761
1557.013	9628
1559.212	9671
1561.414	9615
1563.612	9764
1565.811	9623
1568.007	9716
1570.203	9765
1572.403	9695
1574.598	9799
1576.792	9716
1578.988	9825
1581.181	9784
1583.376	9871
1585.568	9663
1587.761	9798
1589.952	9728
1592.143	9832
1594.333	9763
1596.524	9751
1598.715	9871
1600.903	9956
1603.091	9845
1605.278	9765
1607.466	9888
1609.652	9905
1611.838	9946
1614.023	9745
1616.207	9927
1618.391	9753
1620.576	9684
1622.759	9935
1624.941	9872
1627.123	9868
1629.304	10001
1631.484	9847
1633.664	9937
1635.844	9821
1638.022	9827
1640.201	9879
1642.38	10005
1644.556	9870
1646.732	9850
1648.908	9873
1651.084	10057
1653.257	9873
1655.433	10006
1657.607	9983
1659.779	10071
1661.951	9965
1664.122	10035
1666.295	10049
1668.467	10128
1670.635	10024
1672.805	9975
1674.973	9940
1677.142	9945
1679.31	10106
1681.478	9996
1683.644	10030
1685.81	9900
1687.975	9892
1690.142	9986
1692.305	10021
1694.468	10051
1696.632	9971
1698.794	9808
1700.957	9821
1703.119	9749
1705.279	9888
1707.439	9822
1709.598	9744
1711.758	9848
1713.917	9966
1716.075	9975
1718.231	9841
1720.388	9871
1722.543	9745
1724.702	9712
1726.856	9793
1729.01	9730
1731.164	9820
1733.317	9772
1735.471	9758
1737.623	9657
1739.774	9782
1741.925	9783
1744.075	9741
1746.225	9692
1748.376	9735
1750.524	9683
1752.672	9764
1754.82	9920
1756.965	9850
1759.113	9839
1761.259	9762
1763.405	9809
1765.549	9848
1767.694	10026
1769.836	9818
1771.981	9797
1774.123	9868
1776.264	9854
1778.405	9789
1780.546	9875
1782.687	9908
1784.827	9813
1786.966	9928
1789.103	9875
1791.242	10046
1793.381	10047
1795.517	10052
1797.653	9916
1799.788	9944
1801.923	9818
1804.057	9888
1806.193	9842
1808.326	9806
1810.457	9899
1812.59	9862
1814.721	9996
1816.855	9964
1818.984	9946
1821.113	9814
1823.244	9858
1825.372	9850
1827.499	9909
1829.63	9711
1831.756	9941
1833.882	9881
1836.007	9794
1838.132	9710
1840.26	9914
1842.384	9815
1844.507	9702
1846.63	9890
1848.752	9788
1850.875	9845
1852.996	9653
1855.118	9721
1857.238	9946
1859.358	9645
1861.477	9819
1863.597	9705
1865.715	9814
1867.832	9776
1869.948	9701
1872.064	9654
1874.181	9767
1876.297	9740
1878.411	9726
1880.526	9558
1882.639	9680
1884.752	9796
1886.865	9876
1888.977	9647
1891.089	9702
1893.2	9745
1895.308	9764
1897.42	9798
1899.53	9949
1901.639	9786
1903.745	9835
1905.853	9963
1907.962	9858
1910.067	9930
1912.174	9893
1914.278	9849
1916.383	9711
1918.486	9832
1920.592	9933
1922.694	9877
1924.797	9866
1926.898	9888
1929	10041
1931.102	9983
1933.203	9962
1935.301	9946
1937.401	9985
1939.499	9887
1941.598	9926
1943.697	10020
1945.793	9945
1947.888	9875
1949.985	9993
1952.08	9987
1954.176	9945
1956.269	9912
1958.364	9811
1960.457	10044
1962.549	10006
1964.642	9799
1966.733	9899
1968.823	10025
1970.913	9792
1973.005	9840
1975.093	9801
1977.184	9979
1979.271	9851
1981.359	9888
1983.446	9891
1985.532	9761
1987.619	9756
1989.705	9843
1991.789	9862
1993.874	9906
1995.956	9844
1998.041	9767
2000.123	9713
2002.206	9873
2004.287	9639
2006.368	9876
2008.449	9719
2010.529	9837
2012.609	9763
2014.688	9834
2016.766	9813
2018.843	9961
2020.922	9795
2022.999	9854
2025.074	9709
2027.15	9854
2029.225	9763
2031.299	9801
2033.375	9827
2035.447	9709
2037.52	9672
2039.592	9693
2041.664	9862
2043.736	9734
2045.807	9722
2047.876	9722
2049.947	9778
2052.015	9762
2054.086	9766
2056.153	9736
2058.221	9721
2060.288	9703
2062.353	9817
2064.42	9836
2066.486	9730
2068.55	9827
2070.614	9790
2072.678	9891
2074.741	9706
2076.805	9811
2078.866	9772
2080.929	9760
2082.99	9861
2085.049	9675
2087.109	9846
2089.17	9686
2091.228	9727
2093.286	9768
2095.344	9721
2097.4	9762
2099.46	9710
2101.516	9674
2103.572	9828
2105.626	9821
2107.679	9792
2109.735	9800
2111.788	9777
2113.841	9779
2115.894	9627
2117.945	9786
2119.997	9798
2122.049	9792
2124.1	9770
2126.148	9718
2128.197	9587
2130.246	9758
2132.296	9767
2134.342	9849
2136.39	9670
2138.437	9720
2140.483	9667
2142.527	9761
2144.574	9709
2146.619	9823
2148.661	9654
2150.705	9619
2152.747	9726
2154.792	9893
2156.832	9700
2158.874	9681
2160.915	9624
2162.954	9613
2164.995	9717
2167.034	9575
2169.072	9667
2171.111	9614
2173.148	9638
2175.186	9702
2177.223	9606
2179.258	9717
2181.294	9492
2183.328	9526
2185.362	9440
2187.398	9611
2189.431	9461
2191.463	9477
2193.495	9572
2195.528	9596
2197.56	9507
2199.59	9431
2201.62	9478
2203.649	9651
2205.678	9449
2207.708	9403
2209.737	9584
2211.764	9477
2213.791	9469
2215.817	9513
2217.843	9423
2219.87	9474
2221.895	9378
2223.919	9583
2225.942	9420
2227.966	9521
2229.988	9623
2232.012	9401
2234.032	9495
2236.054	9349
2238.074	9386
2240.095	9521
2242.116	9421
2244.135	9442
2246.153	9333
2248.171	9384
2250.188	9437
2252.208	9327
2254.223	9475
2256.239	9477
2258.255	9240
2260.269	9458
2262.283	9476
2264.3	9428
2266.312	9462
2268.325	9463
2270.336	9498
2272.349	9515
2274.362	9511
2276.372	9256
2278.383	9328
2280.392	9298
2282.402	9455
2284.409	9591
2286.418	9443
2288.427	9497
2290.433	9439
2292.441	9372
2294.446	9456
2296.453	9417
2298.459	9431
2300.463	9394
2302.466	9340
2304.471	9375
2306.475	9293
2308.477	9461
2310.478	9228
2312.481	9327
2314.481	9318
2316.481	9488
2318.482	9242
2320.482	9427
2322.48	9359
2324.48	9260
2326.478	9334
2328.476	9310
2330.473	9326
2332.469	9343
2334.465	9286
2336.46	9244
2338.454	9142
2340.45	9367
2342.444	9278
2344.437	9301
2346.43	9331
2348.421	9325
2350.414	9249
2352.405	9243
2354.396	9226
2356.386	9243
2358.376	9220
2360.366	9259
2362.355	9101
2364.343	9321
2366.331	9130
2368.317	9097
2370.304	9151
2372.292	9070
2374.278	9080
2376.262	9116
2378.247	9179
2380.23	9109
2382.216	9121
2384.199	9030
2386.181	9212
2388.163	9013
2390.144	8888
2392.127	9038
2394.107	9205
2396.087	9127
2398.066	9006
2400.046	9095
2402.023	9049
2404.004	9015
2405.981	9006
2407.957	8981
2409.934	9007
2411.91	8965
2413.886	8965
2415.862	9024
2417.836	9084
2419.809	9123
2421.784	8992
2423.756	9081
2425.73	9075
2427.701	8953
2429.672	9220
2431.644	9176
2433.615	9038
2435.586	9075
2437.555	8912
2439.523	9088
2441.491	8914
2443.459	9055
2445.428	9063
2447.395	8994
2449.361	9075
2451.327	8926
2453.292	9014
2455.257	9066
2457.223	9013
2459.187	8941
2461.15	8922
2463.113	9010
2465.076	8872
2467.039	8884
2468.999	8946
2470.96	8806
2472.921	8977
2474.881	8922
2476.841	9015
2478.8	8856
2480.759	8889
2482.717	8900
2484.675	8877
2486.63	8813
2488.589	8927
2490.545	8955
2492.5	8811
2494.455	8880
2496.408	8903
2498.364	8785
2500.318	8813
2502.27	8841
2504.223	8784
2506.174	8816
2508.126	8833
2510.078	8763
2512.03	8870
2513.979	8761
2515.927	8768
2517.877	8813
2519.826	8815
2521.775	8761
2523.722	8756
2525.668	8810
2527.616	8819
2529.561	8870
2531.508	8884
2533.452	8755
2535.398	8831
2537.342	8740
2539.284	8687
2541.229	8959
2543.173	8751
2545.114	8754
2547.055	8688
2548.996	8906
2550.938	8782
2552.878	8815
2554.817	8839
2556.756	8730
2558.695	8826
2560.633	8619
2562.572	8713
2564.509	8806
2566.445	8808
2568.382	8781
2570.317	8807
2572.254	8686
2574.189	8705
2576.123	8794
2578.057	8788
2579.99	8648
2581.923	8795
2583.855	8741
2585.788	8697
2587.719	8662
2589.65	8843
2591.579	8832
2593.511	8647
2595.44	8630
2597.37	8602
2599.297	8645
2601.225	8904
2603.153	8730
2605.08	8610
2607.007	8760
2608.932	8601
2610.858	8701
2612.782	8874
2614.709	8739
2616.632	8803
2618.556	8707
2620.478	8872
2622.401	8648
2624.324	8690
2626.247	8686
2628.167	8700
2630.088	8811
2632.008	8758
2633.928	8686
2635.848	8810
2637.766	8665
2639.684	8707
2641.603	8676
2643.519	8782
2645.437	8660
2647.353	8685
2649.27	8673
2651.184	8689
2653.099	8728
2655.014	8729
2656.928	8817
2658.842	8880
2660.755	8590
2662.667	8657
2664.579	8659
2666.491	8689
2668.402	8616
2670.312	8752
2672.222	8664
2674.132	8704
2676.042	8716
2677.951	8710
2679.859	8642
2681.766	8562
2683.674	8738
2685.582	8592
2687.488	8781
2689.392	8540
2691.298	8494
2693.202	8516
2695.107	8703
2697.012	8483
2698.914	8572
2700.817	8580
2702.72	8427
2704.622	8663
2706.524	8605
2708.425	8510
2710.326	8492
2712.225	8532
2714.125	8519
2716.024	8568
2717.923	8587
2719.822	8518
2721.719	8507
2723.616	8462
2725.512	8559
2727.41	8556
2729.305	8564
2731.201	8518
2733.095	8633
2734.99	8561
2736.884	8489
2738.778	8450
2740.67	8550
2742.562	8560
2744.455	8486
2746.346	8472
2748.238	8463
2750.129	8451
2752.018	8439
2753.907	8445
2755.797	8380
2757.687	8481
2759.575	8462
2761.462	8477
2763.349	8327
2765.237	8311
2767.124	8432
2769.009	8287
2770.894	8334
2772.779	8442
2774.663	8414
2776.547	8308
2778.431	8356
2780.314	8401
2782.197	8404
2784.078	8305
2785.96	8409
2787.842	8355
2789.723	8299
2791.603	8521
2793.483	8255
2795.362	8329
2797.241	8350
2799.121	8358
2800.997	8340
2802.874	8338
2804.751	8351
2806.628	8269
2808.506	8325
2810.38	8367
2812.255	8258
2814.13	8277
2816.003	8311
2817.878	8302
2819.752	8313
2821.623	8402
2823.496	8212
2825.368	8433
2827.238	8285
2829.111	8297
2830.98	8326
2832.851	8397
2834.719	8345
2836.589	8315
2838.458	8349
2840.327	8208
2842.193	8282
2844.061	8274
2845.927	8367
2847.794	8190
2849.66	8259
2851.525	8317
2853.39	8192
2855.254	8474
2857.117	8386
2858.983	8381
2860.845	8347
2862.707	8337
2864.569	8500
2866.431	8529
2868.293	8480
2870.154	8435
2872.013	8555
2873.873	8529
2875.733	8648
2877.592	8683
2879.451	8641
2881.309	8741
2883.166	8744
2885.022	8796
2886.879	8809
2888.736	8797
2890.591	8923
2892.446	8898
2894.301	8823
2896.155	8921
2898.009	8922
2899.863	8849
2901.716	8731
2903.568	8785
2905.419	8727
2907.27	8765
2909.123	8879
2910.973	8871
2912.824	8806
2914.673	8982
2916.521	8919
2918.372	9043
2920.22	8926
2922.067	9213
2923.914	8975
2925.761	9135
2927.607	9156
2929.455	9263
2931.301	9295
2933.144	9415
2934.99	9341
2936.833	9381
2938.678	9460
2940.522	9544
2942.364	9604
2944.207	9676
2946.048	9714
2947.891	9881
2949.731	9665
2951.571	9662
2953.412	9663
2955.25	9584
2957.09	9669
2958.93	9349
2960.767	9447
2962.606	9288
2964.443	9301
2966.279	9280
2968.116	9111
2969.953	9158
2971.788	8973
2973.623	8923
2975.457	8868
2977.292	8964
2979.127	8842
2980.959	8823
2982.792	8674
2984.624	8788
2986.455	8597
2988.288	8765
2990.119	8636
2991.949	8606
2993.779	8573
2995.608	8501
2997.439	8540
2999.268	8510
3001.096	8317
3002.923	8236
3004.751	8291
3006.578	8276
3008.406	8112
3010.232	8191
3012.057	8114
3013.883	8152
3015.706	8058
3017.532	8118
3019.356	7989
3021.179	7909
3023.002	7951
3024.823	7934
3026.646	7827
3028.469	7771
3030.289	7871
3032.11	7806
3033.93	7805
3035.749	7745
3037.57	7732
3039.39	7739
3041.207	7809
3043.026	7763
3044.842	7694
3046.661	7769
3048.477	7830
3050.294	7599
3052.109	7857
3053.925	7793
3055.739	7769
3057.555	7854
3059.368	7710
3061.181	7645
3062.995	7708
3064.807	7666
3066.62	7740
3068.433	7917
3070.243	7659
3072.054	7606
3073.865	7651
3075.675	7862
3077.485	7663
3079.293	7601
3081.102	7611
3082.911	7691
3084.719	7521
3086.527	7547
3088.333	7456
3090.139	7592
3091.945	7527
3093.75	7512
3095.557	7533
3097.361	7515
3099.165	7520
3100.969	7565
3102.772	7401
3104.575	7374
3106.379	7433
3108.181	7468
3109.982	7477
3111.783	7505
3113.584	7409
3115.386	7455
3117.186	7359
3118.985	7480
3120.783	7376
3122.582	7301
3124.381	7353
3126.179	7380
3127.975	7437
3129.772	7388
3131.569	7441
3133.365	7275
3135.161	7243
3136.956	7358
3138.751	7383
3140.544	7241
3142.338	7290
3144.132	7285
3145.925	7273
3147.717	7273
3149.509	7255
3151.301	7236
3153.091	7174
3154.884	7190
3156.673	7144
3158.462	7188
3160.252	7242
3162.041	7160
3163.831	7239
3165.618	7050
3167.405	7280
3169.193	7124
3170.979	7266
3172.767	7222
3174.553	7275
3176.338	7146
3178.123	7240
3179.907	7135
3181.692	7166
3183.477	7208
3185.259	7074
3187.042	7136
3188.824	7224
3190.607	7106
3192.389	7188
3194.17	7207
3195.951	7207
3197.73	7096
3199.51	7100
3201.289	7244
3203.07	7181
3204.848	7147
3206.626	7042
3208.403	7195
3210.18	7013
3211.959	7046
3213.735	7105
3215.511	7000
3217.285	7035
3219.06	7091
3220.836	7180
3222.611	7109
3224.384	7121
3226.158	7195
3227.929	7074
3229.702	6980
3231.476	7074
3233.248	7133
3235.018	7172
3236.789	7062
3238.56	7053
3240.33	7042
3242.1	7150
3243.869	7061
3245.637	7047
3247.405	7040
3249.172	6993
3250.941	7072
3252.707	7007
3254.474	7046
3256.24	7067
3258.006	7063
3259.772	6968
3261.537	7014
3263.301	7121
3265.065	6968
3266.828	7059
3268.592	6951
3270.355	7024
3272.117	7148
3273.878	6958
3275.64	7037
3277.401	7063
3279.162	7024
3280.922	7020
3282.682	6918
3284.441	6991
3286.199	7189
3287.959	7065
3289.716	7007
3291.475	7003
3293.232	6999
3294.988	7118
3296.744	6928
3298.501	7044
3300.256	6954
3302.011	7002
3303.766	6966
3305.52	6969
3307.275	7017
3309.028	6938
3310.781	6981
3312.533	6874
3314.285	6967
3316.038	6975
3317.789	6948
3319.54	6932
3321.289	6929
3323.039	6849
3324.789	7008
3326.539	7008
3328.288	6789
3330.035	7008
3331.783	6877
3333.531	6907
3335.28	6958
3337.025	6882
3338.771	6895
3340.518	6828
3342.262	6940
3344.009	6931
3345.753	6809
3347.497	6910
3349.24	6808
3350.983	6974
3352.726	6827
3354.469	6831
3356.212	6758
3357.952	6735
3359.694	6803
3361.434	6782
3363.176	6764
3364.916	6921
3366.654	6738
3368.394	6717
3370.132	6834
3371.871	6665
3373.61	6744
3375.346	6727
3377.083	6818
3378.82	6754
3380.556	6769
3382.292	6739
3384.027	6774
3385.763	6616
3387.497	6622
3389.231	6673
3390.965	6658
3392.698	6715
3394.431	6772
3396.164	6754
3397.896	6682
3399.627	6615
3401.36	6643
3403.09	6626
3404.82	6713
3406.55	6601
3408.279	6573
3410.01	6635
3411.738	6631
3413.467	6578
3415.194	6638
3416.92	6598
3418.647	6597
3420.375	6546
3422.102	6639
3423.827	6566
3425.553	6568
3427.277	6646
3429.003	6493
3430.727	6544
3432.451	6469
3434.173	6635
3435.896	6556
3437.62	6545
3439.343	6606
3441.063	6501
3442.785	6524
3444.505	6438
3446.226	6491
3447.948	6363
3449.666	6589
3451.386	6318
3453.104	6417
3454.823	6525
3456.541	6427
3458.259	6417
3459.976	6302
3461.693	6416
3463.408	6356
3465.125	6409
3466.841	6418
3468.556	6373
3470.271	6303
3471.985	6295
3473.698	6311
3475.414	6395
3477.126	6243
3478.838	6228
3480.55	6273
3482.263	6344
3483.975	6298
3485.686	6274
3487.396	6254
3489.106	6269
3490.817	6247
3492.526	6291
3494.236	6250
3495.944	6135
3497.652	6285
3499.359	6014
3501.066	6192
3502.775	6197
3504.481	6184
3506.187	6118
3507.893	6209
3509.598	6148
3511.304	6133
3513.009	6058
3514.713	6143
3516.417	6136
3518.12	6094
3519.821	6135
3521.525	6123
3523.228	6019
3524.929	6130
3526.631	6090
3528.33	6065
3530.032	6033
3531.733	6045
3533.433	5984
3535.131	6075
3536.83	6007
3538.529	5968
3540.227	6003
3541.925	5960
3543.623	6024
3545.319	6037
3547.016	6053
3548.712	6044
3550.408	5889
3552.103	5993
3553.798	6012
3555.491	5942
3557.188	5893
3558.88	6018
3560.574	5928
3562.266	6008
3563.959	6049
3565.651	5923
3567.343	5857
3569.035	5905
3570.725	5956
3572.415	5896
3574.106	5911
3575.797	5823
3577.485	5885
3579.174	5874
3580.863	5800
3582.551	5859
3584.238	5935
3585.926	5951
3587.613	5888
3589.3	5752
3590.986	5931
3592.671	5879
3594.357	5764
3596.042	5724
3597.726	5731
3599.41	5806
3601.094	5639
3602.778	5811
3604.461	5778
3606.143	5805
3607.825	5745
3609.507	5789
3611.188	5731
3612.87	5755
3614.551	5695
3616.229	5703
3617.909	5521
3619.589	5645
3621.269	5600
3622.948	5640
3624.625	5547
3626.302	5632
3627.98	5581
3629.657	5599
3631.334	5598
3633.01	5598
3634.686	5605
3636.361	5593
3638.036	5549
3639.712	5587
3641.385	5532
3643.06	5537
3644.732	5569
3646.405	5560
3648.08	5457
3649.751	5627
3651.424	5500
3653.094	5459
3654.766	5478
3656.436	5536
3658.106	5545
3659.777	5529
3661.446	5480
3663.115	5448
3664.783	5383
3666.452	5419
3668.121	5363
3669.788	5362
3671.454	5381
3673.121	5428
3674.789	5555
3676.455	5365
3678.12	5364
3679.784	5306
3681.45	5286
3683.114	5357
3684.779	5487
3686.442	5414
3688.105	5293
3689.768	5395
3691.43	5369
3693.093	5286
3694.754	5438
3696.415	5343
3698.076	5456
3699.736	5429
3701.396	5277
3703.057	5425
3704.716	5424
3706.375	5412
3708.034	5454
3709.692	5307
3711.351	5239
3713.008	5310
3714.665	5378
3716.321	5421
3717.977	5234
3719.634	5349
3721.29	5377
3722.945	5283
3724.598	5253
3726.253	5313
3727.907	5289
3729.561	5200
3731.214	5223
3732.867	5235
3734.518	5232
3736.171	5247
3737.824	5273
3739.474	5329
3741.125	5154
3742.775	5275
3744.425	5137
3746.074	5240
3747.725	5236
3749.373	5172
3751.022	5128
3752.669	5167
3754.318	5148
3755.966	5113
3757.612	5205
3759.259	5187
3760.905	5240
3762.55	5121
3764.197	5179
3765.842	5194
3767.486	5087
3769.131	5168
3770.774	5153
3772.417	5106
3774.061	5114
3775.705	5205
3777.347	5079
3778.988	5144
3780.629	5178
3782.271	5042
3783.912	5065
3785.552	5020
3787.192	5045
3788.831	5118
3790.472	5090
3792.112	5075
3793.75	5026
3795.388	5108
3797.024	5121
3798.661	5111
3800.3	4934
3801.936	5071
3803.572	5098
3805.208	4951
3806.844	5082
3808.48	5022
3810.115	4956
3811.748	5003
3813.382	5031
3815.016	5031
3816.649	5004
3818.283	4914
3819.914	4919
3821.547	4888
3823.178	5021
3824.809	4953
3826.441	4986
3828.072	5008
3829.701	4984
3831.331	4990
3832.96	4900
3834.591	4895
3836.219	4880
3837.847	4888
3839.475	4860
3841.102	4957
3842.729	4861
3844.357	4790
3845.984	4865
3847.609	4911
3849.234	4783
3850.86	4850
3852.485	4765
3854.11	4823
3855.734	4917
3857.357	4867
3858.981	4799
3860.603	4782
3862.227	4829
3863.848	4787
3865.471	4857
3867.092	4778
3868.713	4834
3870.334	4833
3871.954	4802
3873.575	4833
3875.194	4750
3876.813	4788
3878.433	4741
3880.051	4799
3881.669	4823
3883.286	4719
3884.904	4782
3886.52	4693
3888.138	4684
3889.754	4754
3891.37	4732
3892.985	4701
3894.6	4725
3896.216	4742
3897.831	4639
3899.444	4618
3901.058	4747
3902.67	4677
3904.283	4779
3905.897	4711
3907.509	4729
3909.121	4741
3910.731	4600
3912.342	4622
3913.954	4722
3915.563	4674
3917.174	4718
3918.783	4672
3920.391	4626
3922.002	4614
3923.611	4725
3925.218	4690
3926.826	4613
3928.432	4631
3930.039	4642
3931.647	4635
3933.253	4707
3934.859	4632
3936.464	4578
3938.068	4625
3939.675	4577
3941.278	4590
3942.883	4639
3944.486	4621
3946.089	4593
3947.692	4524
3949.295	4582
3950.898	4547
3952.499	4634
3954.1	4677
3955.7	4595
3957.303	4523
3958.903	4578
3960.502	4644
3962.101	4545
3963.7	4647
3965.301	4546
3966.899	4470
3968.497	4550
3970.094	4532
3971.691	4420
3973.288	4503
3974.885	4460
3976.481	4492
3978.077	4426
3979.672	4497
3981.267	4550
3982.863	4466
3984.457	4501
3986.051	4499
3987.645	4520
3989.238	4544
3990.831	4416
3992.425	4438
3994.017	4444
3995.607	4495
3997.199	4383
3998.79	4373
4000.382	4389
4001.973	4447
4003.561	4382
4005.151	4393
4006.741	4498
4008.331	4482
4009.918	4339
4011.507	4403
4013.095	4362
4014.681	4376
4016.269	4280
4017.856	4325
4019.443	4351
4021.028	4387
4022.614	4400
4024.199	4311
4025.785	4247
4027.37	4346
4028.953	4326
4030.536	4291
4032.12	4259
4033.704	4285
4035.287	4207
4036.869	4159
4038.45	4253
4040.032	4230
4041.613	4253
4043.195	4292
4044.776	4210
4046.356	4267
4047.935	4221
4049.515	4278
4051.095	4168
4052.674	4262
4054.251	4296
4055.829	4263
4057.406	4218
4058.985	4271
4060.562	4230
4062.139	4256
4063.715	4167
4065.29	4176
4066.865	4258
4068.442	4205
4070.016	4174
4071.59	4194
4073.164	4184
4074.738	4151
4076.312	4235
4077.885	4196
4079.458	4223
4081.03	4161
4082.602	4146
4084.173	4144
4085.745	4091
4087.315	4115
4088.886	4122
4090.456	4120
4092.026	4181
4093.596	4088
4095.165	4199
4096.734	4150
4098.301	4135
4099.869	4127
4101.437	4053
4103.006	4077
4104.572	4112
4106.139	4094
4107.704	4047
4109.27	4008
4110.837	4031
4112.401	4117
4113.966	4080
4115.53	3974
4117.094	4064
4118.659	4089
4120.223	4068
4121.785	4000
4123.347	4051
4124.909	4099
4126.471	3983
4128.034	4068
4129.595	3947
4131.155	3887
4132.716	3980
4134.275	4000
4135.836	3938
4137.395	3976
4138.955	3987
4140.513	4039
4142.071	3954
4143.628	3894
4145.188	3955
4146.745	3982
4148.302	3923
4149.858	3936
4151.414	3969
4152.971	3922
4154.526	3792
4156.081	3911
4157.635	3930
4159.189	4017
4160.745	3840
4162.298	3935
4163.852	3864
4165.405	3950
4166.957	3882
4168.51	3912
4170.063	3911
4171.614	3821
4173.166	3932
4174.717	3814
4176.267	3968
4177.817	3775
4179.368	3886
4180.917	3848
4182.466	3817
4184.016	3918
4185.564	3745
4187.112	3773
4188.66	3808
4190.207	3827
4191.754	3753
4193.301	3770
4194.848	3808
4196.394	3828
4197.94	3748
4199.484	3815
4201.03	3792
4202.575	3793
4204.12	3723
4205.663	3754
4207.207	3772
4208.75	3741
4210.292	3750
4211.836	3754
4213.378	3753
4214.92	3772
4216.46	3734
4218.002	3739
4219.544	3670
4221.083	3721
4222.625	3773
4224.164	3701
4225.703	3734
4227.244	3720
4228.782	3729
4230.32	3721
4231.857	3709
4233.395	3665
4234.933	3653
4236.471	3750
4238.007	3727
4239.542	3694
4241.078	3738
4242.614	3738
4244.15	3592
4245.685	3635
4247.219	3689
4248.753	3672
4250.287	3679
4251.82	3683
4253.354	3703
4254.887	3613
4256.419	3651
4257.951	3638
4259.483	3642
4261.016	3676
4262.547	3633
4264.078	3619
4265.608	3652
4267.137	3663
4268.668	3585
4270.197	3661
4271.727	3644
4273.254	3585
4274.783	3575
4276.311	3698
4277.84	3606
4279.366	3600
4280.894	3616
4282.42	3630
4283.946	3522
4285.473	3536
4286.998	3568
4288.523	3617
4290.047	3608
4291.572	3597
4293.096	3539
4294.622	3539
4296.144	3589
4297.668	3509
4299.19	3517
4300.713	3540
4302.236	3577
4303.758	3528
4305.279	3546
4306.799	3469
4308.321	3499
4309.842	3565
4311.361	3529
4312.882	3490
4314.401	3465
