400.0961	4965
402.6185	4928
405.1424	4925
407.6635	4986
410.1838	5001
412.7035	4900
415.2225	5091
417.7388	5205
420.2585	5227
422.7754	5236
425.2917	5203
427.8072	5158
430.3221	5285
432.8363	5213
435.3498	5273
437.8626	5337
440.3727	5291
442.8841	5269
445.3969	5372
447.907	5348
450.4142	5374
452.9229	5374
455.4289	5417
457.9362	5449
460.4449	5307
462.9488	5283
465.454	5250
467.9566	5184
470.4604	5381
472.9637	5328
475.4662	5245
477.966	5283
480.4671	5339
482.9656	5300
485.4633	5298
487.9645	5246
490.4608	5416
492.9566	5503
495.4536	5296
497.948	5325
500.4437	5480
502.9387	5452
505.431	5386
507.9226	5416
510.4136	5390
512.9079	5434
515.3975	5367
517.8864	5434
520.3746	5504
522.8622	5528
525.3491	5515
527.8394	5501
530.3249	5516
532.8098	5600
535.2939	5442
537.7774	5473
540.2623	5537
542.7444	5591
545.2259	5501
547.7067	5480
550.1868	5534
552.6683	5532
555.147	5587
557.6231	5611
560.1005	5568
562.5773	5683
565.0534	5634
567.5308	5605
570.0056	5548
572.4776	5587
574.951	5681
577.4237	5874
579.8978	5754
582.3671	5749
584.8378	5836
587.3079	5812
589.7773	5791
592.244	5835
594.714	5680
597.1793	5762
599.6461	5689
602.1121	5646
604.5754	5746
607.0421	5703
609.5042	5668
611.9675	5717
614.4282	5664
616.8902	5700
619.3515	5699
621.8122	5753
624.2702	5709
626.7296	5672
629.1863	5673
631.6423	5774
634.1017	5607
636.5563	5680
639.0104	5655
641.4658	5707
643.9185	5735
646.3725	5668
648.8239	5757
651.2766	5679
653.7266	5778
656.176	5721
658.6247	5734
661.0748	5751
663.5242	5726
665.9709	5750
668.417	5716
670.8624	5881
673.3092	5794
675.7533	5807
678.1968	5831
680.6395	5926
683.0817	5873
685.5251	5911
687.9659	5834
690.4061	5978
692.8456	5860
695.2844	5973
697.7226	5965
700.1621	5842
702.599	5953
705.0332	5920
707.4688	6052
709.9036	6142
712.3399	6137
714.7735	6016
717.2044	6032
719.6367	6028
722.0683	5991
724.4993	6126
726.9296	6059
729.3593	6104
731.7883	6170
734.2147	6159
736.6423	6188
739.0714	6154
741.4958	6148
743.9216	6204
746.3447	6178
748.7691	6235
751.1929	6207
753.616	6385
756.0366	6297
758.4584	6231
760.8776	6285
763.2982	6376
765.718	6280
768.1373	6376
770.5539	6295
772.9698	6471
775.3871	6308
777.8038	6310
780.2178	6364
782.6332	6351
785.0459	6380
787.458	6368
789.8714	6221
792.2842	6413
794.6943	6407
797.1038	6379
799.5127	6337
801.9209	6408
804.3324	6363
806.7393	6504
809.1456	6564
811.5513	6381
813.9562	6583
816.3625	6431
818.7663	6509
821.1693	6509
823.5718	6602
825.9735	6524
828.3746	6333
830.7771	6525
833.177	6419
835.5762	6515
837.9747	6387
840.3727	6564
842.772	6509
845.1666	6593
847.5626	6575
849.958	6534
852.3527	6689
854.7488	6604
857.1403	6736
859.5331	6681
861.9253	6545
864.3168	6626
866.7057	6562
869.098	6603
871.4876	6631
873.8746	6586
876.263	6759
878.6487	6662
881.0378	6532
883.4243	6628
885.8081	6577
888.1933	6575
890.5759	6492
892.9598	6626
895.343	6617
897.7256	6777
900.1057	6509
902.4871	6626
904.8659	6702
907.246	6630
909.6254	6690
912.0023	6752
914.3786	6877
916.7562	6842
919.1331	6933
921.5074	7101
923.8831	7165
926.2562	7045
928.6287	7103
931.0005	6977
933.3757	7086
935.7462	7149
938.1162	7120
940.4855	7236
942.8542	7237
945.2242	7436
947.5916	7447
949.9584	7710
952.3266	7964
954.6921	8257
957.0571	8605
959.4233	8780
961.787	9060
964.15	9020
966.5125	8784
968.8742	8300
971.2354	7987
973.5959	7543
975.9559	7413
978.3151	7303
980.6738	7074
983.0338	7075
985.3912	6952
987.7461	6942
990.1022	6932
992.4578	6947
994.8127	6882
997.1689	6816
999.5207	6858
1001.874	7111
1004.226	6933
1006.576	6873
1008.929	6969
1011.28	6798
1013.628	6820
1015.977	7023
1018.324	6904
1020.674	6957
1023.019	6958
1025.366	6989
1027.713	7009
1030.056	7004
1032.399	6957
1034.746	6955
1037.087	6948
1039.431	7086
1041.771	7082
1044.113	7137
1046.454	7022
1048.793	7019
1051.133	7098
1053.471	7091
1055.807	7104
1058.146	7120
1060.483	7003
1062.818	7142
1065.153	7051
1067.489	7121
1069.822	7263
1072.156	7155
1074.488	7255
1076.82	7352
1079.15	7166
1081.48	7143
1083.814	7102
1086.143	6988
1088.471	6979
1090.799	6984
1093.126	7007
1095.452	7020
1097.78	6909
1100.105	7121
1102.43	7147
1104.754	7059
1107.077	7025
1109.4	6981
1111.722	7070
1114.044	7070
1116.365	6927
1118.685	6942
1121.005	7069
1123.324	7051
1125.643	7194
1127.961	7072
1130.278	7116
1132.595	7130
1134.911	7010
1137.226	7018
1139.541	6886
1141.854	7108
1144.167	7039
1146.482	6921
1148.793	6930
1151.105	7103
1153.414	7059
1155.725	6969
1158.033	7014
1160.344	7091
1162.651	7108
1164.959	7049
1167.265	7111
1169.572	7077
1171.878	7010
1174.184	7060
1176.488	7071
1178.79	7095
1181.094	7197
1183.396	7045
1185.699	7154
1188.001	7021
1190.301	7148
1192.6	7079
1194.9	7041
1197.2	7030
1199.497	7147
1201.794	7030
1204.09	7062
1206.387	7053
1208.684	7045
1210.978	7079
1213.272	7073
1215.565	7040
1217.858	7072
1220.15	7091
1222.443	7141
1224.734	7096
1227.024	7245
1229.313	7135
1231.602	7247
1233.892	7286
1236.18	7210
1238.467	7272
1240.754	7405
1243.04	7343
1245.325	7408
1247.612	7402
1249.896	7489
1252.178	7407
1254.461	7388
1256.743	7498
1259.027	7284
1261.308	7400
1263.587	7364
1265.867	7451
1268.146	7475
1270.425	7499
1272.703	7490
1274.981	7458
1277.256	7407
1279.532	7571
1281.808	7290
1284.083	7273
1286.358	7342
1288.63	7334
1290.904	7219
1293.175	7341
1295.449	7265
1297.719	7264
1299.99	7288
1302.259	7145
1304.529	7220
1306.798	7371
1309.065	7220
1311.333	7264
1313.599	7154
1315.866	7232
1318.131	7296
1320.396	7330
1322.66	7135
1324.925	7262
1327.187	7263
1329.448	7297
1331.711	7447
1333.974	7497
1336.234	7359
1338.493	7350
1340.752	7261
1343.01	7175
1345.269	7273
1347.526	7275
1349.784	7259
1352.04	7226
1354.295	7254
1356.552	7183
1358.806	7228
1361.059	7168
1363.312	7258
1365.564	7294
1367.818	7213
1370.069	7240
1372.318	7342
1374.568	7324
1376.817	7340
1379.066	7347
1381.316	7281
1383.564	7380
1385.809	7324
1388.056	7324
1390.301	7396
1392.549	7460
1394.793	7569
1397.036	7658
1399.279	7641
1401.522	7557
1403.763	7508
1406.007	7603
1408.248	7643
1410.487	7632
1412.727	7615
1414.965	7610
1417.205	7644
1419.442	7497
1421.68	7562
1423.915	7762
1426.152	7517
1428.388	7710
1430.623	7558
1432.857	7652
1435.091	7604
1437.323	7714
1439.556	7665
1441.789	7611
1444.019	7744
1446.25	7756
1448.48	7681
1450.708	7737
1452.938	7874
1455.167	7754
1457.394	7724
1459.62	7740
1461.846	7698
1464.073	7832
1466.299	7719
1468.523	7648
1470.746	7684
1472.969	7510
1475.191	7602
1477.415	7420
1479.636	7435
1481.858	7356
1484.078	7358
1486.298	7339
1488.518	7342
1490.736	7272
1492.954	7123
1495.169	7323
1497.386	7326
1499.602	7307
1501.819	7296
1504.034	7272
1506.248	7222
1508.462	7235
1510.675	7138
1512.888	7256
1515.1	7185
1517.311	7309
1519.522	7196
1521.732	7284
1523.942	7215
1526.151	7307
1528.36	7184
1530.566	7214
1532.773	7153
1534.98	7254
1537.187	7303
1539.392	7284
1541.596	7275
1543.801	7335
1546.005	7395
1548.208	7340
1550.411	7386
1552.612	7311
1554.814	7442
1557.013	7242
1559.212	7374
1561.414	7368
1563.612	7347
1565.811	7309
1568.007	7477
1570.203	7446
1572.403	7318
1574.598	7435
1576.792	7386
1578.988	7481
1581.181	7391
1583.376	7480
1585.568	7403
1587.761	7382
1589.952	7434
1592.143	7494
1594.333	7547
1596.524	7532
1598.715	7544
1600.903	7564
1603.091	7458
1605.278	7474
1607.466	7505
1609.652	7466
1611.838	7593
1614.023	7615
1616.207	7584
1618.391	7591
1620.576	7529
1622.759	7628
1624.941	7496
1627.123	7642
1629.304	7608
1631.484	7669
1633.664	7651
1635.844	7599
1638.022	7664
1640.201	7625
1642.38	7675
1644.556	7760
1646.732	7669
1648.908	7651
1651.084	7614
1653.257	7583
1655.433	7752
1657.607	7649
1659.779	7642
1661.951	7620
1664.122	7712
1666.295	7680
1668.467	7671
1670.635	7712
1672.805	7660
1674.973	7728
1677.142	7686
1679.31	7675
1681.478	7754
1683.644	7686
1685.81	7718
1687.975	7611
1690.142	7652
1692.305	7677
1694.468	7589
1696.632	7591
1698.794	7495
1700.957	7536
1703.119	7530
1705.279	7444
1707.439	7533
1709.598	7612
1711.758	7553
1713.917	7456
1716.075	7406
1718.231	7360
1720.388	7509
1722.543	7570
1724.702	7540
1726.856	7394
1729.01	7600
1731.164	7537
1733.317	7524
1735.471	7386
1737.623	7416
1739.774	7499
1741.925	7517
1744.075	7566
1746.225	7391
1748.376	7493
1750.524	7434
1752.672	7485
1754.82	7602
1756.965	7472
1759.113	7538
1761.259	7549
1763.405	7552
1765.549	7538
1767.694	7485
1769.836	7445
1771.981	7472
1774.123	7569
1776.264	7518
1778.405	7511
1780.546	7454
1782.687	7461
1784.827	7524
1786.966	7516
1789.103	7610
1791.242	7598
1793.381	7575
1795.517	7645
1797.653	7476
1799.788	7542
1801.923	7582
1804.057	7643
1806.193	7602
1808.326	7509
1810.457	7484
1812.59	7503
1814.721	7543
1816.855	7590
1818.984	7614
1821.113	7610
1823.244	7536
1825.372	7538
1827.499	7374
1829.63	7654
1831.756	7535
1833.882	7575
1836.007	7483
1838.132	7484
1840.26	7450
1842.384	7665
1844.507	7515
1846.63	7388
1848.752	7369
1850.875	7361
1852.996	7414
1855.118	7471
1857.238	7449
1859.358	7404
1861.477	7455
1863.597	7385
1865.715	7545
1867.832	7492
1869.948	7380
1872.064	7497
1874.181	7556
1876.297	7430
1878.411	7432
1880.526	7398
1882.639	7457
1884.752	7537
1886.865	7420
1888.977	7499
1891.089	7549
1893.2	7493
1895.308	7541
1897.42	7683
1899.53	7548
1901.639	7458
1903.745	7462
1905.853	7616
1907.962	7560
1910.067	7571
1912.174	7490
1914.278	7570
1916.383	7523
1918.486	7549
1920.592	7508
1922.694	7560
1924.797	7580
1926.898	7640
1929	7699
1931.102	7535
1933.203	7585
1935.301	7585
1937.401	7540
1939.499	7505
1941.598	7601
1943.697	7666
1945.793	7564
1947.888	7550
1949.985	7638
1952.08	7503
1954.176	7466
1956.269	7545
1958.364	7660
1960.457	7594
1962.549	7516
1964.642	7650
1966.733	7666
1968.823	7593
1970.913	7554
1973.005	7521
1975.093	7480
1977.184	7483
1979.271	7475
1981.359	7461
1983.446	7520
1985.532	7549
1987.619	7528
1989.705	7393
1991.789	7590
1993.874	7480
1995.956	7356
1998.041	7529
2000.123	7540
2002.206	7552
2004.287	7573
2006.368	7419
2008.449	7387
2010.529	7519
2012.609	7514
2014.688	7528
2016.766	7489
2018.843	7510
2020.922	7435
2022.999	7562
2025.074	7480
2027.15	7572
2029.225	7426
2031.299	7508
2033.375	7487
2035.447	7475
2037.52	7391
2039.592	7531
2041.664	7473
2043.736	7537
2045.807	7385
2047.876	7400
2049.947	7542
2052.015	7412
2054.086	7512
2056.153	7607
2058.221	7429
2060.288	7572
2062.353	7625
2064.42	7486
2066.486	7400
2068.55	7536
2070.614	7592
2072.678	7592
2074.741	7499
2076.805	7451
2078.866	7646
2080.929	7527
2082.99	7555
2085.049	7553
2087.109	7559
2089.17	7354
2091.228	7539
2093.286	7546
2095.344	7521
2097.4	7539
2099.46	7509
2101.516	7465
2103.572	7564
2105.626	7509
2107.679	7561
2109.735	7525
2111.788	7523
2113.841	7458
2115.894	7482
2117.945	7471
2119.997	7473
2122.049	7446
2124.1	7428
2126.148	7435
2128.197	7524
2130.246	7445
2132.296	7484
2134.342	7439
2136.39	7623
2138.437	7510
2140.483	7517
2142.527	7488
2144.574	7544
2146.619	7383
2148.661	7574
2150.705	7465
2152.747	7430
2154.792	7315
2156.832	7363
2158.874	7435
2160.915	7267
2162.954	7395
2164.995	7331
2167.034	7581
2169.072	7374
2171.111	7463
2173.148	7407
2175.186	7443
2177.223	7386
2179.258	7346
2181.294	7396
2183.328	7282
2185.362	7411
2187.398	7351
2189.431	7294
2191.463	7405
2193.495	7320
2195.528	7415
2197.56	7429
2199.59	7217
2201.62	7305
2203.649	7326
2205.678	7473
2207.708	7180
2209.737	7255
2211.764	7263
2213.791	7178
2215.817	7296
2217.843	7215
2219.87	7301
2221.895	7265
2223.919	7178
2225.942	7337
2227.966	7373
2229.988	7232
2232.012	7352
2234.032	7417
2236.054	7375
2238.074	7243
2240.095	7288
2242.116	7374
2244.135	7201
2246.153	7204
2248.171	7244
2250.188	7348
2252.208	7255
2254.223	7202
2256.239	7203
2258.255	7308
2260.269	7229
2262.283	7402
2264.3	7163
2266.312	7165
2268.325	7236
2270.336	7235
2272.349	7281
2274.362	7245
2276.372	7170
2278.383	7276
2280.392	7208
2282.402	7274
2284.409	7135
2286.418	7251
2288.427	7315
2290.433	7240
2292.441	7409
2294.446	7107
2296.453	7222
2298.459	7299
2300.463	7170
2302.466	7311
2304.471	7201
2306.475	7302
2308.477	7188
2310.478	7112
2312.481	7243
2314.481	7234
2316.481	7216
2318.482	7142
2320.482	7034
2322.48	7149
2324.48	7090
2326.478	7020
2328.476	7195
2330.473	7073
2332.469	7144
2334.465	7261
2336.46	7239
2338.454	7252
2340.45	7149
2342.444	7059
2344.437	7168
2346.43	7219
2348.421	7087
2350.414	7086
2352.405	7129
2354.396	7136
2356.386	7158
2358.376	7017
2360.366	7107
2362.355	7051
2364.343	7072
2366.331	7146
2368.317	7241
2370.304	7004
2372.292	7147
2374.278	6942
2376.262	7084
2378.247	6981
2380.23	6972
2382.216	7004
2384.199	7013
2386.181	7091
2388.163	6993
2390.144	7006
2392.127	7049
2394.107	6941
2396.087	6964
2398.066	6996
2400.046	7119
2402.023	7077
2404.004	6988
2405.981	6917
2407.957	7038
2409.934	6959
2411.91	7001
2413.886	6934
2415.862	7000
2417.836	7006
2419.809	7119
2421.784	6967
2423.756	6944
2425.73	6902
2427.701	6829
2429.672	7049
2431.644	6789
2433.615	7065
2435.586	6973
2437.555	6892
2439.523	7053
2441.491	6892
2443.459	6960
2445.428	6852
2447.395	6849
2449.361	6944
2451.327	7008
2453.292	6908
2455.257	7018
2457.223	7045
2459.187	6915
2461.15	6819
2463.113	7024
2465.076	6871
2467.039	6840
2468.999	6973
2470.96	6855
2472.921	6930
2474.881	6854
2476.841	6917
2478.8	6990
2480.759	6897
2482.717	6784
2484.675	6883
2486.63	6850
2488.589	6902
2490.545	6879
2492.5	6809
2494.455	6870
2496.408	6711
2498.364	6785
2500.318	6777
2502.27	6836
2504.223	6854
2506.174	6839
2508.126	6867
2510.078	6797
2512.03	6860
2513.979	6856
2515.927	6836
2517.877	6720
2519.826	6744
2521.775	6842
2523.722	6773
2525.668	6807
2527.616	6856
2529.561	6825
2531.508	6751
2533.452	6930
2535.398	6824
2537.342	6630
2539.284	6772
2541.229	6876
2543.173	6787
2545.114	6753
2547.055	6890
2548.996	6804
2550.938	6840
2552.878	6870
2554.817	6749
2556.756	6794
2558.695	6849
2560.633	6774
2562.572	6731
2564.509	6662
2566.445	6665
2568.382	6728
2570.317	6657
2572.254	6757
2574.189	6712
2576.123	6733
2578.057	6767
2579.99	6655
2581.923	6695
2583.855	6685
2585.788	6839
2587.719	6692
2589.65	6751
2591.579	6705
2593.511	6877
2595.44	6764
2597.37	6795
2599.297	6896
2601.225	6886
2603.153	6701
2605.08	6819
2607.007	6800
2608.932	6785
2610.858	6828
2612.782	6837
2614.709	6812
2616.632	6756
2618.556	6800
2620.478	6711
2622.401	6792
2624.324	6806
2626.247	6727
2628.167	6863
2630.088	6688
2632.008	6907
2633.928	6898
2635.848	6851
2637.766	6744
2639.684	6845
2641.603	6845
2643.519	6694
2645.437	6866
2647.353	6891
2649.27	6709
2651.184	6716
2653.099	6854
2655.014	6808
2656.928	6812
2658.842	6891
2660.755	6738
2662.667	6835
2664.579	6791
2666.491	6745
2668.402	6732
2670.312	6766
2672.222	6751
2674.132	6726
2676.042	6729
2677.951	6802
2679.859	6779
2681.766	6712
2683.674	6748
2685.582	6765
2687.488	6669
2689.392	6719
2691.298	6679
2693.202	6665
2695.107	6682
2697.012	6636
2698.914	6644
2700.817	6687
2702.72	6636
2704.622	6532
2706.524	6729
2708.425	6731
2710.326	6632
2712.225	6624
2714.125	6580
2716.024	6456
2717.923	6614
2719.822	6681
2721.719	6611
2723.616	6604
2725.512	6627
2727.41	6572
2729.305	6645
2731.201	6598
2733.095	6587
2734.99	6592
2736.884	6676
2738.778	6563
2740.67	6590
2742.562	6636
2744.455	6679
2746.346	6709
2748.238	6575
2750.129	6652
2752.018	6535
2753.907	6570
2755.797	6538
2757.687	6660
2759.575	6716
2761.462	6725
2763.349	6681
2765.237	6601
2767.124	6502
2769.009	6570
2770.894	6558
2772.779	6526
2774.663	6583
2776.547	6533
2778.431	6464
2780.314	6579
2782.197	6468
2784.078	6519
2785.96	6472
2787.842	6565
2789.723	6525
2791.603	6647
2793.483	6508
2795.362	6461
2797.241	6570
2799.121	6518
2800.997	6582
2802.874	6604
2804.751	6484
2806.628	6521
2808.506	6467
2810.38	6487
2812.255	6517
2814.13	6493
2816.003	6476
2817.878	6478
2819.752	6515
2821.623	6530
2823.496	6549
2825.368	6528
2827.238	6412
2829.111	6493
2830.98	6442
2832.851	6523
2834.719	6478
2836.589	6543
2838.458	6480
2840.327	6537
2842.193	6520
2844.061	6553
2845.927	6583
2847.794	6507
2849.66	6526
2851.525	6635
2853.39	6581
2855.254	6630
2857.117	6664
2858.983	6583
2860.845	6648
2862.707	6639
2864.569	6756
2866.431	6765
2868.293	6846
2870.154	6939
2872.013	7018
2873.873	7083
2875.733	7115
2877.592	7021
2879.451	7130
2881.309	7259
2883.166	7336
2885.022	7436
2886.879	7349
2888.736	7355
2890.591	7372
2892.446	7420
2894.301	7499
2896.155	7418
2898.009	7467
2899.863	7392
2901.716	7393
2903.568	7215
2905.419	7385
2907.27	7313
2909.123	7495
2910.973	7362
2912.824	7457
2914.673	7527
2916.521	7438
2918.372	7616
2920.22	7661
2922.067	7705
2923.914	7786
2925.761	7843
2927.607	7937
2929.455	8015
2931.301	8008
2933.144	8107
2934.99	8247
2936.833	8168
2938.678	8365
2940.522	8316
2942.364	8559
2944.207	8587
2946.048	8653
2947.891	8838
2949.731	8594
2951.571	8596
2953.412	8630
2955.25	8545
2957.09	8304
2958.93	8368
2960.767	8334
2962.606	8172
2964.443	8191
2966.279	8000
2968.116	7872
2969.953	7757
2971.788	7740
2973.623	7705
2975.457	7490
2977.292	7629
2979.127	7618
2980.959	7465
2982.792	7422
2984.624	7392
2986.455	7302
2988.288	7368
2990.119	7275
2991.949	7188
2993.779	7100
2995.608	7203
2997.439	7112
2999.268	7067
3001.096	7123
3002.923	6963
3004.751	6927
3006.578	6738
3008.406	6626
3010.232	6666
3012.057	6695
3013.883	6462
3015.706	6481
3017.532	6497
3019.356	6448
3021.179	6365
3023.002	6361
3024.823	6382
3026.646	6278
3028.469	6281
3030.289	6230
3032.11	6200
3033.93	6360
3035.749	6217
3037.57	6293
3039.39	6233
3041.207	6279
3043.026	6118
3044.842	6234
3046.661	6283
3048.477	6318
3050.294	6219
3052.109	6242
3053.925	6211
3055.739	6145
3057.555	6199
3059.368	6301
3061.181	6199
3062.995	6267
3064.807	6207
3066.62	6118
3068.433	6321
3070.243	6200
3072.054	6128
3073.865	6223
3075.675	6159
3077.485	6058
3079.293	6053
3081.102	6083
3082.911	6095
3084.719	6021
3086.527	6103
3088.333	6026
3090.139	6118
3091.945	6075
3093.75	6086
3095.557	5921
3097.361	5976
3099.165	6049
3100.969	6004
3102.772	6032
3104.575	5917
3106.379	5953
3108.181	5858
3109.982	5934
3111.783	5873
3113.584	5927
3115.386	5915
3117.186	5964
3118.985	5893
3120.783	5975
3122.582	5935
3124.381	5919
3126.179	5855
3127.975	5911
3129.772	5839
3131.569	5883
3133.365	5791
3135.161	5847
3136.956	5867
3138.751	5812
3140.544	5814
3142.338	5786
3144.132	5911
3145.925	5817
3147.717	5852
3149.509	5790
3151.301	5804
3153.091	5889
3154.884	5763
3156.673	5791
3158.462	5725
3160.252	5864
3162.041	5810
3163.831	5748
3165.618	5820
3167.405	5704
3169.193	5805
3170.979	5753
3172.767	5707
3174.553	5819
3176.338	5783
3178.123	5862
3179.907	5785
3181.692	5802
3183.477	5834
3185.259	5795
3187.042	5732
3188.824	5728
3190.607	5707
3192.389	5741
3194.17	5790
3195.951	5836
3197.73	5748
3199.51	5721
3201.289	5743
3203.07	5737
3204.848	5742
3206.626	5702
3208.403	5730
3210.18	5689
3211.959	5725
3213.735	5738
3215.511	5759
3217.285	5715
3219.06	5779
3220.836	5709
3222.611	5705
3224.384	5804
3226.158	5756
3227.929	5711
3229.702	5767
3231.476	5806
3233.248	5724
3235.018	5729
3236.789	5648
3238.56	5704
3240.33	5682
3242.1	5817
3243.869	5653
3245.637	5755
3247.405	5712
3249.172	5801
3250.941	5760
3252.707	5722
3254.474	5756
3256.24	5757
3258.006	5760
3259.772	5742
3261.537	5706
3263.301	5728
3265.065	5780
3266.828	5752
3268.592	5771
3270.355	5754
3272.117	5683
3273.878	5763
3275.64	5747
3277.401	5767
3279.162	5833
3280.922	5809
3282.682	5769
3284.441	5752
3286.199	5671
3287.959	5734
3289.716	5662
3291.475	5751
3293.232	5792
3294.988	5678
3296.744	5649
3298.501	5630
3300.256	5721
3302.011	5889
3303.766	5727
3305.52	5726
3307.275	5641
3309.028	5604
3310.781	5767
3312.533	5732
3314.285	5678
3316.038	5721
3317.789	5729
3319.54	5804
3321.289	5662
3323.039	5746
3324.789	5739
3326.539	5702
3328.288	5638
3330.035	5717
3331.783	5744
3333.531	5708
3335.28	5605
3337.025	5657
3338.771	5666
3340.518	5664
3342.262	5561
3344.009	5742
3345.753	5735
3347.497	5626
3349.24	5614
3350.983	5520
3352.726	5606
3354.469	5647
3356.212	5754
3357.952	5534
3359.694	5648
3361.434	5663
3363.176	5568
3364.916	5657
3366.654	5476
3368.394	5544
3370.132	5549
3371.871	5546
3373.61	5569
3375.346	5518
3377.083	5596
3378.82	5510
3380.556	5484
3382.292	5519
3384.027	5524
3385.763	5471
3387.497	5530
3389.231	5532
3390.965	5623
3392.698	5368
3394.431	5427
3396.164	5350
3397.896	5448
3399.627	5483
3401.36	5380
3403.09	5437
3404.82	5403
3406.55	5419
3408.279	5482
3410.01	5443
3411.738	5440
3413.467	5426
3415.194	5371
3416.92	5364
3418.647	5413
3420.375	5368
3422.102	5411
3423.827	5356
3425.553	5346
3427.277	5426
3429.003	5421
3430.727	5308
3432.451	5447
3434.173	5349
3435.896	5302
3437.62	5365
3439.343	5333
3441.063	5359
3442.785	5295
3444.505	5278
3446.226	5368
3447.948	5322
3449.666	5247
3451.386	5219
3453.104	5206
3454.823	5218
3456.541	5162
3458.259	5280
3459.976	5171
3461.693	5206
3463.408	5187
3465.125	5167
3466.841	5122
3468.556	5197
3470.271	5203
3471.985	5192
3473.698	5189
3475.414	5188
3477.126	5159
3478.838	5176
3480.55	5056
3482.263	5019
3483.975	5092
3485.686	5191
3487.396	5075
3489.106	5112
3490.817	5110
3492.526	5035
3494.236	5060
3495.944	5072
3497.652	5089
3499.359	5072
3501.066	5131
3502.775	5060
3504.481	5039
3506.187	4990
3507.893	5032
3509.598	4979
3511.304	5121
3513.009	4972
3514.713	4998
3516.417	4981
3518.12	4993
3519.821	4952
3521.525	4948
3523.228	4952
3524.929	4890
3526.631	4940
3528.33	4837
3530.032	4846
3531.733	4884
3533.433	5058
3535.131	4878
3536.83	4901
3538.529	4896
3540.227	4871
3541.925	4906
3543.623	4809
3545.319	4897
3547.016	4886
3548.712	4797
3550.408	4847
3552.103	4866
3553.798	4848
3555.491	4801
3557.188	4766
3558.88	4755
3560.574	4833
3562.266	4777
3563.959	4815
3565.651	4769
3567.343	4748
3569.035	4733
3570.725	4802
3572.415	4761
3574.106	4845
3575.797	4763
3577.485	4817
3579.174	4773
3580.863	4793
3582.551	4720
3584.238	4717
3585.926	4666
3587.613	4662
3589.3	4719
3590.986	4732
3592.671	4702
3594.357	4605
3596.042	4694
3597.726	4580
3599.41	4702
3601.094	4711
3602.778	4531
3604.461	4661
3606.143	4634
3607.825	4574
3609.507	4525
3611.188	4558
3612.87	4575
3614.551	4588
3616.229	4552
3617.909	4551
3619.589	4582
3621.269	4540
3622.948	4460
3624.625	4535
3626.302	4569
3627.98	4554
3629.657	4544
3631.334	4573
3633.01	4460
3634.686	4489
3636.361	4527
3638.036	4388
3639.712	4456
3641.385	4443
3643.06	4429
3644.732	4420
3646.405	4409
3648.08	4424
3649.751	4461
3651.424	4443
3653.094	4442
3654.766	4362
3656.436	4440
3658.106	4462
3659.777	4426
3661.446	4416
3663.115	4372
3664.783	4311
3666.452	4460
3668.121	4352
3669.788	4367
3671.454	4314
3673.121	4322
3674.789	4322
3676.455	4390
3678.12	4296
3679.784	4473
3681.45	4408
3683.114	4304
3684.779	4339
3686.442	4304
3688.105	4272
3689.768	4249
3691.43	4339
3693.093	4332
3694.754	4219
3696.415	4274
3698.076	4232
3699.736	4240
3701.396	4352
3703.057	4265
3704.716	4280
3706.375	4280
3708.034	4279
3709.692	4204
3711.351	4213
3713.008	4245
3714.665	4250
3716.321	4284
3717.977	4305
3719.634	4241
3721.29	4267
3722.945	4272
3724.598	4193
3726.253	4269
3727.907	4261
3729.561	4151
3731.214	4221
3732.867	4210
3734.518	4161
3736.171	4222
3737.824	4165
3739.474	4154
3741.125	4204
3742.775	4193
3744.425	4135
3746.074	4102
3747.725	4174
3749.373	4246
3751.022	4077
3752.669	4130
3754.318	4193
3755.966	4235
3757.612	4134
3759.259	4119
3760.905	4104
3762.55	4029
3764.197	4093
3765.842	4214
3767.486	4150
3769.131	4037
3770.774	4062
3772.417	4033
3774.061	4095
3775.705	4046
3777.347	4040
3778.988	4049
3780.629	4069
3782.271	4112
3783.912	4035
3785.552	4094
3787.192	4033
3788.831	4065
3790.472	4016
3792.112	4035
3793.75	4062
3795.388	4107
3797.024	4017
3798.661	4006
3800.3	3954
3801.936	3956
3803.572	4051
3805.208	4023
3806.844	3981
3808.48	4006
3810.115	3943
3811.748	3939
3813.382	3948
3815.016	3953
3816.649	4006
3818.283	4078
3819.914	3992
3821.547	3897
3823.178	3941
3824.809	4021
3826.441	3952
3828.072	3911
3829.701	3959
3831.331	3873
3832.96	3933
3834.591	3923
3836.219	3939
3837.847	3965
3839.475	3955
3841.102	3976
3842.729	3923
3844.357	3917
3845.984	3880
3847.609	3913
3849.234	3882
3850.86	3866
3852.485	3918
3854.11	3771
3855.734	3919
3857.357	3905
3858.981	3921
3860.603	3878
3862.227	3827
3863.848	3896
3865.471	3855
3867.092	3806
3868.713	3804
3870.334	3778
3871.954	3825
3873.575	3808
3875.194	3902
3876.813	3851
3878.433	3765
3880.051	3830
3881.669	3770
3883.286	3835
3884.904	3800
3886.52	3879
3888.138	3778
3889.754	3803
3891.37	3829
3892.985	3753
3894.6	3843
3896.216	3770
3897.831	3713
3899.444	3707
3901.058	3818
3902.67	3859
3904.283	3804
3905.897	3815
3907.509	3739
3909.121	3760
3910.731	3807
3912.342	3755
3913.954	3769
3915.563	3714
3917.174	3733
3918.783	3801
3920.391	3809
3922.002	3708
3923.611	3780
3925.218	3817
3926.826	3699
3928.432	3676
3930.039	3746
3931.647	3780
3933.253	3765
3934.859	3690
3936.464	3680
3938.068	3773
3939.675	3724
3941.278	3658
3942.883	3722
3944.486	3635
3946.089	3734
3947.692	3694
3949.295	3746
3950.898	3659
3952.499	3668
3954.1	3647
3955.7	3746
3957.303	3727
3958.903	3730
3960.502	3664
3962.101	3649
3963.7	3642
3965.301	3624
3966.899	3713
3968.497	3682
3970.094	3590
3971.691	3680
3973.288	3666
3974.885	3590
3976.481	3679
3978.077	3666
3979.672	3664
3981.267	3624
3982.863	3541
3984.457	3607
3986.051	3547
3987.645	3568
3989.238	3559
3990.831	3543
3992.425	3577
3994.017	3567
3995.607	3538
3997.199	3559
3998.79	3551
4000.382	3528
4001.973	3569
4003.561	3496
4005.151	3525
4006.741	3560
4008.331	3511
4009.918	3559
4011.507	3492
4013.095	3494
4014.681	3473
4016.269	3447
4017.856	3494
4019.443	3549
4021.028	3435
4022.614	3445
4024.199	3484
4025.785	3509
4027.37	3408
4028.953	3543
4030.536	3452
4032.12	3456
4033.704	3503
4035.287	3455
4036.869	3375
4038.45	3486
4040.032	3455
4041.613	3440
4043.195	3475
4044.776	3455
4046.356	3452
4047.935	3444
4049.515	3305
4051.095	3433
4052.674	3510
4054.251	3410
4055.829	3400
4057.406	3436
4058.985	3436
4060.562	3459
4062.139	3439
4063.715	3430
4065.29	3396
4066.865	3373
4068.442	3396
4070.016	3406
4071.59	3457
4073.164	3402
4074.738	3457
4076.312	3371
4077.885	3389
4079.458	3335
4081.03	3422
4082.602	3325
4084.173	3383
4085.745	3353
4087.315	3461
4088.886	3375
4090.456	3342
4092.026	3234
4093.596	3291
4095.165	3356
4096.734	3336
4098.301	3382
4099.869	3318
4101.437	3316
4103.006	3260
4104.572	3372
4106.139	3238
4107.704	3290
4109.27	3317
4110.837	3283
4112.401	3287
4113.966	3272
4115.53	3255
4117.094	3244
4118.659	3261
4120.223	3237
4121.785	3274
4123.347	3262
4124.909	3284
4126.471	3246
4128.034	3258
4129.595	3254
4131.155	3182
4132.716	3276
4134.275	3283
4135.836	3302
4137.395	3191
4138.955	3170
4140.513	3186
4142.071	3186
4143.628	3194
4145.188	3145
4146.745	3192
4148.302	3196
4149.858	3170
4151.414	3197
4152.971	3193
4154.526	3175
4156.081	3222
4157.635	3111
4159.189	3180
4160.745	3134
4162.298	3101
4163.852	3165
4165.405	3120
4166.957	3183
4168.51	3110
4170.063	3197
4171.614	3118
4173.166	3156
4174.717	3166
4176.267	3116
4177.817	3083
4179.368	3122
4180.917	3082
4182.466	3145
4184.016	3093
4185.564	3089
4187.112	3112
4188.66	3048
4190.207	3106
4191.754	3023
4193.301	3078
4194.848	3059
4196.394	3071
4197.94	3041
4199.484	3072
4201.03	3087
4202.575	3070
4204.12	3041
4205.663	3079
4207.207	3039
4208.75	3050
4210.292	3024
4211.836	3080
4213.378	3045
4214.92	3050
4216.46	3005
4218.002	3074
4219.544	3002
4221.083	3006
4222.625	2998
4224.164	3068
4225.703	3039
4227.244	2985
4228.782	3005
4230.32	2978
4231.857	2986
4233.395	3009
4234.933	3042
4236.471	2982
4238.007	3020
4239.542	3001
4241.078	2987
4242.614	2964
4244.15	2929
4245.685	3031
4247.219	2989
4248.753	2957
4250.287	3052
4251.82	3035
4253.354	2958
4254.887	2946
4256.419	2969
4257.951	2959
4259.483	2929
4261.016	3004
4262.547	2944
4264.078	2931
4265.608	2952
4267.137	2965
4268.668	2929
4270.197	2981
4271.727	2934
4273.254	2977
4274.783	2979
4276.311	2905
4277.84	2937
4279.366	2981
4280.894	2919
4282.42	2890
4283.946	2934
4285.473	3011
4286.998	2873
4288.523	2941
4290.047	2922
4291.572	2897
4293.096	2939
4294.622	2900
4296.144	2867
4297.668	2877
4299.19	2903
4300.713	2811
4302.236	2983
4303.758	2928
4305.279	2854
4306.799	2875
4308.321	2836
4309.842	2880
4311.361	2925
4312.882	2845
4314.401	2857
