400.0961	4856
402.6185	4975
405.1424	4877
407.6635	4923
410.1838	5003
412.7035	4984
415.2225	4967
417.7388	4962
420.2585	5102
422.7754	5048
425.2917	5114
427.8072	5147
430.3221	5219
432.8363	5227
435.3498	5197
437.8626	5271
440.3727	5219
442.8841	5206
445.3969	5316
447.907	5192
450.4142	5200
452.9229	5180
455.4289	5247
457.9362	5258
460.4449	5194
462.9488	5255
465.454	5226
467.9566	5222
470.4604	5266
472.9637	5219
475.4662	5207
477.966	5297
480.4671	5185
482.9656	5279
485.4633	5272
487.9645	5434
490.4608	5391
492.9566	5302
495.4536	5357
497.948	5394
500.4437	5298
502.9387	5436
505.431	5422
507.9226	5420
510.4136	5381
512.9079	5346
515.3975	5372
517.8864	5402
520.3746	5384
522.8622	5403
525.3491	5381
527.8394	5477
530.3249	5529
532.8098	5449
535.2939	5545
537.7774	5485
540.2623	5416
542.7444	5507
545.2259	5497
547.7067	5526
550.1868	5486
552.6683	5475
555.147	5478
557.6231	5514
560.1005	5474
562.5773	5570
565.0534	5523
567.5308	5526
570.0056	5584
572.4776	5610
574.951	5565
577.4237	5627
579.8978	5698
582.3671	5718
584.8378	5713
587.3079	5741
589.7773	5743
592.244	5723
594.714	5687
597.1793	5678
599.6461	5724
602.1121	5607
604.5754	5634
607.0421	5667
609.5042	5659
611.9675	5773
614.4282	5628
616.8902	5698
619.3515	5655
621.8122	5693
624.2702	5632
626.7296	5634
629.1863	5605
631.6423	5739
634.1017	5691
636.5563	5655
639.0104	5563
641.4658	5686
643.9185	5763
646.3725	5798
648.8239	5670
651.2766	5727
653.7266	5723
656.176	5732
658.6247	5748
661.0748	5755
663.5242	5753
665.9709	5793
668.417	5865
670.8624	5784
673.3092	5778
675.7533	5828
678.1968	5842
680.6395	5819
683.0817	5862
685.5251	5824
687.9659	5810
690.4061	5846
692.8456	5792
695.2844	5956
697.7226	5880
700.1621	5924
702.599	5891
705.0332	6064
707.4688	5921
709.9036	5973
712.3399	5991
714.7735	6039
717.2044	5985
719.6367	6056
722.0683	5978
724.4993	6120
726.9296	5984
729.3593	6081
731.7883	6065
734.2147	6031
736.6423	6114
739.0714	6133
741.4958	6144
743.9216	6123
746.3447	6163
748.7691	6269
751.1929	6208
753.616	6211
756.0366	6260
758.4584	6252
760.8776	6150
763.2982	6393
765.718	6315
768.1373	6357
770.5539	6390
772.9698	6283
775.3871	6266
777.8038	6405
780.2178	6362
782.6332	6310
785.0459	6336
787.458	6308
789.8714	6307
792.2842	6425
794.6943	6245
797.1038	6307
799.5127	6324
801.9209	6287
804.3324	6363
806.7393	6246
809.1456	6355
811.5513	6509
813.9562	6343
816.3625	6428
818.7663	6514
821.1693	6457
823.5718	6363
825.9735	6415
828.3746	6492
830.7771	6379
833.177	6376
835.5762	6399
837.9747	6396
840.3727	6556
842.772	6493
845.1666	6539
847.5626	6418
849.958	6621
852.3527	6517
854.7488	6561
857.1403	6545
859.5331	6658
861.9253	6633
864.3168	6654
866.7057	6570
869.098	6657
871.4876	6498
873.8746	6512
876.263	6532
878.6487	6552
881.0378	6462
883.4243	6592
885.8081	6512
888.1933	6591
890.5759	6425
892.9598	6673
895.343	6537
897.7256	6462
900.1057	6505
902.4871	6636
904.8659	6594
907.246	6604
909.6254	6703
912.0023	6584
914.3786	6850
916.7562	6793
919.1331	6889
921.5074	7087
923.8831	7020
926.2562	7086
928.6287	7008
931.0005	6993
933.3757	6965
935.7462	6967
938.1162	6936
940.4855	7004
942.8542	6965
945.2242	7073
947.5916	7080
949.9584	7135
952.3266	7333
954.6921	7497
957.0571	7662
959.4233	7764
961.787	7921
964.15	7863
966.5125	7766
968.8742	7547
971.2354	7430
973.5959	7337
975.9559	7099
978.3151	7100
980.6738	6990
983.0338	6859
985.3912	6857
987.7461	6808
990.1022	6834
992.4578	6795
994.8127	6752
997.1689	6763
999.5207	6751
1001.874	6812
1004.226	6843
1006.576	6793
1008.929	6933
1011.28	6793
1013.628	6776
1015.977	6769
1018.324	6751
1020.674	6787
1023.019	6889
1025.366	6785
1027.713	6930
1030.056	6915
1032.399	6923
1034.746	6887
1037.087	6861
1039.431	6856
1041.771	6769
1044.113	6930
1046.454	6827
1048.793	6817
1051.133	6777
1053.471	6936
1055.807	6965
1058.146	7046
1060.483	6912
1062.818	7187
1065.153	6999
1067.489	6989
1069.822	7009
1072.156	7045
1074.488	6995
1076.82	7031
1079.15	6936
1081.48	6910
1083.814	7053
1086.143	7066
1088.471	7166
1090.799	6942
1093.126	6811
1095.452	7095
1097.78	6917
1100.105	6987
1102.43	7009
1104.754	6904
1107.077	6949
1109.4	6933
1111.722	6908
1114.044	6968
1116.365	7035
1118.685	7014
1121.005	6961
1123.324	7091
1125.643	7006
1127.961	7168
1130.278	7030
1132.595	7007
1134.911	7003
1137.226	7078
1139.541	6834
1141.854	7056
1144.167	7035
1146.482	6991
1148.793	7006
1151.105	6957
1153.414	7026
1155.725	6919
1158.033	7043
1160.344	7052
1162.651	7036
1164.959	7084
1167.265	6990
1169.572	7041
1171.878	7059
1174.184	7105
1176.488	7091
1178.79	7106
1181.094	7068
1183.396	7108
1185.699	7015
1188.001	7095
1190.301	7008
1192.6	6978
1194.9	7048
1197.2	7012
1199.497	7056
1201.794	7039
1204.09	6992
1206.387	7077
1208.684	6997
1210.978	7084
1213.272	7174
1215.565	7064
1217.858	7045
1220.15	7135
1222.443	6995
1224.734	7115
1227.024	7080
1229.313	7131
1231.602	7176
1233.892	7209
1236.18	7244
1238.467	7272
1240.754	7390
1243.04	7325
1245.325	7345
1247.612	7271
1249.896	7424
1252.178	7310
1254.461	7306
1256.743	7175
1259.027	7402
1261.308	7288
1263.587	7302
1265.867	7359
1268.146	7468
1270.425	7396
1272.703	7427
1274.981	7395
1277.256	7367
1279.532	7420
1281.808	7233
1284.083	7250
1286.358	7231
1288.63	7248
1290.904	6977
1293.175	7305
1295.449	7238
1297.719	7131
1299.99	7246
1302.259	7189
1304.529	7321
1306.798	7201
1309.065	7189
1311.333	7295
1313.599	7270
1315.866	7246
1318.131	7261
1320.396	7297
1322.66	7271
1324.925	7272
1327.187	7383
1329.448	7329
1331.711	7353
1333.974	7403
1336.234	7240
1338.493	7310
1340.752	7151
1343.01	7241
1345.269	7200
1347.526	7194
1349.784	7150
1352.04	7191
1354.295	7220
1356.552	7245
1358.806	7249
1361.059	7168
1363.312	7289
1365.564	7271
1367.818	7290
1370.069	7261
1372.318	7247
1374.568	7277
1376.817	7473
1379.066	7290
1381.316	7308
1383.564	7308
1385.809	7357
1388.056	7465
1390.301	7433
1392.549	7569
1394.793	7624
1397.036	7553
1399.279	7600
1401.522	7562
1403.763	7575
1406.007	7564
1408.248	7668
1410.487	7436
1412.727	7682
1414.965	7636
1417.205	7676
1419.442	7689
1421.68	7620
1423.915	7562
1426.152	7467
1428.388	7609
1430.623	7558
1432.857	7570
1435.091	7556
1437.323	7657
1439.556	7662
1441.789	7647
1444.019	7661
1446.25	7566
1448.48	7673
1450.708	7671
1452.938	7660
1455.167	7713
1457.394	7602
1459.62	7636
1461.846	7615
1464.073	7678
1466.299	7578
1468.523	7479
1470.746	7520
1472.969	7548
1475.191	7483
1477.415	7497
1479.636	7612
1481.858	7284
1484.078	7357
1486.298	7345
1488.518	7264
1490.736	7275
1492.954	7279
1495.169	7306
1497.386	7262
1499.602	7245
1501.819	7369
1504.034	7235
1506.248	7384
1508.462	7266
1510.675	7228
1512.888	7348
1515.1	7328
1517.311	7364
1519.522	7176
1521.732	7181
1523.942	7274
1526.151	7365
1528.36	7191
1530.566	7287
1532.773	7226
1534.98	7262
1537.187	7167
1539.392	7279
1541.596	7238
1543.801	7172
1546.005	7233
1548.208	7334
1550.411	7276
1552.612	7308
1554.814	7499
1557.013	7368
1559.212	7450
1561.414	7297
1563.612	7322
1565.811	7459
1568.007	7421
1570.203	7451
1572.403	7470
1574.598	7519
1576.792	7442
1578.988	7542
1581.181	7541
1583.376	7435
1585.568	7434
1587.761	7384
1589.952	7473
1592.143	7572
1594.333	7367
1596.524	7529
1598.715	7500
1600.903	7484
1603.091	7525
1605.278	7487
1607.466	7440
1609.652	7533
1611.838	7556
1614.023	7566
1616.207	7479
1618.391	7486
1620.576	7482
1622.759	7539
1624.941	7631
1627.123	7457
1629.304	7578
1631.484	7653
1633.664	7525
1635.844	7600
1638.022	7610
1640.201	7558
1642.38	7561
1644.556	7584
1646.732	7624
1648.908	7506
1651.084	7713
1653.257	7598
1655.433	7686
1657.607	7530
1659.779	7747
1661.951	7623
1664.122	7571
1666.295	7604
1668.467	7709
1670.635	7677
1672.805	7672
1674.973	7599
1677.142	7679
1679.31	7606
1681.478	7609
1683.644	7621
1685.81	7619
1687.975	7589
1690.142	7611
1692.305	7527
1694.468	7654
1696.632	7454
1698.794	7500
1700.957	7487
1703.119	7473
1705.279	7570
1707.439	7626
1709.598	7498
1711.758	7446
1713.917	7513
1716.075	7564
1718.231	7487
1720.388	7470
1722.543	7507
1724.702	7456
1726.856	7556
1729.01	7519
1731.164	7373
1733.317	7376
1735.471	7569
1737.623	7380
1739.774	7557
1741.925	7413
1744.075	7425
1746.225	7468
1748.376	7447
1750.524	7442
1752.672	7521
1754.82	7428
1756.965	7520
1759.113	7458
1761.259	7584
1763.405	7506
1765.549	7474
1767.694	7475
1769.836	7488
1771.981	7562
1774.123	7493
1776.264	7572
1778.405	7586
1780.546	7610
1782.687	7555
1784.827	7494
1786.966	7508
1789.103	7460
1791.242	7540
1793.381	7693
1795.517	7548
1797.653	7583
1799.788	7570
1801.923	7581
1804.057	7599
1806.193	7574
1808.326	7717
1810.457	7636
1812.59	7495
1814.721	7564
1816.855	7514
1818.984	7474
1821.113	7515
1823.244	7434
1825.372	7519
1827.499	7599
1829.63	7498
1831.756	7560
1833.882	7595
1836.007	7457
1838.132	7513
1840.26	7569
1842.384	7449
1844.507	7447
1846.63	7549
1848.752	7446
1850.875	7480
1852.996	7536
1855.118	7477
1857.238	7460
1859.358	7499
1861.477	7517
1863.597	7469
1865.715	7511
1867.832	7497
1869.948	7538
1872.064	7536
1874.181	7498
1876.297	7549
1878.411	7552
1880.526	7471
1882.639	7414
1884.752	7385
1886.865	7559
1888.977	7504
1891.089	7585
1893.2	7452
1895.308	7459
1897.42	7568
1899.53	7481
1901.639	7539
1903.745	7607
1905.853	7563
1907.962	7661
1910.067	7548
1912.174	7534
1914.278	7517
1916.383	7571
1918.486	7481
1920.592	7620
1922.694	7534
1924.797	7474
1926.898	7645
1929	7616
1931.102	7613
1933.203	7653
1935.301	7532
1937.401	7530
1939.499	7444
1941.598	7659
1943.697	7516
1945.793	7656
1947.888	7549
1949.985	7552
1952.08	7630
1954.176	7606
1956.269	7614
1958.364	7611
1960.457	7551
1962.549	7513
1964.642	7618
1966.733	7594
1968.823	7584
1970.913	7496
1973.005	7537
1975.093	7613
1977.184	7603
1979.271	7597
1981.359	7478
1983.446	7528
1985.532	7336
1987.619	7526
1989.705	7602
1991.789	7536
1993.874	7510
1995.956	7615
1998.041	7603
2000.123	7576
2002.206	7567
2004.287	7553
2006.368	7468
2008.449	7426
2010.529	7484
2012.609	7582
2014.688	7593
2016.766	7559
2018.843	7522
2020.922	7432
2022.999	7601
2025.074	7484
2027.15	7506
2029.225	7562
2031.299	7508
2033.375	7364
2035.447	7485
2037.52	7501
2039.592	7515
2041.664	7552
2043.736	7574
2045.807	7518
2047.876	7590
2049.947	7489
2052.015	7507
2054.086	7537
2056.153	7541
2058.221	7557
2060.288	7447
2062.353	7498
2064.42	7502
2066.486	7557
2068.55	7559
2070.614	7502
2072.678	7606
2074.741	7401
2076.805	7454
2078.866	7524
2080.929	7310
2082.99	7493
2085.049	7471
2087.109	7526
2089.17	7546
2091.228	7549
2093.286	7513
2095.344	7574
2097.4	7457
2099.46	7495
2101.516	7421
2103.572	7584
2105.626	7595
2107.679	7472
2109.735	7477
2111.788	7439
2113.841	7389
2115.894	7450
2117.945	7611
2119.997	7440
2122.049	7423
2124.1	7498
2126.148	7469
2128.197	7453
2130.246	7528
2132.296	7549
2134.342	7530
2136.39	7410
2138.437	7372
2140.483	7417
2142.527	7487
2144.574	7431
2146.619	7548
2148.661	7381
2150.705	7516
2152.747	7457
2154.792	7338
2156.832	7435
2158.874	7416
2160.915	7405
2162.954	7535
2164.995	7386
2167.034	7402
2169.072	7332
2171.111	7311
2173.148	7430
2175.186	7423
2177.223	7329
2179.258	7334
2181.294	7402
2183.328	7445
2185.362	7279
2187.398	7319
2189.431	7211
2191.463	7379
2193.495	7330
2195.528	7373
2197.56	7309
2199.59	7315
2201.62	7265
2203.649	7302
2205.678	7313
2207.708	7305
2209.737	7267
2211.764	7390
2213.791	7285
2215.817	7227
2217.843	7264
2219.87	7278
2221.895	7300
2223.919	7303
2225.942	7214
2227.966	7238
2229.988	7353
2232.012	7214
2234.032	7325
2236.054	7294
2238.074	7269
2240.095	7296
2242.116	7192
2244.135	7257
2246.153	7186
2248.171	7247
2250.188	7260
2252.208	7189
2254.223	7256
2256.239	7284
2258.255	7305
2260.269	7126
2262.283	7267
2264.3	7260
2266.312	7277
2268.325	7259
2270.336	7184
2272.349	7319
2274.362	7311
2276.372	7282
2278.383	7232
2280.392	7208
2282.402	7143
2284.409	7249
2286.418	7276
2288.427	7352
2290.433	7316
2292.441	7319
2294.446	7201
2296.453	7198
2298.459	7312
2300.463	7232
2302.466	7321
2304.471	7277
2306.475	7257
2308.477	7133
2310.478	7190
2312.481	7309
2314.481	7171
2316.481	7343
2318.482	7245
2320.482	7247
2322.48	7210
2324.48	7198
2326.478	7114
2328.476	7290
2330.473	7147
2332.469	7181
2334.465	7057
2336.46	7075
2338.454	7056
2340.45	7165
2342.444	7103
2344.437	7047
2346.43	7140
2348.421	7067
2350.414	7155
2352.405	7025
2354.396	7096
2356.386	7033
2358.376	7116
2360.366	6977
2362.355	7139
2364.343	7183
2366.331	7149
2368.317	7158
2370.304	7089
2372.292	7108
2374.278	7022
2376.262	7183
2378.247	7098
2380.23	6921
2382.216	7051
2384.199	7000
2386.181	7022
2388.163	7038
2390.144	6994
2392.127	7071
2394.107	6857
2396.087	6975
2398.066	6949
2400.046	6942
2402.023	6955
2404.004	6999
2405.981	7062
2407.957	6975
2409.934	6929
2411.91	6871
2413.886	7083
2415.862	7026
2417.836	6874
2419.809	6912
2421.784	6937
2423.756	6989
2425.73	6921
2427.701	6937
2429.672	6921
2431.644	6946
2433.615	6975
2435.586	6996
2437.555	6935
2439.523	6982
2441.491	6958
2443.459	6948
2445.428	6941
2447.395	6901
2449.361	6950
2451.327	7004
2453.292	6940
2455.257	6891
2457.223	6895
2459.187	6914
2461.15	6866
2463.113	6933
2465.076	6734
2467.039	6868
2468.999	7074
2470.96	6743
2472.921	6873
2474.881	6872
2476.841	6894
2478.8	6828
2480.759	6908
2482.717	6807
2484.675	6869
2486.63	6842
2488.589	6905
2490.545	6772
2492.5	6827
2494.455	6760
2496.408	6934
2498.364	6778
2500.318	6874
2502.27	6825
2504.223	6878
2506.174	6886
2508.126	6772
2510.078	6808
2512.03	6694
2513.979	6832
2515.927	6801
2517.877	6822
2519.826	6739
2521.775	6821
2523.722	6752
2525.668	6747
2527.616	6781
2529.561	6740
2531.508	6837
2533.452	6778
2535.398	6757
2537.342	6749
2539.284	6818
2541.229	6834
2543.173	6750
2545.114	6864
2547.055	6744
2548.996	6825
2550.938	6747
2552.878	6906
2554.817	6787
2556.756	6841
2558.695	6763
2560.633	6713
2562.572	6777
2564.509	6791
2566.445	6794
2568.382	6751
2570.317	6827
2572.254	6771
2574.189	6806
2576.123	6692
2578.057	6750
2579.99	6776
2581.923	6828
2583.855	6639
2585.788	6848
2587.719	6629
2589.65	6786
2591.579	6840
2593.511	6858
2595.44	6707
2597.37	6703
2599.297	6818
2601.225	6822
2603.153	6808
2605.08	6821
2607.007	6789
2608.932	6739
2610.858	6836
2612.782	6660
2614.709	6760
2616.632	6728
2618.556	6737
2620.478	6903
2622.401	6777
2624.324	6764
2626.247	6703
2628.167	6802
2630.088	6714
2632.008	6776
2633.928	6721
2635.848	6665
2637.766	6750
2639.684	6810
2641.603	6736
2643.519	6774
2645.437	6799
2647.353	6763
2649.27	6776
2651.184	6760
2653.099	6593
2655.014	6698
2656.928	6690
2658.842	6799
2660.755	6702
2662.667	6760
2664.579	6609
2666.491	6715
2668.402	6736
2670.312	6786
2672.222	6679
2674.132	6653
2676.042	6719
2677.951	6678
2679.859	6774
2681.766	6715
2683.674	6635
2685.582	6786
2687.488	6564
2689.392	6702
2691.298	6626
2693.202	6717
2695.107	6680
2697.012	6677
2698.914	6552
2700.817	6640
2702.72	6607
2704.622	6602
2706.524	6674
2708.425	6575
2710.326	6652
2712.225	6615
2714.125	6720
2716.024	6658
2717.923	6738
2719.822	6680
2721.719	6558
2723.616	6571
2725.512	6637
2727.41	6570
2729.305	6636
2731.201	6488
2733.095	6614
2734.99	6663
2736.884	6795
2738.778	6608
2740.67	6571
2742.562	6599
2744.455	6565
2746.346	6649
2748.238	6516
2750.129	6615
2752.018	6565
2753.907	6432
2755.797	6594
2757.687	6533
2759.575	6582
2761.462	6550
2763.349	6594
2765.237	6543
2767.124	6567
2769.009	6510
2770.894	6564
2772.779	6493
2774.663	6557
2776.547	6502
2778.431	6629
2780.314	6468
2782.197	6529
2784.078	6601
2785.96	6527
2787.842	6518
2789.723	6501
2791.603	6488
2793.483	6544
2795.362	6464
2797.241	6618
2799.121	6539
2800.997	6424
2802.874	6542
2804.751	6462
2806.628	6483
2808.506	6435
2810.38	6466
2812.255	6510
2814.13	6342
2816.003	6499
2817.878	6396
2819.752	6620
2821.623	6618
2823.496	6522
2825.368	6496
2827.238	6476
2829.111	6392
2830.98	6369
2832.851	6481
2834.719	6496
2836.589	6568
2838.458	6438
2840.327	6442
2842.193	6557
2844.061	6507
2845.927	6471
2847.794	6577
2849.66	6565
2851.525	6669
2853.39	6590
2855.254	6613
2857.117	6644
2858.983	6650
2860.845	6731
2862.707	6697
2864.569	6694
2866.431	6695
2868.293	6753
2870.154	6802
2872.013	6858
2873.873	6801
2875.733	6949
2877.592	6947
2879.451	7080
2881.309	7032
2883.166	7065
2885.022	7126
2886.879	7243
2888.736	7123
2890.591	7212
2892.446	7211
2894.301	7361
2896.155	7297
2898.009	7305
2899.863	7194
2901.716	7214
2903.568	7221
2905.419	7251
2907.27	7159
2909.123	7216
2910.973	7318
2912.824	7347
2914.673	7327
2916.521	7319
2918.372	7351
2920.22	7391
2922.067	7531
2923.914	7447
2925.761	7744
2927.607	7545
2929.455	7601
2931.301	7617
2933.144	7609
2934.99	7738
2936.833	7756
2938.678	7813
2940.522	7948
2942.364	8118
2944.207	8157
2946.048	8262
2947.891	8358
2949.731	8328
2951.571	8265
2953.412	8273
2955.25	8143
2957.09	8188
2958.93	8142
2960.767	8057
2962.606	7948
2964.443	8143
2966.279	7980
2968.116	7781
2969.953	7542
2971.788	7490
2973.623	7482
2975.457	7356
2977.292	7301
2979.127	7270
2980.959	7247
2982.792	7133
2984.624	7071
2986.455	6963
2988.288	6941
2990.119	6990
2991.949	7035
2993.779	6885
2995.608	6880
2997.439	6821
2999.268	6883
3001.096	6804
3002.923	6753
3004.751	6557
3006.578	6618
3008.406	6594
3010.232	6461
3012.057	6488
3013.883	6370
3015.706	6428
3017.532	6387
3019.356	6309
3021.179	6340
3023.002	6295
3024.823	6274
3026.646	6320
3028.469	6290
3030.289	6149
3032.11	6242
3033.93	6249
3035.749	6258
3037.57	6273
3039.39	6203
3041.207	6137
3043.026	6218
3044.842	6258
3046.661	6208
3048.477	6092
3050.294	6080
3052.109	6108
3053.925	6126
3055.739	6080
3057.555	6172
3059.368	6112
3061.181	6095
3062.995	6124
3064.807	6108
3066.62	6123
3068.433	6183
3070.243	6092
3072.054	6120
3073.865	5973
3075.675	6000
3077.485	6130
3079.293	6044
3081.102	6054
3082.911	6089
3084.719	5854
3086.527	5993
3088.333	6040
3090.139	6001
3091.945	6025
3093.75	6027
3095.557	5905
3097.361	5801
3099.165	5959
3100.969	5851
3102.772	5957
3104.575	5961
3106.379	5808
3108.181	5914
3109.982	5884
3111.783	5769
3113.584	5901
3115.386	5888
3117.186	5857
3118.985	5816
3120.783	5812
3122.582	5815
3124.381	5896
3126.179	5848
3127.975	5744
3129.772	5874
3131.569	5784
3133.365	5832
3135.161	5827
3136.956	5767
3138.751	5758
3140.544	5796
3142.338	5844
3144.132	5830
3145.925	5747
3147.717	5789
3149.509	5838
3151.301	5843
3153.091	5723
3154.884	5750
3156.673	5787
3158.462	5706
3160.252	5768
3162.041	5649
3163.831	5539
3165.618	5722
3167.405	5696
3169.193	5682
3170.979	5623
3172.767	5679
3174.553	5632
3176.338	5591
3178.123	5662
3179.907	5662
3181.692	5732
3183.477	5646
3185.259	5739
3187.042	5659
3188.824	5711
3190.607	5536
3192.389	5663
3194.17	5685
3195.951	5766
3197.73	5610
3199.51	5515
3201.289	5600
3203.07	5715
3204.848	5627
3206.626	5734
3208.403	5740
3210.18	5694
3211.959	5636
3213.735	5641
3215.511	5666
3217.285	5542
3219.06	5647
3220.836	5622
3222.611	5678
3224.384	5591
3226.158	5676
3227.929	5571
3229.702	5603
3231.476	5557
3233.248	5638
3235.018	5594
3236.789	5590
3238.56	5629
3240.33	5533
3242.1	5617
3243.869	5724
3245.637	5502
3247.405	5699
3249.172	5737
3250.941	5609
3252.707	5562
3254.474	5568
3256.24	5655
3258.006	5589
3259.772	5713
3261.537	5540
3263.301	5650
3265.065	5642
3266.828	5648
3268.592	5628
3270.355	5615
3272.117	5668
3273.878	5599
3275.64	5616
3277.401	5647
3279.162	5536
3280.922	5593
3282.682	5545
3284.441	5627
3286.199	5592
3287.959	5595
3289.716	5453
3291.475	5615
3293.232	5565
3294.988	5649
3296.744	5620
3298.501	5577
3300.256	5484
3302.011	5617
3303.766	5533
3305.52	5570
3307.275	5557
3309.028	5598
3310.781	5560
3312.533	5593
3314.285	5569
3316.038	5548
3317.789	5585
3319.54	5521
3321.289	5603
3323.039	5465
3324.789	5532
3326.539	5451
3328.288	5506
3330.035	5542
3331.783	5549
3333.531	5610
3335.28	5560
3337.025	5502
3338.771	5445
3340.518	5481
3342.262	5513
3344.009	5479
3345.753	5517
3347.497	5472
3349.24	5476
3350.983	5399
3352.726	5465
3354.469	5389
3356.212	5470
3357.952	5451
3359.694	5387
3361.434	5410
3363.176	5381
3364.916	5295
3366.654	5364
3368.394	5476
3370.132	5470
3371.871	5357
3373.61	5347
3375.346	5357
3377.083	5294
3378.82	5304
3380.556	5474
3382.292	5398
3384.027	5303
3385.763	5359
3387.497	5250
3389.231	5393
3390.965	5298
3392.698	5377
3394.431	5281
3396.164	5282
3397.896	5438
3399.627	5205
3401.36	5321
3403.09	5373
3404.82	5313
3406.55	5297
3408.279	5315
3410.01	5283
3411.738	5338
3413.467	5294
3415.194	5249
3416.92	5282
3418.647	5298
3420.375	5254
3422.102	5288
3423.827	5226
3425.553	5239
3427.277	5253
3429.003	5281
3430.727	5215
3432.451	5263
3434.173	5182
3435.896	5248
3437.62	5106
3439.343	5176
3441.063	5170
3442.785	5245
3444.505	5166
3446.226	5162
3447.948	5162
3449.666	5080
3451.386	5111
3453.104	5221
3454.823	5119
3456.541	5033
3458.259	5174
3459.976	5149
3461.693	5036
3463.408	5063
3465.125	5175
3466.841	5060
3468.556	5096
3470.271	5038
3471.985	5029
3473.698	5033
3475.414	5129
3477.126	5057
3478.838	4945
3480.55	4990
3482.263	4902
3483.975	5055
3485.686	4994
3487.396	4968
3489.106	5025
3490.817	4963
3492.526	4930
3494.236	4922
3495.944	4989
3497.652	5037
3499.359	4893
3501.066	4894
3502.775	4949
3504.481	4938
3506.187	4889
3507.893	4862
3509.598	4905
3511.304	4836
3513.009	4946
3514.713	4874
3516.417	4848
3518.12	4807
3519.821	4920
3521.525	4736
3523.228	4861
3524.929	4720
3526.631	4772
3528.33	4795
3530.032	4867
3531.733	4803
3533.433	4773
3535.131	4769
3536.83	4784
3538.529	4857
3540.227	4738
3541.925	4773
3543.623	4723
3545.319	4718
3547.016	4766
3548.712	4757
3550.408	4731
3552.103	4721
3553.798	4805
3555.491	4808
3557.188	4742
3558.88	4655
3560.574	4603
3562.266	4731
3563.959	4784
3565.651	4753
3567.343	4687
3569.035	4756
3570.725	4755
3572.415	4784
3574.106	4566
3575.797	4611
3577.485	4697
3579.174	4672
3580.863	4557
3582.551	4611
3584.238	4586
3585.926	4622
3587.613	4540
3589.3	4580
3590.986	4642
3592.671	4577
3594.357	4626
3596.042	4633
3597.726	4581
3599.41	4599
3601.094	4600
3602.778	4573
3604.461	4522
3606.143	4556
3607.825	4534
3609.507	4479
3611.188	4496
3612.87	4505
3614.551	4528
3616.229	4439
3617.909	4529
3619.589	4481
3621.269	4492
3622.948	4385
3624.625	4488
3626.302	4417
3627.98	4480
3629.657	4466
3631.334	4476
3633.01	4429
3634.686	4428
3636.361	4363
3638.036	4369
3639.712	4336
3641.385	4381
3643.06	4438
3644.732	4329
3646.405	4455
3648.08	4401
3649.751	4477
3651.424	4279
3653.094	4383
3654.766	4371
3656.436	4316
3658.106	4323
3659.777	4290
3661.446	4229
3663.115	4286
3664.783	4291
3666.452	4329
3668.121	4277
3669.788	4265
3671.454	4297
3673.121	4351
3674.789	4251
3676.455	4297
3678.12	4237
3679.784	4246
3681.45	4235
3683.114	4241
3684.779	4258
3686.442	4309
3688.105	4252
3689.768	4281
3691.43	4214
3693.093	4297
3694.754	4271
3696.415	4263
3698.076	4182
3699.736	4238
3701.396	4100
3703.057	4245
3704.716	4160
3706.375	4121
3708.034	4197
3709.692	4098
3711.351	4294
3713.008	4227
3714.665	4276
3716.321	4137
3717.977	4113
3719.634	4192
3721.29	4154
3722.945	4182
3724.598	4194
3726.253	4072
3727.907	4143
3729.561	4183
3731.214	4113
3732.867	4193
3734.518	4185
3736.171	4112
3737.824	4163
3739.474	4161
3741.125	4152
3742.775	4137
3744.425	4182
3746.074	4119
3747.725	4130
3749.373	4185
3751.022	4029
3752.669	4145
3754.318	4173
3755.966	4125
3757.612	4096
3759.259	4122
3760.905	4057
3762.55	4189
3764.197	4074
3765.842	4066
3767.486	4062
3769.131	4150
3770.774	4030
3772.417	3997
3774.061	4032
3775.705	4035
3777.347	4108
3778.988	4083
3780.629	4042
3782.271	4101
3783.912	4029
3785.552	4031
3787.192	3990
3788.831	3997
3790.472	4027
3792.112	3956
3793.75	4063
3795.388	3939
3797.024	3996
3798.661	4044
3800.3	3996
3801.936	4071
3803.572	3921
3805.208	4000
3806.844	3998
3808.48	4013
3810.115	3989
3811.748	3944
3813.382	4016
3815.016	3968
3816.649	3897
3818.283	3844
3819.914	3918
3821.547	3920
3823.178	4018
3824.809	3884
3826.441	3933
3828.072	3889
3829.701	3868
3831.331	3843
3832.96	3859
3834.591	3930
3836.219	3892
3837.847	3902
3839.475	3950
3841.102	3898
3842.729	3792
3844.357	3848
3845.984	3935
3847.609	3925
3849.234	3900
3850.86	3870
3852.485	3822
3854.11	3797
3855.734	3821
3857.357	3790
3858.981	3913
3860.603	3823
3862.227	3827
3863.848	3759
3865.471	3787
3867.092	3827
3868.713	3770
3870.334	3777
3871.954	3846
3873.575	3793
3875.194	3843
3876.813	3849
3878.433	3777
3880.051	3822
3881.669	3842
3883.286	3804
3884.904	3762
3886.52	3765
3888.138	3830
3889.754	3773
3891.37	3790
3892.985	3798
3894.6	3764
3896.216	3706
3897.831	3694
3899.444	3749
3901.058	3837
3902.67	3734
3904.283	3776
3905.897	3742
3907.509	3721
3909.121	3768
3910.731	3686
3912.342	3679
3913.954	3846
3915.563	3789
3917.174	3820
3918.783	3735
3920.391	3730
3922.002	3716
3923.611	3729
3925.218	3698
3926.826	3721
3928.432	3690
3930.039	3694
3931.647	3734
3933.253	3687
3934.859	3689
3936.464	3619
3938.068	3597
3939.675	3792
3941.278	3714
3942.883	3652
3944.486	3705
3946.089	3730
3947.692	3657
3949.295	3595
3950.898	3618
3952.499	3628
3954.1	3707
3955.7	3658
3957.303	3616
3958.903	3676
3960.502	3649
3962.101	3626
3963.7	3585
3965.301	3557
3966.899	3703
3968.497	3616
3970.094	3643
3971.691	3636
3973.288	3588
3974.885	3661
3976.481	3585
3978.077	3552
3979.672	3542
3981.267	3592
3982.863	3556
3984.457	3560
3986.051	3607
3987.645	3562
3989.238	3573
3990.831	3519
3992.425	3485
3994.017	3555
3995.607	3502
3997.199	3509
3998.79	3600
4000.382	3485
4001.973	3633
4003.561	3534
4005.151	3537
4006.741	3510
4008.331	3502
4009.918	3508
4011.507	3501
4013.095	3503
4014.681	3484
4016.269	3554
4017.856	3440
4019.443	3483
4021.028	3450
4022.614	3467
4024.199	3422
4025.785	3489
4027.37	3417
4028.953	3403
4030.536	3412
4032.12	3434
4033.704	3388
4035.287	3429
4036.869	3446
4038.45	3440
4040.032	3353
4041.613	3447
4043.195	3356
4044.776	3405
4046.356	3382
4047.935	3425
4049.515	3373
4051.095	3387
4052.674	3435
4054.251	3400
4055.829	3383
4057.406	3373
4058.985	3413
4060.562	3372
4062.139	3366
4063.715	3269
4065.29	3387
4066.865	3395
4068.442	3313
4070.016	3367
4071.59	3388
4073.164	3301
4074.738	3338
4076.312	3293
4077.885	3341
4079.458	3372
4081.03	3301
4082.602	3389
4084.173	3326
4085.745	3335
4087.315	3322
4088.886	3334
4090.456	3313
4092.026	3333
4093.596	3348
4095.165	3353
4096.734	3306
4098.301	3278
4099.869	3194
4101.437	3253
4103.006	3295
4104.572	3254
4106.139	3221
4107.704	3272
4109.27	3172
4110.837	3229
4112.401	3267
4113.966	3247
4115.53	3291
4117.094	3307
4118.659	3359
4120.223	3205
4121.785	3247
4123.347	3263
4124.909	3213
4126.471	3241
4128.034	3226
4129.595	3232
4131.155	3268
4132.716	3235
4134.275	3178
4135.836	3225
4137.395	3211
4138.955	3197
4140.513	3219
4142.071	3219
4143.628	3220
4145.188	3191
4146.745	3098
4148.302	3164
4149.858	3173
4151.414	3130
4152.971	3217
4154.526	3185
4156.081	3133
4157.635	3179
4159.189	3140
4160.745	3091
4162.298	3080
4163.852	3063
4165.405	3101
4166.957	3090
4168.51	3091
4170.063	3071
4171.614	3194
4173.166	3104
4174.717	3101
4176.267	3125
4177.817	3068
4179.368	3044
4180.917	3084
4182.466	3079
4184.016	3141
4185.564	3105
4187.112	2998
4188.66	3021
4190.207	3040
4191.754	3071
4193.301	3095
4194.848	2961
4196.394	3092
4197.94	3071
4199.484	3032
4201.03	3110
4202.575	3057
4204.12	3087
4205.663	2963
4207.207	2977
4208.75	2999
4210.292	2993
4211.836	2977
4213.378	3001
4214.92	2979
4216.46	3022
4218.002	3073
4219.544	3015
4221.083	2970
4222.625	3041
4224.164	2997
4225.703	2982
4227.244	2951
4228.782	3023
4230.32	2970
4231.857	2934
4233.395	2914
4234.933	2968
4236.471	2909
4238.007	2955
4239.542	3059
4241.078	2927
4242.614	2952
4244.15	2924
4245.685	2959
4247.219	2950
4248.753	2924
4250.287	2966
4251.82	2944
4253.354	2975
4254.887	2943
4256.419	3057
4257.951	2928
4259.483	2948
4261.016	2916
4262.547	2889
4264.078	2926
4265.608	2891
4267.137	2938
4268.668	2994
4270.197	2904
4271.727	2898
4273.254	3000
4274.783	2945
4276.311	2956
4277.84	3017
4279.366	2901
4280.894	2935
4282.42	2932
4283.946	2889
4285.473	2991
4286.998	2822
4288.523	2830
4290.047	2888
4291.572	2843
4293.096	2812
4294.622	2880
4296.144	2885
4297.668	2860
4299.19	2880
4300.713	2836
4302.236	2818
4303.758	2803
4305.279	2877
4306.799	2758
4308.321	2814
4309.842	2809
4311.361	2825
4312.882	2861
4314.401	2855
