400.0961	3927
402.6185	3898
405.1424	3821
407.6635	3896
410.1838	3974
412.7035	3940
415.2225	4044
417.7388	4104
420.2585	4014
422.7754	4087
425.2917	4130
427.8072	4154
430.3221	4117
432.8363	4259
435.3498	4210
437.8626	4237
440.3727	4134
442.8841	4195
445.3969	4153
447.907	4229
450.4142	4235
452.9229	4182
455.4289	4204
457.9362	4196
460.4449	4125
462.9488	4168
465.454	4210
467.9566	4078
470.4604	4148
472.9637	4120
475.4662	4141
477.966	4097
480.4671	4120
482.9656	4185
485.4633	4251
487.9645	4273
490.4608	4304
492.9566	4200
495.4536	4178
497.948	4332
500.4437	4261
502.9387	4228
505.431	4249
507.9226	4306
510.4136	4260
512.9079	4320
515.3975	4262
517.8864	4329
520.3746	4360
522.8622	4306
525.3491	4387
527.8394	4339
530.3249	4428
532.8098	4318
535.2939	4409
537.7774	4383
540.2623	4358
542.7444	4388
545.2259	4334
547.7067	4369
550.1868	4439
552.6683	4361
555.147	4276
557.6231	4405
560.1005	4372
562.5773	4362
565.0534	4354
567.5308	4526
570.0056	4468
572.4776	4450
574.951	4462
577.4237	4535
579.8978	4581
582.3671	4514
584.8378	4521
587.3079	4482
589.7773	4568
592.244	4464
594.714	4444
597.1793	4532
599.6461	4573
602.1121	4480
604.5754	4502
607.0421	4474
609.5042	4511
611.9675	4546
614.4282	4463
616.8902	4588
619.3515	4522
621.8122	4476
624.2702	4448
626.7296	4491
629.1863	4500
631.6423	4452
634.1017	4555
636.5563	4490
639.0104	4497
641.4658	4488
643.9185	4473
646.3725	4494
648.8239	4545
651.2766	4545
653.7266	4618
656.176	4565
658.6247	4598
661.0748	4564
663.5242	4620
665.9709	4557
668.417	4610
670.8624	4560
673.3092	4598
675.7533	4664
678.1968	4659
680.6395	4676
683.0817	4641
685.5251	4609
687.9659	4715
690.4061	4652
692.8456	4627
695.2844	4685
697.7226	4634
700.1621	4679
702.599	4688
705.0332	4770
707.4688	4643
709.9036	4772
712.3399	4713
714.7735	4833
717.2044	4727
719.6367	4816
722.0683	4784
724.4993	4751
726.9296	4859
729.3593	4822
731.7883	4820
734.2147	4911
736.6423	4828
739.0714	4782
741.4958	4930
743.9216	4746
746.3447	4864
748.7691	4877
751.1929	4954
753.616	4871
756.0366	5013
758.4584	4959
760.8776	4924
763.2982	4980
765.718	4990
768.1373	4958
770.5539	5033
772.9698	5013
775.3871	5017
777.8038	5066
780.2178	5006
782.6332	5120
785.0459	4998
787.458	5004
789.8714	5006
792.2842	5082
794.6943	5022
797.1038	5026
799.5127	4901
801.9209	5041
804.3324	5050
806.7393	5029
809.1456	5118
811.5513	5073
813.9562	5065
816.3625	5052
818.7663	5070
821.1693	5068
823.5718	5075
825.9735	5036
828.3746	5179
830.7771	5102
833.177	5071
835.5762	5073
837.9747	5205
840.3727	5215
842.772	5139
845.1666	5178
847.5626	5115
849.958	5174
852.3527	5176
854.7488	5163
857.1403	5093
859.5331	5264
861.9253	5256
864.3168	5272
866.7057	5175
869.098	5164
871.4876	5237
873.8746	5126
876.263	5224
878.6487	5226
881.0378	5088
883.4243	5208
885.8081	5190
888.1933	5153
890.5759	5099
892.9598	5151
895.343	5141
897.7256	5175
900.1057	5159
902.4871	5272
904.8659	5224
907.246	5289
909.6254	5205
912.0023	5298
914.3786	5345
916.7562	5473
919.1331	5496
921.5074	5531
923.8831	5569
926.2562	5547
928.6287	5489
931.0005	5473
933.3757	5489
935.7462	5433
938.1162	5405
940.4855	5548
942.8542	5506
945.2242	5583
947.5916	5763
949.9584	5663
952.3266	5827
954.6921	5967
957.0571	6125
959.4233	6387
961.787	6370
964.15	6475
966.5125	6418
968.8742	6116
971.2354	5913
973.5959	5750
975.9559	5620
978.3151	5606
980.6738	5582
983.0338	5489
985.3912	5460
987.7461	5475
990.1022	5484
992.4578	5322
994.8127	5363
997.1689	5414
999.5207	5408
1001.874	5449
1004.226	5506
1006.576	5418
1008.929	5510
1011.28	5361
1013.628	5419
1015.977	5395
1018.324	5483
1020.674	5307
1023.019	5324
1025.366	5383
1027.713	5585
1030.056	5395
1032.399	5564
1034.746	5445
1037.087	5523
1039.431	5520
1041.771	5495
1044.113	5467
1046.454	5553
1048.793	5555
1051.133	5497
1053.471	5541
1055.807	5466
1058.146	5476
1060.483	5426
1062.818	5476
1065.153	5523
1067.489	5575
1069.822	5581
1072.156	5547
1074.488	5532
1076.82	5556
1079.15	5494
1081.48	5496
1083.814	5634
1086.143	5452
1088.471	5566
1090.799	5525
1093.126	5546
1095.452	5581
1097.78	5509
1100.105	5435
1102.43	5645
1104.754	5449
1107.077	5502
1109.4	5503
1111.722	5485
1114.044	5546
1116.365	5559
1118.685	5457
1121.005	5457
1123.324	5490
1125.643	5654
1127.961	5659
1130.278	5411
1132.595	5474
1134.911	5540
1137.226	5538
1139.541	5435
1141.854	5612
1144.167	5503
1146.482	5508
1148.793	5579
1151.105	5615
1153.414	5558
1155.725	5668
1158.033	5525
1160.344	5574
1162.651	5552
1164.959	5555
1167.265	5601
1169.572	5526
1171.878	5583
1174.184	5541
1176.488	5554
1178.79	5700
1181.094	5697
1183.396	5655
1185.699	5623
1188.001	5544
1190.301	5586
1192.6	5538
1194.9	5582
1197.2	5411
1199.497	5615
1201.794	5686
1204.09	5574
1206.387	5577
1208.684	5554
1210.978	5596
1213.272	5575
1215.565	5578
1217.858	5556
1220.15	5638
1222.443	5626
1224.734	5625
1227.024	5745
1229.313	5691
1231.602	5657
1233.892	5636
1236.18	5766
1238.467	5773
1240.754	5746
1243.04	5819
1245.325	5783
1247.612	5842
1249.896	5737
1252.178	5815
1254.461	5813
1256.743	5797
1259.027	5813
1261.308	5803
1263.587	5743
1265.867	5727
1268.146	5889
1270.425	5881
1272.703	5822
1274.981	5862
1277.256	5866
1279.532	5761
1281.808	5791
1284.083	5785
1286.358	5861
1288.63	5776
1290.904	5770
1293.175	5872
1295.449	5742
1297.719	5851
1299.99	5775
1302.259	5751
1304.529	5743
1306.798	5635
1309.065	5762
1311.333	5811
1313.599	5752
1315.866	5740
1318.131	5740
1320.396	5726
1322.66	5831
1324.925	5845
1327.187	5871
1329.448	5833
1331.711	5788
1333.974	5844
1336.234	5741
1338.493	5797
1340.752	5672
1343.01	5739
1345.269	5748
1347.526	5696
1349.784	5780
1352.04	5762
1354.295	5621
1356.552	5742
1358.806	5669
1361.059	5692
1363.312	5724
1365.564	5809
1367.818	5723
1370.069	5723
1372.318	5848
1374.568	5845
1376.817	5737
1379.066	5740
1381.316	5803
1383.564	5874
1385.809	5962
1388.056	5866
1390.301	5855
1392.549	5846
1394.793	5904
1397.036	5846
1399.279	6023
1401.522	5994
1403.763	6075
1406.007	5929
1408.248	6110
1410.487	6039
1412.727	6104
1414.965	6007
1417.205	6045
1419.442	5973
1421.68	5957
1423.915	5964
1426.152	5963
1428.388	5963
1430.623	5988
1432.857	5981
1435.091	6050
1437.323	6041
1439.556	6111
1441.789	6049
1444.019	6107
1446.25	5992
1448.48	6079
1450.708	6006
1452.938	6201
1455.167	6018
1457.394	6053
1459.62	6142
1461.846	6151
1464.073	6067
1466.299	6015
1468.523	6118
1470.746	6034
1472.969	5958
1475.191	5861
1477.415	5824
1479.636	5922
1481.858	5828
1484.078	5951
1486.298	5847
1488.518	5771
1490.736	5841
1492.954	5728
1495.169	5846
1497.386	5795
1499.602	5739
1501.819	5735
1504.034	5832
1506.248	5755
1508.462	5780
1510.675	5759
1512.888	5876
1515.1	5791
1517.311	5865
1519.522	5683
1521.732	5724
1523.942	5786
1526.151	5749
1528.36	5715
1530.566	5698
1532.773	5730
1534.98	5659
1537.187	5776
1539.392	5806
1541.596	5875
1543.801	5794
1546.005	5837
1548.208	5808
1550.411	5748
1552.612	5955
1554.814	5857
1557.013	5966
1559.212	5882
1561.414	5911
1563.612	5928
1565.811	5819
1568.007	5979
1570.203	5885
1572.403	5934
1574.598	5899
1576.792	5959
1578.988	5920
1581.181	5819
1583.376	6061
1585.568	5843
1587.761	6011
1589.952	5948
1592.143	5993
1594.333	5901
1596.524	5992
1598.715	5983
1600.903	5920
1603.091	5971
1605.278	5933
1607.466	5894
1609.652	6076
1611.838	5971
1614.023	5995
1616.207	6019
1618.391	5960
1620.576	5982
1622.759	6071
1624.941	5974
1627.123	6051
1629.304	5939
1631.484	6085
1633.664	6010
1635.844	6003
1638.022	6081
1640.201	6080
1642.38	6048
1644.556	6116
1646.732	6155
1648.908	6002
1651.084	6070
1653.257	6103
1655.433	6078
1657.607	6116
1659.779	6144
1661.951	6069
1664.122	6195
1666.295	6112
1668.467	6152
1670.635	6116
1672.805	6189
1674.973	6056
1677.142	6108
1679.31	6204
1681.478	6023
1683.644	6105
1685.81	6077
1687.975	6102
1690.142	6106
1692.305	6090
1694.468	6045
1696.632	6077
1698.794	5872
1700.957	5955
1703.119	5936
1705.279	5776
1707.439	5914
1709.598	5890
1711.758	5892
1713.917	5962
1716.075	5993
1718.231	5990
1720.388	5992
1722.543	6031
1724.702	5954
1726.856	5850
1729.01	5994
1731.164	5872
1733.317	5983
1735.471	6086
1737.623	5961
1739.774	5932
1741.925	5868
1744.075	5962
1746.225	5916
1748.376	5973
1750.524	5916
1752.672	6027
1754.82	5982
1756.965	5993
1759.113	5961
1761.259	5982
1763.405	6023
1765.549	5969
1767.694	6005
1769.836	5996
1771.981	6038
1774.123	5897
1776.264	5999
1778.405	6011
1780.546	5934
1782.687	5992
1784.827	6114
1786.966	5967
1789.103	5988
1791.242	6085
1793.381	5981
1795.517	6050
1797.653	6072
1799.788	5987
1801.923	6044
1804.057	6070
1806.193	5973
1808.326	5976
1810.457	5990
1812.59	5952
1814.721	6122
1816.855	5990
1818.984	6045
1821.113	6036
1823.244	5899
1825.372	6043
1827.499	6056
1829.63	5968
1831.756	6040
1833.882	5920
1836.007	6004
1838.132	5834
1840.26	5991
1842.384	6000
1844.507	6001
1846.63	6043
1848.752	5955
1850.875	5826
1852.996	6011
1855.118	5980
1857.238	5955
1859.358	5975
1861.477	6044
1863.597	6077
1865.715	5941
1867.832	6031
1869.948	5995
1872.064	5974
1874.181	5895
1876.297	5921
1878.411	5953
1880.526	6031
1882.639	6071
1884.752	5969
1886.865	6001
1888.977	6005
1891.089	5940
1893.2	6098
1895.308	5994
1897.42	6043
1899.53	6051
1901.639	5924
1903.745	6044
1905.853	6101
1907.962	6052
1910.067	5974
1912.174	6036
1914.278	6131
1916.383	5991
1918.486	5977
1920.592	6043
1922.694	6057
1924.797	6065
1926.898	5942
1929	6180
1931.102	6089
1933.203	6042
1935.301	6034
1937.401	6023
1939.499	6071
1941.598	6003
1943.697	6112
1945.793	6162
1947.888	6096
1949.985	6052
1952.08	6115
1954.176	5989
1956.269	6061
1958.364	6106
1960.457	6158
1962.549	6095
1964.642	5978
1966.733	6024
1968.823	6165
1970.913	6028
1973.005	6049
1975.093	6146
1977.184	5936
1979.271	6121
1981.359	5905
1983.446	6036
1985.532	6009
1987.619	5914
1989.705	6040
1991.789	6047
1993.874	6069
1995.956	6012
1998.041	6132
2000.123	6055
2002.206	6035
2004.287	5970
2006.368	5966
2008.449	6026
2010.529	6011
2012.609	5887
2014.688	6014
2016.766	5969
2018.843	5981
2020.922	5901
2022.999	5972
2025.074	5911
2027.15	6082
2029.225	6010
2031.299	6017
2033.375	6060
2035.447	5973
2037.52	5909
2039.592	5986
2041.664	5972
2043.736	6001
2045.807	5959
2047.876	6012
2049.947	6007
2052.015	5941
2054.086	5995
2056.153	6037
2058.221	5972
2060.288	6030
2062.353	5851
2064.42	6101
2066.486	5935
2068.55	6006
2070.614	6025
2072.678	6020
2074.741	6060
2076.805	6031
2078.866	5937
2080.929	6054
2082.99	5983
2085.049	6020
2087.109	6062
2089.17	5946
2091.228	6109
2093.286	6178
2095.344	5998
2097.4	6050
2099.46	6009
2101.516	5919
2103.572	5956
2105.626	5931
2107.679	6030
2109.735	6079
2111.788	5988
2113.841	5882
2115.894	5963
2117.945	5866
2119.997	6024
2122.049	6001
2124.1	5990
2126.148	6008
2128.197	5962
2130.246	6050
2132.296	5948
2134.342	5961
2136.39	5930
2138.437	6028
2140.483	5961
2142.527	5959
2144.574	5976
2146.619	5958
2148.661	6025
2150.705	5957
2152.747	6065
2154.792	5894
2156.832	5939
2158.874	5912
2160.915	5866
2162.954	5971
2164.995	5905
2167.034	5971
2169.072	5827
2171.111	6014
2173.148	5865
2175.186	5886
2177.223	5999
2179.258	5862
2181.294	5928
2183.328	5885
2185.362	5920
2187.398	5994
2189.431	5770
2191.463	5862
2193.495	5903
2195.528	5762
2197.56	5922
2199.59	5822
2201.62	5754
2203.649	5767
2205.678	5946
2207.708	5888
2209.737	5907
2211.764	5847
2213.791	5704
2215.817	5839
2217.843	5823
2219.87	5816
2221.895	5797
2223.919	5804
2225.942	5884
2227.966	5782
2229.988	5858
2232.012	5760
2234.032	5725
2236.054	5916
2238.074	5839
2240.095	5725
2242.116	5651
2244.135	5765
2246.153	5864
2248.171	5868
2250.188	5805
2252.208	5762
2254.223	5784
2256.239	5838
2258.255	5852
2260.269	5776
2262.283	5856
2264.3	5843
2266.312	5841
2268.325	5847
2270.336	5788
2272.349	5854
2274.362	5803
2276.372	5951
2278.383	5775
2280.392	5817
2282.402	5699
2284.409	5788
2286.418	5869
2288.427	5786
2290.433	5794
2292.441	5868
2294.446	5800
2296.453	5833
2298.459	5812
2300.463	5746
2302.466	5744
2304.471	5761
2306.475	5798
2308.477	5803
2310.478	5698
2312.481	5901
2314.481	5772
2316.481	5753
2318.482	5856
2320.482	5746
2322.48	5842
2324.48	5789
2326.478	5757
2328.476	5801
2330.473	5672
2332.469	5704
2334.465	5724
2336.46	5705
2338.454	5735
2340.45	5779
2342.444	5686
2344.437	5729
2346.43	5704
2348.421	5652
2350.414	5682
2352.405	5701
2354.396	5723
2356.386	5727
2358.376	5683
2360.366	5568
2362.355	5692
2364.343	5613
2366.331	5666
2368.317	5726
2370.304	5576
2372.292	5724
2374.278	5713
2376.262	5712
2378.247	5692
2380.23	5755
2382.216	5726
2384.199	5636
2386.181	5639
2388.163	5652
2390.144	5568
2392.127	5747
2394.107	5614
2396.087	5637
2398.066	5622
2400.046	5620
2402.023	5544
2404.004	5588
2405.981	5687
2407.957	5637
2409.934	5591
2411.91	5496
2413.886	5645
2415.862	5584
2417.836	5583
2419.809	5598
2421.784	5587
2423.756	5590
2425.73	5476
2427.701	5618
2429.672	5705
2431.644	5616
2433.615	5576
2435.586	5569
2437.555	5650
2439.523	5516
2441.491	5663
2443.459	5710
2445.428	5639
2447.395	5652
2449.361	5601
2451.327	5563
2453.292	5479
2455.257	5564
2457.223	5582
2459.187	5578
2461.15	5560
2463.113	5484
2465.076	5614
2467.039	5577
2468.999	5553
2470.96	5511
2472.921	5542
2474.881	5574
2476.841	5524
2478.8	5396
2480.759	5537
2482.717	5459
2484.675	5481
2486.63	5424
2488.589	5476
2490.545	5513
2492.5	5528
2494.455	5383
2496.408	5548
2498.364	5420
2500.318	5580
2502.27	5444
2504.223	5373
2506.174	5543
2508.126	5483
2510.078	5473
2512.03	5459
2513.979	5488
2515.927	5451
2517.877	5467
2519.826	5349
2521.775	5620
2523.722	5553
2525.668	5486
2527.616	5490
2529.561	5546
2531.508	5437
2533.452	5522
2535.398	5548
2537.342	5413
2539.284	5475
2541.229	5520
2543.173	5411
2545.114	5463
2547.055	5555
2548.996	5454
2550.938	5362
2552.878	5365
2554.817	5467
2556.756	5456
2558.695	5542
2560.633	5445
2562.572	5385
2564.509	5471
2566.445	5480
2568.382	5384
2570.317	5470
2572.254	5455
2574.189	5466
2576.123	5398
2578.057	5524
2579.99	5398
2581.923	5461
2583.855	5526
2585.788	5494
2587.719	5421
2589.65	5480
2591.579	5486
2593.511	5416
2595.44	5392
2597.37	5404
2599.297	5521
2601.225	5376
2603.153	5474
2605.08	5473
2607.007	5455
2608.932	5585
2610.858	5439
2612.782	5427
2614.709	5516
2616.632	5572
2618.556	5521
2620.478	5547
2622.401	5441
2624.324	5576
2626.247	5386
2628.167	5410
2630.088	5445
2632.008	5484
2633.928	5455
2635.848	5539
2637.766	5397
2639.684	5472
2641.603	5430
2643.519	5548
2645.437	5570
2647.353	5461
2649.27	5461
2651.184	5463
2653.099	5486
2655.014	5436
2656.928	5424
2658.842	5421
2660.755	5357
2662.667	5346
2664.579	5344
2666.491	5305
2668.402	5425
2670.312	5538
2672.222	5363
2674.132	5507
2676.042	5388
2677.951	5429
2679.859	5412
2681.766	5439
2683.674	5431
2685.582	5460
2687.488	5407
2689.392	5391
2691.298	5390
2693.202	5370
2695.107	5310
2697.012	5295
2698.914	5456
2700.817	5225
2702.72	5360
2704.622	5393
2706.524	5381
2708.425	5313
2710.326	5321
2712.225	5370
2714.125	5274
2716.024	5385
2717.923	5334
2719.822	5170
2721.719	5360
2723.616	5313
2725.512	5295
2727.41	5336
2729.305	5296
2731.201	5274
2733.095	5395
2734.99	5299
2736.884	5368
2738.778	5298
2740.67	5327
2742.562	5368
2744.455	5408
2746.346	5312
2748.238	5258
2750.129	5403
2752.018	5246
2753.907	5272
2755.797	5317
2757.687	5401
2759.575	5241
2761.462	5319
2763.349	5280
2765.237	5166
2767.124	5296
2769.009	5280
2770.894	5178
2772.779	5356
2774.663	5318
2776.547	5315
2778.431	5239
2780.314	5321
2782.197	5234
2784.078	5290
2785.96	5188
2787.842	5244
2789.723	5209
2791.603	5188
2793.483	5175
2795.362	5342
2797.241	5253
2799.121	5299
2800.997	5282
2802.874	5221
2804.751	5231
2806.628	5164
2808.506	5235
2810.38	5229
2812.255	5195
2814.13	5314
2816.003	5234
2817.878	5249
2819.752	5232
2821.623	5222
2823.496	5156
2825.368	5189
2827.238	5229
2829.111	5205
2830.98	5235
2832.851	5276
2834.719	5185
2836.589	5232
2838.458	5333
2840.327	5215
2842.193	5219
2844.061	5242
2845.927	5224
2847.794	5162
2849.66	5305
2851.525	5312
2853.39	5209
2855.254	5240
2857.117	5295
2858.983	5323
2860.845	5337
2862.707	5270
2864.569	5425
2866.431	5416
2868.293	5409
2870.154	5415
2872.013	5457
2873.873	5453
2875.733	5574
2877.592	5519
2879.451	5598
2881.309	5620
2883.166	5679
2885.022	5673
2886.879	5625
2888.736	5694
2890.591	5688
2892.446	5698
2894.301	5645
2896.155	5821
2898.009	5766
2899.863	5670
2901.716	5797
2903.568	5707
2905.419	5720
2907.27	5755
2909.123	5800
2910.973	5726
2912.824	5704
2914.673	5789
2916.521	5812
2918.372	5856
2920.22	5856
2922.067	5986
2923.914	5889
2925.761	5991
2927.607	5990
2929.455	6047
2931.301	6135
2933.144	6101
2934.99	6169
2936.833	6184
2938.678	6264
2940.522	6238
2942.364	6464
2944.207	6434
2946.048	6458
2947.891	6557
2949.731	6410
2951.571	6478
2953.412	6500
2955.25	6450
2957.09	6313
2958.93	6430
2960.767	6257
2962.606	6223
2964.443	6182
2966.279	6262
2968.116	6143
2969.953	6012
2971.788	6107
2973.623	5975
2975.457	5818
2977.292	5862
2979.127	5768
2980.959	5830
2982.792	5691
2984.624	5599
2986.455	5658
2988.288	5717
2990.119	5552
2991.949	5484
2993.779	5564
2995.608	5533
2997.439	5494
2999.268	5418
3001.096	5424
3002.923	5356
3004.751	5296
3006.578	5232
3008.406	5286
3010.232	5214
3012.057	5273
3013.883	5087
3015.706	5233
3017.532	5106
3019.356	5025
3021.179	5067
3023.002	5020
3024.823	5109
3026.646	4994
3028.469	5029
3030.289	5036
3032.11	5036
3033.93	5141
3035.749	4979
3037.57	4899
3039.39	5040
3041.207	4940
3043.026	4956
3044.842	4961
3046.661	4911
3048.477	4917
3050.294	4983
3052.109	4861
3053.925	4891
3055.739	4854
3057.555	4929
3059.368	4890
3061.181	4892
3062.995	4889
3064.807	4935
3066.62	4874
3068.433	4976
3070.243	4816
3072.054	4817
3073.865	4889
3075.675	4870
3077.485	4986
3079.293	4807
3081.102	4925
3082.911	4918
3084.719	4806
3086.527	4769
3088.333	4852
3090.139	4860
3091.945	4762
3093.75	4867
3095.557	4702
3097.361	4756
3099.165	4770
3100.969	4868
3102.772	4807
3104.575	4728
3106.379	4758
3108.181	4783
3109.982	4694
3111.783	4782
3113.584	4781
3115.386	4714
3117.186	4775
3118.985	4727
3120.783	4689
3122.582	4786
3124.381	4648
3126.179	4681
3127.975	4752
3129.772	4685
3131.569	4759
3133.365	4624
3135.161	4788
3136.956	4625
3138.751	4645
3140.544	4769
3142.338	4614
3144.132	4586
3145.925	4637
3147.717	4624
3149.509	4566
3151.301	4619
3153.091	4567
3154.884	4658
3156.673	4661
3158.462	4598
3160.252	4686
3162.041	4627
3163.831	4725
3165.618	4620
3167.405	4591
3169.193	4643
3170.979	4620
3172.767	4624
3174.553	4695
3176.338	4613
3178.123	4577
3179.907	4620
3181.692	4634
3183.477	4627
3185.259	4532
3187.042	4616
3188.824	4636
3190.607	4605
3192.389	4548
3194.17	4641
3195.951	4543
3197.73	4504
3199.51	4598
3201.289	4505
3203.07	4620
3204.848	4634
3206.626	4612
3208.403	4619
3210.18	4469
3211.959	4547
3213.735	4609
3215.511	4617
3217.285	4511
3219.06	4556
3220.836	4496
3222.611	4506
3224.384	4614
3226.158	4601
3227.929	4512
3229.702	4643
3231.476	4639
3233.248	4603
3235.018	4576
3236.789	4603
3238.56	4576
3240.33	4502
3242.1	4637
3243.869	4526
3245.637	4532
3247.405	4558
3249.172	4544
3250.941	4633
3252.707	4506
3254.474	4589
3256.24	4480
3258.006	4491
3259.772	4551
3261.537	4625
3263.301	4615
3265.065	4486
3266.828	4529
3268.592	4567
3270.355	4607
3272.117	4444
3273.878	4555
3275.64	4447
3277.401	4543
3279.162	4539
3280.922	4508
3282.682	4507
3284.441	4582
3286.199	4535
3287.959	4538
3289.716	4498
3291.475	4638
3293.232	4499
3294.988	4498
3296.744	4557
3298.501	4489
3300.256	4529
3302.011	4559
3303.766	4438
3305.52	4531
3307.275	4523
3309.028	4521
3310.781	4515
3312.533	4530
3314.285	4447
3316.038	4488
3317.789	4488
3319.54	4550
3321.289	4567
3323.039	4485
3324.789	4471
3326.539	4453
3328.288	4466
3330.035	4551
3331.783	4408
3333.531	4443
3335.28	4459
3337.025	4434
3338.771	4510
3340.518	4400
3342.262	4497
3344.009	4454
3345.753	4431
3347.497	4488
3349.24	4443
3350.983	4389
3352.726	4442
3354.469	4415
3356.212	4362
3357.952	4452
3359.694	4390
3361.434	4488
3363.176	4300
3364.916	4484
3366.654	4364
3368.394	4328
3370.132	4380
3371.871	4320
3373.61	4386
3375.346	4398
3377.083	4388
3378.82	4316
3380.556	4433
3382.292	4335
3384.027	4386
3385.763	4389
3387.497	4446
3389.231	4448
3390.965	4290
3392.698	4357
3394.431	4283
3396.164	4353
3397.896	4321
3399.627	4337
3401.36	4425
3403.09	4264
3404.82	4251
3406.55	4292
3408.279	4304
3410.01	4370
3411.738	4303
3413.467	4291
3415.194	4320
3416.92	4204
3418.647	4356
3420.375	4307
3422.102	4274
3423.827	4299
3425.553	4379
3427.277	4298
3429.003	4224
3430.727	4256
3432.451	4134
3434.173	4260
3435.896	4221
3437.62	4157
3439.343	4332
3441.063	4284
3442.785	4111
3444.505	4158
3446.226	4247
3447.948	4268
3449.666	4236
3451.386	4179
3453.104	4182
3454.823	4214
3456.541	4138
3458.259	4168
3459.976	4185
3461.693	4214
3463.408	4241
3465.125	4126
3466.841	4139
3468.556	4204
3470.271	4124
3471.985	4218
3473.698	4133
3475.414	4072
3477.126	4124
3478.838	4146
3480.55	4108
3482.263	4005
3483.975	4154
3485.686	4102
3487.396	4052
3489.106	4103
3490.817	3972
3492.526	4127
3494.236	4059
3495.944	4001
3497.652	4080
3499.359	4001
3501.066	4022
3502.775	3915
3504.481	3988
3506.187	4073
3507.893	3953
3509.598	3978
3511.304	3983
3513.009	3909
3514.713	3943
3516.417	3991
3518.12	3997
3519.821	3958
3521.525	4022
3523.228	3995
3524.929	3933
3526.631	3884
3528.33	3931
3530.032	3929
3531.733	3900
3533.433	3890
3535.131	3851
3536.83	3902
3538.529	3968
3540.227	3869
3541.925	3868
3543.623	3924
3545.319	3915
3547.016	3903
3548.712	3844
3550.408	3897
3552.103	3870
3553.798	3901
3555.491	3895
3557.188	3858
3558.88	3821
3560.574	3866
3562.266	3872
3563.959	3886
3565.651	3833
3567.343	3786
3569.035	3871
3570.725	3833
3572.415	3827
3574.106	3812
3575.797	3787
3577.485	3819
3579.174	3868
3580.863	3817
3582.551	3898
3584.238	3869
3585.926	3837
3587.613	3845
3589.3	3802
3590.986	3770
3592.671	3819
3594.357	3803
3596.042	3828
3597.726	3733
3599.41	3819
3601.094	3734
3602.778	3735
3604.461	3726
3606.143	3777
3607.825	3698
3609.507	3725
3611.188	3766
3612.87	3711
3614.551	3693
3616.229	3746
3617.909	3686
3619.589	3628
3621.269	3661
3622.948	3684
3624.625	3694
3626.302	3662
3627.98	3657
3629.657	3612
3631.334	3670
3633.01	3558
3634.686	3615
3636.361	3633
3638.036	3612
3639.712	3602
3641.385	3593
3643.06	3479
3644.732	3617
3646.405	3612
3648.08	3595
3649.751	3544
3651.424	3613
3653.094	3594
3654.766	3643
3656.436	3660
3658.106	3525
3659.777	3618
3661.446	3506
3663.115	3536
3664.783	3577
3666.452	3470
3668.121	3527
3669.788	3553
3671.454	3541
3673.121	3534
3674.789	3586
3676.455	3460
3678.12	3473
3679.784	3538
3681.45	3504
3683.114	3487
3684.779	3482
3686.442	3494
3688.105	3527
3689.768	3450
3691.43	3521
3693.093	3531
3694.754	3400
3696.415	3571
3698.076	3426
3699.736	3503
3701.396	3491
3703.057	3489
3704.716	3490
3706.375	3457
3708.034	3431
3709.692	3446
3711.351	3462
3713.008	3500
3714.665	3552
3716.321	3506
3717.977	3368
3719.634	3385
3721.29	3451
3722.945	3485
3724.598	3432
3726.253	3390
3727.907	3413
3729.561	3439
3731.214	3432
3732.867	3351
3734.518	3462
3736.171	3380
3737.824	3446
3739.474	3428
3741.125	3418
3742.775	3469
3744.425	3385
3746.074	3437
3747.725	3354
3749.373	3415
3751.022	3346
3752.669	3339
3754.318	3353
3755.966	3345
3757.612	3394
3759.259	3359
3760.905	3394
3762.55	3474
3764.197	3329
3765.842	3326
3767.486	3344
3769.131	3318
3770.774	3309
3772.417	3329
3774.061	3360
3775.705	3309
3777.347	3360
3778.988	3365
3780.629	3395
3782.271	3344
3783.912	3324
3785.552	3329
3787.192	3346
3788.831	3208
3790.472	3380
3792.112	3320
3793.75	3322
3795.388	3282
3797.024	3307
3798.661	3301
3800.3	3389
3801.936	3301
3803.572	3298
3805.208	3241
3806.844	3273
3808.48	3271
3810.115	3256
3811.748	3285
3813.382	3245
3815.016	3229
3816.649	3205
3818.283	3264
3819.914	3291
3821.547	3253
3823.178	3286
3824.809	3263
3826.441	3293
3828.072	3234
3829.701	3203
3831.331	3275
3832.96	3151
3834.591	3297
3836.219	3199
3837.847	3213
3839.475	3163
3841.102	3226
3842.729	3255
3844.357	3179
3845.984	3156
3847.609	3117
3849.234	3199
3850.86	3169
3852.485	3214
3854.11	3192
3855.734	3142
3857.357	3201
3858.981	3153
3860.603	3022
3862.227	3132
3863.848	3158
3865.471	3110
3867.092	3135
3868.713	3113
3870.334	3145
3871.954	3207
3873.575	3205
3875.194	3154
3876.813	3154
3878.433	3149
3880.051	3168
3881.669	3109
3883.286	3088
3884.904	3115
3886.52	3181
3888.138	3117
3889.754	3111
3891.37	3101
3892.985	3098
3894.6	3053
3896.216	3078
3897.831	3075
3899.444	3155
3901.058	3139
3902.67	3100
3904.283	3028
3905.897	3144
3907.509	3040
3909.121	3144
3910.731	3139
3912.342	3088
3913.954	3081
3915.563	3142
3917.174	3140
3918.783	3105
3920.391	3090
3922.002	3069
3923.611	3154
3925.218	3039
3926.826	3090
3928.432	3120
3930.039	3109
3931.647	3068
3933.253	3098
3934.859	3067
3936.464	3103
3938.068	3030
3939.675	2978
3941.278	3050
3942.883	3126
3944.486	3018
3946.089	3024
3947.692	3063
3949.295	2959
3950.898	3074
3952.499	3088
3954.1	3038
3955.7	3051
3957.303	3045
3958.903	2998
3960.502	2991
3962.101	3069
3963.7	2998
3965.301	3029
3966.899	2957
3968.497	3040
3970.094	2968
3971.691	3012
3973.288	2954
3974.885	2986
3976.481	2995
3978.077	2955
3979.672	2996
3981.267	2937
3982.863	2938
3984.457	2910
3986.051	2955
3987.645	2881
3989.238	2965
3990.831	2886
3992.425	2929
3994.017	2940
3995.607	2994
3997.199	2862
3998.79	2960
4000.382	2871
4001.973	2894
4003.561	2908
4005.151	2901
4006.741	2900
4008.331	2854
4009.918	2888
4011.507	2948
4013.095	2852
4014.681	2832
4016.269	2874
4017.856	2868
4019.443	2930
4021.028	2865
4022.614	2815
4024.199	2854
4025.785	2888
4027.37	2806
4028.953	2855
4030.536	2796
4032.12	2819
4033.704	2859
4035.287	2822
4036.869	2826
4038.45	2874
4040.032	2770
4041.613	2844
4043.195	2828
4044.776	2798
4046.356	2813
4047.935	2860
4049.515	2796
4051.095	2806
4052.674	2757
4054.251	2828
4055.829	2906
4057.406	2767
4058.985	2843
4060.562	2856
4062.139	2803
4063.715	2815
4065.29	2750
4066.865	2733
4068.442	2797
4070.016	2792
4071.59	2752
4073.164	2807
4074.738	2820
4076.312	2761
4077.885	2730
4079.458	2794
4081.03	2790
4082.602	2686
4084.173	2718
4085.745	2707
4087.315	2750
4088.886	2734
4090.456	2765
4092.026	2771
4093.596	2718
4095.165	2776
4096.734	2812
4098.301	2736
4099.869	2739
4101.437	2749
4103.006	2716
4104.572	2686
4106.139	2705
4107.704	2736
4109.27	2718
4110.837	2695
4112.401	2781
4113.966	2713
4115.53	2686
4117.094	2746
4118.659	2657
4120.223	2680
4121.785	2683
4123.347	2634
4124.909	2725
4126.471	2773
4128.034	2692
4129.595	2739
4131.155	2553
4132.716	2666
4134.275	2692
4135.836	2697
4137.395	2625
4138.955	2689
4140.513	2732
4142.071	2652
4143.628	2657
4145.188	2628
4146.745	2673
4148.302	2673
4149.858	2587
4151.414	2653
4152.971	2650
4154.526	2623
4156.081	2621
4157.635	2552
4159.189	2594
4160.745	2623
4162.298	2590
4163.852	2617
4165.405	2628
4166.957	2636
4168.51	2538
4170.063	2666
4171.614	2598
4173.166	2565
4174.717	2514
4176.267	2592
4177.817	2582
4179.368	2565
4180.917	2548
4182.466	2672
4184.016	2543
4185.564	2529
4187.112	2509
4188.66	2483
4190.207	2540
4191.754	2486
4193.301	2501
4194.848	2529
4196.394	2526
4197.94	2516
4199.484	2516
4201.03	2504
4202.575	2551
4204.12	2475
4205.663	2492
4207.207	2530
4208.75	2515
4210.292	2488
4211.836	2515
4213.378	2514
4214.92	2517
4216.46	2514
4218.002	2454
4219.544	2479
4221.083	2538
4222.625	2495
4224.164	2524
4225.703	2448
4227.244	2451
4228.782	2494
4230.32	2482
4231.857	2478
4233.395	2532
4234.933	2476
4236.471	2462
4238.007	2486
4239.542	2521
4241.078	2486
4242.614	2491
4244.15	2487
4245.685	2430
4247.219	2471
4248.753	2491
4250.287	2473
4251.82	2515
4253.354	2420
4254.887	2455
4256.419	2422
4257.951	2475
4259.483	2513
4261.016	2443
4262.547	2513
4264.078	2450
4265.608	2410
4267.137	2451
4268.668	2445
4270.197	2498
4271.727	2411
4273.254	2332
4274.783	2406
4276.311	2401
4277.84	2422
4279.366	2409
4280.894	2431
4282.42	2353
4283.946	2408
4285.473	2441
4286.998	2428
4288.523	2416
4290.047	2427
4291.572	2410
4293.096	2415
4294.622	2440
4296.144	2380
4297.668	2399
4299.19	2322
4300.713	2330
4302.236	2382
4303.758	2320
4305.279	2374
4306.799	2378
4308.321	2398
4309.842	2357
4311.361	2341
4312.882	2363
4314.401	2332
