400.0961	4453
402.6185	4543
405.1424	4446
407.6635	4515
410.1838	4590
412.7035	4499
415.2225	4557
417.7388	4654
420.2585	4662
422.7754	4753
425.2917	4628
427.8072	4670
430.3221	4849
432.8363	4801
435.3498	4776
437.8626	4779
440.3727	4807
442.8841	4815
445.3969	4797
447.907	4749
450.4142	4803
452.9229	4798
455.4289	4764
457.9362	4809
460.4449	4735
462.9488	4669
465.454	4741
467.9566	4788
470.4604	4716
472.9637	4811
475.4662	4839
477.966	4752
480.4671	4803
482.9656	4833
485.4633	4805
487.9645	4904
490.4608	4882
492.9566	4844
495.4536	4758
497.948	4795
500.4437	4968
502.9387	4962
505.431	4975
507.9226	4998
510.4136	4987
512.9079	4969
515.3975	5003
517.8864	4821
520.3746	4866
522.8622	5030
525.3491	4931
527.8394	4912
530.3249	5041
532.8098	4894
535.2939	5002
537.7774	5057
540.2623	5023
542.7444	4970
545.2259	5017
547.7067	5012
550.1868	5068
552.6683	4915
555.147	5004
557.6231	5049
560.1005	5085
562.5773	5038
565.0534	5075
567.5308	5184
570.0056	5098
572.4776	5171
574.951	5144
577.4237	5173
579.8978	5231
582.3671	5299
584.8378	5247
587.3079	5211
589.7773	5235
592.244	5221
594.714	5197
597.1793	5228
599.6461	5257
602.1121	5250
604.5754	5171
607.0421	5151
609.5042	5174
611.9675	5223
614.4282	5196
616.8902	5144
619.3515	5230
621.8122	5216
624.2702	5172
626.7296	5182
629.1863	5217
631.6423	5132
634.1017	5197
636.5563	5094
639.0104	5153
641.4658	5150
643.9185	5095
646.3725	5307
648.8239	5223
651.2766	5206
653.7266	5263
656.176	5270
658.6247	5249
661.0748	5248
663.5242	5194
665.9709	5306
668.417	5328
670.8624	5333
673.3092	5380
675.7533	5181
678.1968	5347
680.6395	5383
683.0817	5353
685.5251	5418
687.9659	5353
690.4061	5386
692.8456	5370
695.2844	5373
697.7226	5436
700.1621	5344
702.599	5439
705.0332	5477
707.4688	5309
709.9036	5414
712.3399	5480
714.7735	5557
717.2044	5378
719.6367	5380
722.0683	5474
724.4993	5573
726.9296	5531
729.3593	5522
731.7883	5483
734.2147	5525
736.6423	5560
739.0714	5587
741.4958	5574
743.9216	5636
746.3447	5643
748.7691	5713
751.1929	5700
753.616	5641
756.0366	5788
758.4584	5825
760.8776	5740
763.2982	5681
765.718	5788
768.1373	5827
770.5539	5730
772.9698	5713
775.3871	5720
777.8038	5757
780.2178	5816
782.6332	5793
785.0459	5739
787.458	5831
789.8714	5796
792.2842	5846
794.6943	5812
797.1038	5810
799.5127	5695
801.9209	5807
804.3324	5663
806.7393	5742
809.1456	5829
811.5513	5901
813.9562	5740
816.3625	5909
818.7663	5789
821.1693	5888
823.5718	5854
825.9735	5848
828.3746	5823
830.7771	5870
833.177	5815
835.5762	5829
837.9747	5787
840.3727	5883
842.772	5871
845.1666	5969
847.5626	5962
849.958	5913
852.3527	5985
854.7488	5988
857.1403	5968
859.5331	5955
861.9253	5919
864.3168	5972
866.7057	5984
869.098	5973
871.4876	5992
873.8746	6016
876.263	5948
878.6487	5933
881.0378	5841
883.4243	5961
885.8081	6006
888.1933	5980
890.5759	5971
892.9598	5994
895.343	5948
897.7256	6018
900.1057	5969
902.4871	6055
904.8659	5973
907.246	6078
909.6254	6115
912.0023	6187
914.3786	6082
916.7562	6089
919.1331	6103
921.5074	6234
923.8831	6334
926.2562	6363
928.6287	6334
931.0005	6273
933.3757	6295
935.7462	6509
938.1162	6243
940.4855	6389
942.8542	6373
945.2242	6453
947.5916	6635
949.9584	6536
952.3266	6792
954.6921	6898
957.0571	7232
959.4233	7282
961.787	7495
964.15	7302
966.5125	7255
968.8742	6966
971.2354	6773
973.5959	6650
975.9559	6520
978.3151	6457
980.6738	6341
983.0338	6170
985.3912	6282
987.7461	6350
990.1022	6230
992.4578	6257
994.8127	6220
997.1689	6186
999.5207	6172
1001.874	6339
1004.226	6282
1006.576	6165
1008.929	6186
1011.28	6134
1013.628	6115
1015.977	6217
1018.324	6192
1020.674	6201
1023.019	6186
1025.366	6228
1027.713	6214
1030.056	6188
1032.399	6265
1034.746	6341
1037.087	6421
1039.431	6246
1041.771	6288
1044.113	6260
1046.454	6365
1048.793	6323
1051.133	6251
1053.471	6302
1055.807	6400
1058.146	6330
1060.483	6406
1062.818	6415
1065.153	6347
1067.489	6473
1069.822	6403
1072.156	6338
1074.488	6456
1076.82	6443
1079.15	6433
1081.48	6408
1083.814	6453
1086.143	6298
1088.471	6304
1090.799	6374
1093.126	6261
1095.452	6429
1097.78	6260
1100.105	6366
1102.43	6502
1104.754	6371
1107.077	6379
1109.4	6311
1111.722	6430
1114.044	6303
1116.365	6422
1118.685	6239
1121.005	6358
1123.324	6322
1125.643	6389
1127.961	6406
1130.278	6513
1132.595	6469
1134.911	6330
1137.226	6414
1139.541	6464
1141.854	6371
1144.167	6341
1146.482	6338
1148.793	6364
1151.105	6437
1153.414	6445
1155.725	6438
1158.033	6479
1160.344	6323
1162.651	6440
1164.959	6479
1167.265	6395
1169.572	6520
1171.878	6469
1174.184	6422
1176.488	6474
1178.79	6400
1181.094	6405
1183.396	6377
1185.699	6495
1188.001	6484
1190.301	6397
1192.6	6327
1194.9	6386
1197.2	6365
1199.497	6409
1201.794	6432
1204.09	6414
1206.387	6485
1208.684	6375
1210.978	6388
1213.272	6400
1215.565	6391
1217.858	6473
1220.15	6460
1222.443	6379
1224.734	6512
1227.024	6560
1229.313	6667
1231.602	6522
1233.892	6598
1236.18	6588
1238.467	6760
1240.754	6571
1243.04	6662
1245.325	6651
1247.612	6778
1249.896	6715
1252.178	6743
1254.461	6633
1256.743	6662
1259.027	6684
1261.308	6725
1263.587	6802
1265.867	6616
1268.146	6699
1270.425	6716
1272.703	6731
1274.981	6756
1277.256	6678
1279.532	6670
1281.808	6587
1284.083	6627
1286.358	6794
1288.63	6688
1290.904	6618
1293.175	6761
1295.449	6538
1297.719	6553
1299.99	6556
1302.259	6635
1304.529	6563
1306.798	6677
1309.065	6539
1311.333	6591
1313.599	6627
1315.866	6634
1318.131	6530
1320.396	6587
1322.66	6645
1324.925	6487
1327.187	6584
1329.448	6625
1331.711	6702
1333.974	6713
1336.234	6711
1338.493	6615
1340.752	6573
1343.01	6719
1345.269	6600
1347.526	6606
1349.784	6582
1352.04	6606
1354.295	6570
1356.552	6568
1358.806	6633
1361.059	6682
1363.312	6517
1365.564	6644
1367.818	6640
1370.069	6704
1372.318	6668
1374.568	6696
1376.817	6689
1379.066	6680
1381.316	6597
1383.564	6725
1385.809	6749
1388.056	6732
1390.301	6779
1392.549	6805
1394.793	6870
1397.036	6796
1399.279	6829
1401.522	6912
1403.763	6831
1406.007	6962
1408.248	6834
1410.487	6845
1412.727	6826
1414.965	6910
1417.205	6869
1419.442	6957
1421.68	6786
1423.915	6912
1426.152	6836
1428.388	6833
1430.623	6884
1432.857	6788
1435.091	6794
1437.323	6943
1439.556	7005
1441.789	6924
1444.019	6978
1446.25	6939
1448.48	6930
1450.708	6882
1452.938	7055
1455.167	7090
1457.394	6998
1459.62	6955
1461.846	7025
1464.073	6957
1466.299	6912
1468.523	6881
1470.746	6870
1472.969	6826
1475.191	6815
1477.415	6722
1479.636	6773
1481.858	6687
1484.078	6775
1486.298	6634
1488.518	6620
1490.736	6736
1492.954	6654
1495.169	6653
1497.386	6646
1499.602	6593
1501.819	6602
1504.034	6613
1506.248	6719
1508.462	6608
1510.675	6676
1512.888	6710
1515.1	6625
1517.311	6712
1519.522	6540
1521.732	6652
1523.942	6658
1526.151	6699
1528.36	6612
1530.566	6640
1532.773	6614
1534.98	6779
1537.187	6665
1539.392	6674
1541.596	6676
1543.801	6667
1546.005	6600
1548.208	6637
1550.411	6707
1552.612	6760
1554.814	6800
1557.013	6833
1559.212	6625
1561.414	6805
1563.612	6890
1565.811	6761
1568.007	6825
1570.203	6865
1572.403	6711
1574.598	6739
1576.792	6859
1578.988	6765
1581.181	6838
1583.376	6813
1585.568	6666
1587.761	6884
1589.952	6856
1592.143	6808
1594.333	6903
1596.524	6768
1598.715	6775
1600.903	6778
1603.091	6925
1605.278	6817
1607.466	6952
1609.652	6783
1611.838	6924
1614.023	6933
1616.207	6988
1618.391	6862
1620.576	6859
1622.759	6801
1624.941	6978
1627.123	6886
1629.304	6861
1631.484	6965
1633.664	6819
1635.844	7048
1638.022	6940
1640.201	6915
1642.38	6893
1644.556	7070
1646.732	7002
1648.908	6934
1651.084	6955
1653.257	6893
1655.433	6965
1657.607	7072
1659.779	6960
1661.951	6929
1664.122	7046
1666.295	7021
1668.467	7041
1670.635	6954
1672.805	7005
1674.973	6953
1677.142	7141
1679.31	7005
1681.478	6899
1683.644	7032
1685.81	6933
1687.975	6928
1690.142	6992
1692.305	6946
1694.468	6835
1696.632	6932
1698.794	6954
1700.957	6827
1703.119	6803
1705.279	6990
1707.439	6983
1709.598	6797
1711.758	6742
1713.917	6861
1716.075	6887
1718.231	6716
1720.388	6821
1722.543	6874
1724.702	6869
1726.856	6840
1729.01	6798
1731.164	6842
1733.317	6917
1735.471	6726
1737.623	6834
1739.774	6854
1741.925	6868
1744.075	6849
1746.225	6888
1748.376	6864
1750.524	6856
1752.672	6872
1754.82	6781
1756.965	6824
1759.113	6911
1761.259	6990
1763.405	6857
1765.549	6909
1767.694	6911
1769.836	6949
1771.981	6909
1774.123	6866
1776.264	6769
1778.405	6962
1780.546	6871
1782.687	6906
1784.827	6933
1786.966	6854
1789.103	6890
1791.242	6937
1793.381	6971
1795.517	6884
1797.653	7031
1799.788	6804
1801.923	6823
1804.057	6873
1806.193	6898
1808.326	6994
1810.457	6919
1812.59	6889
1814.721	6879
1816.855	6894
1818.984	6909
1821.113	6829
1823.244	6741
1825.372	6808
1827.499	7048
1829.63	6928
1831.756	6944
1833.882	6800
1836.007	6876
1838.132	6802
1840.26	6918
1842.384	6879
1844.507	6884
1846.63	6778
1848.752	6959
1850.875	6795
1852.996	6817
1855.118	6897
1857.238	6772
1859.358	6994
1861.477	6997
1863.597	6863
1865.715	6852
1867.832	6893
1869.948	6898
1872.064	6867
1874.181	6833
1876.297	6858
1878.411	6863
1880.526	6859
1882.639	6843
1884.752	6881
1886.865	6854
1888.977	6863
1891.089	6872
1893.2	6892
1895.308	6930
1897.42	6827
1899.53	6837
1901.639	6943
1903.745	6925
1905.853	6853
1907.962	6907
1910.067	6892
1912.174	6925
1914.278	6998
1916.383	6933
1918.486	6905
1920.592	6998
1922.694	6948
1924.797	6976
1926.898	6975
1929	6937
1931.102	6962
1933.203	6896
1935.301	6989
1937.401	7060
1939.499	6898
1941.598	7001
1943.697	6986
1945.793	6994
1947.888	7063
1949.985	6962
1952.08	6879
1954.176	6916
1956.269	6883
1958.364	7066
1960.457	6896
1962.549	6896
1964.642	6836
1966.733	7020
1968.823	6997
1970.913	6821
1973.005	6925
1975.093	7050
1977.184	6941
1979.271	6936
1981.359	6931
1983.446	6836
1985.532	6909
1987.619	7044
1989.705	7057
1991.789	6926
1993.874	6959
1995.956	6843
1998.041	6971
2000.123	6827
2002.206	6936
2004.287	6851
2006.368	6833
2008.449	6835
2010.529	6819
2012.609	6821
2014.688	6809
2016.766	6736
2018.843	6841
2020.922	7042
2022.999	6899
2025.074	6817
2027.15	6826
2029.225	6918
2031.299	6802
2033.375	6932
2035.447	6867
2037.52	6751
2039.592	6915
2041.664	6927
2043.736	6869
2045.807	6905
2047.876	6955
2049.947	6806
2052.015	6968
2054.086	6935
2056.153	6899
2058.221	6751
2060.288	6837
2062.353	6861
2064.42	6967
2066.486	6876
2068.55	6888
2070.614	6859
2072.678	6868
2074.741	6891
2076.805	6962
2078.866	6754
2080.929	6712
2082.99	6778
2085.049	6872
2087.109	6917
2089.17	6907
2091.228	6925
2093.286	6827
2095.344	6941
2097.4	6896
2099.46	6950
2101.516	6783
2103.572	6970
2105.626	6808
2107.679	6850
2109.735	6844
2111.788	6855
2113.841	6853
2115.894	6885
2117.945	6942
2119.997	6848
2122.049	6723
2124.1	6890
2126.148	6897
2128.197	6862
2130.246	6943
2132.296	6804
2134.342	6861
2136.39	6760
2138.437	6954
2140.483	6825
2142.527	6939
2144.574	6882
2146.619	6837
2148.661	6829
2150.705	6794
2152.747	6899
2154.792	6799
2156.832	6914
2158.874	6710
2160.915	6837
2162.954	6791
2164.995	6792
2167.034	6743
2169.072	6668
2171.111	6791
2173.148	6744
2175.186	6839
2177.223	6779
2179.258	6776
2181.294	6834
2183.328	6779
2185.362	6788
2187.398	6595
2189.431	6728
2191.463	6723
2193.495	6759
2195.528	6715
2197.56	6705
2199.59	6517
2201.62	6666
2203.649	6701
2205.678	6722
2207.708	6635
2209.737	6698
2211.764	6677
2213.791	6584
2215.817	6550
2217.843	6585
2219.87	6682
2221.895	6653
2223.919	6731
2225.942	6712
2227.966	6731
2229.988	6661
2232.012	6788
2234.032	6754
2236.054	6722
2238.074	6632
2240.095	6743
2242.116	6776
2244.135	6651
2246.153	6706
2248.171	6638
2250.188	6660
2252.208	6676
2254.223	6643
2256.239	6750
2258.255	6663
2260.269	6636
2262.283	6620
2264.3	6654
2266.312	6574
2268.325	6621
2270.336	6740
2272.349	6557
2274.362	6658
2276.372	6649
2278.383	6664
2280.392	6631
2282.402	6659
2284.409	6822
2286.418	6603
2288.427	6638
2290.433	6594
2292.441	6600
2294.446	6686
2296.453	6697
2298.459	6575
2300.463	6603
2302.466	6687
2304.471	6605
2306.475	6637
2308.477	6645
2310.478	6556
2312.481	6642
2314.481	6579
2316.481	6491
2318.482	6699
2320.482	6628
2322.48	6597
2324.48	6598
2326.478	6539
2328.476	6529
2330.473	6539
2332.469	6547
2334.465	6672
2336.46	6663
2338.454	6571
2340.45	6499
2342.444	6549
2344.437	6479
2346.43	6525
2348.421	6563
2350.414	6555
2352.405	6562
2354.396	6479
2356.386	6459
2358.376	6441
2360.366	6531
2362.355	6418
2364.343	6549
2366.331	6448
2368.317	6470
2370.304	6438
2372.292	6525
2374.278	6346
2376.262	6554
2378.247	6468
2380.23	6532
2382.216	6526
2384.199	6425
2386.181	6423
2388.163	6480
2390.144	6362
2392.127	6442
2394.107	6297
2396.087	6429
2398.066	6458
2400.046	6202
2402.023	6402
2404.004	6311
2405.981	6331
2407.957	6449
2409.934	6359
2411.91	6453
2413.886	6428
2415.862	6385
2417.836	6446
2419.809	6323
2421.784	6314
2423.756	6407
2425.73	6393
2427.701	6272
2429.672	6446
2431.644	6470
2433.615	6357
2435.586	6345
2437.555	6405
2439.523	6393
2441.491	6380
2443.459	6414
2445.428	6432
2447.395	6327
2449.361	6403
2451.327	6414
2453.292	6329
2455.257	6225
2457.223	6421
2459.187	6303
2461.15	6302
2463.113	6413
2465.076	6435
2467.039	6295
2468.999	6389
2470.96	6316
2472.921	6357
2474.881	6240
2476.841	6363
2478.8	6290
2480.759	6333
2482.717	6355
2484.675	6308
2486.63	6203
2488.589	6235
2490.545	6265
2492.5	6331
2494.455	6333
2496.408	6307
2498.364	6329
2500.318	6395
2502.27	6281
2504.223	6341
2506.174	6239
2508.126	6356
2510.078	6206
2512.03	6322
2513.979	6300
2515.927	6160
2517.877	6265
2519.826	6394
2521.775	6228
2523.722	6222
2525.668	6242
2527.616	6191
2529.561	6178
2531.508	6329
2533.452	6351
2535.398	6260
2537.342	6201
2539.284	6124
2541.229	6384
2543.173	6208
2545.114	6106
2547.055	6348
2548.996	6185
2550.938	6364
2552.878	6212
2554.817	6221
2556.756	6191
2558.695	6265
2560.633	6230
2562.572	6104
2564.509	6264
2566.445	6180
2568.382	6202
2570.317	6240
2572.254	6225
2574.189	6159
2576.123	6228
2578.057	6236
2579.99	6288
2581.923	6243
2583.855	6229
2585.788	6221
2587.719	6272
2589.65	6234
2591.579	6201
2593.511	6176
2595.44	6169
2597.37	6144
2599.297	6308
2601.225	6206
2603.153	6142
2605.08	6161
2607.007	6184
2608.932	6223
2610.858	6147
2612.782	6276
2614.709	6184
2616.632	6198
2618.556	6181
2620.478	6197
2622.401	6329
2624.324	6265
2626.247	6087
2628.167	6233
2630.088	6293
2632.008	6249
2633.928	6263
2635.848	6245
2637.766	6226
2639.684	6200
2641.603	6185
2643.519	6254
2645.437	6194
2647.353	6322
2649.27	6217
2651.184	6266
2653.099	6233
2655.014	6312
2656.928	6163
2658.842	6300
2660.755	6078
2662.667	6225
2664.579	6203
2666.491	6168
2668.402	6183
2670.312	6208
2672.222	6196
2674.132	6164
2676.042	6146
2677.951	6196
2679.859	6104
2681.766	6097
2683.674	6231
2685.582	6129
2687.488	6104
2689.392	6187
2691.298	6297
2693.202	6066
2695.107	6107
2697.012	6110
2698.914	6082
2700.817	5999
2702.72	5995
2704.622	6079
2706.524	6142
2708.425	6154
2710.326	6152
2712.225	6129
2714.125	6117
2716.024	6146
2717.923	6062
2719.822	6036
2721.719	6131
2723.616	5898
2725.512	6158
2727.41	6041
2729.305	5945
2731.201	5954
2733.095	6066
2734.99	6040
2736.884	6042
2738.778	6027
2740.67	5962
2742.562	6160
2744.455	6113
2746.346	6079
2748.238	5976
2750.129	6055
2752.018	6079
2753.907	6069
2755.797	5984
2757.687	6020
2759.575	6034
2761.462	6028
2763.349	6093
2765.237	6102
2767.124	6054
2769.009	6051
2770.894	6042
2772.779	6012
2774.663	6131
2776.547	5905
2778.431	5976
2780.314	5946
2782.197	5942
2784.078	6082
2785.96	5986
2787.842	5983
2789.723	5885
2791.603	6054
2793.483	5985
2795.362	5970
2797.241	6000
2799.121	5999
2800.997	5921
2802.874	5971
2804.751	6017
2806.628	6039
2808.506	5806
2810.38	5940
2812.255	5885
2814.13	5982
2816.003	6034
2817.878	5904
2819.752	5904
2821.623	6085
2823.496	5864
2825.368	5915
2827.238	5912
2829.111	6058
2830.98	5906
2832.851	5918
2834.719	5899
2836.589	5941
2838.458	5958
2840.327	6005
2842.193	5958
2844.061	5917
2845.927	6033
2847.794	5849
2849.66	5937
2851.525	6070
2853.39	6068
2855.254	6023
2857.117	6063
2858.983	6016
2860.845	5992
2862.707	6104
2864.569	6125
2866.431	6048
2868.293	6010
2870.154	6166
2872.013	6209
2873.873	6174
2875.733	6205
2877.592	6289
2879.451	6265
2881.309	6412
2883.166	6366
2885.022	6438
2886.879	6445
2888.736	6407
2890.591	6419
2892.446	6348
2894.301	6484
2896.155	6416
2898.009	6530
2899.863	6495
2901.716	6459
2903.568	6356
2905.419	6381
2907.27	6437
2909.123	6350
2910.973	6429
2912.824	6581
2914.673	6480
2916.521	6423
2918.372	6514
2920.22	6687
2922.067	6638
2923.914	6700
2925.761	6728
2927.607	6732
2929.455	6751
2931.301	6855
2933.144	6968
2934.99	6977
2936.833	6983
2938.678	6952
2940.522	7042
2942.364	7103
2944.207	7177
2946.048	7156
2947.891	7220
2949.731	7226
2951.571	7240
2953.412	7261
2955.25	7111
2957.09	7041
2958.93	7101
2960.767	7038
2962.606	7027
2964.443	7016
2966.279	7008
2968.116	6697
2969.953	6737
2971.788	6650
2973.623	6644
2975.457	6701
2977.292	6505
2979.127	6475
2980.959	6514
2982.792	6325
2984.624	6399
2986.455	6419
2988.288	6368
2990.119	6292
2991.949	6357
2993.779	6230
2995.608	6190
2997.439	6236
2999.268	6161
3001.096	6109
3002.923	6012
3004.751	6090
3006.578	6041
3008.406	5908
3010.232	5975
3012.057	5881
3013.883	5804
3015.706	5882
3017.532	5754
3019.356	5744
3021.179	5759
3023.002	5779
3024.823	5824
3026.646	5762
3028.469	5684
3030.289	5688
3032.11	5706
3033.93	5653
3035.749	5689
3037.57	5678
3039.39	5694
3041.207	5617
3043.026	5633
3044.842	5698
3046.661	5576
3048.477	5686
3050.294	5626
3052.109	5668
3053.925	5614
3055.739	5569
3057.555	5554
3059.368	5511
3061.181	5607
3062.995	5570
3064.807	5661
3066.62	5545
3068.433	5656
3070.243	5629
3072.054	5548
3073.865	5456
3075.675	5541
3077.485	5540
3079.293	5472
3081.102	5474
3082.911	5504
3084.719	5399
3086.527	5580
3088.333	5430
3090.139	5399
3091.945	5327
3093.75	5430
3095.557	5452
3097.361	5465
3099.165	5494
3100.969	5384
3102.772	5399
3104.575	5339
3106.379	5464
3108.181	5487
3109.982	5403
3111.783	5401
3113.584	5365
3115.386	5353
3117.186	5382
3118.985	5302
3120.783	5349
3122.582	5378
3124.381	5367
3126.179	5274
3127.975	5350
3129.772	5296
3131.569	5281
3133.365	5376
3135.161	5263
3136.956	5251
3138.751	5315
3140.544	5291
3142.338	5290
3144.132	5366
3145.925	5307
3147.717	5272
3149.509	5433
3151.301	5314
3153.091	5277
3154.884	5230
3156.673	5319
3158.462	5175
3160.252	5172
3162.041	5418
3163.831	5229
3165.618	5292
3167.405	5291
3169.193	5343
3170.979	5227
3172.767	5300
3174.553	5258
3176.338	5305
3178.123	5216
3179.907	5227
3181.692	5363
3183.477	5277
3185.259	5239
3187.042	5349
3188.824	5254
3190.607	5236
3192.389	5197
3194.17	5171
3195.951	5143
3197.73	5140
3199.51	5241
3201.289	5198
3203.07	5205
3204.848	5123
3206.626	5150
3208.403	5182
3210.18	5076
3211.959	5228
3213.735	5180
3215.511	5298
3217.285	5178
3219.06	5175
3220.836	5109
3222.611	5177
3224.384	5129
3226.158	5187
3227.929	5139
3229.702	5193
3231.476	5136
3233.248	5145
3235.018	5218
3236.789	5200
3238.56	5137
3240.33	5167
3242.1	5210
3243.869	5149
3245.637	5015
3247.405	5202
3249.172	5095
3250.941	5211
3252.707	5156
3254.474	5229
3256.24	5092
3258.006	5214
3259.772	5178
3261.537	5122
3263.301	5161
3265.065	5120
3266.828	5206
3268.592	5099
3270.355	5166
3272.117	5139
3273.878	5202
3275.64	5198
3277.401	5112
3279.162	5150
3280.922	5127
3282.682	5076
3284.441	5113
3286.199	5215
3287.959	5120
3289.716	5033
3291.475	5143
3293.232	5100
3294.988	5181
3296.744	5102
3298.501	5149
3300.256	5058
3302.011	5163
3303.766	5106
3305.52	5120
3307.275	5038
3309.028	5109
3310.781	5144
3312.533	5083
3314.285	5087
3316.038	5064
3317.789	5126
3319.54	5039
3321.289	5080
3323.039	5080
3324.789	5016
3326.539	5206
3328.288	5089
3330.035	5008
3331.783	5078
3333.531	5036
3335.28	5005
3337.025	4991
3338.771	5089
3340.518	5090
3342.262	4997
3344.009	5038
3345.753	4976
3347.497	5122
3349.24	5091
3350.983	5085
3352.726	4957
3354.469	5003
3356.212	5038
3357.952	5001
3359.694	5020
3361.434	5016
3363.176	5028
3364.916	4911
3366.654	4953
3368.394	4968
3370.132	4913
3371.871	4949
3373.61	5083
3375.346	4899
3377.083	4960
3378.82	4957
3380.556	4976
3382.292	4938
3384.027	4926
3385.763	4901
3387.497	4899
3389.231	4936
3390.965	4924
3392.698	4898
3394.431	4870
3396.164	4851
3397.896	4907
3399.627	4883
3401.36	4825
3403.09	4815
3404.82	4922
3406.55	4912
3408.279	4843
3410.01	4913
3411.738	4915
3413.467	4832
3415.194	4840
3416.92	4908
3418.647	4927
3420.375	4834
3422.102	4850
3423.827	4795
3425.553	4803
3427.277	4870
3429.003	4884
3430.727	4843
3432.451	4806
3434.173	4799
3435.896	4802
3437.62	4778
3439.343	4757
3441.063	4857
3442.785	4856
3444.505	4669
3446.226	4712
3447.948	4844
3449.666	4671
3451.386	4784
3453.104	4769
3454.823	4785
3456.541	4684
3458.259	4671
3459.976	4697
3461.693	4750
3463.408	4721
3465.125	4690
3466.841	4585
3468.556	4610
3470.271	4546
3471.985	4731
3473.698	4696
3475.414	4642
3477.126	4605
3478.838	4601
3480.55	4617
3482.263	4603
3483.975	4656
3485.686	4570
3487.396	4586
3489.106	4692
3490.817	4632
3492.526	4638
3494.236	4634
3495.944	4585
3497.652	4586
3499.359	4596
3501.066	4533
3502.775	4501
3504.481	4540
3506.187	4573
3507.893	4500
3509.598	4449
3511.304	4510
3513.009	4440
3514.713	4534
3516.417	4570
3518.12	4539
3519.821	4402
3521.525	4451
3523.228	4444
3524.929	4537
3526.631	4490
3528.33	4424
3530.032	4413
3531.733	4500
3533.433	4479
3535.131	4371
3536.83	4476
3538.529	4378
3540.227	4417
3541.925	4366
3543.623	4462
3545.319	4459
3547.016	4392
3548.712	4434
3550.408	4382
3552.103	4450
3553.798	4466
3555.491	4489
3557.188	4353
3558.88	4429
3560.574	4369
3562.266	4250
3563.959	4363
3565.651	4335
3567.343	4377
3569.035	4309
3570.725	4359
3572.415	4400
3574.106	4226
3575.797	4339
3577.485	4391
3579.174	4317
3580.863	4304
3582.551	4342
3584.238	4276
3585.926	4349
3587.613	4218
3589.3	4302
3590.986	4384
3592.671	4329
3594.357	4332
3596.042	4295
3597.726	4213
3599.41	4261
3601.094	4194
3602.778	4259
3604.461	4209
3606.143	4254
3607.825	4268
3609.507	4134
3611.188	4166
3612.87	4157
3614.551	4263
3616.229	4169
3617.909	4172
3619.589	4066
3621.269	4206
3622.948	4152
3624.625	4123
3626.302	4217
3627.98	4118
3629.657	4120
3631.334	4095
3633.01	4159
3634.686	4139
3636.361	4049
3638.036	4105
3639.712	4036
3641.385	4139
3643.06	4133
3644.732	4058
3646.405	4029
3648.08	4067
3649.751	4088
3651.424	4082
3653.094	4029
3654.766	4055
3656.436	4084
3658.106	4001
3659.777	4076
3661.446	3987
3663.115	4024
3664.783	4016
3666.452	3984
3668.121	3991
3669.788	3952
3671.454	4032
3673.121	4043
3674.789	4064
3676.455	4054
3678.12	4064
3679.784	4038
3681.45	4004
3683.114	3982
3684.779	3990
3686.442	4052
3688.105	3978
3689.768	4008
3691.43	3956
3693.093	3930
3694.754	3968
3696.415	3992
3698.076	3988
3699.736	3955
3701.396	3964
3703.057	3891
3704.716	3865
3706.375	3975
3708.034	3937
3709.692	3943
3711.351	3921
3713.008	3864
3714.665	3926
3716.321	3860
3717.977	3848
3719.634	3970
3721.29	3900
3722.945	3899
3724.598	4003
3726.253	3856
3727.907	3818
3729.561	3928
3731.214	3930
3732.867	3898
3734.518	3804
3736.171	3871
3737.824	3807
3739.474	3881
3741.125	3866
3742.775	3792
3744.425	3878
3746.074	3887
3747.725	3849
3749.373	3811
3751.022	3799
3752.669	3827
3754.318	3882
3755.966	3829
3757.612	3823
3759.259	3737
3760.905	3866
3762.55	3833
3764.197	3816
3765.842	3797
3767.486	3869
3769.131	3946
3770.774	3733
3772.417	3768
3774.061	3818
3775.705	3718
3777.347	3842
3778.988	3750
3780.629	3792
3782.271	3887
3783.912	3722
3785.552	3787
3787.192	3806
3788.831	3791
3790.472	3720
3792.112	3737
3793.75	3733
3795.388	3758
3797.024	3721
3798.661	3702
3800.3	3771
3801.936	3712
3803.572	3666
3805.208	3680
3806.844	3768
3808.48	3752
3810.115	3685
3811.748	3677
3813.382	3728
3815.016	3717
3816.649	3796
3818.283	3637
3819.914	3697
3821.547	3670
3823.178	3721
3824.809	3650
3826.441	3614
3828.072	3679
3829.701	3630
3831.331	3671
3832.96	3683
3834.591	3622
3836.219	3644
3837.847	3684
3839.475	3562
3841.102	3586
3842.729	3632
3844.357	3590
3845.984	3614
3847.609	3622
3849.234	3579
3850.86	3598
3852.485	3606
3854.11	3565
3855.734	3565
3857.357	3600
3858.981	3519
3860.603	3569
3862.227	3660
3863.848	3513
3865.471	3577
3867.092	3565
3868.713	3514
3870.334	3545
3871.954	3511
3873.575	3551
3875.194	3550
3876.813	3438
3878.433	3560
3880.051	3483
3881.669	3515
3883.286	3530
3884.904	3498
3886.52	3516
3888.138	3539
3889.754	3538
3891.37	3556
3892.985	3517
3894.6	3588
3896.216	3529
3897.831	3502
3899.444	3566
3901.058	3503
3902.67	3549
3904.283	3517
3905.897	3491
3907.509	3528
3909.121	3440
3910.731	3567
3912.342	3475
3913.954	3550
3915.563	3619
3917.174	3503
3918.783	3430
3920.391	3464
3922.002	3454
3923.611	3529
3925.218	3455
3926.826	3516
3928.432	3519
3930.039	3441
3931.647	3523
3933.253	3430
3934.859	3462
3936.464	3422
3938.068	3474
3939.675	3465
3941.278	3409
3942.883	3511
3944.486	3452
3946.089	3438
3947.692	3404
3949.295	3461
3950.898	3378
3952.499	3502
3954.1	3363
3955.7	3489
3957.303	3451
3958.903	3509
3960.502	3374
3962.101	3315
3963.7	3364
3965.301	3452
3966.899	3504
3968.497	3385
3970.094	3333
3971.691	3388
3973.288	3356
3974.885	3407
3976.481	3384
3978.077	3362
3979.672	3374
3981.267	3362
3982.863	3330
3984.457	3334
3986.051	3338
3987.645	3388
3989.238	3277
3990.831	3377
3992.425	3345
3994.017	3401
3995.607	3311
3997.199	3287
3998.79	3363
4000.382	3293
4001.973	3318
4003.561	3293
4005.151	3286
4006.741	3335
4008.331	3303
4009.918	3285
4011.507	3221
4013.095	3302
4014.681	3207
4016.269	3255
4017.856	3338
4019.443	3246
4021.028	3222
4022.614	3260
4024.199	3188
4025.785	3212
4027.37	3206
4028.953	3171
4030.536	3231
4032.12	3183
4033.704	3189
4035.287	3225
4036.869	3228
4038.45	3169
4040.032	3217
4041.613	3129
4043.195	3237
4044.776	3144
4046.356	3154
4047.935	3138
4049.515	3145
4051.095	3236
4052.674	3143
4054.251	3090
4055.829	3193
4057.406	3192
4058.985	3140
4060.562	3183
4062.139	3147
4063.715	3186
4065.29	3087
4066.865	3096
4068.442	3099
4070.016	3097
4071.59	3113
4073.164	3135
4074.738	3172
4076.312	3051
4077.885	3108
4079.458	3058
4081.03	3087
4082.602	3163
4084.173	3159
4085.745	3163
4087.315	3102
4088.886	3126
4090.456	3148
4092.026	3064
4093.596	3067
4095.165	3167
4096.734	3111
4098.301	3061
4099.869	3072
4101.437	3003
4103.006	3105
4104.572	3002
4106.139	3052
4107.704	3018
4109.27	3104
4110.837	3029
4112.401	3060
4113.966	3115
4115.53	3121
4117.094	3126
4118.659	3063
4120.223	3040
4121.785	2927
4123.347	3019
4124.909	3039
4126.471	3045
4128.034	3069
4129.595	3083
4131.155	3097
4132.716	3027
4134.275	2962
4135.836	2976
4137.395	3063
4138.955	3011
4140.513	2949
4142.071	2952
4143.628	3001
4145.188	2986
4146.745	3038
4148.302	2934
4149.858	3019
4151.414	2995
4152.971	2966
4154.526	2898
4156.081	2950
4157.635	3016
4159.189	2929
4160.745	3035
4162.298	2993
4163.852	2962
4165.405	2949
4166.957	2962
4168.51	2958
4170.063	2947
4171.614	2977
4173.166	2942
4174.717	3004
4176.267	2812
4177.817	2975
4179.368	2850
4180.917	2872
4182.466	2872
4184.016	2883
4185.564	2897
4187.112	2903
4188.66	2949
4190.207	2884
4191.754	2811
4193.301	2873
4194.848	2849
4196.394	2834
4197.94	2911
4199.484	2844
4201.03	2895
4202.575	2859
4204.12	2798
4205.663	2856
4207.207	2876
4208.75	2796
4210.292	2834
4211.836	2915
4213.378	2888
4214.92	2826
4216.46	2820
4218.002	2827
4219.544	2811
4221.083	2849
4222.625	2797
4224.164	2725
4225.703	2815
4227.244	2804
4228.782	2758
4230.32	2836
4231.857	2776
4233.395	2793
4234.933	2809
4236.471	2869
4238.007	2825
4239.542	2743
4241.078	2798
4242.614	2779
4244.15	2817
4245.685	2831
4247.219	2832
4248.753	2747
4250.287	2799
4251.82	2802
4253.354	2841
4254.887	2788
4256.419	2814
4257.951	2733
4259.483	2786
4261.016	2779
4262.547	2765
4264.078	2832
4265.608	2711
4267.137	2779
4268.668	2713
4270.197	2756
4271.727	2809
4273.254	2646
4274.783	2789
4276.311	2714
4277.84	2729
4279.366	2681
4280.894	2665
4282.42	2743
4283.946	2733
4285.473	2741
4286.998	2681
4288.523	2721
4290.047	2730
4291.572	2720
4293.096	2643
4294.622	2732
4296.144	2713
4297.668	2672
4299.19	2656
4300.713	2646
4302.236	2687
4303.758	2739
4305.279	2687
4306.799	2657
4308.321	2628
4309.842	2642
4311.361	2694
4312.882	2661
4314.401	2718
