400.0961	4510
402.6185	4589
405.1424	4544
407.6635	4490
410.1838	4533
412.7035	4562
415.2225	4651
417.7388	4576
420.2585	4582
422.7754	4688
425.2917	4738
427.8072	4752
430.3221	4827
432.8363	4801
435.3498	4795
437.8626	4771
440.3727	4786
442.8841	4835
445.3969	4792
447.907	4714
450.4142	4835
452.9229	4828
455.4289	4773
457.9362	4890
460.4449	4723
462.9488	4861
465.454	4830
467.9566	4808
470.4604	4908
472.9637	4855
475.4662	4778
477.966	4845
480.4671	4859
482.9656	4836
485.4633	4801
487.9645	4863
490.4608	4798
492.9566	4965
495.4536	5008
497.948	4939
500.4437	4898
502.9387	4940
505.431	5033
507.9226	4981
510.4136	5125
512.9079	5007
515.3975	5018
517.8864	5034
520.3746	5062
522.8622	5133
525.3491	5005
527.8394	5025
530.3249	4875
532.8098	5001
535.2939	4999
537.7774	5092
540.2623	5045
542.7444	5137
545.2259	5080
547.7067	5089
550.1868	5039
552.6683	5011
555.147	5148
557.6231	5159
560.1005	5114
562.5773	5144
565.0534	5131
567.5308	5184
570.0056	5280
572.4776	5148
574.951	5119
577.4237	5311
579.8978	5262
582.3671	5370
584.8378	5269
587.3079	5278
589.7773	5276
592.244	5335
594.714	5260
597.1793	5330
599.6461	5225
602.1121	5228
604.5754	5314
607.0421	5219
609.5042	5283
611.9675	5189
614.4282	5319
616.8902	5261
619.3515	5239
621.8122	5274
624.2702	5232
626.7296	5257
629.1863	5235
631.6423	5262
634.1017	5219
636.5563	5216
639.0104	5249
641.4658	5298
643.9185	5273
646.3725	5280
648.8239	5246
651.2766	5284
653.7266	5365
656.176	5330
658.6247	5323
661.0748	5413
663.5242	5438
665.9709	5322
668.417	5360
670.8624	5496
673.3092	5412
675.7533	5399
678.1968	5399
680.6395	5396
683.0817	5451
685.5251	5417
687.9659	5439
690.4061	5484
692.8456	5391
695.2844	5542
697.7226	5602
700.1621	5504
702.599	5444
705.0332	5389
707.4688	5535
709.9036	5408
712.3399	5562
714.7735	5661
717.2044	5560
719.6367	5630
722.0683	5494
724.4993	5559
726.9296	5595
729.3593	5486
731.7883	5598
734.2147	5615
736.6423	5614
739.0714	5731
741.4958	5692
743.9216	5665
746.3447	5639
748.7691	5747
751.1929	5857
753.616	5681
756.0366	5678
758.4584	5792
760.8776	5834
763.2982	5816
765.718	5845
768.1373	5775
770.5539	5810
772.9698	5805
775.3871	5716
777.8038	5845
780.2178	5844
782.6332	5690
785.0459	5846
787.458	5800
789.8714	5897
792.2842	6018
794.6943	5765
797.1038	5781
799.5127	5800
801.9209	5908
804.3324	5827
806.7393	5971
809.1456	5809
811.5513	5998
813.9562	5916
816.3625	5909
818.7663	5960
821.1693	5850
823.5718	5855
825.9735	6066
828.3746	5934
830.7771	5928
833.177	5944
835.5762	5989
837.9747	5908
840.3727	5934
842.772	6054
845.1666	6080
847.5626	6010
849.958	6126
852.3527	6105
854.7488	6083
857.1403	5996
859.5331	6096
861.9253	6015
864.3168	6069
866.7057	5969
869.098	6122
871.4876	6004
873.8746	5935
876.263	6044
878.6487	6038
881.0378	6070
883.4243	6135
885.8081	6039
888.1933	6029
890.5759	5978
892.9598	6089
895.343	5850
897.7256	6060
900.1057	6046
902.4871	6078
904.8659	6107
907.246	6011
909.6254	6085
912.0023	6043
914.3786	6127
916.7562	6368
919.1331	6242
921.5074	6418
923.8831	6388
926.2562	6274
928.6287	6319
931.0005	6456
933.3757	6449
935.7462	6451
938.1162	6507
940.4855	6499
942.8542	6579
945.2242	6473
947.5916	6629
949.9584	6706
952.3266	6916
954.6921	7006
957.0571	7226
959.4233	7387
961.787	7467
964.15	7513
966.5125	7380
968.8742	7089
971.2354	6885
973.5959	6692
975.9559	6591
978.3151	6436
980.6738	6454
983.0338	6398
985.3912	6303
987.7461	6243
990.1022	6246
992.4578	6189
994.8127	6412
997.1689	6189
999.5207	6369
1001.874	6328
1004.226	6326
1006.576	6376
1008.929	6199
1011.28	6291
1013.628	6291
1015.977	6336
1018.324	6322
1020.674	6208
1023.019	6394
1025.366	6397
1027.713	6388
1030.056	6404
1032.399	6336
1034.746	6392
1037.087	6372
1039.431	6422
1041.771	6360
1044.113	6357
1046.454	6440
1048.793	6553
1051.133	6418
1053.471	6417
1055.807	6481
1058.146	6483
1060.483	6442
1062.818	6390
1065.153	6530
1067.489	6520
1069.822	6496
1072.156	6532
1074.488	6515
1076.82	6554
1079.15	6570
1081.48	6643
1083.814	6384
1086.143	6473
1088.471	6511
1090.799	6465
1093.126	6310
1095.452	6585
1097.78	6398
1100.105	6405
1102.43	6400
1104.754	6506
1107.077	6375
1109.4	6467
1111.722	6482
1114.044	6525
1116.365	6486
1118.685	6474
1121.005	6454
1123.324	6609
1125.643	6512
1127.961	6478
1130.278	6548
1132.595	6474
1134.911	6579
1137.226	6436
1139.541	6524
1141.854	6474
1144.167	6474
1146.482	6609
1148.793	6517
1151.105	6499
1153.414	6471
1155.725	6504
1158.033	6382
1160.344	6538
1162.651	6478
1164.959	6471
1167.265	6539
1169.572	6551
1171.878	6549
1174.184	6577
1176.488	6538
1178.79	6536
1181.094	6460
1183.396	6426
1185.699	6458
1188.001	6633
1190.301	6526
1192.6	6602
1194.9	6646
1197.2	6564
1199.497	6477
1201.794	6600
1204.09	6522
1206.387	6653
1208.684	6557
1210.978	6517
1213.272	6536
1215.565	6423
1217.858	6585
1220.15	6581
1222.443	6505
1224.734	6588
1227.024	6744
1229.313	6643
1231.602	6609
1233.892	6696
1236.18	6681
1238.467	6699
1240.754	6775
1243.04	6842
1245.325	6852
1247.612	6741
1249.896	6743
1252.178	6797
1254.461	6645
1256.743	6787
1259.027	6893
1261.308	6729
1263.587	6784
1265.867	6854
1268.146	6809
1270.425	6748
1272.703	6663
1274.981	6869
1277.256	6714
1279.532	6818
1281.808	6695
1284.083	6837
1286.358	6745
1288.63	6757
1290.904	6704
1293.175	6722
1295.449	6742
1297.719	6772
1299.99	6754
1302.259	6629
1304.529	6672
1306.798	6637
1309.065	6580
1311.333	6662
1313.599	6650
1315.866	6745
1318.131	6764
1320.396	6633
1322.66	6646
1324.925	6738
1327.187	6765
1329.448	6787
1331.711	6741
1333.974	6791
1336.234	6615
1338.493	6695
1340.752	6711
1343.01	6708
1345.269	6523
1347.526	6704
1349.784	6627
1352.04	6820
1354.295	6653
1356.552	6718
1358.806	6661
1361.059	6723
1363.312	6677
1365.564	6799
1367.818	6744
1370.069	6836
1372.318	6763
1374.568	6706
1376.817	6658
1379.066	6728
1381.316	6647
1383.564	6782
1385.809	6819
1388.056	6786
1390.301	6906
1392.549	6897
1394.793	6921
1397.036	6828
1399.279	6896
1401.522	6941
1403.763	6975
1406.007	6845
1408.248	6997
1410.487	6894
1412.727	6987
1414.965	7000
1417.205	6863
1419.442	6941
1421.68	6901
1423.915	6980
1426.152	6909
1428.388	6867
1430.623	7029
1432.857	6967
1435.091	7051
1437.323	7012
1439.556	7036
1441.789	7051
1444.019	7057
1446.25	7041
1448.48	7031
1450.708	7083
1452.938	7141
1455.167	7062
1457.394	6976
1459.62	7081
1461.846	7039
1464.073	6994
1466.299	7149
1468.523	7037
1470.746	6958
1472.969	6876
1475.191	6898
1477.415	6841
1479.636	6901
1481.858	6800
1484.078	6829
1486.298	6773
1488.518	6839
1490.736	6836
1492.954	6766
1495.169	6773
1497.386	6791
1499.602	6762
1501.819	6691
1504.034	6643
1506.248	6861
1508.462	6761
1510.675	6698
1512.888	6784
1515.1	6772
1517.311	6636
1519.522	6872
1521.732	6641
1523.942	6812
1526.151	6739
1528.36	6613
1530.566	6720
1532.773	6715
1534.98	6780
1537.187	6929
1539.392	6781
1541.596	6738
1543.801	6757
1546.005	6821
1548.208	6714
1550.411	6757
1552.612	6766
1554.814	6771
1557.013	6917
1559.212	6849
1561.414	6857
1563.612	6841
1565.811	6774
1568.007	6940
1570.203	6957
1572.403	7042
1574.598	6854
1576.792	6814
1578.988	6949
1581.181	7037
1583.376	6919
1585.568	6881
1587.761	6928
1589.952	6959
1592.143	7023
1594.333	6995
1596.524	6931
1598.715	6907
1600.903	6989
1603.091	7029
1605.278	7024
1607.466	6920
1609.652	6966
1611.838	7040
1614.023	6960
1616.207	6888
1618.391	7070
1620.576	6981
1622.759	6967
1624.941	7072
1627.123	6952
1629.304	6979
1631.484	7006
1633.664	7023
1635.844	7032
1638.022	7091
1640.201	6949
1642.38	7052
1644.556	7002
1646.732	7029
1648.908	7022
1651.084	6962
1653.257	7027
1655.433	7086
1657.607	7027
1659.779	7191
1661.951	7157
1664.122	7190
1666.295	7174
1668.467	7027
1670.635	7153
1672.805	7100
1674.973	7085
1677.142	7174
1679.31	6885
1681.478	6995
1683.644	7089
1685.81	6999
1687.975	6991
1690.142	7208
1692.305	7038
1694.468	7103
1696.632	7176
1698.794	7005
1700.957	6939
1703.119	7049
1705.279	6991
1707.439	7009
1709.598	7116
1711.758	7050
1713.917	7011
1716.075	6988
1718.231	7000
1720.388	7089
1722.543	6927
1724.702	6882
1726.856	6992
1729.01	6853
1731.164	6977
1733.317	6872
1735.471	6844
1737.623	7066
1739.774	6944
1741.925	6841
1744.075	7021
1746.225	6875
1748.376	6976
1750.524	6873
1752.672	7106
1754.82	6918
1756.965	7003
1759.113	7055
1761.259	7046
1763.405	7077
1765.549	7020
1767.694	6946
1769.836	6888
1771.981	7030
1774.123	7007
1776.264	7068
1778.405	6965
1780.546	7021
1782.687	7055
1784.827	6940
1786.966	6965
1789.103	7019
1791.242	7076
1793.381	6999
1795.517	7137
1797.653	7101
1799.788	7088
1801.923	7038
1804.057	7043
1806.193	7019
1808.326	7050
1810.457	7045
1812.59	6945
1814.721	7172
1816.855	7129
1818.984	6988
1821.113	6930
1823.244	7099
1825.372	7046
1827.499	7004
1829.63	6956
1831.756	7009
1833.882	6962
1836.007	6974
1838.132	7082
1840.26	7002
1842.384	6989
1844.507	7025
1846.63	7030
1848.752	6866
1850.875	6948
1852.996	6940
1855.118	6971
1857.238	7004
1859.358	6929
1861.477	6980
1863.597	6924
1865.715	6895
1867.832	6997
1869.948	7029
1872.064	6943
1874.181	6944
1876.297	6998
1878.411	7053
1880.526	6979
1882.639	6994
1884.752	7107
1886.865	6934
1888.977	6965
1891.089	6944
1893.2	6920
1895.308	7001
1897.42	7019
1899.53	7086
1901.639	6987
1903.745	6952
1905.853	7101
1907.962	6972
1910.067	7108
1912.174	7049
1914.278	7145
1916.383	6979
1918.486	6959
1920.592	7012
1922.694	6977
1924.797	7011
1926.898	7099
1929	7071
1931.102	7201
1933.203	7099
1935.301	7186
1937.401	7119
1939.499	7217
1941.598	7129
1943.697	7117
1945.793	7032
1947.888	7068
1949.985	7036
1952.08	7056
1954.176	7117
1956.269	7069
1958.364	7021
1960.457	7101
1962.549	7055
1964.642	6936
1966.733	6987
1968.823	6976
1970.913	6946
1973.005	7085
1975.093	7102
1977.184	7077
1979.271	7084
1981.359	7097
1983.446	7012
1985.532	7122
1987.619	7002
1989.705	6997
1991.789	7078
1993.874	7055
1995.956	6922
1998.041	7061
2000.123	7016
2002.206	6945
2004.287	7035
2006.368	6928
2008.449	6984
2010.529	6906
2012.609	7083
2014.688	7043
2016.766	6893
2018.843	7000
2020.922	6886
2022.999	6956
2025.074	7049
2027.15	6960
2029.225	7059
2031.299	7027
2033.375	6935
2035.447	7065
2037.52	6980
2039.592	7027
2041.664	6960
2043.736	6978
2045.807	6894
2047.876	7099
2049.947	6950
2052.015	6971
2054.086	7051
2056.153	7035
2058.221	6939
2060.288	7054
2062.353	6963
2064.42	6902
2066.486	6885
2068.55	6999
2070.614	7039
2072.678	7058
2074.741	7081
2076.805	6961
2078.866	6999
2080.929	7031
2082.99	7093
2085.049	7023
2087.109	7087
2089.17	7040
2091.228	7013
2093.286	7033
2095.344	7010
2097.4	6955
2099.46	6877
2101.516	6949
2103.572	7119
2105.626	6914
2107.679	7052
2109.735	6936
2111.788	6947
2113.841	6890
2115.894	6995
2117.945	7030
2119.997	6879
2122.049	6780
2124.1	6884
2126.148	6974
2128.197	6910
2130.246	6960
2132.296	6935
2134.342	7097
2136.39	6954
2138.437	6854
2140.483	7010
2142.527	6965
2144.574	6961
2146.619	6960
2148.661	6971
2150.705	6891
2152.747	6963
2154.792	6903
2156.832	7003
2158.874	6937
2160.915	6964
2162.954	6889
2164.995	6942
2167.034	6874
2169.072	7004
2171.111	6903
2173.148	6855
2175.186	6920
2177.223	6922
2179.258	6804
2181.294	6873
2183.328	6909
2185.362	6810
2187.398	6762
2189.431	6804
2191.463	6930
2193.495	6884
2195.528	6768
2197.56	6816
2199.59	6755
2201.62	6844
2203.649	6759
2205.678	6870
2207.708	6940
2209.737	6857
2211.764	6846
2213.791	6747
2215.817	6799
2217.843	6694
2219.87	6813
2221.895	6810
2223.919	6734
2225.942	6753
2227.966	6828
2229.988	6872
2232.012	6734
2234.032	6786
2236.054	6793
2238.074	6694
2240.095	6737
2242.116	6748
2244.135	6814
2246.153	6713
2248.171	6713
2250.188	6721
2252.208	6682
2254.223	6792
2256.239	6812
2258.255	6730
2260.269	6768
2262.283	6933
2264.3	6673
2266.312	6687
2268.325	6847
2270.336	6812
2272.349	6924
2274.362	6748
2276.372	6831
2278.383	6633
2280.392	6800
2282.402	6822
2284.409	6906
2286.418	6783
2288.427	6674
2290.433	6657
2292.441	6652
2294.446	6735
2296.453	6725
2298.459	6853
2300.463	6719
2302.466	6677
2304.471	6599
2306.475	6713
2308.477	6759
2310.478	6682
2312.481	6705
2314.481	6791
2316.481	6673
2318.482	6660
2320.482	6735
2322.48	6637
2324.48	6652
2326.478	6734
2328.476	6724
2330.473	6789
2332.469	6733
2334.465	6777
2336.46	6694
2338.454	6560
2340.45	6662
2342.444	6626
2344.437	6555
2346.43	6673
2348.421	6628
2350.414	6554
2352.405	6657
2354.396	6664
2356.386	6572
2358.376	6701
2360.366	6611
2362.355	6694
2364.343	6540
2366.331	6620
2368.317	6587
2370.304	6525
2372.292	6620
2374.278	6565
2376.262	6604
2378.247	6526
2380.23	6505
2382.216	6502
2384.199	6616
2386.181	6493
2388.163	6629
2390.144	6493
2392.127	6577
2394.107	6653
2396.087	6490
2398.066	6504
2400.046	6592
2402.023	6511
2404.004	6427
2405.981	6430
2407.957	6496
2409.934	6524
2411.91	6459
2413.886	6575
2415.862	6483
2417.836	6556
2419.809	6565
2421.784	6592
2423.756	6486
2425.73	6526
2427.701	6490
2429.672	6522
2431.644	6621
2433.615	6578
2435.586	6458
2437.555	6420
2439.523	6461
2441.491	6447
2443.459	6395
2445.428	6492
2447.395	6411
2449.361	6538
2451.327	6473
2453.292	6515
2455.257	6519
2457.223	6528
2459.187	6430
2461.15	6324
2463.113	6479
2465.076	6407
2467.039	6435
2468.999	6521
2470.96	6369
2472.921	6500
2474.881	6443
2476.841	6436
2478.8	6343
2480.759	6463
2482.717	6345
2484.675	6525
2486.63	6495
2488.589	6360
2490.545	6423
2492.5	6358
2494.455	6320
2496.408	6402
2498.364	6303
2500.318	6365
2502.27	6384
2504.223	6346
2506.174	6365
2508.126	6332
2510.078	6367
2512.03	6327
2513.979	6343
2515.927	6457
2517.877	6321
2519.826	6356
2521.775	6380
2523.722	6312
2525.668	6336
2527.616	6393
2529.561	6369
2531.508	6391
2533.452	6402
2535.398	6285
2537.342	6355
2539.284	6369
2541.229	6422
2543.173	6370
2545.114	6373
2547.055	6253
2548.996	6357
2550.938	6298
2552.878	6334
2554.817	6325
2556.756	6343
2558.695	6309
2560.633	6260
2562.572	6370
2564.509	6320
2566.445	6349
2568.382	6327
2570.317	6268
2572.254	6271
2574.189	6299
2576.123	6389
2578.057	6378
2579.99	6263
2581.923	6340
2583.855	6312
2585.788	6323
2587.719	6178
2589.65	6392
2591.579	6318
2593.511	6334
2595.44	6327
2597.37	6325
2599.297	6311
2601.225	6419
2603.153	6331
2605.08	6366
2607.007	6317
2608.932	6201
2610.858	6293
2612.782	6319
2614.709	6478
2616.632	6289
2618.556	6250
2620.478	6306
2622.401	6258
2624.324	6360
2626.247	6404
2628.167	6349
2630.088	6287
2632.008	6313
2633.928	6303
2635.848	6420
2637.766	6269
2639.684	6347
2641.603	6333
2643.519	6379
2645.437	6366
2647.353	6316
2649.27	6362
2651.184	6240
2653.099	6377
2655.014	6270
2656.928	6258
2658.842	6356
2660.755	6270
2662.667	6280
2664.579	6346
2666.491	6267
2668.402	6283
2670.312	6283
2672.222	6186
2674.132	6254
2676.042	6287
2677.951	6254
2679.859	6238
2681.766	6320
2683.674	6083
2685.582	6248
2687.488	6307
2689.392	6293
2691.298	6237
2693.202	6306
2695.107	6130
2697.012	6308
2698.914	6247
2700.817	6198
2702.72	6230
2704.622	6162
2706.524	6203
2708.425	6096
2710.326	6181
2712.225	6214
2714.125	6186
2716.024	6085
2717.923	6072
2719.822	6118
2721.719	6184
2723.616	6183
2725.512	6120
2727.41	6040
2729.305	6230
2731.201	6210
2733.095	6237
2734.99	6143
2736.884	6086
2738.778	6245
2740.67	6110
2742.562	6054
2744.455	6133
2746.346	6157
2748.238	6185
2750.129	6197
2752.018	6060
2753.907	6181
2755.797	6153
2757.687	6092
2759.575	6013
2761.462	6074
2763.349	6120
2765.237	6080
2767.124	6026
2769.009	6086
2770.894	6083
2772.779	6106
2774.663	6105
2776.547	6076
2778.431	6081
2780.314	6037
2782.197	6204
2784.078	6127
2785.96	6091
2787.842	6023
2789.723	5991
2791.603	6176
2793.483	6042
2795.362	6170
2797.241	6026
2799.121	5953
2800.997	6062
2802.874	6116
2804.751	5976
2806.628	6045
2808.506	6018
2810.38	5927
2812.255	6034
2814.13	6011
2816.003	6035
2817.878	6091
2819.752	6036
2821.623	5936
2823.496	5966
2825.368	6118
2827.238	5976
2829.111	6069
2830.98	6034
2832.851	6088
2834.719	6065
2836.589	5996
2838.458	6013
2840.327	6119
2842.193	6117
2844.061	6077
2845.927	6047
2847.794	6088
2849.66	6064
2851.525	6051
2853.39	6020
2855.254	5966
2857.117	6015
2858.983	6061
2860.845	6072
2862.707	6078
2864.569	6203
2866.431	6162
2868.293	6267
2870.154	6189
2872.013	6340
2873.873	6289
2875.733	6188
2877.592	6347
2879.451	6209
2881.309	6402
2883.166	6344
2885.022	6485
2886.879	6511
2888.736	6497
2890.591	6554
2892.446	6568
2894.301	6536
2896.155	6621
2898.009	6568
2899.863	6524
2901.716	6451
2903.568	6479
2905.419	6339
2907.27	6367
2909.123	6505
2910.973	6451
2912.824	6585
2914.673	6520
2916.521	6578
2918.372	6722
2920.22	6640
2922.067	6728
2923.914	6810
2925.761	6809
2927.607	6856
2929.455	6780
2931.301	6845
2933.144	6939
2934.99	6860
2936.833	6977
2938.678	6959
2940.522	7000
2942.364	7229
2944.207	7313
2946.048	7289
2947.891	7309
2949.731	7173
2951.571	7286
2953.412	7242
2955.25	7186
2957.09	7153
2958.93	7144
2960.767	7011
2962.606	6868
2964.443	6936
2966.279	6929
2968.116	6801
2969.953	6726
2971.788	6689
2973.623	6665
2975.457	6584
2977.292	6545
2979.127	6509
2980.959	6421
2982.792	6626
2984.624	6502
2986.455	6446
2988.288	6357
2990.119	6287
2991.949	6381
2993.779	6324
2995.608	6298
2997.439	6183
2999.268	6199
3001.096	6208
3002.923	6185
3004.751	6186
3006.578	6047
3008.406	5977
3010.232	6035
3012.057	6083
3013.883	5896
3015.706	5916
3017.532	5795
3019.356	5826
3021.179	5864
3023.002	5913
3024.823	5881
3026.646	5880
3028.469	5701
3030.289	5829
3032.11	5726
3033.93	5829
3035.749	5588
3037.57	5753
3039.39	5667
3041.207	5690
3043.026	5669
3044.842	5676
3046.661	5674
3048.477	5687
3050.294	5600
3052.109	5729
3053.925	5652
3055.739	5679
3057.555	5673
3059.368	5630
3061.181	5772
3062.995	5659
3064.807	5721
3066.62	5542
3068.433	5739
3070.243	5702
3072.054	5616
3073.865	5572
3075.675	5577
3077.485	5535
3079.293	5574
3081.102	5527
3082.911	5599
3084.719	5478
3086.527	5536
3088.333	5591
3090.139	5564
3091.945	5510
3093.75	5533
3095.557	5487
3097.361	5577
3099.165	5579
3100.969	5466
3102.772	5523
3104.575	5374
3106.379	5431
3108.181	5556
3109.982	5455
3111.783	5400
3113.584	5339
3115.386	5471
3117.186	5491
3118.985	5466
3120.783	5455
3122.582	5416
3124.381	5423
3126.179	5323
3127.975	5483
3129.772	5418
3131.569	5429
3133.365	5496
3135.161	5505
3136.956	5434
3138.751	5365
3140.544	5332
3142.338	5404
3144.132	5391
3145.925	5396
3147.717	5432
3149.509	5278
3151.301	5368
3153.091	5364
3154.884	5357
3156.673	5441
3158.462	5237
3160.252	5272
3162.041	5310
3163.831	5271
3165.618	5295
3167.405	5250
3169.193	5233
3170.979	5259
3172.767	5314
3174.553	5279
3176.338	5252
3178.123	5262
3179.907	5222
3181.692	5192
3183.477	5308
3185.259	5289
3187.042	5214
3188.824	5254
3190.607	5274
3192.389	5221
3194.17	5252
3195.951	5232
3197.73	5253
3199.51	5260
3201.289	5150
3203.07	5308
3204.848	5232
3206.626	5220
3208.403	5313
3210.18	5242
3211.959	5300
3213.735	5258
3215.511	5180
3217.285	5218
3219.06	5230
3220.836	5240
3222.611	5245
3224.384	5189
3226.158	5166
3227.929	5294
3229.702	5230
3231.476	5226
3233.248	5143
3235.018	5220
3236.789	5132
3238.56	5233
3240.33	5232
3242.1	5168
3243.869	5155
3245.637	5159
3247.405	5219
3249.172	5256
3250.941	5235
3252.707	5193
3254.474	5252
3256.24	5219
3258.006	5137
3259.772	5102
3261.537	5089
3263.301	5284
3265.065	5047
3266.828	5230
3268.592	5173
3270.355	5206
3272.117	5113
3273.878	5150
3275.64	5180
3277.401	5217
3279.162	5275
3280.922	5131
3282.682	5195
3284.441	5244
3286.199	5158
3287.959	5207
3289.716	5112
3291.475	5109
3293.232	5319
3294.988	5187
3296.744	5185
3298.501	5175
3300.256	5123
3302.011	5182
3303.766	5139
3305.52	5050
3307.275	5158
3309.028	5188
3310.781	5264
3312.533	5116
3314.285	5138
3316.038	5149
3317.789	5166
3319.54	5075
3321.289	5084
3323.039	5165
3324.789	5116
3326.539	5120
3328.288	5068
3330.035	5180
3331.783	5199
3333.531	5169
3335.28	5179
3337.025	5117
3338.771	5028
3340.518	5008
3342.262	5116
3344.009	5142
3345.753	5167
3347.497	5091
3349.24	4979
3350.983	5108
3352.726	5010
3354.469	5034
3356.212	5092
3357.952	5143
3359.694	5062
3361.434	5073
3363.176	5035
3364.916	5059
3366.654	4978
3368.394	5015
3370.132	4982
3371.871	5103
3373.61	5034
3375.346	5033
3377.083	5023
3378.82	4999
3380.556	5034
3382.292	5063
3384.027	4990
3385.763	5043
3387.497	4934
3389.231	5067
3390.965	5028
3392.698	5078
3394.431	4948
3396.164	4846
3397.896	4983
3399.627	4959
3401.36	4904
3403.09	4910
3404.82	4902
3406.55	5022
3408.279	4835
3410.01	4948
3411.738	4887
3413.467	4901
3415.194	4791
3416.92	4948
3418.647	4949
3420.375	4837
3422.102	4838
3423.827	4840
3425.553	4875
3427.277	4837
3429.003	4866
3430.727	5032
3432.451	4871
3434.173	4878
3435.896	4925
3437.62	4937
3439.343	4742
3441.063	4828
3442.785	4798
3444.505	4803
3446.226	4750
3447.948	4786
3449.666	4688
3451.386	4784
3453.104	4801
3454.823	4852
3456.541	4689
3458.259	4710
3459.976	4787
3461.693	4714
3463.408	4763
3465.125	4682
3466.841	4777
3468.556	4691
3470.271	4628
3471.985	4739
3473.698	4673
3475.414	4765
3477.126	4664
3478.838	4667
3480.55	4614
3482.263	4639
3483.975	4655
3485.686	4697
3487.396	4704
3489.106	4620
3490.817	4663
3492.526	4740
3494.236	4629
3495.944	4619
3497.652	4558
3499.359	4598
3501.066	4659
3502.775	4627
3504.481	4590
3506.187	4627
3507.893	4580
3509.598	4578
3511.304	4557
3513.009	4560
3514.713	4563
3516.417	4586
3518.12	4580
3519.821	4520
3521.525	4560
3523.228	4512
3524.929	4487
3526.631	4549
3528.33	4372
3530.032	4435
3531.733	4520
3533.433	4517
3535.131	4456
3536.83	4451
3538.529	4486
3540.227	4489
3541.925	4518
3543.623	4467
3545.319	4578
3547.016	4436
3548.712	4444
3550.408	4380
3552.103	4492
3553.798	4544
3555.491	4569
3557.188	4472
3558.88	4430
3560.574	4390
3562.266	4456
3563.959	4321
3565.651	4389
3567.343	4417
3569.035	4385
3570.725	4394
3572.415	4466
3574.106	4363
3575.797	4378
3577.485	4403
3579.174	4429
3580.863	4359
3582.551	4330
3584.238	4416
3585.926	4384
3587.613	4362
3589.3	4325
3590.986	4323
3592.671	4321
3594.357	4259
3596.042	4295
3597.726	4261
3599.41	4350
3601.094	4318
3602.778	4153
3604.461	4236
3606.143	4269
3607.825	4293
3609.507	4273
3611.188	4263
3612.87	4211
3614.551	4211
3616.229	4238
3617.909	4227
3619.589	4212
3621.269	4214
3622.948	4171
3624.625	4105
3626.302	4304
3627.98	4180
3629.657	4219
3631.334	4206
3633.01	4150
3634.686	4088
3636.361	4094
3638.036	4112
3639.712	4087
3641.385	4089
3643.06	4141
3644.732	4125
3646.405	4128
3648.08	4095
3649.751	4019
3651.424	4156
3653.094	3992
3654.766	4060
3656.436	4092
3658.106	4130
3659.777	3987
3661.446	4080
3663.115	4104
3664.783	4058
3666.452	4164
3668.121	4033
3669.788	4140
3671.454	4046
3673.121	4064
3674.789	3992
3676.455	4096
3678.12	3994
3679.784	4055
3681.45	4038
3683.114	3923
3684.779	4076
3686.442	4048
3688.105	4057
3689.768	4019
3691.43	3923
3693.093	3945
3694.754	3999
3696.415	4025
3698.076	3995
3699.736	4029
3701.396	4007
3703.057	3959
3704.716	4000
3706.375	3919
3708.034	3991
3709.692	4019
3711.351	3899
3713.008	3944
3714.665	4005
3716.321	3985
3717.977	3885
3719.634	3935
3721.29	3971
3722.945	3953
3724.598	3864
3726.253	3951
3727.907	3942
3729.561	3946
3731.214	3899
3732.867	3938
3734.518	3955
3736.171	3942
3737.824	3819
3739.474	3944
3741.125	3893
3742.775	3934
3744.425	3942
3746.074	3868
3747.725	3832
3749.373	3896
3751.022	3927
3752.669	3871
3754.318	3897
3755.966	3905
3757.612	3893
3759.259	3868
3760.905	3932
3762.55	3877
3764.197	3870
3765.842	3841
3767.486	3821
3769.131	3849
3770.774	3806
3772.417	3845
3774.061	3862
3775.705	3885
3777.347	3799
3778.988	3820
3780.629	3774
3782.271	3737
3783.912	3785
3785.552	3862
3787.192	3730
3788.831	3837
3790.472	3771
3792.112	3707
3793.75	3761
3795.388	3764
3797.024	3691
3798.661	3711
3800.3	3769
3801.936	3847
3803.572	3738
3805.208	3622
3806.844	3833
3808.48	3798
3810.115	3704
3811.748	3739
3813.382	3746
3815.016	3759
3816.649	3704
3818.283	3734
3819.914	3670
3821.547	3722
3823.178	3652
3824.809	3644
3826.441	3687
3828.072	3670
3829.701	3620
3831.331	3595
3832.96	3691
3834.591	3708
3836.219	3676
3837.847	3650
3839.475	3647
3841.102	3651
3842.729	3628
3844.357	3583
3845.984	3599
3847.609	3730
3849.234	3594
3850.86	3628
3852.485	3633
3854.11	3669
3855.734	3616
3857.357	3605
3858.981	3570
3860.603	3652
3862.227	3709
3863.848	3593
3865.471	3655
3867.092	3650
3868.713	3582
3870.334	3617
3871.954	3571
3873.575	3615
3875.194	3586
3876.813	3534
3878.433	3521
3880.051	3559
3881.669	3622
3883.286	3554
3884.904	3574
3886.52	3586
3888.138	3541
3889.754	3509
3891.37	3615
3892.985	3500
3894.6	3500
3896.216	3579
3897.831	3617
3899.444	3621
3901.058	3587
3902.67	3465
3904.283	3552
3905.897	3548
3907.509	3527
3909.121	3482
3910.731	3507
3912.342	3433
3913.954	3549
3915.563	3599
3917.174	3498
3918.783	3477
3920.391	3521
3922.002	3597
3923.611	3541
3925.218	3574
3926.826	3565
3928.432	3512
3930.039	3536
3931.647	3496
3933.253	3478
3934.859	3495
3936.464	3480
3938.068	3547
3939.675	3582
3941.278	3480
3942.883	3434
3944.486	3431
3946.089	3462
3947.692	3487
3949.295	3455
3950.898	3429
3952.499	3490
3954.1	3505
3955.7	3511
3957.303	3480
3958.903	3500
3960.502	3496
3962.101	3422
3963.7	3387
3965.301	3428
3966.899	3380
3968.497	3473
3970.094	3375
3971.691	3337
3973.288	3394
3974.885	3371
3976.481	3463
3978.077	3391
3979.672	3315
3981.267	3351
3982.863	3353
3984.457	3470
3986.051	3403
3987.645	3331
3989.238	3340
3990.831	3324
3992.425	3296
3994.017	3395
3995.607	3336
3997.199	3275
3998.79	3301
4000.382	3286
4001.973	3395
4003.561	3376
4005.151	3328
4006.741	3298
4008.331	3295
4009.918	3305
4011.507	3257
4013.095	3291
4014.681	3246
4016.269	3298
4017.856	3329
4019.443	3270
4021.028	3168
4022.614	3254
4024.199	3238
4025.785	3227
4027.37	3283
4028.953	3341
4030.536	3178
4032.12	3226
4033.704	3248
4035.287	3255
4036.869	3268
4038.45	3222
4040.032	3288
4041.613	3206
4043.195	3169
4044.776	3169
4046.356	3217
4047.935	3255
4049.515	3197
4051.095	3172
4052.674	3227
4054.251	3214
4055.829	3151
4057.406	3175
4058.985	3205
4060.562	3189
4062.139	3194
4063.715	3128
4065.29	3124
4066.865	3166
4068.442	3173
4070.016	3182
4071.59	3129
4073.164	3134
4074.738	3235
4076.312	3145
4077.885	3169
4079.458	3119
4081.03	3207
4082.602	3205
4084.173	3164
4085.745	3138
4087.315	3152
4088.886	3117
4090.456	3069
4092.026	3171
4093.596	3096
4095.165	3055
4096.734	3091
4098.301	3174
4099.869	3148
4101.437	3119
4103.006	3138
4104.572	3093
4106.139	3086
4107.704	3066
4109.27	3078
4110.837	3161
4112.401	3130
4113.966	3086
4115.53	3052
4117.094	3091
4118.659	3037
4120.223	3114
4121.785	3038
4123.347	3085
4124.909	3040
4126.471	3097
4128.034	3008
4129.595	2940
4131.155	2986
4132.716	3059
4134.275	3060
4135.836	3056
4137.395	3033
4138.955	2985
4140.513	3023
4142.071	2930
4143.628	3005
4145.188	3005
4146.745	2984
4148.302	2998
4149.858	2987
4151.414	2965
4152.971	2971
4154.526	2956
4156.081	2935
4157.635	2981
4159.189	3041
4160.745	2943
4162.298	2969
4163.852	2993
4165.405	2948
4166.957	2921
4168.51	2959
4170.063	2928
4171.614	2904
4173.166	2971
4174.717	2888
4176.267	2952
4177.817	2969
4179.368	2906
4180.917	2935
4182.466	2933
4184.016	2963
4185.564	2969
4187.112	2890
4188.66	2890
4190.207	2836
4191.754	2921
4193.301	2868
4194.848	2869
4196.394	2838
4197.94	2886
4199.484	2797
4201.03	2925
4202.575	2920
4204.12	2848
4205.663	2926
4207.207	2851
4208.75	2880
4210.292	2840
4211.836	2930
4213.378	2809
4214.92	2880
4216.46	2765
4218.002	2845
4219.544	2840
4221.083	2850
4222.625	2853
4224.164	2878
4225.703	2833
4227.244	2848
4228.782	2851
4230.32	2873
4231.857	2902
4233.395	2856
4234.933	2867
4236.471	2761
4238.007	2726
4239.542	2755
4241.078	2761
4242.614	2834
4244.15	2802
4245.685	2795
4247.219	2784
4248.753	2739
4250.287	2823
4251.82	2830
4253.354	2803
4254.887	2780
4256.419	2798
4257.951	2740
4259.483	2832
4261.016	2781
4262.547	2766
4264.078	2771
4265.608	2730
4267.137	2776
4268.668	2784
4270.197	2800
4271.727	2806
4273.254	2790
4274.783	2718
4276.311	2736
4277.84	2770
4279.366	2790
4280.894	2744
4282.42	2757
4283.946	2740
4285.473	2757
4286.998	2700
4288.523	2758
4290.047	2672
4291.572	2724
4293.096	2786
4294.622	2669
4296.144	2738
4297.668	2779
4299.19	2653
4300.713	2716
4302.236	2687
4303.758	2749
4305.279	2708
4306.799	2737
4308.321	2629
4309.842	2678
4311.361	2724
4312.882	2713
4314.401	2703
