400.0961	4726
402.6185	4636
405.1424	4675
407.6635	4591
410.1838	4715
412.7035	4697
415.2225	4698
417.7388	4790
420.2585	4761
422.7754	4893
425.2917	4876
427.8072	4958
430.3221	4978
432.8363	4964
435.3498	5006
437.8626	4958
440.3727	4915
442.8841	5004
445.3969	4988
447.907	4994
450.4142	4936
452.9229	4850
455.4289	4980
457.9362	5034
460.4449	4912
462.9488	4975
465.454	4916
467.9566	4940
470.4604	4922
472.9637	4984
475.4662	4972
477.966	4999
480.4671	5003
482.9656	5120
485.4633	5049
487.9645	5094
490.4608	5030
492.9566	5034
495.4536	5014
497.948	5161
500.4437	5145
502.9387	5078
505.431	5079
507.9226	5078
510.4136	5105
512.9079	5082
515.3975	5144
517.8864	5120
520.3746	5143
522.8622	5242
525.3491	5157
527.8394	5247
530.3249	5237
532.8098	5280
535.2939	5140
537.7774	5278
540.2623	5167
542.7444	5235
545.2259	5198
547.7067	5259
550.1868	5219
552.6683	5207
555.147	5240
557.6231	5228
560.1005	5251
562.5773	5138
565.0534	5276
567.5308	5306
570.0056	5311
572.4776	5372
574.951	5405
577.4237	5338
579.8978	5363
582.3671	5419
584.8378	5459
587.3079	5400
589.7773	5373
592.244	5456
594.714	5536
597.1793	5315
599.6461	5476
602.1121	5276
604.5754	5410
607.0421	5351
609.5042	5288
611.9675	5416
614.4282	5349
616.8902	5392
619.3515	5311
621.8122	5348
624.2702	5247
626.7296	5421
629.1863	5396
631.6423	5369
634.1017	5289
636.5563	5277
639.0104	5318
641.4658	5440
643.9185	5352
646.3725	5377
648.8239	5326
651.2766	5393
653.7266	5437
656.176	5472
658.6247	5439
661.0748	5502
663.5242	5511
665.9709	5598
668.417	5503
670.8624	5541
673.3092	5394
675.7533	5581
678.1968	5501
680.6395	5637
683.0817	5467
685.5251	5481
687.9659	5541
690.4061	5596
692.8456	5563
695.2844	5456
697.7226	5650
700.1621	5691
702.599	5631
705.0332	5584
707.4688	5677
709.9036	5678
712.3399	5566
714.7735	5714
717.2044	5731
719.6367	5687
722.0683	5788
724.4993	5704
726.9296	5722
729.3593	5758
731.7883	5707
734.2147	5817
736.6423	5744
739.0714	5740
741.4958	5815
743.9216	5916
746.3447	5870
748.7691	5823
751.1929	5893
753.616	6000
756.0366	5888
758.4584	5854
760.8776	5998
763.2982	5967
765.718	5992
768.1373	6069
770.5539	5975
772.9698	6006
775.3871	6030
777.8038	6002
780.2178	6024
782.6332	6049
785.0459	6015
787.458	5961
789.8714	5942
792.2842	5980
794.6943	5993
797.1038	6002
799.5127	5859
801.9209	6010
804.3324	6001
806.7393	6085
809.1456	5943
811.5513	6106
813.9562	6050
816.3625	6071
818.7663	6096
821.1693	6102
823.5718	6113
825.9735	5983
828.3746	6008
830.7771	6091
833.177	5981
835.5762	6180
837.9747	6118
840.3727	6059
842.772	6117
845.1666	6286
847.5626	6223
849.958	6200
852.3527	6251
854.7488	6241
857.1403	6249
859.5331	6289
861.9253	6247
864.3168	6177
866.7057	6243
869.098	6272
871.4876	6252
873.8746	6174
876.263	6207
878.6487	6206
881.0378	6220
883.4243	6168
885.8081	6181
888.1933	6140
890.5759	6258
892.9598	6203
895.343	6157
897.7256	6226
900.1057	6140
902.4871	6184
904.8659	6356
907.246	6343
909.6254	6327
912.0023	6397
914.3786	6451
916.7562	6537
919.1331	6733
921.5074	6682
923.8831	6822
926.2562	6775
928.6287	6731
931.0005	6683
933.3757	6659
935.7462	6706
938.1162	6672
940.4855	6686
942.8542	6596
945.2242	6458
947.5916	6751
949.9584	6842
952.3266	6892
954.6921	6993
957.0571	7164
959.4233	7442
961.787	7441
964.15	7441
966.5125	7212
968.8742	6952
971.2354	6821
973.5959	6712
975.9559	6726
978.3151	6624
980.6738	6674
983.0338	6552
985.3912	6556
987.7461	6554
990.1022	6364
992.4578	6396
994.8127	6487
997.1689	6459
999.5207	6454
1001.874	6505
1004.226	6450
1006.576	6402
1008.929	6473
1011.28	6326
1013.628	6460
1015.977	6476
1018.324	6368
1020.674	6442
1023.019	6489
1025.366	6404
1027.713	6457
1030.056	6521
1032.399	6624
1034.746	6530
1037.087	6584
1039.431	6466
1041.771	6491
1044.113	6584
1046.454	6613
1048.793	6469
1051.133	6532
1053.471	6533
1055.807	6550
1058.146	6559
1060.483	6569
1062.818	6671
1065.153	6744
1067.489	6595
1069.822	6611
1072.156	6549
1074.488	6652
1076.82	6684
1079.15	6642
1081.48	6690
1083.814	6679
1086.143	6592
1088.471	6559
1090.799	6630
1093.126	6472
1095.452	6609
1097.78	6575
1100.105	6579
1102.43	6650
1104.754	6549
1107.077	6738
1109.4	6632
1111.722	6544
1114.044	6652
1116.365	6553
1118.685	6668
1121.005	6605
1123.324	6654
1125.643	6727
1127.961	6752
1130.278	6684
1132.595	6665
1134.911	6615
1137.226	6542
1139.541	6529
1141.854	6568
1144.167	6593
1146.482	6617
1148.793	6620
1151.105	6679
1153.414	6492
1155.725	6597
1158.033	6634
1160.344	6672
1162.651	6552
1164.959	6672
1167.265	6552
1169.572	6593
1171.878	6595
1174.184	6704
1176.488	6693
1178.79	6705
1181.094	6885
1183.396	6691
1185.699	6684
1188.001	6696
1190.301	6630
1192.6	6691
1194.9	6742
1197.2	6616
1199.497	6652
1201.794	6641
1204.09	6746
1206.387	6710
1208.684	6716
1210.978	6635
1213.272	6782
1215.565	6638
1217.858	6630
1220.15	6674
1222.443	6669
1224.734	6601
1227.024	6852
1229.313	6819
1231.602	6935
1233.892	6821
1236.18	6839
1238.467	6926
1240.754	6890
1243.04	6956
1245.325	6994
1247.612	6990
1249.896	6946
1252.178	6980
1254.461	6926
1256.743	7148
1259.027	6996
1261.308	6940
1263.587	6990
1265.867	7151
1268.146	7049
1270.425	7097
1272.703	6973
1274.981	7057
1277.256	7044
1279.532	7013
1281.808	6860
1284.083	6949
1286.358	6781
1288.63	6924
1290.904	6863
1293.175	6934
1295.449	6932
1297.719	6981
1299.99	6892
1302.259	6793
1304.529	6809
1306.798	6896
1309.065	6923
1311.333	6828
1313.599	6856
1315.866	6877
1318.131	6871
1320.396	6915
1322.66	6846
1324.925	6924
1327.187	6965
1329.448	7007
1331.711	6942
1333.974	6944
1336.234	7009
1338.493	7010
1340.752	7018
1343.01	6928
1345.269	6906
1347.526	6949
1349.784	6867
1352.04	6966
1354.295	6838
1356.552	6813
1358.806	6848
1361.059	6922
1363.312	6884
1365.564	6878
1367.818	6946
1370.069	6907
1372.318	6896
1374.568	6913
1376.817	6974
1379.066	6980
1381.316	7059
1383.564	6976
1385.809	6943
1388.056	7080
1390.301	7212
1392.549	7190
1394.793	7228
1397.036	7300
1399.279	7273
1401.522	7366
1403.763	7390
1406.007	7331
1408.248	7284
1410.487	7290
1412.727	7274
1414.965	7339
1417.205	7307
1419.442	7326
1421.68	7292
1423.915	7223
1426.152	7095
1428.388	7126
1430.623	7112
1432.857	7220
1435.091	7219
1437.323	7291
1439.556	7407
1441.789	7353
1444.019	7320
1446.25	7281
1448.48	7306
1450.708	7332
1452.938	7379
1455.167	7518
1457.394	7347
1459.62	7423
1461.846	7279
1464.073	7161
1466.299	7262
1468.523	7120
1470.746	7245
1472.969	7183
1475.191	7056
1477.415	7080
1479.636	7037
1481.858	6898
1484.078	6922
1486.298	7049
1488.518	6980
1490.736	6940
1492.954	6827
1495.169	6854
1497.386	6989
1499.602	6933
1501.819	6847
1504.034	6907
1506.248	6888
1508.462	6841
1510.675	6963
1512.888	6937
1515.1	6860
1517.311	6815
1519.522	6835
1521.732	6860
1523.942	7006
1526.151	6691
1528.36	6913
1530.566	6837
1532.773	6860
1534.98	6836
1537.187	6861
1539.392	6911
1541.596	6905
1543.801	6830
1546.005	6941
1548.208	6912
1550.411	6901
1552.612	6919
1554.814	6978
1557.013	6876
1559.212	7030
1561.414	7007
1563.612	6918
1565.811	7058
1568.007	7135
1570.203	7101
1572.403	6973
1574.598	7091
1576.792	7040
1578.988	7168
1581.181	7134
1583.376	7013
1585.568	7007
1587.761	7120
1589.952	7051
1592.143	7144
1594.333	7047
1596.524	7105
1598.715	7171
1600.903	7137
1603.091	7103
1605.278	7188
1607.466	7088
1609.652	7097
1611.838	7232
1614.023	7158
1616.207	7170
1618.391	7142
1620.576	7079
1622.759	7212
1624.941	7060
1627.123	7033
1629.304	7159
1631.484	7220
1633.664	7256
1635.844	7332
1638.022	7198
1640.201	7280
1642.38	7247
1644.556	7284
1646.732	7205
1648.908	7278
1651.084	7336
1653.257	7289
1655.433	7330
1657.607	7210
1659.779	7398
1661.951	7289
1664.122	7208
1666.295	7318
1668.467	7356
1670.635	7525
1672.805	7321
1674.973	7314
1677.142	7263
1679.31	7276
1681.478	7217
1683.644	7347
1685.81	7211
1687.975	7256
1690.142	7264
1692.305	7235
1694.468	7354
1696.632	7233
1698.794	7195
1700.957	7192
1703.119	7209
1705.279	7196
1707.439	7071
1709.598	7128
1711.758	7184
1713.917	7100
1716.075	7149
1718.231	7048
1720.388	7125
1722.543	6937
1724.702	7136
1726.856	7115
1729.01	7115
1731.164	7073
1733.317	7113
1735.471	7141
1737.623	6940
1739.774	7194
1741.925	7074
1744.075	7138
1746.225	7214
1748.376	7046
1750.524	7118
1752.672	7064
1754.82	7084
1756.965	7241
1759.113	7085
1761.259	7125
1763.405	7014
1765.549	7170
1767.694	7147
1769.836	7137
1771.981	7169
1774.123	7207
1776.264	7167
1778.405	7162
1780.546	7050
1782.687	7279
1784.827	7126
1786.966	7145
1789.103	7143
1791.242	7110
1793.381	7116
1795.517	7153
1797.653	7146
1799.788	7123
1801.923	7242
1804.057	7192
1806.193	7118
1808.326	7123
1810.457	7248
1812.59	7118
1814.721	7156
1816.855	6982
1818.984	7136
1821.113	7141
1823.244	7164
1825.372	7055
1827.499	7204
1829.63	6923
1831.756	7076
1833.882	7143
1836.007	7057
1838.132	7066
1840.26	7193
1842.384	7149
1844.507	7098
1846.63	7078
1848.752	7111
1850.875	7118
1852.996	7094
1855.118	6998
1857.238	7053
1859.358	7048
1861.477	7085
1863.597	7086
1865.715	7141
1867.832	7101
1869.948	7072
1872.064	7023
1874.181	7109
1876.297	7092
1878.411	6974
1880.526	7173
1882.639	7184
1884.752	7169
1886.865	7031
1888.977	7228
1891.089	7092
1893.2	7126
1895.308	7201
1897.42	7096
1899.53	7156
1901.639	7127
1903.745	7134
1905.853	7192
1907.962	7153
1910.067	7186
1912.174	7252
1914.278	7165
1916.383	7160
1918.486	7076
1920.592	7255
1922.694	7188
1924.797	7237
1926.898	7199
1929	7175
1931.102	7162
1933.203	7225
1935.301	7186
1937.401	7203
1939.499	7187
1941.598	7242
1943.697	7215
1945.793	7296
1947.888	7074
1949.985	7135
1952.08	7203
1954.176	7228
1956.269	7093
1958.364	7152
1960.457	7241
1962.549	7306
1964.642	7132
1966.733	7236
1968.823	7016
1970.913	7119
1973.005	7164
1975.093	7296
1977.184	7158
1979.271	7157
1981.359	7056
1983.446	7144
1985.532	7123
1987.619	7178
1989.705	7193
1991.789	7273
1993.874	7195
1995.956	7088
1998.041	7109
2000.123	7083
2002.206	7232
2004.287	7059
2006.368	6975
2008.449	7100
2010.529	6921
2012.609	7239
2014.688	6949
2016.766	7002
2018.843	7076
2020.922	7082
2022.999	7078
2025.074	7173
2027.15	7043
2029.225	7159
2031.299	7170
2033.375	7123
2035.447	7226
2037.52	7001
2039.592	7140
2041.664	7155
2043.736	7046
2045.807	7008
2047.876	7270
2049.947	7046
2052.015	6996
2054.086	7244
2056.153	7052
2058.221	7075
2060.288	7182
2062.353	7125
2064.42	7092
2066.486	7124
2068.55	7161
2070.614	6969
2072.678	7118
2074.741	7050
2076.805	7004
2078.866	7077
2080.929	7155
2082.99	7071
2085.049	7107
2087.109	7146
2089.17	7137
2091.228	7103
2093.286	7084
2095.344	7170
2097.4	6981
2099.46	7083
2101.516	7161
2103.572	7072
2105.626	7132
2107.679	7140
2109.735	7130
2111.788	7022
2113.841	7070
2115.894	7089
2117.945	7005
2119.997	7091
2122.049	7089
2124.1	7165
2126.148	7101
2128.197	7159
2130.246	7093
2132.296	7149
2134.342	7037
2136.39	7041
2138.437	7105
2140.483	7024
2142.527	7085
2144.574	7036
2146.619	7063
2148.661	7078
2150.705	7103
2152.747	7139
2154.792	7173
2156.832	7032
2158.874	7027
2160.915	6946
2162.954	7066
2164.995	6935
2167.034	7074
2169.072	7130
2171.111	7048
2173.148	7016
2175.186	6980
2177.223	7140
2179.258	6942
2181.294	7001
2183.328	6973
2185.362	6919
2187.398	6914
2189.431	6912
2191.463	6954
2193.495	7064
2195.528	6937
2197.56	7047
2199.59	6872
2201.62	6867
2203.649	6913
2205.678	6946
2207.708	6984
2209.737	6921
2211.764	6971
2213.791	6820
2215.817	6902
2217.843	6943
2219.87	6872
2221.895	6788
2223.919	6867
2225.942	6791
2227.966	6917
2229.988	6853
2232.012	6916
2234.032	6904
2236.054	7029
2238.074	6843
2240.095	6835
2242.116	6844
2244.135	6904
2246.153	6910
2248.171	6938
2250.188	6946
2252.208	6807
2254.223	6947
2256.239	6867
2258.255	6993
2260.269	6698
2262.283	6923
2264.3	6892
2266.312	6842
2268.325	6909
2270.336	6875
2272.349	6873
2274.362	6836
2276.372	6828
2278.383	6945
2280.392	6779
2282.402	6932
2284.409	6866
2286.418	6901
2288.427	6839
2290.433	6902
2292.441	6856
2294.446	6844
2296.453	6852
2298.459	6897
2300.463	6844
2302.466	6812
2304.471	6897
2306.475	6903
2308.477	6821
2310.478	6800
2312.481	6813
2314.481	6834
2316.481	6804
2318.482	6906
2320.482	6810
2322.48	6894
2324.48	6778
2326.478	6746
2328.476	6918
2330.473	6778
2332.469	6912
2334.465	6753
2336.46	6745
2338.454	6709
2340.45	6729
2342.444	6691
2344.437	6748
2346.43	6809
2348.421	6653
2350.414	6796
2352.405	6715
2354.396	6759
2356.386	6735
2358.376	6701
2360.366	6690
2362.355	6826
2364.343	6696
2366.331	6809
2368.317	6750
2370.304	6652
2372.292	6693
2374.278	6714
2376.262	6785
2378.247	6693
2380.23	6701
2382.216	6702
2384.199	6589
2386.181	6784
2388.163	6651
2390.144	6613
2392.127	6787
2394.107	6550
2396.087	6617
2398.066	6498
2400.046	6627
2402.023	6625
2404.004	6625
2405.981	6567
2407.957	6616
2409.934	6510
2411.91	6612
2413.886	6631
2415.862	6633
2417.836	6521
2419.809	6668
2421.784	6626
2423.756	6565
2425.73	6576
2427.701	6452
2429.672	6697
2431.644	6692
2433.615	6626
2435.586	6665
2437.555	6621
2439.523	6597
2441.491	6584
2443.459	6698
2445.428	6595
2447.395	6608
2449.361	6640
2451.327	6550
2453.292	6579
2455.257	6511
2457.223	6600
2459.187	6609
2461.15	6509
2463.113	6515
2465.076	6621
2467.039	6557
2468.999	6499
2470.96	6439
2472.921	6504
2474.881	6635
2476.841	6598
2478.8	6459
2480.759	6569
2482.717	6520
2484.675	6442
2486.63	6481
2488.589	6560
2490.545	6639
2492.5	6565
2494.455	6455
2496.408	6566
2498.364	6442
2500.318	6617
2502.27	6475
2504.223	6482
2506.174	6512
2508.126	6432
2510.078	6445
2512.03	6420
2513.979	6481
2515.927	6469
2517.877	6482
2519.826	6369
2521.775	6407
2523.722	6406
2525.668	6442
2527.616	6387
2529.561	6468
2531.508	6375
2533.452	6440
2535.398	6403
2537.342	6421
2539.284	6512
2541.229	6387
2543.173	6405
2545.114	6518
2547.055	6480
2548.996	6489
2550.938	6360
2552.878	6429
2554.817	6452
2556.756	6417
2558.695	6408
2560.633	6445
2562.572	6391
2564.509	6443
2566.445	6452
2568.382	6521
2570.317	6498
2572.254	6409
2574.189	6445
2576.123	6291
2578.057	6525
2579.99	6444
2581.923	6460
2583.855	6453
2585.788	6537
2587.719	6367
2589.65	6421
2591.579	6583
2593.511	6501
2595.44	6447
2597.37	6363
2599.297	6349
2601.225	6481
2603.153	6404
2605.08	6386
2607.007	6442
2608.932	6330
2610.858	6389
2612.782	6426
2614.709	6452
2616.632	6477
2618.556	6495
2620.478	6496
2622.401	6451
2624.324	6352
2626.247	6420
2628.167	6447
2630.088	6434
2632.008	6512
2633.928	6298
2635.848	6360
2637.766	6427
2639.684	6392
2641.603	6460
2643.519	6440
2645.437	6458
2647.353	6362
2649.27	6402
2651.184	6444
2653.099	6443
2655.014	6377
2656.928	6349
2658.842	6417
2660.755	6436
2662.667	6557
2664.579	6389
2666.491	6356
2668.402	6408
2670.312	6299
2672.222	6342
2674.132	6506
2676.042	6392
2677.951	6311
2679.859	6328
2681.766	6440
2683.674	6355
2685.582	6352
2687.488	6460
2689.392	6382
2691.298	6397
2693.202	6342
2695.107	6426
2697.012	6409
2698.914	6220
2700.817	6313
2702.72	6304
2704.622	6269
2706.524	6356
2708.425	6307
2710.326	6397
2712.225	6274
2714.125	6145
2716.024	6307
2717.923	6341
2719.822	6338
2721.719	6262
2723.616	6393
2725.512	6262
2727.41	6314
2729.305	6236
2731.201	6205
2733.095	6377
2734.99	6277
2736.884	6297
2738.778	6325
2740.67	6216
2742.562	6325
2744.455	6296
2746.346	6257
2748.238	6217
2750.129	6290
2752.018	6203
2753.907	6185
2755.797	6317
2757.687	6191
2759.575	6269
2761.462	6263
2763.349	6230
2765.237	6262
2767.124	6239
2769.009	6174
2770.894	6189
2772.779	6190
2774.663	6247
2776.547	6214
2778.431	6251
2780.314	6117
2782.197	6222
2784.078	6298
2785.96	6185
2787.842	6197
2789.723	6228
2791.603	6227
2793.483	6212
2795.362	6194
2797.241	6141
2799.121	6228
2800.997	6264
2802.874	6297
2804.751	6206
2806.628	6243
2808.506	6195
2810.38	6158
2812.255	6176
2814.13	6155
2816.003	6127
2817.878	6264
2819.752	6084
2821.623	6257
2823.496	6117
2825.368	6184
2827.238	6116
2829.111	6274
2830.98	6181
2832.851	6167
2834.719	6200
2836.589	6278
2838.458	6287
2840.327	6105
2842.193	6272
2844.061	6164
2845.927	6240
2847.794	6154
2849.66	6299
2851.525	6318
2853.39	6335
2855.254	6299
2857.117	6443
2858.983	6506
2860.845	6335
2862.707	6330
2864.569	6463
2866.431	6502
2868.293	6432
2870.154	6658
2872.013	6605
2873.873	6438
2875.733	6628
2877.592	6683
2879.451	6737
2881.309	6769
2883.166	6789
2885.022	6944
2886.879	6811
2888.736	6916
2890.591	6927
2892.446	6951
2894.301	6994
2896.155	7096
2898.009	6994
2899.863	6997
2901.716	7011
2903.568	6872
2905.419	7035
2907.27	6990
2909.123	7059
2910.973	7028
2912.824	7109
2914.673	7117
2916.521	7179
2918.372	7222
2920.22	7237
2922.067	7334
2923.914	7415
2925.761	7330
2927.607	7400
2929.455	7436
2931.301	7491
2933.144	7522
2934.99	7631
2936.833	7620
2938.678	7528
2940.522	7731
2942.364	7904
2944.207	7997
2946.048	8042
2947.891	8211
2949.731	8192
2951.571	8235
2953.412	8121
2955.25	7991
2957.09	8126
2958.93	7929
2960.767	7893
2962.606	7855
2964.443	7714
2966.279	7694
2968.116	7378
2969.953	7438
2971.788	7459
2973.623	7298
2975.457	7099
2977.292	7099
2979.127	6997
2980.959	7099
2982.792	6949
2984.624	6927
2986.455	6866
2988.288	6781
2990.119	6786
2991.949	6764
2993.779	6643
2995.608	6608
2997.439	6604
2999.268	6565
3001.096	6568
3002.923	6422
3004.751	6413
3006.578	6250
3008.406	6207
3010.232	6223
3012.057	6222
3013.883	6183
3015.706	6172
3017.532	6089
3019.356	6077
3021.179	6004
3023.002	6029
3024.823	5955
3026.646	5979
3028.469	6008
3030.289	6015
3032.11	5936
3033.93	5934
3035.749	5875
3037.57	5859
3039.39	5947
3041.207	5932
3043.026	5860
3044.842	5930
3046.661	5833
3048.477	5797
3050.294	5897
3052.109	5878
3053.925	5883
3055.739	5788
3057.555	5844
3059.368	5854
3061.181	5751
3062.995	5866
3064.807	5880
3066.62	5848
3068.433	5802
3070.243	5944
3072.054	5822
3073.865	5892
3075.675	5840
3077.485	5871
3079.293	5753
3081.102	5684
3082.911	5732
3084.719	5637
3086.527	5793
3088.333	5696
3090.139	5605
3091.945	5650
3093.75	5625
3095.557	5646
3097.361	5535
3099.165	5707
3100.969	5638
3102.772	5590
3104.575	5697
3106.379	5642
3108.181	5521
3109.982	5626
3111.783	5671
3113.584	5651
3115.386	5557
3117.186	5497
3118.985	5512
3120.783	5536
3122.582	5612
3124.381	5594
3126.179	5609
3127.975	5512
3129.772	5555
3131.569	5547
3133.365	5545
3135.161	5595
3136.956	5520
3138.751	5607
3140.544	5480
3142.338	5496
3144.132	5532
3145.925	5560
3147.717	5477
3149.509	5480
3151.301	5484
3153.091	5439
3154.884	5444
3156.673	5509
3158.462	5531
3160.252	5583
3162.041	5527
3163.831	5376
3165.618	5358
3167.405	5438
3169.193	5537
3170.979	5411
3172.767	5477
3174.553	5547
3176.338	5409
3178.123	5373
3179.907	5472
3181.692	5449
3183.477	5546
3185.259	5357
3187.042	5427
3188.824	5364
3190.607	5366
3192.389	5478
3194.17	5442
3195.951	5505
3197.73	5420
3199.51	5497
3201.289	5337
3203.07	5394
3204.848	5438
3206.626	5440
3208.403	5458
3210.18	5402
3211.959	5420
3213.735	5376
3215.511	5405
3217.285	5322
3219.06	5424
3220.836	5369
3222.611	5353
3224.384	5366
3226.158	5403
3227.929	5335
3229.702	5397
3231.476	5435
3233.248	5367
3235.018	5378
3236.789	5379
3238.56	5439
3240.33	5361
3242.1	5411
3243.869	5370
3245.637	5504
3247.405	5392
3249.172	5371
3250.941	5361
3252.707	5361
3254.474	5400
3256.24	5468
3258.006	5361
3259.772	5360
3261.537	5332
3263.301	5362
3265.065	5384
3266.828	5362
3268.592	5410
3270.355	5280
3272.117	5433
3273.878	5373
3275.64	5264
3277.401	5357
3279.162	5336
3280.922	5321
3282.682	5397
3284.441	5464
3286.199	5343
3287.959	5355
3289.716	5354
3291.475	5330
3293.232	5426
3294.988	5365
3296.744	5359
3298.501	5395
3300.256	5325
3302.011	5374
3303.766	5395
3305.52	5311
3307.275	5333
3309.028	5346
3310.781	5410
3312.533	5345
3314.285	5335
3316.038	5311
3317.789	5476
3319.54	5282
3321.289	5318
3323.039	5390
3324.789	5305
3326.539	5354
3328.288	5343
3330.035	5361
3331.783	5294
3333.531	5293
3335.28	5347
3337.025	5219
3338.771	5277
3340.518	5297
3342.262	5260
3344.009	5316
3345.753	5315
3347.497	5269
3349.24	5138
3350.983	5202
3352.726	5265
3354.469	5218
3356.212	5165
3357.952	5177
3359.694	5166
3361.434	5229
3363.176	5228
3364.916	5257
3366.654	5115
3368.394	5154
3370.132	5186
3371.871	5147
3373.61	5118
3375.346	5131
3377.083	5057
3378.82	5091
3380.556	5212
3382.292	5154
3384.027	5167
3385.763	5032
3387.497	5122
3389.231	5151
3390.965	5071
3392.698	5068
3394.431	5021
3396.164	5093
3397.896	5101
3399.627	5071
3401.36	5076
3403.09	5058
3404.82	5169
3406.55	5061
3408.279	5103
3410.01	5124
3411.738	5114
3413.467	5048
3415.194	4996
3416.92	4958
3418.647	4974
3420.375	4996
3422.102	5022
3423.827	4958
3425.553	4966
3427.277	5043
3429.003	4917
3430.727	4978
3432.451	5033
3434.173	4995
3435.896	4945
3437.62	5074
3439.343	4997
3441.063	4912
3442.785	4902
3444.505	4810
3446.226	4938
3447.948	4851
3449.666	4830
3451.386	4989
3453.104	4890
3454.823	4863
3456.541	4803
3458.259	4845
3459.976	4952
3461.693	4951
3463.408	4919
3465.125	4803
3466.841	4819
3468.556	4767
3470.271	4876
3471.985	4838
3473.698	4842
3475.414	4870
3477.126	4772
3478.838	4848
3480.55	4839
3482.263	4675
3483.975	4848
3485.686	4865
3487.396	4734
3489.106	4649
3490.817	4767
3492.526	4677
3494.236	4763
3495.944	4822
3497.652	4764
3499.359	4713
3501.066	4642
3502.775	4624
3504.481	4708
3506.187	4569
3507.893	4653
3509.598	4697
3511.304	4705
3513.009	4689
3514.713	4611
3516.417	4671
3518.12	4644
3519.821	4656
3521.525	4604
3523.228	4664
3524.929	4634
3526.631	4465
3528.33	4643
3530.032	4585
3531.733	4633
3533.433	4532
3535.131	4606
3536.83	4584
3538.529	4587
3540.227	4545
3541.925	4580
3543.623	4468
3545.319	4536
3547.016	4610
3548.712	4471
3550.408	4524
3552.103	4440
3553.798	4500
3555.491	4522
3557.188	4514
3558.88	4494
3560.574	4491
3562.266	4475
3563.959	4528
3565.651	4418
3567.343	4505
3569.035	4397
3570.725	4502
3572.415	4352
3574.106	4506
3575.797	4408
3577.485	4446
3579.174	4514
3580.863	4405
3582.551	4446
3584.238	4374
3585.926	4266
3587.613	4412
3589.3	4330
3590.986	4379
3592.671	4275
3594.357	4357
3596.042	4399
3597.726	4386
3599.41	4369
3601.094	4367
3602.778	4359
3604.461	4332
3606.143	4313
3607.825	4328
3609.507	4315
3611.188	4262
3612.87	4216
3614.551	4306
3616.229	4272
3617.909	4148
3619.589	4308
3621.269	4332
3622.948	4265
3624.625	4273
3626.302	4268
3627.98	4207
3629.657	4187
3631.334	4338
3633.01	4170
3634.686	4163
3636.361	4186
3638.036	4200
3639.712	4232
3641.385	4267
3643.06	4173
3644.732	4232
3646.405	4234
3648.08	4186
3649.751	4205
3651.424	4140
3653.094	4234
3654.766	4129
3656.436	4233
3658.106	4057
3659.777	4155
3661.446	4172
3663.115	4088
3664.783	4127
3666.452	4105
3668.121	4192
3669.788	4110
3671.454	4120
3673.121	4084
3674.789	4054
3676.455	4187
3678.12	4048
3679.784	4117
3681.45	4144
3683.114	4158
3684.779	4039
3686.442	4149
3688.105	4046
3689.768	4046
3691.43	3955
3693.093	4018
3694.754	4011
3696.415	4144
3698.076	4079
3699.736	4048
3701.396	4056
3703.057	3958
3704.716	4040
3706.375	4009
3708.034	4011
3709.692	4127
3711.351	4076
3713.008	3967
3714.665	4041
3716.321	4048
3717.977	3966
3719.634	3998
3721.29	4027
3722.945	4088
3724.598	4003
3726.253	4002
3727.907	4036
3729.561	3949
3731.214	3986
3732.867	3928
3734.518	3893
3736.171	3977
3737.824	3960
3739.474	3918
3741.125	3987
3742.775	3873
3744.425	3945
3746.074	3922
3747.725	3959
3749.373	3933
3751.022	3885
3752.669	3882
3754.318	3946
3755.966	4040
3757.612	3829
3759.259	3871
3760.905	3970
3762.55	3907
3764.197	3892
3765.842	3890
3767.486	3842
3769.131	3957
3770.774	3874
3772.417	3853
3774.061	3854
3775.705	3888
3777.347	3871
3778.988	3872
3780.629	3908
3782.271	3829
3783.912	3870
3785.552	3932
3787.192	3866
3788.831	3838
3790.472	3749
3792.112	3909
3793.75	3853
3795.388	3834
3797.024	3858
3798.661	3780
3800.3	3836
3801.936	3840
3803.572	3807
3805.208	3857
3806.844	3769
3808.48	3848
3810.115	3803
3811.748	3746
3813.382	3805
3815.016	3631
3816.649	3821
3818.283	3787
3819.914	3767
3821.547	3749
3823.178	3703
3824.809	3830
3826.441	3728
3828.072	3694
3829.701	3755
3831.331	3745
3832.96	3682
3834.591	3625
3836.219	3754
3837.847	3725
3839.475	3703
3841.102	3770
3842.729	3706
3844.357	3725
3845.984	3622
3847.609	3699
3849.234	3704
3850.86	3694
3852.485	3604
3854.11	3630
3855.734	3701
3857.357	3614
3858.981	3642
3860.603	3673
3862.227	3713
3863.848	3657
3865.471	3663
3867.092	3686
3868.713	3582
3870.334	3627
3871.954	3625
3873.575	3626
3875.194	3589
3876.813	3661
3878.433	3602
3880.051	3593
3881.669	3613
3883.286	3607
3884.904	3661
3886.52	3671
3888.138	3595
3889.754	3587
3891.37	3722
3892.985	3653
3894.6	3614
3896.216	3631
3897.831	3595
3899.444	3655
3901.058	3612
3902.67	3562
3904.283	3519
3905.897	3539
3907.509	3557
3909.121	3569
3910.731	3538
3912.342	3543
3913.954	3524
3915.563	3589
3917.174	3570
3918.783	3604
3920.391	3560
3922.002	3537
3923.611	3556
3925.218	3572
3926.826	3544
3928.432	3558
3930.039	3532
3931.647	3532
3933.253	3576
3934.859	3498
3936.464	3554
3938.068	3610
3939.675	3546
3941.278	3513
3942.883	3513
3944.486	3475
3946.089	3520
3947.692	3520
3949.295	3502
3950.898	3519
3952.499	3524
3954.1	3504
3955.7	3496
3957.303	3504
3958.903	3534
3960.502	3462
3962.101	3424
3963.7	3484
3965.301	3458
3966.899	3432
3968.497	3516
3970.094	3434
3971.691	3462
3973.288	3507
3974.885	3453
3976.481	3413
3978.077	3492
3979.672	3410
3981.267	3399
3982.863	3371
3984.457	3474
3986.051	3497
3987.645	3435
3989.238	3357
3990.831	3443
3992.425	3490
3994.017	3410
3995.607	3348
3997.199	3340
3998.79	3400
4000.382	3294
4001.973	3413
4003.561	3426
4005.151	3317
4006.741	3278
4008.331	3346
4009.918	3307
4011.507	3322
4013.095	3370
4014.681	3261
4016.269	3316
4017.856	3422
4019.443	3322
4021.028	3341
4022.614	3275
4024.199	3302
4025.785	3225
4027.37	3250
4028.953	3288
4030.536	3318
4032.12	3281
4033.704	3249
4035.287	3291
4036.869	3278
4038.45	3326
4040.032	3222
4041.613	3170
4043.195	3287
4044.776	3309
4046.356	3219
4047.935	3261
4049.515	3284
4051.095	3228
4052.674	3251
4054.251	3241
4055.829	3270
4057.406	3202
4058.985	3219
4060.562	3258
4062.139	3230
4063.715	3189
4065.29	3253
4066.865	3139
4068.442	3162
4070.016	3199
4071.59	3252
4073.164	3172
4074.738	3189
4076.312	3176
4077.885	3187
4079.458	3221
4081.03	3190
4082.602	3222
4084.173	3149
4085.745	3217
4087.315	3153
4088.886	3134
4090.456	3180
4092.026	3204
4093.596	3086
4095.165	3152
4096.734	3216
4098.301	3137
4099.869	3107
4101.437	3151
4103.006	3154
4104.572	3152
4106.139	3156
4107.704	3119
4109.27	3216
4110.837	3113
4112.401	3109
4113.966	3114
4115.53	3072
4117.094	3053
4118.659	3143
4120.223	3126
4121.785	3090
4123.347	3114
4124.909	3070
4126.471	3048
4128.034	3080
4129.595	3057
4131.155	3043
4132.716	3057
4134.275	3056
4135.836	3084
4137.395	3090
4138.955	3024
4140.513	3044
4142.071	3037
4143.628	2926
4145.188	3112
4146.745	2980
4148.302	3064
4149.858	3030
4151.414	2987
4152.971	3051
4154.526	2961
4156.081	3005
4157.635	2985
4159.189	2965
4160.745	2965
4162.298	3016
4163.852	3028
4165.405	3011
4166.957	3000
4168.51	2986
4170.063	2941
4171.614	3041
4173.166	3039
4174.717	2937
4176.267	2959
4177.817	2921
4179.368	2970
4180.917	3004
4182.466	2992
4184.016	2992
4185.564	2893
4187.112	2979
4188.66	2927
4190.207	2865
4191.754	2968
4193.301	2959
4194.848	2982
4196.394	2910
4197.94	2913
4199.484	2958
4201.03	2924
4202.575	2931
4204.12	2919
4205.663	2861
4207.207	2920
4208.75	2886
4210.292	2927
4211.836	2895
4213.378	2857
4214.92	2880
4216.46	2772
4218.002	2850
4219.544	2899
4221.083	2860
4222.625	2881
4224.164	2826
4225.703	2849
4227.244	2878
4228.782	2864
4230.32	2868
4231.857	2830
4233.395	2834
4234.933	2821
4236.471	2900
4238.007	2863
4239.542	2807
4241.078	2883
4242.614	2823
4244.15	2837
4245.685	2824
4247.219	2849
4248.753	2777
4250.287	2844
4251.82	2856
4253.354	2827
4254.887	2805
4256.419	2808
4257.951	2805
4259.483	2790
4261.016	2875
4262.547	2814
4264.078	2802
4265.608	2791
4267.137	2765
4268.668	2807
4270.197	2736
4271.727	2843
4273.254	2763
4274.783	2779
4276.311	2733
4277.84	2829
4279.366	2746
4280.894	2674
4282.42	2777
4283.946	2732
4285.473	2748
4286.998	2748
4288.523	2730
4290.047	2724
4291.572	2745
4293.096	2805
4294.622	2711
4296.144	2723
4297.668	2778
4299.19	2755
4300.713	2793
4302.236	2748
4303.758	2723
4305.279	2800
4306.799	2677
4308.321	2691
4309.842	2764
4311.361	2739
4312.882	2745
4314.401	2696
