400.0961	6458
402.6185	6449
405.1424	6532
407.6635	6594
410.1838	6486
412.7035	6572
415.2225	6529
417.7388	6627
420.2585	6644
422.7754	6795
425.2917	6764
427.8072	6874
430.3221	6932
432.8363	6834
435.3498	6913
437.8626	6951
440.3727	6883
442.8841	7070
445.3969	7073
447.907	7014
450.4142	6948
452.9229	6954
455.4289	7049
457.9362	6967
460.4449	6818
462.9488	7001
465.454	7090
467.9566	6874
470.4604	6916
472.9637	7114
475.4662	7057
477.966	7004
480.4671	6964
482.9656	7074
485.4633	7066
487.9645	7097
490.4608	7215
492.9566	7110
495.4536	7031
497.948	7254
500.4437	7085
502.9387	7098
505.431	7197
507.9226	7198
510.4136	7290
512.9079	7374
515.3975	7270
517.8864	7335
520.3746	7325
522.8622	7325
525.3491	7354
527.8394	7225
530.3249	7419
532.8098	7251
535.2939	7257
537.7774	7336
540.2623	7311
542.7444	7311
545.2259	7361
547.7067	7218
550.1868	7463
552.6683	7465
555.147	7266
557.6231	7367
560.1005	7404
562.5773	7487
565.0534	7420
567.5308	7452
570.0056	7531
572.4776	7446
574.951	7540
577.4237	7513
579.8978	7639
582.3671	7648
584.8378	7688
587.3079	7690
589.7773	7605
592.244	7713
594.714	7542
597.1793	7709
599.6461	7484
602.1121	7513
604.5754	7537
607.0421	7684
609.5042	7579
611.9675	7667
614.4282	7598
616.8902	7463
619.3515	7539
621.8122	7668
624.2702	7633
626.7296	7568
629.1863	7501
631.6423	7450
634.1017	7545
636.5563	7484
639.0104	7513
641.4658	7616
643.9185	7550
646.3725	7654
648.8239	7538
651.2766	7591
653.7266	7584
656.176	7734
658.6247	7652
661.0748	7783
663.5242	7758
665.9709	7760
668.417	7717
670.8624	7725
673.3092	7785
675.7533	7890
678.1968	7812
680.6395	7828
683.0817	7986
685.5251	7947
687.9659	7901
690.4061	7867
692.8456	7771
695.2844	7851
697.7226	7824
700.1621	7778
702.599	7906
705.0332	7905
707.4688	7969
709.9036	7892
712.3399	8078
714.7735	7876
717.2044	8011
719.6367	8131
722.0683	8020
724.4993	8041
726.9296	8101
729.3593	8095
731.7883	8113
734.2147	8118
736.6423	8184
739.0714	8160
741.4958	8086
743.9216	8295
746.3447	8304
748.7691	8353
751.1929	8387
753.616	8420
756.0366	8421
758.4584	8315
760.8776	8306
763.2982	8417
765.718	8455
768.1373	8516
770.5539	8479
772.9698	8441
775.3871	8315
777.8038	8583
780.2178	8495
782.6332	8593
785.0459	8425
787.458	8489
789.8714	8416
792.2842	8405
794.6943	8403
797.1038	8455
799.5127	8542
801.9209	8465
804.3324	8522
806.7393	8522
809.1456	8570
811.5513	8657
813.9562	8555
816.3625	8495
818.7663	8477
821.1693	8602
823.5718	8463
825.9735	8609
828.3746	8576
830.7771	8608
833.177	8668
835.5762	8670
837.9747	8629
840.3727	8644
842.772	8586
845.1666	8649
847.5626	8737
849.958	8707
852.3527	8804
854.7488	8815
857.1403	8714
859.5331	8797
861.9253	8854
864.3168	8716
866.7057	8825
869.098	8749
871.4876	8680
873.8746	8593
876.263	8756
878.6487	8840
881.0378	8768
883.4243	8729
885.8081	8702
888.1933	8822
890.5759	8662
892.9598	8844
895.343	8837
897.7256	8687
900.1057	8754
902.4871	8744
904.8659	8920
907.246	8780
909.6254	8934
912.0023	8899
914.3786	8979
916.7562	8938
919.1331	9126
921.5074	9086
923.8831	9058
926.2562	9129
928.6287	9170
931.0005	9209
933.3757	9162
935.7462	9206
938.1162	9208
940.4855	9274
942.8542	9278
945.2242	9458
947.5916	9478
949.9584	9704
952.3266	9860
954.6921	10108
957.0571	10602
959.4233	10778
961.787	10750
964.15	10794
966.5125	10694
968.8742	10267
971.2354	9765
973.5959	9539
975.9559	9288
978.3151	9367
980.6738	9210
983.0338	9238
985.3912	9089
987.7461	9093
990.1022	8981
992.4578	9001
994.8127	9089
997.1689	9032
999.5207	9069
1001.874	9115
1004.226	9085
1006.576	9088
1008.929	9048
1011.28	9038
1013.628	9003
1015.977	9029
1018.324	9090
1020.674	9168
1023.019	9212
1025.366	9198
1027.713	9074
1030.056	9259
1032.399	9165
1034.746	9262
1037.087	9100
1039.431	9218
1041.771	9229
1044.113	9072
1046.454	9294
1048.793	9332
1051.133	9361
1053.471	9337
1055.807	9304
1058.146	9208
1060.483	9339
1062.818	9361
1065.153	9376
1067.489	9312
1069.822	9417
1072.156	9567
1074.488	9408
1076.82	9397
1079.15	9433
1081.48	9399
1083.814	9318
1086.143	9401
1088.471	9277
1090.799	9317
1093.126	9319
1095.452	9334
1097.78	9105
1100.105	9270
1102.43	9427
1104.754	9616
1107.077	9397
1109.4	9327
1111.722	9328
1114.044	9313
1116.365	9275
1118.685	9383
1121.005	9274
1123.324	9437
1125.643	9466
1127.961	9463
1130.278	9390
1132.595	9351
1134.911	9329
1137.226	9425
1139.541	9447
1141.854	9315
1144.167	9358
1146.482	9217
1148.793	9341
1151.105	9444
1153.414	9360
1155.725	9379
1158.033	9345
1160.344	9370
1162.651	9338
1164.959	9326
1167.265	9262
1169.572	9428
1171.878	9364
1174.184	9368
1176.488	9391
1178.79	9488
1181.094	9447
1183.396	9415
1185.699	9381
1188.001	9543
1190.301	9224
1192.6	9309
1194.9	9420
1197.2	9221
1199.497	9421
1201.794	9263
1204.09	9380
1206.387	9275
1208.684	9381
1210.978	9441
1213.272	9330
1215.565	9460
1217.858	9434
1220.15	9408
1222.443	9595
1224.734	9416
1227.024	9598
1229.313	9583
1231.602	9511
1233.892	9530
1236.18	9529
1238.467	9554
1240.754	9616
1243.04	9700
1245.325	9557
1247.612	9605
1249.896	9732
1252.178	9607
1254.461	9654
1256.743	9764
1259.027	9766
1261.308	9760
1263.587	9728
1265.867	9653
1268.146	9702
1270.425	9613
1272.703	9710
1274.981	9823
1277.256	9759
1279.532	9766
1281.808	9708
1284.083	9613
1286.358	9596
1288.63	9551
1290.904	9687
1293.175	9628
1295.449	9661
1297.719	9554
1299.99	9684
1302.259	9490
1304.529	9464
1306.798	9620
1309.065	9648
1311.333	9526
1313.599	9662
1315.866	9467
1318.131	9677
1320.396	9658
1322.66	9534
1324.925	9719
1327.187	9776
1329.448	9604
1331.711	9657
1333.974	9685
1336.234	9587
1338.493	9673
1340.752	9628
1343.01	9734
1345.269	9686
1347.526	9617
1349.784	9706
1352.04	9597
1354.295	9635
1356.552	9732
1358.806	9628
1361.059	9635
1363.312	9598
1365.564	9507
1367.818	9526
1370.069	9611
1372.318	9610
1374.568	9647
1376.817	9597
1379.066	9672
1381.316	9599
1383.564	9686
1385.809	9773
1388.056	9750
1390.301	9734
1392.549	9672
1394.793	9851
1397.036	9783
1399.279	9735
1401.522	9773
1403.763	9927
1406.007	9847
1408.248	9882
1410.487	9902
1412.727	9843
1414.965	9776
1417.205	9914
1419.442	9912
1421.68	9904
1423.915	9905
1426.152	9778
1428.388	10030
1430.623	9888
1432.857	9880
1435.091	9940
1437.323	9914
1439.556	10103
1441.789	9994
1444.019	10110
1446.25	9967
1448.48	9995
1450.708	10029
1452.938	10026
1455.167	10127
1457.394	10045
1459.62	10083
1461.846	9999
1464.073	10083
1466.299	10148
1468.523	9950
1470.746	9837
1472.969	9792
1475.191	9658
1477.415	9935
1479.636	9828
1481.858	9716
1484.078	9747
1486.298	9829
1488.518	9646
1490.736	9783
1492.954	9764
1495.169	9549
1497.386	9719
1499.602	9630
1501.819	9826
1504.034	9567
1506.248	9622
1508.462	9714
1510.675	9580
1512.888	9639
1515.1	9636
1517.311	9594
1519.522	9673
1521.732	9604
1523.942	9683
1526.151	9547
1528.36	9686
1530.566	9623
1532.773	9624
1534.98	9760
1537.187	9626
1539.392	9755
1541.596	9709
1543.801	9734
1546.005	9673
1548.208	9735
1550.411	9766
1552.612	9599
1554.814	9916
1557.013	9759
1559.212	9919
1561.414	9782
1563.612	9748
1565.811	9808
1568.007	9741
1570.203	9857
1572.403	9758
1574.598	9957
1576.792	9782
1578.988	9953
1581.181	9893
1583.376	9838
1585.568	9957
1587.761	9913
1589.952	9937
1592.143	9987
1594.333	9908
1596.524	9891
1598.715	9974
1600.903	9901
1603.091	9933
1605.278	10067
1607.466	10004
1609.652	9881
1611.838	10020
1614.023	10090
1616.207	9954
1618.391	9984
1620.576	9968
1622.759	10132
1624.941	9963
1627.123	9897
1629.304	10082
1631.484	9989
1633.664	10161
1635.844	10075
1638.022	9954
1640.201	10063
1642.38	10143
1644.556	9947
1646.732	10213
1648.908	9972
1651.084	10173
1653.257	9937
1655.433	10111
1657.607	10106
1659.779	10325
1661.951	10162
1664.122	10053
1666.295	10326
1668.467	10175
1670.635	10144
1672.805	10008
1674.973	10132
1677.142	10135
1679.31	10307
1681.478	10071
1683.644	10283
1685.81	10134
1687.975	10242
1690.142	10348
1692.305	10160
1694.468	10073
1696.632	10016
1698.794	10105
1700.957	10026
1703.119	10012
1705.279	9917
1707.439	9844
1709.598	9975
1711.758	9976
1713.917	9933
1716.075	9978
1718.231	9967
1720.388	9854
1722.543	9964
1724.702	9928
1726.856	9845
1729.01	9953
1731.164	9968
1733.317	9911
1735.471	9976
1737.623	10046
1739.774	9877
1741.925	9960
1744.075	9956
1746.225	9969
1748.376	9991
1750.524	10039
1752.672	10059
1754.82	9962
1756.965	9990
1759.113	9880
1761.259	9839
1763.405	9988
1765.549	9939
1767.694	10085
1769.836	10015
1771.981	10052
1774.123	10075
1776.264	9915
1778.405	9981
1780.546	10098
1782.687	10047
1784.827	9982
1786.966	10021
1789.103	10056
1791.242	10059
1793.381	10023
1795.517	10059
1797.653	10090
1799.788	10113
1801.923	10030
1804.057	10179
1806.193	9980
1808.326	10039
1810.457	9851
1812.59	9919
1814.721	10020
1816.855	10025
1818.984	10134
1821.113	10075
1823.244	9951
1825.372	9951
1827.499	10029
1829.63	10019
1831.756	9956
1833.882	9972
1836.007	9814
1838.132	9944
1840.26	9892
1842.384	10069
1844.507	9916
1846.63	9961
1848.752	9930
1850.875	10010
1852.996	9977
1855.118	9867
1857.238	9982
1859.358	9926
1861.477	9842
1863.597	9943
1865.715	9935
1867.832	9899
1869.948	9849
1872.064	9838
1874.181	9812
1876.297	9894
1878.411	9916
1880.526	9957
1882.639	9925
1884.752	9972
1886.865	9939
1888.977	9968
1891.089	9951
1893.2	9965
1895.308	9987
1897.42	10016
1899.53	9947
1901.639	9997
1903.745	10056
1905.853	10088
1907.962	9908
1910.067	9870
1912.174	10141
1914.278	10079
1916.383	10021
1918.486	10100
1920.592	10087
1922.694	10081
1924.797	10126
1926.898	10160
1929	10190
1931.102	10046
1933.203	10197
1935.301	10070
1937.401	10061
1939.499	9941
1941.598	10128
1943.697	9890
1945.793	10167
1947.888	10146
1949.985	10080
1952.08	10088
1954.176	9994
1956.269	10108
1958.364	10045
1960.457	9979
1962.549	10060
1964.642	9876
1966.733	10219
1968.823	9970
1970.913	10028
1973.005	9972
1975.093	9903
1977.184	9987
1979.271	10035
1981.359	10085
1983.446	10068
1985.532	10054
1987.619	10045
1989.705	9862
1991.789	9998
1993.874	9941
1995.956	9923
1998.041	9957
2000.123	9869
2002.206	9969
2004.287	9971
2006.368	10032
2008.449	9906
2010.529	9993
2012.609	10087
2014.688	10021
2016.766	9963
2018.843	9835
2020.922	9978
2022.999	9895
2025.074	9883
2027.15	9960
2029.225	9885
2031.299	9915
2033.375	9940
2035.447	9816
2037.52	9859
2039.592	9996
2041.664	9875
2043.736	9976
2045.807	9847
2047.876	9995
2049.947	9989
2052.015	9924
2054.086	9965
2056.153	9927
2058.221	9899
2060.288	10029
2062.353	9771
2064.42	9882
2066.486	9981
2068.55	9903
2070.614	9933
2072.678	9969
2074.741	10048
2076.805	9985
2078.866	9962
2080.929	9957
2082.99	9872
2085.049	9892
2087.109	10002
2089.17	9914
2091.228	9992
2093.286	9934
2095.344	10090
2097.4	9969
2099.46	9988
2101.516	9982
2103.572	10038
2105.626	10000
2107.679	9872
2109.735	9779
2111.788	9805
2113.841	10000
2115.894	9935
2117.945	9823
2119.997	10038
2122.049	9979
2124.1	10070
2126.148	9849
2128.197	9811
2130.246	9809
2132.296	9849
2134.342	9874
2136.39	10026
2138.437	9847
2140.483	9872
2142.527	9864
2144.574	9842
2146.619	9673
2148.661	9884
2150.705	9917
2152.747	9830
2154.792	9864
2156.832	9810
2158.874	9833
2160.915	9838
2162.954	9833
2164.995	9856
2167.034	9736
2169.072	9810
2171.111	9916
2173.148	9717
2175.186	9810
2177.223	9894
2179.258	9823
2181.294	9720
2183.328	9639
2185.362	9723
2187.398	9710
2189.431	9660
2191.463	9786
2193.495	9878
2195.528	9606
2197.56	9710
2199.59	9813
2201.62	9625
2203.649	9775
2205.678	9614
2207.708	9720
2209.737	9566
2211.764	9809
2213.791	9606
2215.817	9549
2217.843	9744
2219.87	9607
2221.895	9680
2223.919	9568
2225.942	9511
2227.966	9558
2229.988	9606
2232.012	9525
2234.032	9600
2236.054	9703
2238.074	9569
2240.095	9671
2242.116	9697
2244.135	9647
2246.153	9531
2248.171	9518
2250.188	9593
2252.208	9570
2254.223	9600
2256.239	9746
2258.255	9626
2260.269	9529
2262.283	9517
2264.3	9663
2266.312	9497
2268.325	9545
2270.336	9518
2272.349	9619
2274.362	9504
2276.372	9622
2278.383	9550
2280.392	9643
2282.402	9460
2284.409	9605
2286.418	9584
2288.427	9758
2290.433	9562
2292.441	9623
2294.446	9566
2296.453	9582
2298.459	9595
2300.463	9742
2302.466	9584
2304.471	9511
2306.475	9556
2308.477	9448
2310.478	9400
2312.481	9516
2314.481	9628
2316.481	9484
2318.482	9343
2320.482	9554
2322.48	9498
2324.48	9535
2326.478	9571
2328.476	9483
2330.473	9488
2332.469	9473
2334.465	9406
2336.46	9439
2338.454	9357
2340.45	9383
2342.444	9358
2344.437	9430
2346.43	9455
2348.421	9336
2350.414	9373
2352.405	9425
2354.396	9328
2356.386	9345
2358.376	9381
2360.366	9414
2362.355	9323
2364.343	9336
2366.331	9466
2368.317	9195
2370.304	9252
2372.292	9351
2374.278	9310
2376.262	9165
2378.247	9347
2380.23	9261
2382.216	9151
2384.199	9191
2386.181	9272
2388.163	9332
2390.144	9191
2392.127	9265
2394.107	9165
2396.087	9157
2398.066	9129
2400.046	9254
2402.023	9223
2404.004	9227
2405.981	9279
2407.957	9228
2409.934	9250
2411.91	9214
2413.886	9041
2415.862	9144
2417.836	9195
2419.809	9109
2421.784	9238
2423.756	9146
2425.73	9220
2427.701	9246
2429.672	9121
2431.644	9090
2433.615	9190
2435.586	9251
2437.555	9092
2439.523	9177
2441.491	9040
2443.459	9239
2445.428	9029
2447.395	9245
2449.361	9270
2451.327	9122
2453.292	9171
2455.257	9198
2457.223	9139
2459.187	9103
2461.15	9066
2463.113	9147
2465.076	9245
2467.039	9088
2468.999	8993
2470.96	9039
2472.921	9083
2474.881	9060
2476.841	9166
2478.8	9103
2480.759	9013
2482.717	9085
2484.675	9168
2486.63	8991
2488.589	8991
2490.545	8925
2492.5	8973
2494.455	9035
2496.408	9036
2498.364	9090
2500.318	8886
2502.27	8885
2504.223	9035
2506.174	8819
2508.126	8931
2510.078	8956
2512.03	9000
2513.979	9033
2515.927	8937
2517.877	9104
2519.826	9063
2521.775	8966
2523.722	9002
2525.668	8959
2527.616	8923
2529.561	8975
2531.508	8959
2533.452	8970
2535.398	8937
2537.342	8992
2539.284	8873
2541.229	8963
2543.173	8857
2545.114	8970
2547.055	8923
2548.996	8904
2550.938	8978
2552.878	8834
2554.817	8877
2556.756	8912
2558.695	8906
2560.633	8991
2562.572	8944
2564.509	8789
2566.445	8880
2568.382	8867
2570.317	8818
2572.254	8851
2574.189	8941
2576.123	8874
2578.057	8753
2579.99	8872
2581.923	8959
2583.855	8927
2585.788	8877
2587.719	8930
2589.65	8858
2591.579	8822
2593.511	8947
2595.44	8857
2597.37	8874
2599.297	9022
2601.225	8834
2603.153	8712
2605.08	8937
2607.007	8920
2608.932	8863
2610.858	8840
2612.782	8902
2614.709	8953
2616.632	8744
2618.556	8924
2620.478	8960
2622.401	8880
2624.324	8920
2626.247	8869
2628.167	8855
2630.088	8792
2632.008	8673
2633.928	8937
2635.848	8807
2637.766	8788
2639.684	8931
2641.603	8952
2643.519	8870
2645.437	8869
2647.353	8831
2649.27	8826
2651.184	8945
2653.099	8866
2655.014	8795
2656.928	8972
2658.842	8897
2660.755	8861
2662.667	8953
2664.579	8806
2666.491	8821
2668.402	8780
2670.312	8845
2672.222	8752
2674.132	8682
2676.042	8836
2677.951	8708
2679.859	8858
2681.766	8798
2683.674	8875
2685.582	8720
2687.488	8848
2689.392	8702
2691.298	8688
2693.202	8692
2695.107	8882
2697.012	8755
2698.914	8903
2700.817	8698
2702.72	8655
2704.622	8685
2706.524	8670
2708.425	8703
2710.326	8739
2712.225	8642
2714.125	8607
2716.024	8727
2717.923	8655
2719.822	8614
2721.719	8610
2723.616	8675
2725.512	8752
2727.41	8732
2729.305	8649
2731.201	8592
2733.095	8557
2734.99	8623
2736.884	8672
2738.778	8615
2740.67	8422
2742.562	8542
2744.455	8615
2746.346	8457
2748.238	8549
2750.129	8572
2752.018	8501
2753.907	8628
2755.797	8594
2757.687	8669
2759.575	8526
2761.462	8593
2763.349	8505
2765.237	8475
2767.124	8551
2769.009	8586
2770.894	8501
2772.779	8619
2774.663	8543
2776.547	8442
2778.431	8688
2780.314	8670
2782.197	8505
2784.078	8596
2785.96	8555
2787.842	8468
2789.723	8527
2791.603	8533
2793.483	8351
2795.362	8699
2797.241	8337
2799.121	8468
2800.997	8491
2802.874	8548
2804.751	8363
2806.628	8475
2808.506	8404
2810.38	8464
2812.255	8430
2814.13	8483
2816.003	8509
2817.878	8487
2819.752	8496
2821.623	8428
2823.496	8494
2825.368	8467
2827.238	8421
2829.111	8420
2830.98	8351
2832.851	8490
2834.719	8428
2836.589	8450
2838.458	8460
2840.327	8337
2842.193	8367
2844.061	8435
2845.927	8343
2847.794	8468
2849.66	8412
2851.525	8425
2853.39	8530
2855.254	8488
2857.117	8447
2858.983	8566
2860.845	8576
2862.707	8602
2864.569	8719
2866.431	8614
2868.293	8419
2870.154	8672
2872.013	8751
2873.873	8568
2875.733	8870
2877.592	8892
2879.451	8838
2881.309	8845
2883.166	8949
2885.022	9049
2886.879	8992
2888.736	8949
2890.591	8995
2892.446	9069
2894.301	8989
2896.155	8955
2898.009	9013
2899.863	8911
2901.716	8975
2903.568	9035
2905.419	8962
2907.27	8886
2909.123	9008
2910.973	8895
2912.824	9007
2914.673	9013
2916.521	9025
2918.372	9273
2920.22	9366
2922.067	9276
2923.914	9382
2925.761	9314
2927.607	9333
2929.455	9474
2931.301	9506
2933.144	9470
2934.99	9526
2936.833	9598
2938.678	9676
2940.522	9757
2942.364	9754
2944.207	9933
2946.048	9885
2947.891	9931
2949.731	9905
2951.571	9889
2953.412	9870
2955.25	9732
2957.09	9794
2958.93	9638
2960.767	9702
2962.606	9469
2964.443	9543
2966.279	9431
2968.116	9421
2969.953	9339
2971.788	9194
2973.623	9037
2975.457	9031
2977.292	9075
2979.127	9045
2980.959	9036
2982.792	8796
2984.624	8868
2986.455	8893
2988.288	8799
2990.119	8750
2991.949	8721
2993.779	8714
2995.608	8480
2997.439	8686
2999.268	8755
3001.096	8597
3002.923	8589
3004.751	8555
3006.578	8464
3008.406	8346
3010.232	8142
3012.057	8158
3013.883	8337
3015.706	8290
3017.532	8164
3019.356	8146
3021.179	8155
3023.002	8140
3024.823	8038
3026.646	8156
3028.469	8114
3030.289	8059
3032.11	8078
3033.93	8070
3035.749	7966
3037.57	7903
3039.39	8049
3041.207	7963
3043.026	7810
3044.842	7945
3046.661	7810
3048.477	7965
3050.294	7990
3052.109	7977
3053.925	7881
3055.739	7831
3057.555	7923
3059.368	7767
3061.181	7887
3062.995	7808
3064.807	7963
3066.62	7803
3068.433	7753
3070.243	7874
3072.054	7729
3073.865	7746
3075.675	7737
3077.485	7720
3079.293	7785
3081.102	7848
3082.911	7794
3084.719	7712
3086.527	7696
3088.333	7653
3090.139	7769
3091.945	7680
3093.75	7724
3095.557	7505
3097.361	7567
3099.165	7742
3100.969	7594
3102.772	7644
3104.575	7663
3106.379	7613
3108.181	7635
3109.982	7626
3111.783	7619
3113.584	7579
3115.386	7503
3117.186	7695
3118.985	7521
3120.783	7558
3122.582	7482
3124.381	7455
3126.179	7549
3127.975	7543
3129.772	7401
3131.569	7523
3133.365	7499
3135.161	7535
3136.956	7444
3138.751	7435
3140.544	7467
3142.338	7408
3144.132	7436
3145.925	7483
3147.717	7445
3149.509	7411
3151.301	7407
3153.091	7231
3154.884	7502
3156.673	7414
3158.462	7393
3160.252	7458
3162.041	7394
3163.831	7343
3165.618	7267
3167.405	7416
3169.193	7255
3170.979	7352
3172.767	7467
3174.553	7349
3176.338	7237
3178.123	7265
3179.907	7292
3181.692	7246
3183.477	7245
3185.259	7311
3187.042	7280
3188.824	7371
3190.607	7294
3192.389	7206
3194.17	7283
3195.951	7238
3197.73	7219
3199.51	7214
3201.289	7112
3203.07	7278
3204.848	7260
3206.626	7333
3208.403	7351
3210.18	7150
3211.959	7303
3213.735	7221
3215.511	7184
3217.285	7150
3219.06	7177
3220.836	7179
3222.611	7210
3224.384	7221
3226.158	7252
3227.929	7102
3229.702	7095
3231.476	7324
3233.248	7213
3235.018	7171
3236.789	7204
3238.56	7131
3240.33	7168
3242.1	7284
3243.869	7228
3245.637	7094
3247.405	7246
3249.172	7220
3250.941	7170
3252.707	7119
3254.474	7127
3256.24	7158
3258.006	7260
3259.772	7067
3261.537	7182
3263.301	7244
3265.065	7296
3266.828	7211
3268.592	7088
3270.355	7119
3272.117	7169
3273.878	7057
3275.64	7119
3277.401	7243
3279.162	7213
3280.922	7124
3282.682	7029
3284.441	7159
3286.199	7279
3287.959	7201
3289.716	7141
3291.475	7233
3293.232	7124
3294.988	7147
3296.744	7028
3298.501	7088
3300.256	7075
3302.011	7097
3303.766	7201
3305.52	7092
3307.275	7245
3309.028	7027
3310.781	7066
3312.533	7125
3314.285	7035
3316.038	7076
3317.789	7122
3319.54	7064
3321.289	7069
3323.039	7108
3324.789	7086
3326.539	7055
3328.288	7064
3330.035	7173
3331.783	7111
3333.531	7050
3335.28	7085
3337.025	6896
3338.771	6982
3340.518	7038
3342.262	7123
3344.009	7043
3345.753	6928
3347.497	6998
3349.24	7015
3350.983	7025
3352.726	6941
3354.469	6948
3356.212	6869
3357.952	6848
3359.694	7054
3361.434	6979
3363.176	6927
3364.916	6904
3366.654	6975
3368.394	6944
3370.132	6945
3371.871	6871
3373.61	6883
3375.346	6877
3377.083	6896
3378.82	6941
3380.556	6907
3382.292	6907
3384.027	6798
3385.763	6832
3387.497	6792
3389.231	6851
3390.965	6916
3392.698	6825
3394.431	6881
3396.164	6760
3397.896	6992
3399.627	6844
3401.36	6854
3403.09	6935
3404.82	6838
3406.55	6885
3408.279	6683
3410.01	6853
3411.738	6767
3413.467	6892
3415.194	6773
3416.92	6801
3418.647	6800
3420.375	6742
3422.102	6769
3423.827	6879
3425.553	6723
3427.277	6743
3429.003	6552
3430.727	6666
3432.451	6664
3434.173	6718
3435.896	6641
3437.62	6608
3439.343	6665
3441.063	6611
3442.785	6574
3444.505	6667
3446.226	6665
3447.948	6581
3449.666	6517
3451.386	6619
3453.104	6572
3454.823	6587
3456.541	6634
3458.259	6579
3459.976	6499
3461.693	6564
3463.408	6623
3465.125	6520
3466.841	6468
3468.556	6374
3470.271	6618
3471.985	6412
3473.698	6406
3475.414	6500
3477.126	6416
3478.838	6427
3480.55	6477
3482.263	6417
3483.975	6433
3485.686	6402
3487.396	6363
3489.106	6397
3490.817	6460
3492.526	6389
3494.236	6329
3495.944	6291
3497.652	6249
3499.359	6385
3501.066	6440
3502.775	6298
3504.481	6182
3506.187	6362
3507.893	6270
3509.598	6196
3511.304	6301
3513.009	6241
3514.713	6405
3516.417	6276
3518.12	6312
3519.821	6335
3521.525	6315
3523.228	6282
3524.929	6275
3526.631	6199
3528.33	6235
3530.032	6148
3531.733	6259
3533.433	6214
3535.131	6135
3536.83	6174
3538.529	6227
3540.227	6125
3541.925	6179
3543.623	6119
3545.319	6175
3547.016	6118
3548.712	6085
3550.408	6075
3552.103	6083
3553.798	6029
3555.491	6017
3557.188	6010
3558.88	6127
3560.574	6039
3562.266	6092
3563.959	5981
3565.651	6065
3567.343	6047
3569.035	6108
3570.725	6008
3572.415	5988
3574.106	6131
3575.797	6044
3577.485	6051
3579.174	6063
3580.863	5967
3582.551	6063
3584.238	6046
3585.926	5958
3587.613	5999
3589.3	5844
3590.986	5958
3592.671	6003
3594.357	5889
3596.042	5974
3597.726	5847
3599.41	5998
3601.094	5817
3602.778	5851
3604.461	5806
3606.143	5891
3607.825	5927
3609.507	5813
3611.188	5798
3612.87	5714
3614.551	5844
3616.229	5834
3617.909	5769
3619.589	5725
3621.269	5756
3622.948	5782
3624.625	5744
3626.302	5717
3627.98	5645
3629.657	5744
3631.334	5694
3633.01	5658
3634.686	5650
3636.361	5704
3638.036	5733
3639.712	5686
3641.385	5581
3643.06	5611
3644.732	5647
3646.405	5639
3648.08	5635
3649.751	5635
3651.424	5622
3653.094	5607
3654.766	5532
3656.436	5558
3658.106	5606
3659.777	5720
3661.446	5691
3663.115	5568
3664.783	5521
3666.452	5602
3668.121	5598
3669.788	5536
3671.454	5610
3673.121	5591
3674.789	5548
3676.455	5561
3678.12	5597
3679.784	5399
3681.45	5596
3683.114	5524
3684.779	5525
3686.442	5539
3688.105	5424
3689.768	5488
3691.43	5577
3693.093	5530
3694.754	5505
3696.415	5413
3698.076	5570
3699.736	5439
3701.396	5406
3703.057	5490
3704.716	5469
3706.375	5426
3708.034	5495
3709.692	5428
3711.351	5439
3713.008	5445
3714.665	5417
3716.321	5449
3717.977	5471
3719.634	5446
3721.29	5325
3722.945	5390
3724.598	5362
3726.253	5291
3727.907	5353
3729.561	5358
3731.214	5308
3732.867	5378
3734.518	5427
3736.171	5346
3737.824	5268
3739.474	5270
3741.125	5353
3742.775	5302
3744.425	5387
3746.074	5372
3747.725	5340
3749.373	5320
3751.022	5330
3752.669	5300
3754.318	5294
3755.966	5321
3757.612	5313
3759.259	5287
3760.905	5219
3762.55	5234
3764.197	5201
3765.842	5254
3767.486	5267
3769.131	5282
3770.774	5137
3772.417	5208
3774.061	5239
3775.705	5342
3777.347	5186
3778.988	5100
3780.629	5224
3782.271	5177
3783.912	5196
3785.552	5179
3787.192	5212
3788.831	5123
3790.472	5199
3792.112	5089
3793.75	5197
3795.388	5137
3797.024	5032
3798.661	5095
3800.3	5212
3801.936	5095
3803.572	5096
3805.208	5115
3806.844	5040
3808.48	5070
3810.115	5055
3811.748	5186
3813.382	5020
3815.016	5062
3816.649	5112
3818.283	5037
3819.914	5055
3821.547	5122
3823.178	5126
3824.809	5101
3826.441	5077
3828.072	5076
3829.701	5036
3831.331	4980
3832.96	5060
3834.591	5055
3836.219	4953
3837.847	5037
3839.475	4959
3841.102	5025
3842.729	4966
3844.357	4988
3845.984	4995
3847.609	4962
3849.234	4962
3850.86	5021
3852.485	4965
3854.11	5040
3855.734	5036
3857.357	4945
3858.981	4846
3860.603	4873
3862.227	4977
3863.848	5013
3865.471	4894
3867.092	4981
3868.713	4839
3870.334	4881
3871.954	4889
3873.575	4863
3875.194	4970
3876.813	4867
3878.433	4861
3880.051	4961
3881.669	4893
3883.286	4858
3884.904	4828
3886.52	4803
3888.138	4927
3889.754	4863
3891.37	4865
3892.985	4781
3894.6	4817
3896.216	4875
3897.831	4807
3899.444	4916
3901.058	4771
3902.67	4844
3904.283	4830
3905.897	4904
3907.509	4806
3909.121	4776
3910.731	4820
3912.342	4769
3913.954	4876
3915.563	4751
3917.174	4768
3918.783	4829
3920.391	4765
3922.002	4814
3923.611	4749
3925.218	4796
3926.826	4723
3928.432	4701
3930.039	4741
3931.647	4767
3933.253	4769
3934.859	4740
3936.464	4742
3938.068	4739
3939.675	4819
3941.278	4669
3942.883	4771
3944.486	4709
3946.089	4748
3947.692	4769
3949.295	4767
3950.898	4666
3952.499	4750
3954.1	4716
3955.7	4664
3957.303	4665
3958.903	4668
3960.502	4698
3962.101	4631
3963.7	4562
3965.301	4699
3966.899	4609
3968.497	4707
3970.094	4562
3971.691	4675
3973.288	4648
3974.885	4714
3976.481	4588
3978.077	4705
3979.672	4539
3981.267	4593
3982.863	4598
3984.457	4625
3986.051	4535
3987.645	4610
3989.238	4565
3990.831	4582
3992.425	4509
3994.017	4667
3995.607	4555
3997.199	4595
3998.79	4502
4000.382	4518
4001.973	4548
4003.561	4491
4005.151	4536
4006.741	4337
4008.331	4467
4009.918	4576
4011.507	4460
4013.095	4453
4014.681	4428
4016.269	4416
4017.856	4357
4019.443	4473
4021.028	4427
4022.614	4244
4024.199	4426
4025.785	4345
4027.37	4390
4028.953	4423
4030.536	4300
4032.12	4329
4033.704	4265
4035.287	4424
4036.869	4363
4038.45	4442
4040.032	4328
4041.613	4286
4043.195	4403
4044.776	4321
4046.356	4377
4047.935	4334
4049.515	4413
4051.095	4244
4052.674	4358
4054.251	4329
4055.829	4276
4057.406	4262
4058.985	4371
4060.562	4312
4062.139	4296
4063.715	4336
4065.29	4304
4066.865	4333
4068.442	4195
4070.016	4311
4071.59	4274
4073.164	4311
4074.738	4245
4076.312	4317
4077.885	4219
4079.458	4291
4081.03	4231
4082.602	4252
4084.173	4243
4085.745	4217
4087.315	4310
4088.886	4262
4090.456	4264
4092.026	4231
4093.596	4164
4095.165	4279
4096.734	4166
4098.301	4229
4099.869	4230
4101.437	4286
4103.006	4195
4104.572	4144
4106.139	4187
4107.704	4177
4109.27	4183
4110.837	4250
4112.401	4246
4113.966	4170
4115.53	4116
4117.094	4200
4118.659	4130
4120.223	4165
4121.785	4107
4123.347	4069
4124.909	4156
4126.471	4135
4128.034	4096
4129.595	4073
4131.155	4025
4132.716	4086
4134.275	4077
4135.836	4074
4137.395	4046
4138.955	3978
4140.513	4026
4142.071	4062
4143.628	4123
4145.188	4011
4146.745	4100
4148.302	4147
4149.858	4032
4151.414	4106
4152.971	4086
4154.526	4007
4156.081	3987
4157.635	4018
4159.189	3971
4160.745	4001
4162.298	4057
4163.852	3913
4165.405	3984
4166.957	4054
4168.51	4090
4170.063	3915
4171.614	4069
4173.166	3887
4174.717	4002
4176.267	3995
4177.817	3919
4179.368	3943
4180.917	3987
4182.466	3923
4184.016	3902
4185.564	3911
4187.112	3854
4188.66	3938
4190.207	3862
4191.754	3860
4193.301	3907
4194.848	3860
4196.394	3899
4197.94	3833
4199.484	3878
4201.03	3962
4202.575	3919
4204.12	3789
4205.663	3886
4207.207	3766
4208.75	3825
4210.292	3803
4211.836	3952
4213.378	3783
4214.92	3850
4216.46	3806
4218.002	3905
4219.544	3834
4221.083	3895
4222.625	3812
4224.164	3811
4225.703	3804
4227.244	3804
4228.782	3802
4230.32	3877
4231.857	3807
4233.395	3794
4234.933	3771
4236.471	3777
4238.007	3815
4239.542	3800
4241.078	3738
4242.614	3790
4244.15	3768
4245.685	3714
4247.219	3789
4248.753	3803
4250.287	3690
4251.82	3724
4253.354	3832
4254.887	3680
4256.419	3797
4257.951	3761
4259.483	3761
4261.016	3710
4262.547	3673
4264.078	3722
4265.608	3724
4267.137	3745
4268.668	3652
4270.197	3674
4271.727	3756
4273.254	3678
4274.783	3764
4276.311	3725
4277.84	3692
4279.366	3668
4280.894	3689
4282.42	3640
4283.946	3639
4285.473	3666
4286.998	3698
4288.523	3616
4290.047	3663
4291.572	3588
4293.096	3619
4294.622	3710
4296.144	3607
4297.668	3591
4299.19	3559
4300.713	3709
4302.236	3771
4303.758	3624
4305.279	3595
4306.799	3644
4308.321	3621
4309.842	3672
4311.361	3648
4312.882	3547
4314.401	3635
