400.0961	4698
402.6185	4700
405.1424	4692
407.6635	4632
410.1838	4756
412.7035	4822
415.2225	4771
417.7388	4836
420.2585	4835
422.7754	4750
425.2917	4916
427.8072	4869
430.3221	4960
432.8363	4929
435.3498	5019
437.8626	4969
440.3727	4979
442.8841	4999
445.3969	5051
447.907	5008
450.4142	4963
452.9229	5092
455.4289	4974
457.9362	5008
460.4449	4970
462.9488	4975
465.454	4977
467.9566	4963
470.4604	4978
472.9637	4870
475.4662	5062
477.966	5029
480.4671	5092
482.9656	5197
485.4633	5095
487.9645	5084
490.4608	5126
492.9566	5049
495.4536	5085
497.948	5030
500.4437	5123
502.9387	5084
505.431	5164
507.9226	5194
510.4136	5169
512.9079	5147
515.3975	5188
517.8864	5195
520.3746	5230
522.8622	5172
525.3491	5239
527.8394	5178
530.3249	5165
532.8098	5206
535.2939	5225
537.7774	5307
540.2623	5223
542.7444	5199
545.2259	5207
547.7067	5209
550.1868	5288
552.6683	5318
555.147	5283
557.6231	5184
560.1005	5257
562.5773	5248
565.0534	5267
567.5308	5368
570.0056	5375
572.4776	5336
574.951	5313
577.4237	5385
579.8978	5489
582.3671	5413
584.8378	5418
587.3079	5400
589.7773	5396
592.244	5493
594.714	5356
597.1793	5398
599.6461	5409
602.1121	5493
604.5754	5457
607.0421	5328
609.5042	5371
611.9675	5437
614.4282	5452
616.8902	5447
619.3515	5475
621.8122	5428
624.2702	5397
626.7296	5551
629.1863	5467
631.6423	5437
634.1017	5314
636.5563	5428
639.0104	5399
641.4658	5475
643.9185	5516
646.3725	5451
648.8239	5404
651.2766	5412
653.7266	5411
656.176	5427
658.6247	5445
661.0748	5492
663.5242	5572
665.9709	5498
668.417	5543
670.8624	5435
673.3092	5604
675.7533	5473
678.1968	5601
680.6395	5748
683.0817	5587
685.5251	5731
687.9659	5446
690.4061	5545
692.8456	5553
695.2844	5693
697.7226	5553
700.1621	5714
702.599	5725
705.0332	5667
707.4688	5710
709.9036	5679
712.3399	5697
714.7735	5731
717.2044	5762
719.6367	5759
722.0683	5816
724.4993	5761
726.9296	5752
729.3593	5835
731.7883	5743
734.2147	5929
736.6423	5710
739.0714	5775
741.4958	5881
743.9216	5860
746.3447	5833
748.7691	5929
751.1929	5985
753.616	5971
756.0366	5999
758.4584	5990
760.8776	6006
763.2982	6021
765.718	6039
768.1373	5996
770.5539	6033
772.9698	6037
775.3871	6051
777.8038	5934
780.2178	6032
782.6332	6090
785.0459	5995
787.458	6044
789.8714	6019
792.2842	6004
794.6943	6105
797.1038	6054
799.5127	6086
801.9209	6055
804.3324	6021
806.7393	6100
809.1456	6132
811.5513	6126
813.9562	6147
816.3625	6212
818.7663	6070
821.1693	6165
823.5718	6110
825.9735	6156
828.3746	6209
830.7771	6131
833.177	6229
835.5762	6100
837.9747	6249
840.3727	6125
842.772	6326
845.1666	6214
847.5626	6171
849.958	6213
852.3527	6268
854.7488	6315
857.1403	6352
859.5331	6341
861.9253	6369
864.3168	6344
866.7057	6300
869.098	6345
871.4876	6277
873.8746	6346
876.263	6260
878.6487	6257
881.0378	6257
883.4243	6228
885.8081	6242
888.1933	6275
890.5759	6186
892.9598	6207
895.343	6290
897.7256	6266
900.1057	6280
902.4871	6240
904.8659	6226
907.246	6339
909.6254	6272
912.0023	6390
914.3786	6533
916.7562	6572
919.1331	6558
921.5074	6577
923.8831	6760
926.2562	6664
928.6287	6787
931.0005	6622
933.3757	6568
935.7462	6560
938.1162	6539
940.4855	6676
942.8542	6633
945.2242	6685
947.5916	6836
949.9584	6875
952.3266	6937
954.6921	7033
957.0571	7235
959.4233	7512
961.787	7464
964.15	7415
966.5125	7271
968.8742	7343
971.2354	7061
973.5959	6921
975.9559	6760
978.3151	6720
980.6738	6591
983.0338	6664
985.3912	6508
987.7461	6478
990.1022	6444
992.4578	6441
994.8127	6437
997.1689	6409
999.5207	6455
1001.874	6540
1004.226	6635
1006.576	6447
1008.929	6522
1011.28	6493
1013.628	6576
1015.977	6543
1018.324	6528
1020.674	6458
1023.019	6512
1025.366	6429
1027.713	6476
1030.056	6548
1032.399	6563
1034.746	6626
1037.087	6495
1039.431	6568
1041.771	6539
1044.113	6576
1046.454	6553
1048.793	6466
1051.133	6638
1053.471	6486
1055.807	6628
1058.146	6541
1060.483	6623
1062.818	6781
1065.153	6664
1067.489	6686
1069.822	6682
1072.156	6680
1074.488	6729
1076.82	6814
1079.15	6693
1081.48	6651
1083.814	6633
1086.143	6579
1088.471	6688
1090.799	6642
1093.126	6607
1095.452	6738
1097.78	6681
1100.105	6581
1102.43	6654
1104.754	6619
1107.077	6647
1109.4	6676
1111.722	6752
1114.044	6675
1116.365	6721
1118.685	6635
1121.005	6577
1123.324	6737
1125.643	6785
1127.961	6684
1130.278	6871
1132.595	6660
1134.911	6672
1137.226	6820
1139.541	6665
1141.854	6655
1144.167	6736
1146.482	6774
1148.793	6633
1151.105	6791
1153.414	6713
1155.725	6687
1158.033	6772
1160.344	6691
1162.651	6671
1164.959	6748
1167.265	6704
1169.572	6721
1171.878	6754
1174.184	6801
1176.488	6671
1178.79	6780
1181.094	6771
1183.396	6870
1185.699	6731
1188.001	6784
1190.301	6731
1192.6	6744
1194.9	6672
1197.2	6643
1199.497	6747
1201.794	6615
1204.09	6602
1206.387	6725
1208.684	6678
1210.978	6842
1213.272	6699
1215.565	6675
1217.858	6595
1220.15	6781
1222.443	6774
1224.734	6847
1227.024	6855
1229.313	6799
1231.602	6971
1233.892	6883
1236.18	6894
1238.467	6808
1240.754	6968
1243.04	7165
1245.325	6916
1247.612	6964
1249.896	6992
1252.178	7114
1254.461	7015
1256.743	7057
1259.027	6983
1261.308	7099
1263.587	7004
1265.867	6998
1268.146	7063
1270.425	7022
1272.703	7014
1274.981	6996
1277.256	6980
1279.532	6963
1281.808	6942
1284.083	6988
1286.358	6938
1288.63	7001
1290.904	6880
1293.175	6895
1295.449	7032
1297.719	6922
1299.99	6903
1302.259	6829
1304.529	6960
1306.798	6938
1309.065	6908
1311.333	6860
1313.599	6894
1315.866	6976
1318.131	6931
1320.396	6963
1322.66	6931
1324.925	6985
1327.187	7058
1329.448	7009
1331.711	7112
1333.974	6957
1336.234	7023
1338.493	7021
1340.752	7098
1343.01	6910
1345.269	6909
1347.526	6928
1349.784	6977
1352.04	6887
1354.295	6813
1356.552	6896
1358.806	6882
1361.059	6975
1363.312	6926
1365.564	6903
1367.818	6969
1370.069	6966
1372.318	6909
1374.568	6988
1376.817	6884
1379.066	6875
1381.316	7050
1383.564	7003
1385.809	7114
1388.056	6988
1390.301	6953
1392.549	7092
1394.793	7172
1397.036	7360
1399.279	7265
1401.522	7092
1403.763	7246
1406.007	7236
1408.248	7361
1410.487	7304
1412.727	7234
1414.965	7171
1417.205	7292
1419.442	7248
1421.68	7115
1423.915	7248
1426.152	7275
1428.388	7178
1430.623	7166
1432.857	7192
1435.091	7176
1437.323	7352
1439.556	7264
1441.789	7395
1444.019	7245
1446.25	7248
1448.48	7333
1450.708	7231
1452.938	7328
1455.167	7463
1457.394	7352
1459.62	7305
1461.846	7343
1464.073	7232
1466.299	7401
1468.523	7373
1470.746	7171
1472.969	7261
1475.191	7203
1477.415	7143
1479.636	7134
1481.858	7023
1484.078	7161
1486.298	7016
1488.518	7035
1490.736	6901
1492.954	6870
1495.169	7018
1497.386	6991
1499.602	7056
1501.819	6879
1504.034	6942
1506.248	6922
1508.462	6893
1510.675	6958
1512.888	6966
1515.1	6926
1517.311	6893
1519.522	6967
1521.732	6929
1523.942	6992
1526.151	6907
1528.36	6774
1530.566	6939
1532.773	6933
1534.98	6879
1537.187	6997
1539.392	6885
1541.596	7024
1543.801	6932
1546.005	7006
1548.208	6971
1550.411	7122
1552.612	7064
1554.814	7078
1557.013	6958
1559.212	7039
1561.414	7097
1563.612	6993
1565.811	7105
1568.007	7316
1570.203	7161
1572.403	7057
1574.598	7126
1576.792	7061
1578.988	7206
1581.181	7127
1583.376	7191
1585.568	7189
1587.761	7142
1589.952	7210
1592.143	7108
1594.333	7153
1596.524	7228
1598.715	7259
1600.903	7152
1603.091	7058
1605.278	7201
1607.466	7201
1609.652	7166
1611.838	7220
1614.023	7170
1616.207	7119
1618.391	7295
1620.576	7144
1622.759	7205
1624.941	7204
1627.123	7246
1629.304	7180
1631.484	7249
1633.664	7234
1635.844	7285
1638.022	7242
1640.201	7201
1642.38	7354
1644.556	7262
1646.732	7224
1648.908	7279
1651.084	7350
1653.257	7252
1655.433	7411
1657.607	7219
1659.779	7371
1661.951	7322
1664.122	7340
1666.295	7372
1668.467	7328
1670.635	7407
1672.805	7411
1674.973	7293
1677.142	7343
1679.31	7336
1681.478	7357
1683.644	7314
1685.81	7276
1687.975	7124
1690.142	7309
1692.305	7178
1694.468	7332
1696.632	7219
1698.794	7242
1700.957	7094
1703.119	7248
1705.279	7140
1707.439	7192
1709.598	7194
1711.758	7152
1713.917	7113
1716.075	7261
1718.231	7092
1720.388	7075
1722.543	7182
1724.702	7245
1726.856	7242
1729.01	7223
1731.164	7123
1733.317	7121
1735.471	7135
1737.623	7068
1739.774	7251
1741.925	7195
1744.075	7126
1746.225	7217
1748.376	7115
1750.524	7111
1752.672	7034
1754.82	7108
1756.965	7195
1759.113	7148
1761.259	7140
1763.405	7170
1765.549	7169
1767.694	7237
1769.836	7280
1771.981	7199
1774.123	7113
1776.264	7191
1778.405	7076
1780.546	7279
1782.687	7281
1784.827	7171
1786.966	7092
1789.103	7285
1791.242	7397
1793.381	7210
1795.517	7254
1797.653	7223
1799.788	7267
1801.923	7101
1804.057	7249
1806.193	7187
1808.326	7215
1810.457	7214
1812.59	7237
1814.721	7204
1816.855	7069
1818.984	7201
1821.113	7304
1823.244	7155
1825.372	7134
1827.499	7171
1829.63	7183
1831.756	7159
1833.882	7137
1836.007	7095
1838.132	7140
1840.26	7224
1842.384	7174
1844.507	7127
1846.63	7205
1848.752	7213
1850.875	7179
1852.996	7230
1855.118	7267
1857.238	7054
1859.358	7269
1861.477	7278
1863.597	7179
1865.715	7125
1867.832	7145
1869.948	7038
1872.064	7167
1874.181	7115
1876.297	7084
1878.411	7225
1880.526	7213
1882.639	7199
1884.752	7082
1886.865	7170
1888.977	7053
1891.089	7124
1893.2	7288
1895.308	7145
1897.42	7221
1899.53	7010
1901.639	7273
1903.745	7195
1905.853	7266
1907.962	7237
1910.067	7270
1912.174	7211
1914.278	7197
1916.383	7211
1918.486	7166
1920.592	7346
1922.694	7179
1924.797	7315
1926.898	7339
1929	7104
1931.102	7348
1933.203	7270
1935.301	7196
1937.401	7328
1939.499	7302
1941.598	7250
1943.697	7216
1945.793	7242
1947.888	7260
1949.985	7426
1952.08	7237
1954.176	7384
1956.269	7291
1958.364	7312
1960.457	7357
1962.549	7273
1964.642	7188
1966.733	7331
1968.823	7196
1970.913	7229
1973.005	7138
1975.093	7324
1977.184	7161
1979.271	7224
1981.359	7150
1983.446	7078
1985.532	7258
1987.619	7073
1989.705	7190
1991.789	7164
1993.874	7316
1995.956	7232
1998.041	7150
2000.123	7208
2002.206	7083
2004.287	7110
2006.368	7153
2008.449	7148
2010.529	7078
2012.609	7137
2014.688	7095
2016.766	7083
2018.843	7180
2020.922	7132
2022.999	7233
2025.074	7054
2027.15	7164
2029.225	7069
2031.299	7198
2033.375	7195
2035.447	7135
2037.52	7115
2039.592	7145
2041.664	7108
2043.736	7110
2045.807	7264
2047.876	7121
2049.947	7264
2052.015	7186
2054.086	7117
2056.153	7192
2058.221	7178
2060.288	7192
2062.353	7277
2064.42	7231
2066.486	7154
2068.55	7257
2070.614	7148
2072.678	7244
2074.741	7208
2076.805	7187
2078.866	7186
2080.929	7127
2082.99	7235
2085.049	7250
2087.109	7076
2089.17	7112
2091.228	7268
2093.286	7196
2095.344	7199
2097.4	7206
2099.46	7206
2101.516	7212
2103.572	7075
2105.626	7110
2107.679	7102
2109.735	7077
2111.788	7114
2113.841	7175
2115.894	7190
2117.945	7276
2119.997	7203
2122.049	7093
2124.1	7163
2126.148	7205
2128.197	7125
2130.246	7098
2132.296	7192
2134.342	7150
2136.39	7086
2138.437	7202
2140.483	7234
2142.527	7149
2144.574	7056
2146.619	7012
2148.661	7096
2150.705	6997
2152.747	7080
2154.792	7050
2156.832	7119
2158.874	7114
2160.915	7073
2162.954	7180
2164.995	7195
2167.034	7163
2169.072	7091
2171.111	7096
2173.148	7049
2175.186	7135
2177.223	7033
2179.258	7036
2181.294	7137
2183.328	6978
2185.362	7095
2187.398	6885
2189.431	6983
2191.463	7046
2193.495	6962
2195.528	6967
2197.56	7009
2199.59	6970
2201.62	7009
2203.649	7010
2205.678	6893
2207.708	6968
2209.737	6965
2211.764	7013
2213.791	6883
2215.817	6990
2217.843	6894
2219.87	6973
2221.895	6990
2223.919	6977
2225.942	6882
2227.966	6894
2229.988	6921
2232.012	6953
2234.032	6897
2236.054	7003
2238.074	6944
2240.095	6994
2242.116	6941
2244.135	6896
2246.153	6893
2248.171	6958
2250.188	6853
2252.208	6972
2254.223	6849
2256.239	6931
2258.255	6853
2260.269	7013
2262.283	7022
2264.3	6976
2266.312	6943
2268.325	7010
2270.336	6933
2272.349	6849
2274.362	6883
2276.372	6859
2278.383	6869
2280.392	6905
2282.402	6853
2284.409	6920
2286.418	6942
2288.427	6945
2290.433	6933
2292.441	6923
2294.446	6833
2296.453	6797
2298.459	6969
2300.463	6906
2302.466	6899
2304.471	6975
2306.475	6820
2308.477	6946
2310.478	6905
2312.481	6916
2314.481	6913
2316.481	6893
2318.482	6878
2320.482	6899
2322.48	6727
2324.48	6907
2326.478	6731
2328.476	6799
2330.473	6831
2332.469	6816
2334.465	6898
2336.46	6801
2338.454	6858
2340.45	6845
2342.444	6860
2344.437	6754
2346.43	6830
2348.421	6716
2350.414	6736
2352.405	6774
2354.396	6844
2356.386	6603
2358.376	6670
2360.366	6810
2362.355	6825
2364.343	6798
2366.331	6669
2368.317	6796
2370.304	6882
2372.292	6805
2374.278	6713
2376.262	6805
2378.247	6789
2380.23	6709
2382.216	6796
2384.199	6720
2386.181	6685
2388.163	6688
2390.144	6702
2392.127	6739
2394.107	6665
2396.087	6629
2398.066	6659
2400.046	6765
2402.023	6707
2404.004	6600
2405.981	6707
2407.957	6750
2409.934	6784
2411.91	6703
2413.886	6623
2415.862	6696
2417.836	6557
2419.809	6761
2421.784	6628
2423.756	6634
2425.73	6765
2427.701	6723
2429.672	6740
2431.644	6743
2433.615	6566
2435.586	6634
2437.555	6653
2439.523	6680
2441.491	6680
2443.459	6591
2445.428	6684
2447.395	6621
2449.361	6711
2451.327	6644
2453.292	6746
2455.257	6673
2457.223	6644
2459.187	6688
2461.15	6575
2463.113	6484
2465.076	6607
2467.039	6598
2468.999	6663
2470.96	6502
2472.921	6709
2474.881	6624
2476.841	6585
2478.8	6610
2480.759	6464
2482.717	6597
2484.675	6523
2486.63	6503
2488.589	6549
2490.545	6604
2492.5	6445
2494.455	6558
2496.408	6627
2498.364	6534
2500.318	6514
2502.27	6505
2504.223	6465
2506.174	6514
2508.126	6471
2510.078	6484
2512.03	6546
2513.979	6465
2515.927	6501
2517.877	6591
2519.826	6681
2521.775	6517
2523.722	6451
2525.668	6582
2527.616	6468
2529.561	6410
2531.508	6581
2533.452	6531
2535.398	6506
2537.342	6535
2539.284	6439
2541.229	6527
2543.173	6423
2545.114	6374
2547.055	6502
2548.996	6458
2550.938	6460
2552.878	6468
2554.817	6474
2556.756	6498
2558.695	6449
2560.633	6489
2562.572	6380
2564.509	6303
2566.445	6482
2568.382	6427
2570.317	6437
2572.254	6467
2574.189	6611
2576.123	6370
2578.057	6442
2579.99	6315
2581.923	6564
2583.855	6427
2585.788	6495
2587.719	6535
2589.65	6546
2591.579	6444
2593.511	6445
2595.44	6442
2597.37	6517
2599.297	6458
2601.225	6525
2603.153	6447
2605.08	6553
2607.007	6505
2608.932	6562
2610.858	6425
2612.782	6394
2614.709	6460
2616.632	6462
2618.556	6345
2620.478	6403
2622.401	6413
2624.324	6490
2626.247	6450
2628.167	6507
2630.088	6478
2632.008	6410
2633.928	6464
2635.848	6539
2637.766	6453
2639.684	6446
2641.603	6491
2643.519	6503
2645.437	6467
2647.353	6559
2649.27	6445
2651.184	6519
2653.099	6589
2655.014	6410
2656.928	6392
2658.842	6446
2660.755	6497
2662.667	6431
2664.579	6445
2666.491	6506
2668.402	6431
2670.312	6625
2672.222	6322
2674.132	6447
2676.042	6390
2677.951	6446
2679.859	6407
2681.766	6335
2683.674	6380
2685.582	6374
2687.488	6470
2689.392	6464
2691.298	6441
2693.202	6368
2695.107	6422
2697.012	6400
2698.914	6292
2700.817	6275
2702.72	6265
2704.622	6429
2706.524	6343
2708.425	6199
2710.326	6253
2712.225	6400
2714.125	6374
2716.024	6330
2717.923	6439
2719.822	6335
2721.719	6336
2723.616	6295
2725.512	6430
2727.41	6329
2729.305	6357
2731.201	6343
2733.095	6379
2734.99	6270
2736.884	6345
2738.778	6312
2740.67	6405
2742.562	6264
2744.455	6259
2746.346	6296
2748.238	6155
2750.129	6255
2752.018	6337
2753.907	6355
2755.797	6261
2757.687	6364
2759.575	6271
2761.462	6274
2763.349	6138
2765.237	6188
2767.124	6143
2769.009	6261
2770.894	6188
2772.779	6306
2774.663	6222
2776.547	6308
2778.431	6213
2780.314	6156
2782.197	6201
2784.078	6246
2785.96	6160
2787.842	6209
2789.723	6298
2791.603	6160
2793.483	6132
2795.362	6142
2797.241	6277
2799.121	6133
2800.997	6251
2802.874	6093
2804.751	6280
2806.628	6281
2808.506	6185
2810.38	6135
2812.255	6279
2814.13	6154
2816.003	6172
2817.878	6253
2819.752	6256
2821.623	6256
2823.496	6200
2825.368	6137
2827.238	6295
2829.111	6238
2830.98	6133
2832.851	6297
2834.719	6145
2836.589	6172
2838.458	6337
2840.327	6252
2842.193	6369
2844.061	6198
2845.927	6271
2847.794	6211
2849.66	6259
2851.525	6294
2853.39	6307
2855.254	6268
2857.117	6323
2858.983	6373
2860.845	6287
2862.707	6335
2864.569	6412
2866.431	6315
2868.293	6447
2870.154	6488
2872.013	6628
2873.873	6534
2875.733	6604
2877.592	6654
2879.451	6681
2881.309	6698
2883.166	6812
2885.022	6705
2886.879	6884
2888.736	6927
2890.591	7008
2892.446	6877
2894.301	6982
2896.155	6909
2898.009	6873
2899.863	6958
2901.716	6921
2903.568	6851
2905.419	6701
2907.27	6858
2909.123	6991
2910.973	6880
2912.824	6993
2914.673	6856
2916.521	6969
2918.372	7007
2920.22	7047
2922.067	7080
2923.914	7078
2925.761	7278
2927.607	7186
2929.455	7269
2931.301	7317
2933.144	7337
2934.99	7318
2936.833	7325
2938.678	7476
2940.522	7556
2942.364	7718
2944.207	7728
2946.048	7821
2947.891	7947
2949.731	7952
2951.571	7794
2953.412	8050
2955.25	7773
2957.09	7788
2958.93	7715
2960.767	7568
2962.606	7677
2964.443	7543
2966.279	7457
2968.116	7320
2969.953	7259
2971.788	7216
2973.623	7146
2975.457	6934
2977.292	6980
2979.127	6948
2980.959	6942
2982.792	6719
2984.624	6752
2986.455	6759
2988.288	6664
2990.119	6596
2991.949	6613
2993.779	6669
2995.608	6491
2997.439	6551
2999.268	6568
3001.096	6520
3002.923	6400
3004.751	6379
3006.578	6300
3008.406	6258
3010.232	6242
3012.057	6260
3013.883	6093
3015.706	6146
3017.532	6102
3019.356	6107
3021.179	5997
3023.002	5930
3024.823	5919
3026.646	5951
3028.469	5956
3030.289	5880
3032.11	6041
3033.93	6098
3035.749	5939
3037.57	5933
3039.39	5930
3041.207	5822
3043.026	5883
3044.842	5967
3046.661	5867
3048.477	5859
3050.294	6009
3052.109	5907
3053.925	5924
3055.739	5774
3057.555	5965
3059.368	5726
3061.181	5783
3062.995	5853
3064.807	5825
3066.62	5873
3068.433	5704
3070.243	5707
3072.054	5773
3073.865	5818
3075.675	5753
3077.485	5779
3079.293	5740
3081.102	5809
3082.911	5788
3084.719	5757
3086.527	5614
3088.333	5639
3090.139	5712
3091.945	5617
3093.75	5703
3095.557	5574
3097.361	5684
3099.165	5599
3100.969	5572
3102.772	5535
3104.575	5657
3106.379	5618
3108.181	5736
3109.982	5528
3111.783	5553
3113.584	5574
3115.386	5622
3117.186	5645
3118.985	5674
3120.783	5561
3122.582	5566
3124.381	5613
3126.179	5510
3127.975	5654
3129.772	5557
3131.569	5537
3133.365	5497
3135.161	5585
3136.956	5574
3138.751	5474
3140.544	5506
3142.338	5532
3144.132	5557
3145.925	5458
3147.717	5450
3149.509	5493
3151.301	5483
3153.091	5520
3154.884	5338
3156.673	5358
3158.462	5463
3160.252	5450
3162.041	5457
3163.831	5430
3165.618	5470
3167.405	5437
3169.193	5442
3170.979	5443
3172.767	5469
3174.553	5419
3176.338	5453
3178.123	5392
3179.907	5481
3181.692	5453
3183.477	5412
3185.259	5425
3187.042	5385
3188.824	5505
3190.607	5508
3192.389	5484
3194.17	5321
3195.951	5304
3197.73	5419
3199.51	5379
3201.289	5430
3203.07	5445
3204.848	5492
3206.626	5420
3208.403	5353
3210.18	5477
3211.959	5370
3213.735	5326
3215.511	5463
3217.285	5302
3219.06	5389
3220.836	5407
3222.611	5329
3224.384	5356
3226.158	5424
3227.929	5328
3229.702	5466
3231.476	5424
3233.248	5389
3235.018	5431
3236.789	5382
3238.56	5473
3240.33	5476
3242.1	5351
3243.869	5391
3245.637	5320
3247.405	5426
3249.172	5320
3250.941	5355
3252.707	5392
3254.474	5386
3256.24	5490
3258.006	5368
3259.772	5305
3261.537	5407
3263.301	5414
3265.065	5294
3266.828	5408
3268.592	5276
3270.355	5304
3272.117	5441
3273.878	5335
3275.64	5343
3277.401	5312
3279.162	5284
3280.922	5393
3282.682	5352
3284.441	5340
3286.199	5364
3287.959	5422
3289.716	5419
3291.475	5352
3293.232	5344
3294.988	5396
3296.744	5375
3298.501	5386
3300.256	5273
3302.011	5302
3303.766	5382
3305.52	5240
3307.275	5325
3309.028	5305
3310.781	5382
3312.533	5353
3314.285	5349
3316.038	5248
3317.789	5261
3319.54	5305
3321.289	5223
3323.039	5242
3324.789	5212
3326.539	5279
3328.288	5292
3330.035	5220
3331.783	5225
3333.531	5306
3335.28	5285
3337.025	5308
3338.771	5253
3340.518	5140
3342.262	5226
3344.009	5271
3345.753	5223
3347.497	5160
3349.24	5172
3350.983	5308
3352.726	5249
3354.469	5248
3356.212	5273
3357.952	5183
3359.694	5138
3361.434	5130
3363.176	5073
3364.916	5110
3366.654	5149
3368.394	5215
3370.132	5154
3371.871	5221
3373.61	5096
3375.346	5198
3377.083	5088
3378.82	5156
3380.556	5074
3382.292	5083
3384.027	5121
3385.763	4999
3387.497	5115
3389.231	5134
3390.965	5033
3392.698	5085
3394.431	5087
3396.164	5085
3397.896	5026
3399.627	5119
3401.36	5030
3403.09	5139
3404.82	5107
3406.55	5055
3408.279	4980
3410.01	5031
3411.738	5133
3413.467	5029
3415.194	5015
3416.92	4983
3418.647	4941
3420.375	4977
3422.102	5007
3423.827	5025
3425.553	5108
3427.277	5024
3429.003	4990
3430.727	4986
3432.451	4989
3434.173	4945
3435.896	5087
3437.62	5022
3439.343	4904
3441.063	4935
3442.785	4972
3444.505	4955
3446.226	4867
3447.948	4905
3449.666	4910
3451.386	4857
3453.104	4977
3454.823	4855
3456.541	4931
3458.259	4841
3459.976	4895
3461.693	4773
3463.408	4804
3465.125	4837
3466.841	4824
3468.556	4880
3470.271	4807
3471.985	4845
3473.698	4779
3475.414	4871
3477.126	4760
3478.838	4770
3480.55	4701
3482.263	4728
3483.975	4774
3485.686	4820
3487.396	4739
3489.106	4763
3490.817	4739
3492.526	4705
3494.236	4817
3495.944	4733
3497.652	4686
3499.359	4704
3501.066	4705
3502.775	4699
3504.481	4742
3506.187	4678
3507.893	4849
3509.598	4669
3511.304	4664
3513.009	4602
3514.713	4686
3516.417	4711
3518.12	4651
3519.821	4652
3521.525	4607
3523.228	4692
3524.929	4703
3526.631	4618
3528.33	4553
3530.032	4618
3531.733	4498
3533.433	4630
3535.131	4577
3536.83	4589
3538.529	4648
3540.227	4481
3541.925	4504
3543.623	4666
3545.319	4531
3547.016	4555
3548.712	4506
3550.408	4469
3552.103	4569
3553.798	4449
3555.491	4462
3557.188	4456
3558.88	4529
3560.574	4518
3562.266	4490
3563.959	4534
3565.651	4422
3567.343	4506
3569.035	4493
3570.725	4467
3572.415	4398
3574.106	4454
3575.797	4455
3577.485	4508
3579.174	4404
3580.863	4487
3582.551	4487
3584.238	4355
3585.926	4448
3587.613	4339
3589.3	4423
3590.986	4396
3592.671	4336
3594.357	4310
3596.042	4306
3597.726	4301
3599.41	4445
3601.094	4419
3602.778	4310
3604.461	4380
3606.143	4292
3607.825	4342
3609.507	4369
3611.188	4358
3612.87	4319
3614.551	4289
3616.229	4251
3617.909	4204
3619.589	4270
3621.269	4265
3622.948	4220
3624.625	4210
3626.302	4303
3627.98	4281
3629.657	4225
3631.334	4264
3633.01	4269
3634.686	4241
3636.361	4224
3638.036	4178
3639.712	4250
3641.385	4262
3643.06	4158
3644.732	4112
3646.405	4190
3648.08	4205
3649.751	4189
3651.424	4137
3653.094	4176
3654.766	4161
3656.436	4202
3658.106	4091
3659.777	4137
3661.446	4181
3663.115	4177
3664.783	4104
3666.452	4210
3668.121	4178
3669.788	4123
3671.454	4185
3673.121	4115
3674.789	4043
3676.455	4081
3678.12	4166
3679.784	4102
3681.45	4046
3683.114	4160
3684.779	4113
3686.442	4079
3688.105	4151
3689.768	4137
3691.43	4080
3693.093	4084
3694.754	4052
3696.415	4090
3698.076	3976
3699.736	4151
3701.396	3980
3703.057	4037
3704.716	3994
3706.375	4002
3708.034	4008
3709.692	3975
3711.351	4002
3713.008	4049
3714.665	3996
3716.321	3949
3717.977	4030
3719.634	3952
3721.29	3968
3722.945	3938
3724.598	4075
3726.253	4033
3727.907	4049
3729.561	4065
3731.214	3971
3732.867	3972
3734.518	3915
3736.171	4016
3737.824	4012
3739.474	3910
3741.125	3916
3742.775	3957
3744.425	3912
3746.074	3893
3747.725	3872
3749.373	3967
3751.022	3980
3752.669	3985
3754.318	3956
3755.966	3988
3757.612	3914
3759.259	3931
3760.905	3941
3762.55	3911
3764.197	3876
3765.842	3933
3767.486	3839
3769.131	3797
3770.774	3891
3772.417	3849
3774.061	3907
3775.705	3881
3777.347	3840
3778.988	3820
3780.629	3906
3782.271	3918
3783.912	3840
3785.552	3812
3787.192	3856
3788.831	3904
3790.472	3844
3792.112	3884
3793.75	3845
3795.388	3897
3797.024	3849
3798.661	3834
3800.3	3816
3801.936	3793
3803.572	3821
3805.208	3840
3806.844	3753
3808.48	3831
3810.115	3824
3811.748	3895
3813.382	3813
3815.016	3713
3816.649	3780
3818.283	3723
3819.914	3817
3821.547	3747
3823.178	3835
3824.809	3783
3826.441	3760
3828.072	3762
3829.701	3804
3831.331	3794
3832.96	3795
3834.591	3756
3836.219	3741
3837.847	3705
3839.475	3818
3841.102	3695
3842.729	3755
3844.357	3757
3845.984	3715
3847.609	3770
3849.234	3745
3850.86	3677
3852.485	3668
3854.11	3635
3855.734	3695
3857.357	3761
3858.981	3650
3860.603	3640
3862.227	3676
3863.848	3659
3865.471	3674
3867.092	3629
3868.713	3701
3870.334	3677
3871.954	3653
3873.575	3630
3875.194	3660
3876.813	3591
3878.433	3629
3880.051	3556
3881.669	3589
3883.286	3636
3884.904	3675
3886.52	3674
3888.138	3657
3889.754	3606
3891.37	3612
3892.985	3572
3894.6	3615
3896.216	3598
3897.831	3585
3899.444	3579
3901.058	3632
3902.67	3632
3904.283	3612
3905.897	3686
3907.509	3558
3909.121	3577
3910.731	3613
3912.342	3640
3913.954	3513
3915.563	3541
3917.174	3542
3918.783	3579
3920.391	3541
3922.002	3528
3923.611	3621
3925.218	3564
3926.826	3552
3928.432	3542
3930.039	3586
3931.647	3554
3933.253	3483
3934.859	3577
3936.464	3514
3938.068	3552
3939.675	3515
3941.278	3569
3942.883	3594
3944.486	3550
3946.089	3483
3947.692	3427
3949.295	3502
3950.898	3532
3952.499	3436
3954.1	3486
3955.7	3459
3957.303	3566
3958.903	3509
3960.502	3498
3962.101	3475
3963.7	3508
3965.301	3427
3966.899	3525
3968.497	3410
3970.094	3486
3971.691	3506
3973.288	3497
3974.885	3387
3976.481	3513
3978.077	3388
3979.672	3513
3981.267	3490
3982.863	3379
3984.457	3467
3986.051	3365
3987.645	3438
3989.238	3460
3990.831	3412
3992.425	3444
3994.017	3484
3995.607	3474
3997.199	3358
3998.79	3384
4000.382	3403
4001.973	3353
4003.561	3350
4005.151	3327
4006.741	3344
4008.331	3325
4009.918	3387
4011.507	3368
4013.095	3278
4014.681	3337
4016.269	3304
4017.856	3358
4019.443	3359
4021.028	3328
4022.614	3340
4024.199	3367
4025.785	3287
4027.37	3335
4028.953	3322
4030.536	3276
4032.12	3288
4033.704	3266
4035.287	3302
4036.869	3298
4038.45	3296
4040.032	3313
4041.613	3220
4043.195	3182
4044.776	3274
4046.356	3221
4047.935	3186
4049.515	3276
4051.095	3327
4052.674	3224
4054.251	3254
4055.829	3269
4057.406	3195
4058.985	3216
4060.562	3245
4062.139	3248
4063.715	3241
4065.29	3196
4066.865	3167
4068.442	3285
4070.016	3165
4071.59	3225
4073.164	3181
4074.738	3222
4076.312	3256
4077.885	3231
4079.458	3108
4081.03	3164
4082.602	3137
4084.173	3200
4085.745	3203
4087.315	3142
4088.886	3232
4090.456	3168
4092.026	3089
4093.596	3101
4095.165	3225
4096.734	3205
4098.301	3092
4099.869	3178
4101.437	3119
4103.006	3163
4104.572	3109
4106.139	3091
4107.704	3075
4109.27	3135
4110.837	3180
4112.401	3147
4113.966	3066
4115.53	3133
4117.094	3061
4118.659	3213
4120.223	3061
4121.785	3189
4123.347	3097
4124.909	3160
4126.471	3049
4128.034	3156
4129.595	3080
4131.155	3093
4132.716	3107
4134.275	3130
4135.836	3078
4137.395	3104
4138.955	3113
4140.513	3041
4142.071	3017
4143.628	3074
4145.188	3003
4146.745	3011
4148.302	3014
4149.858	3094
4151.414	2987
4152.971	3046
4154.526	3043
4156.081	3031
4157.635	3033
4159.189	2986
4160.745	2953
4162.298	3045
4163.852	2978
4165.405	3072
4166.957	3080
4168.51	2973
4170.063	3039
4171.614	2986
4173.166	2922
4174.717	3010
4176.267	2975
4177.817	2997
4179.368	2961
4180.917	2941
4182.466	3024
4184.016	2963
4185.564	2916
4187.112	2930
4188.66	2906
4190.207	2973
4191.754	2989
4193.301	2928
4194.848	2932
4196.394	2933
4197.94	2954
4199.484	2903
4201.03	2893
4202.575	2893
4204.12	2923
4205.663	2912
4207.207	2896
4208.75	2913
4210.292	2900
4211.836	2912
4213.378	2925
4214.92	2912
4216.46	2948
4218.002	2882
4219.544	2854
4221.083	2930
4222.625	2915
4224.164	2886
4225.703	2900
4227.244	2904
4228.782	2862
4230.32	2930
4231.857	2904
4233.395	2852
4234.933	2894
4236.471	2860
4238.007	2855
4239.542	2831
4241.078	2843
4242.614	2814
4244.15	2853
4245.685	2876
4247.219	2827
4248.753	2874
4250.287	2835
4251.82	2865
4253.354	2783
4254.887	2816
4256.419	2796
4257.951	2817
4259.483	2813
4261.016	2826
4262.547	2831
4264.078	2855
4265.608	2774
4267.137	2858
4268.668	2810
4270.197	2736
4271.727	2801
4273.254	2847
4274.783	2870
4276.311	2783
4277.84	2806
4279.366	2793
4280.894	2810
4282.42	2807
4283.946	2722
4285.473	2795
4286.998	2740
4288.523	2744
4290.047	2752
4291.572	2753
4293.096	2781
4294.622	2722
4296.144	2785
4297.668	2775
4299.19	2725
4300.713	2717
4302.236	2770
4303.758	2677
4305.279	2742
4306.799	2652
4308.321	2689
4309.842	2721
4311.361	2834
4312.882	2682
4314.401	2665
