400.0961	4271
402.6185	4351
405.1424	4255
407.6635	4293
410.1838	4339
412.7035	4400
415.2225	4491
417.7388	4326
420.2585	4443
422.7754	4503
425.2917	4593
427.8072	4564
430.3221	4634
432.8363	4637
435.3498	4600
437.8626	4637
440.3727	4590
442.8841	4646
445.3969	4661
447.907	4637
450.4142	4632
452.9229	4528
455.4289	4653
457.9362	4587
460.4449	4565
462.9488	4643
465.454	4693
467.9566	4675
470.4604	4665
472.9637	4607
475.4662	4749
477.966	4738
480.4671	4635
482.9656	4701
485.4633	4661
487.9645	4770
490.4608	4680
492.9566	4833
495.4536	4750
497.948	4791
500.4437	4788
502.9387	4702
505.431	4801
507.9226	4764
510.4136	4815
512.9079	4868
515.3975	4873
517.8864	4825
520.3746	4746
522.8622	4853
525.3491	4847
527.8394	4820
530.3249	4850
532.8098	4817
535.2939	4885
537.7774	4757
540.2623	4883
542.7444	4911
545.2259	4817
547.7067	4824
550.1868	4897
552.6683	4924
555.147	4814
557.6231	4898
560.1005	4955
562.5773	4887
565.0534	4972
567.5308	4932
570.0056	4898
572.4776	5016
574.951	4978
577.4237	5066
579.8978	5002
582.3671	5021
584.8378	5039
587.3079	5046
589.7773	5098
592.244	5057
594.714	5048
597.1793	5078
599.6461	5029
602.1121	4965
604.5754	4997
607.0421	5077
609.5042	5029
611.9675	5078
614.4282	5058
616.8902	5089
619.3515	5074
621.8122	5063
624.2702	4996
626.7296	5113
629.1863	5117
631.6423	5065
634.1017	5000
636.5563	5145
639.0104	4999
641.4658	5000
643.9185	5089
646.3725	5175
648.8239	5172
651.2766	5029
653.7266	5181
656.176	5162
658.6247	5037
661.0748	5162
663.5242	5185
665.9709	5135
668.417	5079
670.8624	5153
673.3092	5093
675.7533	5262
678.1968	5219
680.6395	5181
683.0817	5147
685.5251	5164
687.9659	5238
690.4061	5304
692.8456	5148
695.2844	5281
697.7226	5206
700.1621	5244
702.599	5318
705.0332	5354
707.4688	5265
709.9036	5344
712.3399	5448
714.7735	5353
717.2044	5350
719.6367	5297
722.0683	5334
724.4993	5401
726.9296	5362
729.3593	5549
731.7883	5429
734.2147	5462
736.6423	5443
739.0714	5442
741.4958	5488
743.9216	5484
746.3447	5494
748.7691	5515
751.1929	5488
753.616	5544
756.0366	5573
758.4584	5639
760.8776	5550
763.2982	5463
765.718	5575
768.1373	5576
770.5539	5597
772.9698	5582
775.3871	5560
777.8038	5567
780.2178	5614
782.6332	5535
785.0459	5694
787.458	5672
789.8714	5563
792.2842	5554
794.6943	5651
797.1038	5571
799.5127	5646
801.9209	5678
804.3324	5584
806.7393	5565
809.1456	5574
811.5513	5664
813.9562	5786
816.3625	5685
818.7663	5667
821.1693	5713
823.5718	5721
825.9735	5826
828.3746	5691
830.7771	5690
833.177	5709
835.5762	5709
837.9747	5631
840.3727	5684
842.772	5802
845.1666	5762
847.5626	5731
849.958	5794
852.3527	5858
854.7488	5857
857.1403	5746
859.5331	5778
861.9253	5750
864.3168	5861
866.7057	5772
869.098	5816
871.4876	5783
873.8746	5866
876.263	5802
878.6487	5849
881.0378	5761
883.4243	5823
885.8081	5834
888.1933	5903
890.5759	5675
892.9598	5788
895.343	5799
897.7256	5885
900.1057	5748
902.4871	5884
904.8659	5738
907.246	5858
909.6254	5833
912.0023	5965
914.3786	5959
916.7562	5934
919.1331	5893
921.5074	6034
923.8831	6076
926.2562	6186
928.6287	6008
931.0005	6095
933.3757	6160
935.7462	6088
938.1162	6086
940.4855	6143
942.8542	6145
945.2242	6224
947.5916	6194
949.9584	6242
952.3266	6459
954.6921	6432
957.0571	6601
959.4233	6789
961.787	6897
964.15	6787
966.5125	6690
968.8742	6487
971.2354	6355
973.5959	6286
975.9559	6169
978.3151	6124
980.6738	6069
983.0338	6184
985.3912	6004
987.7461	6037
990.1022	6019
992.4578	5965
994.8127	5977
997.1689	5920
999.5207	5982
1001.874	6024
1004.226	6014
1006.576	6079
1008.929	6077
1011.28	6120
1013.628	6029
1015.977	6029
1018.324	5939
1020.674	5948
1023.019	6065
1025.366	6048
1027.713	6120
1030.056	6238
1032.399	6165
1034.746	6198
1037.087	6090
1039.431	6079
1041.771	6129
1044.113	6167
1046.454	6079
1048.793	6248
1051.133	6061
1053.471	6232
1055.807	6143
1058.146	6141
1060.483	6088
1062.818	6151
1065.153	6189
1067.489	6212
1069.822	6288
1072.156	6197
1074.488	6135
1076.82	6162
1079.15	6068
1081.48	6149
1083.814	6172
1086.143	6078
1088.471	6119
1090.799	6147
1093.126	6140
1095.452	6155
1097.78	6165
1100.105	6205
1102.43	6280
1104.754	6185
1107.077	6114
1109.4	6092
1111.722	6192
1114.044	6202
1116.365	6136
1118.685	6180
1121.005	6237
1123.324	6192
1125.643	6187
1127.961	6280
1130.278	6188
1132.595	6266
1134.911	6203
1137.226	6231
1139.541	6218
1141.854	6204
1144.167	6247
1146.482	6163
1148.793	6245
1151.105	6282
1153.414	6289
1155.725	6201
1158.033	6245
1160.344	6143
1162.651	6328
1164.959	6221
1167.265	6335
1169.572	6322
1171.878	6248
1174.184	6188
1176.488	6328
1178.79	6231
1181.094	6258
1183.396	6362
1185.699	6321
1188.001	6233
1190.301	6362
1192.6	6287
1194.9	6153
1197.2	6213
1199.497	6210
1201.794	6212
1204.09	6270
1206.387	6314
1208.684	6346
1210.978	6277
1213.272	6320
1215.565	6192
1217.858	6256
1220.15	6386
1222.443	6349
1224.734	6179
1227.024	6312
1229.313	6365
1231.602	6429
1233.892	6339
1236.18	6401
1238.467	6482
1240.754	6366
1243.04	6457
1245.325	6527
1247.612	6480
1249.896	6467
1252.178	6401
1254.461	6435
1256.743	6478
1259.027	6421
1261.308	6450
1263.587	6539
1265.867	6515
1268.146	6442
1270.425	6479
1272.703	6468
1274.981	6526
1277.256	6566
1279.532	6440
1281.808	6465
1284.083	6432
1286.358	6375
1288.63	6321
1290.904	6376
1293.175	6513
1295.449	6453
1297.719	6364
1299.99	6437
1302.259	6451
1304.529	6492
1306.798	6408
1309.065	6434
1311.333	6527
1313.599	6481
1315.866	6400
1318.131	6480
1320.396	6491
1322.66	6376
1324.925	6366
1327.187	6436
1329.448	6539
1331.711	6499
1333.974	6494
1336.234	6563
1338.493	6445
1340.752	6502
1343.01	6511
1345.269	6482
1347.526	6493
1349.784	6481
1352.04	6493
1354.295	6423
1356.552	6427
1358.806	6391
1361.059	6468
1363.312	6424
1365.564	6361
1367.818	6429
1370.069	6458
1372.318	6527
1374.568	6461
1376.817	6447
1379.066	6401
1381.316	6476
1383.564	6489
1385.809	6456
1388.056	6558
1390.301	6551
1392.549	6615
1394.793	6638
1397.036	6643
1399.279	6624
1401.522	6622
1403.763	6825
1406.007	6612
1408.248	6559
1410.487	6629
1412.727	6646
1414.965	6654
1417.205	6713
1419.442	6745
1421.68	6588
1423.915	6651
1426.152	6626
1428.388	6604
1430.623	6624
1432.857	6607
1435.091	6641
1437.323	6733
1439.556	6782
1441.789	6823
1444.019	6634
1446.25	6765
1448.48	6600
1450.708	6693
1452.938	6641
1455.167	6693
1457.394	6888
1459.62	6757
1461.846	6768
1464.073	6735
1466.299	6685
1468.523	6697
1470.746	6729
1472.969	6611
1475.191	6521
1477.415	6636
1479.636	6553
1481.858	6513
1484.078	6500
1486.298	6509
1488.518	6453
1490.736	6518
1492.954	6473
1495.169	6545
1497.386	6469
1499.602	6448
1501.819	6373
1504.034	6532
1506.248	6504
1508.462	6485
1510.675	6482
1512.888	6447
1515.1	6465
1517.311	6580
1519.522	6525
1521.732	6487
1523.942	6607
1526.151	6390
1528.36	6464
1530.566	6457
1532.773	6379
1534.98	6329
1537.187	6574
1539.392	6497
1541.596	6453
1543.801	6657
1546.005	6466
1548.208	6492
1550.411	6474
1552.612	6554
1554.814	6572
1557.013	6534
1559.212	6582
1561.414	6628
1563.612	6603
1565.811	6489
1568.007	6604
1570.203	6681
1572.403	6617
1574.598	6569
1576.792	6618
1578.988	6632
1581.181	6643
1583.376	6656
1585.568	6659
1587.761	6599
1589.952	6679
1592.143	6708
1594.333	6720
1596.524	6620
1598.715	6655
1600.903	6718
1603.091	6668
1605.278	6823
1607.466	6735
1609.652	6655
1611.838	6669
1614.023	6744
1616.207	6713
1618.391	6689
1620.576	6761
1622.759	6760
1624.941	6789
1627.123	6825
1629.304	6755
1631.484	6662
1633.664	6782
1635.844	6778
1638.022	6817
1640.201	6732
1642.38	6718
1644.556	6702
1646.732	6779
1648.908	6773
1651.084	6835
1653.257	6707
1655.433	6764
1657.607	6736
1659.779	6848
1661.951	6785
1664.122	6749
1666.295	6777
1668.467	6790
1670.635	6699
1672.805	6852
1674.973	6655
1677.142	6845
1679.31	6845
1681.478	6857
1683.644	6926
1685.81	6690
1687.975	6890
1690.142	6716
1692.305	6827
1694.468	6823
1696.632	6796
1698.794	6619
1700.957	6771
1703.119	6746
1705.279	6701
1707.439	6632
1709.598	6783
1711.758	6779
1713.917	6654
1716.075	6659
1718.231	6754
1720.388	6665
1722.543	6633
1724.702	6748
1726.856	6635
1729.01	6737
1731.164	6665
1733.317	6581
1735.471	6645
1737.623	6657
1739.774	6614
1741.925	6750
1744.075	6629
1746.225	6758
1748.376	6722
1750.524	6712
1752.672	6677
1754.82	6680
1756.965	6751
1759.113	6714
1761.259	6617
1763.405	6732
1765.549	6831
1767.694	6616
1769.836	6711
1771.981	6711
1774.123	6708
1776.264	6768
1778.405	6712
1780.546	6726
1782.687	6775
1784.827	6837
1786.966	6720
1789.103	6754
1791.242	6766
1793.381	6730
1795.517	6843
1797.653	6853
1799.788	6854
1801.923	6735
1804.057	6916
1806.193	6674
1808.326	6781
1810.457	6864
1812.59	6712
1814.721	6821
1816.855	6627
1818.984	6716
1821.113	6724
1823.244	6630
1825.372	6768
1827.499	6819
1829.63	6676
1831.756	6731
1833.882	6772
1836.007	6674
1838.132	6677
1840.26	6698
1842.384	6680
1844.507	6740
1846.63	6766
1848.752	6668
1850.875	6735
1852.996	6573
1855.118	6611
1857.238	6645
1859.358	6752
1861.477	6712
1863.597	6646
1865.715	6760
1867.832	6697
1869.948	6639
1872.064	6684
1874.181	6765
1876.297	6765
1878.411	6696
1880.526	6720
1882.639	6595
1884.752	6779
1886.865	6720
1888.977	6650
1891.089	6749
1893.2	6615
1895.308	6704
1897.42	6752
1899.53	6675
1901.639	6661
1903.745	6750
1905.853	6766
1907.962	6694
1910.067	6808
1912.174	6807
1914.278	6770
1916.383	6633
1918.486	6731
1920.592	6689
1922.694	6848
1924.797	6721
1926.898	6763
1929	6923
1931.102	6793
1933.203	6763
1935.301	6614
1937.401	6832
1939.499	6725
1941.598	6856
1943.697	6817
1945.793	6842
1947.888	6740
1949.985	6725
1952.08	6627
1954.176	6760
1956.269	6820
1958.364	6817
1960.457	6848
1962.549	6760
1964.642	6762
1966.733	6713
1968.823	6873
1970.913	6743
1973.005	6759
1975.093	6675
1977.184	6690
1979.271	6646
1981.359	6818
1983.446	6719
1985.532	6811
1987.619	6644
1989.705	6624
1991.789	6659
1993.874	6695
1995.956	6762
1998.041	6656
2000.123	6713
2002.206	6775
2004.287	6690
2006.368	6702
2008.449	6613
2010.529	6715
2012.609	6621
2014.688	6781
2016.766	6570
2018.843	6648
2020.922	6569
2022.999	6809
2025.074	6805
2027.15	6593
2029.225	6702
2031.299	6737
2033.375	6671
2035.447	6828
2037.52	6637
2039.592	6646
2041.664	6644
2043.736	6641
2045.807	6635
2047.876	6608
2049.947	6657
2052.015	6552
2054.086	6730
2056.153	6668
2058.221	6672
2060.288	6718
2062.353	6629
2064.42	6587
2066.486	6669
2068.55	6808
2070.614	6638
2072.678	6750
2074.741	6649
2076.805	6720
2078.866	6757
2080.929	6640
2082.99	6642
2085.049	6750
2087.109	6544
2089.17	6584
2091.228	6723
2093.286	6720
2095.344	6708
2097.4	6608
2099.46	6603
2101.516	6781
2103.572	6614
2105.626	6639
2107.679	6725
2109.735	6686
2111.788	6647
2113.841	6665
2115.894	6583
2117.945	6664
2119.997	6777
2122.049	6588
2124.1	6682
2126.148	6581
2128.197	6627
2130.246	6679
2132.296	6622
2134.342	6853
2136.39	6720
2138.437	6619
2140.483	6752
2142.527	6605
2144.574	6636
2146.619	6611
2148.661	6573
2150.705	6615
2152.747	6591
2154.792	6621
2156.832	6585
2158.874	6666
2160.915	6609
2162.954	6587
2164.995	6724
2167.034	6637
2169.072	6645
2171.111	6481
2173.148	6631
2175.186	6495
2177.223	6600
2179.258	6564
2181.294	6517
2183.328	6440
2185.362	6662
2187.398	6589
2189.431	6659
2191.463	6498
2193.495	6520
2195.528	6518
2197.56	6490
2199.59	6549
2201.62	6553
2203.649	6512
2205.678	6641
2207.708	6491
2209.737	6437
2211.764	6497
2213.791	6550
2215.817	6577
2217.843	6439
2219.87	6501
2221.895	6479
2223.919	6511
2225.942	6386
2227.966	6561
2229.988	6513
2232.012	6386
2234.032	6575
2236.054	6503
2238.074	6390
2240.095	6618
2242.116	6474
2244.135	6435
2246.153	6391
2248.171	6432
2250.188	6403
2252.208	6360
2254.223	6436
2256.239	6513
2258.255	6526
2260.269	6549
2262.283	6526
2264.3	6443
2266.312	6564
2268.325	6538
2270.336	6481
2272.349	6470
2274.362	6490
2276.372	6460
2278.383	6413
2280.392	6407
2282.402	6519
2284.409	6511
2286.418	6465
2288.427	6400
2290.433	6526
2292.441	6361
2294.446	6405
2296.453	6413
2298.459	6415
2300.463	6421
2302.466	6544
2304.471	6341
2306.475	6335
2308.477	6362
2310.478	6399
2312.481	6394
2314.481	6428
2316.481	6268
2318.482	6504
2320.482	6465
2322.48	6331
2324.48	6466
2326.478	6405
2328.476	6314
2330.473	6306
2332.469	6442
2334.465	6424
2336.46	6339
2338.454	6411
2340.45	6377
2342.444	6303
2344.437	6445
2346.43	6317
2348.421	6352
2350.414	6329
2352.405	6349
2354.396	6362
2356.386	6328
2358.376	6278
2360.366	6272
2362.355	6192
2364.343	6240
2366.331	6143
2368.317	6270
2370.304	6208
2372.292	6338
2374.278	6277
2376.262	6308
2378.247	6206
2380.23	6348
2382.216	6279
2384.199	6196
2386.181	6287
2388.163	6260
2390.144	6263
2392.127	6330
2394.107	6278
2396.087	6219
2398.066	6282
2400.046	6373
2402.023	6215
2404.004	6181
2405.981	6244
2407.957	6259
2409.934	6197
2411.91	6206
2413.886	6144
2415.862	6269
2417.836	6177
2419.809	6140
2421.784	6098
2423.756	6165
2425.73	6197
2427.701	6266
2429.672	6224
2431.644	6215
2433.615	6168
2435.586	6147
2437.555	6248
2439.523	6228
2441.491	6243
2443.459	6185
2445.428	6180
2447.395	6240
2449.361	6242
2451.327	6120
2453.292	6161
2455.257	6216
2457.223	6164
2459.187	6147
2461.15	6053
2463.113	6179
2465.076	6172
2467.039	6137
2468.999	6202
2470.96	6115
2472.921	6048
2474.881	6112
2476.841	6153
2478.8	6191
2480.759	6063
2482.717	6150
2484.675	6179
2486.63	6125
2488.589	6103
2490.545	6144
2492.5	6117
2494.455	6120
2496.408	6112
2498.364	6026
2500.318	6087
2502.27	6053
2504.223	6057
2506.174	6070
2508.126	5967
2510.078	6016
2512.03	6093
2513.979	5968
2515.927	6081
2517.877	6005
2519.826	6062
2521.775	6024
2523.722	6032
2525.668	6076
2527.616	6067
2529.561	6031
2531.508	6084
2533.452	5947
2535.398	6136
2537.342	5987
2539.284	5976
2541.229	5976
2543.173	6051
2545.114	6001
2547.055	5975
2548.996	6057
2550.938	5996
2552.878	6042
2554.817	5971
2556.756	6149
2558.695	6011
2560.633	6043
2562.572	6000
2564.509	5982
2566.445	6142
2568.382	6051
2570.317	6043
2572.254	5985
2574.189	5953
2576.123	5932
2578.057	6059
2579.99	6041
2581.923	5920
2583.855	6029
2585.788	6176
2587.719	6039
2589.65	5963
2591.579	6066
2593.511	5828
2595.44	6028
2597.37	6045
2599.297	5927
2601.225	6108
2603.153	5958
2605.08	6077
2607.007	6005
2608.932	5981
2610.858	6114
2612.782	6005
2614.709	6117
2616.632	6038
2618.556	5998
2620.478	5964
2622.401	6020
2624.324	5968
2626.247	5987
2628.167	6018
2630.088	5992
2632.008	6002
2633.928	5996
2635.848	6018
2637.766	5962
2639.684	5972
2641.603	6085
2643.519	6038
2645.437	5997
2647.353	6039
2649.27	5921
2651.184	5978
2653.099	6105
2655.014	5967
2656.928	6054
2658.842	6079
2660.755	5952
2662.667	6065
2664.579	6073
2666.491	6108
2668.402	5994
2670.312	5883
2672.222	5989
2674.132	6013
2676.042	5992
2677.951	5929
2679.859	5948
2681.766	5897
2683.674	5988
2685.582	5841
2687.488	5858
2689.392	6062
2691.298	5868
2693.202	5820
2695.107	5922
2697.012	5938
2698.914	5889
2700.817	5855
2702.72	5956
2704.622	5892
2706.524	5823
2708.425	5806
2710.326	5935
2712.225	5960
2714.125	5853
2716.024	5933
2717.923	5829
2719.822	5878
2721.719	5830
2723.616	5876
2725.512	5924
2727.41	5842
2729.305	5905
2731.201	5853
2733.095	5896
2734.99	5791
2736.884	5926
2738.778	5918
2740.67	5842
2742.562	5901
2744.455	5816
2746.346	5759
2748.238	5822
2750.129	5819
2752.018	5854
2753.907	5785
2755.797	5798
2757.687	5806
2759.575	5850
2761.462	5827
2763.349	5787
2765.237	5798
2767.124	5865
2769.009	5772
2770.894	5784
2772.779	5836
2774.663	5771
2776.547	5817
2778.431	5715
2780.314	5805
2782.197	5901
2784.078	5687
2785.96	5722
2787.842	5853
2789.723	5738
2791.603	5684
2793.483	5734
2795.362	5735
2797.241	5787
2799.121	5691
2800.997	5853
2802.874	5777
2804.751	5731
2806.628	5740
2808.506	5844
2810.38	5791
2812.255	5775
2814.13	5623
2816.003	5875
2817.878	5790
2819.752	5789
2821.623	5603
2823.496	5715
2825.368	5703
2827.238	5715
2829.111	5742
2830.98	5701
2832.851	5741
2834.719	5683
2836.589	5615
2838.458	5747
2840.327	5746
2842.193	5798
2844.061	5755
2845.927	5820
2847.794	5708
2849.66	5741
2851.525	5686
2853.39	5726
2855.254	5708
2857.117	5766
2858.983	5760
2860.845	5731
2862.707	5968
2864.569	5853
2866.431	5910
2868.293	5908
2870.154	5940
2872.013	5925
2873.873	5944
2875.733	5981
2877.592	6029
2879.451	6124
2881.309	6010
2883.166	6030
2885.022	6178
2886.879	6090
2888.736	6093
2890.591	6223
2892.446	6123
2894.301	6077
2896.155	6191
2898.009	6131
2899.863	6173
2901.716	6151
2903.568	6086
2905.419	6121
2907.27	6078
2909.123	6162
2910.973	6051
2912.824	6224
2914.673	6049
2916.521	6223
2918.372	6111
2920.22	6136
2922.067	6185
2923.914	6311
2925.761	6319
2927.607	6332
2929.455	6367
2931.301	6304
2933.144	6472
2934.99	6347
2936.833	6405
2938.678	6451
2940.522	6525
2942.364	6539
2944.207	6544
2946.048	6647
2947.891	6584
2949.731	6678
2951.571	6648
2953.412	6598
2955.25	6645
2957.09	6603
2958.93	6409
2960.767	6485
2962.606	6584
2964.443	6473
2966.279	6439
2968.116	6334
2969.953	6263
2971.788	6263
2973.623	6313
2975.457	6200
2977.292	6110
2979.127	6139
2980.959	6002
2982.792	6002
2984.624	5965
2986.455	5900
2988.288	5915
2990.119	5897
2991.949	5871
2993.779	5904
2995.608	5863
2997.439	5702
2999.268	5888
3001.096	5682
3002.923	5768
3004.751	5733
3006.578	5647
3008.406	5685
3010.232	5661
3012.057	5599
3013.883	5590
3015.706	5544
3017.532	5609
3019.356	5495
3021.179	5486
3023.002	5511
3024.823	5478
3026.646	5530
3028.469	5425
3030.289	5437
3032.11	5476
3033.93	5437
3035.749	5370
3037.57	5414
3039.39	5357
3041.207	5366
3043.026	5386
3044.842	5362
3046.661	5328
3048.477	5271
3050.294	5429
3052.109	5345
3053.925	5373
3055.739	5341
3057.555	5353
3059.368	5257
3061.181	5261
3062.995	5383
3064.807	5326
3066.62	5314
3068.433	5340
3070.243	5341
3072.054	5237
3073.865	5236
3075.675	5346
3077.485	5244
3079.293	5351
3081.102	5301
3082.911	5230
3084.719	5320
3086.527	5278
3088.333	5206
3090.139	5274
3091.945	5111
3093.75	5266
3095.557	5262
3097.361	5261
3099.165	5187
3100.969	5209
3102.772	5106
3104.575	5259
3106.379	5221
3108.181	5196
3109.982	5172
3111.783	5158
3113.584	5145
3115.386	5164
3117.186	5160
3118.985	5083
3120.783	5070
3122.582	5227
3124.381	5022
3126.179	5088
3127.975	5177
3129.772	5104
3131.569	5096
3133.365	5112
3135.161	5095
3136.956	5092
3138.751	5063
3140.544	5081
3142.338	5168
3144.132	5082
3145.925	4977
3147.717	5103
3149.509	5013
3151.301	5037
3153.091	5077
3154.884	4966
3156.673	5020
3158.462	5023
3160.252	5043
3162.041	5021
3163.831	5054
3165.618	4996
3167.405	4962
3169.193	4890
3170.979	4880
3172.767	5082
3174.553	4985
3176.338	4997
3178.123	4961
3179.907	5089
3181.692	5024
3183.477	4978
3185.259	4939
3187.042	5008
3188.824	5024
3190.607	4931
3192.389	4940
3194.17	4940
3195.951	4941
3197.73	4898
3199.51	4945
3201.289	4931
3203.07	4918
3204.848	4906
3206.626	5001
3208.403	4928
3210.18	4959
3211.959	4956
3213.735	4904
3215.511	4833
3217.285	4878
3219.06	4899
3220.836	4802
3222.611	4924
3224.384	4969
3226.158	4945
3227.929	4937
3229.702	4917
3231.476	4830
3233.248	4964
3235.018	4848
3236.789	4855
3238.56	4806
3240.33	4907
3242.1	4935
3243.869	4890
3245.637	4829
3247.405	4865
3249.172	4927
3250.941	4828
3252.707	4752
3254.474	4953
3256.24	4920
3258.006	4889
3259.772	4888
3261.537	4937
3263.301	4850
3265.065	4844
3266.828	4817
3268.592	4855
3270.355	4888
3272.117	4838
3273.878	4886
3275.64	4870
3277.401	4793
3279.162	4877
3280.922	4812
3282.682	4936
3284.441	4888
3286.199	4845
3287.959	4835
3289.716	4784
3291.475	4863
3293.232	4814
3294.988	4828
3296.744	4947
3298.501	4803
3300.256	4809
3302.011	4915
3303.766	4872
3305.52	4789
3307.275	4829
3309.028	4838
3310.781	4754
3312.533	4740
3314.285	4854
3316.038	4801
3317.789	4784
3319.54	4779
3321.289	4770
3323.039	4808
3324.789	4739
3326.539	4773
3328.288	4707
3330.035	4796
3331.783	4824
3333.531	4809
3335.28	4864
3337.025	4762
3338.771	4702
3340.518	4790
3342.262	4804
3344.009	4878
3345.753	4848
3347.497	4755
3349.24	4708
3350.983	4702
3352.726	4769
3354.469	4790
3356.212	4723
3357.952	4783
3359.694	4679
3361.434	4700
3363.176	4735
3364.916	4765
3366.654	4725
3368.394	4699
3370.132	4796
3371.871	4724
3373.61	4760
3375.346	4703
3377.083	4744
3378.82	4578
3380.556	4671
3382.292	4730
3384.027	4722
3385.763	4525
3387.497	4597
3389.231	4631
3390.965	4707
3392.698	4562
3394.431	4591
3396.164	4616
3397.896	4655
3399.627	4560
3401.36	4647
3403.09	4641
3404.82	4648
3406.55	4616
3408.279	4521
3410.01	4572
3411.738	4567
3413.467	4521
3415.194	4556
3416.92	4550
3418.647	4655
3420.375	4602
3422.102	4641
3423.827	4553
3425.553	4635
3427.277	4563
3429.003	4473
3430.727	4550
3432.451	4510
3434.173	4626
3435.896	4509
3437.62	4496
3439.343	4464
3441.063	4393
3442.785	4547
3444.505	4507
3446.226	4465
3447.948	4448
3449.666	4462
3451.386	4438
3453.104	4450
3454.823	4467
3456.541	4467
3458.259	4462
3459.976	4482
3461.693	4429
3463.408	4380
3465.125	4433
3466.841	4410
3468.556	4382
3470.271	4389
3471.985	4379
3473.698	4340
3475.414	4358
3477.126	4365
3478.838	4334
3480.55	4301
3482.263	4395
3483.975	4389
3485.686	4358
3487.396	4317
3489.106	4390
3490.817	4352
3492.526	4403
3494.236	4282
3495.944	4317
3497.652	4306
3499.359	4329
3501.066	4306
3502.775	4231
3504.481	4281
3506.187	4331
3507.893	4333
3509.598	4333
3511.304	4290
3513.009	4239
3514.713	4339
3516.417	4270
3518.12	4295
3519.821	4180
3521.525	4295
3523.228	4210
3524.929	4256
3526.631	4130
3528.33	4151
3530.032	4162
3531.733	4198
3533.433	4207
3535.131	4208
3536.83	4162
3538.529	4190
3540.227	4232
3541.925	4146
3543.623	4252
3545.319	4122
3547.016	4143
3548.712	4128
3550.408	4141
3552.103	4112
3553.798	4084
3555.491	4160
3557.188	4057
3558.88	4135
3560.574	4068
3562.266	4213
3563.959	4149
3565.651	4140
3567.343	4078
3569.035	4149
3570.725	4056
3572.415	4101
3574.106	4114
3575.797	4149
3577.485	4018
3579.174	4091
3580.863	4036
3582.551	4060
3584.238	4089
3585.926	4063
3587.613	4091
3589.3	4041
3590.986	4117
3592.671	4019
3594.357	3989
3596.042	4025
3597.726	4051
3599.41	4048
3601.094	4046
3602.778	3982
3604.461	3986
3606.143	3981
3607.825	3942
3609.507	4006
3611.188	4022
3612.87	3992
3614.551	4079
3616.229	3983
3617.909	3971
3619.589	3998
3621.269	3973
3622.948	3972
3624.625	3995
3626.302	3989
3627.98	3922
3629.657	3838
3631.334	3995
3633.01	3938
3634.686	3872
3636.361	3895
3638.036	3897
3639.712	3974
3641.385	3967
3643.06	3829
3644.732	3928
3646.405	3814
3648.08	3837
3649.751	3841
3651.424	3962
3653.094	3859
3654.766	3842
3656.436	3799
3658.106	3760
3659.777	3814
3661.446	3890
3663.115	3869
3664.783	3779
3666.452	3759
3668.121	3837
3669.788	3848
3671.454	3857
3673.121	3843
3674.789	3891
3676.455	3885
3678.12	3825
3679.784	3766
3681.45	3814
3683.114	3846
3684.779	3759
3686.442	3732
3688.105	3822
3689.768	3758
3691.43	3802
3693.093	3792
3694.754	3787
3696.415	3885
3698.076	3788
3699.736	3809
3701.396	3753
3703.057	3738
3704.716	3753
3706.375	3812
3708.034	3698
3709.692	3700
3711.351	3740
3713.008	3679
3714.665	3744
3716.321	3728
3717.977	3627
3719.634	3722
3721.29	3680
3722.945	3708
3724.598	3756
3726.253	3766
3727.907	3654
3729.561	3694
3731.214	3736
3732.867	3832
3734.518	3593
3736.171	3715
3737.824	3634
3739.474	3687
3741.125	3699
3742.775	3700
3744.425	3711
3746.074	3641
3747.725	3715
3749.373	3641
3751.022	3713
3752.669	3657
3754.318	3735
3755.966	3699
3757.612	3617
3759.259	3642
3760.905	3658
3762.55	3719
3764.197	3684
3765.842	3666
3767.486	3608
3769.131	3633
3770.774	3616
3772.417	3648
3774.061	3616
3775.705	3533
3777.347	3601
3778.988	3623
3780.629	3620
3782.271	3540
3783.912	3613
3785.552	3634
3787.192	3478
3788.831	3625
3790.472	3505
3792.112	3554
3793.75	3653
3795.388	3538
3797.024	3630
3798.661	3575
3800.3	3532
3801.936	3590
3803.572	3576
3805.208	3497
3806.844	3543
3808.48	3602
3810.115	3500
3811.748	3594
3813.382	3567
3815.016	3522
3816.649	3535
3818.283	3513
3819.914	3557
3821.547	3463
3823.178	3508
3824.809	3516
3826.441	3481
3828.072	3567
3829.701	3518
3831.331	3335
3832.96	3519
3834.591	3484
3836.219	3445
3837.847	3483
3839.475	3525
3841.102	3403
3842.729	3421
3844.357	3526
3845.984	3454
3847.609	3449
3849.234	3417
3850.86	3414
3852.485	3421
3854.11	3428
3855.734	3456
3857.357	3479
3858.981	3407
3860.603	3447
3862.227	3388
3863.848	3320
3865.471	3407
3867.092	3391
3868.713	3386
3870.334	3406
3871.954	3415
3873.575	3373
3875.194	3403
3876.813	3367
3878.433	3398
3880.051	3383
3881.669	3319
3883.286	3446
3884.904	3404
3886.52	3364
3888.138	3432
3889.754	3319
3891.37	3448
3892.985	3330
3894.6	3444
3896.216	3383
3897.831	3289
3899.444	3325
3901.058	3331
3902.67	3310
3904.283	3383
3905.897	3401
3907.509	3346
3909.121	3376
3910.731	3292
3912.342	3354
3913.954	3261
3915.563	3319
3917.174	3359
3918.783	3300
3920.391	3293
3922.002	3348
3923.611	3361
3925.218	3299
3926.826	3293
3928.432	3322
3930.039	3354
3931.647	3315
3933.253	3283
3934.859	3369
3936.464	3246
3938.068	3290
3939.675	3362
3941.278	3279
3942.883	3296
3944.486	3287
3946.089	3343
3947.692	3249
3949.295	3290
3950.898	3275
3952.499	3259
3954.1	3239
3955.7	3301
3957.303	3332
3958.903	3193
3960.502	3345
3962.101	3215
3963.7	3156
3965.301	3264
3966.899	3261
3968.497	3234
3970.094	3275
3971.691	3251
3973.288	3309
3974.885	3273
3976.481	3262
3978.077	3205
3979.672	3234
3981.267	3092
3982.863	3232
3984.457	3219
3986.051	3128
3987.645	3186
3989.238	3165
3990.831	3214
3992.425	3172
3994.017	3138
3995.607	3096
3997.199	3170
3998.79	3177
4000.382	3168
4001.973	3226
4003.561	3089
4005.151	3093
4006.741	3144
4008.331	3164
4009.918	3085
4011.507	3109
4013.095	3235
4014.681	3158
4016.269	3079
4017.856	3158
4019.443	3107
4021.028	3116
4022.614	3093
4024.199	3098
4025.785	3073
4027.37	3100
4028.953	3047
4030.536	3086
4032.12	3021
4033.704	3000
4035.287	3071
4036.869	2948
4038.45	2959
4040.032	3017
4041.613	3048
4043.195	3075
4044.776	3003
4046.356	3078
4047.935	3008
4049.515	3095
4051.095	3062
4052.674	3023
4054.251	2979
4055.829	2982
4057.406	3041
4058.985	3002
4060.562	3037
4062.139	2978
4063.715	3040
4065.29	2928
4066.865	2959
4068.442	3001
4070.016	2981
4071.59	2991
4073.164	2923
4074.738	2973
4076.312	2960
4077.885	2976
4079.458	3006
4081.03	2993
4082.602	3000
4084.173	2997
4085.745	2986
4087.315	2996
4088.886	2981
4090.456	2982
4092.026	2989
4093.596	3034
4095.165	2939
4096.734	2918
4098.301	2900
4099.869	2951
4101.437	2932
4103.006	2915
4104.572	2922
4106.139	2835
4107.704	2926
4109.27	2918
4110.837	2987
4112.401	2946
4113.966	2997
4115.53	2901
4117.094	3017
4118.659	2868
4120.223	2923
4121.785	2882
4123.347	2916
4124.909	2922
4126.471	2864
4128.034	2882
4129.595	2863
4131.155	2881
4132.716	2835
4134.275	2883
4135.836	2852
4137.395	2840
4138.955	2873
4140.513	2746
4142.071	2870
4143.628	2881
4145.188	2751
4146.745	2864
4148.302	2796
4149.858	2819
4151.414	2815
4152.971	2880
4154.526	2786
4156.081	2866
4157.635	2813
4159.189	2802
4160.745	2735
4162.298	2856
4163.852	2871
4165.405	2760
4166.957	2868
4168.51	2792
4170.063	2736
4171.614	2848
4173.166	2752
4174.717	2744
4176.267	2728
4177.817	2752
4179.368	2720
4180.917	2734
4182.466	2762
4184.016	2771
4185.564	2721
4187.112	2776
4188.66	2715
4190.207	2711
4191.754	2722
4193.301	2740
4194.848	2763
4196.394	2721
4197.94	2730
4199.484	2677
4201.03	2727
4202.575	2696
4204.12	2716
4205.663	2729
4207.207	2645
4208.75	2723
4210.292	2693
4211.836	2662
4213.378	2685
4214.92	2652
4216.46	2768
4218.002	2721
4219.544	2676
4221.083	2750
4222.625	2685
4224.164	2701
4225.703	2631
4227.244	2703
4228.782	2654
4230.32	2733
4231.857	2678
4233.395	2649
4234.933	2625
4236.471	2635
4238.007	2642
4239.542	2630
4241.078	2638
4242.614	2628
4244.15	2641
4245.685	2639
4247.219	2619
4248.753	2677
4250.287	2636
4251.82	2665
4253.354	2550
4254.887	2610
4256.419	2640
4257.951	2622
4259.483	2654
4261.016	2621
4262.547	2643
4264.078	2543
4265.608	2685
4267.137	2605
4268.668	2593
4270.197	2628
4271.727	2624
4273.254	2622
4274.783	2567
4276.311	2634
4277.84	2544
4279.366	2643
4280.894	2574
4282.42	2659
4283.946	2560
4285.473	2549
4286.998	2584
4288.523	2557
4290.047	2533
4291.572	2573
4293.096	2567
4294.622	2593
4296.144	2539
4297.668	2514
4299.19	2577
4300.713	2558
4302.236	2615
4303.758	2572
4305.279	2577
4306.799	2491
4308.321	2588
4309.842	2569
4311.361	2583
4312.882	2588
4314.401	2539
