400.0961	4123
402.6185	4130
405.1424	4078
407.6635	4148
410.1838	4176
412.7035	4092
415.2225	4182
417.7388	4227
420.2585	4130
422.7754	4285
425.2917	4378
427.8072	4271
430.3221	4382
432.8363	4304
435.3498	4363
437.8626	4360
440.3727	4264
442.8841	4475
445.3969	4398
447.907	4421
450.4142	4395
452.9229	4415
455.4289	4332
457.9362	4446
460.4449	4323
462.9488	4369
465.454	4373
467.9566	4344
470.4604	4331
472.9637	4312
475.4662	4309
477.966	4409
480.4671	4264
482.9656	4379
485.4633	4379
487.9645	4337
490.4608	4387
492.9566	4409
495.4536	4445
497.948	4524
500.4437	4350
502.9387	4417
505.431	4486
507.9226	4351
510.4136	4407
512.9079	4377
515.3975	4512
517.8864	4444
520.3746	4430
522.8622	4356
525.3491	4487
527.8394	4488
530.3249	4477
532.8098	4528
535.2939	4592
537.7774	4506
540.2623	4574
542.7444	4491
545.2259	4470
547.7067	4526
550.1868	4581
552.6683	4563
555.147	4630
557.6231	4502
560.1005	4450
562.5773	4628
565.0534	4565
567.5308	4560
570.0056	4624
572.4776	4751
574.951	4533
577.4237	4665
579.8978	4644
582.3671	4734
584.8378	4712
587.3079	4792
589.7773	4695
592.244	4762
594.714	4677
597.1793	4724
599.6461	4758
602.1121	4610
604.5754	4695
607.0421	4629
609.5042	4649
611.9675	4661
614.4282	4723
616.8902	4774
619.3515	4634
621.8122	4646
624.2702	4672
626.7296	4627
629.1863	4566
631.6423	4595
634.1017	4666
636.5563	4646
639.0104	4483
641.4658	4569
643.9185	4603
646.3725	4693
648.8239	4706
651.2766	4611
653.7266	4670
656.176	4671
658.6247	4684
661.0748	4648
663.5242	4816
665.9709	4798
668.417	4732
670.8624	4670
673.3092	4723
675.7533	4720
678.1968	4788
680.6395	4741
683.0817	4662
685.5251	4798
687.9659	4801
690.4061	4836
692.8456	4890
695.2844	4818
697.7226	4844
700.1621	4850
702.599	4843
705.0332	4848
707.4688	4934
709.9036	4926
712.3399	5000
714.7735	4854
717.2044	4848
719.6367	4901
722.0683	4900
724.4993	4974
726.9296	4951
729.3593	5020
731.7883	5036
734.2147	5067
736.6423	5024
739.0714	4982
741.4958	4867
743.9216	4972
746.3447	5051
748.7691	4982
751.1929	4995
753.616	5034
756.0366	5160
758.4584	5035
760.8776	5138
763.2982	5071
765.718	5162
768.1373	5258
770.5539	5174
772.9698	5147
775.3871	5096
777.8038	5076
780.2178	5022
782.6332	5192
785.0459	5193
787.458	5113
789.8714	5120
792.2842	5142
794.6943	5099
797.1038	5038
799.5127	5116
801.9209	5160
804.3324	5138
806.7393	5211
809.1456	5190
811.5513	5273
813.9562	5163
816.3625	5320
818.7663	5202
821.1693	5160
823.5718	5198
825.9735	5188
828.3746	5206
830.7771	5174
833.177	5186
835.5762	5270
837.9747	5303
840.3727	5254
842.772	5352
845.1666	5362
847.5626	5407
849.958	5377
852.3527	5472
854.7488	5451
857.1403	5427
859.5331	5516
861.9253	5429
864.3168	5466
866.7057	5317
869.098	5328
871.4876	5444
873.8746	5478
876.263	5371
878.6487	5498
881.0378	5394
883.4243	5302
885.8081	5323
888.1933	5333
890.5759	5388
892.9598	5362
895.343	5380
897.7256	5369
900.1057	5380
902.4871	5307
904.8659	5394
907.246	5427
909.6254	5396
912.0023	5502
914.3786	5711
916.7562	5691
919.1331	5823
921.5074	5846
923.8831	5950
926.2562	5971
928.6287	5907
931.0005	5843
933.3757	5849
935.7462	5729
938.1162	5835
940.4855	5992
942.8542	5941
945.2242	5972
947.5916	6053
949.9584	6068
952.3266	6323
954.6921	6606
957.0571	6862
959.4233	7155
961.787	7271
964.15	7192
966.5125	7139
968.8742	6743
971.2354	6519
973.5959	6133
975.9559	6003
978.3151	6000
980.6738	5888
983.0338	5799
985.3912	5781
987.7461	5697
990.1022	5590
992.4578	5681
994.8127	5632
997.1689	5690
999.5207	5584
1001.874	5702
1004.226	5727
1006.576	5505
1008.929	5649
1011.28	5492
1013.628	5648
1015.977	5564
1018.324	5708
1020.674	5583
1023.019	5556
1025.366	5640
1027.713	5593
1030.056	5621
1032.399	5810
1034.746	5768
1037.087	5732
1039.431	5770
1041.771	5679
1044.113	5669
1046.454	5840
1048.793	5753
1051.133	5749
1053.471	5714
1055.807	5777
1058.146	5723
1060.483	5748
1062.818	5804
1065.153	5819
1067.489	5745
1069.822	5802
1072.156	5814
1074.488	5807
1076.82	5910
1079.15	5760
1081.48	5780
1083.814	5719
1086.143	5756
1088.471	5722
1090.799	5669
1093.126	5637
1095.452	5688
1097.78	5748
1100.105	5696
1102.43	5708
1104.754	5663
1107.077	5649
1109.4	5744
1111.722	5709
1114.044	5782
1116.365	5735
1118.685	5633
1121.005	5755
1123.324	5798
1125.643	5782
1127.961	5809
1130.278	5786
1132.595	5757
1134.911	5646
1137.226	5642
1139.541	5735
1141.854	5725
1144.167	5631
1146.482	5691
1148.793	5605
1151.105	5723
1153.414	5659
1155.725	5647
1158.033	5718
1160.344	5742
1162.651	5829
1164.959	5744
1167.265	5715
1169.572	5795
1171.878	5778
1174.184	5767
1176.488	5820
1178.79	5728
1181.094	5964
1183.396	5814
1185.699	5676
1188.001	5777
1190.301	5671
1192.6	5736
1194.9	5698
1197.2	5752
1199.497	5741
1201.794	5657
1204.09	5784
1206.387	5762
1208.684	5665
1210.978	5782
1213.272	5722
1215.565	5853
1217.858	5752
1220.15	5825
1222.443	5815
1224.734	5761
1227.024	5779
1229.313	5964
1231.602	5977
1233.892	5986
1236.18	5940
1238.467	5960
1240.754	6010
1243.04	5994
1245.325	6088
1247.612	6056
1249.896	5995
1252.178	6219
1254.461	6111
1256.743	6015
1259.027	6092
1261.308	6124
1263.587	6113
1265.867	6104
1268.146	6100
1270.425	6056
1272.703	6206
1274.981	6041
1277.256	6115
1279.532	6060
1281.808	5959
1284.083	6119
1286.358	6036
1288.63	5954
1290.904	5926
1293.175	5905
1295.449	6010
1297.719	5898
1299.99	5950
1302.259	5936
1304.529	5941
1306.798	5939
1309.065	5943
1311.333	6011
1313.599	5977
1315.866	5973
1318.131	5875
1320.396	5996
1322.66	5909
1324.925	5992
1327.187	6104
1329.448	6142
1331.711	6087
1333.974	5946
1336.234	5962
1338.493	5955
1340.752	5909
1343.01	5928
1345.269	5885
1347.526	5918
1349.784	5797
1352.04	5820
1354.295	5813
1356.552	5966
1358.806	5881
1361.059	5943
1363.312	5907
1365.564	5873
1367.818	6027
1370.069	5935
1372.318	5909
1374.568	5895
1376.817	6077
1379.066	5952
1381.316	5934
1383.564	5996
1385.809	6024
1388.056	6028
1390.301	6140
1392.549	6101
1394.793	6389
1397.036	6354
1399.279	6262
1401.522	6435
1403.763	6316
1406.007	6332
1408.248	6302
1410.487	6235
1412.727	6354
1414.965	6393
1417.205	6265
1419.442	6355
1421.68	6272
1423.915	6296
1426.152	6297
1428.388	6210
1430.623	6219
1432.857	6267
1435.091	6272
1437.323	6296
1439.556	6295
1441.789	6507
1444.019	6236
1446.25	6381
1448.48	6220
1450.708	6330
1452.938	6347
1455.167	6442
1457.394	6365
1459.62	6310
1461.846	6309
1464.073	6369
1466.299	6314
1468.523	6350
1470.746	6164
1472.969	6133
1475.191	6185
1477.415	6071
1479.636	6083
1481.858	6029
1484.078	5946
1486.298	5905
1488.518	5964
1490.736	5967
1492.954	5909
1495.169	5898
1497.386	5953
1499.602	5896
1501.819	5854
1504.034	5833
1506.248	5890
1508.462	5754
1510.675	5855
1512.888	5781
1515.1	5929
1517.311	5856
1519.522	5882
1521.732	5914
1523.942	5958
1526.151	5992
1528.36	5895
1530.566	5889
1532.773	5862
1534.98	5929
1537.187	5787
1539.392	5920
1541.596	5959
1543.801	5981
1546.005	6023
1548.208	5978
1550.411	5912
1552.612	6028
1554.814	6090
1557.013	5907
1559.212	6034
1561.414	6056
1563.612	5903
1565.811	6061
1568.007	6056
1570.203	5956
1572.403	6078
1574.598	5989
1576.792	6086
1578.988	6105
1581.181	6065
1583.376	6095
1585.568	5974
1587.761	6093
1589.952	6088
1592.143	6098
1594.333	6088
1596.524	6033
1598.715	5999
1600.903	6144
1603.091	6086
1605.278	6130
1607.466	6172
1609.652	6071
1611.838	6273
1614.023	6205
1616.207	6159
1618.391	6219
1620.576	6060
1622.759	6175
1624.941	6093
1627.123	6229
1629.304	6162
1631.484	6256
1633.664	6168
1635.844	6155
1638.022	6218
1640.201	6267
1642.38	6292
1644.556	6275
1646.732	6257
1648.908	6234
1651.084	6207
1653.257	6398
1655.433	6192
1657.607	6246
1659.779	6265
1661.951	6282
1664.122	6331
1666.295	6335
1668.467	6374
1670.635	6474
1672.805	6426
1674.973	6402
1677.142	6474
1679.31	6366
1681.478	6275
1683.644	6266
1685.81	6215
1687.975	6306
1690.142	6342
1692.305	6203
1694.468	6289
1696.632	6178
1698.794	6243
1700.957	6180
1703.119	6136
1705.279	6060
1707.439	6133
1709.598	6107
1711.758	5978
1713.917	6005
1716.075	6139
1718.231	6142
1720.388	6099
1722.543	6013
1724.702	6143
1726.856	6019
1729.01	6178
1731.164	5995
1733.317	6004
1735.471	6110
1737.623	6138
1739.774	6094
1741.925	6127
1744.075	6007
1746.225	6111
1748.376	6046
1750.524	6142
1752.672	6014
1754.82	6073
1756.965	6167
1759.113	5957
1761.259	6019
1763.405	5993
1765.549	6006
1767.694	6125
1769.836	6272
1771.981	6061
1774.123	6184
1776.264	6094
1778.405	6160
1780.546	6071
1782.687	5973
1784.827	6078
1786.966	6047
1789.103	6079
1791.242	6090
1793.381	6061
1795.517	6182
1797.653	6120
1799.788	6043
1801.923	6129
1804.057	6124
1806.193	6088
1808.326	6242
1810.457	6124
1812.59	5962
1814.721	6131
1816.855	6089
1818.984	6085
1821.113	6015
1823.244	6072
1825.372	6056
1827.499	6035
1829.63	5973
1831.756	6203
1833.882	6093
1836.007	6052
1838.132	6003
1840.26	6118
1842.384	6011
1844.507	6077
1846.63	6185
1848.752	6003
1850.875	6037
1852.996	5949
1855.118	6055
1857.238	5993
1859.358	6056
1861.477	6062
1863.597	6028
1865.715	6033
1867.832	6051
1869.948	5919
1872.064	5922
1874.181	6100
1876.297	6006
1878.411	6045
1880.526	6017
1882.639	6069
1884.752	6012
1886.865	6086
1888.977	6012
1891.089	6056
1893.2	6114
1895.308	6076
1897.42	6265
1899.53	6101
1901.639	6190
1903.745	6120
1905.853	6064
1907.962	6017
1910.067	6014
1912.174	6174
1914.278	6169
1916.383	6110
1918.486	6177
1920.592	6327
1922.694	6152
1924.797	6074
1926.898	6056
1929	6192
1931.102	6142
1933.203	6262
1935.301	6142
1937.401	6105
1939.499	6135
1941.598	6236
1943.697	6214
1945.793	6065
1947.888	6200
1949.985	6133
1952.08	6168
1954.176	6173
1956.269	6103
1958.364	6195
1960.457	6198
1962.549	6158
1964.642	6142
1966.733	6316
1968.823	6182
1970.913	6133
1973.005	6214
1975.093	6194
1977.184	6108
1979.271	6129
1981.359	6090
1983.446	5986
1985.532	5979
1987.619	6018
1989.705	6069
1991.789	6156
1993.874	6050
1995.956	6165
1998.041	6053
2000.123	6104
2002.206	6074
2004.287	6014
2006.368	6073
2008.449	6009
2010.529	6057
2012.609	6111
2014.688	6084
2016.766	6028
2018.843	6141
2020.922	6092
2022.999	5967
2025.074	6060
2027.15	6105
2029.225	6155
2031.299	6043
2033.375	6005
2035.447	6077
2037.52	6072
2039.592	6096
2041.664	6145
2043.736	6078
2045.807	6026
2047.876	6127
2049.947	6001
2052.015	6036
2054.086	6049
2056.153	6116
2058.221	6118
2060.288	6055
2062.353	6202
2064.42	6097
2066.486	6092
2068.55	6104
2070.614	6101
2072.678	6160
2074.741	6071
2076.805	6107
2078.866	6109
2080.929	6136
2082.99	6177
2085.049	6144
2087.109	6013
2089.17	6084
2091.228	6069
2093.286	6049
2095.344	5988
2097.4	6105
2099.46	6097
2101.516	6062
2103.572	6111
2105.626	5970
2107.679	6075
2109.735	6144
2111.788	6087
2113.841	6170
2115.894	6109
2117.945	6054
2119.997	6144
2122.049	6100
2124.1	6144
2126.148	6085
2128.197	6110
2130.246	6175
2132.296	6037
2134.342	6015
2136.39	6121
2138.437	6110
2140.483	6079
2142.527	6037
2144.574	6066
2146.619	6112
2148.661	6103
2150.705	5932
2152.747	6101
2154.792	6072
2156.832	5986
2158.874	5952
2160.915	6102
2162.954	6107
2164.995	6018
2167.034	6041
2169.072	6029
2171.111	6077
2173.148	5972
2175.186	6078
2177.223	5942
2179.258	5992
2181.294	5974
2183.328	5997
2185.362	6051
2187.398	5978
2189.431	5922
2191.463	5877
2193.495	5954
2195.528	5968
2197.56	5904
2199.59	5930
2201.62	5937
2203.649	5992
2205.678	5905
2207.708	5957
2209.737	6019
2211.764	6070
2213.791	5826
2215.817	5881
2217.843	5967
2219.87	5871
2221.895	5884
2223.919	5905
2225.942	6050
2227.966	6042
2229.988	5870
2232.012	5834
2234.032	5874
2236.054	5986
2238.074	5736
2240.095	5936
2242.116	5920
2244.135	5960
2246.153	5859
2248.171	5832
2250.188	5866
2252.208	5894
2254.223	5950
2256.239	5857
2258.255	5895
2260.269	5966
2262.283	5975
2264.3	5858
2266.312	5942
2268.325	5856
2270.336	5938
2272.349	5950
2274.362	5817
2276.372	5849
2278.383	5931
2280.392	5863
2282.402	5963
2284.409	5974
2286.418	5885
2288.427	5928
2290.433	5882
2292.441	5859
2294.446	5942
2296.453	5867
2298.459	5902
2300.463	5920
2302.466	5816
2304.471	5865
2306.475	5841
2308.477	5922
2310.478	5826
2312.481	5979
2314.481	5889
2316.481	5856
2318.482	5779
2320.482	5858
2322.48	5807
2324.48	5881
2326.478	5843
2328.476	5828
2330.473	5854
2332.469	5850
2334.465	5951
2336.46	5914
2338.454	5729
2340.45	5873
2342.444	5739
2344.437	5728
2346.43	5919
2348.421	5803
2350.414	5753
2352.405	5800
2354.396	5777
2356.386	5769
2358.376	5681
2360.366	5763
2362.355	5820
2364.343	5692
2366.331	5795
2368.317	5852
2370.304	5677
2372.292	5815
2374.278	5744
2376.262	5787
2378.247	5747
2380.23	5675
2382.216	5822
2384.199	5669
2386.181	5595
2388.163	5708
2390.144	5783
2392.127	5701
2394.107	5791
2396.087	5709
2398.066	5698
2400.046	5749
2402.023	5594
2404.004	5664
2405.981	5685
2407.957	5694
2409.934	5732
2411.91	5749
2413.886	5701
2415.862	5763
2417.836	5567
2419.809	5775
2421.784	5627
2423.756	5650
2425.73	5679
2427.701	5666
2429.672	5830
2431.644	5719
2433.615	5779
2435.586	5668
2437.555	5614
2439.523	5753
2441.491	5708
2443.459	5756
2445.428	5665
2447.395	5687
2449.361	5565
2451.327	5673
2453.292	5678
2455.257	5611
2457.223	5656
2459.187	5594
2461.15	5636
2463.113	5646
2465.076	5730
2467.039	5679
2468.999	5742
2470.96	5630
2472.921	5665
2474.881	5707
2476.841	5549
2478.8	5634
2480.759	5609
2482.717	5537
2484.675	5602
2486.63	5518
2488.589	5651
2490.545	5531
2492.5	5542
2494.455	5656
2496.408	5670
2498.364	5589
2500.318	5544
2502.27	5559
2504.223	5504
2506.174	5559
2508.126	5625
2510.078	5633
2512.03	5522
2513.979	5572
2515.927	5478
2517.877	5548
2519.826	5546
2521.775	5494
2523.722	5597
2525.668	5638
2527.616	5555
2529.561	5573
2531.508	5464
2533.452	5544
2535.398	5480
2537.342	5578
2539.284	5598
2541.229	5514
2543.173	5575
2545.114	5510
2547.055	5481
2548.996	5559
2550.938	5520
2552.878	5620
2554.817	5624
2556.756	5564
2558.695	5485
2560.633	5591
2562.572	5489
2564.509	5602
2566.445	5564
2568.382	5509
2570.317	5601
2572.254	5541
2574.189	5548
2576.123	5567
2578.057	5574
2579.99	5570
2581.923	5568
2583.855	5499
2585.788	5549
2587.719	5494
2589.65	5529
2591.579	5573
2593.511	5525
2595.44	5538
2597.37	5511
2599.297	5525
2601.225	5491
2603.153	5524
2605.08	5580
2607.007	5590
2608.932	5461
2610.858	5516
2612.782	5595
2614.709	5565
2616.632	5519
2618.556	5581
2620.478	5593
2622.401	5573
2624.324	5599
2626.247	5609
2628.167	5411
2630.088	5613
2632.008	5552
2633.928	5524
2635.848	5557
2637.766	5489
2639.684	5585
2641.603	5651
2643.519	5510
2645.437	5603
2647.353	5600
2649.27	5551
2651.184	5515
2653.099	5686
2655.014	5487
2656.928	5593
2658.842	5497
2660.755	5564
2662.667	5507
2664.579	5542
2666.491	5519
2668.402	5460
2670.312	5595
2672.222	5469
2674.132	5467
2676.042	5570
2677.951	5524
2679.859	5428
2681.766	5531
2683.674	5463
2685.582	5440
2687.488	5564
2689.392	5600
2691.298	5476
2693.202	5494
2695.107	5531
2697.012	5309
2698.914	5475
2700.817	5466
2702.72	5431
2704.622	5498
2706.524	5497
2708.425	5331
2710.326	5381
2712.225	5526
2714.125	5439
2716.024	5502
2717.923	5527
2719.822	5434
2721.719	5483
2723.616	5526
2725.512	5498
2727.41	5418
2729.305	5413
2731.201	5424
2733.095	5465
2734.99	5408
2736.884	5477
2738.778	5539
2740.67	5370
2742.562	5557
2744.455	5409
2746.346	5386
2748.238	5541
2750.129	5405
2752.018	5505
2753.907	5367
2755.797	5431
2757.687	5397
2759.575	5464
2761.462	5416
2763.349	5442
2765.237	5411
2767.124	5480
2769.009	5499
2770.894	5491
2772.779	5456
2774.663	5524
2776.547	5464
2778.431	5359
2780.314	5421
2782.197	5382
2784.078	5431
2785.96	5416
2787.842	5414
2789.723	5497
2791.603	5459
2793.483	5336
2795.362	5245
2797.241	5356
2799.121	5306
2800.997	5374
2802.874	5394
2804.751	5404
2806.628	5383
2808.506	5362
2810.38	5355
2812.255	5369
2814.13	5361
2816.003	5412
2817.878	5393
2819.752	5424
2821.623	5359
2823.496	5303
2825.368	5324
2827.238	5308
2829.111	5492
2830.98	5446
2832.851	5411
2834.719	5366
2836.589	5374
2838.458	5438
2840.327	5484
2842.193	5460
2844.061	5488
2845.927	5350
2847.794	5457
2849.66	5509
2851.525	5528
2853.39	5579
2855.254	5549
2857.117	5642
2858.983	5541
2860.845	5544
2862.707	5560
2864.569	5655
2866.431	5711
2868.293	5819
2870.154	5801
2872.013	5935
2873.873	5897
2875.733	5964
2877.592	6083
2879.451	6170
2881.309	6197
2883.166	6153
2885.022	6268
2886.879	6345
2888.736	6334
2890.591	6413
2892.446	6420
2894.301	6289
2896.155	6406
2898.009	6248
2899.863	6380
2901.716	6368
2903.568	6320
2905.419	6299
2907.27	6275
2909.123	6396
2910.973	6355
2912.824	6469
2914.673	6554
2916.521	6569
2918.372	6698
2920.22	6747
2922.067	6687
2923.914	6788
2925.761	6904
2927.607	6949
2929.455	6944
2931.301	7124
2933.144	7123
2934.99	7189
2936.833	7103
2938.678	7278
2940.522	7318
2942.364	7684
2944.207	7548
2946.048	7682
2947.891	7820
2949.731	7837
2951.571	7875
2953.412	7762
2955.25	7627
2957.09	7541
2958.93	7567
2960.767	7384
2962.606	7208
2964.443	7044
2966.279	7165
2968.116	6855
2969.953	7073
2971.788	6802
2973.623	6778
2975.457	6694
2977.292	6616
2979.127	6510
2980.959	6602
2982.792	6359
2984.624	6468
2986.455	6325
2988.288	6343
2990.119	6236
2991.949	6226
2993.779	6114
2995.608	6122
2997.439	6050
2999.268	5980
3001.096	5877
3002.923	5862
3004.751	5763
3006.578	5735
3008.406	5773
3010.232	5664
3012.057	5598
3013.883	5507
3015.706	5516
3017.532	5484
3019.356	5499
3021.179	5422
3023.002	5372
3024.823	5307
3026.646	5324
3028.469	5193
3030.289	5260
3032.11	5350
3033.93	5256
3035.749	5229
3037.57	5348
3039.39	5226
3041.207	5200
3043.026	5120
3044.842	5283
3046.661	5107
3048.477	5268
3050.294	5097
3052.109	5152
3053.925	5176
3055.739	5191
3057.555	5212
3059.368	5228
3061.181	5224
3062.995	5278
3064.807	5044
3066.62	5144
3068.433	5264
3070.243	5185
3072.054	5127
3073.865	5157
3075.675	5131
3077.485	5100
3079.293	5076
3081.102	5019
3082.911	5036
3084.719	5082
3086.527	5064
3088.333	5054
3090.139	5055
3091.945	5033
3093.75	5052
3095.557	4962
3097.361	5119
3099.165	5012
3100.969	5034
3102.772	4999
3104.575	5067
3106.379	4917
3108.181	4909
3109.982	5021
3111.783	4871
3113.584	5014
3115.386	4916
3117.186	5117
3118.985	4988
3120.783	5020
3122.582	4915
3124.381	4968
3126.179	4898
3127.975	4858
3129.772	4816
3131.569	4909
3133.365	4816
3135.161	4941
3136.956	4988
3138.751	4940
3140.544	4905
3142.338	4955
3144.132	4888
3145.925	4948
3147.717	4889
3149.509	4855
3151.301	4896
3153.091	4827
3154.884	4899
3156.673	4892
3158.462	4848
3160.252	4821
3162.041	4872
3163.831	4858
3165.618	4877
3167.405	4802
3169.193	4820
3170.979	4842
3172.767	4788
3174.553	4931
3176.338	4841
3178.123	4871
3179.907	4828
3181.692	4805
3183.477	4874
3185.259	4811
3187.042	4856
3188.824	4868
3190.607	4862
3192.389	4782
3194.17	4873
3195.951	4840
3197.73	4869
3199.51	4813
3201.289	4777
3203.07	4937
3204.848	4755
3206.626	4765
3208.403	4761
3210.18	4831
3211.959	4766
3213.735	4911
3215.511	4778
3217.285	4812
3219.06	4908
3220.836	4809
3222.611	4802
3224.384	4845
3226.158	4813
3227.929	4799
3229.702	4933
3231.476	4804
3233.248	4793
3235.018	4844
3236.789	4879
3238.56	4827
3240.33	4814
3242.1	4845
3243.869	4795
3245.637	4878
3247.405	4756
3249.172	4846
3250.941	4898
3252.707	4819
3254.474	4802
3256.24	4865
3258.006	4859
3259.772	4844
3261.537	4825
3263.301	4855
3265.065	4809
3266.828	4866
3268.592	4867
3270.355	4794
3272.117	4858
3273.878	4851
3275.64	4821
3277.401	4814
3279.162	4857
3280.922	4957
3282.682	4839
3284.441	4772
3286.199	4787
3287.959	4846
3289.716	4853
3291.475	4779
3293.232	4856
3294.988	4838
3296.744	4803
3298.501	4863
3300.256	4821
3302.011	4762
3303.766	4876
3305.52	4839
3307.275	4835
3309.028	4770
3310.781	4827
3312.533	4787
3314.285	4869
3316.038	4735
3317.789	4896
3319.54	4892
3321.289	4863
3323.039	4723
3324.789	4841
3326.539	4818
3328.288	4782
3330.035	4873
3331.783	4688
3333.531	4826
3335.28	4797
3337.025	4795
3338.771	4726
3340.518	4788
3342.262	4766
3344.009	4790
3345.753	4714
3347.497	4681
3349.24	4723
3350.983	4794
3352.726	4711
3354.469	4779
3356.212	4686
3357.952	4697
3359.694	4617
3361.434	4710
3363.176	4654
3364.916	4736
3366.654	4671
3368.394	4664
3370.132	4674
3371.871	4652
3373.61	4668
3375.346	4667
3377.083	4636
3378.82	4678
3380.556	4632
3382.292	4682
3384.027	4678
3385.763	4637
3387.497	4633
3389.231	4688
3390.965	4672
3392.698	4704
3394.431	4659
3396.164	4552
3397.896	4562
3399.627	4594
3401.36	4581
3403.09	4648
3404.82	4501
3406.55	4510
3408.279	4640
3410.01	4570
3411.738	4530
3413.467	4600
3415.194	4576
3416.92	4627
3418.647	4600
3420.375	4494
3422.102	4596
3423.827	4493
3425.553	4477
3427.277	4544
3429.003	4476
3430.727	4478
3432.451	4535
3434.173	4518
3435.896	4467
3437.62	4472
3439.343	4507
3441.063	4480
3442.785	4485
3444.505	4456
3446.226	4413
3447.948	4430
3449.666	4467
3451.386	4340
3453.104	4401
3454.823	4426
3456.541	4446
3458.259	4419
3459.976	4412
3461.693	4454
3463.408	4430
3465.125	4441
3466.841	4439
3468.556	4342
3470.271	4422
3471.985	4401
3473.698	4300
3475.414	4358
3477.126	4301
3478.838	4255
3480.55	4306
3482.263	4304
3483.975	4337
3485.686	4378
3487.396	4278
3489.106	4308
3490.817	4322
3492.526	4279
3494.236	4300
3495.944	4174
3497.652	4289
3499.359	4242
3501.066	4198
3502.775	4296
3504.481	4223
3506.187	4239
3507.893	4186
3509.598	4179
3511.304	4248
3513.009	4120
3514.713	4153
3516.417	4132
3518.12	4151
3519.821	4147
3521.525	4123
3523.228	4118
3524.929	4166
3526.631	4135
3528.33	4128
3530.032	4102
3531.733	4132
3533.433	4098
3535.131	4024
3536.83	4134
3538.529	4100
3540.227	4105
3541.925	4100
3543.623	4070
3545.319	4039
3547.016	4103
3548.712	3990
3550.408	3992
3552.103	4098
3553.798	4035
3555.491	3987
3557.188	4110
3558.88	4074
3560.574	3960
3562.266	3939
3563.959	4032
3565.651	3974
3567.343	4039
3569.035	4056
3570.725	4047
3572.415	3929
3574.106	4046
3575.797	3961
3577.485	4001
3579.174	3917
3580.863	4003
3582.551	3948
3584.238	3959
3585.926	3998
3587.613	3951
3589.3	3895
3590.986	3969
3592.671	3980
3594.357	3924
3596.042	3992
3597.726	3862
3599.41	3880
3601.094	3852
3602.778	3873
3604.461	3838
3606.143	3777
3607.825	3864
3609.507	3823
3611.188	3821
3612.87	3824
3614.551	3803
3616.229	3828
3617.909	3797
3619.589	3750
3621.269	3849
3622.948	3728
3624.625	3766
3626.302	3749
3627.98	3785
3629.657	3700
3631.334	3782
3633.01	3678
3634.686	3810
3636.361	3737
3638.036	3782
3639.712	3778
3641.385	3762
3643.06	3806
3644.732	3648
3646.405	3696
3648.08	3666
3649.751	3711
3651.424	3670
3653.094	3675
3654.766	3711
3656.436	3556
3658.106	3679
3659.777	3619
3661.446	3603
3663.115	3685
3664.783	3635
3666.452	3630
3668.121	3658
3669.788	3644
3671.454	3633
3673.121	3572
3674.789	3620
3676.455	3582
3678.12	3556
3679.784	3624
3681.45	3674
3683.114	3597
3684.779	3643
3686.442	3578
3688.105	3604
3689.768	3498
3691.43	3548
3693.093	3479
3694.754	3546
3696.415	3614
3698.076	3625
3699.736	3584
3701.396	3582
3703.057	3542
3704.716	3465
3706.375	3536
3708.034	3510
3709.692	3539
3711.351	3424
3713.008	3577
3714.665	3555
3716.321	3528
3717.977	3584
3719.634	3521
3721.29	3491
3722.945	3448
3724.598	3541
3726.253	3534
3727.907	3445
3729.561	3564
3731.214	3506
3732.867	3506
3734.518	3444
3736.171	3460
3737.824	3511
3739.474	3455
3741.125	3494
3742.775	3496
3744.425	3496
3746.074	3480
3747.725	3533
3749.373	3465
3751.022	3490
3752.669	3407
3754.318	3465
3755.966	3476
3757.612	3366
3759.259	3420
3760.905	3480
3762.55	3479
3764.197	3378
3765.842	3463
3767.486	3419
3769.131	3408
3770.774	3376
3772.417	3478
3774.061	3444
3775.705	3438
3777.347	3454
3778.988	3366
3780.629	3361
3782.271	3454
3783.912	3466
3785.552	3424
3787.192	3428
3788.831	3364
3790.472	3349
3792.112	3414
3793.75	3381
3795.388	3349
3797.024	3265
3798.661	3412
3800.3	3341
3801.936	3374
3803.572	3336
3805.208	3391
3806.844	3350
3808.48	3246
3810.115	3373
3811.748	3387
3813.382	3390
3815.016	3217
3816.649	3285
3818.283	3318
3819.914	3302
3821.547	3335
3823.178	3328
3824.809	3312
3826.441	3333
3828.072	3341
3829.701	3285
3831.331	3285
3832.96	3302
3834.591	3298
3836.219	3274
3837.847	3347
3839.475	3270
3841.102	3324
3842.729	3255
3844.357	3310
3845.984	3257
3847.609	3263
3849.234	3193
3850.86	3273
3852.485	3287
3854.11	3177
3855.734	3228
3857.357	3222
3858.981	3201
3860.603	3272
3862.227	3209
3863.848	3278
3865.471	3194
3867.092	3174
3868.713	3231
3870.334	3254
3871.954	3227
3873.575	3181
3875.194	3211
3876.813	3218
3878.433	3226
3880.051	3216
3881.669	3214
3883.286	3205
3884.904	3149
3886.52	3177
3888.138	3271
3889.754	3182
3891.37	3209
3892.985	3154
3894.6	3156
3896.216	3158
3897.831	3097
3899.444	3166
3901.058	3224
3902.67	3196
3904.283	3137
3905.897	3180
3907.509	3151
3909.121	3192
3910.731	3192
3912.342	3138
3913.954	3122
3915.563	3199
3917.174	3195
3918.783	3169
3920.391	3131
3922.002	3204
3923.611	3138
3925.218	3201
3926.826	3146
3928.432	3168
3930.039	3118
3931.647	3139
3933.253	3174
3934.859	3066
3936.464	3040
3938.068	3109
3939.675	3141
3941.278	3056
3942.883	3132
3944.486	3141
3946.089	3138
3947.692	3019
3949.295	3137
3950.898	3096
3952.499	3158
3954.1	3115
3955.7	3055
3957.303	3108
3958.903	3110
3960.502	3059
3962.101	2991
3963.7	3085
3965.301	3076
3966.899	3101
3968.497	3060
3970.094	3019
3971.691	3069
3973.288	3063
3974.885	3026
3976.481	3093
3978.077	3068
3979.672	3027
3981.267	3030
3982.863	2977
3984.457	3100
3986.051	3002
3987.645	3006
3989.238	2977
3990.831	3065
3992.425	2906
3994.017	3020
3995.607	3035
3997.199	2966
3998.79	2957
4000.382	2933
4001.973	2967
4003.561	3004
4005.151	2953
4006.741	2928
4008.331	2955
4009.918	2892
4011.507	2963
4013.095	2971
4014.681	2904
4016.269	3000
4017.856	2908
4019.443	2922
4021.028	2963
4022.614	2926
4024.199	2894
4025.785	2916
4027.37	2910
4028.953	2915
4030.536	2940
4032.12	2926
4033.704	2910
4035.287	2880
4036.869	2896
4038.45	2912
4040.032	2911
4041.613	2871
4043.195	2874
4044.776	2870
4046.356	2900
4047.935	2849
4049.515	2836
4051.095	2816
4052.674	2982
4054.251	2875
4055.829	2879
4057.406	2780
4058.985	2870
4060.562	2872
4062.139	2876
4063.715	2860
4065.29	2818
4066.865	2893
4068.442	2790
4070.016	2838
4071.59	2857
4073.164	2866
4074.738	2902
4076.312	2856
4077.885	2780
4079.458	2861
4081.03	2750
4082.602	2852
4084.173	2806
4085.745	2829
4087.315	2794
4088.886	2833
4090.456	2790
4092.026	2764
4093.596	2761
4095.165	2821
4096.734	2725
4098.301	2816
4099.869	2806
4101.437	2824
4103.006	2769
4104.572	2661
4106.139	2796
4107.704	2752
4109.27	2761
4110.837	2793
4112.401	2810
4113.966	2764
4115.53	2728
4117.094	2734
4118.659	2742
4120.223	2773
4121.785	2748
4123.347	2748
4124.909	2771
4126.471	2768
4128.034	2730
4129.595	2715
4131.155	2738
4132.716	2648
4134.275	2744
4135.836	2736
4137.395	2658
4138.955	2699
4140.513	2698
4142.071	2733
4143.628	2725
4145.188	2720
4146.745	2741
4148.302	2698
4149.858	2680
4151.414	2714
4152.971	2661
4154.526	2658
4156.081	2653
4157.635	2665
4159.189	2696
4160.745	2597
4162.298	2638
4163.852	2579
4165.405	2680
4166.957	2666
4168.51	2657
4170.063	2619
4171.614	2624
4173.166	2581
4174.717	2579
4176.267	2682
4177.817	2657
4179.368	2676
4180.917	2595
4182.466	2669
4184.016	2642
4185.564	2632
4187.112	2582
4188.66	2648
4190.207	2639
4191.754	2578
4193.301	2664
4194.848	2563
4196.394	2620
4197.94	2647
4199.484	2554
4201.03	2565
4202.575	2584
4204.12	2486
4205.663	2578
4207.207	2620
4208.75	2497
4210.292	2534
4211.836	2574
4213.378	2598
4214.92	2550
4216.46	2590
4218.002	2573
4219.544	2560
4221.083	2530
4222.625	2581
4224.164	2581
4225.703	2575
4227.244	2597
4228.782	2560
4230.32	2503
4231.857	2613
4233.395	2449
4234.933	2603
4236.471	2593
4238.007	2551
4239.542	2544
4241.078	2566
4242.614	2551
4244.15	2560
4245.685	2550
4247.219	2526
4248.753	2462
4250.287	2531
4251.82	2522
4253.354	2449
4254.887	2581
4256.419	2487
4257.951	2552
4259.483	2529
4261.016	2456
4262.547	2543
4264.078	2502
4265.608	2472
4267.137	2457
4268.668	2513
4270.197	2495
4271.727	2500
4273.254	2474
4274.783	2466
4276.311	2459
4277.84	2523
4279.366	2439
4280.894	2482
4282.42	2512
4283.946	2480
4285.473	2393
4286.998	2471
4288.523	2487
4290.047	2467
4291.572	2462
4293.096	2446
4294.622	2480
4296.144	2441
4297.668	2457
4299.19	2418
4300.713	2465
4302.236	2454
4303.758	2435
4305.279	2413
4306.799	2416
4308.321	2400
4309.842	2438
4311.361	2402
4312.882	2419
4314.401	2451
