400.0961	4017
402.6185	4111
405.1424	4124
407.6635	4104
410.1838	4169
412.7035	4169
415.2225	4161
417.7388	4179
420.2585	4218
422.7754	4270
425.2917	4343
427.8072	4358
430.3221	4344
432.8363	4368
435.3498	4388
437.8626	4348
440.3727	4415
442.8841	4456
445.3969	4397
447.907	4391
450.4142	4317
452.9229	4367
455.4289	4343
457.9362	4389
460.4449	4398
462.9488	4377
465.454	4306
467.9566	4363
470.4604	4424
472.9637	4383
475.4662	4391
477.966	4371
480.4671	4457
482.9656	4402
485.4633	4432
487.9645	4472
490.4608	4523
492.9566	4438
495.4536	4495
497.948	4460
500.4437	4479
502.9387	4493
505.431	4571
507.9226	4472
510.4136	4489
512.9079	4529
515.3975	4524
517.8864	4557
520.3746	4511
522.8622	4564
525.3491	4505
527.8394	4621
530.3249	4600
532.8098	4499
535.2939	4544
537.7774	4579
540.2623	4508
542.7444	4533
545.2259	4488
547.7067	4642
550.1868	4586
552.6683	4571
555.147	4548
557.6231	4622
560.1005	4572
562.5773	4625
565.0534	4600
567.5308	4579
570.0056	4614
572.4776	4650
574.951	4624
577.4237	4668
579.8978	4793
582.3671	4813
584.8378	4733
587.3079	4835
589.7773	4686
592.244	4670
594.714	4735
597.1793	4814
599.6461	4779
602.1121	4741
604.5754	4838
607.0421	4675
609.5042	4681
611.9675	4674
614.4282	4707
616.8902	4773
619.3515	4751
621.8122	4744
624.2702	4732
626.7296	4779
629.1863	4605
631.6423	4726
634.1017	4675
636.5563	4724
639.0104	4817
641.4658	4660
643.9185	4730
646.3725	4728
648.8239	4753
651.2766	4745
653.7266	4723
656.176	4743
658.6247	4776
661.0748	4805
663.5242	4726
665.9709	4800
668.417	4804
670.8624	4815
673.3092	4863
675.7533	4836
678.1968	4878
680.6395	4949
683.0817	4867
685.5251	4836
687.9659	4859
690.4061	4861
692.8456	4899
695.2844	4867
697.7226	4969
700.1621	4922
702.599	5062
705.0332	4894
707.4688	4970
709.9036	5015
712.3399	4981
714.7735	5029
717.2044	4964
719.6367	5108
722.0683	5043
724.4993	5035
726.9296	5078
729.3593	4996
731.7883	4921
734.2147	5060
736.6423	5040
739.0714	5082
741.4958	5072
743.9216	5177
746.3447	5087
748.7691	5202
751.1929	5072
753.616	5221
756.0366	5229
758.4584	5265
760.8776	5219
763.2982	5098
765.718	5307
768.1373	5272
770.5539	5234
772.9698	5235
775.3871	5298
777.8038	5246
780.2178	5124
782.6332	5198
785.0459	5135
787.458	5259
789.8714	5264
792.2842	5219
794.6943	5209
797.1038	5189
799.5127	5266
801.9209	5292
804.3324	5248
806.7393	5275
809.1456	5158
811.5513	5268
813.9562	5307
816.3625	5301
818.7663	5269
821.1693	5371
823.5718	5347
825.9735	5262
828.3746	5334
830.7771	5250
833.177	5424
835.5762	5402
837.9747	5282
840.3727	5441
842.772	5365
845.1666	5312
847.5626	5412
849.958	5476
852.3527	5489
854.7488	5448
857.1403	5477
859.5331	5401
861.9253	5538
864.3168	5424
866.7057	5419
869.098	5422
871.4876	5474
873.8746	5400
876.263	5388
878.6487	5369
881.0378	5381
883.4243	5373
885.8081	5446
888.1933	5355
890.5759	5388
892.9598	5504
895.343	5474
897.7256	5397
900.1057	5412
902.4871	5409
904.8659	5513
907.246	5449
909.6254	5481
912.0023	5431
914.3786	5605
916.7562	5644
919.1331	5678
921.5074	5829
923.8831	5843
926.2562	5766
928.6287	5837
931.0005	5763
933.3757	5686
935.7462	5786
938.1162	5821
940.4855	5813
942.8542	5720
945.2242	5832
947.5916	5830
949.9584	5952
952.3266	6166
954.6921	6156
957.0571	6437
959.4233	6562
961.787	6666
964.15	6653
966.5125	6551
968.8742	6302
971.2354	6242
973.5959	5894
975.9559	5947
978.3151	5861
980.6738	5796
983.0338	5744
985.3912	5628
987.7461	5767
990.1022	5618
992.4578	5626
994.8127	5610
997.1689	5679
999.5207	5633
1001.874	5860
1004.226	5624
1006.576	5615
1008.929	5618
1011.28	5664
1013.628	5682
1015.977	5555
1018.324	5625
1020.674	5695
1023.019	5708
1025.366	5709
1027.713	5638
1030.056	5718
1032.399	5706
1034.746	5719
1037.087	5692
1039.431	5769
1041.771	5786
1044.113	5660
1046.454	5764
1048.793	5750
1051.133	5742
1053.471	5738
1055.807	5790
1058.146	5694
1060.483	5829
1062.818	5785
1065.153	5732
1067.489	5811
1069.822	5796
1072.156	5818
1074.488	5882
1076.82	5777
1079.15	5766
1081.48	5817
1083.814	5819
1086.143	5855
1088.471	5819
1090.799	5771
1093.126	5803
1095.452	5800
1097.78	5776
1100.105	5704
1102.43	5828
1104.754	5684
1107.077	5694
1109.4	5730
1111.722	5745
1114.044	5725
1116.365	5747
1118.685	5749
1121.005	5769
1123.324	5844
1125.643	5873
1127.961	5762
1130.278	5839
1132.595	5853
1134.911	5834
1137.226	5812
1139.541	5801
1141.854	5819
1144.167	5800
1146.482	5745
1148.793	5692
1151.105	5890
1153.414	5808
1155.725	5969
1158.033	5697
1160.344	5803
1162.651	5888
1164.959	5779
1167.265	5757
1169.572	5817
1171.878	5818
1174.184	5833
1176.488	5811
1178.79	5906
1181.094	5833
1183.396	5835
1185.699	5872
1188.001	5830
1190.301	5806
1192.6	5866
1194.9	5783
1197.2	5820
1199.497	5887
1201.794	5821
1204.09	5824
1206.387	5843
1208.684	5832
1210.978	5948
1213.272	5888
1215.565	5834
1217.858	5824
1220.15	5898
1222.443	5874
1224.734	5923
1227.024	5919
1229.313	5861
1231.602	5921
1233.892	5959
1236.18	6010
1238.467	6031
1240.754	6080
1243.04	5918
1245.325	5995
1247.612	6053
1249.896	6054
1252.178	5997
1254.461	6104
1256.743	5995
1259.027	6049
1261.308	6104
1263.587	6073
1265.867	6039
1268.146	6090
1270.425	6093
1272.703	6099
1274.981	6091
1277.256	6015
1279.532	6010
1281.808	5970
1284.083	5998
1286.358	5946
1288.63	6067
1290.904	5971
1293.175	6075
1295.449	6067
1297.719	5974
1299.99	5920
1302.259	5910
1304.529	5889
1306.798	5900
1309.065	6022
1311.333	5864
1313.599	6065
1315.866	6001
1318.131	5988
1320.396	5956
1322.66	5948
1324.925	6076
1327.187	6035
1329.448	6069
1331.711	6059
1333.974	5973
1336.234	6044
1338.493	6045
1340.752	5936
1343.01	5965
1345.269	6051
1347.526	6032
1349.784	5947
1352.04	5938
1354.295	5980
1356.552	5855
1358.806	6059
1361.059	5993
1363.312	5962
1365.564	6053
1367.818	5969
1370.069	6061
1372.318	6057
1374.568	5949
1376.817	6030
1379.066	6090
1381.316	6089
1383.564	6044
1385.809	6119
1388.056	6043
1390.301	6089
1392.549	6190
1394.793	6023
1397.036	6248
1399.279	6284
1401.522	6360
1403.763	6274
1406.007	6233
1408.248	6321
1410.487	6270
1412.727	6288
1414.965	6235
1417.205	6261
1419.442	6274
1421.68	6214
1423.915	6247
1426.152	6238
1428.388	6172
1430.623	6225
1432.857	6229
1435.091	6387
1437.323	6246
1439.556	6327
1441.789	6353
1444.019	6278
1446.25	6354
1448.48	6270
1450.708	6439
1452.938	6479
1455.167	6313
1457.394	6509
1459.62	6421
1461.846	6383
1464.073	6270
1466.299	6232
1468.523	6322
1470.746	6216
1472.969	6355
1475.191	6207
1477.415	6164
1479.636	6093
1481.858	6103
1484.078	6064
1486.298	6082
1488.518	6118
1490.736	6092
1492.954	6096
1495.169	6026
1497.386	6192
1499.602	6091
1501.819	5964
1504.034	6037
1506.248	6013
1508.462	6031
1510.675	6077
1512.888	5990
1515.1	6043
1517.311	6126
1519.522	5966
1521.732	5958
1523.942	5920
1526.151	5886
1528.36	6056
1530.566	5969
1532.773	6058
1534.98	6007
1537.187	6091
1539.392	6093
1541.596	6146
1543.801	6053
1546.005	5964
1548.208	6007
1550.411	6057
1552.612	6083
1554.814	6189
1557.013	6021
1559.212	6199
1561.414	6056
1563.612	6162
1565.811	6092
1568.007	6255
1570.203	6237
1572.403	6131
1574.598	6050
1576.792	6081
1578.988	6165
1581.181	6162
1583.376	6253
1585.568	6008
1587.761	6209
1589.952	6328
1592.143	6166
1594.333	6192
1596.524	6190
1598.715	6258
1600.903	6222
1603.091	6163
1605.278	6290
1607.466	6303
1609.652	6335
1611.838	6096
1614.023	6235
1616.207	6204
1618.391	6231
1620.576	6243
1622.759	6114
1624.941	6249
1627.123	6244
1629.304	6282
1631.484	6263
1633.664	6217
1635.844	6344
1638.022	6235
1640.201	6350
1642.38	6334
1644.556	6415
1646.732	6401
1648.908	6375
1651.084	6293
1653.257	6292
1655.433	6431
1657.607	6322
1659.779	6365
1661.951	6383
1664.122	6359
1666.295	6428
1668.467	6475
1670.635	6440
1672.805	6329
1674.973	6249
1677.142	6360
1679.31	6374
1681.478	6366
1683.644	6426
1685.81	6340
1687.975	6421
1690.142	6299
1692.305	6330
1694.468	6316
1696.632	6232
1698.794	6238
1700.957	6238
1703.119	6393
1705.279	6261
1707.439	6226
1709.598	6161
1711.758	6177
1713.917	6231
1716.075	6340
1718.231	6250
1720.388	6263
1722.543	6160
1724.702	6218
1726.856	6142
1729.01	6184
1731.164	6154
1733.317	6205
1735.471	6232
1737.623	6105
1739.774	6255
1741.925	6160
1744.075	6246
1746.225	6278
1748.376	6234
1750.524	6206
1752.672	6215
1754.82	6205
1756.965	6192
1759.113	6152
1761.259	6192
1763.405	6319
1765.549	6256
1767.694	6168
1769.836	6319
1771.981	6260
1774.123	6293
1776.264	6166
1778.405	6304
1780.546	6188
1782.687	6283
1784.827	6236
1786.966	6277
1789.103	6336
1791.242	6231
1793.381	6186
1795.517	6326
1797.653	6303
1799.788	6294
1801.923	6308
1804.057	6320
1806.193	6231
1808.326	6138
1810.457	6221
1812.59	6271
1814.721	6389
1816.855	6251
1818.984	6358
1821.113	6260
1823.244	6246
1825.372	6246
1827.499	6275
1829.63	6236
1831.756	6338
1833.882	6289
1836.007	6131
1838.132	6184
1840.26	6151
1842.384	6120
1844.507	6128
1846.63	6188
1848.752	6199
1850.875	6333
1852.996	6202
1855.118	6226
1857.238	6141
1859.358	6259
1861.477	6042
1863.597	6187
1865.715	6224
1867.832	6268
1869.948	6218
1872.064	6067
1874.181	6171
1876.297	6177
1878.411	6284
1880.526	6176
1882.639	6284
1884.752	6279
1886.865	6250
1888.977	6119
1891.089	6254
1893.2	6221
1895.308	6303
1897.42	6242
1899.53	6183
1901.639	6369
1903.745	6240
1905.853	6292
1907.962	6251
1910.067	6161
1912.174	6228
1914.278	6334
1916.383	6400
1918.486	6347
1920.592	6345
1922.694	6365
1924.797	6296
1926.898	6410
1929	6232
1931.102	6324
1933.203	6407
1935.301	6283
1937.401	6255
1939.499	6255
1941.598	6317
1943.697	6323
1945.793	6231
1947.888	6286
1949.985	6256
1952.08	6412
1954.176	6338
1956.269	6300
1958.364	6322
1960.457	6228
1962.549	6381
1964.642	6361
1966.733	6334
1968.823	6217
1970.913	6305
1973.005	6212
1975.093	6265
1977.184	6304
1979.271	6207
1981.359	6316
1983.446	6257
1985.532	6276
1987.619	6290
1989.705	6302
1991.789	6248
1993.874	6309
1995.956	6225
1998.041	6163
2000.123	6286
2002.206	6208
2004.287	6240
2006.368	6126
2008.449	6157
2010.529	6242
2012.609	6316
2014.688	6224
2016.766	6226
2018.843	6311
2020.922	6199
2022.999	6176
2025.074	6184
2027.15	6324
2029.225	6279
2031.299	6214
2033.375	6243
2035.447	6291
2037.52	6150
2039.592	6147
2041.664	6305
2043.736	6296
2045.807	6108
2047.876	6298
2049.947	6236
2052.015	6248
2054.086	6235
2056.153	6266
2058.221	6359
2060.288	6201
2062.353	6265
2064.42	6341
2066.486	6275
2068.55	6197
2070.614	6160
2072.678	6281
2074.741	6179
2076.805	6286
2078.866	6196
2080.929	6289
2082.99	6204
2085.049	6212
2087.109	6301
2089.17	6174
2091.228	6236
2093.286	6205
2095.344	6230
2097.4	6249
2099.46	6123
2101.516	6297
2103.572	6289
2105.626	6194
2107.679	6207
2109.735	6160
2111.788	6207
2113.841	6264
2115.894	6251
2117.945	6261
2119.997	6204
2122.049	6241
2124.1	6317
2126.148	6244
2128.197	6259
2130.246	6220
2132.296	6172
2134.342	6214
2136.39	6163
2138.437	6204
2140.483	6126
2142.527	6223
2144.574	6024
2146.619	6134
2148.661	6331
2150.705	6043
2152.747	6148
2154.792	6240
2156.832	6227
2158.874	6234
2160.915	6317
2162.954	6145
2164.995	6228
2167.034	6241
2169.072	6116
2171.111	6150
2173.148	6066
2175.186	6214
2177.223	6153
2179.258	6096
2181.294	6218
2183.328	6161
2185.362	6148
2187.398	6078
2189.431	6092
2191.463	6127
2193.495	6021
2195.528	6086
2197.56	5954
2199.59	6178
2201.62	6023
2203.649	6064
2205.678	6104
2207.708	5976
2209.737	6089
2211.764	6077
2213.791	6026
2215.817	5981
2217.843	6022
2219.87	6118
2221.895	6036
2223.919	5973
2225.942	6044
2227.966	6047
2229.988	6120
2232.012	6057
2234.032	6074
2236.054	6022
2238.074	6029
2240.095	6054
2242.116	6017
2244.135	6084
2246.153	5980
2248.171	6001
2250.188	6005
2252.208	6025
2254.223	5999
2256.239	6035
2258.255	5990
2260.269	6083
2262.283	6053
2264.3	6033
2266.312	6155
2268.325	6163
2270.336	6121
2272.349	5997
2274.362	5985
2276.372	6084
2278.383	6038
2280.392	5989
2282.402	6055
2284.409	6081
2286.418	6019
2288.427	6114
2290.433	6048
2292.441	6110
2294.446	5989
2296.453	5995
2298.459	6074
2300.463	6017
2302.466	5980
2304.471	6086
2306.475	5976
2308.477	6010
2310.478	6033
2312.481	5994
2314.481	5934
2316.481	6032
2318.482	6089
2320.482	6036
2322.48	5838
2324.48	5986
2326.478	5971
2328.476	6003
2330.473	5972
2332.469	5979
2334.465	5942
2336.46	5890
2338.454	5903
2340.45	6041
2342.444	5909
2344.437	5906
2346.43	5924
2348.421	5876
2350.414	5913
2352.405	6003
2354.396	5930
2356.386	5874
2358.376	5876
2360.366	5976
2362.355	6164
2364.343	5948
2366.331	5855
2368.317	5877
2370.304	5909
2372.292	5843
2374.278	5828
2376.262	5821
2378.247	5826
2380.23	5916
2382.216	5803
2384.199	5851
2386.181	5844
2388.163	5872
2390.144	5942
2392.127	5882
2394.107	5811
2396.087	5874
2398.066	5849
2400.046	5946
2402.023	5812
2404.004	5778
2405.981	5749
2407.957	5924
2409.934	5787
2411.91	5910
2413.886	5811
2415.862	5765
2417.836	5842
2419.809	5872
2421.784	5835
2423.756	5726
2425.73	5809
2427.701	5730
2429.672	5886
2431.644	5787
2433.615	5799
2435.586	5773
2437.555	5839
2439.523	5914
2441.491	5766
2443.459	5908
2445.428	5908
2447.395	5886
2449.361	5751
2451.327	5828
2453.292	5809
2455.257	5844
2457.223	5782
2459.187	5664
2461.15	5798
2463.113	5642
2465.076	5688
2467.039	5875
2468.999	5783
2470.96	5761
2472.921	5747
2474.881	5712
2476.841	5747
2478.8	5853
2480.759	5745
2482.717	5661
2484.675	5774
2486.63	5771
2488.589	5754
2490.545	5749
2492.5	5747
2494.455	5685
2496.408	5713
2498.364	5672
2500.318	5717
2502.27	5690
2504.223	5729
2506.174	5682
2508.126	5687
2510.078	5694
2512.03	5719
2513.979	5725
2515.927	5699
2517.877	5800
2519.826	5655
2521.775	5663
2523.722	5722
2525.668	5730
2527.616	5584
2529.561	5688
2531.508	5750
2533.452	5717
2535.398	5588
2537.342	5752
2539.284	5581
2541.229	5688
2543.173	5677
2545.114	5677
2547.055	5771
2548.996	5701
2550.938	5676
2552.878	5665
2554.817	5710
2556.756	5623
2558.695	5734
2560.633	5667
2562.572	5644
2564.509	5651
2566.445	5666
2568.382	5631
2570.317	5624
2572.254	5639
2574.189	5678
2576.123	5688
2578.057	5651
2579.99	5599
2581.923	5768
2583.855	5502
2585.788	5744
2587.719	5645
2589.65	5633
2591.579	5509
2593.511	5679
2595.44	5649
2597.37	5615
2599.297	5751
2601.225	5651
2603.153	5655
2605.08	5528
2607.007	5692
2608.932	5524
2610.858	5644
2612.782	5717
2614.709	5690
2616.632	5625
2618.556	5707
2620.478	5729
2622.401	5646
2624.324	5700
2626.247	5654
2628.167	5567
2630.088	5741
2632.008	5729
2633.928	5642
2635.848	5719
2637.766	5616
2639.684	5807
2641.603	5676
2643.519	5608
2645.437	5692
2647.353	5636
2649.27	5610
2651.184	5664
2653.099	5592
2655.014	5637
2656.928	5596
2658.842	5668
2660.755	5625
2662.667	5683
2664.579	5565
2666.491	5728
2668.402	5611
2670.312	5596
2672.222	5608
2674.132	5595
2676.042	5629
2677.951	5624
2679.859	5652
2681.766	5591
2683.674	5588
2685.582	5618
2687.488	5565
2689.392	5588
2691.298	5583
2693.202	5565
2695.107	5550
2697.012	5518
2698.914	5523
2700.817	5514
2702.72	5704
2704.622	5551
2706.524	5520
2708.425	5594
2710.326	5657
2712.225	5589
2714.125	5402
2716.024	5589
2717.923	5533
2719.822	5502
2721.719	5541
2723.616	5450
2725.512	5576
2727.41	5629
2729.305	5587
2731.201	5590
2733.095	5520
2734.99	5510
2736.884	5451
2738.778	5569
2740.67	5505
2742.562	5403
2744.455	5478
2746.346	5516
2748.238	5513
2750.129	5504
2752.018	5521
2753.907	5454
2755.797	5570
2757.687	5541
2759.575	5431
2761.462	5524
2763.349	5422
2765.237	5450
2767.124	5403
2769.009	5513
2770.894	5521
2772.779	5474
2774.663	5512
2776.547	5536
2778.431	5386
2780.314	5436
2782.197	5415
2784.078	5542
2785.96	5418
2787.842	5527
2789.723	5432
2791.603	5469
2793.483	5492
2795.362	5498
2797.241	5483
2799.121	5408
2800.997	5423
2802.874	5405
2804.751	5417
2806.628	5423
2808.506	5475
2810.38	5377
2812.255	5483
2814.13	5433
2816.003	5495
2817.878	5379
2819.752	5335
2821.623	5486
2823.496	5554
2825.368	5437
2827.238	5371
2829.111	5502
2830.98	5454
2832.851	5439
2834.719	5566
2836.589	5329
2838.458	5501
2840.327	5423
2842.193	5452
2844.061	5485
2845.927	5517
2847.794	5488
2849.66	5440
2851.525	5548
2853.39	5479
2855.254	5600
2857.117	5564
2858.983	5525
2860.845	5516
2862.707	5572
2864.569	5564
2866.431	5613
2868.293	5582
2870.154	5621
2872.013	5727
2873.873	5716
2875.733	5852
2877.592	5756
2879.451	5734
2881.309	5881
2883.166	5893
2885.022	5914
2886.879	5985
2888.736	5961
2890.591	5988
2892.446	5985
2894.301	6045
2896.155	5927
2898.009	6029
2899.863	6147
2901.716	5911
2903.568	5940
2905.419	5952
2907.27	6052
2909.123	6025
2910.973	5902
2912.824	5912
2914.673	6213
2916.521	6123
2918.372	6092
2920.22	6170
2922.067	6348
2923.914	6346
2925.761	6179
2927.607	6364
2929.455	6305
2931.301	6317
2933.144	6385
2934.99	6395
2936.833	6454
2938.678	6417
2940.522	6591
2942.364	6646
2944.207	6630
2946.048	6712
2947.891	6842
2949.731	6841
2951.571	6773
2953.412	6825
2955.25	6744
2957.09	6698
2958.93	6665
2960.767	6626
2962.606	6505
2964.443	6499
2966.279	6412
2968.116	6418
2969.953	6312
2971.788	6242
2973.623	6101
2975.457	6168
2977.292	5975
2979.127	6067
2980.959	6135
2982.792	5923
2984.624	5970
2986.455	5873
2988.288	5884
2990.119	5832
2991.949	5685
2993.779	5726
2995.608	5853
2997.439	5685
2999.268	5675
3001.096	5624
3002.923	5612
3004.751	5492
3006.578	5505
3008.406	5548
3010.232	5447
3012.057	5468
3013.883	5465
3015.706	5304
3017.532	5346
3019.356	5323
3021.179	5380
3023.002	5306
3024.823	5313
3026.646	5258
3028.469	5161
3030.289	5221
3032.11	5251
3033.93	5230
3035.749	5211
3037.57	5177
3039.39	5188
3041.207	5158
3043.026	5155
3044.842	5226
3046.661	5160
3048.477	5130
3050.294	5114
3052.109	5197
3053.925	5168
3055.739	5055
3057.555	5084
3059.368	5135
3061.181	5165
3062.995	5190
3064.807	5177
3066.62	5073
3068.433	5203
3070.243	5068
3072.054	5101
3073.865	5063
3075.675	5049
3077.485	5124
3079.293	5123
3081.102	5069
3082.911	5057
3084.719	4971
3086.527	4973
3088.333	5111
3090.139	5097
3091.945	4931
3093.75	4968
3095.557	5047
3097.361	4887
3099.165	4958
3100.969	5028
3102.772	4999
3104.575	4954
3106.379	4972
3108.181	4920
3109.982	4992
3111.783	4951
3113.584	4940
3115.386	4924
3117.186	4933
3118.985	4867
3120.783	4906
3122.582	4951
3124.381	4920
3126.179	4904
3127.975	4817
3129.772	4817
3131.569	4996
3133.365	4836
3135.161	4968
3136.956	4901
3138.751	4830
3140.544	4791
3142.338	4913
3144.132	4864
3145.925	4836
3147.717	4863
3149.509	4809
3151.301	4842
3153.091	4815
3154.884	4773
3156.673	4830
3158.462	4794
3160.252	4819
3162.041	4820
3163.831	4819
3165.618	4854
3167.405	4812
3169.193	4788
3170.979	4761
3172.767	4818
3174.553	4751
3176.338	4753
3178.123	4795
3179.907	4805
3181.692	4712
3183.477	4818
3185.259	4854
3187.042	4799
3188.824	4735
3190.607	4813
3192.389	4737
3194.17	4871
3195.951	4729
3197.73	4653
3199.51	4756
3201.289	4779
3203.07	4681
3204.848	4726
3206.626	4759
3208.403	4742
3210.18	4794
3211.959	4601
3213.735	4756
3215.511	4768
3217.285	4727
3219.06	4809
3220.836	4738
3222.611	4673
3224.384	4773
3226.158	4815
3227.929	4815
3229.702	4780
3231.476	4663
3233.248	4755
3235.018	4812
3236.789	4748
3238.56	4811
3240.33	4709
3242.1	4662
3243.869	4718
3245.637	4715
3247.405	4723
3249.172	4809
3250.941	4713
3252.707	4745
3254.474	4706
3256.24	4746
3258.006	4685
3259.772	4782
3261.537	4669
3263.301	4742
3265.065	4741
3266.828	4649
3268.592	4759
3270.355	4831
3272.117	4737
3273.878	4731
3275.64	4690
3277.401	4705
3279.162	4769
3280.922	4674
3282.682	4742
3284.441	4647
3286.199	4762
3287.959	4717
3289.716	4636
3291.475	4798
3293.232	4750
3294.988	4733
3296.744	4716
3298.501	4723
3300.256	4708
3302.011	4699
3303.766	4723
3305.52	4701
3307.275	4628
3309.028	4701
3310.781	4679
3312.533	4788
3314.285	4738
3316.038	4628
3317.789	4778
3319.54	4685
3321.289	4698
3323.039	4689
3324.789	4727
3326.539	4798
3328.288	4637
3330.035	4692
3331.783	4601
3333.531	4600
3335.28	4613
3337.025	4597
3338.771	4734
3340.518	4681
3342.262	4632
3344.009	4629
3345.753	4609
3347.497	4636
3349.24	4631
3350.983	4612
3352.726	4543
3354.469	4546
3356.212	4530
3357.952	4607
3359.694	4582
3361.434	4580
3363.176	4584
3364.916	4598
3366.654	4513
3368.394	4604
3370.132	4683
3371.871	4523
3373.61	4598
3375.346	4568
3377.083	4572
3378.82	4579
3380.556	4502
3382.292	4472
3384.027	4515
3385.763	4513
3387.497	4501
3389.231	4562
3390.965	4579
3392.698	4513
3394.431	4422
3396.164	4485
3397.896	4583
3399.627	4492
3401.36	4451
3403.09	4450
3404.82	4491
3406.55	4403
3408.279	4440
3410.01	4357
3411.738	4440
3413.467	4390
3415.194	4463
3416.92	4450
3418.647	4373
3420.375	4410
3422.102	4447
3423.827	4511
3425.553	4477
3427.277	4401
3429.003	4432
3430.727	4427
3432.451	4401
3434.173	4387
3435.896	4383
3437.62	4398
3439.343	4375
3441.063	4329
3442.785	4448
3444.505	4322
3446.226	4335
3447.948	4268
3449.666	4405
3451.386	4402
3453.104	4353
3454.823	4435
3456.541	4256
3458.259	4303
3459.976	4291
3461.693	4266
3463.408	4372
3465.125	4238
3466.841	4238
3468.556	4269
3470.271	4378
3471.985	4322
3473.698	4275
3475.414	4229
3477.126	4285
3478.838	4273
3480.55	4274
3482.263	4284
3483.975	4285
3485.686	4253
3487.396	4189
3489.106	4258
3490.817	4172
3492.526	4268
3494.236	4091
3495.944	4217
3497.652	4114
3499.359	4246
3501.066	4182
3502.775	4139
3504.481	4162
3506.187	4135
3507.893	4185
3509.598	4197
3511.304	4051
3513.009	4046
3514.713	4182
3516.417	4172
3518.12	4153
3519.821	4109
3521.525	4097
3523.228	4103
3524.929	4190
3526.631	4050
3528.33	4063
3530.032	4081
3531.733	4069
3533.433	4067
3535.131	4122
3536.83	4053
3538.529	4042
3540.227	4049
3541.925	4098
3543.623	4062
3545.319	4071
3547.016	4036
3548.712	4083
3550.408	4006
3552.103	4060
3553.798	4044
3555.491	4052
3557.188	3990
3558.88	4035
3560.574	4011
3562.266	4033
3563.959	4019
3565.651	4014
3567.343	3997
3569.035	4011
3570.725	3929
3572.415	3960
3574.106	3925
3575.797	4054
3577.485	3941
3579.174	3835
3580.863	3933
3582.551	3937
3584.238	3934
3585.926	3874
3587.613	3973
3589.3	3944
3590.986	3980
3592.671	3870
3594.357	3920
3596.042	3890
3597.726	3966
3599.41	3985
3601.094	3891
3602.778	3902
3604.461	3954
3606.143	3855
3607.825	3857
3609.507	3813
3611.188	3894
3612.87	3847
3614.551	3883
3616.229	3834
3617.909	3796
3619.589	3852
3621.269	3777
3622.948	3832
3624.625	3742
3626.302	3800
3627.98	3837
3629.657	3742
3631.334	3842
3633.01	3733
3634.686	3772
3636.361	3684
3638.036	3703
3639.712	3734
3641.385	3731
3643.06	3699
3644.732	3707
3646.405	3709
3648.08	3707
3649.751	3804
3651.424	3683
3653.094	3663
3654.766	3729
3656.436	3761
3658.106	3664
3659.777	3724
3661.446	3672
3663.115	3704
3664.783	3644
3666.452	3709
3668.121	3634
3669.788	3697
3671.454	3630
3673.121	3652
3674.789	3676
3676.455	3652
3678.12	3674
3679.784	3640
3681.45	3693
3683.114	3676
3684.779	3629
3686.442	3612
3688.105	3672
3689.768	3604
3691.43	3673
3693.093	3637
3694.754	3730
3696.415	3608
3698.076	3687
3699.736	3593
3701.396	3567
3703.057	3547
3704.716	3599
3706.375	3660
3708.034	3614
3709.692	3530
3711.351	3488
3713.008	3562
3714.665	3573
3716.321	3611
3717.977	3553
3719.634	3609
3721.29	3626
3722.945	3534
3724.598	3601
3726.253	3600
3727.907	3539
3729.561	3522
3731.214	3538
3732.867	3527
3734.518	3551
3736.171	3535
3737.824	3576
3739.474	3544
3741.125	3452
3742.775	3572
3744.425	3647
3746.074	3508
3747.725	3518
3749.373	3523
3751.022	3548
3752.669	3528
3754.318	3538
3755.966	3496
3757.612	3424
3759.259	3478
3760.905	3532
3762.55	3477
3764.197	3381
3765.842	3505
3767.486	3535
3769.131	3472
3770.774	3528
3772.417	3413
3774.061	3500
3775.705	3512
3777.347	3516
3778.988	3495
3780.629	3416
3782.271	3457
3783.912	3458
3785.552	3413
3787.192	3430
3788.831	3441
3790.472	3432
3792.112	3401
3793.75	3453
3795.388	3398
3797.024	3423
3798.661	3359
3800.3	3407
3801.936	3380
3803.572	3466
3805.208	3403
3806.844	3364
3808.48	3412
3810.115	3426
3811.748	3483
3813.382	3435
3815.016	3333
3816.649	3443
3818.283	3404
3819.914	3430
3821.547	3384
3823.178	3337
3824.809	3351
3826.441	3309
3828.072	3326
3829.701	3325
3831.331	3326
3832.96	3373
3834.591	3307
3836.219	3363
3837.847	3304
3839.475	3303
3841.102	3342
3842.729	3297
3844.357	3262
3845.984	3267
3847.609	3316
3849.234	3370
3850.86	3285
3852.485	3378
3854.11	3314
3855.734	3298
3857.357	3298
3858.981	3271
3860.603	3340
3862.227	3299
3863.848	3265
3865.471	3292
3867.092	3319
3868.713	3367
3870.334	3264
3871.954	3235
3873.575	3265
3875.194	3298
3876.813	3296
3878.433	3305
3880.051	3211
3881.669	3313
3883.286	3202
3884.904	3337
3886.52	3246
3888.138	3230
3889.754	3206
3891.37	3253
3892.985	3184
3894.6	3223
3896.216	3298
3897.831	3235
3899.444	3283
3901.058	3221
3902.67	3220
3904.283	3227
3905.897	3207
3907.509	3243
3909.121	3197
3910.731	3161
3912.342	3217
3913.954	3187
3915.563	3155
3917.174	3301
3918.783	3199
3920.391	3204
3922.002	3189
3923.611	3243
3925.218	3124
3926.826	3159
3928.432	3126
3930.039	3180
3931.647	3135
3933.253	3249
3934.859	3116
3936.464	3187
3938.068	3205
3939.675	3172
3941.278	3188
3942.883	3221
3944.486	3168
3946.089	3117
3947.692	3214
3949.295	3116
3950.898	3147
3952.499	3124
3954.1	3245
3955.7	3120
3957.303	3171
3958.903	3148
3960.502	3144
3962.101	3066
3963.7	3123
3965.301	3095
3966.899	3126
3968.497	3182
3970.094	3108
3971.691	3030
3973.288	3197
3974.885	3119
3976.481	3053
3978.077	3118
3979.672	3093
3981.267	3084
3982.863	3099
3984.457	3080
3986.051	3165
3987.645	3054
3989.238	3060
3990.831	3046
3992.425	3063
3994.017	3102
3995.607	3006
3997.199	2985
3998.79	3033
4000.382	3080
4001.973	2995
4003.561	2958
4005.151	3053
4006.741	2968
4008.331	2983
4009.918	3047
4011.507	3042
4013.095	2915
4014.681	2988
4016.269	2970
4017.856	2989
4019.443	3023
4021.028	3032
4022.614	2928
4024.199	2928
4025.785	2976
4027.37	2980
4028.953	2946
4030.536	3015
4032.12	2964
4033.704	2933
4035.287	2962
4036.869	2945
4038.45	2914
4040.032	2943
4041.613	2966
4043.195	2952
4044.776	2939
4046.356	2882
4047.935	2929
4049.515	2921
4051.095	2953
4052.674	2876
4054.251	2895
4055.829	2936
4057.406	2907
4058.985	2911
4060.562	2906
4062.139	2829
4063.715	2860
4065.29	2879
4066.865	2969
4068.442	2885
4070.016	2901
4071.59	2860
4073.164	2836
4074.738	2824
4076.312	2883
4077.885	2828
4079.458	2817
4081.03	2885
4082.602	2847
4084.173	2890
4085.745	2836
4087.315	2919
4088.886	2856
4090.456	2920
4092.026	2840
4093.596	2792
4095.165	2837
4096.734	2765
4098.301	2789
4099.869	2861
4101.437	2876
4103.006	2799
4104.572	2827
4106.139	2766
4107.704	2873
4109.27	2858
4110.837	2745
4112.401	2825
4113.966	2777
4115.53	2821
4117.094	2826
4118.659	2838
4120.223	2760
4121.785	2829
4123.347	2797
4124.909	2819
4126.471	2799
4128.034	2816
4129.595	2755
4131.155	2830
4132.716	2750
4134.275	2778
4135.836	2757
4137.395	2762
4138.955	2790
4140.513	2748
4142.071	2800
4143.628	2731
4145.188	2766
4146.745	2761
4148.302	2737
4149.858	2775
4151.414	2731
4152.971	2708
4154.526	2694
4156.081	2660
4157.635	2727
4159.189	2716
4160.745	2719
4162.298	2703
4163.852	2660
4165.405	2666
4166.957	2642
4168.51	2658
4170.063	2699
4171.614	2678
4173.166	2641
4174.717	2688
4176.267	2662
4177.817	2705
4179.368	2767
4180.917	2694
4182.466	2717
4184.016	2688
4185.564	2607
4187.112	2560
4188.66	2693
4190.207	2713
4191.754	2646
4193.301	2591
4194.848	2675
4196.394	2624
4197.94	2658
4199.484	2623
4201.03	2692
4202.575	2614
4204.12	2606
4205.663	2639
4207.207	2548
4208.75	2676
4210.292	2577
4211.836	2643
4213.378	2594
4214.92	2562
4216.46	2605
4218.002	2602
4219.544	2550
4221.083	2669
4222.625	2669
4224.164	2625
4225.703	2559
4227.244	2636
4228.782	2605
4230.32	2556
4231.857	2524
4233.395	2583
4234.933	2545
4236.471	2599
4238.007	2627
4239.542	2571
4241.078	2600
4242.614	2538
4244.15	2559
4245.685	2569
4247.219	2616
4248.753	2597
4250.287	2579
4251.82	2546
4253.354	2541
4254.887	2542
4256.419	2565
4257.951	2605
4259.483	2566
4261.016	2540
4262.547	2594
4264.078	2523
4265.608	2513
4267.137	2602
4268.668	2457
4270.197	2538
4271.727	2555
4273.254	2482
4274.783	2570
4276.311	2585
4277.84	2458
4279.366	2526
4280.894	2519
4282.42	2541
4283.946	2494
4285.473	2421
4286.998	2565
4288.523	2473
4290.047	2520
4291.572	2522
4293.096	2502
4294.622	2528
4296.144	2544
4297.668	2431
4299.19	2513
4300.713	2501
4302.236	2494
4303.758	2455
4305.279	2519
4306.799	2416
4308.321	2429
4309.842	2467
4311.361	2454
4312.882	2410
4314.401	2543
