400.0961	4189
402.6185	4225
405.1424	4236
407.6635	4170
410.1838	4164
412.7035	4258
415.2225	4236
417.7388	4355
420.2585	4438
422.7754	4438
425.2917	4507
427.8072	4500
430.3221	4580
432.8363	4564
435.3498	4598
437.8626	4555
440.3727	4557
442.8841	4625
445.3969	4491
447.907	4482
450.4142	4564
452.9229	4492
455.4289	4576
457.9362	4491
460.4449	4438
462.9488	4397
465.454	4419
467.9566	4413
470.4604	4485
472.9637	4418
475.4662	4525
477.966	4466
480.4671	4413
482.9656	4465
485.4633	4509
487.9645	4503
490.4608	4489
492.9566	4544
495.4536	4559
497.948	4461
500.4437	4523
502.9387	4619
505.431	4573
507.9226	4478
510.4136	4546
512.9079	4572
515.3975	4493
517.8864	4553
520.3746	4585
522.8622	4569
525.3491	4711
527.8394	4548
530.3249	4627
532.8098	4642
535.2939	4739
537.7774	4595
540.2623	4703
542.7444	4694
545.2259	4635
547.7067	4694
550.1868	4635
552.6683	4584
555.147	4643
557.6231	4703
560.1005	4761
562.5773	4696
565.0534	4707
567.5308	4732
570.0056	4782
572.4776	4804
574.951	4798
577.4237	4871
579.8978	4849
582.3671	4868
584.8378	4845
587.3079	4901
589.7773	4916
592.244	4879
594.714	4920
597.1793	4922
599.6461	4841
602.1121	4792
604.5754	4810
607.0421	4786
609.5042	4871
611.9675	4812
614.4282	4760
616.8902	4909
619.3515	4847
621.8122	4760
624.2702	4834
626.7296	4787
629.1863	4735
631.6423	4781
634.1017	4713
636.5563	4755
639.0104	4787
641.4658	4829
643.9185	4737
646.3725	4799
648.8239	4776
651.2766	4807
653.7266	4749
656.176	4890
658.6247	4856
661.0748	4858
663.5242	4900
665.9709	4867
668.417	4819
670.8624	4829
673.3092	4760
675.7533	4981
678.1968	4897
680.6395	4911
683.0817	4931
685.5251	4955
687.9659	5020
690.4061	4931
692.8456	4928
695.2844	4920
697.7226	4966
700.1621	5036
702.599	4940
705.0332	5062
707.4688	4940
709.9036	4994
712.3399	5046
714.7735	4969
717.2044	4923
719.6367	5063
722.0683	5009
724.4993	5071
726.9296	5166
729.3593	5171
731.7883	5096
734.2147	5142
736.6423	5111
739.0714	5113
741.4958	5151
743.9216	5230
746.3447	5220
748.7691	5161
751.1929	5258
753.616	5246
756.0366	5227
758.4584	5239
760.8776	5196
763.2982	5360
765.718	5214
768.1373	5291
770.5539	5208
772.9698	5381
775.3871	5263
777.8038	5278
780.2178	5246
782.6332	5305
785.0459	5370
787.458	5416
789.8714	5418
792.2842	5324
794.6943	5288
797.1038	5276
799.5127	5223
801.9209	5304
804.3324	5280
806.7393	5385
809.1456	5336
811.5513	5319
813.9562	5430
816.3625	5353
818.7663	5392
821.1693	5435
823.5718	5377
825.9735	5484
828.3746	5398
830.7771	5411
833.177	5343
835.5762	5421
837.9747	5369
840.3727	5461
842.772	5417
845.1666	5490
847.5626	5601
849.958	5513
852.3527	5588
854.7488	5630
857.1403	5607
859.5331	5610
861.9253	5509
864.3168	5583
866.7057	5522
869.098	5547
871.4876	5501
873.8746	5589
876.263	5652
878.6487	5517
881.0378	5536
883.4243	5627
885.8081	5553
888.1933	5542
890.5759	5567
892.9598	5432
895.343	5547
897.7256	5511
900.1057	5556
902.4871	5614
904.8659	5652
907.246	5529
909.6254	5551
912.0023	5661
914.3786	5719
916.7562	5776
919.1331	6011
921.5074	6051
923.8831	6050
926.2562	5997
928.6287	6034
931.0005	6080
933.3757	6009
935.7462	6001
938.1162	5845
940.4855	6101
942.8542	6133
945.2242	6183
947.5916	6321
949.9584	6397
952.3266	6773
954.6921	6966
957.0571	7282
959.4233	7683
961.787	7941
964.15	7790
966.5125	7643
968.8742	7228
971.2354	6699
973.5959	6491
975.9559	6288
978.3151	6073
980.6738	6021
983.0338	6017
985.3912	5806
987.7461	5779
990.1022	5735
992.4578	5700
994.8127	5896
997.1689	5700
999.5207	5773
1001.874	5763
1004.226	5846
1006.576	5804
1008.929	5797
1011.28	5735
1013.628	5815
1015.977	5815
1018.324	5834
1020.674	5733
1023.019	5793
1025.366	5832
1027.713	5897
1030.056	5943
1032.399	5902
1034.746	5847
1037.087	5899
1039.431	5966
1041.771	5886
1044.113	5782
1046.454	6013
1048.793	5922
1051.133	5925
1053.471	5967
1055.807	6040
1058.146	5969
1060.483	5898
1062.818	5988
1065.153	5942
1067.489	5984
1069.822	6023
1072.156	6063
1074.488	6084
1076.82	6081
1079.15	5976
1081.48	6062
1083.814	6020
1086.143	5887
1088.471	5957
1090.799	5776
1093.126	5886
1095.452	5793
1097.78	5812
1100.105	5936
1102.43	5896
1104.754	5844
1107.077	5887
1109.4	5957
1111.722	6011
1114.044	5862
1116.365	5833
1118.685	5851
1121.005	5866
1123.324	5887
1125.643	5974
1127.961	5841
1130.278	5921
1132.595	5801
1134.911	5983
1137.226	6024
1139.541	5900
1141.854	5854
1144.167	5901
1146.482	5889
1148.793	5742
1151.105	5935
1153.414	5876
1155.725	5892
1158.033	5899
1160.344	5950
1162.651	5848
1164.959	5867
1167.265	5835
1169.572	5805
1171.878	5951
1174.184	6054
1176.488	5935
1178.79	5949
1181.094	5955
1183.396	5918
1185.699	5984
1188.001	5982
1190.301	5825
1192.6	5919
1194.9	5912
1197.2	5827
1199.497	5839
1201.794	5914
1204.09	5936
1206.387	6028
1208.684	5999
1210.978	5899
1213.272	5916
1215.565	5862
1217.858	5932
1220.15	6003
1222.443	5846
1224.734	5862
1227.024	5965
1229.313	6087
1231.602	6018
1233.892	6164
1236.18	6127
1238.467	6176
1240.754	6297
1243.04	6154
1245.325	6297
1247.612	6296
1249.896	6244
1252.178	6290
1254.461	6199
1256.743	6253
1259.027	6233
1261.308	6318
1263.587	6183
1265.867	6076
1268.146	6142
1270.425	6323
1272.703	6353
1274.981	6389
1277.256	6326
1279.532	6202
1281.808	6269
1284.083	6239
1286.358	6109
1288.63	6169
1290.904	6067
1293.175	6163
1295.449	6079
1297.719	6165
1299.99	6115
1302.259	6043
1304.529	6140
1306.798	6041
1309.065	6112
1311.333	6173
1313.599	6123
1315.866	6138
1318.131	6174
1320.396	6055
1322.66	6224
1324.925	6129
1327.187	6089
1329.448	6046
1331.711	6220
1333.974	6231
1336.234	6093
1338.493	6087
1340.752	6097
1343.01	6138
1345.269	6138
1347.526	6157
1349.784	6114
1352.04	6176
1354.295	6072
1356.552	6027
1358.806	5907
1361.059	6105
1363.312	6166
1365.564	6079
1367.818	6105
1370.069	6190
1372.318	6154
1374.568	6202
1376.817	6173
1379.066	6203
1381.316	6176
1383.564	6116
1385.809	6213
1388.056	6112
1390.301	6228
1392.549	6404
1394.793	6329
1397.036	6436
1399.279	6470
1401.522	6507
1403.763	6422
1406.007	6385
1408.248	6503
1410.487	6404
1412.727	6489
1414.965	6431
1417.205	6479
1419.442	6343
1421.68	6425
1423.915	6354
1426.152	6467
1428.388	6307
1430.623	6368
1432.857	6515
1435.091	6383
1437.323	6423
1439.556	6377
1441.789	6530
1444.019	6395
1446.25	6505
1448.48	6534
1450.708	6596
1452.938	6666
1455.167	6705
1457.394	6622
1459.62	6520
1461.846	6628
1464.073	6590
1466.299	6601
1468.523	6398
1470.746	6441
1472.969	6359
1475.191	6289
1477.415	6197
1479.636	6130
1481.858	6197
1484.078	6206
1486.298	6230
1488.518	6163
1490.736	6173
1492.954	6042
1495.169	6117
1497.386	6123
1499.602	6122
1501.819	6120
1504.034	6011
1506.248	6025
1508.462	6067
1510.675	6087
1512.888	6128
1515.1	6161
1517.311	5993
1519.522	5996
1521.732	5992
1523.942	6118
1526.151	6114
1528.36	6075
1530.566	5939
1532.773	6089
1534.98	6094
1537.187	6073
1539.392	6060
1541.596	6055
1543.801	6126
1546.005	6081
1548.208	6069
1550.411	6089
1552.612	6097
1554.814	6252
1557.013	6145
1559.212	6242
1561.414	6204
1563.612	6086
1565.811	6171
1568.007	6302
1570.203	6254
1572.403	6235
1574.598	6193
1576.792	6165
1578.988	6264
1581.181	6243
1583.376	6245
1585.568	6250
1587.761	6223
1589.952	6332
1592.143	6227
1594.333	6308
1596.524	6340
1598.715	6284
1600.903	6399
1603.091	6363
1605.278	6363
1607.466	6371
1609.652	6245
1611.838	6326
1614.023	6384
1616.207	6409
1618.391	6366
1620.576	6300
1622.759	6271
1624.941	6328
1627.123	6326
1629.304	6463
1631.484	6321
1633.664	6477
1635.844	6441
1638.022	6435
1640.201	6422
1642.38	6494
1644.556	6423
1646.732	6476
1648.908	6579
1651.084	6598
1653.257	6453
1655.433	6536
1657.607	6468
1659.779	6586
1661.951	6407
1664.122	6499
1666.295	6529
1668.467	6528
1670.635	6585
1672.805	6605
1674.973	6518
1677.142	6559
1679.31	6523
1681.478	6522
1683.644	6371
1685.81	6494
1687.975	6529
1690.142	6519
1692.305	6400
1694.468	6474
1696.632	6568
1698.794	6293
1700.957	6330
1703.119	6396
1705.279	6322
1707.439	6283
1709.598	6383
1711.758	6270
1713.917	6407
1716.075	6270
1718.231	6276
1720.388	6271
1722.543	6335
1724.702	6375
1726.856	6270
1729.01	6224
1731.164	6285
1733.317	6344
1735.471	6224
1737.623	6297
1739.774	6325
1741.925	6281
1744.075	6294
1746.225	6224
1748.376	6202
1750.524	6276
1752.672	6363
1754.82	6196
1756.965	6369
1759.113	6328
1761.259	6338
1763.405	6343
1765.549	6313
1767.694	6338
1769.836	6351
1771.981	6405
1774.123	6304
1776.264	6345
1778.405	6294
1780.546	6317
1782.687	6290
1784.827	6306
1786.966	6233
1789.103	6348
1791.242	6286
1793.381	6413
1795.517	6312
1797.653	6184
1799.788	6284
1801.923	6397
1804.057	6311
1806.193	6348
1808.326	6309
1810.457	6340
1812.59	6422
1814.721	6440
1816.855	6327
1818.984	6376
1821.113	6339
1823.244	6303
1825.372	6266
1827.499	6272
1829.63	6337
1831.756	6166
1833.882	6327
1836.007	6292
1838.132	6240
1840.26	6224
1842.384	6367
1844.507	6213
1846.63	6241
1848.752	6199
1850.875	6310
1852.996	6141
1855.118	6351
1857.238	6250
1859.358	6256
1861.477	6245
1863.597	6213
1865.715	6246
1867.832	6301
1869.948	6239
1872.064	6271
1874.181	6169
1876.297	6350
1878.411	6148
1880.526	6333
1882.639	6334
1884.752	6193
1886.865	6238
1888.977	6311
1891.089	6337
1893.2	6345
1895.308	6324
1897.42	6364
1899.53	6205
1901.639	6371
1903.745	6276
1905.853	6332
1907.962	6371
1910.067	6280
1912.174	6308
1914.278	6358
1916.383	6264
1918.486	6314
1920.592	6299
1922.694	6331
1924.797	6259
1926.898	6387
1929	6481
1931.102	6321
1933.203	6294
1935.301	6335
1937.401	6295
1939.499	6350
1941.598	6458
1943.697	6380
1945.793	6295
1947.888	6394
1949.985	6360
1952.08	6311
1954.176	6342
1956.269	6431
1958.364	6318
1960.457	6394
1962.549	6409
1964.642	6241
1966.733	6376
1968.823	6278
1970.913	6309
1973.005	6302
1975.093	6424
1977.184	6290
1979.271	6315
1981.359	6316
1983.446	6266
1985.532	6387
1987.619	6303
1989.705	6324
1991.789	6292
1993.874	6330
1995.956	6261
1998.041	6385
2000.123	6380
2002.206	6302
2004.287	6285
2006.368	6323
2008.449	6231
2010.529	6265
2012.609	6363
2014.688	6328
2016.766	6226
2018.843	6242
2020.922	6304
2022.999	6408
2025.074	6291
2027.15	6361
2029.225	6321
2031.299	6367
2033.375	6323
2035.447	6359
2037.52	6273
2039.592	6310
2041.664	6355
2043.736	6255
2045.807	6230
2047.876	6232
2049.947	6217
2052.015	6284
2054.086	6241
2056.153	6317
2058.221	6246
2060.288	6292
2062.353	6351
2064.42	6402
2066.486	6322
2068.55	6436
2070.614	6290
2072.678	6255
2074.741	6301
2076.805	6269
2078.866	6312
2080.929	6419
2082.99	6357
2085.049	6264
2087.109	6450
2089.17	6294
2091.228	6325
2093.286	6332
2095.344	6355
2097.4	6136
2099.46	6280
2101.516	6230
2103.572	6336
2105.626	6287
2107.679	6354
2109.735	6284
2111.788	6313
2113.841	6315
2115.894	6189
2117.945	6361
2119.997	6280
2122.049	6246
2124.1	6293
2126.148	6244
2128.197	6198
2130.246	6360
2132.296	6355
2134.342	6343
2136.39	6197
2138.437	6301
2140.483	6294
2142.527	6295
2144.574	6281
2146.619	6302
2148.661	6204
2150.705	6234
2152.747	6355
2154.792	6209
2156.832	6317
2158.874	6167
2160.915	6118
2162.954	6241
2164.995	6263
2167.034	6253
2169.072	6152
2171.111	6118
2173.148	6256
2175.186	6256
2177.223	6243
2179.258	6157
2181.294	6190
2183.328	6243
2185.362	6139
2187.398	6134
2189.431	6194
2191.463	6127
2193.495	6245
2195.528	6201
2197.56	6145
2199.59	6158
2201.62	6116
2203.649	6125
2205.678	6246
2207.708	6131
2209.737	6160
2211.764	6149
2213.791	6149
2215.817	6135
2217.843	6201
2219.87	6172
2221.895	6048
2223.919	6024
2225.942	6144
2227.966	6076
2229.988	6186
2232.012	6051
2234.032	6116
2236.054	6149
2238.074	6113
2240.095	6141
2242.116	6028
2244.135	6184
2246.153	6092
2248.171	6057
2250.188	6118
2252.208	5963
2254.223	6124
2256.239	6120
2258.255	5979
2260.269	6163
2262.283	6121
2264.3	6071
2266.312	6099
2268.325	6005
2270.336	6160
2272.349	6199
2274.362	6181
2276.372	6102
2278.383	6159
2280.392	5992
2282.402	6108
2284.409	6068
2286.418	6109
2288.427	6224
2290.433	6111
2292.441	6234
2294.446	6180
2296.453	6057
2298.459	6083
2300.463	6121
2302.466	6136
2304.471	6056
2306.475	6065
2308.477	6040
2310.478	6018
2312.481	6054
2314.481	6090
2316.481	6107
2318.482	6119
2320.482	6079
2322.48	6138
2324.48	6029
2326.478	6053
2328.476	6042
2330.473	6090
2332.469	5926
2334.465	5977
2336.46	5955
2338.454	6020
2340.45	6111
2342.444	5992
2344.437	6097
2346.43	5967
2348.421	5990
2350.414	5946
2352.405	6019
2354.396	5930
2356.386	5923
2358.376	6018
2360.366	5993
2362.355	6042
2364.343	5970
2366.331	5879
2368.317	5979
2370.304	5942
2372.292	6011
2374.278	5928
2376.262	5994
2378.247	5978
2380.23	5861
2382.216	5947
2384.199	5939
2386.181	5890
2388.163	5903
2390.144	5868
2392.127	5949
2394.107	5902
2396.087	5926
2398.066	5907
2400.046	6007
2402.023	5875
2404.004	5949
2405.981	5724
2407.957	5906
2409.934	5828
2411.91	5778
2413.886	5820
2415.862	5959
2417.836	5885
2419.809	5922
2421.784	5905
2423.756	5944
2425.73	5829
2427.701	5936
2429.672	5852
2431.644	5842
2433.615	5811
2435.586	5859
2437.555	5866
2439.523	5867
2441.491	5772
2443.459	5958
2445.428	5880
2447.395	5888
2449.361	5881
2451.327	5756
2453.292	5810
2455.257	5823
2457.223	5738
2459.187	5824
2461.15	5838
2463.113	5768
2465.076	5739
2467.039	5823
2468.999	5889
2470.96	5799
2472.921	5791
2474.881	5876
2476.841	5755
2478.8	5789
2480.759	5912
2482.717	5735
2484.675	5918
2486.63	5717
2488.589	5776
2490.545	5816
2492.5	5747
2494.455	5745
2496.408	5834
2498.364	5779
2500.318	5790
2502.27	5677
2504.223	5769
2506.174	5794
2508.126	5826
2510.078	5712
2512.03	5809
2513.979	5785
2515.927	5786
2517.877	5873
2519.826	5860
2521.775	5799
2523.722	5770
2525.668	5816
2527.616	5607
2529.561	5705
2531.508	5709
2533.452	5820
2535.398	5813
2537.342	5758
2539.284	5751
2541.229	5704
2543.173	5789
2545.114	5760
2547.055	5723
2548.996	5800
2550.938	5794
2552.878	5677
2554.817	5748
2556.756	5735
2558.695	5671
2560.633	5767
2562.572	5686
2564.509	5782
2566.445	5684
2568.382	5809
2570.317	5728
2572.254	5647
2574.189	5679
2576.123	5794
2578.057	5617
2579.99	5634
2581.923	5709
2583.855	5745
2585.788	5675
2587.719	5634
2589.65	5706
2591.579	5673
2593.511	5809
2595.44	5714
2597.37	5802
2599.297	5750
2601.225	5699
2603.153	5664
2605.08	5718
2607.007	5688
2608.932	5734
2610.858	5667
2612.782	5772
2614.709	5730
2616.632	5684
2618.556	5797
2620.478	5702
2622.401	5655
2624.324	5712
2626.247	5661
2628.167	5763
2630.088	5697
2632.008	5723
2633.928	5753
2635.848	5844
2637.766	5812
2639.684	5706
2641.603	5838
2643.519	5896
2645.437	5718
2647.353	5822
2649.27	5644
2651.184	5719
2653.099	5791
2655.014	5733
2656.928	5729
2658.842	5793
2660.755	5625
2662.667	5707
2664.579	5684
2666.491	5819
2668.402	5684
2670.312	5745
2672.222	5790
2674.132	5708
2676.042	5686
2677.951	5725
2679.859	5651
2681.766	5665
2683.674	5724
2685.582	5607
2687.488	5729
2689.392	5728
2691.298	5704
2693.202	5730
2695.107	5699
2697.012	5718
2698.914	5521
2700.817	5712
2702.72	5647
2704.622	5652
2706.524	5694
2708.425	5628
2710.326	5632
2712.225	5660
2714.125	5599
2716.024	5564
2717.923	5631
2719.822	5607
2721.719	5554
2723.616	5615
2725.512	5669
2727.41	5628
2729.305	5604
2731.201	5682
2733.095	5619
2734.99	5662
2736.884	5685
2738.778	5620
2740.67	5627
2742.562	5647
2744.455	5598
2746.346	5596
2748.238	5660
2750.129	5601
2752.018	5541
2753.907	5699
2755.797	5635
2757.687	5711
2759.575	5480
2761.462	5608
2763.349	5548
2765.237	5591
2767.124	5597
2769.009	5649
2770.894	5526
2772.779	5501
2774.663	5503
2776.547	5653
2778.431	5572
2780.314	5496
2782.197	5494
2784.078	5602
2785.96	5554
2787.842	5614
2789.723	5584
2791.603	5574
2793.483	5494
2795.362	5649
2797.241	5600
2799.121	5631
2800.997	5445
2802.874	5536
2804.751	5568
2806.628	5627
2808.506	5658
2810.38	5504
2812.255	5528
2814.13	5467
2816.003	5507
2817.878	5546
2819.752	5454
2821.623	5650
2823.496	5609
2825.368	5552
2827.238	5481
2829.111	5520
2830.98	5545
2832.851	5555
2834.719	5597
2836.589	5606
2838.458	5548
2840.327	5552
2842.193	5666
2844.061	5680
2845.927	5584
2847.794	5715
2849.66	5558
2851.525	5728
2853.39	5594
2855.254	5700
2857.117	5713
2858.983	5687
2860.845	5783
2862.707	5827
2864.569	5887
2866.431	5822
2868.293	5930
2870.154	5946
2872.013	6039
2873.873	6046
2875.733	6141
2877.592	6267
2879.451	6344
2881.309	6244
2883.166	6195
2885.022	6395
2886.879	6407
2888.736	6401
2890.591	6497
2892.446	6399
2894.301	6277
2896.155	6513
2898.009	6380
2899.863	6476
2901.716	6333
2903.568	6425
2905.419	6564
2907.27	6425
2909.123	6397
2910.973	6388
2912.824	6610
2914.673	6514
2916.521	6637
2918.372	6703
2920.22	6796
2922.067	6801
2923.914	6846
2925.761	6919
2927.607	6975
2929.455	7018
2931.301	7083
2933.144	7238
2934.99	7145
2936.833	7361
2938.678	7237
2940.522	7455
2942.364	7639
2944.207	7670
2946.048	7701
2947.891	7829
2949.731	7801
2951.571	7751
2953.412	7807
2955.25	7589
2957.09	7518
2958.93	7502
2960.767	7477
2962.606	7264
2964.443	7180
2966.279	7241
2968.116	7066
2969.953	6876
2971.788	6776
2973.623	6639
2975.457	6607
2977.292	6648
2979.127	6651
2980.959	6607
2982.792	6482
2984.624	6420
2986.455	6408
2988.288	6538
2990.119	6462
2991.949	6258
2993.779	6252
2995.608	6335
2997.439	6299
2999.268	6089
3001.096	6006
3002.923	5963
3004.751	5905
3006.578	5870
3008.406	5931
3010.232	5654
3012.057	5750
3013.883	5603
3015.706	5666
3017.532	5529
3019.356	5591
3021.179	5533
3023.002	5580
3024.823	5420
3026.646	5416
3028.469	5515
3030.289	5393
3032.11	5378
3033.93	5428
3035.749	5295
3037.57	5229
3039.39	5318
3041.207	5281
3043.026	5280
3044.842	5274
3046.661	5300
3048.477	5328
3050.294	5258
3052.109	5301
3053.925	5364
3055.739	5364
3057.555	5246
3059.368	5339
3061.181	5321
3062.995	5264
3064.807	5362
3066.62	5295
3068.433	5302
3070.243	5225
3072.054	5335
3073.865	5418
3075.675	5237
3077.485	5275
3079.293	5228
3081.102	5168
3082.911	5237
3084.719	5204
3086.527	5134
3088.333	5242
3090.139	5178
3091.945	5031
3093.75	5216
3095.557	5192
3097.361	5274
3099.165	5152
3100.969	5202
3102.772	5088
3104.575	5164
3106.379	5145
3108.181	5108
3109.982	5045
3111.783	5203
3113.584	5209
3115.386	4987
3117.186	5086
3118.985	5095
3120.783	5014
3122.582	5018
3124.381	5060
3126.179	5064
3127.975	4936
3129.772	5005
3131.569	5108
3133.365	5030
3135.161	5069
3136.956	4988
3138.751	4975
3140.544	5033
3142.338	4952
3144.132	5104
3145.925	4956
3147.717	5079
3149.509	5075
3151.301	5023
3153.091	5025
3154.884	5024
3156.673	4964
3158.462	4976
3160.252	5021
3162.041	4938
3163.831	4884
3165.618	4963
3167.405	5064
3169.193	5025
3170.979	4903
3172.767	5068
3174.553	5051
3176.338	4912
3178.123	4935
3179.907	4941
3181.692	4911
3183.477	4957
3185.259	5024
3187.042	4869
3188.824	4934
3190.607	5009
3192.389	4905
3194.17	4983
3195.951	5020
3197.73	5003
3199.51	5001
3201.289	4981
3203.07	5105
3204.848	5062
3206.626	5029
3208.403	4977
3210.18	4964
3211.959	4959
3213.735	4883
3215.511	4947
3217.285	5032
3219.06	5004
3220.836	4908
3222.611	4882
3224.384	4994
3226.158	5004
3227.929	4988
3229.702	4956
3231.476	4970
3233.248	4932
3235.018	4975
3236.789	5018
3238.56	5012
3240.33	4903
3242.1	4973
3243.869	4940
3245.637	5064
3247.405	5080
3249.172	4884
3250.941	4952
3252.707	5010
3254.474	4958
3256.24	5024
3258.006	4930
3259.772	5084
3261.537	4992
3263.301	4984
3265.065	4962
3266.828	4963
3268.592	5027
3270.355	5018
3272.117	4931
3273.878	4971
3275.64	4909
3277.401	5053
3279.162	4980
3280.922	4959
3282.682	4875
3284.441	4979
3286.199	4977
3287.959	4969
3289.716	4919
3291.475	4935
3293.232	4989
3294.988	4873
3296.744	4994
3298.501	4894
3300.256	4998
3302.011	4980
3303.766	4962
3305.52	5021
3307.275	4962
3309.028	4978
3310.781	4939
3312.533	4905
3314.285	4944
3316.038	5037
3317.789	4974
3319.54	4920
3321.289	4927
3323.039	4871
3324.789	4903
3326.539	5005
3328.288	4922
3330.035	4871
3331.783	4899
3333.531	4961
3335.28	4813
3337.025	4895
3338.771	4892
3340.518	4889
3342.262	4886
3344.009	4899
3345.753	4820
3347.497	4869
3349.24	4947
3350.983	4837
3352.726	4812
3354.469	4863
3356.212	4807
3357.952	4848
3359.694	4851
3361.434	4952
3363.176	4795
3364.916	4937
3366.654	4721
3368.394	4769
3370.132	4751
3371.871	4683
3373.61	4873
3375.346	4725
3377.083	4725
3378.82	4763
3380.556	4769
3382.292	4724
3384.027	4752
3385.763	4730
3387.497	4771
3389.231	4693
3390.965	4708
3392.698	4732
3394.431	4693
3396.164	4759
3397.896	4596
3399.627	4674
3401.36	4787
3403.09	4665
3404.82	4744
3406.55	4724
3408.279	4741
3410.01	4756
3411.738	4652
3413.467	4601
3415.194	4632
3416.92	4633
3418.647	4672
3420.375	4709
3422.102	4603
3423.827	4626
3425.553	4633
3427.277	4708
3429.003	4591
3430.727	4571
3432.451	4611
3434.173	4623
3435.896	4667
3437.62	4595
3439.343	4590
3441.063	4602
3442.785	4599
3444.505	4594
3446.226	4652
3447.948	4589
3449.666	4588
3451.386	4576
3453.104	4671
3454.823	4609
3456.541	4581
3458.259	4516
3459.976	4555
3461.693	4526
3463.408	4560
3465.125	4510
3466.841	4453
3468.556	4519
3470.271	4572
3471.985	4444
3473.698	4501
3475.414	4521
3477.126	4475
3478.838	4402
3480.55	4464
3482.263	4449
3483.975	4412
3485.686	4477
3487.396	4389
3489.106	4423
3490.817	4335
3492.526	4437
3494.236	4453
3495.944	4336
3497.652	4414
3499.359	4425
3501.066	4381
3502.775	4390
3504.481	4248
3506.187	4365
3507.893	4492
3509.598	4314
3511.304	4344
3513.009	4288
3514.713	4379
3516.417	4225
3518.12	4226
3519.821	4269
3521.525	4322
3523.228	4300
3524.929	4245
3526.631	4274
3528.33	4168
3530.032	4270
3531.733	4280
3533.433	4147
3535.131	4173
3536.83	4187
3538.529	4216
3540.227	4275
3541.925	4209
3543.623	4188
3545.319	4265
3547.016	4156
3548.712	4225
3550.408	4196
3552.103	4180
3553.798	4130
3555.491	4094
3557.188	4116
3558.88	4186
3560.574	4163
3562.266	4137
3563.959	4126
3565.651	4173
3567.343	4078
3569.035	4068
3570.725	4134
3572.415	4147
3574.106	4178
3575.797	4152
3577.485	4097
3579.174	4141
3580.863	4016
3582.551	4124
3584.238	4096
3585.926	4092
3587.613	4042
3589.3	4144
3590.986	4075
3592.671	4088
3594.357	4093
3596.042	4033
3597.726	3893
3599.41	3982
3601.094	3950
3602.778	3986
3604.461	4004
3606.143	3968
3607.825	4031
3609.507	3998
3611.188	3887
3612.87	3912
3614.551	3936
3616.229	3921
3617.909	3964
3619.589	3919
3621.269	3870
3622.948	3859
3624.625	3949
3626.302	3943
3627.98	3894
3629.657	3863
3631.334	3896
3633.01	3910
3634.686	3952
3636.361	3761
3638.036	3870
3639.712	3861
3641.385	3892
3643.06	3783
3644.732	3776
3646.405	3768
3648.08	3782
3649.751	3853
3651.424	3777
3653.094	3759
3654.766	3797
3656.436	3701
3658.106	3793
3659.777	3787
3661.446	3828
3663.115	3839
3664.783	3726
3666.452	3763
3668.121	3655
3669.788	3707
3671.454	3764
3673.121	3660
3674.789	3821
3676.455	3643
3678.12	3803
3679.784	3693
3681.45	3720
3683.114	3742
3684.779	3762
3686.442	3686
3688.105	3629
3689.768	3659
3691.43	3654
3693.093	3674
3694.754	3728
3696.415	3678
3698.076	3696
3699.736	3655
3701.396	3738
3703.057	3719
3704.716	3674
3706.375	3582
3708.034	3658
3709.692	3581
3711.351	3722
3713.008	3627
3714.665	3629
3716.321	3629
3717.977	3587
3719.634	3653
3721.29	3646
3722.945	3719
3724.598	3576
3726.253	3630
3727.907	3607
3729.561	3616
3731.214	3573
3732.867	3683
3734.518	3620
3736.171	3603
3737.824	3650
3739.474	3647
3741.125	3544
3742.775	3521
3744.425	3492
3746.074	3585
3747.725	3537
3749.373	3523
3751.022	3622
3752.669	3512
3754.318	3550
3755.966	3609
3757.612	3620
3759.259	3549
3760.905	3612
3762.55	3564
3764.197	3553
3765.842	3555
3767.486	3551
3769.131	3547
3770.774	3597
3772.417	3466
3774.061	3497
3775.705	3552
3777.347	3547
3778.988	3451
3780.629	3564
3782.271	3539
3783.912	3428
3785.552	3579
3787.192	3499
3788.831	3536
3790.472	3503
3792.112	3497
3793.75	3519
3795.388	3452
3797.024	3454
3798.661	3448
3800.3	3484
3801.936	3477
3803.572	3458
3805.208	3402
3806.844	3479
3808.48	3416
3810.115	3451
3811.748	3356
3813.382	3438
3815.016	3352
3816.649	3425
3818.283	3307
3819.914	3410
3821.547	3357
3823.178	3391
3824.809	3370
3826.441	3423
3828.072	3420
3829.701	3371
3831.331	3469
3832.96	3307
3834.591	3419
3836.219	3388
3837.847	3327
3839.475	3293
3841.102	3339
3842.729	3411
3844.357	3400
3845.984	3290
3847.609	3316
3849.234	3322
3850.86	3391
3852.485	3295
3854.11	3327
3855.734	3342
3857.357	3415
3858.981	3359
3860.603	3305
3862.227	3298
3863.848	3321
3865.471	3302
3867.092	3326
3868.713	3378
3870.334	3238
3871.954	3372
3873.575	3264
3875.194	3339
3876.813	3305
3878.433	3285
3880.051	3294
3881.669	3203
3883.286	3222
3884.904	3252
3886.52	3340
3888.138	3295
3889.754	3295
3891.37	3283
3892.985	3293
3894.6	3295
3896.216	3324
3897.831	3279
3899.444	3265
3901.058	3267
3902.67	3224
3904.283	3249
3905.897	3217
3907.509	3268
3909.121	3229
3910.731	3189
3912.342	3243
3913.954	3297
3915.563	3295
3917.174	3286
3918.783	3234
3920.391	3229
3922.002	3261
3923.611	3211
3925.218	3275
3926.826	3230
3928.432	3337
3930.039	3202
3931.647	3192
3933.253	3214
3934.859	3284
3936.464	3233
3938.068	3130
3939.675	3172
3941.278	3269
3942.883	3181
3944.486	3183
3946.089	3220
3947.692	3209
3949.295	3218
3950.898	3272
3952.499	3194
3954.1	3164
3955.7	3223
3957.303	3203
3958.903	3176
3960.502	3124
3962.101	3179
3963.7	3125
3965.301	3157
3966.899	3092
3968.497	3202
3970.094	3166
3971.691	3142
3973.288	3156
3974.885	3154
3976.481	3082
3978.077	3182
3979.672	3116
3981.267	3056
3982.863	3136
3984.457	3152
3986.051	3114
3987.645	3081
3989.238	3087
3990.831	3095
3992.425	3092
3994.017	3026
3995.607	3098
3997.199	3061
3998.79	3062
4000.382	3034
4001.973	3170
4003.561	3017
4005.151	3050
4006.741	3048
4008.331	3066
4009.918	3053
4011.507	3022
4013.095	3091
4014.681	3021
4016.269	3104
4017.856	3058
4019.443	3091
4021.028	2998
4022.614	3016
4024.199	3043
4025.785	3105
4027.37	3003
4028.953	2981
4030.536	3013
4032.12	2995
4033.704	2928
4035.287	3034
4036.869	2917
4038.45	2998
4040.032	2942
4041.613	2925
4043.195	2974
4044.776	2980
4046.356	2939
4047.935	2953
4049.515	2964
4051.095	2955
4052.674	2966
4054.251	2934
4055.829	2966
4057.406	2957
4058.985	2962
4060.562	2861
4062.139	2900
4063.715	2913
4065.29	2953
4066.865	2903
4068.442	2888
4070.016	2867
4071.59	2907
4073.164	2910
4074.738	2915
4076.312	2955
4077.885	2925
4079.458	2911
4081.03	2891
4082.602	2950
4084.173	2886
4085.745	2904
4087.315	2904
4088.886	2894
4090.456	2833
4092.026	2947
4093.596	2864
4095.165	2928
4096.734	2881
4098.301	2894
4099.869	2841
4101.437	2841
4103.006	2896
4104.572	2859
4106.139	2913
4107.704	2786
4109.27	2804
4110.837	2829
4112.401	2856
4113.966	2869
4115.53	2888
4117.094	2835
4118.659	2892
4120.223	2872
4121.785	2841
4123.347	2831
4124.909	2841
4126.471	2822
4128.034	2802
4129.595	2793
4131.155	2759
4132.716	2788
4134.275	2781
4135.836	2826
4137.395	2696
4138.955	2742
4140.513	2746
4142.071	2763
4143.628	2810
4145.188	2791
4146.745	2799
4148.302	2781
4149.858	2831
4151.414	2780
4152.971	2716
4154.526	2733
4156.081	2713
4157.635	2785
4159.189	2775
4160.745	2737
4162.298	2720
4163.852	2786
4165.405	2747
4166.957	2815
4168.51	2690
4170.063	2711
4171.614	2766
4173.166	2698
4174.717	2716
4176.267	2772
4177.817	2728
4179.368	2633
4180.917	2695
4182.466	2712
4184.016	2703
4185.564	2750
4187.112	2667
4188.66	2636
4190.207	2638
4191.754	2642
4193.301	2612
4194.848	2675
4196.394	2681
4197.94	2692
4199.484	2694
4201.03	2632
4202.575	2632
4204.12	2654
4205.663	2742
4207.207	2598
4208.75	2750
4210.292	2614
4211.836	2583
4213.378	2642
4214.92	2667
4216.46	2654
4218.002	2619
4219.544	2624
4221.083	2623
4222.625	2613
4224.164	2662
4225.703	2539
4227.244	2562
4228.782	2576
4230.32	2662
4231.857	2601
4233.395	2607
4234.933	2596
4236.471	2643
4238.007	2589
4239.542	2608
4241.078	2584
4242.614	2605
4244.15	2589
4245.685	2568
4247.219	2633
4248.753	2569
4250.287	2575
4251.82	2626
4253.354	2562
4254.887	2526
4256.419	2588
4257.951	2594
4259.483	2578
4261.016	2580
4262.547	2603
4264.078	2539
4265.608	2551
4267.137	2538
4268.668	2576
4270.197	2465
4271.727	2507
4273.254	2555
4274.783	2567
4276.311	2545
4277.84	2500
4279.366	2486
4280.894	2541
4282.42	2526
4283.946	2562
4285.473	2547
4286.998	2530
4288.523	2533
4290.047	2539
4291.572	2582
4293.096	2550
4294.622	2480
4296.144	2503
4297.668	2495
4299.19	2514
4300.713	2492
4302.236	2469
4303.758	2529
4305.279	2464
4306.799	2468
4308.321	2470
4309.842	2468
4311.361	2501
4312.882	2422
4314.401	2478
