400.0961	5004
402.6185	4966
405.1424	4965
407.6635	5058
410.1838	5100
412.7035	5042
415.2225	5113
417.7388	5134
420.2585	5198
422.7754	5194
425.2917	5243
427.8072	5204
430.3221	5409
432.8363	5328
435.3498	5366
437.8626	5289
440.3727	5343
442.8841	5375
445.3969	5354
447.907	5348
450.4142	5331
452.9229	5301
455.4289	5478
457.9362	5285
460.4449	5323
462.9488	5366
465.454	5392
467.9566	5245
470.4604	5436
472.9637	5303
475.4662	5339
477.966	5366
480.4671	5360
482.9656	5405
485.4633	5421
487.9645	5445
490.4608	5399
492.9566	5470
495.4536	5509
497.948	5597
500.4437	5499
502.9387	5556
505.431	5545
507.9226	5519
510.4136	5545
512.9079	5669
515.3975	5479
517.8864	5553
520.3746	5583
522.8622	5547
525.3491	5481
527.8394	5601
530.3249	5598
532.8098	5626
535.2939	5538
537.7774	5592
540.2623	5604
542.7444	5663
545.2259	5603
547.7067	5646
550.1868	5747
552.6683	5708
555.147	5641
557.6231	5622
560.1005	5618
562.5773	5703
565.0534	5760
567.5308	5794
570.0056	5752
572.4776	5787
574.951	5721
577.4237	5767
579.8978	5835
582.3671	5804
584.8378	5750
587.3079	5793
589.7773	5886
592.244	5960
594.714	5987
597.1793	5917
599.6461	5859
602.1121	5797
604.5754	5880
607.0421	5831
609.5042	5797
611.9675	5971
614.4282	5789
616.8902	5829
619.3515	5843
621.8122	5858
624.2702	5858
626.7296	5858
629.1863	5807
631.6423	5893
634.1017	5838
636.5563	5866
639.0104	5854
641.4658	5920
643.9185	5816
646.3725	5921
648.8239	5866
651.2766	6031
653.7266	5857
656.176	5961
658.6247	5914
661.0748	5991
663.5242	6076
665.9709	5910
668.417	5974
670.8624	6075
673.3092	5983
675.7533	5905
678.1968	5943
680.6395	6078
683.0817	6054
685.5251	5998
687.9659	5988
690.4061	6110
692.8456	6062
695.2844	6083
697.7226	6049
700.1621	6102
702.599	6126
705.0332	6087
707.4688	6063
709.9036	6203
712.3399	6239
714.7735	6135
717.2044	6155
719.6367	6204
722.0683	6125
724.4993	6141
726.9296	6293
729.3593	6179
731.7883	6280
734.2147	6153
736.6423	6188
739.0714	6332
741.4958	6329
743.9216	6300
746.3447	6397
748.7691	6334
751.1929	6381
753.616	6482
756.0366	6490
758.4584	6497
760.8776	6372
763.2982	6452
765.718	6567
768.1373	6532
770.5539	6393
772.9698	6638
775.3871	6474
777.8038	6596
780.2178	6493
782.6332	6538
785.0459	6558
787.458	6447
789.8714	6425
792.2842	6491
794.6943	6423
797.1038	6513
799.5127	6637
801.9209	6423
804.3324	6581
806.7393	6559
809.1456	6556
811.5513	6644
813.9562	6593
816.3625	6530
818.7663	6587
821.1693	6561
823.5718	6544
825.9735	6638
828.3746	6625
830.7771	6618
833.177	6607
835.5762	6535
837.9747	6567
840.3727	6694
842.772	6663
845.1666	6716
847.5626	6737
849.958	6617
852.3527	6703
854.7488	6869
857.1403	6744
859.5331	6855
861.9253	6659
864.3168	6717
866.7057	6674
869.098	6670
871.4876	6706
873.8746	6759
876.263	6696
878.6487	6807
881.0378	6809
883.4243	6743
885.8081	6725
888.1933	6787
890.5759	6699
892.9598	6714
895.343	6639
897.7256	6829
900.1057	6675
902.4871	6859
904.8659	6813
907.246	6892
909.6254	6832
912.0023	6733
914.3786	6738
916.7562	6884
919.1331	7017
921.5074	7019
923.8831	7092
926.2562	7139
928.6287	7032
931.0005	6990
933.3757	7096
935.7462	7037
938.1162	7064
940.4855	7181
942.8542	7149
945.2242	7259
947.5916	7237
949.9584	7287
952.3266	7492
954.6921	7759
957.0571	7852
959.4233	8175
961.787	8199
964.15	8399
966.5125	8144
968.8742	7905
971.2354	7700
973.5959	7484
975.9559	7223
978.3151	7099
980.6738	7131
983.0338	7007
985.3912	6873
987.7461	6971
990.1022	6923
992.4578	6991
994.8127	6915
997.1689	7009
999.5207	6956
1001.874	6923
1004.226	7022
1006.576	6987
1008.929	7007
1011.28	7003
1013.628	7083
1015.977	6903
1018.324	6969
1020.674	6978
1023.019	6963
1025.366	7012
1027.713	7047
1030.056	7001
1032.399	7116
1034.746	7184
1037.087	7112
1039.431	7268
1041.771	7092
1044.113	7091
1046.454	6978
1048.793	7171
1051.133	7090
1053.471	7083
1055.807	7073
1058.146	7130
1060.483	7146
1062.818	7112
1065.153	7220
1067.489	7195
1069.822	7185
1072.156	7276
1074.488	7284
1076.82	7249
1079.15	7183
1081.48	7207
1083.814	7151
1086.143	7188
1088.471	7057
1090.799	7140
1093.126	7250
1095.452	7127
1097.78	7156
1100.105	7104
1102.43	7171
1104.754	7203
1107.077	7113
1109.4	7123
1111.722	7161
1114.044	7203
1116.365	7163
1118.685	7070
1121.005	7101
1123.324	7188
1125.643	7156
1127.961	7238
1130.278	7257
1132.595	7117
1134.911	7211
1137.226	7227
1139.541	7180
1141.854	7181
1144.167	7149
1146.482	7159
1148.793	7185
1151.105	7228
1153.414	7237
1155.725	7102
1158.033	7242
1160.344	7264
1162.651	7203
1164.959	7190
1167.265	7209
1169.572	7214
1171.878	7208
1174.184	7141
1176.488	7194
1178.79	7215
1181.094	7273
1183.396	7301
1185.699	7096
1188.001	7341
1190.301	7185
1192.6	7334
1194.9	7287
1197.2	7125
1199.497	7259
1201.794	7107
1204.09	7169
1206.387	7186
1208.684	7292
1210.978	7186
1213.272	7230
1215.565	7266
1217.858	7291
1220.15	7259
1222.443	7255
1224.734	7227
1227.024	7373
1229.313	7238
1231.602	7333
1233.892	7318
1236.18	7483
1238.467	7376
1240.754	7351
1243.04	7413
1245.325	7352
1247.612	7507
1249.896	7524
1252.178	7495
1254.461	7435
1256.743	7505
1259.027	7483
1261.308	7557
1263.587	7516
1265.867	7402
1268.146	7413
1270.425	7433
1272.703	7525
1274.981	7500
1277.256	7438
1279.532	7512
1281.808	7512
1284.083	7438
1286.358	7423
1288.63	7440
1290.904	7393
1293.175	7376
1295.449	7336
1297.719	7447
1299.99	7318
1302.259	7450
1304.529	7302
1306.798	7419
1309.065	7325
1311.333	7415
1313.599	7375
1315.866	7440
1318.131	7317
1320.396	7470
1322.66	7296
1324.925	7341
1327.187	7217
1329.448	7452
1331.711	7395
1333.974	7463
1336.234	7520
1338.493	7482
1340.752	7447
1343.01	7390
1345.269	7355
1347.526	7442
1349.784	7265
1352.04	7423
1354.295	7411
1356.552	7248
1358.806	7490
1361.059	7430
1363.312	7264
1365.564	7483
1367.818	7424
1370.069	7475
1372.318	7414
1374.568	7361
1376.817	7448
1379.066	7505
1381.316	7454
1383.564	7409
1385.809	7498
1388.056	7450
1390.301	7521
1392.549	7405
1394.793	7642
1397.036	7700
1399.279	7554
1401.522	7657
1403.763	7589
1406.007	7595
1408.248	7549
1410.487	7746
1412.727	7544
1414.965	7621
1417.205	7587
1419.442	7585
1421.68	7444
1423.915	7761
1426.152	7643
1428.388	7619
1430.623	7764
1432.857	7605
1435.091	7755
1437.323	7784
1439.556	7585
1441.789	7771
1444.019	7631
1446.25	7775
1448.48	7796
1450.708	7656
1452.938	7707
1455.167	7856
1457.394	7819
1459.62	7725
1461.846	7783
1464.073	7579
1466.299	7715
1468.523	7650
1470.746	7566
1472.969	7658
1475.191	7622
1477.415	7640
1479.636	7540
1481.858	7586
1484.078	7570
1486.298	7477
1488.518	7431
1490.736	7473
1492.954	7631
1495.169	7463
1497.386	7443
1499.602	7504
1501.819	7414
1504.034	7537
1506.248	7402
1508.462	7472
1510.675	7449
1512.888	7478
1515.1	7310
1517.311	7458
1519.522	7489
1521.732	7378
1523.942	7421
1526.151	7358
1528.36	7386
1530.566	7456
1532.773	7374
1534.98	7418
1537.187	7510
1539.392	7518
1541.596	7533
1543.801	7404
1546.005	7505
1548.208	7465
1550.411	7488
1552.612	7502
1554.814	7562
1557.013	7537
1559.212	7511
1561.414	7595
1563.612	7498
1565.811	7459
1568.007	7636
1570.203	7680
1572.403	7516
1574.598	7641
1576.792	7536
1578.988	7621
1581.181	7618
1583.376	7639
1585.568	7712
1587.761	7611
1589.952	7669
1592.143	7653
1594.333	7474
1596.524	7705
1598.715	7727
1600.903	7641
1603.091	7683
1605.278	7733
1607.466	7745
1609.652	7787
1611.838	7777
1614.023	7679
1616.207	7719
1618.391	7672
1620.576	7626
1622.759	7651
1624.941	7653
1627.123	7561
1629.304	7791
1631.484	7689
1633.664	7683
1635.844	7787
1638.022	7841
1640.201	7660
1642.38	7768
1644.556	7747
1646.732	7821
1648.908	7715
1651.084	7740
1653.257	7767
1655.433	7856
1657.607	7796
1659.779	8001
1661.951	7864
1664.122	7718
1666.295	7646
1668.467	7947
1670.635	7796
1672.805	7840
1674.973	7797
1677.142	7876
1679.31	7746
1681.478	7706
1683.644	7963
1685.81	7746
1687.975	7849
1690.142	7730
1692.305	7861
1694.468	7667
1696.632	7737
1698.794	7817
1700.957	7711
1703.119	7704
1705.279	7635
1707.439	7570
1709.598	7663
1711.758	7623
1713.917	7633
1716.075	7576
1718.231	7766
1720.388	7704
1722.543	7712
1724.702	7652
1726.856	7688
1729.01	7699
1731.164	7623
1733.317	7563
1735.471	7664
1737.623	7651
1739.774	7601
1741.925	7622
1744.075	7617
1746.225	7691
1748.376	7600
1750.524	7544
1752.672	7678
1754.82	7631
1756.965	7723
1759.113	7699
1761.259	7570
1763.405	7756
1765.549	7740
1767.694	7638
1769.836	7811
1771.981	7782
1774.123	7607
1776.264	7663
1778.405	7827
1780.546	7652
1782.687	7647
1784.827	7743
1786.966	7730
1789.103	7664
1791.242	7762
1793.381	7773
1795.517	7649
1797.653	7632
1799.788	7653
1801.923	7704
1804.057	7829
1806.193	7635
1808.326	7800
1810.457	7619
1812.59	7704
1814.721	7761
1816.855	7789
1818.984	7637
1821.113	7900
1823.244	7657
1825.372	7485
1827.499	7726
1829.63	7723
1831.756	7730
1833.882	7683
1836.007	7604
1838.132	7661
1840.26	7696
1842.384	7740
1844.507	7654
1846.63	7726
1848.752	7706
1850.875	7635
1852.996	7755
1855.118	7684
1857.238	7623
1859.358	7508
1861.477	7636
1863.597	7659
1865.715	7654
1867.832	7668
1869.948	7606
1872.064	7476
1874.181	7723
1876.297	7594
1878.411	7649
1880.526	7782
1882.639	7515
1884.752	7701
1886.865	7598
1888.977	7581
1891.089	7552
1893.2	7639
1895.308	7577
1897.42	7662
1899.53	7647
1901.639	7459
1903.745	7609
1905.853	7805
1907.962	7603
1910.067	7635
1912.174	7766
1914.278	7649
1916.383	7764
1918.486	7687
1920.592	7640
1922.694	7787
1924.797	7675
1926.898	7733
1929	7733
1931.102	7745
1933.203	7838
1935.301	7821
1937.401	7830
1939.499	7735
1941.598	7799
1943.697	7749
1945.793	7814
1947.888	7854
1949.985	7812
1952.08	7757
1954.176	7814
1956.269	7859
1958.364	7689
1960.457	7743
1962.549	7764
1964.642	7675
1966.733	7815
1968.823	7768
1970.913	7688
1973.005	7756
1975.093	7688
1977.184	7649
1979.271	7791
1981.359	7671
1983.446	7627
1985.532	7611
1987.619	7752
1989.705	7570
1991.789	7675
1993.874	7591
1995.956	7687
1998.041	7664
2000.123	7660
2002.206	7693
2004.287	7621
2006.368	7658
2008.449	7740
2010.529	7673
2012.609	7566
2014.688	7542
2016.766	7564
2018.843	7588
2020.922	7548
2022.999	7733
2025.074	7729
2027.15	7599
2029.225	7713
2031.299	7594
2033.375	7747
2035.447	7647
2037.52	7630
2039.592	7498
2041.664	7605
2043.736	7661
2045.807	7639
2047.876	7539
2049.947	7624
2052.015	7746
2054.086	7658
2056.153	7674
2058.221	7646
2060.288	7678
2062.353	7665
2064.42	7571
2066.486	7644
2068.55	7655
2070.614	7668
2072.678	7587
2074.741	7586
2076.805	7616
2078.866	7648
2080.929	7668
2082.99	7640
2085.049	7635
2087.109	7663
2089.17	7739
2091.228	7561
2093.286	7707
2095.344	7670
2097.4	7621
2099.46	7666
2101.516	7665
2103.572	7593
2105.626	7583
2107.679	7606
2109.735	7623
2111.788	7601
2113.841	7511
2115.894	7612
2117.945	7684
2119.997	7552
2122.049	7568
2124.1	7637
2126.148	7742
2128.197	7617
2130.246	7660
2132.296	7581
2134.342	7491
2136.39	7674
2138.437	7721
2140.483	7575
2142.527	7565
2144.574	7546
2146.619	7506
2148.661	7682
2150.705	7593
2152.747	7573
2154.792	7587
2156.832	7519
2158.874	7559
2160.915	7540
2162.954	7666
2164.995	7556
2167.034	7513
2169.072	7451
2171.111	7484
2173.148	7513
2175.186	7611
2177.223	7507
2179.258	7523
2181.294	7474
2183.328	7569
2185.362	7529
2187.398	7377
2189.431	7559
2191.463	7500
2193.495	7566
2195.528	7470
2197.56	7485
2199.59	7467
2201.62	7529
2203.649	7461
2205.678	7564
2207.708	7361
2209.737	7366
2211.764	7420
2213.791	7380
2215.817	7414
2217.843	7482
2219.87	7332
2221.895	7507
2223.919	7319
2225.942	7341
2227.966	7405
2229.988	7434
2232.012	7383
2234.032	7449
2236.054	7396
2238.074	7312
2240.095	7438
2242.116	7480
2244.135	7420
2246.153	7349
2248.171	7341
2250.188	7460
2252.208	7332
2254.223	7311
2256.239	7463
2258.255	7423
2260.269	7362
2262.283	7431
2264.3	7368
2266.312	7354
2268.325	7396
2270.336	7485
2272.349	7363
2274.362	7511
2276.372	7336
2278.383	7352
2280.392	7379
2282.402	7372
2284.409	7331
2286.418	7376
2288.427	7296
2290.433	7366
2292.441	7287
2294.446	7399
2296.453	7336
2298.459	7376
2300.463	7362
2302.466	7272
2304.471	7397
2306.475	7423
2308.477	7394
2310.478	7247
2312.481	7359
2314.481	7259
2316.481	7258
2318.482	7218
2320.482	7309
2322.48	7329
2324.48	7309
2326.478	7327
2328.476	7111
2330.473	7328
2332.469	7157
2334.465	7316
2336.46	7243
2338.454	7229
2340.45	7241
2342.444	7210
2344.437	7229
2346.43	7181
2348.421	7238
2350.414	7087
2352.405	7187
2354.396	7317
2356.386	7183
2358.376	7234
2360.366	7153
2362.355	7235
2364.343	7064
2366.331	7089
2368.317	7195
2370.304	7065
2372.292	7213
2374.278	7173
2376.262	7222
2378.247	7049
2380.23	7155
2382.216	7156
2384.199	7138
2386.181	7142
2388.163	7194
2390.144	7121
2392.127	7142
2394.107	7105
2396.087	7142
2398.066	7147
2400.046	7054
2402.023	6968
2404.004	7137
2405.981	7061
2407.957	7185
2409.934	7040
2411.91	6969
2413.886	7075
2415.862	7114
2417.836	7019
2419.809	6972
2421.784	7089
2423.756	7069
2425.73	7067
2427.701	7113
2429.672	7087
2431.644	7025
2433.615	7135
2435.586	6841
2437.555	7154
2439.523	7064
2441.491	7033
2443.459	7038
2445.428	7094
2447.395	7043
2449.361	7011
2451.327	7064
2453.292	6968
2455.257	7002
2457.223	7166
2459.187	7009
2461.15	6902
2463.113	6839
2465.076	7070
2467.039	6927
2468.999	6989
2470.96	6839
2472.921	6997
2474.881	7059
2476.841	6882
2478.8	6812
2480.759	6937
2482.717	6945
2484.675	6984
2486.63	6958
2488.589	6967
2490.545	6891
2492.5	6946
2494.455	6907
2496.408	7005
2498.364	6896
2500.318	6972
2502.27	6865
2504.223	6850
2506.174	7038
2508.126	6817
2510.078	6902
2512.03	6956
2513.979	7014
2515.927	6904
2517.877	7004
2519.826	7001
2521.775	6857
2523.722	6926
2525.668	6858
2527.616	6812
2529.561	6847
2531.508	6829
2533.452	6900
2535.398	6943
2537.342	6831
2539.284	6782
2541.229	6988
2543.173	6877
2545.114	6760
2547.055	6854
2548.996	6797
2550.938	6842
2552.878	6876
2554.817	6953
2556.756	6833
2558.695	6742
2560.633	6901
2562.572	6766
2564.509	6917
2566.445	6874
2568.382	6843
2570.317	6842
2572.254	6835
2574.189	6921
2576.123	6746
2578.057	6814
2579.99	6977
2581.923	6783
2583.855	6857
2585.788	6701
2587.719	6770
2589.65	6871
2591.579	6914
2593.511	6848
2595.44	6794
2597.37	6795
2599.297	6981
2601.225	6889
2603.153	6860
2605.08	6791
2607.007	6867
2608.932	6837
2610.858	6778
2612.782	6741
2614.709	6955
2616.632	6880
2618.556	6796
2620.478	6817
2622.401	6843
2624.324	6834
2626.247	6798
2628.167	6937
2630.088	6697
2632.008	6758
2633.928	6866
2635.848	6789
2637.766	6796
2639.684	6778
2641.603	6782
2643.519	6843
2645.437	6797
2647.353	6880
2649.27	6757
2651.184	6826
2653.099	6841
2655.014	6750
2656.928	6837
2658.842	6856
2660.755	6827
2662.667	6890
2664.579	6762
2666.491	6722
2668.402	6815
2670.312	6696
2672.222	6655
2674.132	6870
2676.042	6729
2677.951	6758
2679.859	6830
2681.766	6876
2683.674	6807
2685.582	6793
2687.488	6810
2689.392	6683
2691.298	6854
2693.202	6528
2695.107	6696
2697.012	6774
2698.914	6786
2700.817	6725
2702.72	6781
2704.622	6602
2706.524	6653
2708.425	6644
2710.326	6666
2712.225	6635
2714.125	6609
2716.024	6780
2717.923	6564
2719.822	6724
2721.719	6658
2723.616	6611
2725.512	6725
2727.41	6603
2729.305	6653
2731.201	6588
2733.095	6696
2734.99	6590
2736.884	6677
2738.778	6515
2740.67	6610
2742.562	6691
2744.455	6663
2746.346	6664
2748.238	6705
2750.129	6654
2752.018	6621
2753.907	6441
2755.797	6614
2757.687	6541
2759.575	6598
2761.462	6660
2763.349	6634
2765.237	6491
2767.124	6515
2769.009	6536
2770.894	6609
2772.779	6544
2774.663	6615
2776.547	6625
2778.431	6367
2780.314	6523
2782.197	6502
2784.078	6612
2785.96	6556
2787.842	6498
2789.723	6540
2791.603	6438
2793.483	6462
2795.362	6541
2797.241	6555
2799.121	6483
2800.997	6507
2802.874	6540
2804.751	6481
2806.628	6570
2808.506	6501
2810.38	6446
2812.255	6658
2814.13	6475
2816.003	6551
2817.878	6327
2819.752	6552
2821.623	6466
2823.496	6454
2825.368	6498
2827.238	6519
2829.111	6531
2830.98	6452
2832.851	6477
2834.719	6525
2836.589	6510
2838.458	6437
2840.327	6489
2842.193	6543
2844.061	6524
2845.927	6468
2847.794	6449
2849.66	6538
2851.525	6607
2853.39	6567
2855.254	6609
2857.117	6582
2858.983	6605
2860.845	6509
2862.707	6711
2864.569	6676
2866.431	6707
2868.293	6685
2870.154	6713
2872.013	6694
2873.873	6639
2875.733	6703
2877.592	6790
2879.451	6787
2881.309	6731
2883.166	6837
2885.022	6918
2886.879	6898
2888.736	6910
2890.591	6952
2892.446	6927
2894.301	6961
2896.155	6908
2898.009	6954
2899.863	7039
2901.716	6973
2903.568	6850
2905.419	6867
2907.27	6893
2909.123	6905
2910.973	6882
2912.824	6969
2914.673	6793
2916.521	6901
2918.372	7010
2920.22	6978
2922.067	7123
2923.914	7124
2925.761	7122
2927.607	7290
2929.455	7280
2931.301	7338
2933.144	7201
2934.99	7224
2936.833	7330
2938.678	7362
2940.522	7391
2942.364	7547
2944.207	7470
2946.048	7607
2947.891	7626
2949.731	7582
2951.571	7523
2953.412	7550
2955.25	7548
2957.09	7357
2958.93	7448
2960.767	7438
2962.606	7227
2964.443	7297
2966.279	7280
2968.116	7212
2969.953	7123
2971.788	7060
2973.623	7132
2975.457	7004
2977.292	6953
2979.127	6993
2980.959	6880
2982.792	6843
2984.624	6835
2986.455	6750
2988.288	6781
2990.119	6770
2991.949	6631
2993.779	6747
2995.608	6733
2997.439	6578
2999.268	6737
3001.096	6594
3002.923	6514
3004.751	6517
3006.578	6484
3008.406	6378
3010.232	6365
3012.057	6264
3013.883	6327
3015.706	6394
3017.532	6324
3019.356	6256
3021.179	6111
3023.002	6233
3024.823	6094
3026.646	6309
3028.469	6164
3030.289	6222
3032.11	6055
3033.93	6037
3035.749	6037
3037.57	6099
3039.39	6171
3041.207	6150
3043.026	6119
3044.842	6142
3046.661	6054
3048.477	6100
3050.294	6102
3052.109	6009
3053.925	6122
3055.739	5988
3057.555	6011
3059.368	6039
3061.181	6073
3062.995	6090
3064.807	6055
3066.62	6013
3068.433	6067
3070.243	5931
3072.054	6012
3073.865	6048
3075.675	5969
3077.485	5992
3079.293	5875
3081.102	5994
3082.911	5983
3084.719	5862
3086.527	5875
3088.333	5968
3090.139	6032
3091.945	5788
3093.75	5827
3095.557	5932
3097.361	5890
3099.165	5910
3100.969	5838
3102.772	5758
3104.575	5890
3106.379	5890
3108.181	5851
3109.982	5839
3111.783	5827
3113.584	5807
3115.386	5812
3117.186	5741
3118.985	5741
3120.783	5795
3122.582	5794
3124.381	5846
3126.179	5754
3127.975	5748
3129.772	5705
3131.569	5699
3133.365	5589
3135.161	5597
3136.956	5610
3138.751	5728
3140.544	5705
3142.338	5795
3144.132	5602
3145.925	5761
3147.717	5806
3149.509	5564
3151.301	5638
3153.091	5706
3154.884	5710
3156.673	5603
3158.462	5692
3160.252	5651
3162.041	5607
3163.831	5689
3165.618	5683
3167.405	5697
3169.193	5662
3170.979	5579
3172.767	5557
3174.553	5602
3176.338	5583
3178.123	5632
3179.907	5575
3181.692	5650
3183.477	5522
3185.259	5689
3187.042	5499
3188.824	5742
3190.607	5506
3192.389	5541
3194.17	5591
3195.951	5589
3197.73	5491
3199.51	5567
3201.289	5590
3203.07	5580
3204.848	5566
3206.626	5601
3208.403	5647
3210.18	5557
3211.959	5558
3213.735	5635
3215.511	5401
3217.285	5454
3219.06	5445
3220.836	5669
3222.611	5507
3224.384	5469
3226.158	5519
3227.929	5537
3229.702	5562
3231.476	5567
3233.248	5393
3235.018	5530
3236.789	5484
3238.56	5562
3240.33	5553
3242.1	5556
3243.869	5504
3245.637	5597
3247.405	5501
3249.172	5529
3250.941	5505
3252.707	5480
3254.474	5530
3256.24	5432
3258.006	5510
3259.772	5519
3261.537	5528
3263.301	5545
3265.065	5481
3266.828	5419
3268.592	5474
3270.355	5461
3272.117	5428
3273.878	5412
3275.64	5433
3277.401	5628
3279.162	5509
3280.922	5510
3282.682	5437
3284.441	5439
3286.199	5542
3287.959	5395
3289.716	5518
3291.475	5506
3293.232	5468
3294.988	5360
3296.744	5479
3298.501	5445
3300.256	5462
3302.011	5454
3303.766	5366
3305.52	5497
3307.275	5488
3309.028	5510
3310.781	5394
3312.533	5541
3314.285	5453
3316.038	5385
3317.789	5480
3319.54	5478
3321.289	5436
3323.039	5570
3324.789	5366
3326.539	5386
3328.288	5399
3330.035	5394
3331.783	5494
3333.531	5350
3335.28	5440
3337.025	5310
3338.771	5330
3340.518	5501
3342.262	5425
3344.009	5458
3345.753	5334
3347.497	5346
3349.24	5382
3350.983	5300
3352.726	5453
3354.469	5366
3356.212	5402
3357.952	5242
3359.694	5280
3361.434	5337
3363.176	5359
3364.916	5311
3366.654	5247
3368.394	5339
3370.132	5380
3371.871	5343
3373.61	5308
3375.346	5255
3377.083	5183
3378.82	5381
3380.556	5330
3382.292	5275
3384.027	5197
3385.763	5291
3387.497	5238
3389.231	5206
3390.965	5147
3392.698	5180
3394.431	5311
3396.164	5217
3397.896	5189
3399.627	5294
3401.36	5103
3403.09	5191
3404.82	5203
3406.55	5202
3408.279	5059
3410.01	5256
3411.738	5109
3413.467	5171
3415.194	5225
3416.92	5140
3418.647	5208
3420.375	5156
3422.102	5197
3423.827	5120
3425.553	5036
3427.277	5123
3429.003	5161
3430.727	5154
3432.451	5056
3434.173	5223
3435.896	5151
3437.62	5035
3439.343	5175
3441.063	5141
3442.785	5106
3444.505	5092
3446.226	4976
3447.948	4976
3449.666	5041
3451.386	5069
3453.104	5021
3454.823	5146
3456.541	5047
3458.259	5078
3459.976	4998
3461.693	5088
3463.408	4895
3465.125	4994
3466.841	4944
3468.556	4977
3470.271	5057
3471.985	4969
3473.698	4903
3475.414	5025
3477.126	4849
3478.838	4983
3480.55	4986
3482.263	4898
3483.975	4940
3485.686	4865
3487.396	4928
3489.106	4874
3490.817	4810
3492.526	4919
3494.236	4885
3495.944	4971
3497.652	4896
3499.359	5006
3501.066	4891
3502.775	4816
3504.481	4918
3506.187	4755
3507.893	4854
3509.598	4822
3511.304	4821
3513.009	4808
3514.713	4829
3516.417	4808
3518.12	4818
3519.821	4810
3521.525	4793
3523.228	4829
3524.929	4792
3526.631	4676
3528.33	4701
3530.032	4783
3531.733	4700
3533.433	4738
3535.131	4758
3536.83	4658
3538.529	4663
3540.227	4735
3541.925	4803
3543.623	4746
3545.319	4717
3547.016	4753
3548.712	4681
3550.408	4689
3552.103	4758
3553.798	4730
3555.491	4787
3557.188	4669
3558.88	4729
3560.574	4588
3562.266	4691
3563.959	4689
3565.651	4672
3567.343	4606
3569.035	4646
3570.725	4584
3572.415	4607
3574.106	4548
3575.797	4640
3577.485	4669
3579.174	4522
3580.863	4545
3582.551	4626
3584.238	4517
3585.926	4556
3587.613	4594
3589.3	4490
3590.986	4596
3592.671	4519
3594.357	4603
3596.042	4568
3597.726	4667
3599.41	4518
3601.094	4489
3602.778	4510
3604.461	4448
3606.143	4571
3607.825	4601
3609.507	4394
3611.188	4490
3612.87	4519
3614.551	4498
3616.229	4496
3617.909	4512
3619.589	4412
3621.269	4419
3622.948	4396
3624.625	4426
3626.302	4399
3627.98	4459
3629.657	4437
3631.334	4393
3633.01	4266
3634.686	4461
3636.361	4407
3638.036	4420
3639.712	4271
3641.385	4379
3643.06	4484
3644.732	4346
3646.405	4310
3648.08	4402
3649.751	4343
3651.424	4337
3653.094	4311
3654.766	4384
3656.436	4293
3658.106	4345
3659.777	4243
3661.446	4397
3663.115	4194
3664.783	4266
3666.452	4363
3668.121	4257
3669.788	4220
3671.454	4272
3673.121	4288
3674.789	4283
3676.455	4294
3678.12	4254
3679.784	4169
3681.45	4273
3683.114	4191
3684.779	4249
3686.442	4272
3688.105	4186
3689.768	4299
3691.43	4204
3693.093	4230
3694.754	4212
3696.415	4161
3698.076	4203
3699.736	4269
3701.396	4237
3703.057	4215
3704.716	4283
3706.375	4189
3708.034	4288
3709.692	4238
3711.351	4164
3713.008	4175
3714.665	4134
3716.321	4206
3717.977	4259
3719.634	4123
3721.29	4204
3722.945	4152
3724.598	4152
3726.253	4134
3727.907	4204
3729.561	4147
3731.214	4046
3732.867	4159
3734.518	4228
3736.171	4030
3737.824	4217
3739.474	4127
3741.125	4087
3742.775	4145
3744.425	3992
3746.074	4181
3747.725	4062
3749.373	4006
3751.022	4124
3752.669	4137
3754.318	4071
3755.966	4231
3757.612	4090
3759.259	4136
3760.905	4102
3762.55	4113
3764.197	4039
3765.842	4103
3767.486	4082
3769.131	4041
3770.774	4024
3772.417	4021
3774.061	4038
3775.705	4090
3777.347	4027
3778.988	4051
3780.629	4052
3782.271	3966
3783.912	3939
3785.552	3902
3787.192	4084
3788.831	3936
3790.472	3978
3792.112	4031
3793.75	3935
3795.388	3920
3797.024	4011
3798.661	4031
3800.3	3909
3801.936	3859
3803.572	3919
3805.208	3863
3806.844	3927
3808.48	3911
3810.115	3917
3811.748	3866
3813.382	3923
3815.016	3910
3816.649	3890
3818.283	3960
3819.914	3888
3821.547	3923
3823.178	3936
3824.809	3820
3826.441	3995
3828.072	3850
3829.701	3888
3831.331	3816
3832.96	3885
3834.591	3883
3836.219	3859
3837.847	3800
3839.475	3888
3841.102	3787
3842.729	3788
3844.357	3862
3845.984	3804
3847.609	3835
3849.234	3806
3850.86	3841
3852.485	3782
3854.11	3759
3855.734	3804
3857.357	3856
3858.981	3788
3860.603	3842
3862.227	3830
3863.848	3798
3865.471	3892
3867.092	3769
3868.713	3823
3870.334	3812
3871.954	3846
3873.575	3763
3875.194	3760
3876.813	3767
3878.433	3785
3880.051	3827
3881.669	3806
3883.286	3753
3884.904	3748
3886.52	3748
3888.138	3704
3889.754	3714
3891.37	3861
3892.985	3737
3894.6	3711
3896.216	3701
3897.831	3678
3899.444	3727
3901.058	3702
3902.67	3745
3904.283	3723
3905.897	3742
3907.509	3721
3909.121	3751
3910.731	3723
3912.342	3741
3913.954	3678
3915.563	3654
3917.174	3714
3918.783	3724
3920.391	3782
3922.002	3702
3923.611	3684
3925.218	3669
3926.826	3735
3928.432	3647
3930.039	3650
3931.647	3703
3933.253	3631
3934.859	3668
3936.464	3686
3938.068	3646
3939.675	3619
3941.278	3617
3942.883	3612
3944.486	3664
3946.089	3748
3947.692	3618
3949.295	3651
3950.898	3626
3952.499	3619
3954.1	3684
3955.7	3589
3957.303	3620
3958.903	3593
3960.502	3607
3962.101	3573
3963.7	3640
3965.301	3603
3966.899	3682
3968.497	3600
3970.094	3612
3971.691	3561
3973.288	3596
3974.885	3582
3976.481	3548
3978.077	3607
3979.672	3623
3981.267	3564
3982.863	3510
3984.457	3569
3986.051	3499
3987.645	3575
3989.238	3463
3990.831	3510
3992.425	3439
3994.017	3545
3995.607	3521
3997.199	3491
3998.79	3464
4000.382	3517
4001.973	3508
4003.561	3517
4005.151	3491
4006.741	3481
4008.331	3493
4009.918	3470
4011.507	3553
4013.095	3486
4014.681	3463
4016.269	3496
4017.856	3390
4019.443	3465
4021.028	3474
4022.614	3385
4024.199	3443
4025.785	3425
4027.37	3480
4028.953	3432
4030.536	3451
4032.12	3409
4033.704	3392
4035.287	3387
4036.869	3377
4038.45	3386
4040.032	3361
4041.613	3386
4043.195	3374
4044.776	3385
4046.356	3393
4047.935	3365
4049.515	3418
4051.095	3397
4052.674	3462
4054.251	3385
4055.829	3347
4057.406	3290
4058.985	3326
4060.562	3300
4062.139	3288
4063.715	3326
4065.29	3267
4066.865	3343
4068.442	3436
4070.016	3321
4071.59	3287
4073.164	3281
4074.738	3359
4076.312	3326
4077.885	3310
4079.458	3281
4081.03	3294
4082.602	3300
4084.173	3390
4085.745	3316
4087.315	3274
4088.886	3254
4090.456	3349
4092.026	3311
4093.596	3324
4095.165	3243
4096.734	3206
4098.301	3290
4099.869	3240
4101.437	3286
4103.006	3291
4104.572	3230
4106.139	3274
4107.704	3234
4109.27	3287
4110.837	3277
4112.401	3228
4113.966	3152
4115.53	3157
4117.094	3226
4118.659	3199
4120.223	3171
4121.785	3212
4123.347	3281
4124.909	3194
4126.471	3206
4128.034	3166
4129.595	3192
4131.155	3191
4132.716	3174
4134.275	3141
4135.836	3090
4137.395	3197
4138.955	3140
4140.513	3128
4142.071	3157
4143.628	3152
4145.188	3132
4146.745	3127
4148.302	3109
4149.858	3100
4151.414	3090
4152.971	3142
4154.526	3115
4156.081	3114
4157.635	3134
4159.189	3119
4160.745	3085
4162.298	3140
4163.852	3079
4165.405	3042
4166.957	3053
4168.51	3060
4170.063	3123
4171.614	3042
4173.166	3110
4174.717	3112
4176.267	3118
4177.817	3080
4179.368	3061
4180.917	3033
4182.466	3018
4184.016	3026
4185.564	3002
4187.112	3065
4188.66	3012
4190.207	3004
4191.754	3013
4193.301	3001
4194.848	3069
4196.394	2951
4197.94	3042
4199.484	2987
4201.03	2987
4202.575	2985
4204.12	3042
4205.663	3040
4207.207	3000
4208.75	2913
4210.292	3038
4211.836	2979
4213.378	2989
4214.92	2967
4216.46	2960
4218.002	2981
4219.544	2963
4221.083	2961
4222.625	2961
4224.164	2963
4225.703	2960
4227.244	2966
4228.782	3015
4230.32	3013
4231.857	3028
4233.395	2881
4234.933	2979
4236.471	2983
4238.007	2977
4239.542	2946
4241.078	2911
4242.614	2968
4244.15	2914
4245.685	2931
4247.219	2823
4248.753	3018
4250.287	2919
4251.82	2912
4253.354	2883
4254.887	2911
4256.419	2940
4257.951	2929
4259.483	2902
4261.016	2864
4262.547	2936
4264.078	2833
4265.608	2856
4267.137	2831
4268.668	2975
4270.197	2810
4271.727	2918
4273.254	2842
4274.783	2854
4276.311	2831
4277.84	2836
4279.366	2792
4280.894	2899
4282.42	2830
4283.946	2946
4285.473	2864
4286.998	2842
4288.523	2840
4290.047	2897
4291.572	2880
4293.096	2849
4294.622	2850
4296.144	2893
4297.668	2853
4299.19	2885
4300.713	2857
4302.236	2777
4303.758	2797
4305.279	2769
4306.799	2800
4308.321	2858
4309.842	2829
4311.361	2819
4312.882	2705
4314.401	2712
