400.0961	3833
402.6185	3839
405.1424	3875
407.6635	3867
410.1838	3991
412.7035	3900
415.2225	3977
417.7388	4088
420.2585	3981
422.7754	4046
425.2917	4156
427.8072	4303
430.3221	4200
432.8363	4174
435.3498	4196
437.8626	4240
440.3727	4230
442.8841	4192
445.3969	4211
447.907	4165
450.4142	4115
452.9229	4141
455.4289	4140
457.9362	4134
460.4449	4155
462.9488	4069
465.454	4136
467.9566	4089
470.4604	4105
472.9637	4211
475.4662	4118
477.966	4131
480.4671	4041
482.9656	4139
485.4633	4186
487.9645	4165
490.4608	4132
492.9566	4155
495.4536	4239
497.948	4195
500.4437	4099
502.9387	4191
505.431	4169
507.9226	4189
510.4136	4214
512.9079	4145
515.3975	4217
517.8864	4151
520.3746	4248
522.8622	4345
525.3491	4206
527.8394	4288
530.3249	4288
532.8098	4308
535.2939	4211
537.7774	4282
540.2623	4326
542.7444	4217
545.2259	4205
547.7067	4298
550.1868	4300
552.6683	4234
555.147	4238
557.6231	4374
560.1005	4336
562.5773	4310
565.0534	4353
567.5308	4357
570.0056	4444
572.4776	4413
574.951	4482
577.4237	4462
579.8978	4529
582.3671	4501
584.8378	4612
587.3079	4502
589.7773	4532
592.244	4533
594.714	4485
597.1793	4430
599.6461	4483
602.1121	4420
604.5754	4342
607.0421	4520
609.5042	4421
611.9675	4475
614.4282	4361
616.8902	4470
619.3515	4450
621.8122	4447
624.2702	4435
626.7296	4441
629.1863	4285
631.6423	4353
634.1017	4358
636.5563	4392
639.0104	4322
641.4658	4432
643.9185	4409
646.3725	4404
648.8239	4501
651.2766	4429
653.7266	4422
656.176	4404
658.6247	4410
661.0748	4452
663.5242	4384
665.9709	4404
668.417	4581
670.8624	4516
673.3092	4607
675.7533	4493
678.1968	4627
680.6395	4552
683.0817	4536
685.5251	4498
687.9659	4545
690.4061	4595
692.8456	4552
695.2844	4554
697.7226	4534
700.1621	4502
702.599	4626
705.0332	4593
707.4688	4578
709.9036	4652
712.3399	4651
714.7735	4624
717.2044	4584
719.6367	4623
722.0683	4640
724.4993	4758
726.9296	4614
729.3593	4674
731.7883	4756
734.2147	4647
736.6423	4687
739.0714	4637
741.4958	4695
743.9216	4708
746.3447	4614
748.7691	4802
751.1929	4809
753.616	4834
756.0366	4840
758.4584	4772
760.8776	4816
763.2982	4800
765.718	4839
768.1373	4922
770.5539	4912
772.9698	4878
775.3871	4861
777.8038	4822
780.2178	4971
782.6332	4915
785.0459	4864
787.458	4925
789.8714	4930
792.2842	4883
794.6943	4797
797.1038	4919
799.5127	4793
801.9209	4917
804.3324	4938
806.7393	4867
809.1456	4871
811.5513	4948
813.9562	5001
816.3625	4914
818.7663	4976
821.1693	4956
823.5718	5014
825.9735	5027
828.3746	4977
830.7771	5029
833.177	4944
835.5762	4962
837.9747	4998
840.3727	5013
842.772	5051
845.1666	5184
847.5626	5042
849.958	5114
852.3527	5140
854.7488	5193
857.1403	5157
859.5331	5213
861.9253	5146
864.3168	5067
866.7057	5109
869.098	5100
871.4876	5076
873.8746	5248
876.263	5135
878.6487	5173
881.0378	5135
883.4243	5159
885.8081	5179
888.1933	5128
890.5759	5045
892.9598	5103
895.343	5101
897.7256	5087
900.1057	5011
902.4871	5091
904.8659	5077
907.246	5110
909.6254	5155
912.0023	5158
914.3786	5255
916.7562	5374
919.1331	5391
921.5074	5496
923.8831	5416
926.2562	5535
928.6287	5477
931.0005	5490
933.3757	5494
935.7462	5570
938.1162	5501
940.4855	5619
942.8542	5610
945.2242	5728
947.5916	6028
949.9584	6039
952.3266	6472
954.6921	6724
957.0571	7202
959.4233	7448
961.787	7587
964.15	7369
966.5125	7189
968.8742	6818
971.2354	6439
973.5959	6001
975.9559	5852
978.3151	5661
980.6738	5575
983.0338	5476
985.3912	5366
987.7461	5453
990.1022	5360
992.4578	5272
994.8127	5370
997.1689	5309
999.5207	5414
1001.874	5349
1004.226	5474
1006.576	5364
1008.929	5427
1011.28	5338
1013.628	5361
1015.977	5290
1018.324	5284
1020.674	5439
1023.019	5393
1025.366	5445
1027.713	5531
1030.056	5376
1032.399	5434
1034.746	5507
1037.087	5462
1039.431	5465
1041.771	5450
1044.113	5469
1046.454	5427
1048.793	5555
1051.133	5443
1053.471	5420
1055.807	5429
1058.146	5446
1060.483	5448
1062.818	5511
1065.153	5557
1067.489	5666
1069.822	5631
1072.156	5771
1074.488	5663
1076.82	5676
1079.15	5659
1081.48	5623
1083.814	5623
1086.143	5457
1088.471	5478
1090.799	5441
1093.126	5511
1095.452	5420
1097.78	5394
1100.105	5447
1102.43	5473
1104.754	5512
1107.077	5403
1109.4	5395
1111.722	5388
1114.044	5441
1116.365	5489
1118.685	5352
1121.005	5385
1123.324	5331
1125.643	5412
1127.961	5400
1130.278	5495
1132.595	5417
1134.911	5345
1137.226	5324
1139.541	5367
1141.854	5456
1144.167	5460
1146.482	5376
1148.793	5448
1151.105	5424
1153.414	5351
1155.725	5503
1158.033	5409
1160.344	5399
1162.651	5355
1164.959	5455
1167.265	5580
1169.572	5439
1171.878	5469
1174.184	5479
1176.488	5440
1178.79	5476
1181.094	5430
1183.396	5446
1185.699	5448
1188.001	5462
1190.301	5468
1192.6	5500
1194.9	5487
1197.2	5494
1199.497	5355
1201.794	5474
1204.09	5516
1206.387	5454
1208.684	5459
1210.978	5612
1213.272	5537
1215.565	5412
1217.858	5499
1220.15	5496
1222.443	5575
1224.734	5542
1227.024	5534
1229.313	5576
1231.602	5615
1233.892	5599
1236.18	5683
1238.467	5648
1240.754	5685
1243.04	5726
1245.325	5769
1247.612	5676
1249.896	5785
1252.178	5677
1254.461	5642
1256.743	5768
1259.027	5726
1261.308	5737
1263.587	5779
1265.867	5771
1268.146	5867
1270.425	5690
1272.703	5751
1274.981	5791
1277.256	5680
1279.532	5665
1281.808	5740
1284.083	5706
1286.358	5699
1288.63	5683
1290.904	5656
1293.175	5629
1295.449	5656
1297.719	5583
1299.99	5571
1302.259	5574
1304.529	5593
1306.798	5556
1309.065	5606
1311.333	5584
1313.599	5573
1315.866	5645
1318.131	5557
1320.396	5646
1322.66	5629
1324.925	5574
1327.187	5551
1329.448	5623
1331.711	5735
1333.974	5712
1336.234	5604
1338.493	5685
1340.752	5633
1343.01	5735
1345.269	5601
1347.526	5531
1349.784	5563
1352.04	5539
1354.295	5692
1356.552	5527
1358.806	5631
1361.059	5539
1363.312	5563
1365.564	5578
1367.818	5671
1370.069	5620
1372.318	5649
1374.568	5568
1376.817	5695
1379.066	5636
1381.316	5594
1383.564	5723
1385.809	5653
1388.056	5648
1390.301	5644
1392.549	5584
1394.793	5779
1397.036	5734
1399.279	5766
1401.522	5845
1403.763	5806
1406.007	5845
1408.248	5845
1410.487	5868
1412.727	5913
1414.965	5767
1417.205	5874
1419.442	5865
1421.68	5852
1423.915	5728
1426.152	5845
1428.388	5770
1430.623	5827
1432.857	5837
1435.091	5902
1437.323	5868
1439.556	5908
1441.789	5971
1444.019	5838
1446.25	5925
1448.48	5954
1450.708	6025
1452.938	6017
1455.167	6063
1457.394	6096
1459.62	5981
1461.846	5844
1464.073	5975
1466.299	6013
1468.523	5922
1470.746	5842
1472.969	5834
1475.191	5853
1477.415	5921
1479.636	5728
1481.858	5707
1484.078	5679
1486.298	5685
1488.518	5625
1490.736	5665
1492.954	5612
1495.169	5710
1497.386	5675
1499.602	5538
1501.819	5525
1504.034	5633
1506.248	5527
1508.462	5620
1510.675	5576
1512.888	5505
1515.1	5548
1517.311	5562
1519.522	5619
1521.732	5622
1523.942	5549
1526.151	5728
1528.36	5585
1530.566	5597
1532.773	5564
1534.98	5592
1537.187	5456
1539.392	5648
1541.596	5597
1543.801	5602
1546.005	5601
1548.208	5720
1550.411	5599
1552.612	5647
1554.814	5617
1557.013	5730
1559.212	5693
1561.414	5674
1563.612	5745
1565.811	5728
1568.007	5681
1570.203	5625
1572.403	5828
1574.598	5772
1576.792	5639
1578.988	5735
1581.181	5835
1583.376	5791
1585.568	5813
1587.761	5705
1589.952	5827
1592.143	5730
1594.333	5755
1596.524	5828
1598.715	5840
1600.903	5849
1603.091	5739
1605.278	5836
1607.466	5780
1609.652	5816
1611.838	5798
1614.023	5793
1616.207	5850
1618.391	5770
1620.576	5714
1622.759	5826
1624.941	5866
1627.123	5846
1629.304	5790
1631.484	5818
1633.664	5896
1635.844	5890
1638.022	5912
1640.201	5920
1642.38	5914
1644.556	5938
1646.732	5883
1648.908	6075
1651.084	5868
1653.257	6036
1655.433	5937
1657.607	5849
1659.779	5977
1661.951	5980
1664.122	6056
1666.295	5983
1668.467	6003
1670.635	6094
1672.805	6057
1674.973	6008
1677.142	6041
1679.31	5949
1681.478	6037
1683.644	5971
1685.81	6014
1687.975	5976
1690.142	5894
1692.305	5907
1694.468	5883
1696.632	5860
1698.794	5852
1700.957	5767
1703.119	5766
1705.279	5869
1707.439	5814
1709.598	5781
1711.758	5745
1713.917	5801
1716.075	5800
1718.231	5721
1720.388	5678
1722.543	5761
1724.702	5707
1726.856	5723
1729.01	5737
1731.164	5737
1733.317	5799
1735.471	5910
1737.623	5659
1739.774	5763
1741.925	5627
1744.075	5735
1746.225	5748
1748.376	5729
1750.524	5726
1752.672	5721
1754.82	5795
1756.965	5755
1759.113	5716
1761.259	5878
1763.405	5911
1765.549	5958
1767.694	5703
1769.836	5855
1771.981	5719
1774.123	5772
1776.264	5782
1778.405	5878
1780.546	5777
1782.687	5792
1784.827	5816
1786.966	5750
1789.103	5756
1791.242	5934
1793.381	5741
1795.517	5797
1797.653	5807
1799.788	5751
1801.923	5843
1804.057	5794
1806.193	5759
1808.326	5799
1810.457	5911
1812.59	5835
1814.721	5890
1816.855	5795
1818.984	5800
1821.113	5815
1823.244	5855
1825.372	5878
1827.499	5794
1829.63	5740
1831.756	5771
1833.882	5843
1836.007	5691
1838.132	5690
1840.26	5664
1842.384	5777
1844.507	5827
1846.63	5875
1848.752	5790
1850.875	5806
1852.996	5845
1855.118	5641
1857.238	5740
1859.358	5785
1861.477	5777
1863.597	5883
1865.715	5651
1867.832	5730
1869.948	5805
1872.064	5769
1874.181	5784
1876.297	5846
1878.411	5817
1880.526	5813
1882.639	5759
1884.752	5653
1886.865	5851
1888.977	5863
1891.089	5723
1893.2	5758
1895.308	5724
1897.42	5769
1899.53	5804
1901.639	5783
1903.745	5765
1905.853	5806
1907.962	5792
1910.067	5782
1912.174	5824
1914.278	5868
1916.383	5774
1918.486	5862
1920.592	5831
1922.694	5911
1924.797	5880
1926.898	5917
1929	5851
1931.102	5772
1933.203	5864
1935.301	5875
1937.401	5806
1939.499	5784
1941.598	5765
1943.697	5850
1945.793	5671
1947.888	5932
1949.985	5843
1952.08	5839
1954.176	5916
1956.269	5845
1958.364	5859
1960.457	5890
1962.549	5925
1964.642	5855
1966.733	5872
1968.823	5814
1970.913	5842
1973.005	5883
1975.093	5873
1977.184	5869
1979.271	5727
1981.359	5757
1983.446	5877
1985.532	5810
1987.619	5884
1989.705	5795
1991.789	5854
1993.874	5759
1995.956	5794
1998.041	5880
2000.123	5797
2002.206	5881
2004.287	5821
2006.368	5813
2008.449	5790
2010.529	5868
2012.609	5790
2014.688	5771
2016.766	5739
2018.843	5826
2020.922	5793
2022.999	5796
2025.074	5738
2027.15	5787
2029.225	5797
2031.299	5809
2033.375	5850
2035.447	5804
2037.52	5794
2039.592	5778
2041.664	5820
2043.736	5822
2045.807	5845
2047.876	5746
2049.947	5744
2052.015	5812
2054.086	5904
2056.153	5816
2058.221	5822
2060.288	5810
2062.353	5822
2064.42	5772
2066.486	5765
2068.55	5774
2070.614	5818
2072.678	5798
2074.741	5874
2076.805	5751
2078.866	5815
2080.929	5970
2082.99	5766
2085.049	5742
2087.109	5790
2089.17	5777
2091.228	5805
2093.286	5827
2095.344	5797
2097.4	5841
2099.46	5703
2101.516	5792
2103.572	5765
2105.626	5844
2107.679	5768
2109.735	5819
2111.788	5811
2113.841	5749
2115.894	5768
2117.945	5919
2119.997	5717
2122.049	5764
2124.1	5807
2126.148	5740
2128.197	5924
2130.246	5758
2132.296	5752
2134.342	5912
2136.39	5724
2138.437	5837
2140.483	5757
2142.527	5826
2144.574	5703
2146.619	5807
2148.661	5759
2150.705	5694
2152.747	5811
2154.792	5743
2156.832	5733
2158.874	5802
2160.915	5871
2162.954	5779
2164.995	5785
2167.034	5754
2169.072	5690
2171.111	5749
2173.148	5802
2175.186	5687
2177.223	5750
2179.258	5757
2181.294	5659
2183.328	5766
2185.362	5615
2187.398	5675
2189.431	5685
2191.463	5685
2193.495	5572
2195.528	5693
2197.56	5702
2199.59	5640
2201.62	5645
2203.649	5640
2205.678	5681
2207.708	5614
2209.737	5610
2211.764	5682
2213.791	5605
2215.817	5598
2217.843	5682
2219.87	5742
2221.895	5646
2223.919	5643
2225.942	5625
2227.966	5718
2229.988	5647
2232.012	5651
2234.032	5636
2236.054	5626
2238.074	5711
2240.095	5682
2242.116	5503
2244.135	5641
2246.153	5493
2248.171	5532
2250.188	5625
2252.208	5635
2254.223	5562
2256.239	5636
2258.255	5576
2260.269	5677
2262.283	5706
2264.3	5704
2266.312	5563
2268.325	5657
2270.336	5644
2272.349	5627
2274.362	5638
2276.372	5673
2278.383	5670
2280.392	5624
2282.402	5553
2284.409	5589
2286.418	5558
2288.427	5671
2290.433	5589
2292.441	5666
2294.446	5570
2296.453	5501
2298.459	5700
2300.463	5534
2302.466	5806
2304.471	5559
2306.475	5751
2308.477	5623
2310.478	5622
2312.481	5715
2314.481	5609
2316.481	5505
2318.482	5626
2320.482	5657
2322.48	5517
2324.48	5605
2326.478	5618
2328.476	5651
2330.473	5585
2332.469	5591
2334.465	5507
2336.46	5549
2338.454	5569
2340.45	5638
2342.444	5551
2344.437	5629
2346.43	5506
2348.421	5504
2350.414	5468
2352.405	5446
2354.396	5471
2356.386	5414
2358.376	5548
2360.366	5529
2362.355	5490
2364.343	5469
2366.331	5487
2368.317	5524
2370.304	5459
2372.292	5530
2374.278	5384
2376.262	5544
2378.247	5512
2380.23	5480
2382.216	5383
2384.199	5453
2386.181	5494
2388.163	5408
2390.144	5355
2392.127	5462
2394.107	5399
2396.087	5452
2398.066	5405
2400.046	5537
2402.023	5404
2404.004	5387
2405.981	5492
2407.957	5405
2409.934	5310
2411.91	5275
2413.886	5476
2415.862	5313
2417.836	5390
2419.809	5411
2421.784	5297
2423.756	5341
2425.73	5395
2427.701	5376
2429.672	5421
2431.644	5478
2433.615	5475
2435.586	5457
2437.555	5400
2439.523	5482
2441.491	5303
2443.459	5546
2445.428	5366
2447.395	5410
2449.361	5452
2451.327	5417
2453.292	5487
2455.257	5389
2457.223	5376
2459.187	5387
2461.15	5385
2463.113	5431
2465.076	5447
2467.039	5285
2468.999	5340
2470.96	5344
2472.921	5384
2474.881	5425
2476.841	5362
2478.8	5288
2480.759	5336
2482.717	5289
2484.675	5350
2486.63	5316
2488.589	5303
2490.545	5393
2492.5	5380
2494.455	5288
2496.408	5329
2498.364	5373
2500.318	5291
2502.27	5388
2504.223	5334
2506.174	5291
2508.126	5361
2510.078	5288
2512.03	5341
2513.979	5336
2515.927	5310
2517.877	5397
2519.826	5392
2521.775	5342
2523.722	5342
2525.668	5328
2527.616	5392
2529.561	5269
2531.508	5288
2533.452	5319
2535.398	5393
2537.342	5261
2539.284	5224
2541.229	5396
2543.173	5296
2545.114	5291
2547.055	5225
2548.996	5275
2550.938	5281
2552.878	5155
2554.817	5262
2556.756	5277
2558.695	5277
2560.633	5289
2562.572	5225
2564.509	5258
2566.445	5241
2568.382	5274
2570.317	5232
2572.254	5260
2574.189	5271
2576.123	5243
2578.057	5225
2579.99	5368
2581.923	5188
2583.855	5270
2585.788	5420
2587.719	5253
2589.65	5235
2591.579	5255
2593.511	5372
2595.44	5312
2597.37	5349
2599.297	5396
2601.225	5320
2603.153	5239
2605.08	5399
2607.007	5348
2608.932	5328
2610.858	5285
2612.782	5279
2614.709	5335
2616.632	5245
2618.556	5265
2620.478	5288
2622.401	5290
2624.324	5263
2626.247	5341
2628.167	5317
2630.088	5373
2632.008	5366
2633.928	5284
2635.848	5194
2637.766	5262
2639.684	5217
2641.603	5305
2643.519	5299
2645.437	5285
2647.353	5304
2649.27	5254
2651.184	5328
2653.099	5432
2655.014	5207
2656.928	5227
2658.842	5360
2660.755	5242
2662.667	5327
2664.579	5224
2666.491	5315
2668.402	5364
2670.312	5264
2672.222	5337
2674.132	5342
2676.042	5356
2677.951	5213
2679.859	5263
2681.766	5301
2683.674	5354
2685.582	5309
2687.488	5239
2689.392	5210
2691.298	5222
2693.202	5211
2695.107	5181
2697.012	5168
2698.914	5164
2700.817	5260
2702.72	5147
2704.622	5124
2706.524	5280
2708.425	5158
2710.326	5111
2712.225	5191
2714.125	5246
2716.024	5268
2717.923	5138
2719.822	5165
2721.719	5146
2723.616	5211
2725.512	5196
2727.41	5200
2729.305	5180
2731.201	5230
2733.095	5224
2734.99	5272
2736.884	5276
2738.778	5182
2740.67	5256
2742.562	5251
2744.455	5145
2746.346	5201
2748.238	5219
2750.129	5146
2752.018	5116
2753.907	5073
2755.797	5139
2757.687	5206
2759.575	5236
2761.462	5147
2763.349	5175
2765.237	5191
2767.124	5181
2769.009	5230
2770.894	5125
2772.779	5117
2774.663	5142
2776.547	5103
2778.431	5213
2780.314	5209
2782.197	5138
2784.078	5040
2785.96	5162
2787.842	5087
2789.723	5105
2791.603	5135
2793.483	5090
2795.362	5165
2797.241	5155
2799.121	5020
2800.997	5017
2802.874	5158
2804.751	5001
2806.628	5053
2808.506	5083
2810.38	5064
2812.255	5170
2814.13	5082
2816.003	5181
2817.878	5031
2819.752	5033
2821.623	5141
2823.496	5032
2825.368	5136
2827.238	5166
2829.111	5119
2830.98	5082
2832.851	5121
2834.719	5167
2836.589	5153
2838.458	5105
2840.327	5192
2842.193	5165
2844.061	5113
2845.927	5121
2847.794	4978
2849.66	5277
2851.525	5251
2853.39	5224
2855.254	5119
2857.117	5212
2858.983	5212
2860.845	5256
2862.707	5237
2864.569	5322
2866.431	5380
2868.293	5373
2870.154	5452
2872.013	5330
2873.873	5471
2875.733	5520
2877.592	5599
2879.451	5641
2881.309	5771
2883.166	5681
2885.022	5724
2886.879	5832
2888.736	5787
2890.591	5819
2892.446	5828
2894.301	5784
2896.155	5811
2898.009	5719
2899.863	5750
2901.716	5752
2903.568	5784
2905.419	5636
2907.27	5758
2909.123	5809
2910.973	5764
2912.824	5767
2914.673	5908
2916.521	6019
2918.372	6019
2920.22	6095
2922.067	6157
2923.914	6233
2925.761	6214
2927.607	6392
2929.455	6398
2931.301	6386
2933.144	6522
2934.99	6521
2936.833	6634
2938.678	6616
2940.522	6641
2942.364	6784
2944.207	6776
2946.048	6828
2947.891	6905
2949.731	6869
2951.571	6868
2953.412	6891
2955.25	6698
2957.09	6670
2958.93	6697
2960.767	6566
2962.606	6442
2964.443	6432
2966.279	6421
2968.116	6104
2969.953	6131
2971.788	6124
2973.623	6068
2975.457	6105
2977.292	5903
2979.127	5983
2980.959	6022
2982.792	5848
2984.624	5888
2986.455	5863
2988.288	5987
2990.119	5883
2991.949	5840
2993.779	5782
2995.608	5731
2997.439	5698
2999.268	5622
3001.096	5485
3002.923	5477
3004.751	5433
3006.578	5334
3008.406	5311
3010.232	5178
3012.057	5278
3013.883	5139
3015.706	5150
3017.532	5088
3019.356	5062
3021.179	5069
3023.002	5021
3024.823	5054
3026.646	4981
3028.469	5006
3030.289	5048
3032.11	5025
3033.93	4935
3035.749	4933
3037.57	4779
3039.39	4874
3041.207	4962
3043.026	4899
3044.842	4947
3046.661	4943
3048.477	5007
3050.294	4882
3052.109	4941
3053.925	4869
3055.739	4856
3057.555	4991
3059.368	4874
3061.181	4982
3062.995	4766
3064.807	4851
3066.62	4895
3068.433	4898
3070.243	4921
3072.054	4813
3073.865	4835
3075.675	4843
3077.485	4827
3079.293	4820
3081.102	4776
3082.911	4763
3084.719	4770
3086.527	4913
3088.333	4766
3090.139	4844
3091.945	4813
3093.75	4755
3095.557	4688
3097.361	4744
3099.165	4768
3100.969	4826
3102.772	4767
3104.575	4690
3106.379	4671
3108.181	4661
3109.982	4659
3111.783	4694
3113.584	4639
3115.386	4760
3117.186	4625
3118.985	4630
3120.783	4669
3122.582	4630
3124.381	4603
3126.179	4603
3127.975	4759
3129.772	4638
3131.569	4659
3133.365	4691
3135.161	4683
3136.956	4605
3138.751	4633
3140.544	4497
3142.338	4694
3144.132	4684
3145.925	4613
3147.717	4644
3149.509	4573
3151.301	4709
3153.091	4520
3154.884	4594
3156.673	4568
3158.462	4602
3160.252	4551
3162.041	4583
3163.831	4650
3165.618	4586
3167.405	4567
3169.193	4681
3170.979	4599
3172.767	4571
3174.553	4532
3176.338	4628
3178.123	4647
3179.907	4557
3181.692	4627
3183.477	4634
3185.259	4557
3187.042	4619
3188.824	4492
3190.607	4579
3192.389	4514
3194.17	4612
3195.951	4549
3197.73	4556
3199.51	4552
3201.289	4466
3203.07	4590
3204.848	4551
3206.626	4504
3208.403	4583
3210.18	4469
3211.959	4517
3213.735	4617
3215.511	4531
3217.285	4570
3219.06	4528
3220.836	4526
3222.611	4551
3224.384	4596
3226.158	4526
3227.929	4472
3229.702	4574
3231.476	4609
3233.248	4533
3235.018	4530
3236.789	4519
3238.56	4580
3240.33	4550
3242.1	4554
3243.869	4600
3245.637	4559
3247.405	4584
3249.172	4485
3250.941	4538
3252.707	4561
3254.474	4546
3256.24	4453
3258.006	4590
3259.772	4523
3261.537	4538
3263.301	4539
3265.065	4522
3266.828	4602
3268.592	4603
3270.355	4512
3272.117	4474
3273.878	4609
3275.64	4570
3277.401	4561
3279.162	4548
3280.922	4530
3282.682	4560
3284.441	4603
3286.199	4561
3287.959	4524
3289.716	4551
3291.475	4615
3293.232	4710
3294.988	4671
3296.744	4557
3298.501	4570
3300.256	4586
3302.011	4583
3303.766	4557
3305.52	4565
3307.275	4664
3309.028	4558
3310.781	4609
3312.533	4586
3314.285	4551
3316.038	4431
3317.789	4575
3319.54	4511
3321.289	4594
3323.039	4558
3324.789	4563
3326.539	4534
3328.288	4456
3330.035	4635
3331.783	4543
3333.531	4517
3335.28	4524
3337.025	4508
3338.771	4539
3340.518	4457
3342.262	4454
3344.009	4509
3345.753	4565
3347.497	4485
3349.24	4522
3350.983	4468
3352.726	4458
3354.469	4552
3356.212	4427
3357.952	4408
3359.694	4435
3361.434	4531
3363.176	4485
3364.916	4536
3366.654	4440
3368.394	4438
3370.132	4461
3371.871	4390
3373.61	4458
3375.346	4478
3377.083	4427
3378.82	4448
3380.556	4496
3382.292	4398
3384.027	4470
3385.763	4379
3387.497	4471
3389.231	4406
3390.965	4420
3392.698	4351
3394.431	4358
3396.164	4412
3397.896	4435
3399.627	4461
3401.36	4366
3403.09	4407
3404.82	4433
3406.55	4401
3408.279	4314
3410.01	4295
3411.738	4390
3413.467	4315
3415.194	4322
3416.92	4253
3418.647	4328
3420.375	4348
3422.102	4424
3423.827	4342
3425.553	4244
3427.277	4349
3429.003	4296
3430.727	4320
3432.451	4248
3434.173	4369
3435.896	4205
3437.62	4390
3439.343	4255
3441.063	4338
3442.785	4260
3444.505	4235
3446.226	4220
3447.948	4269
3449.666	4185
3451.386	4280
3453.104	4207
3454.823	4219
3456.541	4134
3458.259	4115
3459.976	4167
3461.693	4108
3463.408	4268
3465.125	4134
3466.841	4105
3468.556	4202
3470.271	4100
3471.985	4126
3473.698	4116
3475.414	4192
3477.126	4202
3478.838	4144
3480.55	4083
3482.263	4118
3483.975	4169
3485.686	4038
3487.396	4033
3489.106	4082
3490.817	4110
3492.526	4030
3494.236	4020
3495.944	4087
3497.652	4068
3499.359	3937
3501.066	4084
3502.775	4001
3504.481	3968
3506.187	3983
3507.893	4028
3509.598	4039
3511.304	3913
3513.009	4004
3514.713	4007
3516.417	3942
3518.12	4060
3519.821	3999
3521.525	3924
3523.228	3967
3524.929	4011
3526.631	3906
3528.33	3944
3530.032	3931
3531.733	3905
3533.433	3898
3535.131	3941
3536.83	3903
3538.529	3866
3540.227	3908
3541.925	3952
3543.623	3907
3545.319	3907
3547.016	3890
3548.712	3904
3550.408	3842
3552.103	3848
3553.798	3860
3555.491	3891
3557.188	3906
3558.88	3837
3560.574	3796
3562.266	3933
3563.959	3834
3565.651	3891
3567.343	3837
3569.035	3841
3570.725	3843
3572.415	3817
3574.106	3927
3575.797	3876
3577.485	3845
3579.174	3734
3580.863	3796
3582.551	3765
3584.238	3776
3585.926	3794
3587.613	3705
3589.3	3764
3590.986	3684
3592.671	3734
3594.357	3728
3596.042	3760
3597.726	3769
3599.41	3718
3601.094	3673
3602.778	3685
3604.461	3692
3606.143	3682
3607.825	3631
3609.507	3718
3611.188	3691
3612.87	3713
3614.551	3704
3616.229	3576
3617.909	3661
3619.589	3644
3621.269	3639
3622.948	3540
3624.625	3565
3626.302	3632
3627.98	3615
3629.657	3639
3631.334	3559
3633.01	3548
3634.686	3615
3636.361	3554
3638.036	3557
3639.712	3568
3641.385	3528
3643.06	3515
3644.732	3526
3646.405	3523
3648.08	3530
3649.751	3477
3651.424	3542
3653.094	3448
3654.766	3542
3656.436	3529
3658.106	3383
3659.777	3489
3661.446	3528
3663.115	3479
3664.783	3426
3666.452	3483
3668.121	3443
3669.788	3469
3671.454	3467
3673.121	3477
3674.789	3450
3676.455	3502
3678.12	3438
3679.784	3521
3681.45	3495
3683.114	3387
3684.779	3457
3686.442	3403
3688.105	3451
3689.768	3462
3691.43	3457
3693.093	3400
3694.754	3454
3696.415	3537
3698.076	3405
3699.736	3424
3701.396	3536
3703.057	3409
3704.716	3402
3706.375	3535
3708.034	3430
3709.692	3375
3711.351	3391
3713.008	3306
3714.665	3476
3716.321	3346
3717.977	3375
3719.634	3388
3721.29	3443
3722.945	3353
3724.598	3367
3726.253	3348
3727.907	3378
3729.561	3381
3731.214	3397
3732.867	3368
3734.518	3391
3736.171	3334
3737.824	3356
3739.474	3329
3741.125	3323
3742.775	3346
3744.425	3287
3746.074	3397
3747.725	3240
3749.373	3224
3751.022	3300
3752.669	3265
3754.318	3249
3755.966	3226
3757.612	3276
3759.259	3377
3760.905	3250
3762.55	3291
3764.197	3225
3765.842	3217
3767.486	3276
3769.131	3235
3770.774	3165
3772.417	3213
3774.061	3222
3775.705	3317
3777.347	3283
3778.988	3226
3780.629	3256
3782.271	3277
3783.912	3234
3785.552	3252
3787.192	3309
3788.831	3264
3790.472	3265
3792.112	3217
3793.75	3279
3795.388	3185
3797.024	3284
3798.661	3186
3800.3	3197
3801.936	3217
3803.572	3258
3805.208	3222
3806.844	3189
3808.48	3244
3810.115	3214
3811.748	3244
3813.382	3229
3815.016	3175
3816.649	3230
3818.283	3140
3819.914	3233
3821.547	3195
3823.178	3209
3824.809	3184
3826.441	3121
3828.072	3100
3829.701	3153
3831.331	3225
3832.96	3098
3834.591	3111
3836.219	3262
3837.847	3078
3839.475	3175
3841.102	3207
3842.729	3131
3844.357	3234
3845.984	3158
3847.609	3131
3849.234	3193
3850.86	3131
3852.485	3104
3854.11	3062
3855.734	3134
3857.357	3052
3858.981	3089
3860.603	3052
3862.227	3126
3863.848	3140
3865.471	3090
3867.092	3125
3868.713	3054
3870.334	3059
3871.954	3084
3873.575	3050
3875.194	3127
3876.813	3022
3878.433	3047
3880.051	3088
3881.669	2981
3883.286	3097
3884.904	3053
3886.52	3077
3888.138	3092
3889.754	3068
3891.37	3092
3892.985	3043
3894.6	3113
3896.216	3080
3897.831	3050
3899.444	3017
3901.058	3105
3902.67	3037
3904.283	2915
3905.897	3014
3907.509	2992
3909.121	3006
3910.731	3059
3912.342	2988
3913.954	3039
3915.563	3019
3917.174	2936
3918.783	3018
3920.391	3064
3922.002	2999
3923.611	2965
3925.218	2965
3926.826	2997
3928.432	3030
3930.039	3026
3931.647	3005
3933.253	2978
3934.859	3025
3936.464	3030
3938.068	2928
3939.675	2991
3941.278	3030
3942.883	2883
3944.486	2937
3946.089	2959
3947.692	3010
3949.295	3015
3950.898	2879
3952.499	2908
3954.1	3013
3955.7	3021
3957.303	2925
3958.903	2844
3960.502	2972
3962.101	2911
3963.7	2872
3965.301	2931
3966.899	2973
3968.497	2952
3970.094	2978
3971.691	2935
3973.288	2901
3974.885	2867
3976.481	2927
3978.077	2836
3979.672	2846
3981.267	2920
3982.863	2916
3984.457	2946
3986.051	2838
3987.645	2871
3989.238	2866
3990.831	2857
3992.425	2895
3994.017	2905
3995.607	2944
3997.199	2890
3998.79	2841
4000.382	2888
4001.973	2811
4003.561	2890
4005.151	2828
4006.741	2882
4008.331	2962
4009.918	2821
4011.507	2887
4013.095	2811
4014.681	2760
4016.269	2794
4017.856	2796
4019.443	2816
4021.028	2828
4022.614	2735
4024.199	2834
4025.785	2788
4027.37	2758
4028.953	2835
4030.536	2749
4032.12	2747
4033.704	2779
4035.287	2835
4036.869	2815
4038.45	2771
4040.032	2741
4041.613	2681
4043.195	2745
4044.776	2757
4046.356	2704
4047.935	2762
4049.515	2795
4051.095	2766
4052.674	2762
4054.251	2789
4055.829	2722
4057.406	2782
4058.985	2753
4060.562	2675
4062.139	2705
4063.715	2672
4065.29	2821
4066.865	2713
4068.442	2791
4070.016	2741
4071.59	2758
4073.164	2622
4074.738	2799
4076.312	2730
4077.885	2676
4079.458	2772
4081.03	2745
4082.602	2664
4084.173	2740
4085.745	2704
4087.315	2668
4088.886	2665
4090.456	2661
4092.026	2690
4093.596	2708
4095.165	2739
4096.734	2740
4098.301	2740
4099.869	2634
4101.437	2701
4103.006	2757
4104.572	2692
4106.139	2675
4107.704	2700
4109.27	2644
4110.837	2668
4112.401	2669
4113.966	2672
4115.53	2662
4117.094	2636
4118.659	2640
4120.223	2591
4121.785	2600
4123.347	2617
4124.909	2632
4126.471	2609
4128.034	2564
4129.595	2626
4131.155	2668
4132.716	2608
4134.275	2627
4135.836	2606
4137.395	2602
4138.955	2566
4140.513	2568
4142.071	2579
4143.628	2571
4145.188	2585
4146.745	2631
4148.302	2624
4149.858	2548
4151.414	2566
4152.971	2582
4154.526	2592
4156.081	2581
4157.635	2618
4159.189	2555
4160.745	2585
4162.298	2561
4163.852	2552
4165.405	2529
4166.957	2487
4168.51	2555
4170.063	2527
4171.614	2605
4173.166	2553
4174.717	2511
4176.267	2548
4177.817	2540
4179.368	2455
4180.917	2495
4182.466	2507
4184.016	2477
4185.564	2535
4187.112	2477
4188.66	2542
4190.207	2509
4191.754	2482
4193.301	2500
4194.848	2554
4196.394	2477
4197.94	2464
4199.484	2475
4201.03	2445
4202.575	2431
4204.12	2489
4205.663	2470
4207.207	2473
4208.75	2510
4210.292	2449
4211.836	2413
4213.378	2472
4214.92	2454
4216.46	2455
4218.002	2458
4219.544	2427
4221.083	2464
4222.625	2430
4224.164	2509
4225.703	2461
4227.244	2447
4228.782	2510
4230.32	2453
4231.857	2370
4233.395	2434
4234.933	2447
4236.471	2445
4238.007	2428
4239.542	2418
4241.078	2360
4242.614	2416
4244.15	2381
4245.685	2417
4247.219	2469
4248.753	2406
4250.287	2421
4251.82	2521
4253.354	2406
4254.887	2371
4256.419	2467
4257.951	2401
4259.483	2476
4261.016	2423
4262.547	2380
4264.078	2445
4265.608	2421
4267.137	2447
4268.668	2428
4270.197	2356
4271.727	2357
4273.254	2417
4274.783	2435
4276.311	2419
4277.84	2418
4279.366	2380
4280.894	2432
4282.42	2311
4283.946	2368
4285.473	2279
4286.998	2359
4288.523	2394
4290.047	2430
4291.572	2315
4293.096	2380
4294.622	2383
4296.144	2375
4297.668	2325
4299.19	2362
4300.713	2293
4302.236	2316
4303.758	2338
4305.279	2363
4306.799	2374
4308.321	2372
4309.842	2381
4311.361	2281
4312.882	2289
4314.401	2269
