400.0961	3982
402.6185	4072
405.1424	4041
407.6635	3970
410.1838	4050
412.7035	4019
415.2225	4049
417.7388	4097
420.2585	4005
422.7754	4117
425.2917	4155
427.8072	4181
430.3221	4250
432.8363	4182
435.3498	4211
437.8626	4294
440.3727	4304
442.8841	4240
445.3969	4228
447.907	4281
450.4142	4292
452.9229	4320
455.4289	4256
457.9362	4270
460.4449	4271
462.9488	4274
465.454	4326
467.9566	4284
470.4604	4221
472.9637	4289
475.4662	4318
477.966	4332
480.4671	4274
482.9656	4335
485.4633	4298
487.9645	4313
490.4608	4333
492.9566	4398
495.4536	4355
497.948	4409
500.4437	4404
502.9387	4347
505.431	4451
507.9226	4491
510.4136	4445
512.9079	4485
515.3975	4412
517.8864	4480
520.3746	4502
522.8622	4418
525.3491	4387
527.8394	4362
530.3249	4443
532.8098	4399
535.2939	4444
537.7774	4426
540.2623	4525
542.7444	4456
545.2259	4506
547.7067	4450
550.1868	4431
552.6683	4440
555.147	4499
557.6231	4539
560.1005	4428
562.5773	4581
565.0534	4551
567.5308	4608
570.0056	4589
572.4776	4557
574.951	4558
577.4237	4651
579.8978	4605
582.3671	4654
584.8378	4592
587.3079	4657
589.7773	4749
592.244	4596
594.714	4649
597.1793	4703
599.6461	4641
602.1121	4641
604.5754	4610
607.0421	4752
609.5042	4684
611.9675	4640
614.4282	4627
616.8902	4716
619.3515	4666
621.8122	4629
624.2702	4641
626.7296	4677
629.1863	4697
631.6423	4567
634.1017	4656
636.5563	4630
639.0104	4643
641.4658	4660
643.9185	4719
646.3725	4616
648.8239	4708
651.2766	4769
653.7266	4653
656.176	4754
658.6247	4637
661.0748	4684
663.5242	4742
665.9709	4776
668.417	4775
670.8624	4603
673.3092	4787
675.7533	4758
678.1968	4836
680.6395	4805
683.0817	4773
685.5251	4864
687.9659	4725
690.4061	4858
692.8456	4841
695.2844	4816
697.7226	4870
700.1621	4838
702.599	4766
705.0332	4865
707.4688	4852
709.9036	4833
712.3399	4948
714.7735	4884
717.2044	5022
719.6367	4969
722.0683	4927
724.4993	4998
726.9296	5000
729.3593	4916
731.7883	4879
734.2147	4981
736.6423	4958
739.0714	4988
741.4958	5054
743.9216	4982
746.3447	5005
748.7691	4999
751.1929	5033
753.616	5068
756.0366	5082
758.4584	5142
760.8776	5065
763.2982	5135
765.718	5155
768.1373	5140
770.5539	5051
772.9698	5178
775.3871	5215
777.8038	5168
780.2178	5162
782.6332	5186
785.0459	5120
787.458	5122
789.8714	5198
792.2842	5144
794.6943	5188
797.1038	5149
799.5127	5195
801.9209	5240
804.3324	5140
806.7393	5143
809.1456	5195
811.5513	5249
813.9562	5188
816.3625	5302
818.7663	5242
821.1693	5256
823.5718	5299
825.9735	5248
828.3746	5169
830.7771	5190
833.177	5395
835.5762	5326
837.9747	5247
840.3727	5266
842.772	5288
845.1666	5385
847.5626	5357
849.958	5305
852.3527	5429
854.7488	5428
857.1403	5429
859.5331	5321
861.9253	5275
864.3168	5344
866.7057	5418
869.098	5363
871.4876	5326
873.8746	5276
876.263	5320
878.6487	5356
881.0378	5265
883.4243	5350
885.8081	5364
888.1933	5322
890.5759	5241
892.9598	5358
895.343	5308
897.7256	5346
900.1057	5334
902.4871	5340
904.8659	5376
907.246	5302
909.6254	5554
912.0023	5409
914.3786	5497
916.7562	5437
919.1331	5492
921.5074	5518
923.8831	5647
926.2562	5583
928.6287	5607
931.0005	5515
933.3757	5609
935.7462	5675
938.1162	5631
940.4855	5641
942.8542	5629
945.2242	5718
947.5916	5774
949.9584	5830
952.3266	5917
954.6921	5924
957.0571	6112
959.4233	6164
961.787	6307
964.15	6167
966.5125	6124
968.8742	6026
971.2354	5900
973.5959	5809
975.9559	5706
978.3151	5669
980.6738	5666
983.0338	5498
985.3912	5615
987.7461	5583
990.1022	5482
992.4578	5506
994.8127	5553
997.1689	5487
999.5207	5448
1001.874	5640
1004.226	5543
1006.576	5580
1008.929	5584
1011.28	5548
1013.628	5515
1015.977	5599
1018.324	5609
1020.674	5555
1023.019	5451
1025.366	5680
1027.713	5540
1030.056	5603
1032.399	5556
1034.746	5665
1037.087	5693
1039.431	5598
1041.771	5592
1044.113	5662
1046.454	5680
1048.793	5684
1051.133	5697
1053.471	5642
1055.807	5662
1058.146	5718
1060.483	5758
1062.818	5648
1065.153	5672
1067.489	5606
1069.822	5746
1072.156	5729
1074.488	5716
1076.82	5813
1079.15	5754
1081.48	5783
1083.814	5634
1086.143	5646
1088.471	5649
1090.799	5609
1093.126	5618
1095.452	5611
1097.78	5702
1100.105	5677
1102.43	5744
1104.754	5689
1107.077	5641
1109.4	5726
1111.722	5700
1114.044	5818
1116.365	5712
1118.685	5687
1121.005	5776
1123.324	5723
1125.643	5772
1127.961	5744
1130.278	5722
1132.595	5690
1134.911	5698
1137.226	5696
1139.541	5701
1141.854	5741
1144.167	5742
1146.482	5828
1148.793	5772
1151.105	5864
1153.414	5705
1155.725	5679
1158.033	5755
1160.344	5629
1162.651	5854
1164.959	5835
1167.265	5757
1169.572	5691
1171.878	5732
1174.184	5851
1176.488	5695
1178.79	5850
1181.094	5787
1183.396	5810
1185.699	5820
1188.001	5778
1190.301	5718
1192.6	5757
1194.9	5712
1197.2	5742
1199.497	5807
1201.794	5827
1204.09	5853
1206.387	5725
1208.684	5734
1210.978	5858
1213.272	5808
1215.565	5814
1217.858	5826
1220.15	5897
1222.443	5723
1224.734	5896
1227.024	5836
1229.313	5999
1231.602	5932
1233.892	5958
1236.18	5971
1238.467	5850
1240.754	5956
1243.04	5907
1245.325	5855
1247.612	5969
1249.896	5956
1252.178	6003
1254.461	5963
1256.743	6034
1259.027	6012
1261.308	5944
1263.587	6096
1265.867	6073
1268.146	6062
1270.425	6116
1272.703	6019
1274.981	5957
1277.256	6026
1279.532	5914
1281.808	6041
1284.083	6004
1286.358	6023
1288.63	5925
1290.904	6065
1293.175	6042
1295.449	5934
1297.719	5883
1299.99	5972
1302.259	5812
1304.529	5902
1306.798	6006
1309.065	5858
1311.333	5923
1313.599	6010
1315.866	5975
1318.131	6012
1320.396	5863
1322.66	5902
1324.925	5965
1327.187	5996
1329.448	6014
1331.711	5966
1333.974	6026
1336.234	5976
1338.493	5997
1340.752	5942
1343.01	5984
1345.269	5972
1347.526	5939
1349.784	5947
1352.04	5964
1354.295	5927
1356.552	5956
1358.806	5926
1361.059	6005
1363.312	5861
1365.564	6114
1367.818	5908
1370.069	5958
1372.318	6003
1374.568	5919
1376.817	6110
1379.066	6043
1381.316	5948
1383.564	6054
1385.809	6047
1388.056	6078
1390.301	6055
1392.549	6044
1394.793	6168
1397.036	6144
1399.279	6201
1401.522	6218
1403.763	6013
1406.007	6187
1408.248	6202
1410.487	6172
1412.727	6125
1414.965	6106
1417.205	6194
1419.442	6189
1421.68	6161
1423.915	6189
1426.152	6106
1428.388	6219
1430.623	6099
1432.857	6208
1435.091	6133
1437.323	6174
1439.556	6253
1441.789	6338
1444.019	6129
1446.25	6192
1448.48	6255
1450.708	6329
1452.938	6198
1455.167	6271
1457.394	6292
1459.62	6304
1461.846	6311
1464.073	6250
1466.299	6352
1468.523	6220
1470.746	6284
1472.969	6123
1475.191	6041
1477.415	6106
1479.636	6262
1481.858	6068
1484.078	6045
1486.298	6096
1488.518	5978
1490.736	5990
1492.954	6078
1495.169	6021
1497.386	6114
1499.602	5998
1501.819	6022
1504.034	5841
1506.248	6036
1508.462	6015
1510.675	5977
1512.888	5934
1515.1	5979
1517.311	5991
1519.522	6095
1521.732	5976
1523.942	6095
1526.151	6014
1528.36	6098
1530.566	6000
1532.773	6036
1534.98	6115
1537.187	5972
1539.392	6086
1541.596	6005
1543.801	6098
1546.005	6054
1548.208	6045
1550.411	6067
1552.612	6006
1554.814	6158
1557.013	6125
1559.212	6111
1561.414	6090
1563.612	6112
1565.811	6165
1568.007	6193
1570.203	6229
1572.403	6251
1574.598	6175
1576.792	6174
1578.988	6110
1581.181	6259
1583.376	6192
1585.568	6204
1587.761	6240
1589.952	6235
1592.143	6157
1594.333	6163
1596.524	6362
1598.715	6164
1600.903	6320
1603.091	6295
1605.278	6193
1607.466	6255
1609.652	6250
1611.838	6230
1614.023	6185
1616.207	6323
1618.391	6339
1620.576	6210
1622.759	6305
1624.941	6292
1627.123	6257
1629.304	6342
1631.484	6289
1633.664	6329
1635.844	6315
1638.022	6291
1640.201	6328
1642.38	6296
1644.556	6342
1646.732	6296
1648.908	6244
1651.084	6265
1653.257	6191
1655.433	6502
1657.607	6204
1659.779	6405
1661.951	6300
1664.122	6336
1666.295	6307
1668.467	6415
1670.635	6464
1672.805	6417
1674.973	6252
1677.142	6461
1679.31	6366
1681.478	6186
1683.644	6333
1685.81	6329
1687.975	6498
1690.142	6333
1692.305	6415
1694.468	6303
1696.632	6336
1698.794	6336
1700.957	6263
1703.119	6368
1705.279	6367
1707.439	6235
1709.598	6342
1711.758	6255
1713.917	6211
1716.075	6327
1718.231	6360
1720.388	6390
1722.543	6315
1724.702	6262
1726.856	6239
1729.01	6275
1731.164	6369
1733.317	6214
1735.471	6271
1737.623	6304
1739.774	6347
1741.925	6308
1744.075	6288
1746.225	6242
1748.376	6209
1750.524	6253
1752.672	6332
1754.82	6237
1756.965	6419
1759.113	6256
1761.259	6462
1763.405	6274
1765.549	6406
1767.694	6356
1769.836	6369
1771.981	6227
1774.123	6481
1776.264	6382
1778.405	6323
1780.546	6364
1782.687	6412
1784.827	6354
1786.966	6332
1789.103	6408
1791.242	6445
1793.381	6443
1795.517	6492
1797.653	6285
1799.788	6267
1801.923	6324
1804.057	6443
1806.193	6464
1808.326	6457
1810.457	6357
1812.59	6388
1814.721	6352
1816.855	6251
1818.984	6544
1821.113	6394
1823.244	6329
1825.372	6308
1827.499	6472
1829.63	6388
1831.756	6338
1833.882	6518
1836.007	6397
1838.132	6279
1840.26	6371
1842.384	6274
1844.507	6368
1846.63	6358
1848.752	6436
1850.875	6356
1852.996	6390
1855.118	6395
1857.238	6372
1859.358	6278
1861.477	6326
1863.597	6385
1865.715	6342
1867.832	6423
1869.948	6225
1872.064	6418
1874.181	6365
1876.297	6436
1878.411	6409
1880.526	6388
1882.639	6472
1884.752	6453
1886.865	6487
1888.977	6168
1891.089	6441
1893.2	6353
1895.308	6368
1897.42	6351
1899.53	6384
1901.639	6540
1903.745	6360
1905.853	6407
1907.962	6552
1910.067	6529
1912.174	6461
1914.278	6498
1916.383	6374
1918.486	6489
1920.592	6481
1922.694	6418
1924.797	6454
1926.898	6624
1929	6580
1931.102	6501
1933.203	6578
1935.301	6477
1937.401	6426
1939.499	6581
1941.598	6484
1943.697	6628
1945.793	6476
1947.888	6415
1949.985	6594
1952.08	6495
1954.176	6519
1956.269	6570
1958.364	6657
1960.457	6540
1962.549	6446
1964.642	6555
1966.733	6634
1968.823	6517
1970.913	6537
1973.005	6562
1975.093	6531
1977.184	6452
1979.271	6495
1981.359	6494
1983.446	6496
1985.532	6593
1987.619	6581
1989.705	6444
1991.789	6465
1993.874	6440
1995.956	6507
1998.041	6505
2000.123	6388
2002.206	6574
2004.287	6603
2006.368	6518
2008.449	6410
2010.529	6317
2012.609	6432
2014.688	6437
2016.766	6455
2018.843	6508
2020.922	6491
2022.999	6472
2025.074	6446
2027.15	6530
2029.225	6459
2031.299	6490
2033.375	6471
2035.447	6510
2037.52	6578
2039.592	6537
2041.664	6582
2043.736	6560
2045.807	6497
2047.876	6554
2049.947	6454
2052.015	6534
2054.086	6407
2056.153	6526
2058.221	6552
2060.288	6726
2062.353	6616
2064.42	6442
2066.486	6480
2068.55	6570
2070.614	6539
2072.678	6647
2074.741	6604
2076.805	6586
2078.866	6617
2080.929	6460
2082.99	6678
2085.049	6580
2087.109	6532
2089.17	6632
2091.228	6580
2093.286	6555
2095.344	6634
2097.4	6597
2099.46	6627
2101.516	6610
2103.572	6586
2105.626	6616
2107.679	6542
2109.735	6644
2111.788	6666
2113.841	6681
2115.894	6750
2117.945	6658
2119.997	6515
2122.049	6506
2124.1	6445
2126.148	6730
2128.197	6580
2130.246	6589
2132.296	6512
2134.342	6716
2136.39	6630
2138.437	6662
2140.483	6605
2142.527	6576
2144.574	6678
2146.619	6543
2148.661	6623
2150.705	6593
2152.747	6667
2154.792	6572
2156.832	6595
2158.874	6582
2160.915	6607
2162.954	6601
2164.995	6628
2167.034	6569
2169.072	6558
2171.111	6680
2173.148	6568
2175.186	6645
2177.223	6573
2179.258	6584
2181.294	6670
2183.328	6627
2185.362	6531
2187.398	6381
2189.431	6526
2191.463	6495
2193.495	6580
2195.528	6700
2197.56	6521
2199.59	6652
2201.62	6513
2203.649	6559
2205.678	6594
2207.708	6516
2209.737	6600
2211.764	6493
2213.791	6596
2215.817	6608
2217.843	6575
2219.87	6636
2221.895	6607
2223.919	6476
2225.942	6522
2227.966	6550
2229.988	6651
2232.012	6449
2234.032	6602
2236.054	6498
2238.074	6603
2240.095	6476
2242.116	6611
2244.135	6526
2246.153	6649
2248.171	6509
2250.188	6571
2252.208	6638
2254.223	6643
2256.239	6551
2258.255	6543
2260.269	6611
2262.283	6642
2264.3	6574
2266.312	6612
2268.325	6646
2270.336	6587
2272.349	6589
2274.362	6594
2276.372	6672
2278.383	6663
2280.392	6735
2282.402	6681
2284.409	6565
2286.418	6601
2288.427	6714
2290.433	6683
2292.441	6684
2294.446	6582
2296.453	6605
2298.459	6689
2300.463	6661
2302.466	6664
2304.471	6593
2306.475	6780
2308.477	6672
2310.478	6619
2312.481	6672
2314.481	6674
2316.481	6608
2318.482	6584
2320.482	6758
2322.48	6744
2324.48	6713
2326.478	6682
2328.476	6601
2330.473	6711
2332.469	6694
2334.465	6747
2336.46	6695
2338.454	6583
2340.45	6620
2342.444	6676
2344.437	6670
2346.43	6728
2348.421	6628
2350.414	6626
2352.405	6661
2354.396	6725
2356.386	6788
2358.376	6783
2360.366	6604
2362.355	6717
2364.343	6599
2366.331	6693
2368.317	6611
2370.304	6585
2372.292	6783
2374.278	6596
2376.262	6827
2378.247	6830
2380.23	6628
2382.216	6666
2384.199	6716
2386.181	6614
2388.163	6742
2390.144	6718
2392.127	6809
2394.107	6657
2396.087	6625
2398.066	6701
2400.046	6707
2402.023	6659
2404.004	6702
2405.981	6717
2407.957	6760
2409.934	6723
2411.91	6649
2413.886	6709
2415.862	6618
2417.836	6515
2419.809	6715
2421.784	6694
2423.756	6808
2425.73	6708
2427.701	6735
2429.672	6702
2431.644	6650
2433.615	6844
2435.586	6686
2437.555	6818
2439.523	6764
2441.491	6795
2443.459	6786
2445.428	6743
2447.395	6763
2449.361	6812
2451.327	6827
2453.292	6777
2455.257	6742
2457.223	6921
2459.187	6701
2461.15	6691
2463.113	6710
2465.076	6838
2467.039	6830
2468.999	6821
2470.96	6785
2472.921	6835
2474.881	6745
2476.841	6653
2478.8	6857
2480.759	6945
2482.717	6852
2484.675	6887
2486.63	6834
2488.589	6732
2490.545	6876
2492.5	6848
2494.455	6824
2496.408	6803
2498.364	6828
2500.318	6848
2502.27	6814
2504.223	6910
2506.174	6870
2508.126	6798
2510.078	6970
2512.03	6863
2513.979	6907
2515.927	6877
2517.877	6953
2519.826	6925
2521.775	6998
2523.722	6929
2525.668	6881
2527.616	6807
2529.561	6964
2531.508	6973
2533.452	6852
2535.398	6928
2537.342	6873
2539.284	6997
2541.229	7029
2543.173	6940
2545.114	6859
2547.055	7029
2548.996	6952
2550.938	6898
2552.878	6898
2554.817	6975
2556.756	6932
2558.695	7041
2560.633	7004
2562.572	6933
2564.509	7044
2566.445	6947
2568.382	7055
2570.317	7025
2572.254	7089
2574.189	7054
2576.123	7012
2578.057	7054
2579.99	7016
2581.923	7091
2583.855	7094
2585.788	7083
2587.719	6972
2589.65	7118
2591.579	7096
2593.511	7108
2595.44	7137
2597.37	7044
2599.297	7251
2601.225	7123
2603.153	7174
2605.08	7178
2607.007	7283
2608.932	7199
2610.858	7312
2612.782	7092
2614.709	7246
2616.632	7157
2618.556	7191
2620.478	7229
2622.401	7262
2624.324	7209
2626.247	7266
2628.167	7316
2630.088	7241
2632.008	7310
2633.928	7294
2635.848	7304
2637.766	7302
2639.684	7435
2641.603	7272
2643.519	7340
2645.437	7434
2647.353	7408
2649.27	7198
2651.184	7431
2653.099	7338
2655.014	7458
2656.928	7396
2658.842	7536
2660.755	7347
2662.667	7407
2664.579	7330
2666.491	7357
2668.402	7504
2670.312	7410
2672.222	7441
2674.132	7418
2676.042	7508
2677.951	7326
2679.859	7405
2681.766	7520
2683.674	7472
2685.582	7429
2687.488	7474
2689.392	7356
2691.298	7386
2693.202	7421
2695.107	7468
2697.012	7481
2698.914	7500
2700.817	7549
2702.72	7488
2704.622	7427
2706.524	7593
2708.425	7551
2710.326	7568
2712.225	7539
2714.125	7296
2716.024	7741
2717.923	7488
2719.822	7602
2721.719	7486
2723.616	7670
2725.512	7577
2727.41	7547
2729.305	7638
2731.201	7470
2733.095	7668
2734.99	7720
2736.884	7638
2738.778	7602
2740.67	7644
2742.562	7743
2744.455	7584
2746.346	7674
2748.238	7657
2750.129	7702
2752.018	7723
2753.907	7789
2755.797	7695
2757.687	7726
2759.575	7661
2761.462	7757
2763.349	7696
2765.237	7746
2767.124	7730
2769.009	7770
2770.894	7715
2772.779	7659
2774.663	7833
2776.547	7790
2778.431	7745
2780.314	7790
2782.197	7805
2784.078	7935
2785.96	7756
2787.842	7843
2789.723	7918
2791.603	7770
2793.483	7833
2795.362	7863
2797.241	7912
2799.121	7910
2800.997	7943
2802.874	7967
2804.751	7895
2806.628	7864
2808.506	7974
2810.38	7994
2812.255	7938
2814.13	7983
2816.003	7943
2817.878	8024
2819.752	7965
2821.623	8014
2823.496	7882
2825.368	8035
2827.238	8024
2829.111	7962
2830.98	7985
2832.851	8216
2834.719	8038
2836.589	8181
2838.458	8144
2840.327	8091
2842.193	8198
2844.061	8063
2845.927	8188
2847.794	8267
2849.66	8178
2851.525	8094
2853.39	8212
2855.254	8281
2857.117	8252
2858.983	8277
2860.845	8333
2862.707	8292
2864.569	8394
2866.431	8384
2868.293	8358
2870.154	8495
2872.013	8457
2873.873	8479
2875.733	8604
2877.592	8551
2879.451	8782
2881.309	8584
2883.166	8700
2885.022	8694
2886.879	8667
2888.736	8574
2890.591	8848
2892.446	8731
2894.301	8835
2896.155	8865
2898.009	8846
2899.863	8854
2901.716	8775
2903.568	8785
2905.419	8843
2907.27	8828
2909.123	8876
2910.973	8883
2912.824	9033
2914.673	8998
2916.521	9090
2918.372	9167
2920.22	8978
2922.067	9038
2923.914	9177
2925.761	9120
2927.607	9208
2929.455	9113
2931.301	9281
2933.144	9447
2934.99	9168
2936.833	9324
2938.678	9424
2940.522	9479
2942.364	9436
2944.207	9570
2946.048	9639
2947.891	9675
2949.731	9872
2951.571	9675
2953.412	9797
2955.25	9645
2957.09	9608
2958.93	9679
2960.767	9752
2962.606	9589
2964.443	9626
2966.279	9507
2968.116	9466
2969.953	9514
2971.788	9522
2973.623	9439
2975.457	9497
2977.292	9551
2979.127	9512
2980.959	9340
2982.792	9545
2984.624	9218
2986.455	9420
2988.288	9389
2990.119	9359
2991.949	9249
2993.779	9285
2995.608	9301
2997.439	9501
2999.268	9340
3001.096	9317
3002.923	9333
3004.751	9210
3006.578	9243
3008.406	9322
3010.232	9332
3012.057	9162
3013.883	9427
3015.706	9417
3017.532	9300
3019.356	9411
3021.179	9224
3023.002	9416
3024.823	9199
3026.646	9316
3028.469	9209
3030.289	9233
3032.11	9239
3033.93	9445
3035.749	9422
3037.57	9413
3039.39	9393
3041.207	9387
3043.026	9387
3044.842	9439
3046.661	9463
3048.477	9315
3050.294	9271
3052.109	9426
3053.925	9672
3055.739	9360
3057.555	9529
3059.368	9449
3061.181	9427
3062.995	9570
3064.807	9476
3066.62	9692
3068.433	9587
3070.243	9484
3072.054	9567
3073.865	9713
3075.675	9614
3077.485	9670
3079.293	9435
3081.102	9667
3082.911	9722
3084.719	9738
3086.527	9574
3088.333	9668
3090.139	9782
3091.945	9700
3093.75	9735
3095.557	9573
3097.361	9628
3099.165	9743
3100.969	9605
3102.772	9791
3104.575	9785
3106.379	9844
3108.181	9699
3109.982	9870
3111.783	9725
3113.584	9736
3115.386	9823
3117.186	9771
3118.985	9757
3120.783	9893
3122.582	9885
3124.381	9683
3126.179	9823
3127.975	9856
3129.772	9765
3131.569	9859
3133.365	9826
3135.161	9943
3136.956	10030
3138.751	9824
3140.544	9863
3142.338	10031
3144.132	9962
3145.925	10038
3147.717	9998
3149.509	10119
3151.301	10071
3153.091	10132
3154.884	10016
3156.673	10122
3158.462	10068
3160.252	10274
3162.041	10110
3163.831	10048
3165.618	10065
3167.405	10192
3169.193	10084
3170.979	10242
3172.767	10218
3174.553	10298
3176.338	10166
3178.123	10237
3179.907	10195
3181.692	10316
3183.477	10200
3185.259	10350
3187.042	10426
3188.824	10362
3190.607	10434
3192.389	10225
3194.17	10518
3195.951	10500
3197.73	10241
3199.51	10529
3201.289	10299
3203.07	10459
3204.848	10335
3206.626	10515
3208.403	10471
3210.18	10603
3211.959	10408
3213.735	10453
3215.511	10583
3217.285	10611
3219.06	10619
3220.836	10504
3222.611	10456
3224.384	10650
3226.158	10549
3227.929	10747
3229.702	10838
3231.476	10677
3233.248	10651
3235.018	10867
3236.789	10804
3238.56	10922
3240.33	10752
3242.1	10824
3243.869	10908
3245.637	10964
3247.405	10955
3249.172	11025
3250.941	10870
3252.707	10899
3254.474	10970
3256.24	11182
3258.006	11138
3259.772	11048
3261.537	11139
3263.301	11150
3265.065	11133
3266.828	11107
3268.592	11250
3270.355	11147
3272.117	11144
3273.878	11295
3275.64	11359
3277.401	11399
3279.162	11278
3280.922	11542
3282.682	11318
3284.441	11439
3286.199	11430
3287.959	11423
3289.716	11166
3291.475	11423
3293.232	11664
3294.988	11336
3296.744	11514
3298.501	11601
3300.256	11595
3302.011	11576
3303.766	11670
3305.52	11649
3307.275	11643
3309.028	11710
3310.781	11628
3312.533	11894
3314.285	11916
3316.038	11767
3317.789	11806
3319.54	11921
3321.289	11871
3323.039	11958
3324.789	11719
3326.539	11798
3328.288	11836
3330.035	12014
3331.783	12074
3333.531	11979
3335.28	12152
3337.025	12083
3338.771	12000
3340.518	12264
3342.262	11981
3344.009	12120
3345.753	12174
3347.497	12180
3349.24	12157
3350.983	12214
3352.726	12347
3354.469	12213
3356.212	12149
3357.952	12222
3359.694	12445
3361.434	12482
3363.176	12386
3364.916	12424
3366.654	12360
3368.394	12466
3370.132	12537
3371.871	12439
3373.61	12497
3375.346	12452
3377.083	12684
3378.82	12526
3380.556	12629
3382.292	12604
3384.027	12809
3385.763	12875
3387.497	12688
3389.231	12770
3390.965	12829
3392.698	12823
3394.431	12873
3396.164	12820
3397.896	12854
3399.627	12909
3401.36	13014
3403.09	12962
3404.82	12826
3406.55	12838
3408.279	12911
3410.01	13110
3411.738	13134
3413.467	13148
3415.194	13002
3416.92	13003
3418.647	13187
3420.375	13132
3422.102	13232
3423.827	13174
3425.553	13169
3427.277	13258
3429.003	13106
3430.727	13260
3432.451	13294
3434.173	13335
3435.896	13401
3437.62	13479
3439.343	13596
3441.063	13509
3442.785	13441
3444.505	13432
3446.226	13437
3447.948	13468
3449.666	13372
3451.386	13625
3453.104	13641
3454.823	13587
3456.541	13534
3458.259	13490
3459.976	13522
3461.693	13626
3463.408	13710
3465.125	13522
3466.841	13460
3468.556	13688
3470.271	13725
3471.985	13713
3473.698	13613
3475.414	13782
3477.126	13906
3478.838	13805
3480.55	13854
3482.263	13881
3483.975	14012
3485.686	14100
3487.396	13925
3489.106	14037
3490.817	13975
3492.526	14194
3494.236	14000
3495.944	14179
3497.652	14102
3499.359	13955
3501.066	14169
3502.775	14146
3504.481	14053
3506.187	14190
3507.893	14305
3509.598	14195
3511.304	14543
3513.009	14135
3514.713	14244
3516.417	14218
3518.12	14471
3519.821	14478
3521.525	14521
3523.228	14371
3524.929	14654
3526.631	14746
3528.33	14678
3530.032	14611
3531.733	14616
3533.433	14659
3535.131	14681
3536.83	14757
3538.529	14839
3540.227	14820
3541.925	14939
3543.623	14837
3545.319	14860
3547.016	14797
3548.712	15080
3550.408	14890
3552.103	14949
3553.798	15082
3555.491	15243
3557.188	15044
3558.88	15142
3560.574	15042
3562.266	15177
3563.959	15197
3565.651	15304
3567.343	15174
3569.035	15232
3570.725	15087
3572.415	15425
3574.106	15459
3575.797	15434
3577.485	15458
3579.174	15503
3580.863	15502
3582.551	15374
3584.238	15605
3585.926	15488
3587.613	15540
3589.3	15730
3590.986	15557
3592.671	15725
3594.357	15683
3596.042	15633
3597.726	15789
3599.41	15901
3601.094	15601
3602.778	15658
3604.461	15851
3606.143	15808
3607.825	16073
3609.507	15861
3611.188	16027
3612.87	15792
3614.551	16042
3616.229	16026
3617.909	16059
3619.589	15955
3621.269	15981
3622.948	15937
3624.625	16313
3626.302	16137
3627.98	16131
3629.657	16162
3631.334	16196
3633.01	16306
3634.686	16331
3636.361	16138
3638.036	16345
3639.712	16481
3641.385	16479
3643.06	16518
3644.732	16506
3646.405	16577
3648.08	16593
3649.751	16666
3651.424	16710
3653.094	16636
3654.766	16438
3656.436	16821
3658.106	16645
3659.777	16799
3661.446	16589
3663.115	16774
3664.783	16718
3666.452	16954
3668.121	16985
3669.788	16968
3671.454	16893
3673.121	16947
3674.789	17047
3676.455	16900
3678.12	17251
3679.784	16991
3681.45	17201
3683.114	17272
3684.779	17369
3686.442	17337
3688.105	17221
3689.768	17451
3691.43	17537
3693.093	17206
3694.754	17611
3696.415	17406
3698.076	17498
3699.736	17545
3701.396	17493
3703.057	17517
3704.716	17560
3706.375	17629
3708.034	17720
3709.692	17614
3711.351	17612
3713.008	17842
3714.665	17913
3716.321	17868
3717.977	17959
3719.634	18025
3721.29	18044
3722.945	17915
3724.598	18029
3726.253	18086
3727.907	18057
3729.561	18170
3731.214	18365
3732.867	18284
3734.518	18285
3736.171	18245
3737.824	18354
3739.474	18203
3741.125	18419
3742.775	18512
3744.425	18502
3746.074	18448
3747.725	18612
3749.373	18828
3751.022	18682
3752.669	18776
3754.318	18566
3755.966	18883
3757.612	18771
3759.259	18666
3760.905	18901
3762.55	18821
3764.197	18978
3765.842	19182
3767.486	18932
3769.131	18975
3770.774	19054
3772.417	19129
3774.061	19218
3775.705	19074
3777.347	19150
3778.988	19075
3780.629	19115
3782.271	19375
3783.912	19104
3785.552	19349
3787.192	19390
3788.831	19290
3790.472	19560
3792.112	19500
3793.75	19390
3795.388	19477
3797.024	19444
3798.661	19582
3800.3	19547
3801.936	19769
3803.572	19504
3805.208	19744
3806.844	19696
3808.48	19684
3810.115	19695
3811.748	19699
3813.382	19868
3815.016	19844
3816.649	19990
3818.283	20094
3819.914	20036
3821.547	19926
3823.178	20152
3824.809	20256
3826.441	20069
3828.072	20086
3829.701	20225
3831.331	20182
3832.96	20273
3834.591	20217
3836.219	20162
3837.847	20264
3839.475	20326
3841.102	20321
3842.729	20690
3844.357	20561
3845.984	20470
3847.609	20613
3849.234	20699
3850.86	20670
3852.485	20701
3854.11	20881
3855.734	20783
3857.357	20675
3858.981	20804
3860.603	21028
3862.227	21013
3863.848	20986
3865.471	20978
3867.092	20945
3868.713	20849
3870.334	20859
3871.954	21231
3873.575	21164
3875.194	21247
3876.813	21121
3878.433	21175
3880.051	21262
3881.669	21304
3883.286	21422
3884.904	21503
3886.52	21341
3888.138	21434
3889.754	21617
3891.37	21604
3892.985	21527
3894.6	21617
3896.216	21685
3897.831	21460
3899.444	21778
3901.058	21660
3902.67	21948
3904.283	21826
3905.897	21923
3907.509	21951
3909.121	21998
3910.731	21923
3912.342	22070
3913.954	22203
3915.563	22017
3917.174	22291
3918.783	22303
3920.391	22484
3922.002	22231
3923.611	22522
3925.218	22485
3926.826	22368
3928.432	22573
3930.039	22512
3931.647	22612
3933.253	22389
3934.859	22729
3936.464	22651
3938.068	22986
3939.675	22860
3941.278	22625
3942.883	22898
3944.486	22910
3946.089	22868
3947.692	22886
3949.295	23030
3950.898	23013
3952.499	23200
3954.1	23011
3955.7	23110
3957.303	23171
3958.903	23047
3960.502	23104
3962.101	23081
3963.7	23169
3965.301	23358
3966.899	23252
3968.497	23582
3970.094	23241
3971.691	23473
3973.288	23687
3974.885	23325
3976.481	23324
3978.077	23492
3979.672	23383
3981.267	23598
3982.863	23576
3984.457	23572
3986.051	23467
3987.645	23620
3989.238	23765
3990.831	23709
3992.425	23577
3994.017	23906
3995.607	23884
3997.199	23721
3998.79	23597
4000.382	23931
4001.973	23901
4003.561	24027
4005.151	23868
4006.741	23754
4008.331	23959
4009.918	23930
4011.507	23913
4013.095	23890
4014.681	24174
4016.269	23929
4017.856	23992
4019.443	24264
4021.028	24121
4022.614	24046
4024.199	24059
4025.785	24160
4027.37	24098
4028.953	24385
4030.536	24302
4032.12	24356
4033.704	24217
4035.287	24265
4036.869	24385
4038.45	24253
4040.032	24477
4041.613	24527
4043.195	24693
4044.776	24701
4046.356	24421
4047.935	24757
4049.515	24674
4051.095	24768
4052.674	24742
4054.251	24891
4055.829	24568
4057.406	24857
4058.985	25006
4060.562	24949
4062.139	25115
4063.715	25111
4065.29	24908
4066.865	25066
4068.442	25054
4070.016	25246
4071.59	25070
4073.164	25376
4074.738	25355
4076.312	25420
4077.885	25203
4079.458	25364
4081.03	25470
4082.602	25605
4084.173	25691
4085.745	25494
4087.315	25621
4088.886	25694
4090.456	25521
4092.026	25901
4093.596	25740
4095.165	25875
4096.734	25813
4098.301	25696
4099.869	25849
4101.437	25898
4103.006	26177
4104.572	25910
4106.139	26203
4107.704	26170
4109.27	26157
4110.837	25986
4112.401	26307
4113.966	26169
4115.53	26075
4117.094	26227
4118.659	26355
4120.223	26088
4121.785	26238
4123.347	26472
4124.909	26341
4126.471	26637
4128.034	26280
4129.595	26599
4131.155	26427
4132.716	26457
4134.275	26519
4135.836	26593
4137.395	26686
4138.955	26509
4140.513	26751
4142.071	26619
4143.628	26767
4145.188	26751
4146.745	26944
4148.302	26912
4149.858	26831
4151.414	26736
4152.971	27115
4154.526	26922
4156.081	26729
4157.635	27084
4159.189	27144
4160.745	26697
4162.298	26883
4163.852	27264
4165.405	27146
4166.957	27191
4168.51	27317
4170.063	27237
4171.614	27255
4173.166	27482
4174.717	27353
4176.267	27188
4177.817	27403
4179.368	27433
4180.917	27329
4182.466	27641
4184.016	27395
4185.564	27444
4187.112	27435
4188.66	27341
4190.207	27725
4191.754	27658
4193.301	27762
4194.848	27527
4196.394	27781
4197.94	27832
4199.484	27827
4201.03	27918
4202.575	27936
4204.12	27525
4205.663	28063
4207.207	27853
4208.75	28239
4210.292	27978
4211.836	28164
4213.378	28227
4214.92	28206
4216.46	28189
4218.002	28325
4219.544	28248
4221.083	28123
4222.625	28430
4224.164	28465
4225.703	28473
4227.244	28171
4228.782	28313
4230.32	28618
4231.857	28164
4233.395	28764
4234.933	28545
4236.471	28786
4238.007	28722
4239.542	28735
4241.078	28857
4242.614	29069
4244.15	28937
4245.685	29100
4247.219	29339
4248.753	28842
4250.287	28990
4251.82	29414
4253.354	29302
4254.887	29222
4256.419	29306
4257.951	29483
4259.483	29224
4261.016	29315
4262.547	29372
4264.078	29457
4265.608	29354
4267.137	29644
4268.668	29695
4270.197	29666
4271.727	29619
4273.254	29920
4274.783	29752
4276.311	29705
4277.84	29777
4279.366	29964
4280.894	30313
4282.42	29817
4283.946	30062
4285.473	30014
4286.998	29937
4288.523	30044
4290.047	30355
4291.572	30133
4293.096	30344
4294.622	30323
4296.144	29962
4297.668	30457
4299.19	30550
4300.713	30344
4302.236	30349
4303.758	30432
4305.279	30811
4306.799	30589
4308.321	30656
4309.842	30581
4311.361	30588
4312.882	30951
4314.401	30715
