400.0961	4191
402.6185	4220
405.1424	4256
407.6635	4144
410.1838	4150
412.7035	4213
415.2225	4265
417.7388	4262
420.2585	4360
422.7754	4284
425.2917	4356
427.8072	4339
430.3221	4373
432.8363	4390
435.3498	4380
437.8626	4344
440.3727	4513
442.8841	4393
445.3969	4485
447.907	4457
450.4142	4454
452.9229	4381
455.4289	4401
457.9362	4495
460.4449	4398
462.9488	4476
465.454	4413
467.9566	4574
470.4604	4422
472.9637	4383
475.4662	4513
477.966	4477
480.4671	4358
482.9656	4531
485.4633	4483
487.9645	4619
490.4608	4511
492.9566	4521
495.4536	4532
497.948	4603
500.4437	4568
502.9387	4540
505.431	4534
507.9226	4611
510.4136	4622
512.9079	4691
515.3975	4566
517.8864	4574
520.3746	4628
522.8622	4650
525.3491	4693
527.8394	4567
530.3249	4730
532.8098	4654
535.2939	4609
537.7774	4669
540.2623	4581
542.7444	4666
545.2259	4565
547.7067	4629
550.1868	4640
552.6683	4604
555.147	4649
557.6231	4634
560.1005	4642
562.5773	4654
565.0534	4750
567.5308	4779
570.0056	4775
572.4776	4756
574.951	4723
577.4237	4786
579.8978	4840
582.3671	4902
584.8378	4781
587.3079	4872
589.7773	4767
592.244	4772
594.714	4737
597.1793	4910
599.6461	4784
602.1121	4772
604.5754	4840
607.0421	4776
609.5042	4897
611.9675	4866
614.4282	4742
616.8902	4831
619.3515	4812
621.8122	4758
624.2702	4857
626.7296	4830
629.1863	4725
631.6423	4706
634.1017	4795
636.5563	4680
639.0104	4859
641.4658	4792
643.9185	4820
646.3725	4891
648.8239	4862
651.2766	4859
653.7266	4764
656.176	4756
658.6247	4906
661.0748	4854
663.5242	4966
665.9709	4984
668.417	4974
670.8624	4837
673.3092	4888
675.7533	4901
678.1968	5010
680.6395	4992
683.0817	4898
685.5251	5014
687.9659	4942
690.4061	4910
692.8456	5089
695.2844	5000
697.7226	5063
700.1621	5010
702.599	5028
705.0332	5030
707.4688	4997
709.9036	5116
712.3399	5006
714.7735	5013
717.2044	5015
719.6367	5113
722.0683	5056
724.4993	5194
726.9296	5172
729.3593	5114
731.7883	5135
734.2147	5154
736.6423	5158
739.0714	5114
741.4958	5176
743.9216	5247
746.3447	5208
748.7691	5245
751.1929	5252
753.616	5225
756.0366	5348
758.4584	5233
760.8776	5350
763.2982	5335
765.718	5292
768.1373	5464
770.5539	5333
772.9698	5366
775.3871	5362
777.8038	5381
780.2178	5333
782.6332	5360
785.0459	5381
787.458	5355
789.8714	5400
792.2842	5362
794.6943	5460
797.1038	5325
799.5127	5389
801.9209	5347
804.3324	5407
806.7393	5385
809.1456	5342
811.5513	5358
813.9562	5404
816.3625	5418
818.7663	5417
821.1693	5519
823.5718	5358
825.9735	5371
828.3746	5510
830.7771	5400
833.177	5372
835.5762	5424
837.9747	5469
840.3727	5455
842.772	5510
845.1666	5523
847.5626	5509
849.958	5574
852.3527	5564
854.7488	5508
857.1403	5513
859.5331	5527
861.9253	5543
864.3168	5473
866.7057	5479
869.098	5567
871.4876	5528
873.8746	5527
876.263	5550
878.6487	5493
881.0378	5538
883.4243	5503
885.8081	5519
888.1933	5581
890.5759	5505
892.9598	5533
895.343	5492
897.7256	5563
900.1057	5491
902.4871	5532
904.8659	5492
907.246	5484
909.6254	5626
912.0023	5585
914.3786	5704
916.7562	5673
919.1331	5771
921.5074	5743
923.8831	5817
926.2562	5775
928.6287	5843
931.0005	5801
933.3757	5834
935.7462	5815
938.1162	5846
940.4855	5846
942.8542	5860
945.2242	6102
947.5916	5983
949.9584	6084
952.3266	6088
954.6921	6314
957.0571	6510
959.4233	6662
961.787	6696
964.15	6791
966.5125	6678
968.8742	6468
971.2354	6326
973.5959	6083
975.9559	6006
978.3151	5913
980.6738	5886
983.0338	5743
985.3912	5729
987.7461	5746
990.1022	5699
992.4578	5687
994.8127	5706
997.1689	5786
999.5207	5758
1001.874	5752
1004.226	5679
1006.576	5802
1008.929	5700
1011.28	5658
1013.628	5695
1015.977	5820
1018.324	5745
1020.674	5714
1023.019	5819
1025.366	5800
1027.713	5820
1030.056	5694
1032.399	5784
1034.746	5743
1037.087	5889
1039.431	5784
1041.771	5872
1044.113	5759
1046.454	5789
1048.793	5793
1051.133	5873
1053.471	5869
1055.807	5858
1058.146	5777
1060.483	5842
1062.818	5885
1065.153	5942
1067.489	5925
1069.822	5938
1072.156	5957
1074.488	5983
1076.82	5983
1079.15	6042
1081.48	5920
1083.814	6069
1086.143	5838
1088.471	5889
1090.799	5860
1093.126	5920
1095.452	5984
1097.78	5816
1100.105	5879
1102.43	5884
1104.754	5981
1107.077	5997
1109.4	5847
1111.722	5984
1114.044	5871
1116.365	5923
1118.685	5818
1121.005	5943
1123.324	5963
1125.643	6008
1127.961	5821
1130.278	5982
1132.595	5970
1134.911	5903
1137.226	5913
1139.541	5863
1141.854	5986
1144.167	5906
1146.482	5856
1148.793	5927
1151.105	5910
1153.414	5926
1155.725	5868
1158.033	5981
1160.344	5895
1162.651	6005
1164.959	5900
1167.265	5829
1169.572	5901
1171.878	5955
1174.184	5981
1176.488	5985
1178.79	5925
1181.094	5899
1183.396	5909
1185.699	5926
1188.001	5959
1190.301	5911
1192.6	5831
1194.9	5937
1197.2	5890
1199.497	5953
1201.794	5873
1204.09	5849
1206.387	5952
1208.684	5967
1210.978	6022
1213.272	5990
1215.565	5966
1217.858	5950
1220.15	5992
1222.443	5957
1224.734	5950
1227.024	6064
1229.313	5999
1231.602	6021
1233.892	6057
1236.18	6122
1238.467	6045
1240.754	6102
1243.04	6159
1245.325	6116
1247.612	6198
1249.896	6149
1252.178	6228
1254.461	6195
1256.743	6120
1259.027	6153
1261.308	6088
1263.587	6046
1265.867	6105
1268.146	6231
1270.425	6167
1272.703	6178
1274.981	6118
1277.256	6219
1279.532	6163
1281.808	6106
1284.083	6102
1286.358	6080
1288.63	6197
1290.904	6138
1293.175	6113
1295.449	6016
1297.719	6032
1299.99	6100
1302.259	6031
1304.529	6066
1306.798	6075
1309.065	6079
1311.333	6105
1313.599	6122
1315.866	6139
1318.131	6184
1320.396	6130
1322.66	6146
1324.925	6158
1327.187	6091
1329.448	6129
1331.711	6207
1333.974	6121
1336.234	6115
1338.493	6287
1340.752	6137
1343.01	6098
1345.269	6094
1347.526	6037
1349.784	6132
1352.04	6087
1354.295	6061
1356.552	6085
1358.806	6148
1361.059	6343
1363.312	6015
1365.564	6003
1367.818	6105
1370.069	6076
1372.318	6172
1374.568	6102
1376.817	6165
1379.066	5993
1381.316	6079
1383.564	6176
1385.809	6199
1388.056	6200
1390.301	6234
1392.549	6231
1394.793	6224
1397.036	6212
1399.279	6333
1401.522	6294
1403.763	6422
1406.007	6372
1408.248	6293
1410.487	6288
1412.727	6246
1414.965	6207
1417.205	6195
1419.442	6358
1421.68	6313
1423.915	6318
1426.152	6381
1428.388	6279
1430.623	6376
1432.857	6401
1435.091	6406
1437.323	6331
1439.556	6510
1441.789	6366
1444.019	6354
1446.25	6311
1448.48	6306
1450.708	6468
1452.938	6498
1455.167	6420
1457.394	6486
1459.62	6497
1461.846	6516
1464.073	6455
1466.299	6442
1468.523	6411
1470.746	6442
1472.969	6349
1475.191	6185
1477.415	6349
1479.636	6295
1481.858	6256
1484.078	6154
1486.298	6288
1488.518	6200
1490.736	6207
1492.954	6205
1495.169	5961
1497.386	6192
1499.602	6184
1501.819	6165
1504.034	6181
1506.248	6138
1508.462	6245
1510.675	6063
1512.888	6115
1515.1	6073
1517.311	6175
1519.522	6048
1521.732	6095
1523.942	6185
1526.151	6155
1528.36	6258
1530.566	6152
1532.773	6081
1534.98	6251
1537.187	6174
1539.392	6158
1541.596	6179
1543.801	6222
1546.005	6068
1548.208	6253
1550.411	6098
1552.612	6230
1554.814	6182
1557.013	6129
1559.212	6215
1561.414	6279
1563.612	6192
1565.811	6257
1568.007	6248
1570.203	6246
1572.403	6244
1574.598	6382
1576.792	6172
1578.988	6264
1581.181	6314
1583.376	6385
1585.568	6334
1587.761	6318
1589.952	6348
1592.143	6394
1594.333	6279
1596.524	6258
1598.715	6362
1600.903	6292
1603.091	6338
1605.278	6384
1607.466	6276
1609.652	6298
1611.838	6314
1614.023	6416
1616.207	6365
1618.391	6294
1620.576	6407
1622.759	6277
1624.941	6416
1627.123	6357
1629.304	6406
1631.484	6415
1633.664	6336
1635.844	6299
1638.022	6433
1640.201	6416
1642.38	6398
1644.556	6429
1646.732	6432
1648.908	6434
1651.084	6353
1653.257	6445
1655.433	6419
1657.607	6470
1659.779	6424
1661.951	6513
1664.122	6452
1666.295	6605
1668.467	6402
1670.635	6476
1672.805	6391
1674.973	6499
1677.142	6458
1679.31	6422
1681.478	6465
1683.644	6464
1685.81	6489
1687.975	6437
1690.142	6415
1692.305	6463
1694.468	6419
1696.632	6456
1698.794	6454
1700.957	6311
1703.119	6280
1705.279	6427
1707.439	6324
1709.598	6329
1711.758	6234
1713.917	6345
1716.075	6380
1718.231	6396
1720.388	6387
1722.543	6375
1724.702	6289
1726.856	6321
1729.01	6395
1731.164	6298
1733.317	6394
1735.471	6307
1737.623	6308
1739.774	6380
1741.925	6229
1744.075	6430
1746.225	6330
1748.376	6434
1750.524	6419
1752.672	6258
1754.82	6329
1756.965	6315
1759.113	6410
1761.259	6383
1763.405	6370
1765.549	6388
1767.694	6381
1769.836	6407
1771.981	6314
1774.123	6389
1776.264	6364
1778.405	6228
1780.546	6351
1782.687	6438
1784.827	6415
1786.966	6448
1789.103	6346
1791.242	6448
1793.381	6466
1795.517	6417
1797.653	6375
1799.788	6448
1801.923	6364
1804.057	6391
1806.193	6363
1808.326	6376
1810.457	6396
1812.59	6469
1814.721	6333
1816.855	6429
1818.984	6343
1821.113	6347
1823.244	6247
1825.372	6388
1827.499	6365
1829.63	6454
1831.756	6227
1833.882	6475
1836.007	6433
1838.132	6482
1840.26	6322
1842.384	6359
1844.507	6294
1846.63	6352
1848.752	6362
1850.875	6317
1852.996	6359
1855.118	6338
1857.238	6330
1859.358	6287
1861.477	6331
1863.597	6363
1865.715	6373
1867.832	6327
1869.948	6321
1872.064	6338
1874.181	6373
1876.297	6388
1878.411	6268
1880.526	6350
1882.639	6340
1884.752	6246
1886.865	6280
1888.977	6278
1891.089	6395
1893.2	6420
1895.308	6452
1897.42	6373
1899.53	6340
1901.639	6369
1903.745	6357
1905.853	6326
1907.962	6366
1910.067	6243
1912.174	6409
1914.278	6417
1916.383	6483
1918.486	6509
1920.592	6471
1922.694	6288
1924.797	6402
1926.898	6459
1929	6488
1931.102	6415
1933.203	6446
1935.301	6421
1937.401	6453
1939.499	6370
1941.598	6432
1943.697	6484
1945.793	6474
1947.888	6365
1949.985	6510
1952.08	6347
1954.176	6581
1956.269	6377
1958.364	6310
1960.457	6562
1962.549	6266
1964.642	6315
1966.733	6330
1968.823	6385
1970.913	6416
1973.005	6516
1975.093	6476
1977.184	6394
1979.271	6416
1981.359	6341
1983.446	6404
1985.532	6349
1987.619	6439
1989.705	6336
1991.789	6332
1993.874	6366
1995.956	6314
1998.041	6423
2000.123	6391
2002.206	6387
2004.287	6280
2006.368	6266
2008.449	6381
2010.529	6294
2012.609	6326
2014.688	6340
2016.766	6303
2018.843	6389
2020.922	6247
2022.999	6324
2025.074	6514
2027.15	6300
2029.225	6292
2031.299	6429
2033.375	6274
2035.447	6305
2037.52	6377
2039.592	6315
2041.664	6329
2043.736	6419
2045.807	6437
2047.876	6400
2049.947	6322
2052.015	6394
2054.086	6315
2056.153	6374
2058.221	6345
2060.288	6387
2062.353	6367
2064.42	6367
2066.486	6400
2068.55	6375
2070.614	6304
2072.678	6285
2074.741	6423
2076.805	6341
2078.866	6350
2080.929	6317
2082.99	6406
2085.049	6314
2087.109	6454
2089.17	6189
2091.228	6404
2093.286	6387
2095.344	6430
2097.4	6365
2099.46	6350
2101.516	6433
2103.572	6381
2105.626	6281
2107.679	6349
2109.735	6332
2111.788	6238
2113.841	6297
2115.894	6339
2117.945	6369
2119.997	6295
2122.049	6324
2124.1	6278
2126.148	6404
2128.197	6301
2130.246	6302
2132.296	6233
2134.342	6325
2136.39	6376
2138.437	6302
2140.483	6293
2142.527	6295
2144.574	6265
2146.619	6311
2148.661	6302
2150.705	6371
2152.747	6333
2154.792	6314
2156.832	6397
2158.874	6264
2160.915	6321
2162.954	6377
2164.995	6295
2167.034	6307
2169.072	6237
2171.111	6245
2173.148	6275
2175.186	6227
2177.223	6282
2179.258	6225
2181.294	6154
2183.328	6231
2185.362	6225
2187.398	6229
2189.431	6188
2191.463	6214
2193.495	6221
2195.528	6244
2197.56	6287
2199.59	6199
2201.62	6161
2203.649	6188
2205.678	6205
2207.708	6151
2209.737	6229
2211.764	6052
2213.791	6130
2215.817	6197
2217.843	6038
2219.87	6236
2221.895	6042
2223.919	6132
2225.942	6150
2227.966	6080
2229.988	6141
2232.012	6170
2234.032	6256
2236.054	6185
2238.074	6108
2240.095	6266
2242.116	6163
2244.135	6148
2246.153	6179
2248.171	6176
2250.188	6075
2252.208	6105
2254.223	6201
2256.239	6186
2258.255	6171
2260.269	6103
2262.283	6133
2264.3	6209
2266.312	6152
2268.325	6147
2270.336	6198
2272.349	6149
2274.362	6255
2276.372	6114
2278.383	6168
2280.392	6121
2282.402	6200
2284.409	6084
2286.418	6032
2288.427	6085
2290.433	6124
2292.441	6214
2294.446	6150
2296.453	6096
2298.459	6218
2300.463	6153
2302.466	6128
2304.471	6045
2306.475	6101
2308.477	6097
2310.478	5978
2312.481	6175
2314.481	6143
2316.481	6052
2318.482	6186
2320.482	6019
2322.48	6046
2324.48	6115
2326.478	6024
2328.476	6021
2330.473	6115
2332.469	5998
2334.465	5960
2336.46	6009
2338.454	6039
2340.45	6080
2342.444	5973
2344.437	6185
2346.43	5956
2348.421	5962
2350.414	6121
2352.405	5946
2354.396	5921
2356.386	6035
2358.376	6031
2360.366	6022
2362.355	6000
2364.343	6059
2366.331	6031
2368.317	5902
2370.304	5872
2372.292	5996
2374.278	6000
2376.262	6019
2378.247	5965
2380.23	6056
2382.216	5986
2384.199	5874
2386.181	5967
2388.163	5839
2390.144	5887
2392.127	5971
2394.107	5968
2396.087	5865
2398.066	5800
2400.046	5944
2402.023	5839
2404.004	5887
2405.981	5960
2407.957	5773
2409.934	5934
2411.91	5921
2413.886	5815
2415.862	5858
2417.836	5953
2419.809	5972
2421.784	5958
2423.756	5747
2425.73	5883
2427.701	5925
2429.672	5883
2431.644	5924
2433.615	5853
2435.586	5990
2437.555	5870
2439.523	5826
2441.491	5948
2443.459	5897
2445.428	5991
2447.395	5891
2449.361	5939
2451.327	5891
2453.292	5886
2455.257	5865
2457.223	5856
2459.187	5760
2461.15	5866
2463.113	5879
2465.076	5891
2467.039	5773
2468.999	5871
2470.96	5795
2472.921	5943
2474.881	5855
2476.841	5884
2478.8	5829
2480.759	5832
2482.717	5802
2484.675	5802
2486.63	5759
2488.589	5701
2490.545	5906
2492.5	5752
2494.455	5770
2496.408	5681
2498.364	5886
2500.318	5707
2502.27	5898
2504.223	5766
2506.174	5768
2508.126	5783
2510.078	5798
2512.03	5796
2513.979	5822
2515.927	5724
2517.877	5811
2519.826	5729
2521.775	5799
2523.722	5793
2525.668	5797
2527.616	5820
2529.561	5704
2531.508	5673
2533.452	5829
2535.398	5728
2537.342	5764
2539.284	5635
2541.229	5725
2543.173	5800
2545.114	5791
2547.055	5802
2548.996	5764
2550.938	5807
2552.878	5747
2554.817	5731
2556.756	5668
2558.695	5700
2560.633	5731
2562.572	5752
2564.509	5758
2566.445	5694
2568.382	5686
2570.317	5716
2572.254	5812
2574.189	5655
2576.123	5743
2578.057	5707
2579.99	5749
2581.923	5749
2583.855	5707
2585.788	5730
2587.719	5741
2589.65	5785
2591.579	5647
2593.511	5780
2595.44	5830
2597.37	5782
2599.297	5771
2601.225	5819
2603.153	5659
2605.08	5695
2607.007	5747
2608.932	5708
2610.858	5812
2612.782	5691
2614.709	5676
2616.632	5692
2618.556	5723
2620.478	5680
2622.401	5724
2624.324	5721
2626.247	5730
2628.167	5690
2630.088	5832
2632.008	5775
2633.928	5752
2635.848	5654
2637.766	5809
2639.684	5752
2641.603	5756
2643.519	5752
2645.437	5670
2647.353	5788
2649.27	5718
2651.184	5745
2653.099	5758
2655.014	5656
2656.928	5680
2658.842	5790
2660.755	5704
2662.667	5606
2664.579	5775
2666.491	5626
2668.402	5759
2670.312	5768
2672.222	5600
2674.132	5697
2676.042	5649
2677.951	5702
2679.859	5672
2681.766	5709
2683.674	5620
2685.582	5548
2687.488	5554
2689.392	5718
2691.298	5643
2693.202	5664
2695.107	5666
2697.012	5554
2698.914	5624
2700.817	5672
2702.72	5587
2704.622	5537
2706.524	5687
2708.425	5600
2710.326	5558
2712.225	5662
2714.125	5703
2716.024	5652
2717.923	5588
2719.822	5590
2721.719	5650
2723.616	5524
2725.512	5592
2727.41	5635
2729.305	5600
2731.201	5581
2733.095	5560
2734.99	5651
2736.884	5519
2738.778	5650
2740.67	5622
2742.562	5471
2744.455	5623
2746.346	5512
2748.238	5549
2750.129	5465
2752.018	5661
2753.907	5542
2755.797	5617
2757.687	5633
2759.575	5550
2761.462	5548
2763.349	5459
2765.237	5524
2767.124	5593
2769.009	5403
2770.894	5459
2772.779	5609
2774.663	5451
2776.547	5455
2778.431	5468
2780.314	5467
2782.197	5475
2784.078	5588
2785.96	5494
2787.842	5484
2789.723	5544
2791.603	5439
2793.483	5505
2795.362	5513
2797.241	5494
2799.121	5447
2800.997	5479
2802.874	5484
2804.751	5452
2806.628	5489
2808.506	5471
2810.38	5534
2812.255	5509
2814.13	5436
2816.003	5446
2817.878	5489
2819.752	5476
2821.623	5565
2823.496	5480
2825.368	5488
2827.238	5467
2829.111	5508
2830.98	5447
2832.851	5496
2834.719	5335
2836.589	5505
2838.458	5422
2840.327	5452
2842.193	5381
2844.061	5439
2845.927	5433
2847.794	5511
2849.66	5607
2851.525	5517
2853.39	5567
2855.254	5685
2857.117	5535
2858.983	5557
2860.845	5537
2862.707	5483
2864.569	5629
2866.431	5577
2868.293	5492
2870.154	5698
2872.013	5601
2873.873	5569
2875.733	5705
2877.592	5616
2879.451	5727
2881.309	5842
2883.166	5876
2885.022	5939
2886.879	5765
2888.736	5876
2890.591	5850
2892.446	5961
2894.301	5950
2896.155	5971
2898.009	5887
2899.863	5956
2901.716	5849
2903.568	5878
2905.419	5904
2907.27	5829
2909.123	5906
2910.973	5816
2912.824	5936
2914.673	5899
2916.521	6005
2918.372	6086
2920.22	6078
2922.067	6018
2923.914	6068
2925.761	6018
2927.607	6288
2929.455	6196
2931.301	6213
2933.144	6230
2934.99	6209
2936.833	6256
2938.678	6344
2940.522	6368
2942.364	6491
2944.207	6459
2946.048	6416
2947.891	6542
2949.731	6496
2951.571	6528
2953.412	6519
2955.25	6314
2957.09	6457
2958.93	6400
2960.767	6308
2962.606	6382
2964.443	6131
2966.279	6205
2968.116	6157
2969.953	6119
2971.788	6029
2973.623	5973
2975.457	6058
2977.292	6026
2979.127	5916
2980.959	5934
2982.792	5779
2984.624	5754
2986.455	5874
2988.288	5772
2990.119	5731
2991.949	5678
2993.779	5683
2995.608	5592
2997.439	5583
2999.268	5624
3001.096	5595
3002.923	5603
3004.751	5500
3006.578	5439
3008.406	5375
3010.232	5377
3012.057	5416
3013.883	5353
3015.706	5368
3017.532	5287
3019.356	5227
3021.179	5348
3023.002	5254
3024.823	5284
3026.646	5240
3028.469	5314
3030.289	5244
3032.11	5164
3033.93	5235
3035.749	5172
3037.57	5136
3039.39	5071
3041.207	5042
3043.026	5149
3044.842	5233
3046.661	5097
3048.477	5144
3050.294	5207
3052.109	5242
3053.925	5238
3055.739	5124
3057.555	5151
3059.368	5075
3061.181	5102
3062.995	5110
3064.807	5172
3066.62	5112
3068.433	5129
3070.243	5108
3072.054	5017
3073.865	5053
3075.675	5077
3077.485	5209
3079.293	5012
3081.102	5101
3082.911	4894
3084.719	4979
3086.527	5045
3088.333	5079
3090.139	4933
3091.945	4967
3093.75	5043
3095.557	5055
3097.361	4991
3099.165	5039
3100.969	4934
3102.772	4991
3104.575	4971
3106.379	4949
3108.181	4857
3109.982	4975
3111.783	4908
3113.584	4906
3115.386	4952
3117.186	4944
3118.985	4863
3120.783	4846
3122.582	4781
3124.381	4862
3126.179	4996
3127.975	4869
3129.772	4949
3131.569	4906
3133.365	4871
3135.161	4850
3136.956	4943
3138.751	4857
3140.544	4816
3142.338	4896
3144.132	4862
3145.925	4871
3147.717	4789
3149.509	4909
3151.301	4908
3153.091	4703
3154.884	4786
3156.673	4897
3158.462	4798
3160.252	4886
3162.041	4781
3163.831	4830
3165.618	4720
3167.405	4815
3169.193	4829
3170.979	4813
3172.767	4818
3174.553	4766
3176.338	4734
3178.123	4852
3179.907	4762
3181.692	4754
3183.477	4755
3185.259	4852
3187.042	4646
3188.824	4821
3190.607	4837
3192.389	4713
3194.17	4799
3195.951	4772
3197.73	4705
3199.51	4746
3201.289	4787
3203.07	4762
3204.848	4738
3206.626	4727
3208.403	4715
3210.18	4784
3211.959	4703
3213.735	4670
3215.511	4756
3217.285	4748
3219.06	4808
3220.836	4669
3222.611	4742
3224.384	4674
3226.158	4688
3227.929	4642
3229.702	4704
3231.476	4774
3233.248	4698
3235.018	4771
3236.789	4684
3238.56	4696
3240.33	4779
3242.1	4800
3243.869	4713
3245.637	4636
3247.405	4726
3249.172	4643
3250.941	4652
3252.707	4690
3254.474	4727
3256.24	4637
3258.006	4723
3259.772	4717
3261.537	4780
3263.301	4682
3265.065	4655
3266.828	4698
3268.592	4654
3270.355	4692
3272.117	4620
3273.878	4745
3275.64	4655
3277.401	4692
3279.162	4669
3280.922	4664
3282.682	4599
3284.441	4671
3286.199	4647
3287.959	4746
3289.716	4565
3291.475	4690
3293.232	4718
3294.988	4695
3296.744	4710
3298.501	4704
3300.256	4712
3302.011	4755
3303.766	4616
3305.52	4662
3307.275	4612
3309.028	4713
3310.781	4633
3312.533	4623
3314.285	4763
3316.038	4608
3317.789	4702
3319.54	4683
3321.289	4587
3323.039	4648
3324.789	4606
3326.539	4647
3328.288	4501
3330.035	4680
3331.783	4599
3333.531	4674
3335.28	4672
3337.025	4676
3338.771	4678
3340.518	4587
3342.262	4597
3344.009	4606
3345.753	4647
3347.497	4570
3349.24	4570
3350.983	4512
3352.726	4573
3354.469	4568
3356.212	4558
3357.952	4578
3359.694	4445
3361.434	4630
3363.176	4592
3364.916	4566
3366.654	4534
3368.394	4492
3370.132	4566
3371.871	4540
3373.61	4491
3375.346	4497
3377.083	4571
3378.82	4544
3380.556	4529
3382.292	4515
3384.027	4436
3385.763	4542
3387.497	4502
3389.231	4385
3390.965	4419
3392.698	4536
3394.431	4455
3396.164	4440
3397.896	4553
3399.627	4441
3401.36	4390
3403.09	4470
3404.82	4472
3406.55	4478
3408.279	4401
3410.01	4504
3411.738	4461
3413.467	4431
3415.194	4394
3416.92	4333
3418.647	4407
3420.375	4403
3422.102	4495
3423.827	4454
3425.553	4371
3427.277	4399
3429.003	4407
3430.727	4364
3432.451	4448
3434.173	4431
3435.896	4341
3437.62	4408
3439.343	4415
3441.063	4465
3442.785	4390
3444.505	4299
3446.226	4339
3447.948	4312
3449.666	4392
3451.386	4310
3453.104	4284
3454.823	4314
3456.541	4374
3458.259	4303
3459.976	4254
3461.693	4275
3463.408	4290
3465.125	4194
3466.841	4191
3468.556	4287
3470.271	4284
3471.985	4235
3473.698	4163
3475.414	4277
3477.126	4256
3478.838	4261
3480.55	4207
3482.263	4268
3483.975	4241
3485.686	4268
3487.396	4106
3489.106	4249
3490.817	4279
3492.526	4158
3494.236	4153
3495.944	4179
3497.652	4181
3499.359	4118
3501.066	4213
3502.775	4154
3504.481	4249
3506.187	4232
3507.893	4143
3509.598	4193
3511.304	4211
3513.009	4123
3514.713	4076
3516.417	4059
3518.12	4131
3519.821	4158
3521.525	4053
3523.228	4068
3524.929	4144
3526.631	4113
3528.33	4071
3530.032	4081
3531.733	4030
3533.433	4046
3535.131	4040
3536.83	4109
3538.529	4057
3540.227	4052
3541.925	4010
3543.623	4073
3545.319	4055
3547.016	3998
3548.712	4055
3550.408	3972
3552.103	4042
3553.798	4029
3555.491	4032
3557.188	4006
3558.88	4016
3560.574	3997
3562.266	4013
3563.959	3941
3565.651	4063
3567.343	3931
3569.035	4017
3570.725	3899
3572.415	3931
3574.106	3900
3575.797	4019
3577.485	3928
3579.174	4015
3580.863	3896
3582.551	3971
3584.238	3953
3585.926	3958
3587.613	3928
3589.3	3890
3590.986	3919
3592.671	3922
3594.357	3906
3596.042	3914
3597.726	3887
3599.41	3879
3601.094	3823
3602.778	3890
3604.461	3799
3606.143	3866
3607.825	3928
3609.507	3878
3611.188	3884
3612.87	3785
3614.551	3877
3616.229	3916
3617.909	3815
3619.589	3756
3621.269	3833
3622.948	3814
3624.625	3745
3626.302	3796
3627.98	3839
3629.657	3718
3631.334	3771
3633.01	3736
3634.686	3799
3636.361	3753
3638.036	3825
3639.712	3767
3641.385	3870
3643.06	3745
3644.732	3763
3646.405	3725
3648.08	3817
3649.751	3753
3651.424	3686
3653.094	3728
3654.766	3708
3656.436	3684
3658.106	3735
3659.777	3699
3661.446	3697
3663.115	3709
3664.783	3664
3666.452	3727
3668.121	3695
3669.788	3614
3671.454	3662
3673.121	3668
3674.789	3735
3676.455	3618
3678.12	3734
3679.784	3742
3681.45	3660
3683.114	3640
3684.779	3660
3686.442	3673
3688.105	3625
3689.768	3594
3691.43	3680
3693.093	3688
3694.754	3629
3696.415	3603
3698.076	3643
3699.736	3561
3701.396	3713
3703.057	3606
3704.716	3711
3706.375	3578
3708.034	3635
3709.692	3601
3711.351	3584
3713.008	3638
3714.665	3575
3716.321	3556
3717.977	3596
3719.634	3598
3721.29	3626
3722.945	3580
3724.598	3558
3726.253	3566
3727.907	3654
3729.561	3589
3731.214	3616
3732.867	3589
3734.518	3625
3736.171	3575
3737.824	3631
3739.474	3624
3741.125	3571
3742.775	3508
3744.425	3597
3746.074	3543
3747.725	3533
3749.373	3619
3751.022	3522
3752.669	3497
3754.318	3564
3755.966	3602
3757.612	3508
3759.259	3470
3760.905	3519
3762.55	3556
3764.197	3467
3765.842	3462
3767.486	3554
3769.131	3549
3770.774	3549
3772.417	3510
3774.061	3590
3775.705	3454
3777.347	3454
3778.988	3508
3780.629	3571
3782.271	3465
3783.912	3475
3785.552	3541
3787.192	3455
3788.831	3438
3790.472	3411
3792.112	3471
3793.75	3474
3795.388	3458
3797.024	3444
3798.661	3421
3800.3	3439
3801.936	3373
3803.572	3456
3805.208	3373
3806.844	3419
3808.48	3393
3810.115	3457
3811.748	3428
3813.382	3376
3815.016	3427
3816.649	3446
3818.283	3425
3819.914	3325
3821.547	3432
3823.178	3410
3824.809	3359
3826.441	3330
3828.072	3401
3829.701	3353
3831.331	3437
3832.96	3383
3834.591	3383
3836.219	3389
3837.847	3361
3839.475	3344
3841.102	3354
3842.729	3339
3844.357	3305
3845.984	3284
3847.609	3313
3849.234	3291
3850.86	3320
3852.485	3332
3854.11	3239
3855.734	3362
3857.357	3292
3858.981	3272
3860.603	3235
3862.227	3350
3863.848	3265
3865.471	3341
3867.092	3320
3868.713	3223
3870.334	3295
3871.954	3294
3873.575	3288
3875.194	3225
3876.813	3294
3878.433	3302
3880.051	3293
3881.669	3206
3883.286	3362
3884.904	3336
3886.52	3252
3888.138	3205
3889.754	3228
3891.37	3225
3892.985	3251
3894.6	3272
3896.216	3236
3897.831	3274
3899.444	3201
3901.058	3267
3902.67	3244
3904.283	3243
3905.897	3230
3907.509	3253
3909.121	3268
3910.731	3216
3912.342	3209
3913.954	3234
3915.563	3197
3917.174	3265
3918.783	3240
3920.391	3213
3922.002	3175
3923.611	3214
3925.218	3182
3926.826	3194
3928.432	3269
3930.039	3234
3931.647	3187
3933.253	3152
3934.859	3209
3936.464	3244
3938.068	3175
3939.675	3163
3941.278	3198
3942.883	3223
3944.486	3215
3946.089	3294
3947.692	3194
3949.295	3241
3950.898	3234
3952.499	3084
3954.1	3182
3955.7	3068
3957.303	3161
3958.903	3197
3960.502	3245
3962.101	3134
3963.7	3162
3965.301	3106
3966.899	3148
3968.497	3139
3970.094	3125
3971.691	3069
3973.288	3095
3974.885	3100
3976.481	3150
3978.077	3140
3979.672	3070
3981.267	3092
3982.863	3066
3984.457	3042
3986.051	3082
3987.645	3113
3989.238	3117
3990.831	3096
3992.425	3108
3994.017	3118
3995.607	3023
3997.199	2990
3998.79	2990
4000.382	3030
4001.973	3111
4003.561	3056
4005.151	3077
4006.741	3010
4008.331	3130
4009.918	3041
4011.507	3027
4013.095	3003
4014.681	2947
4016.269	2982
4017.856	2957
4019.443	3063
4021.028	3023
4022.614	2951
4024.199	2983
4025.785	2970
4027.37	2970
4028.953	3014
4030.536	3049
4032.12	3032
4033.704	2940
4035.287	2975
4036.869	3006
4038.45	2929
4040.032	2991
4041.613	2944
4043.195	2961
4044.776	2934
4046.356	2997
4047.935	2869
4049.515	2973
4051.095	2965
4052.674	3005
4054.251	2966
4055.829	2874
4057.406	2943
4058.985	2939
4060.562	2945
4062.139	2919
4063.715	2900
4065.29	2893
4066.865	2909
4068.442	2939
4070.016	2965
4071.59	2866
4073.164	2999
4074.738	2877
4076.312	2926
4077.885	2914
4079.458	2911
4081.03	2935
4082.602	2880
4084.173	2904
4085.745	2932
4087.315	2954
4088.886	2975
4090.456	2834
4092.026	2869
4093.596	2935
4095.165	2891
4096.734	2870
4098.301	2828
4099.869	2785
4101.437	2927
4103.006	2866
4104.572	2797
4106.139	2848
4107.704	2859
4109.27	2772
4110.837	2846
4112.401	2834
4113.966	2812
4115.53	2856
4117.094	2780
4118.659	2815
4120.223	2764
4121.785	2784
4123.347	2764
4124.909	2716
4126.471	2756
4128.034	2813
4129.595	2804
4131.155	2822
4132.716	2729
4134.275	2759
4135.836	2814
4137.395	2797
4138.955	2822
4140.513	2775
4142.071	2761
4143.628	2723
4145.188	2835
4146.745	2756
4148.302	2830
4149.858	2735
4151.414	2747
4152.971	2760
4154.526	2758
4156.081	2746
4157.635	2744
4159.189	2777
4160.745	2757
4162.298	2647
4163.852	2766
4165.405	2806
4166.957	2701
4168.51	2700
4170.063	2749
4171.614	2679
4173.166	2711
4174.717	2687
4176.267	2675
4177.817	2674
4179.368	2716
4180.917	2638
4182.466	2676
4184.016	2769
4185.564	2753
4187.112	2644
4188.66	2642
4190.207	2657
4191.754	2694
4193.301	2660
4194.848	2719
4196.394	2653
4197.94	2637
4199.484	2658
4201.03	2622
4202.575	2618
4204.12	2625
4205.663	2660
4207.207	2650
4208.75	2619
4210.292	2598
4211.836	2611
4213.378	2569
4214.92	2665
4216.46	2681
4218.002	2673
4219.544	2626
4221.083	2634
4222.625	2607
4224.164	2626
4225.703	2689
4227.244	2654
4228.782	2638
4230.32	2612
4231.857	2554
4233.395	2583
4234.933	2557
4236.471	2632
4238.007	2615
4239.542	2587
4241.078	2548
4242.614	2509
4244.15	2660
4245.685	2545
4247.219	2591
4248.753	2565
4250.287	2573
4251.82	2651
4253.354	2580
4254.887	2591
4256.419	2561
4257.951	2540
4259.483	2585
4261.016	2560
4262.547	2534
4264.078	2551
4265.608	2611
4267.137	2529
4268.668	2552
4270.197	2536
4271.727	2592
4273.254	2532
4274.783	2558
4276.311	2508
4277.84	2592
4279.366	2590
4280.894	2566
4282.42	2550
4283.946	2549
4285.473	2531
4286.998	2530
4288.523	2559
4290.047	2504
4291.572	2521
4293.096	2546
4294.622	2490
4296.144	2571
4297.668	2497
4299.19	2496
4300.713	2528
4302.236	2451
4303.758	2481
4305.279	2566
4306.799	2437
4308.321	2520
4309.842	2502
4311.361	2432
4312.882	2427
4314.401	2523
