400.0961	4149
402.6185	4162
405.1424	4081
407.6635	4136
410.1838	4095
412.7035	4113
415.2225	4224
417.7388	4159
420.2585	4323
422.7754	4297
425.2917	4329
427.8072	4309
430.3221	4377
432.8363	4312
435.3498	4343
437.8626	4471
440.3727	4433
442.8841	4380
445.3969	4467
447.907	4358
450.4142	4475
452.9229	4387
455.4289	4557
457.9362	4360
460.4449	4408
462.9488	4326
465.454	4364
467.9566	4329
470.4604	4410
472.9637	4367
475.4662	4392
477.966	4412
480.4671	4499
482.9656	4471
485.4633	4536
487.9645	4531
490.4608	4487
492.9566	4518
495.4536	4565
497.948	4523
500.4437	4498
502.9387	4476
505.431	4573
507.9226	4441
510.4136	4599
512.9079	4518
515.3975	4462
517.8864	4555
520.3746	4573
522.8622	4548
525.3491	4585
527.8394	4547
530.3249	4528
532.8098	4606
535.2939	4546
537.7774	4585
540.2623	4633
542.7444	4543
545.2259	4567
547.7067	4709
550.1868	4584
552.6683	4521
555.147	4596
557.6231	4606
560.1005	4580
562.5773	4592
565.0534	4655
567.5308	4613
570.0056	4647
572.4776	4660
574.951	4769
577.4237	4652
579.8978	4788
582.3671	4673
584.8378	4702
587.3079	4835
589.7773	4836
592.244	4796
594.714	4788
597.1793	4777
599.6461	4781
602.1121	4740
604.5754	4641
607.0421	4771
609.5042	4744
611.9675	4701
614.4282	4740
616.8902	4779
619.3515	4769
621.8122	4762
624.2702	4760
626.7296	4710
629.1863	4744
631.6423	4650
634.1017	4750
636.5563	4734
639.0104	4652
641.4658	4765
643.9185	4707
646.3725	4831
648.8239	4804
651.2766	4842
653.7266	4733
656.176	4757
658.6247	4916
661.0748	4826
663.5242	4854
665.9709	4813
668.417	4900
670.8624	4842
673.3092	4853
675.7533	4916
678.1968	4976
680.6395	4924
683.0817	4954
685.5251	4882
687.9659	4901
690.4061	4950
692.8456	4949
695.2844	4964
697.7226	4952
700.1621	5035
702.599	4983
705.0332	4969
707.4688	4926
709.9036	5057
712.3399	4953
714.7735	4926
717.2044	5068
719.6367	5115
722.0683	4987
724.4993	5040
726.9296	5118
729.3593	5041
731.7883	5090
734.2147	5150
736.6423	5157
739.0714	5122
741.4958	5120
743.9216	5169
746.3447	5033
748.7691	5212
751.1929	5172
753.616	5262
756.0366	5255
758.4584	5217
760.8776	5247
763.2982	5314
765.718	5241
768.1373	5190
770.5539	5198
772.9698	5248
775.3871	5279
777.8038	5207
780.2178	5278
782.6332	5308
785.0459	5261
787.458	5374
789.8714	5334
792.2842	5348
794.6943	5234
797.1038	5185
799.5127	5332
801.9209	5318
804.3324	5226
806.7393	5325
809.1456	5420
811.5513	5300
813.9562	5429
816.3625	5424
818.7663	5347
821.1693	5344
823.5718	5397
825.9735	5416
828.3746	5367
830.7771	5393
833.177	5423
835.5762	5330
837.9747	5468
840.3727	5388
842.772	5556
845.1666	5432
847.5626	5353
849.958	5448
852.3527	5605
854.7488	5546
857.1403	5596
859.5331	5440
861.9253	5415
864.3168	5594
866.7057	5470
869.098	5560
871.4876	5473
873.8746	5471
876.263	5410
878.6487	5571
881.0378	5415
883.4243	5519
885.8081	5424
888.1933	5506
890.5759	5390
892.9598	5515
895.343	5409
897.7256	5371
900.1057	5549
902.4871	5438
904.8659	5494
907.246	5469
909.6254	5533
912.0023	5679
914.3786	5687
916.7562	5737
919.1331	5899
921.5074	5903
923.8831	6046
926.2562	5949
928.6287	5963
931.0005	5910
933.3757	5850
935.7462	5835
938.1162	5754
940.4855	5850
942.8542	5864
945.2242	5787
947.5916	5910
949.9584	6035
952.3266	6005
954.6921	6231
957.0571	6209
959.4233	6373
961.787	6575
964.15	6483
966.5125	6407
968.8742	6308
971.2354	6017
973.5959	5970
975.9559	5943
978.3151	5797
980.6738	5885
983.0338	5843
985.3912	5784
987.7461	5727
990.1022	5629
992.4578	5691
994.8127	5699
997.1689	5737
999.5207	5708
1001.874	5755
1004.226	5668
1006.576	5744
1008.929	5697
1011.28	5731
1013.628	5702
1015.977	5632
1018.324	5668
1020.674	5688
1023.019	5711
1025.366	5838
1027.713	5780
1030.056	5739
1032.399	5690
1034.746	5711
1037.087	5668
1039.431	5782
1041.771	5750
1044.113	5867
1046.454	5791
1048.793	5747
1051.133	5811
1053.471	5824
1055.807	5707
1058.146	5850
1060.483	5817
1062.818	5705
1065.153	5815
1067.489	5772
1069.822	5776
1072.156	5787
1074.488	5814
1076.82	5876
1079.15	5841
1081.48	5817
1083.814	5834
1086.143	5707
1088.471	5809
1090.799	5752
1093.126	5790
1095.452	5829
1097.78	5802
1100.105	5855
1102.43	5864
1104.754	5714
1107.077	5869
1109.4	5953
1111.722	5804
1114.044	5856
1116.365	5844
1118.685	5775
1121.005	5816
1123.324	5896
1125.643	5827
1127.961	5967
1130.278	5905
1132.595	5860
1134.911	5789
1137.226	5897
1139.541	5798
1141.854	5729
1144.167	5739
1146.482	5904
1148.793	5814
1151.105	5946
1153.414	5819
1155.725	5823
1158.033	5866
1160.344	5856
1162.651	5865
1164.959	5871
1167.265	5935
1169.572	5860
1171.878	5897
1174.184	5975
1176.488	5831
1178.79	5868
1181.094	5993
1183.396	5947
1185.699	5992
1188.001	5977
1190.301	5815
1192.6	5845
1194.9	5974
1197.2	5882
1199.497	5768
1201.794	5872
1204.09	5868
1206.387	5940
1208.684	5830
1210.978	5881
1213.272	5866
1215.565	5944
1217.858	5871
1220.15	5866
1222.443	5948
1224.734	5926
1227.024	5974
1229.313	6031
1231.602	6047
1233.892	6117
1236.18	5944
1238.467	6136
1240.754	6108
1243.04	6040
1245.325	6181
1247.612	6163
1249.896	6129
1252.178	6148
1254.461	6098
1256.743	6117
1259.027	6140
1261.308	6146
1263.587	6098
1265.867	6223
1268.146	6040
1270.425	6327
1272.703	6150
1274.981	6317
1277.256	6217
1279.532	6099
1281.808	6133
1284.083	6073
1286.358	6085
1288.63	6016
1290.904	6003
1293.175	6065
1295.449	6012
1297.719	6204
1299.99	5996
1302.259	6064
1304.529	6119
1306.798	6134
1309.065	5975
1311.333	6179
1313.599	6136
1315.866	6039
1318.131	6145
1320.396	6017
1322.66	5999
1324.925	6224
1327.187	6032
1329.448	6241
1331.711	6179
1333.974	6292
1336.234	6218
1338.493	6141
1340.752	6201
1343.01	6056
1345.269	6119
1347.526	6125
1349.784	6150
1352.04	6119
1354.295	6041
1356.552	6010
1358.806	6029
1361.059	6056
1363.312	5967
1365.564	6073
1367.818	6073
1370.069	6169
1372.318	6242
1374.568	6242
1376.817	6156
1379.066	6138
1381.316	6155
1383.564	6071
1385.809	6168
1388.056	6262
1390.301	6294
1392.549	6313
1394.793	6547
1397.036	6405
1399.279	6359
1401.522	6587
1403.763	6491
1406.007	6520
1408.248	6406
1410.487	6422
1412.727	6478
1414.965	6424
1417.205	6540
1419.442	6387
1421.68	6302
1423.915	6437
1426.152	6347
1428.388	6252
1430.623	6435
1432.857	6457
1435.091	6392
1437.323	6478
1439.556	6432
1441.789	6453
1444.019	6393
1446.25	6464
1448.48	6483
1450.708	6456
1452.938	6628
1455.167	6604
1457.394	6530
1459.62	6558
1461.846	6446
1464.073	6509
1466.299	6325
1468.523	6445
1470.746	6478
1472.969	6311
1475.191	6247
1477.415	6375
1479.636	6248
1481.858	6160
1484.078	6218
1486.298	6229
1488.518	6126
1490.736	6145
1492.954	6104
1495.169	6075
1497.386	6078
1499.602	6175
1501.819	6173
1504.034	6102
1506.248	6041
1508.462	5996
1510.675	6049
1512.888	6076
1515.1	6074
1517.311	6088
1519.522	6032
1521.732	6013
1523.942	6051
1526.151	5977
1528.36	6203
1530.566	6066
1532.773	6079
1534.98	6038
1537.187	6110
1539.392	6123
1541.596	6067
1543.801	6150
1546.005	6131
1548.208	6103
1550.411	6125
1552.612	6220
1554.814	6247
1557.013	6107
1559.212	6157
1561.414	6220
1563.612	6283
1565.811	6262
1568.007	6274
1570.203	6261
1572.403	6165
1574.598	6273
1576.792	6331
1578.988	6150
1581.181	6298
1583.376	6102
1585.568	6287
1587.761	6320
1589.952	6196
1592.143	6278
1594.333	6317
1596.524	6252
1598.715	6257
1600.903	6337
1603.091	6243
1605.278	6328
1607.466	6334
1609.652	6328
1611.838	6412
1614.023	6385
1616.207	6322
1618.391	6372
1620.576	6226
1622.759	6382
1624.941	6257
1627.123	6282
1629.304	6449
1631.484	6430
1633.664	6305
1635.844	6342
1638.022	6227
1640.201	6370
1642.38	6345
1644.556	6420
1646.732	6382
1648.908	6414
1651.084	6495
1653.257	6424
1655.433	6351
1657.607	6329
1659.779	6390
1661.951	6401
1664.122	6420
1666.295	6556
1668.467	6472
1670.635	6434
1672.805	6366
1674.973	6456
1677.142	6311
1679.31	6415
1681.478	6412
1683.644	6448
1685.81	6354
1687.975	6406
1690.142	6348
1692.305	6401
1694.468	6397
1696.632	6366
1698.794	6276
1700.957	6322
1703.119	6320
1705.279	6314
1707.439	6316
1709.598	6290
1711.758	6295
1713.917	6309
1716.075	6328
1718.231	6275
1720.388	6327
1722.543	6294
1724.702	6339
1726.856	6244
1729.01	6228
1731.164	6360
1733.317	6276
1735.471	6314
1737.623	6301
1739.774	6344
1741.925	6218
1744.075	6295
1746.225	6368
1748.376	6271
1750.524	6387
1752.672	6252
1754.82	6116
1756.965	6308
1759.113	6248
1761.259	6371
1763.405	6242
1765.549	6328
1767.694	6246
1769.836	6213
1771.981	6309
1774.123	6314
1776.264	6234
1778.405	6328
1780.546	6320
1782.687	6340
1784.827	6370
1786.966	6340
1789.103	6300
1791.242	6438
1793.381	6376
1795.517	6412
1797.653	6331
1799.788	6338
1801.923	6289
1804.057	6421
1806.193	6342
1808.326	6338
1810.457	6281
1812.59	6428
1814.721	6409
1816.855	6227
1818.984	6324
1821.113	6366
1823.244	6203
1825.372	6461
1827.499	6314
1829.63	6275
1831.756	6333
1833.882	6241
1836.007	6307
1838.132	6303
1840.26	6321
1842.384	6243
1844.507	6371
1846.63	6245
1848.752	6311
1850.875	6301
1852.996	6285
1855.118	6217
1857.238	6228
1859.358	6238
1861.477	6276
1863.597	6312
1865.715	6284
1867.832	6258
1869.948	6216
1872.064	6256
1874.181	6168
1876.297	6281
1878.411	6199
1880.526	6393
1882.639	6180
1884.752	6199
1886.865	6277
1888.977	6235
1891.089	6285
1893.2	6340
1895.308	6333
1897.42	6271
1899.53	6396
1901.639	6245
1903.745	6354
1905.853	6330
1907.962	6311
1910.067	6404
1912.174	6258
1914.278	6394
1916.383	6326
1918.486	6372
1920.592	6369
1922.694	6320
1924.797	6375
1926.898	6410
1929	6428
1931.102	6385
1933.203	6441
1935.301	6321
1937.401	6411
1939.499	6218
1941.598	6295
1943.697	6486
1945.793	6419
1947.888	6247
1949.985	6378
1952.08	6360
1954.176	6437
1956.269	6329
1958.364	6302
1960.457	6386
1962.549	6238
1964.642	6373
1966.733	6381
1968.823	6400
1970.913	6367
1973.005	6332
1975.093	6366
1977.184	6318
1979.271	6238
1981.359	6311
1983.446	6345
1985.532	6289
1987.619	6341
1989.705	6400
1991.789	6208
1993.874	6402
1995.956	6331
1998.041	6399
2000.123	6355
2002.206	6309
2004.287	6332
2006.368	6186
2008.449	6362
2010.529	6255
2012.609	6274
2014.688	6338
2016.766	6324
2018.843	6329
2020.922	6222
2022.999	6344
2025.074	6248
2027.15	6309
2029.225	6361
2031.299	6214
2033.375	6146
2035.447	6345
2037.52	6207
2039.592	6194
2041.664	6300
2043.736	6299
2045.807	6208
2047.876	6249
2049.947	6316
2052.015	6194
2054.086	6258
2056.153	6406
2058.221	6257
2060.288	6377
2062.353	6188
2064.42	6365
2066.486	6290
2068.55	6346
2070.614	6372
2072.678	6344
2074.741	6328
2076.805	6379
2078.866	6279
2080.929	6256
2082.99	6285
2085.049	6182
2087.109	6292
2089.17	6324
2091.228	6366
2093.286	6239
2095.344	6220
2097.4	6433
2099.46	6303
2101.516	6342
2103.572	6180
2105.626	6350
2107.679	6326
2109.735	6216
2111.788	6310
2113.841	6289
2115.894	6247
2117.945	6271
2119.997	6254
2122.049	6372
2124.1	6277
2126.148	6295
2128.197	6342
2130.246	6322
2132.296	6392
2134.342	6245
2136.39	6237
2138.437	6299
2140.483	6318
2142.527	6224
2144.574	6201
2146.619	6210
2148.661	6196
2150.705	6094
2152.747	6243
2154.792	6243
2156.832	6262
2158.874	6256
2160.915	6158
2162.954	6252
2164.995	6213
2167.034	6221
2169.072	6245
2171.111	6256
2173.148	6328
2175.186	6080
2177.223	6139
2179.258	6219
2181.294	6153
2183.328	6182
2185.362	6186
2187.398	6134
2189.431	6111
2191.463	6210
2193.495	6197
2195.528	6143
2197.56	6278
2199.59	6159
2201.62	6191
2203.649	6090
2205.678	6133
2207.708	6126
2209.737	6214
2211.764	6107
2213.791	6162
2215.817	6134
2217.843	6019
2219.87	6178
2221.895	6218
2223.919	6084
2225.942	6191
2227.966	5997
2229.988	6143
2232.012	6160
2234.032	6114
2236.054	6221
2238.074	6107
2240.095	6119
2242.116	6091
2244.135	6278
2246.153	6098
2248.171	6151
2250.188	6176
2252.208	6065
2254.223	6115
2256.239	6136
2258.255	6128
2260.269	6210
2262.283	6107
2264.3	6187
2266.312	6045
2268.325	6131
2270.336	6090
2272.349	6046
2274.362	6276
2276.372	6120
2278.383	6235
2280.392	6146
2282.402	6080
2284.409	6026
2286.418	6151
2288.427	6142
2290.433	6058
2292.441	6160
2294.446	6217
2296.453	6092
2298.459	6098
2300.463	5995
2302.466	6172
2304.471	6103
2306.475	5989
2308.477	6059
2310.478	6006
2312.481	6110
2314.481	6010
2316.481	6084
2318.482	5968
2320.482	6139
2322.48	6080
2324.48	6079
2326.478	6031
2328.476	6036
2330.473	6049
2332.469	6043
2334.465	5916
2336.46	6031
2338.454	5940
2340.45	6078
2342.444	6027
2344.437	5966
2346.43	5947
2348.421	5955
2350.414	6044
2352.405	5825
2354.396	5931
2356.386	6008
2358.376	6048
2360.366	5995
2362.355	5962
2364.343	5922
2366.331	6002
2368.317	5984
2370.304	5860
2372.292	5955
2374.278	6000
2376.262	5934
2378.247	5919
2380.23	5960
2382.216	5974
2384.199	5943
2386.181	5873
2388.163	5927
2390.144	5934
2392.127	5981
2394.107	5883
2396.087	5924
2398.066	5935
2400.046	5842
2402.023	5861
2404.004	5931
2405.981	5797
2407.957	5898
2409.934	5937
2411.91	5877
2413.886	5906
2415.862	5835
2417.836	5912
2419.809	5823
2421.784	5887
2423.756	5880
2425.73	5783
2427.701	5827
2429.672	5912
2431.644	5921
2433.615	5906
2435.586	5827
2437.555	5901
2439.523	5821
2441.491	5761
2443.459	5870
2445.428	5949
2447.395	5795
2449.361	5946
2451.327	5764
2453.292	5839
2455.257	5855
2457.223	5961
2459.187	5837
2461.15	5826
2463.113	5752
2465.076	5857
2467.039	5892
2468.999	5911
2470.96	5835
2472.921	5900
2474.881	5883
2476.841	5726
2478.8	5729
2480.759	5814
2482.717	5824
2484.675	5755
2486.63	5825
2488.589	5717
2490.545	5834
2492.5	5867
2494.455	5805
2496.408	5770
2498.364	5824
2500.318	5876
2502.27	5776
2504.223	5837
2506.174	5837
2508.126	5770
2510.078	5759
2512.03	5714
2513.979	5766
2515.927	5753
2517.877	5641
2519.826	5726
2521.775	5676
2523.722	5779
2525.668	5793
2527.616	5764
2529.561	5779
2531.508	5739
2533.452	5763
2535.398	5725
2537.342	5742
2539.284	5739
2541.229	5704
2543.173	5672
2545.114	5875
2547.055	5696
2548.996	5708
2550.938	5738
2552.878	5737
2554.817	5749
2556.756	5711
2558.695	5747
2560.633	5739
2562.572	5731
2564.509	5734
2566.445	5733
2568.382	5774
2570.317	5770
2572.254	5709
2574.189	5699
2576.123	5758
2578.057	5763
2579.99	5752
2581.923	5794
2583.855	5709
2585.788	5759
2587.719	5655
2589.65	5778
2591.579	5842
2593.511	5853
2595.44	5761
2597.37	5711
2599.297	5722
2601.225	5740
2603.153	5742
2605.08	5766
2607.007	5870
2608.932	5701
2610.858	5691
2612.782	5700
2614.709	5762
2616.632	5714
2618.556	5677
2620.478	5792
2622.401	5720
2624.324	5635
2626.247	5792
2628.167	5811
2630.088	5690
2632.008	5720
2633.928	5706
2635.848	5784
2637.766	5751
2639.684	5727
2641.603	5692
2643.519	5735
2645.437	5825
2647.353	5774
2649.27	5742
2651.184	5699
2653.099	5753
2655.014	5657
2656.928	5746
2658.842	5720
2660.755	5704
2662.667	5678
2664.579	5733
2666.491	5643
2668.402	5800
2670.312	5841
2672.222	5742
2674.132	5617
2676.042	5662
2677.951	5659
2679.859	5724
2681.766	5728
2683.674	5637
2685.582	5680
2687.488	5703
2689.392	5686
2691.298	5664
2693.202	5698
2695.107	5706
2697.012	5678
2698.914	5713
2700.817	5594
2702.72	5640
2704.622	5600
2706.524	5630
2708.425	5626
2710.326	5638
2712.225	5580
2714.125	5633
2716.024	5670
2717.923	5654
2719.822	5610
2721.719	5722
2723.616	5648
2725.512	5624
2727.41	5581
2729.305	5601
2731.201	5646
2733.095	5551
2734.99	5648
2736.884	5612
2738.778	5687
2740.67	5580
2742.562	5535
2744.455	5627
2746.346	5562
2748.238	5564
2750.129	5649
2752.018	5697
2753.907	5548
2755.797	5639
2757.687	5659
2759.575	5603
2761.462	5493
2763.349	5599
2765.237	5511
2767.124	5653
2769.009	5585
2770.894	5623
2772.779	5540
2774.663	5664
2776.547	5603
2778.431	5575
2780.314	5558
2782.197	5585
2784.078	5516
2785.96	5617
2787.842	5620
2789.723	5598
2791.603	5574
2793.483	5539
2795.362	5551
2797.241	5506
2799.121	5594
2800.997	5435
2802.874	5585
2804.751	5517
2806.628	5548
2808.506	5595
2810.38	5561
2812.255	5652
2814.13	5535
2816.003	5529
2817.878	5592
2819.752	5549
2821.623	5603
2823.496	5570
2825.368	5502
2827.238	5430
2829.111	5631
2830.98	5574
2832.851	5548
2834.719	5578
2836.589	5536
2838.458	5597
2840.327	5596
2842.193	5591
2844.061	5577
2845.927	5654
2847.794	5619
2849.66	5684
2851.525	5618
2853.39	5672
2855.254	5785
2857.117	5727
2858.983	5601
2860.845	5648
2862.707	5772
2864.569	5782
2866.431	5767
2868.293	5745
2870.154	5835
2872.013	5885
2873.873	5989
2875.733	5986
2877.592	5986
2879.451	6075
2881.309	6152
2883.166	6214
2885.022	6291
2886.879	6204
2888.736	6257
2890.591	6277
2892.446	6377
2894.301	6279
2896.155	6282
2898.009	6225
2899.863	6267
2901.716	6208
2903.568	6170
2905.419	6299
2907.27	6391
2909.123	6215
2910.973	6309
2912.824	6289
2914.673	6365
2916.521	6395
2918.372	6401
2920.22	6468
2922.067	6536
2923.914	6568
2925.761	6565
2927.607	6602
2929.455	6582
2931.301	6661
2933.144	6701
2934.99	6652
2936.833	6631
2938.678	6688
2940.522	6758
2942.364	6932
2944.207	6959
2946.048	7077
2947.891	7157
2949.731	7273
2951.571	7232
2953.412	7222
2955.25	7114
2957.09	7149
2958.93	6994
2960.767	7070
2962.606	6932
2964.443	6835
2966.279	6801
2968.116	6737
2969.953	6700
2971.788	6546
2973.623	6392
2975.457	6320
2977.292	6239
2979.127	6273
2980.959	6204
2982.792	6056
2984.624	6176
2986.455	6122
2988.288	6029
2990.119	6007
2991.949	6014
2993.779	5937
2995.608	5967
2997.439	5911
2999.268	5815
3001.096	5759
3002.923	5674
3004.751	5674
3006.578	5710
3008.406	5681
3010.232	5691
3012.057	5499
3013.883	5609
3015.706	5556
3017.532	5530
3019.356	5486
3021.179	5486
3023.002	5383
3024.823	5401
3026.646	5429
3028.469	5369
3030.289	5358
3032.11	5420
3033.93	5415
3035.749	5302
3037.57	5399
3039.39	5329
3041.207	5308
3043.026	5307
3044.842	5313
3046.661	5328
3048.477	5402
3050.294	5283
3052.109	5317
3053.925	5364
3055.739	5271
3057.555	5355
3059.368	5216
3061.181	5270
3062.995	5293
3064.807	5281
3066.62	5265
3068.433	5365
3070.243	5238
3072.054	5299
3073.865	5316
3075.675	5235
3077.485	5206
3079.293	5210
3081.102	5125
3082.911	5198
3084.719	5184
3086.527	5295
3088.333	5211
3090.139	5196
3091.945	5188
3093.75	5239
3095.557	5180
3097.361	5132
3099.165	5142
3100.969	5086
3102.772	5101
3104.575	5091
3106.379	5105
3108.181	5049
3109.982	5137
3111.783	5059
3113.584	5106
3115.386	5099
3117.186	5066
3118.985	5014
3120.783	5056
3122.582	5093
3124.381	4909
3126.179	5004
3127.975	5043
3129.772	4972
3131.569	5103
3133.365	5012
3135.161	5037
3136.956	5027
3138.751	5102
3140.544	5019
3142.338	5041
3144.132	5009
3145.925	4931
3147.717	5030
3149.509	4978
3151.301	4889
3153.091	5100
3154.884	5045
3156.673	4963
3158.462	4953
3160.252	5087
3162.041	5011
3163.831	4947
3165.618	4971
3167.405	4910
3169.193	4956
3170.979	4910
3172.767	4949
3174.553	4864
3176.338	4875
3178.123	4954
3179.907	4931
3181.692	4952
3183.477	4880
3185.259	4988
3187.042	4955
3188.824	4970
3190.607	4951
3192.389	4889
3194.17	4966
3195.951	4938
3197.73	4923
3199.51	4905
3201.289	4873
3203.07	4960
3204.848	4912
3206.626	4903
3208.403	4922
3210.18	4956
3211.959	4877
3213.735	4871
3215.511	4929
3217.285	4829
3219.06	4965
3220.836	4878
3222.611	4950
3224.384	4995
3226.158	4979
3227.929	5020
3229.702	4919
3231.476	4865
3233.248	4922
3235.018	4849
3236.789	4832
3238.56	4915
3240.33	4934
3242.1	4936
3243.869	4898
3245.637	4968
3247.405	4848
3249.172	4884
3250.941	4864
3252.707	4771
3254.474	4808
3256.24	4928
3258.006	4857
3259.772	4902
3261.537	4795
3263.301	4859
3265.065	4896
3266.828	4954
3268.592	4949
3270.355	4971
3272.117	4864
3273.878	4923
3275.64	4933
3277.401	4909
3279.162	4902
3280.922	4887
3282.682	4778
3284.441	4954
3286.199	4853
3287.959	4902
3289.716	4886
3291.475	4890
3293.232	4964
3294.988	4996
3296.744	4866
3298.501	4952
3300.256	4826
3302.011	4836
3303.766	4742
3305.52	5006
3307.275	4826
3309.028	4903
3310.781	4891
3312.533	4917
3314.285	4853
3316.038	4748
3317.789	4778
3319.54	4925
3321.289	4875
3323.039	4864
3324.789	4911
3326.539	4806
3328.288	4876
3330.035	4966
3331.783	4867
3333.531	4782
3335.28	4853
3337.025	4876
3338.771	4946
3340.518	4754
3342.262	4847
3344.009	4861
3345.753	4849
3347.497	4814
3349.24	4718
3350.983	4815
3352.726	4812
3354.469	4756
3356.212	4735
3357.952	4896
3359.694	4804
3361.434	4791
3363.176	4789
3364.916	4790
3366.654	4754
3368.394	4714
3370.132	4770
3371.871	4686
3373.61	4719
3375.346	4722
3377.083	4762
3378.82	4764
3380.556	4794
3382.292	4712
3384.027	4770
3385.763	4594
3387.497	4695
3389.231	4672
3390.965	4716
3392.698	4734
3394.431	4660
3396.164	4665
3397.896	4724
3399.627	4624
3401.36	4763
3403.09	4661
3404.82	4690
3406.55	4673
3408.279	4616
3410.01	4632
3411.738	4608
3413.467	4657
3415.194	4678
3416.92	4586
3418.647	4676
3420.375	4573
3422.102	4648
3423.827	4639
3425.553	4639
3427.277	4708
3429.003	4580
3430.727	4588
3432.451	4599
3434.173	4545
3435.896	4555
3437.62	4588
3439.343	4659
3441.063	4439
3442.785	4568
3444.505	4513
3446.226	4578
3447.948	4504
3449.666	4504
3451.386	4508
3453.104	4547
3454.823	4572
3456.541	4518
3458.259	4625
3459.976	4443
3461.693	4548
3463.408	4488
3465.125	4551
3466.841	4523
3468.556	4536
3470.271	4413
3471.985	4398
3473.698	4454
3475.414	4491
3477.126	4558
3478.838	4420
3480.55	4454
3482.263	4402
3483.975	4435
3485.686	4423
3487.396	4358
3489.106	4300
3490.817	4486
3492.526	4456
3494.236	4390
3495.944	4441
3497.652	4367
3499.359	4363
3501.066	4425
3502.775	4432
3504.481	4354
3506.187	4428
3507.893	4346
3509.598	4362
3511.304	4318
3513.009	4376
3514.713	4332
3516.417	4323
3518.12	4338
3519.821	4337
3521.525	4251
3523.228	4334
3524.929	4322
3526.631	4162
3528.33	4292
3530.032	4350
3531.733	4433
3533.433	4293
3535.131	4303
3536.83	4316
3538.529	4225
3540.227	4264
3541.925	4207
3543.623	4265
3545.319	4287
3547.016	4204
3548.712	4197
3550.408	4333
3552.103	4226
3553.798	4267
3555.491	4191
3557.188	4223
3558.88	4320
3560.574	4142
3562.266	4228
3563.959	4218
3565.651	4219
3567.343	4168
3569.035	4236
3570.725	4149
3572.415	4090
3574.106	4278
3575.797	4201
3577.485	4291
3579.174	4176
3580.863	4213
3582.551	4143
3584.238	4134
3585.926	4136
3587.613	4180
3589.3	4147
3590.986	4126
3592.671	4122
3594.357	4172
3596.042	4020
3597.726	4112
3599.41	4049
3601.094	4178
3602.778	4124
3604.461	4094
3606.143	4112
3607.825	4069
3609.507	4072
3611.188	3982
3612.87	4083
3614.551	4003
3616.229	4043
3617.909	4063
3619.589	3959
3621.269	4044
3622.948	4080
3624.625	4011
3626.302	4075
3627.98	4085
3629.657	3986
3631.334	4074
3633.01	3997
3634.686	3984
3636.361	4026
3638.036	4063
3639.712	4034
3641.385	3964
3643.06	3878
3644.732	4057
3646.405	4052
3648.08	3929
3649.751	3983
3651.424	3926
3653.094	3973
3654.766	3899
3656.436	3947
3658.106	3999
3659.777	4014
3661.446	3971
3663.115	3899
3664.783	3956
3666.452	3951
3668.121	3999
3669.788	4004
3671.454	3921
3673.121	3910
3674.789	3915
3676.455	3939
3678.12	3913
3679.784	3939
3681.45	3797
3683.114	3958
3684.779	3943
3686.442	3959
3688.105	3907
3689.768	3899
3691.43	3920
3693.093	3988
3694.754	3968
3696.415	3887
3698.076	3912
3699.736	3841
3701.396	3848
3703.057	3818
3704.716	3883
3706.375	3899
3708.034	3864
3709.692	3853
3711.351	3821
3713.008	3832
3714.665	3797
3716.321	3955
3717.977	3859
3719.634	3846
3721.29	3892
3722.945	3856
3724.598	3841
3726.253	3854
3727.907	3869
3729.561	3872
3731.214	3945
3732.867	3752
3734.518	3814
3736.171	3791
3737.824	3746
3739.474	3863
3741.125	3824
3742.775	3679
3744.425	3910
3746.074	3813
3747.725	3833
3749.373	3766
3751.022	3764
3752.669	3822
3754.318	3789
3755.966	3701
3757.612	3821
3759.259	3833
3760.905	3892
3762.55	3691
3764.197	3762
3765.842	3807
3767.486	3807
3769.131	3752
3770.774	3713
3772.417	3757
3774.061	3834
3775.705	3717
3777.347	3704
3778.988	3744
3780.629	3738
3782.271	3803
3783.912	3749
3785.552	3751
3787.192	3704
3788.831	3678
3790.472	3793
3792.112	3771
3793.75	3687
3795.388	3711
3797.024	3754
3798.661	3753
3800.3	3800
3801.936	3722
3803.572	3717
3805.208	3692
3806.844	3666
3808.48	3658
3810.115	3715
3811.748	3618
3813.382	3683
3815.016	3697
3816.649	3709
3818.283	3711
3819.914	3669
3821.547	3644
3823.178	3684
3824.809	3579
3826.441	3596
3828.072	3748
3829.701	3754
3831.331	3641
3832.96	3650
3834.591	3680
3836.219	3594
3837.847	3624
3839.475	3638
3841.102	3615
3842.729	3701
3844.357	3686
3845.984	3690
3847.609	3664
3849.234	3602
3850.86	3600
3852.485	3642
3854.11	3582
3855.734	3629
3857.357	3543
3858.981	3616
3860.603	3540
3862.227	3595
3863.848	3581
3865.471	3570
3867.092	3590
3868.713	3558
3870.334	3562
3871.954	3565
3873.575	3660
3875.194	3675
3876.813	3656
3878.433	3585
3880.051	3579
3881.669	3662
3883.286	3611
3884.904	3607
3886.52	3579
3888.138	3528
3889.754	3587
3891.37	3529
3892.985	3553
3894.6	3496
3896.216	3455
3897.831	3521
3899.444	3544
3901.058	3533
3902.67	3595
3904.283	3620
3905.897	3647
3907.509	3640
3909.121	3576
3910.731	3487
3912.342	3589
3913.954	3544
3915.563	3584
3917.174	3579
3918.783	3532
3920.391	3484
3922.002	3543
3923.611	3496
3925.218	3536
3926.826	3502
3928.432	3557
3930.039	3540
3931.647	3456
3933.253	3520
3934.859	3529
3936.464	3464
3938.068	3500
3939.675	3493
3941.278	3510
3942.883	3538
3944.486	3492
3946.089	3499
3947.692	3443
3949.295	3550
3950.898	3527
3952.499	3561
3954.1	3525
3955.7	3367
3957.303	3455
3958.903	3476
3960.502	3528
3962.101	3327
3963.7	3471
3965.301	3508
3966.899	3403
3968.497	3551
3970.094	3475
3971.691	3437
3973.288	3450
3974.885	3409
3976.481	3434
3978.077	3486
3979.672	3460
3981.267	3424
3982.863	3461
3984.457	3477
3986.051	3400
3987.645	3441
3989.238	3424
3990.831	3452
3992.425	3368
3994.017	3381
3995.607	3393
3997.199	3444
3998.79	3352
4000.382	3337
4001.973	3331
4003.561	3394
4005.151	3380
4006.741	3366
4008.331	3378
4009.918	3381
4011.507	3413
4013.095	3348
4014.681	3366
4016.269	3399
4017.856	3376
4019.443	3348
4021.028	3387
4022.614	3383
4024.199	3368
4025.785	3352
4027.37	3344
4028.953	3317
4030.536	3311
4032.12	3347
4033.704	3383
4035.287	3337
4036.869	3332
4038.45	3274
4040.032	3338
4041.613	3331
4043.195	3256
4044.776	3272
4046.356	3283
4047.935	3311
4049.515	3295
4051.095	3277
4052.674	3252
4054.251	3382
4055.829	3263
4057.406	3247
4058.985	3276
4060.562	3353
4062.139	3274
4063.715	3321
4065.29	3206
4066.865	3340
4068.442	3225
4070.016	3274
4071.59	3234
4073.164	3271
4074.738	3311
4076.312	3258
4077.885	3304
4079.458	3220
4081.03	3236
4082.602	3272
4084.173	3226
4085.745	3262
4087.315	3363
4088.886	3280
4090.456	3261
4092.026	3300
4093.596	3201
4095.165	3235
4096.734	3251
4098.301	3187
4099.869	3195
4101.437	3264
4103.006	3186
4104.572	3256
4106.139	3213
4107.704	3170
4109.27	3228
4110.837	3163
4112.401	3184
4113.966	3225
4115.53	3218
4117.094	3221
4118.659	3252
4120.223	3255
4121.785	3212
4123.347	3217
4124.909	3200
4126.471	3198
4128.034	3178
4129.595	3259
4131.155	3165
4132.716	3174
4134.275	3155
4135.836	3194
4137.395	3131
4138.955	3216
4140.513	3138
4142.071	3121
4143.628	3211
4145.188	3160
4146.745	3090
4148.302	3154
4149.858	3145
4151.414	3209
4152.971	3121
4154.526	3027
4156.081	3214
4157.635	3071
4159.189	3128
4160.745	3032
4162.298	3111
4163.852	3120
4165.405	3189
4166.957	3121
4168.51	3069
4170.063	3151
4171.614	3058
4173.166	3102
4174.717	3093
4176.267	3136
4177.817	3081
4179.368	3060
4180.917	3102
4182.466	3091
4184.016	3094
4185.564	3090
4187.112	3005
4188.66	3069
4190.207	3053
4191.754	3067
4193.301	3068
4194.848	3116
4196.394	3123
4197.94	3024
4199.484	3122
4201.03	3070
4202.575	3089
4204.12	3028
4205.663	3105
4207.207	3036
4208.75	3034
4210.292	3046
4211.836	3029
4213.378	3062
4214.92	2956
4216.46	3017
4218.002	2976
4219.544	3018
4221.083	3048
4222.625	3020
4224.164	3008
4225.703	3004
4227.244	3014
4228.782	2998
4230.32	3066
4231.857	2981
4233.395	2982
4234.933	2970
4236.471	3014
4238.007	2991
4239.542	3025
4241.078	2969
4242.614	2988
4244.15	3005
4245.685	2919
4247.219	3007
4248.753	3011
4250.287	2999
4251.82	2991
4253.354	3009
4254.887	2979
4256.419	3023
4257.951	2977
4259.483	2988
4261.016	3024
4262.547	3022
4264.078	3015
4265.608	2978
4267.137	3024
4268.668	2912
4270.197	2965
4271.727	2980
4273.254	3030
4274.783	2977
4276.311	3007
4277.84	2927
4279.366	3027
4280.894	2958
4282.42	2974
4283.946	3039
4285.473	2999
4286.998	2929
4288.523	2942
4290.047	2920
4291.572	2963
4293.096	2973
4294.622	3002
4296.144	2929
4297.668	2960
4299.19	2976
4300.713	2870
4302.236	2924
4303.758	2942
4305.279	2898
4306.799	2913
4308.321	2977
4309.842	2880
4311.361	2904
4312.882	2890
4314.401	2932
