400.0961	6018
402.6185	6110
405.1424	6209
407.6635	6202
410.1838	6078
412.7035	6123
415.2225	6118
417.7388	6284
420.2585	6204
422.7754	6402
425.2917	6450
427.8072	6570
430.3221	6524
432.8363	6622
435.3498	6609
437.8626	6581
440.3727	6581
442.8841	6569
445.3969	6622
447.907	6487
450.4142	6651
452.9229	6485
455.4289	6677
457.9362	6473
460.4449	6627
462.9488	6527
465.454	6497
467.9566	6524
470.4604	6560
472.9637	6693
475.4662	6620
477.966	6585
480.4671	6561
482.9656	6655
485.4633	6668
487.9645	6723
490.4608	6620
492.9566	6524
495.4536	6646
497.948	6747
500.4437	6651
502.9387	6731
505.431	6783
507.9226	6621
510.4136	6734
512.9079	6819
515.3975	6752
517.8864	6731
520.3746	6933
522.8622	6821
525.3491	6829
527.8394	6807
530.3249	6781
532.8098	6806
535.2939	6862
537.7774	6795
540.2623	6822
542.7444	6894
545.2259	6784
547.7067	6751
550.1868	6855
552.6683	6896
555.147	6864
557.6231	6894
560.1005	6927
562.5773	6939
565.0534	7059
567.5308	7001
570.0056	7058
572.4776	7106
574.951	7177
577.4237	7062
579.8978	7223
582.3671	7077
584.8378	7137
587.3079	7172
589.7773	7241
592.244	7202
594.714	7261
597.1793	7234
599.6461	7173
602.1121	7193
604.5754	7163
607.0421	7155
609.5042	7069
611.9675	7209
614.4282	7192
616.8902	6966
619.3515	7033
621.8122	7050
624.2702	7144
626.7296	7129
629.1863	7048
631.6423	7143
634.1017	7168
636.5563	7205
639.0104	7227
641.4658	7074
643.9185	7147
646.3725	7176
648.8239	7258
651.2766	7230
653.7266	7231
656.176	7219
658.6247	7160
661.0748	7145
663.5242	7453
665.9709	7193
668.417	7239
670.8624	7287
673.3092	7399
675.7533	7241
678.1968	7353
680.6395	7248
683.0817	7302
685.5251	7275
687.9659	7391
690.4061	7247
692.8456	7449
695.2844	7397
697.7226	7465
700.1621	7494
702.599	7440
705.0332	7409
707.4688	7487
709.9036	7384
712.3399	7513
714.7735	7475
717.2044	7590
719.6367	7581
722.0683	7594
724.4993	7558
726.9296	7598
729.3593	7688
731.7883	7566
734.2147	7728
736.6423	7656
739.0714	7745
741.4958	7819
743.9216	7753
746.3447	7683
748.7691	7693
751.1929	7871
753.616	7851
756.0366	7953
758.4584	7919
760.8776	7971
763.2982	7800
765.718	7917
768.1373	7936
770.5539	7877
772.9698	7856
775.3871	7960
777.8038	7912
780.2178	7979
782.6332	7963
785.0459	7873
787.458	7990
789.8714	8008
792.2842	7915
794.6943	7918
797.1038	8105
799.5127	8050
801.9209	7912
804.3324	8051
806.7393	8009
809.1456	8034
811.5513	8068
813.9562	8009
816.3625	7961
818.7663	8108
821.1693	8122
823.5718	8019
825.9735	8013
828.3746	8057
830.7771	8072
833.177	8142
835.5762	8035
837.9747	8163
840.3727	8005
842.772	8128
845.1666	8170
847.5626	8228
849.958	8238
852.3527	8316
854.7488	8228
857.1403	8279
859.5331	8129
861.9253	8258
864.3168	8301
866.7057	8304
869.098	8279
871.4876	8151
873.8746	8257
876.263	8330
878.6487	8297
881.0378	8290
883.4243	8072
885.8081	8205
888.1933	8207
890.5759	8120
892.9598	8099
895.343	8261
897.7256	8230
900.1057	8312
902.4871	8215
904.8659	8223
907.246	8286
909.6254	8364
912.0023	8298
914.3786	8432
916.7562	8530
919.1331	8437
921.5074	8565
923.8831	8518
926.2562	8563
928.6287	8533
931.0005	8744
933.3757	8631
935.7462	8684
938.1162	8719
940.4855	8790
942.8542	8734
945.2242	9011
947.5916	9099
949.9584	9113
952.3266	9449
954.6921	9943
957.0571	10039
959.4233	10529
961.787	10406
964.15	10507
966.5125	10230
968.8742	9697
971.2354	9506
973.5959	9107
975.9559	8848
978.3151	8825
980.6738	8753
983.0338	8707
985.3912	8670
987.7461	8673
990.1022	8504
992.4578	8520
994.8127	8570
997.1689	8461
999.5207	8659
1001.874	8582
1004.226	8615
1006.576	8549
1008.929	8572
1011.28	8626
1013.628	8649
1015.977	8552
1018.324	8536
1020.674	8474
1023.019	8520
1025.366	8617
1027.713	8542
1030.056	8581
1032.399	8817
1034.746	8655
1037.087	8715
1039.431	8750
1041.771	8727
1044.113	8709
1046.454	8670
1048.793	8722
1051.133	8486
1053.471	8719
1055.807	8749
1058.146	8780
1060.483	8778
1062.818	8744
1065.153	8819
1067.489	8761
1069.822	8853
1072.156	8859
1074.488	8829
1076.82	8880
1079.15	8842
1081.48	8837
1083.814	8710
1086.143	8817
1088.471	8766
1090.799	8751
1093.126	8661
1095.452	8808
1097.78	8608
1100.105	8797
1102.43	8913
1104.754	8753
1107.077	8800
1109.4	8667
1111.722	8761
1114.044	8672
1116.365	8785
1118.685	8778
1121.005	8899
1123.324	8688
1125.643	8841
1127.961	8728
1130.278	8760
1132.595	8736
1134.911	8763
1137.226	8810
1139.541	8729
1141.854	8770
1144.167	8703
1146.482	8883
1148.793	8837
1151.105	8834
1153.414	8711
1155.725	8746
1158.033	8992
1160.344	8826
1162.651	8744
1164.959	8783
1167.265	8766
1169.572	8703
1171.878	8843
1174.184	8823
1176.488	8889
1178.79	8751
1181.094	8929
1183.396	8838
1185.699	8783
1188.001	8765
1190.301	8728
1192.6	8753
1194.9	8710
1197.2	8674
1199.497	8829
1201.794	8710
1204.09	8750
1206.387	8755
1208.684	8751
1210.978	8837
1213.272	8903
1215.565	8803
1217.858	8848
1220.15	8908
1222.443	8827
1224.734	8844
1227.024	9018
1229.313	8805
1231.602	8954
1233.892	9085
1236.18	9003
1238.467	9166
1240.754	9077
1243.04	9217
1245.325	9169
1247.612	9208
1249.896	9098
1252.178	9149
1254.461	9093
1256.743	9043
1259.027	9204
1261.308	9250
1263.587	9246
1265.867	9179
1268.146	9143
1270.425	9188
1272.703	8999
1274.981	9177
1277.256	9016
1279.532	9173
1281.808	9101
1284.083	9068
1286.358	8998
1288.63	9042
1290.904	9086
1293.175	9055
1295.449	8995
1297.719	9029
1299.99	8926
1302.259	8911
1304.529	9008
1306.798	9066
1309.065	8955
1311.333	8922
1313.599	9004
1315.866	9006
1318.131	8979
1320.396	9137
1322.66	8955
1324.925	9006
1327.187	9199
1329.448	9056
1331.711	9051
1333.974	9123
1336.234	9140
1338.493	9084
1340.752	8978
1343.01	9022
1345.269	9118
1347.526	9120
1349.784	9043
1352.04	9028
1354.295	8941
1356.552	9042
1358.806	9033
1361.059	9076
1363.312	8983
1365.564	9036
1367.818	8961
1370.069	9060
1372.318	9257
1374.568	9053
1376.817	9053
1379.066	9172
1381.316	9103
1383.564	9155
1385.809	9108
1388.056	9230
1390.301	9270
1392.549	9245
1394.793	9366
1397.036	9289
1399.279	9277
1401.522	9326
1403.763	9247
1406.007	9290
1408.248	9163
1410.487	9151
1412.727	9354
1414.965	9243
1417.205	9172
1419.442	9320
1421.68	9314
1423.915	9295
1426.152	9399
1428.388	9276
1430.623	9249
1432.857	9425
1435.091	9374
1437.323	9396
1439.556	9380
1441.789	9425
1444.019	9498
1446.25	9482
1448.48	9612
1450.708	9521
1452.938	9538
1455.167	9565
1457.394	9482
1459.62	9500
1461.846	9559
1464.073	9416
1466.299	9394
1468.523	9313
1470.746	9375
1472.969	9320
1475.191	9234
1477.415	9259
1479.636	9306
1481.858	9256
1484.078	9187
1486.298	9259
1488.518	9154
1490.736	9183
1492.954	9095
1495.169	9060
1497.386	9080
1499.602	8999
1501.819	9089
1504.034	8971
1506.248	9065
1508.462	9008
1510.675	9001
1512.888	9197
1515.1	9021
1517.311	9084
1519.522	8922
1521.732	8952
1523.942	9044
1526.151	9085
1528.36	8900
1530.566	9111
1532.773	9084
1534.98	9030
1537.187	9095
1539.392	9096
1541.596	9099
1543.801	9251
1546.005	8974
1548.208	9087
1550.411	9268
1552.612	9216
1554.814	9236
1557.013	9269
1559.212	9214
1561.414	9264
1563.612	9260
1565.811	9223
1568.007	9204
1570.203	9256
1572.403	9160
1574.598	9280
1576.792	9284
1578.988	9268
1581.181	9229
1583.376	9395
1585.568	9250
1587.761	9221
1589.952	9327
1592.143	9383
1594.333	9253
1596.524	9349
1598.715	9402
1600.903	9331
1603.091	9484
1605.278	9379
1607.466	9405
1609.652	9247
1611.838	9391
1614.023	9420
1616.207	9246
1618.391	9337
1620.576	9370
1622.759	9492
1624.941	9476
1627.123	9239
1629.304	9438
1631.484	9524
1633.664	9511
1635.844	9395
1638.022	9421
1640.201	9485
1642.38	9526
1644.556	9570
1646.732	9426
1648.908	9384
1651.084	9504
1653.257	9481
1655.433	9500
1657.607	9506
1659.779	9618
1661.951	9365
1664.122	9636
1666.295	9680
1668.467	9570
1670.635	9662
1672.805	9542
1674.973	9508
1677.142	9475
1679.31	9528
1681.478	9405
1683.644	9521
1685.81	9648
1687.975	9493
1690.142	9493
1692.305	9426
1694.468	9491
1696.632	9459
1698.794	9383
1700.957	9421
1703.119	9373
1705.279	9259
1707.439	9534
1709.598	9257
1711.758	9528
1713.917	9243
1716.075	9296
1718.231	9495
1720.388	9245
1722.543	9269
1724.702	9387
1726.856	9404
1729.01	9361
1731.164	9212
1733.317	9430
1735.471	9292
1737.623	9359
1739.774	9344
1741.925	9413
1744.075	9335
1746.225	9252
1748.376	9294
1750.524	9347
1752.672	9319
1754.82	9336
1756.965	9484
1759.113	9351
1761.259	9482
1763.405	9461
1765.549	9441
1767.694	9270
1769.836	9266
1771.981	9325
1774.123	9308
1776.264	9403
1778.405	9525
1780.546	9525
1782.687	9225
1784.827	9531
1786.966	9483
1789.103	9448
1791.242	9557
1793.381	9403
1795.517	9470
1797.653	9411
1799.788	9450
1801.923	9445
1804.057	9382
1806.193	9424
1808.326	9513
1810.457	9360
1812.59	9564
1814.721	9426
1816.855	9284
1818.984	9384
1821.113	9408
1823.244	9456
1825.372	9251
1827.499	9439
1829.63	9341
1831.756	9389
1833.882	9396
1836.007	9371
1838.132	9448
1840.26	9301
1842.384	9358
1844.507	9463
1846.63	9511
1848.752	9359
1850.875	9133
1852.996	9370
1855.118	9266
1857.238	9269
1859.358	9338
1861.477	9362
1863.597	9269
1865.715	9329
1867.832	9321
1869.948	9360
1872.064	9332
1874.181	9346
1876.297	9406
1878.411	9333
1880.526	9406
1882.639	9210
1884.752	9475
1886.865	9479
1888.977	9356
1891.089	9436
1893.2	9333
1895.308	9413
1897.42	9459
1899.53	9421
1901.639	9380
1903.745	9442
1905.853	9464
1907.962	9421
1910.067	9465
1912.174	9359
1914.278	9481
1916.383	9329
1918.486	9522
1920.592	9531
1922.694	9351
1924.797	9492
1926.898	9363
1929	9513
1931.102	9497
1933.203	9486
1935.301	9504
1937.401	9399
1939.499	9434
1941.598	9523
1943.697	9636
1945.793	9489
1947.888	9538
1949.985	9442
1952.08	9628
1954.176	9488
1956.269	9401
1958.364	9476
1960.457	9431
1962.549	9598
1964.642	9355
1966.733	9380
1968.823	9443
1970.913	9368
1973.005	9360
1975.093	9429
1977.184	9378
1979.271	9482
1981.359	9320
1983.446	9372
1985.532	9286
1987.619	9496
1989.705	9356
1991.789	9528
1993.874	9400
1995.956	9384
1998.041	9274
2000.123	9455
2002.206	9365
2004.287	9414
2006.368	9409
2008.449	9333
2010.529	9333
2012.609	9304
2014.688	9255
2016.766	9454
2018.843	9303
2020.922	9436
2022.999	9440
2025.074	9341
2027.15	9310
2029.225	9400
2031.299	9256
2033.375	9165
2035.447	9355
2037.52	9300
2039.592	9463
2041.664	9250
2043.736	9303
2045.807	9382
2047.876	9290
2049.947	9437
2052.015	9280
2054.086	9364
2056.153	9288
2058.221	9364
2060.288	9378
2062.353	9467
2064.42	9357
2066.486	9190
2068.55	9309
2070.614	9306
2072.678	9396
2074.741	9295
2076.805	9366
2078.866	9300
2080.929	9229
2082.99	9290
2085.049	9345
2087.109	9373
2089.17	9321
2091.228	9429
2093.286	9373
2095.344	9419
2097.4	9343
2099.46	9341
2101.516	9295
2103.572	9242
2105.626	9261
2107.679	9525
2109.735	9415
2111.788	9161
2113.841	9086
2115.894	9454
2117.945	9434
2119.997	9250
2122.049	9303
2124.1	9357
2126.148	9354
2128.197	9214
2130.246	9287
2132.296	9290
2134.342	9348
2136.39	9311
2138.437	9276
2140.483	9354
2142.527	9324
2144.574	9300
2146.619	9201
2148.661	9298
2150.705	9342
2152.747	9197
2154.792	9235
2156.832	9262
2158.874	9282
2160.915	9123
2162.954	9379
2164.995	9178
2167.034	9270
2169.072	9256
2171.111	9341
2173.148	9188
2175.186	9167
2177.223	9100
2179.258	9147
2181.294	9210
2183.328	9217
2185.362	9027
2187.398	9145
2189.431	9134
2191.463	9220
2193.495	9071
2195.528	9238
2197.56	9113
2199.59	9087
2201.62	9131
2203.649	9078
2205.678	9085
2207.708	8954
2209.737	9004
2211.764	8991
2213.791	9025
2215.817	9030
2217.843	9096
2219.87	9030
2221.895	9060
2223.919	9101
2225.942	9037
2227.966	9100
2229.988	9056
2232.012	8969
2234.032	8978
2236.054	9066
2238.074	9022
2240.095	8972
2242.116	8924
2244.135	9038
2246.153	8904
2248.171	8922
2250.188	8859
2252.208	8995
2254.223	8933
2256.239	8934
2258.255	9089
2260.269	8951
2262.283	8945
2264.3	8949
2266.312	9037
2268.325	9061
2270.336	9070
2272.349	9003
2274.362	9107
2276.372	9050
2278.383	9022
2280.392	8966
2282.402	8960
2284.409	8829
2286.418	8886
2288.427	9035
2290.433	8943
2292.441	9010
2294.446	8910
2296.453	8927
2298.459	8966
2300.463	8831
2302.466	8978
2304.471	8995
2306.475	9041
2308.477	8988
2310.478	8788
2312.481	8956
2314.481	8933
2316.481	8896
2318.482	8971
2320.482	8803
2322.48	8766
2324.48	9086
2326.478	8905
2328.476	8923
2330.473	9012
2332.469	8862
2334.465	8956
2336.46	8876
2338.454	8808
2340.45	8852
2342.444	8745
2344.437	8925
2346.43	8837
2348.421	8842
2350.414	8714
2352.405	8951
2354.396	8874
2356.386	8786
2358.376	8809
2360.366	8696
2362.355	8707
2364.343	8821
2366.331	8771
2368.317	8731
2370.304	8792
2372.292	8730
2374.278	8716
2376.262	8762
2378.247	8711
2380.23	8668
2382.216	8588
2384.199	8764
2386.181	8774
2388.163	8725
2390.144	8772
2392.127	8751
2394.107	8612
2396.087	8654
2398.066	8687
2400.046	8651
2402.023	8573
2404.004	8584
2405.981	8647
2407.957	8697
2409.934	8612
2411.91	8681
2413.886	8611
2415.862	8619
2417.836	8659
2419.809	8725
2421.784	8568
2423.756	8742
2425.73	8737
2427.701	8572
2429.672	8613
2431.644	8603
2433.615	8522
2435.586	8522
2437.555	8597
2439.523	8628
2441.491	8729
2443.459	8659
2445.428	8745
2447.395	8676
2449.361	8654
2451.327	8648
2453.292	8655
2455.257	8581
2457.223	8678
2459.187	8644
2461.15	8510
2463.113	8630
2465.076	8531
2467.039	8509
2468.999	8597
2470.96	8452
2472.921	8595
2474.881	8424
2476.841	8476
2478.8	8489
2480.759	8476
2482.717	8397
2484.675	8557
2486.63	8339
2488.589	8557
2490.545	8573
2492.5	8516
2494.455	8467
2496.408	8418
2498.364	8432
2500.318	8448
2502.27	8501
2504.223	8373
2506.174	8482
2508.126	8468
2510.078	8438
2512.03	8496
2513.979	8537
2515.927	8400
2517.877	8465
2519.826	8280
2521.775	8457
2523.722	8516
2525.668	8458
2527.616	8377
2529.561	8423
2531.508	8445
2533.452	8437
2535.398	8477
2537.342	8347
2539.284	8445
2541.229	8303
2543.173	8406
2545.114	8328
2547.055	8336
2548.996	8298
2550.938	8348
2552.878	8462
2554.817	8316
2556.756	8325
2558.695	8402
2560.633	8434
2562.572	8408
2564.509	8375
2566.445	8363
2568.382	8261
2570.317	8510
2572.254	8272
2574.189	8408
2576.123	8336
2578.057	8332
2579.99	8406
2581.923	8364
2583.855	8388
2585.788	8324
2587.719	8264
2589.65	8532
2591.579	8328
2593.511	8372
2595.44	8390
2597.37	8188
2599.297	8335
2601.225	8241
2603.153	8241
2605.08	8265
2607.007	8441
2608.932	8246
2610.858	8277
2612.782	8410
2614.709	8302
2616.632	8399
2618.556	8360
2620.478	8443
2622.401	8371
2624.324	8331
2626.247	8325
2628.167	8395
2630.088	8445
2632.008	8404
2633.928	8472
2635.848	8401
2637.766	8354
2639.684	8322
2641.603	8353
2643.519	8335
2645.437	8336
2647.353	8397
2649.27	8268
2651.184	8339
2653.099	8300
2655.014	8305
2656.928	8324
2658.842	8332
2660.755	8383
2662.667	8511
2664.579	8286
2666.491	8353
2668.402	8288
2670.312	8322
2672.222	8249
2674.132	8399
2676.042	8389
2677.951	8152
2679.859	8317
2681.766	8272
2683.674	8300
2685.582	8284
2687.488	8234
2689.392	8269
2691.298	8194
2693.202	8283
2695.107	8089
2697.012	8104
2698.914	8245
2700.817	8207
2702.72	8229
2704.622	8268
2706.524	8140
2708.425	8302
2710.326	8280
2712.225	8174
2714.125	8334
2716.024	8151
2717.923	8200
2719.822	8094
2721.719	8074
2723.616	8049
2725.512	8129
2727.41	8153
2729.305	8050
2731.201	8122
2733.095	8185
2734.99	8211
2736.884	8095
2738.778	8173
2740.67	8235
2742.562	8089
2744.455	8174
2746.346	8089
2748.238	8069
2750.129	8072
2752.018	8034
2753.907	8051
2755.797	8073
2757.687	7991
2759.575	8050
2761.462	8060
2763.349	8119
2765.237	8012
2767.124	8064
2769.009	8085
2770.894	8072
2772.779	7993
2774.663	8022
2776.547	8029
2778.431	8004
2780.314	8015
2782.197	8028
2784.078	8202
2785.96	7916
2787.842	8004
2789.723	8086
2791.603	8082
2793.483	8092
2795.362	8045
2797.241	8056
2799.121	8043
2800.997	8003
2802.874	7956
2804.751	8082
2806.628	7952
2808.506	7991
2810.38	7925
2812.255	8048
2814.13	8034
2816.003	7989
2817.878	8061
2819.752	7870
2821.623	8009
2823.496	7840
2825.368	7998
2827.238	7932
2829.111	8017
2830.98	7974
2832.851	7773
2834.719	8004
2836.589	7875
2838.458	7998
2840.327	7839
2842.193	8074
2844.061	7933
2845.927	7918
2847.794	7870
2849.66	8066
2851.525	8032
2853.39	7917
2855.254	7884
2857.117	7935
2858.983	8103
2860.845	7881
2862.707	8234
2864.569	8146
2866.431	8143
2868.293	8081
2870.154	8206
2872.013	8199
2873.873	8274
2875.733	8353
2877.592	8355
2879.451	8304
2881.309	8373
2883.166	8449
2885.022	8407
2886.879	8513
2888.736	8471
2890.591	8599
2892.446	8413
2894.301	8582
2896.155	8643
2898.009	8436
2899.863	8514
2901.716	8328
2903.568	8378
2905.419	8401
2907.27	8448
2909.123	8538
2910.973	8340
2912.824	8630
2914.673	8576
2916.521	8406
2918.372	8605
2920.22	8713
2922.067	8803
2923.914	8953
2925.761	8870
2927.607	8983
2929.455	8949
2931.301	9032
2933.144	8923
2934.99	9180
2936.833	9168
2938.678	9323
2940.522	9320
2942.364	9326
2944.207	9405
2946.048	9471
2947.891	9460
2949.731	9440
2951.571	9399
2953.412	9449
2955.25	9341
2957.09	9310
2958.93	9267
2960.767	9145
2962.606	8941
2964.443	8882
2966.279	8972
2968.116	8740
2969.953	8670
2971.788	8789
2973.623	8696
2975.457	8546
2977.292	8667
2979.127	8685
2980.959	8436
2982.792	8366
2984.624	8409
2986.455	8441
2988.288	8476
2990.119	8333
2991.949	8355
2993.779	8399
2995.608	8291
2997.439	8269
2999.268	8118
3001.096	8123
3002.923	8058
3004.751	8079
3006.578	8103
3008.406	7962
3010.232	7971
3012.057	7840
3013.883	7756
3015.706	7760
3017.532	7780
3019.356	7671
3021.179	7652
3023.002	7701
3024.823	7510
3026.646	7750
3028.469	7413
3030.289	7493
3032.11	7488
3033.93	7583
3035.749	7523
3037.57	7585
3039.39	7626
3041.207	7431
3043.026	7523
3044.842	7372
3046.661	7462
3048.477	7446
3050.294	7496
3052.109	7523
3053.925	7384
3055.739	7387
3057.555	7480
3059.368	7466
3061.181	7449
3062.995	7391
3064.807	7480
3066.62	7513
3068.433	7294
3070.243	7291
3072.054	7366
3073.865	7442
3075.675	7344
3077.485	7415
3079.293	7312
3081.102	7318
3082.911	7310
3084.719	7202
3086.527	7325
3088.333	7271
3090.139	7219
3091.945	7228
3093.75	7207
3095.557	7240
3097.361	7229
3099.165	7336
3100.969	7107
3102.772	7141
3104.575	7199
3106.379	7174
3108.181	7143
3109.982	7226
3111.783	7153
3113.584	7107
3115.386	7189
3117.186	7055
3118.985	7036
3120.783	7147
3122.582	7098
3124.381	7045
3126.179	7092
3127.975	7099
3129.772	6981
3131.569	7038
3133.365	7074
3135.161	7092
3136.956	7078
3138.751	7024
3140.544	7076
3142.338	7212
3144.132	7012
3145.925	6867
3147.717	7140
3149.509	7024
3151.301	6955
3153.091	7041
3154.884	6971
3156.673	7008
3158.462	6910
3160.252	6916
3162.041	6940
3163.831	6960
3165.618	6862
3167.405	6909
3169.193	7034
3170.979	6843
3172.767	6858
3174.553	6884
3176.338	6872
3178.123	6911
3179.907	7035
3181.692	6921
3183.477	6897
3185.259	6845
3187.042	6906
3188.824	6965
3190.607	6764
3192.389	6823
3194.17	6838
3195.951	6917
3197.73	6890
3199.51	6894
3201.289	6817
3203.07	6947
3204.848	6891
3206.626	6828
3208.403	6820
3210.18	6924
3211.959	6763
3213.735	6857
3215.511	6816
3217.285	6839
3219.06	6873
3220.836	6872
3222.611	6819
3224.384	6839
3226.158	6817
3227.929	6757
3229.702	6944
3231.476	6793
3233.248	6764
3235.018	6812
3236.789	6756
3238.56	6943
3240.33	6789
3242.1	6880
3243.869	6785
3245.637	6800
3247.405	6797
3249.172	6947
3250.941	6719
3252.707	6794
3254.474	6816
3256.24	6720
3258.006	6780
3259.772	6715
3261.537	6839
3263.301	6757
3265.065	6813
3266.828	6820
3268.592	6814
3270.355	6893
3272.117	6822
3273.878	6743
3275.64	6886
3277.401	6780
3279.162	6900
3280.922	6819
3282.682	6698
3284.441	6796
3286.199	6787
3287.959	6834
3289.716	6672
3291.475	6835
3293.232	6776
3294.988	6798
3296.744	6740
3298.501	6822
3300.256	6687
3302.011	6720
3303.766	6733
3305.52	6828
3307.275	6663
3309.028	6677
3310.781	6749
3312.533	6790
3314.285	6730
3316.038	6734
3317.789	6827
3319.54	6770
3321.289	6717
3323.039	6753
3324.789	6802
3326.539	6680
3328.288	6660
3330.035	6729
3331.783	6655
3333.531	6730
3335.28	6780
3337.025	6589
3338.771	6734
3340.518	6705
3342.262	6640
3344.009	6591
3345.753	6652
3347.497	6635
3349.24	6674
3350.983	6577
3352.726	6702
3354.469	6647
3356.212	6588
3357.952	6429
3359.694	6630
3361.434	6619
3363.176	6468
3364.916	6583
3366.654	6481
3368.394	6538
3370.132	6598
3371.871	6497
3373.61	6499
3375.346	6563
3377.083	6456
3378.82	6535
3380.556	6457
3382.292	6486
3384.027	6427
3385.763	6571
3387.497	6538
3389.231	6511
3390.965	6632
3392.698	6394
3394.431	6358
3396.164	6439
3397.896	6527
3399.627	6428
3401.36	6540
3403.09	6450
3404.82	6436
3406.55	6356
3408.279	6430
3410.01	6343
3411.738	6305
3413.467	6429
3415.194	6514
3416.92	6438
3418.647	6524
3420.375	6322
3422.102	6329
3423.827	6390
3425.553	6303
3427.277	6265
3429.003	6296
3430.727	6322
3432.451	6322
3434.173	6291
3435.896	6355
3437.62	6259
3439.343	6356
3441.063	6375
3442.785	6249
3444.505	6285
3446.226	6214
3447.948	6316
3449.666	6167
3451.386	6229
3453.104	6252
3454.823	6258
3456.541	6268
3458.259	6241
3459.976	6261
3461.693	6129
3463.408	6230
3465.125	6250
3466.841	6199
3468.556	6051
3470.271	6107
3471.985	6211
3473.698	6225
3475.414	6145
3477.126	5998
3478.838	6019
3480.55	6162
3482.263	6120
3483.975	6073
3485.686	6077
3487.396	6073
3489.106	6131
3490.817	5948
3492.526	6076
3494.236	6035
3495.944	6049
3497.652	6018
3499.359	6070
3501.066	5893
3502.775	6087
3504.481	5963
3506.187	6009
3507.893	5945
3509.598	5982
3511.304	5865
3513.009	5891
3514.713	5883
3516.417	5936
3518.12	5979
3519.821	5872
3521.525	5860
3523.228	5873
3524.929	5900
3526.631	5846
3528.33	5813
3530.032	5783
3531.733	5899
3533.433	5903
3535.131	5816
3536.83	5849
3538.529	5932
3540.227	5887
3541.925	5829
3543.623	5781
3545.319	5745
3547.016	5898
3548.712	5805
3550.408	5727
3552.103	5743
3553.798	5730
3555.491	5761
3557.188	5815
3558.88	5784
3560.574	5766
3562.266	5723
3563.959	5727
3565.651	5683
3567.343	5655
3569.035	5758
3570.725	5701
3572.415	5744
3574.106	5638
3575.797	5673
3577.485	5702
3579.174	5724
3580.863	5657
3582.551	5647
3584.238	5663
3585.926	5627
3587.613	5715
3589.3	5747
3590.986	5667
3592.671	5582
3594.357	5651
3596.042	5650
3597.726	5591
3599.41	5649
3601.094	5653
3602.778	5540
3604.461	5591
3606.143	5480
3607.825	5566
3609.507	5581
3611.188	5477
3612.87	5529
3614.551	5572
3616.229	5478
3617.909	5370
3619.589	5469
3621.269	5534
3622.948	5406
3624.625	5425
3626.302	5502
3627.98	5495
3629.657	5455
3631.334	5530
3633.01	5358
3634.686	5441
3636.361	5380
3638.036	5391
3639.712	5325
3641.385	5388
3643.06	5391
3644.732	5271
3646.405	5334
3648.08	5295
3649.751	5340
3651.424	5265
3653.094	5272
3654.766	5226
3656.436	5274
3658.106	5262
3659.777	5238
3661.446	5345
3663.115	5283
3664.783	5163
3666.452	5227
3668.121	5260
3669.788	5185
3671.454	5169
3673.121	5225
3674.789	5211
3676.455	5205
3678.12	5214
3679.784	5191
3681.45	5285
3683.114	5120
3684.779	5295
3686.442	5187
3688.105	5208
3689.768	5217
3691.43	5247
3693.093	5090
3694.754	5208
3696.415	5149
3698.076	5161
3699.736	5105
3701.396	5138
3703.057	5142
3704.716	5141
3706.375	5141
3708.034	5213
3709.692	5097
3711.351	5111
3713.008	5077
3714.665	5088
3716.321	5141
3717.977	5113
3719.634	5162
3721.29	5223
3722.945	5094
3724.598	5015
3726.253	5104
3727.907	5182
3729.561	4997
3731.214	5053
3732.867	5140
3734.518	5046
3736.171	5059
3737.824	5097
3739.474	5108
3741.125	4949
3742.775	5062
3744.425	5113
3746.074	4973
3747.725	4979
3749.373	5119
3751.022	4945
3752.669	5018
3754.318	4996
3755.966	5048
3757.612	4919
3759.259	4923
3760.905	5058
3762.55	5033
3764.197	4834
3765.842	5007
3767.486	5013
3769.131	5004
3770.774	5075
3772.417	5000
3774.061	4945
3775.705	4865
3777.347	4974
3778.988	4905
3780.629	4971
3782.271	4890
3783.912	4879
3785.552	4950
3787.192	4924
3788.831	4781
3790.472	4912
3792.112	4840
3793.75	4840
3795.388	4890
3797.024	4780
3798.661	4866
3800.3	4874
3801.936	4768
3803.572	4814
3805.208	4732
3806.844	4822
3808.48	4845
3810.115	4742
3811.748	4781
3813.382	4884
3815.016	4787
3816.649	4712
3818.283	4825
3819.914	4733
3821.547	4746
3823.178	4823
3824.809	4683
3826.441	4803
3828.072	4718
3829.701	4767
3831.331	4814
3832.96	4732
3834.591	4651
3836.219	4705
3837.847	4753
3839.475	4788
3841.102	4825
3842.729	4784
3844.357	4752
3845.984	4667
3847.609	4786
3849.234	4747
3850.86	4655
3852.485	4681
3854.11	4753
3855.734	4671
3857.357	4610
3858.981	4656
3860.603	4681
3862.227	4635
3863.848	4614
3865.471	4658
3867.092	4726
3868.713	4652
3870.334	4615
3871.954	4681
3873.575	4664
3875.194	4517
3876.813	4636
3878.433	4592
3880.051	4606
3881.669	4580
3883.286	4724
3884.904	4596
3886.52	4553
3888.138	4602
3889.754	4585
3891.37	4498
3892.985	4558
3894.6	4568
3896.216	4507
3897.831	4486
3899.444	4598
3901.058	4540
3902.67	4527
3904.283	4585
3905.897	4513
3907.509	4624
3909.121	4489
3910.731	4541
3912.342	4446
3913.954	4471
3915.563	4487
3917.174	4455
3918.783	4577
3920.391	4450
3922.002	4486
3923.611	4591
3925.218	4426
3926.826	4538
3928.432	4492
3930.039	4549
3931.647	4563
3933.253	4427
3934.859	4408
3936.464	4452
3938.068	4472
3939.675	4420
3941.278	4458
3942.883	4399
3944.486	4550
3946.089	4514
3947.692	4429
3949.295	4397
3950.898	4453
3952.499	4458
3954.1	4458
3955.7	4491
3957.303	4340
3958.903	4354
3960.502	4432
3962.101	4358
3963.7	4364
3965.301	4339
3966.899	4380
3968.497	4395
3970.094	4378
3971.691	4356
3973.288	4364
3974.885	4383
3976.481	4421
3978.077	4367
3979.672	4294
3981.267	4318
3982.863	4423
3984.457	4258
3986.051	4338
3987.645	4390
3989.238	4319
3990.831	4350
3992.425	4277
3994.017	4312
3995.607	4350
3997.199	4275
3998.79	4286
4000.382	4277
4001.973	4310
4003.561	4264
4005.151	4272
4006.741	4226
4008.331	4209
4009.918	4198
4011.507	4263
4013.095	4189
4014.681	4285
4016.269	4254
4017.856	4276
4019.443	4243
4021.028	4227
4022.614	4186
4024.199	4247
4025.785	4081
4027.37	4218
4028.953	4127
4030.536	4177
4032.12	4136
4033.704	4077
4035.287	4133
4036.869	4187
4038.45	4090
4040.032	4186
4041.613	4066
4043.195	4178
4044.776	4099
4046.356	4107
4047.935	4124
4049.515	4123
4051.095	4154
4052.674	4028
4054.251	4102
4055.829	4103
4057.406	4155
4058.985	4088
4060.562	4099
4062.139	4068
4063.715	4097
4065.29	4068
4066.865	4079
4068.442	4020
4070.016	4076
4071.59	4057
4073.164	4003
4074.738	4069
4076.312	4105
4077.885	3970
4079.458	4006
4081.03	3957
4082.602	3987
4084.173	3987
4085.745	4049
4087.315	4008
4088.886	4026
4090.456	4017
4092.026	4034
4093.596	3992
4095.165	3967
4096.734	4039
4098.301	3978
4099.869	4035
4101.437	3986
4103.006	4010
4104.572	4054
4106.139	3957
4107.704	3972
4109.27	3953
4110.837	3994
4112.401	3956
4113.966	4014
4115.53	3999
4117.094	3899
4118.659	3936
4120.223	3913
4121.785	3883
4123.347	3896
4124.909	3913
4126.471	3837
4128.034	3771
4129.595	3829
4131.155	4010
4132.716	3922
4134.275	3876
4135.836	3841
4137.395	3918
4138.955	3911
4140.513	3828
4142.071	3845
4143.628	3817
4145.188	3932
4146.745	3810
4148.302	3817
4149.858	3821
4151.414	3892
4152.971	3939
4154.526	3793
4156.081	3824
4157.635	3807
4159.189	3819
4160.745	3844
4162.298	3722
4163.852	3763
4165.405	3869
4166.957	3773
4168.51	3768
4170.063	3650
4171.614	3729
4173.166	3742
4174.717	3787
4176.267	3696
4177.817	3803
4179.368	3712
4180.917	3708
4182.466	3703
4184.016	3759
4185.564	3681
4187.112	3610
4188.66	3716
4190.207	3635
4191.754	3729
4193.301	3634
4194.848	3645
4196.394	3687
4197.94	3604
4199.484	3683
4201.03	3747
4202.575	3697
4204.12	3579
4205.663	3640
4207.207	3610
4208.75	3644
4210.292	3594
4211.836	3736
4213.378	3684
4214.92	3663
4216.46	3655
4218.002	3667
4219.544	3598
4221.083	3623
4222.625	3596
4224.164	3582
4225.703	3632
4227.244	3592
4228.782	3504
4230.32	3578
4231.857	3534
4233.395	3642
4234.933	3530
4236.471	3607
4238.007	3631
4239.542	3639
4241.078	3531
4242.614	3641
4244.15	3609
4245.685	3564
4247.219	3555
4248.753	3598
4250.287	3531
4251.82	3648
4253.354	3591
4254.887	3549
4256.419	3567
4257.951	3550
4259.483	3529
4261.016	3510
4262.547	3513
4264.078	3525
4265.608	3467
4267.137	3550
4268.668	3458
4270.197	3510
4271.727	3471
4273.254	3466
4274.783	3529
4276.311	3471
4277.84	3509
4279.366	3497
4280.894	3525
4282.42	3514
4283.946	3485
4285.473	3471
4286.998	3450
4288.523	3445
4290.047	3472
4291.572	3400
4293.096	3437
4294.622	3401
4296.144	3449
4297.668	3483
4299.19	3434
4300.713	3500
4302.236	3432
4303.758	3350
4305.279	3491
4306.799	3409
4308.321	3438
4309.842	3469
4311.361	3474
4312.882	3385
4314.401	3415
