400.0961	4709
402.6185	4765
405.1424	4738
407.6635	4777
410.1838	4732
412.7035	4677
415.2225	4855
417.7388	4738
420.2585	4835
422.7754	4954
425.2917	4949
427.8072	5074
430.3221	4971
432.8363	5031
435.3498	4933
437.8626	5077
440.3727	4960
442.8841	5045
445.3969	4968
447.907	5075
450.4142	5087
452.9229	4979
455.4289	5032
457.9362	5035
460.4449	5008
462.9488	5058
465.454	5018
467.9566	4984
470.4604	5199
472.9637	5002
475.4662	5104
477.966	5100
480.4671	4991
482.9656	5045
485.4633	5113
487.9645	5056
490.4608	5157
492.9566	5165
495.4536	5116
497.948	5222
500.4437	5229
502.9387	5138
505.431	5225
507.9226	5134
510.4136	5235
512.9079	5187
515.3975	5235
517.8864	5198
520.3746	5297
522.8622	5159
525.3491	5292
527.8394	5225
530.3249	5192
532.8098	5204
535.2939	5234
537.7774	5316
540.2623	5236
542.7444	5213
545.2259	5226
547.7067	5251
550.1868	5321
552.6683	5221
555.147	5360
557.6231	5258
560.1005	5372
562.5773	5342
565.0534	5348
567.5308	5306
570.0056	5317
572.4776	5309
574.951	5408
577.4237	5439
579.8978	5483
582.3671	5444
584.8378	5424
587.3079	5428
589.7773	5539
592.244	5453
594.714	5455
597.1793	5507
599.6461	5363
602.1121	5598
604.5754	5547
607.0421	5453
609.5042	5420
611.9675	5445
614.4282	5544
616.8902	5440
619.3515	5597
621.8122	5567
624.2702	5519
626.7296	5445
629.1863	5433
631.6423	5463
634.1017	5389
636.5563	5455
639.0104	5554
641.4658	5437
643.9185	5475
646.3725	5432
648.8239	5574
651.2766	5496
653.7266	5444
656.176	5566
658.6247	5504
661.0748	5475
663.5242	5539
665.9709	5509
668.417	5659
670.8624	5617
673.3092	5567
675.7533	5597
678.1968	5569
680.6395	5593
683.0817	5636
685.5251	5596
687.9659	5692
690.4061	5600
692.8456	5675
695.2844	5722
697.7226	5594
700.1621	5589
702.599	5695
705.0332	5761
707.4688	5807
709.9036	5709
712.3399	5758
714.7735	5773
717.2044	5785
719.6367	5820
722.0683	5684
724.4993	5871
726.9296	5811
729.3593	5761
731.7883	5936
734.2147	5788
736.6423	5828
739.0714	5965
741.4958	5913
743.9216	5992
746.3447	5906
748.7691	5907
751.1929	6043
753.616	6036
756.0366	5967
758.4584	6038
760.8776	5964
763.2982	6051
765.718	6016
768.1373	6085
770.5539	6057
772.9698	6196
775.3871	6084
777.8038	5961
780.2178	6116
782.6332	6120
785.0459	6024
787.458	6128
789.8714	6089
792.2842	6080
794.6943	6019
797.1038	6030
799.5127	6132
801.9209	6074
804.3324	6194
806.7393	6137
809.1456	6108
811.5513	6075
813.9562	6162
816.3625	6145
818.7663	6206
821.1693	6238
823.5718	6170
825.9735	6165
828.3746	6180
830.7771	6151
833.177	6175
835.5762	6178
837.9747	6269
840.3727	6241
842.772	6298
845.1666	6235
847.5626	6210
849.958	6201
852.3527	6419
854.7488	6325
857.1403	6293
859.5331	6327
861.9253	6351
864.3168	6253
866.7057	6232
869.098	6416
871.4876	6283
873.8746	6331
876.263	6283
878.6487	6257
881.0378	6306
883.4243	6351
885.8081	6245
888.1933	6217
890.5759	6272
892.9598	6359
895.343	6307
897.7256	6335
900.1057	6237
902.4871	6315
904.8659	6372
907.246	6361
909.6254	6376
912.0023	6360
914.3786	6410
916.7562	6513
919.1331	6606
921.5074	6600
923.8831	6607
926.2562	6544
928.6287	6628
931.0005	6661
933.3757	6545
935.7462	6621
938.1162	6591
940.4855	6638
942.8542	6744
945.2242	6785
947.5916	6920
949.9584	7066
952.3266	7105
954.6921	7267
957.0571	7671
959.4233	7770
961.787	7843
964.15	7925
966.5125	7834
968.8742	7476
971.2354	7233
973.5959	7119
975.9559	6933
978.3151	6766
980.6738	6792
983.0338	6607
985.3912	6643
987.7461	6464
990.1022	6425
992.4578	6421
994.8127	6547
997.1689	6564
999.5207	6570
1001.874	6545
1004.226	6567
1006.576	6596
1008.929	6614
1011.28	6661
1013.628	6618
1015.977	6444
1018.324	6496
1020.674	6591
1023.019	6568
1025.366	6661
1027.713	6602
1030.056	6700
1032.399	6530
1034.746	6678
1037.087	6584
1039.431	6669
1041.771	6577
1044.113	6622
1046.454	6514
1048.793	6757
1051.133	6686
1053.471	6652
1055.807	6666
1058.146	6816
1060.483	6656
1062.818	6699
1065.153	6748
1067.489	6745
1069.822	6900
1072.156	6871
1074.488	6935
1076.82	6915
1079.15	6826
1081.48	6859
1083.814	6656
1086.143	6824
1088.471	6764
1090.799	6594
1093.126	6578
1095.452	6839
1097.78	6685
1100.105	6653
1102.43	6642
1104.754	6789
1107.077	6741
1109.4	6642
1111.722	6811
1114.044	6695
1116.365	6710
1118.685	6661
1121.005	6660
1123.324	6781
1125.643	6674
1127.961	6829
1130.278	6734
1132.595	6747
1134.911	6702
1137.226	6688
1139.541	6745
1141.854	6891
1144.167	6650
1146.482	6706
1148.793	6708
1151.105	6662
1153.414	6801
1155.725	6699
1158.033	6735
1160.344	6742
1162.651	6847
1164.959	6767
1167.265	6829
1169.572	6811
1171.878	6680
1174.184	6704
1176.488	6762
1178.79	6784
1181.094	6905
1183.396	6883
1185.699	6733
1188.001	6750
1190.301	6758
1192.6	6790
1194.9	6737
1197.2	6695
1199.497	6829
1201.794	6661
1204.09	6864
1206.387	6802
1208.684	6802
1210.978	6829
1213.272	6723
1215.565	6803
1217.858	6870
1220.15	6844
1222.443	6798
1224.734	6863
1227.024	6928
1229.313	6903
1231.602	6952
1233.892	6866
1236.18	6888
1238.467	7044
1240.754	7052
1243.04	6954
1245.325	6991
1247.612	7067
1249.896	6985
1252.178	7077
1254.461	7083
1256.743	7046
1259.027	6960
1261.308	6977
1263.587	6948
1265.867	7045
1268.146	7019
1270.425	7111
1272.703	7045
1274.981	7004
1277.256	7012
1279.532	7009
1281.808	6933
1284.083	6983
1286.358	7041
1288.63	6998
1290.904	6839
1293.175	6972
1295.449	6925
1297.719	6919
1299.99	6964
1302.259	7004
1304.529	6785
1306.798	6919
1309.065	6991
1311.333	6807
1313.599	6975
1315.866	7006
1318.131	6954
1320.396	6997
1322.66	6888
1324.925	6928
1327.187	6985
1329.448	6863
1331.711	6884
1333.974	6985
1336.234	6916
1338.493	7081
1340.752	6948
1343.01	7001
1345.269	6942
1347.526	6871
1349.784	6948
1352.04	6998
1354.295	6891
1356.552	7006
1358.806	6994
1361.059	6957
1363.312	7073
1365.564	6857
1367.818	6855
1370.069	6954
1372.318	7020
1374.568	6955
1376.817	7056
1379.066	7035
1381.316	7005
1383.564	7049
1385.809	7077
1388.056	6950
1390.301	7094
1392.549	7122
1394.793	7176
1397.036	7205
1399.279	7097
1401.522	7096
1403.763	7167
1406.007	7084
1408.248	7274
1410.487	7189
1412.727	7179
1414.965	7114
1417.205	7159
1419.442	7132
1421.68	7241
1423.915	7275
1426.152	7167
1428.388	7230
1430.623	7132
1432.857	7210
1435.091	7230
1437.323	7207
1439.556	7405
1441.789	7347
1444.019	7150
1446.25	7314
1448.48	7276
1450.708	7340
1452.938	7347
1455.167	7311
1457.394	7329
1459.62	7303
1461.846	7398
1464.073	7354
1466.299	7349
1468.523	7225
1470.746	7204
1472.969	7129
1475.191	7179
1477.415	7196
1479.636	7155
1481.858	7077
1484.078	7089
1486.298	7058
1488.518	7005
1490.736	7006
1492.954	7034
1495.169	7052
1497.386	7039
1499.602	6968
1501.819	7061
1504.034	6979
1506.248	6981
1508.462	6942
1510.675	6915
1512.888	6922
1515.1	6943
1517.311	7058
1519.522	6922
1521.732	7024
1523.942	6929
1526.151	6928
1528.36	6977
1530.566	6962
1532.773	6985
1534.98	6958
1537.187	7068
1539.392	6931
1541.596	7040
1543.801	7107
1546.005	7004
1548.208	7045
1550.411	7127
1552.612	7096
1554.814	6980
1557.013	7042
1559.212	7141
1561.414	7143
1563.612	7085
1565.811	7073
1568.007	7020
1570.203	7129
1572.403	7156
1574.598	7229
1576.792	7051
1578.988	7201
1581.181	7157
1583.376	7124
1585.568	7186
1587.761	7175
1589.952	7170
1592.143	7241
1594.333	7164
1596.524	7207
1598.715	7302
1600.903	7233
1603.091	7276
1605.278	7227
1607.466	7276
1609.652	7253
1611.838	7204
1614.023	7271
1616.207	7263
1618.391	7353
1620.576	7350
1622.759	7281
1624.941	7258
1627.123	7226
1629.304	7205
1631.484	7200
1633.664	7346
1635.844	7328
1638.022	7303
1640.201	7324
1642.38	7393
1644.556	7311
1646.732	7405
1648.908	7287
1651.084	7368
1653.257	7350
1655.433	7467
1657.607	7337
1659.779	7345
1661.951	7291
1664.122	7385
1666.295	7339
1668.467	7379
1670.635	7328
1672.805	7376
1674.973	7289
1677.142	7454
1679.31	7284
1681.478	7407
1683.644	7349
1685.81	7344
1687.975	7333
1690.142	7236
1692.305	7350
1694.468	7376
1696.632	7215
1698.794	7206
1700.957	7282
1703.119	7286
1705.279	7207
1707.439	7219
1709.598	7156
1711.758	7285
1713.917	7194
1716.075	7255
1718.231	7212
1720.388	7108
1722.543	7130
1724.702	7296
1726.856	7247
1729.01	7219
1731.164	7181
1733.317	7215
1735.471	7228
1737.623	7084
1739.774	7216
1741.925	7324
1744.075	7243
1746.225	7177
1748.376	7141
1750.524	7342
1752.672	7233
1754.82	7216
1756.965	7167
1759.113	7317
1761.259	7259
1763.405	7248
1765.549	7279
1767.694	7188
1769.836	7367
1771.981	7322
1774.123	7250
1776.264	7303
1778.405	7273
1780.546	7257
1782.687	7208
1784.827	7161
1786.966	7232
1789.103	7194
1791.242	7211
1793.381	7316
1795.517	7338
1797.653	7259
1799.788	7281
1801.923	7266
1804.057	7305
1806.193	7196
1808.326	7297
1810.457	7255
1812.59	7237
1814.721	7295
1816.855	7222
1818.984	7309
1821.113	7273
1823.244	7177
1825.372	7260
1827.499	7222
1829.63	7111
1831.756	7283
1833.882	7207
1836.007	7175
1838.132	7247
1840.26	7198
1842.384	7123
1844.507	7206
1846.63	7218
1848.752	7155
1850.875	7178
1852.996	7259
1855.118	7136
1857.238	7289
1859.358	7153
1861.477	7148
1863.597	7219
1865.715	7239
1867.832	7291
1869.948	7101
1872.064	7250
1874.181	7131
1876.297	7091
1878.411	7203
1880.526	7152
1882.639	7246
1884.752	7183
1886.865	7121
1888.977	7158
1891.089	7189
1893.2	7346
1895.308	7090
1897.42	7259
1899.53	7065
1901.639	7256
1903.745	7262
1905.853	7332
1907.962	7347
1910.067	7221
1912.174	7252
1914.278	7362
1916.383	7309
1918.486	7301
1920.592	7316
1922.694	7338
1924.797	7385
1926.898	7291
1929	7217
1931.102	7139
1933.203	7236
1935.301	7295
1937.401	7308
1939.499	7376
1941.598	7312
1943.697	7248
1945.793	7202
1947.888	7405
1949.985	7271
1952.08	7311
1954.176	7370
1956.269	7315
1958.364	7270
1960.457	7363
1962.549	7310
1964.642	7298
1966.733	7303
1968.823	7303
1970.913	7250
1973.005	7243
1975.093	7311
1977.184	7269
1979.271	7158
1981.359	7305
1983.446	7230
1985.532	7309
1987.619	7250
1989.705	7268
1991.789	7225
1993.874	7137
1995.956	7241
1998.041	7176
2000.123	7204
2002.206	7189
2004.287	7251
2006.368	7310
2008.449	7262
2010.529	7124
2012.609	7263
2014.688	7233
2016.766	7163
2018.843	7353
2020.922	7123
2022.999	7144
2025.074	7157
2027.15	7227
2029.225	7140
2031.299	7270
2033.375	7101
2035.447	7144
2037.52	7114
2039.592	7125
2041.664	7147
2043.736	7091
2045.807	7215
2047.876	7284
2049.947	7207
2052.015	7238
2054.086	7128
2056.153	7127
2058.221	7159
2060.288	7178
2062.353	7273
2064.42	7109
2066.486	7235
2068.55	7264
2070.614	7201
2072.678	7282
2074.741	7124
2076.805	7179
2078.866	7224
2080.929	7158
2082.99	7312
2085.049	7208
2087.109	7287
2089.17	7251
2091.228	7109
2093.286	7133
2095.344	7281
2097.4	7122
2099.46	7227
2101.516	7211
2103.572	7242
2105.626	7292
2107.679	7179
2109.735	7154
2111.788	7103
2113.841	7258
2115.894	7344
2117.945	7218
2119.997	7158
2122.049	7252
2124.1	7140
2126.148	7198
2128.197	7198
2130.246	7265
2132.296	7074
2134.342	7077
2136.39	7192
2138.437	7191
2140.483	7154
2142.527	7228
2144.574	7201
2146.619	7127
2148.661	7050
2150.705	7200
2152.747	7120
2154.792	7066
2156.832	7088
2158.874	7076
2160.915	7115
2162.954	7196
2164.995	7059
2167.034	7150
2169.072	7168
2171.111	6999
2173.148	7117
2175.186	7111
2177.223	7049
2179.258	7046
2181.294	7159
2183.328	7208
2185.362	6956
2187.398	7022
2189.431	7031
2191.463	6978
2193.495	6979
2195.528	7020
2197.56	6973
2199.59	7109
2201.62	7031
2203.649	6941
2205.678	7039
2207.708	6912
2209.737	7089
2211.764	7056
2213.791	6918
2215.817	6960
2217.843	6959
2219.87	7089
2221.895	6935
2223.919	6946
2225.942	7102
2227.966	6945
2229.988	6915
2232.012	6917
2234.032	7099
2236.054	7090
2238.074	6878
2240.095	7007
2242.116	7020
2244.135	6923
2246.153	6961
2248.171	6989
2250.188	6986
2252.208	6995
2254.223	6955
2256.239	6984
2258.255	7062
2260.269	6865
2262.283	6992
2264.3	6920
2266.312	6870
2268.325	6879
2270.336	7064
2272.349	6808
2274.362	6935
2276.372	6999
2278.383	7014
2280.392	6960
2282.402	6912
2284.409	6998
2286.418	7000
2288.427	6928
2290.433	6959
2292.441	6959
2294.446	6960
2296.453	6882
2298.459	7100
2300.463	6928
2302.466	7008
2304.471	6881
2306.475	7024
2308.477	6943
2310.478	6922
2312.481	6916
2314.481	6874
2316.481	6822
2318.482	6877
2320.482	6831
2322.48	6828
2324.48	6881
2326.478	6838
2328.476	6949
2330.473	6849
2332.469	6903
2334.465	6910
2336.46	6933
2338.454	6755
2340.45	6875
2342.444	6726
2344.437	6877
2346.43	6864
2348.421	6817
2350.414	6779
2352.405	6862
2354.396	6943
2356.386	6670
2358.376	6840
2360.366	6895
2362.355	6824
2364.343	6732
2366.331	6863
2368.317	6702
2370.304	6729
2372.292	6778
2374.278	6787
2376.262	6768
2378.247	6697
2380.23	6722
2382.216	6867
2384.199	6706
2386.181	6675
2388.163	6709
2390.144	6749
2392.127	6734
2394.107	6698
2396.087	6738
2398.066	6643
2400.046	6720
2402.023	6778
2404.004	6714
2405.981	6690
2407.957	6601
2409.934	6583
2411.91	6673
2413.886	6641
2415.862	6702
2417.836	6732
2419.809	6809
2421.784	6576
2423.756	6681
2425.73	6662
2427.701	6563
2429.672	6666
2431.644	6697
2433.615	6731
2435.586	6701
2437.555	6566
2439.523	6675
2441.491	6672
2443.459	6761
2445.428	6713
2447.395	6687
2449.361	6671
2451.327	6570
2453.292	6673
2455.257	6693
2457.223	6699
2459.187	6702
2461.15	6641
2463.113	6633
2465.076	6533
2467.039	6534
2468.999	6608
2470.96	6534
2472.921	6611
2474.881	6604
2476.841	6637
2478.8	6633
2480.759	6589
2482.717	6660
2484.675	6561
2486.63	6588
2488.589	6597
2490.545	6620
2492.5	6572
2494.455	6667
2496.408	6644
2498.364	6479
2500.318	6616
2502.27	6667
2504.223	6539
2506.174	6650
2508.126	6607
2510.078	6533
2512.03	6591
2513.979	6510
2515.927	6464
2517.877	6550
2519.826	6532
2521.775	6450
2523.722	6525
2525.668	6524
2527.616	6616
2529.561	6540
2531.508	6506
2533.452	6481
2535.398	6466
2537.342	6516
2539.284	6477
2541.229	6451
2543.173	6460
2545.114	6478
2547.055	6608
2548.996	6343
2550.938	6537
2552.878	6514
2554.817	6415
2556.756	6530
2558.695	6401
2560.633	6508
2562.572	6486
2564.509	6562
2566.445	6526
2568.382	6498
2570.317	6529
2572.254	6556
2574.189	6517
2576.123	6518
2578.057	6482
2579.99	6475
2581.923	6583
2583.855	6503
2585.788	6528
2587.719	6405
2589.65	6546
2591.579	6371
2593.511	6511
2595.44	6501
2597.37	6555
2599.297	6621
2601.225	6463
2603.153	6522
2605.08	6443
2607.007	6554
2608.932	6424
2610.858	6480
2612.782	6431
2614.709	6417
2616.632	6518
2618.556	6495
2620.478	6312
2622.401	6494
2624.324	6458
2626.247	6500
2628.167	6516
2630.088	6504
2632.008	6494
2633.928	6493
2635.848	6474
2637.766	6427
2639.684	6478
2641.603	6378
2643.519	6579
2645.437	6470
2647.353	6428
2649.27	6344
2651.184	6445
2653.099	6544
2655.014	6489
2656.928	6455
2658.842	6494
2660.755	6508
2662.667	6466
2664.579	6582
2666.491	6441
2668.402	6323
2670.312	6300
2672.222	6480
2674.132	6478
2676.042	6397
2677.951	6350
2679.859	6493
2681.766	6296
2683.674	6371
2685.582	6317
2687.488	6414
2689.392	6432
2691.298	6405
2693.202	6301
2695.107	6347
2697.012	6350
2698.914	6330
2700.817	6251
2702.72	6400
2704.622	6372
2706.524	6305
2708.425	6313
2710.326	6410
2712.225	6254
2714.125	6364
2716.024	6443
2717.923	6296
2719.822	6367
2721.719	6277
2723.616	6283
2725.512	6403
2727.41	6339
2729.305	6386
2731.201	6360
2733.095	6340
2734.99	6363
2736.884	6235
2738.778	6450
2740.67	6305
2742.562	6380
2744.455	6303
2746.346	6272
2748.238	6308
2750.129	6252
2752.018	6290
2753.907	6252
2755.797	6382
2757.687	6283
2759.575	6247
2761.462	6233
2763.349	6268
2765.237	6209
2767.124	6241
2769.009	6169
2770.894	6314
2772.779	6269
2774.663	6279
2776.547	6247
2778.431	6111
2780.314	6339
2782.197	6241
2784.078	6327
2785.96	6194
2787.842	6230
2789.723	6122
2791.603	6337
2793.483	6232
2795.362	6243
2797.241	6151
2799.121	6238
2800.997	6211
2802.874	6152
2804.751	6091
2806.628	6162
2808.506	6303
2810.38	6223
2812.255	6177
2814.13	6275
2816.003	6202
2817.878	6124
2819.752	6068
2821.623	6266
2823.496	6073
2825.368	6119
2827.238	6215
2829.111	6127
2830.98	6265
2832.851	6183
2834.719	6150
2836.589	6236
2838.458	6170
2840.327	6256
2842.193	6178
2844.061	6212
2845.927	6267
2847.794	6130
2849.66	6187
2851.525	6356
2853.39	6235
2855.254	6270
2857.117	6329
2858.983	6153
2860.845	6407
2862.707	6233
2864.569	6306
2866.431	6342
2868.293	6298
2870.154	6426
2872.013	6432
2873.873	6363
2875.733	6576
2877.592	6640
2879.451	6552
2881.309	6736
2883.166	6613
2885.022	6687
2886.879	6773
2888.736	6691
2890.591	6764
2892.446	6767
2894.301	6771
2896.155	6776
2898.009	6806
2899.863	6739
2901.716	6753
2903.568	6707
2905.419	6638
2907.27	6816
2909.123	6747
2910.973	6784
2912.824	6787
2914.673	6845
2916.521	6870
2918.372	6868
2920.22	7043
2922.067	6917
2923.914	7018
2925.761	7068
2927.607	7012
2929.455	7096
2931.301	7171
2933.144	7271
2934.99	7193
2936.833	7277
2938.678	7350
2940.522	7320
2942.364	7425
2944.207	7422
2946.048	7721
2947.891	7476
2949.731	7579
2951.571	7566
2953.412	7627
2955.25	7380
2957.09	7367
2958.93	7181
2960.767	7402
2962.606	7205
2964.443	7176
2966.279	7140
2968.116	7040
2969.953	7055
2971.788	6903
2973.623	6918
2975.457	6893
2977.292	6732
2979.127	6780
2980.959	6788
2982.792	6646
2984.624	6792
2986.455	6595
2988.288	6616
2990.119	6654
2991.949	6572
2993.779	6522
2995.608	6513
2997.439	6527
2999.268	6530
3001.096	6356
3002.923	6383
3004.751	6348
3006.578	6339
3008.406	6254
3010.232	6273
3012.057	6180
3013.883	6047
3015.706	6067
3017.532	6012
3019.356	6074
3021.179	5940
3023.002	5981
3024.823	5981
3026.646	6012
3028.469	5873
3030.289	6004
3032.11	5861
3033.93	6022
3035.749	5863
3037.57	5899
3039.39	5978
3041.207	5903
3043.026	5915
3044.842	5833
3046.661	5854
3048.477	5969
3050.294	5829
3052.109	5930
3053.925	5848
3055.739	5848
3057.555	5741
3059.368	5696
3061.181	5819
3062.995	5844
3064.807	5864
3066.62	5824
3068.433	5701
3070.243	5861
3072.054	5771
3073.865	5823
3075.675	5701
3077.485	5697
3079.293	5899
3081.102	5747
3082.911	5724
3084.719	5746
3086.527	5772
3088.333	5729
3090.139	5701
3091.945	5657
3093.75	5628
3095.557	5501
3097.361	5620
3099.165	5666
3100.969	5608
3102.772	5650
3104.575	5668
3106.379	5736
3108.181	5509
3109.982	5696
3111.783	5626
3113.584	5764
3115.386	5696
3117.186	5591
3118.985	5566
3120.783	5594
3122.582	5513
3124.381	5522
3126.179	5526
3127.975	5593
3129.772	5539
3131.569	5484
3133.365	5468
3135.161	5495
3136.956	5430
3138.751	5514
3140.544	5453
3142.338	5454
3144.132	5521
3145.925	5550
3147.717	5467
3149.509	5457
3151.301	5501
3153.091	5406
3154.884	5491
3156.673	5458
3158.462	5371
3160.252	5447
3162.041	5448
3163.831	5456
3165.618	5401
3167.405	5382
3169.193	5404
3170.979	5393
3172.767	5397
3174.553	5359
3176.338	5449
3178.123	5392
3179.907	5495
3181.692	5376
3183.477	5420
3185.259	5425
3187.042	5387
3188.824	5450
3190.607	5408
3192.389	5421
3194.17	5426
3195.951	5459
3197.73	5395
3199.51	5447
3201.289	5349
3203.07	5421
3204.848	5425
3206.626	5377
3208.403	5381
3210.18	5453
3211.959	5396
3213.735	5301
3215.511	5286
3217.285	5379
3219.06	5439
3220.836	5457
3222.611	5397
3224.384	5402
3226.158	5268
3227.929	5361
3229.702	5374
3231.476	5395
3233.248	5331
3235.018	5379
3236.789	5278
3238.56	5312
3240.33	5332
3242.1	5195
3243.869	5401
3245.637	5327
3247.405	5323
3249.172	5424
3250.941	5334
3252.707	5290
3254.474	5323
3256.24	5380
3258.006	5411
3259.772	5376
3261.537	5381
3263.301	5402
3265.065	5498
3266.828	5343
3268.592	5315
3270.355	5406
3272.117	5327
3273.878	5321
3275.64	5380
3277.401	5326
3279.162	5385
3280.922	5309
3282.682	5372
3284.441	5322
3286.199	5301
3287.959	5373
3289.716	5381
3291.475	5304
3293.232	5300
3294.988	5291
3296.744	5290
3298.501	5373
3300.256	5226
3302.011	5368
3303.766	5326
3305.52	5338
3307.275	5323
3309.028	5273
3310.781	5180
3312.533	5226
3314.285	5236
3316.038	5237
3317.789	5298
3319.54	5338
3321.289	5237
3323.039	5350
3324.789	5291
3326.539	5348
3328.288	5184
3330.035	5389
3331.783	5216
3333.531	5210
3335.28	5307
3337.025	5249
3338.771	5247
3340.518	5273
3342.262	5288
3344.009	5292
3345.753	5297
3347.497	5166
3349.24	5248
3350.983	5190
3352.726	5201
3354.469	5264
3356.212	5253
3357.952	5147
3359.694	5255
3361.434	5255
3363.176	5227
3364.916	5121
3366.654	5266
3368.394	5231
3370.132	5240
3371.871	5077
3373.61	5261
3375.346	5172
3377.083	5072
3378.82	5209
3380.556	5147
3382.292	5153
3384.027	5080
3385.763	4958
3387.497	5065
3389.231	5145
3390.965	5163
3392.698	5055
3394.431	5115
3396.164	5050
3397.896	5121
3399.627	4997
3401.36	5136
3403.09	5016
3404.82	5075
3406.55	5129
3408.279	5068
3410.01	5102
3411.738	5081
3413.467	5057
3415.194	4980
3416.92	4976
3418.647	5087
3420.375	5053
3422.102	4986
3423.827	5043
3425.553	5007
3427.277	5016
3429.003	5028
3430.727	4931
3432.451	5002
3434.173	4976
3435.896	4943
3437.62	5012
3439.343	4959
3441.063	4946
3442.785	4928
3444.505	4898
3446.226	4957
3447.948	4921
3449.666	4862
3451.386	4946
3453.104	4938
3454.823	4906
3456.541	4896
3458.259	4904
3459.976	4931
3461.693	4877
3463.408	4864
3465.125	4938
3466.841	4850
3468.556	4845
3470.271	4814
3471.985	4853
3473.698	4872
3475.414	4891
3477.126	4753
3478.838	4737
3480.55	4799
3482.263	4834
3483.975	4880
3485.686	4800
3487.396	4841
3489.106	4836
3490.817	4710
3492.526	4789
3494.236	4717
3495.944	4758
3497.652	4707
3499.359	4685
3501.066	4580
3502.775	4742
3504.481	4675
3506.187	4790
3507.893	4717
3509.598	4678
3511.304	4669
3513.009	4717
3514.713	4622
3516.417	4705
3518.12	4613
3519.821	4694
3521.525	4619
3523.228	4697
3524.929	4662
3526.631	4616
3528.33	4610
3530.032	4660
3531.733	4581
3533.433	4580
3535.131	4597
3536.83	4593
3538.529	4608
3540.227	4570
3541.925	4580
3543.623	4540
3545.319	4580
3547.016	4545
3548.712	4576
3550.408	4498
3552.103	4507
3553.798	4605
3555.491	4587
3557.188	4443
3558.88	4559
3560.574	4537
3562.266	4519
3563.959	4551
3565.651	4499
3567.343	4557
3569.035	4493
3570.725	4422
3572.415	4516
3574.106	4460
3575.797	4580
3577.485	4472
3579.174	4508
3580.863	4484
3582.551	4507
3584.238	4475
3585.926	4410
3587.613	4484
3589.3	4413
3590.986	4430
3592.671	4393
3594.357	4452
3596.042	4430
3597.726	4417
3599.41	4366
3601.094	4463
3602.778	4445
3604.461	4387
3606.143	4328
3607.825	4374
3609.507	4261
3611.188	4368
3612.87	4312
3614.551	4343
3616.229	4316
3617.909	4322
3619.589	4316
3621.269	4352
3622.948	4291
3624.625	4294
3626.302	4255
3627.98	4281
3629.657	4275
3631.334	4262
3633.01	4269
3634.686	4204
3636.361	4255
3638.036	4132
3639.712	4140
3641.385	4205
3643.06	4141
3644.732	4206
3646.405	4280
3648.08	4195
3649.751	4124
3651.424	4229
3653.094	4253
3654.766	4225
3656.436	4070
3658.106	4187
3659.777	4059
3661.446	4162
3663.115	4173
3664.783	4195
3666.452	4157
3668.121	4117
3669.788	4113
3671.454	4103
3673.121	4177
3674.789	4171
3676.455	4157
3678.12	4146
3679.784	4136
3681.45	4045
3683.114	4031
3684.779	4050
3686.442	4044
3688.105	4063
3689.768	4105
3691.43	4102
3693.093	4103
3694.754	4079
3696.415	3959
3698.076	4032
3699.736	4103
3701.396	4070
3703.057	4036
3704.716	4068
3706.375	4051
3708.034	4156
3709.692	4031
3711.351	4005
3713.008	4047
3714.665	4124
3716.321	3974
3717.977	4003
3719.634	4070
3721.29	4070
3722.945	4016
3724.598	4060
3726.253	4107
3727.907	4011
3729.561	4047
3731.214	3965
3732.867	3989
3734.518	3910
3736.171	4022
3737.824	3987
3739.474	3959
3741.125	3925
3742.775	3921
3744.425	4002
3746.074	4047
3747.725	3958
3749.373	3969
3751.022	3960
3752.669	3939
3754.318	3932
3755.966	3934
3757.612	3992
3759.259	4005
3760.905	3886
3762.55	3963
3764.197	3933
3765.842	3936
3767.486	3990
3769.131	3991
3770.774	3902
3772.417	3856
3774.061	3868
3775.705	3924
3777.347	3961
3778.988	3876
3780.629	3910
3782.271	3870
3783.912	3872
3785.552	3847
3787.192	3861
3788.831	3888
3790.472	3832
3792.112	3877
3793.75	3807
3795.388	3870
3797.024	3844
3798.661	3899
3800.3	3809
3801.936	3799
3803.572	3843
3805.208	3861
3806.844	3841
3808.48	3906
3810.115	3836
3811.748	3777
3813.382	3817
3815.016	3860
3816.649	3795
3818.283	3735
3819.914	3686
3821.547	3749
3823.178	3760
3824.809	3789
3826.441	3770
3828.072	3788
3829.701	3813
3831.331	3806
3832.96	3752
3834.591	3769
3836.219	3773
3837.847	3807
3839.475	3684
3841.102	3730
3842.729	3742
3844.357	3708
3845.984	3689
3847.609	3643
3849.234	3718
3850.86	3701
3852.485	3817
3854.11	3755
3855.734	3753
3857.357	3753
3858.981	3701
3860.603	3686
3862.227	3709
3863.848	3688
3865.471	3735
3867.092	3624
3868.713	3639
3870.334	3706
3871.954	3681
3873.575	3631
3875.194	3731
3876.813	3629
3878.433	3587
3880.051	3638
3881.669	3657
3883.286	3700
3884.904	3715
3886.52	3587
3888.138	3631
3889.754	3747
3891.37	3644
3892.985	3571
3894.6	3659
3896.216	3644
3897.831	3665
3899.444	3475
3901.058	3570
3902.67	3584
3904.283	3580
3905.897	3639
3907.509	3665
3909.121	3629
3910.731	3646
3912.342	3568
3913.954	3670
3915.563	3560
3917.174	3675
3918.783	3606
3920.391	3568
3922.002	3624
3923.611	3555
3925.218	3552
3926.826	3625
3928.432	3574
3930.039	3540
3931.647	3516
3933.253	3540
3934.859	3512
3936.464	3611
3938.068	3572
3939.675	3561
3941.278	3552
3942.883	3529
3944.486	3528
3946.089	3571
3947.692	3467
3949.295	3542
3950.898	3520
3952.499	3545
3954.1	3535
3955.7	3482
3957.303	3549
3958.903	3490
3960.502	3420
3962.101	3481
3963.7	3488
3965.301	3512
3966.899	3552
3968.497	3486
3970.094	3500
3971.691	3436
3973.288	3468
3974.885	3479
3976.481	3459
3978.077	3470
3979.672	3435
3981.267	3413
3982.863	3432
3984.457	3464
3986.051	3458
3987.645	3466
3989.238	3427
3990.831	3372
3992.425	3452
3994.017	3396
3995.607	3398
3997.199	3375
3998.79	3451
4000.382	3428
4001.973	3384
4003.561	3397
4005.151	3370
4006.741	3322
4008.331	3356
4009.918	3362
4011.507	3361
4013.095	3406
4014.681	3411
4016.269	3412
4017.856	3315
4019.443	3378
4021.028	3384
4022.614	3367
4024.199	3358
4025.785	3285
4027.37	3255
4028.953	3324
4030.536	3413
4032.12	3350
4033.704	3283
4035.287	3326
4036.869	3270
4038.45	3281
4040.032	3271
4041.613	3289
4043.195	3293
4044.776	3377
4046.356	3324
4047.935	3308
4049.515	3376
4051.095	3281
4052.674	3259
4054.251	3353
4055.829	3230
4057.406	3189
4058.985	3269
4060.562	3272
4062.139	3237
4063.715	3286
4065.29	3178
4066.865	3184
4068.442	3166
4070.016	3287
4071.59	3188
4073.164	3206
4074.738	3241
4076.312	3264
4077.885	3224
4079.458	3245
4081.03	3227
4082.602	3156
4084.173	3186
4085.745	3166
4087.315	3208
4088.886	3182
4090.456	3320
4092.026	3165
4093.596	3100
4095.165	3186
4096.734	3132
4098.301	3196
4099.869	3214
4101.437	3105
4103.006	3153
4104.572	3159
4106.139	3037
4107.704	3119
4109.27	3172
4110.837	3119
4112.401	3190
4113.966	3166
4115.53	3161
4117.094	3143
4118.659	3085
4120.223	3172
4121.785	3103
4123.347	3142
4124.909	3203
4126.471	3103
4128.034	3042
4129.595	3087
4131.155	3032
4132.716	3143
4134.275	3141
4135.836	3140
4137.395	3079
4138.955	3014
4140.513	3052
4142.071	3113
4143.628	3028
4145.188	3008
4146.745	3049
4148.302	3047
4149.858	2992
4151.414	3014
4152.971	3032
4154.526	3054
4156.081	3071
4157.635	3005
4159.189	3118
4160.745	3067
4162.298	3034
4163.852	2976
4165.405	3035
4166.957	3009
4168.51	3007
4170.063	2917
4171.614	3039
4173.166	3004
4174.717	2983
4176.267	2981
4177.817	2996
4179.368	2953
4180.917	2992
4182.466	2976
4184.016	2876
4185.564	2960
4187.112	2962
4188.66	3013
4190.207	2965
4191.754	2890
4193.301	2987
4194.848	2872
4196.394	2954
4197.94	2902
4199.484	2896
4201.03	2863
4202.575	2977
4204.12	2894
4205.663	2909
4207.207	2907
4208.75	2971
4210.292	2923
4211.836	2996
4213.378	2911
4214.92	2963
4216.46	2863
4218.002	2934
4219.544	2944
4221.083	2925
4222.625	2829
4224.164	2925
4225.703	2822
4227.244	2901
4228.782	2933
4230.32	2895
4231.857	2845
4233.395	2892
4234.933	2879
4236.471	2862
4238.007	2804
4239.542	2921
4241.078	2850
4242.614	2914
4244.15	2823
4245.685	2878
4247.219	2882
4248.753	2909
4250.287	2828
4251.82	2834
4253.354	2844
4254.887	2821
4256.419	2741
4257.951	2775
4259.483	2825
4261.016	2766
4262.547	2828
4264.078	2883
4265.608	2800
4267.137	2790
4268.668	2908
4270.197	2817
4271.727	2728
4273.254	2795
4274.783	2781
4276.311	2809
4277.84	2863
4279.366	2761
4280.894	2780
4282.42	2804
4283.946	2784
4285.473	2830
4286.998	2788
4288.523	2721
4290.047	2765
4291.572	2779
4293.096	2770
4294.622	2759
4296.144	2730
4297.668	2812
4299.19	2778
4300.713	2723
4302.236	2715
4303.758	2704
4305.279	2706
4306.799	2704
4308.321	2746
4309.842	2724
4311.361	2703
4312.882	2742
4314.401	2742
