400.0961	4876
402.6185	4892
405.1424	4968
407.6635	4963
410.1838	4918
412.7035	4948
415.2225	5016
417.7388	5065
420.2585	5041
422.7754	5157
425.2917	5186
427.8072	5298
430.3221	5283
432.8363	5405
435.3498	5249
437.8626	5300
440.3727	5285
442.8841	5242
445.3969	5360
447.907	5408
450.4142	5274
452.9229	5226
455.4289	5280
457.9362	5299
460.4449	5214
462.9488	5245
465.454	5275
467.9566	5271
470.4604	5226
472.9637	5213
475.4662	5325
477.966	5318
480.4671	5219
482.9656	5257
485.4633	5357
487.9645	5360
490.4608	5311
492.9566	5287
495.4536	5321
497.948	5357
500.4437	5305
502.9387	5395
505.431	5440
507.9226	5392
510.4136	5361
512.9079	5372
515.3975	5473
517.8864	5453
520.3746	5392
522.8622	5473
525.3491	5389
527.8394	5385
530.3249	5422
532.8098	5431
535.2939	5411
537.7774	5505
540.2623	5391
542.7444	5462
545.2259	5389
547.7067	5444
550.1868	5391
552.6683	5432
555.147	5514
557.6231	5458
560.1005	5468
562.5773	5566
565.0534	5531
567.5308	5729
570.0056	5663
572.4776	5690
574.951	5757
577.4237	5706
579.8978	5647
582.3671	5688
584.8378	5738
587.3079	5779
589.7773	5796
592.244	5735
594.714	5691
597.1793	5736
599.6461	5692
602.1121	5676
604.5754	5773
607.0421	5729
609.5042	5655
611.9675	5644
614.4282	5672
616.8902	5780
619.3515	5639
621.8122	5648
624.2702	5698
626.7296	5643
629.1863	5627
631.6423	5654
634.1017	5574
636.5563	5656
639.0104	5661
641.4658	5663
643.9185	5588
646.3725	5582
648.8239	5738
651.2766	5701
653.7266	5754
656.176	5689
658.6247	5728
661.0748	5710
663.5242	5818
665.9709	5731
668.417	5863
670.8624	5749
673.3092	5745
675.7533	5638
678.1968	5736
680.6395	5759
683.0817	5827
685.5251	5838
687.9659	5807
690.4061	5935
692.8456	5758
695.2844	5922
697.7226	5868
700.1621	5930
702.599	5897
705.0332	5932
707.4688	5850
709.9036	5940
712.3399	6015
714.7735	5902
717.2044	5970
719.6367	6067
722.0683	6002
724.4993	5974
726.9296	6030
729.3593	6056
731.7883	6101
734.2147	6088
736.6423	6054
739.0714	6094
741.4958	6205
743.9216	6150
746.3447	6087
748.7691	6284
751.1929	6181
753.616	6215
756.0366	6246
758.4584	6206
760.8776	6266
763.2982	6221
765.718	6284
768.1373	6264
770.5539	6346
772.9698	6352
775.3871	6304
777.8038	6395
780.2178	6191
782.6332	6300
785.0459	6266
787.458	6159
789.8714	6357
792.2842	6349
794.6943	6349
797.1038	6287
799.5127	6252
801.9209	6279
804.3324	6308
806.7393	6334
809.1456	6387
811.5513	6379
813.9562	6364
816.3625	6479
818.7663	6400
821.1693	6363
823.5718	6353
825.9735	6498
828.3746	6331
830.7771	6236
833.177	6195
835.5762	6380
837.9747	6452
840.3727	6492
842.772	6415
845.1666	6536
847.5626	6550
849.958	6502
852.3527	6604
854.7488	6629
857.1403	6604
859.5331	6549
861.9253	6553
864.3168	6662
866.7057	6555
869.098	6623
871.4876	6538
873.8746	6524
876.263	6623
878.6487	6520
881.0378	6502
883.4243	6584
885.8081	6490
888.1933	6571
890.5759	6487
892.9598	6577
895.343	6524
897.7256	6418
900.1057	6542
902.4871	6561
904.8659	6617
907.246	6573
909.6254	6666
912.0023	6620
914.3786	6651
916.7562	6880
919.1331	6805
921.5074	6949
923.8831	6888
926.2562	6981
928.6287	6946
931.0005	6823
933.3757	7029
935.7462	6895
938.1162	6983
940.4855	6974
942.8542	7184
945.2242	7250
947.5916	7338
949.9584	7512
952.3266	7774
954.6921	7994
957.0571	8320
959.4233	8770
961.787	8769
964.15	8776
966.5125	8496
968.8742	8231
971.2354	7713
973.5959	7459
975.9559	7301
978.3151	6962
980.6738	6991
983.0338	6915
985.3912	6888
987.7461	6804
990.1022	6765
992.4578	6699
994.8127	6707
997.1689	6691
999.5207	6803
1001.874	6872
1004.226	6870
1006.576	6842
1008.929	6864
1011.28	6782
1013.628	6788
1015.977	6863
1018.324	6860
1020.674	6758
1023.019	6926
1025.366	6848
1027.713	6781
1030.056	7019
1032.399	6995
1034.746	6994
1037.087	7005
1039.431	7080
1041.771	6892
1044.113	6952
1046.454	7039
1048.793	6962
1051.133	6986
1053.471	6969
1055.807	6924
1058.146	6965
1060.483	6993
1062.818	6883
1065.153	7138
1067.489	7026
1069.822	7110
1072.156	7111
1074.488	7241
1076.82	7159
1079.15	7076
1081.48	7080
1083.814	7068
1086.143	7047
1088.471	6993
1090.799	7021
1093.126	6982
1095.452	7015
1097.78	6998
1100.105	6883
1102.43	6991
1104.754	6930
1107.077	7080
1109.4	7069
1111.722	6982
1114.044	6947
1116.365	7094
1118.685	6996
1121.005	6985
1123.324	7073
1125.643	6898
1127.961	6943
1130.278	6944
1132.595	6869
1134.911	6911
1137.226	7012
1139.541	6984
1141.854	7029
1144.167	6952
1146.482	7051
1148.793	6929
1151.105	7063
1153.414	6946
1155.725	6987
1158.033	7045
1160.344	6908
1162.651	7024
1164.959	7029
1167.265	6949
1169.572	7033
1171.878	7036
1174.184	6973
1176.488	6916
1178.79	7085
1181.094	7080
1183.396	7114
1185.699	6891
1188.001	6936
1190.301	6886
1192.6	6900
1194.9	6976
1197.2	7002
1199.497	6943
1201.794	7118
1204.09	6878
1206.387	7060
1208.684	7013
1210.978	7186
1213.272	7018
1215.565	7081
1217.858	7057
1220.15	7128
1222.443	7089
1224.734	7148
1227.024	7213
1229.313	7094
1231.602	7268
1233.892	7259
1236.18	7177
1238.467	7393
1240.754	7271
1243.04	7273
1245.325	7294
1247.612	7284
1249.896	7434
1252.178	7148
1254.461	7379
1256.743	7248
1259.027	7223
1261.308	7258
1263.587	7246
1265.867	7390
1268.146	7275
1270.425	7218
1272.703	7321
1274.981	7317
1277.256	7306
1279.532	7301
1281.808	7252
1284.083	7172
1286.358	7366
1288.63	7176
1290.904	7233
1293.175	7118
1295.449	7222
1297.719	7267
1299.99	7075
1302.259	7214
1304.529	7232
1306.798	7211
1309.065	7224
1311.333	7102
1313.599	7159
1315.866	7171
1318.131	7117
1320.396	7134
1322.66	7308
1324.925	7143
1327.187	7252
1329.448	7293
1331.711	7186
1333.974	7306
1336.234	7256
1338.493	7251
1340.752	7232
1343.01	7168
1345.269	7140
1347.526	7312
1349.784	7225
1352.04	7116
1354.295	7140
1356.552	7231
1358.806	7113
1361.059	7145
1363.312	7163
1365.564	7187
1367.818	7267
1370.069	7235
1372.318	7230
1374.568	7234
1376.817	7378
1379.066	7233
1381.316	7210
1383.564	7255
1385.809	7311
1388.056	7327
1390.301	7312
1392.549	7325
1394.793	7282
1397.036	7418
1399.279	7393
1401.522	7475
1403.763	7436
1406.007	7349
1408.248	7407
1410.487	7432
1412.727	7491
1414.965	7454
1417.205	7450
1419.442	7382
1421.68	7395
1423.915	7378
1426.152	7475
1428.388	7466
1430.623	7401
1432.857	7519
1435.091	7504
1437.323	7509
1439.556	7486
1441.789	7550
1444.019	7585
1446.25	7560
1448.48	7539
1450.708	7516
1452.938	7641
1455.167	7676
1457.394	7616
1459.62	7614
1461.846	7624
1464.073	7549
1466.299	7630
1468.523	7567
1470.746	7467
1472.969	7360
1475.191	7447
1477.415	7442
1479.636	7519
1481.858	7323
1484.078	7239
1486.298	7257
1488.518	7312
1490.736	7162
1492.954	7331
1495.169	7196
1497.386	7223
1499.602	7271
1501.819	7168
1504.034	7225
1506.248	7183
1508.462	7266
1510.675	7125
1512.888	7192
1515.1	7161
1517.311	7125
1519.522	7162
1521.732	7124
1523.942	7229
1526.151	7325
1528.36	7089
1530.566	7141
1532.773	7256
1534.98	7250
1537.187	7086
1539.392	7240
1541.596	7157
1543.801	7182
1546.005	7259
1548.208	7269
1550.411	7340
1552.612	7364
1554.814	7282
1557.013	7300
1559.212	7367
1561.414	7351
1563.612	7198
1565.811	7250
1568.007	7298
1570.203	7335
1572.403	7421
1574.598	7471
1576.792	7354
1578.988	7448
1581.181	7252
1583.376	7406
1585.568	7416
1587.761	7478
1589.952	7445
1592.143	7496
1594.333	7320
1596.524	7386
1598.715	7569
1600.903	7542
1603.091	7392
1605.278	7444
1607.466	7409
1609.652	7532
1611.838	7425
1614.023	7402
1616.207	7494
1618.391	7400
1620.576	7437
1622.759	7455
1624.941	7492
1627.123	7566
1629.304	7446
1631.484	7515
1633.664	7508
1635.844	7542
1638.022	7505
1640.201	7628
1642.38	7458
1644.556	7629
1646.732	7537
1648.908	7590
1651.084	7583
1653.257	7552
1655.433	7641
1657.607	7633
1659.779	7726
1661.951	7634
1664.122	7694
1666.295	7648
1668.467	7594
1670.635	7693
1672.805	7699
1674.973	7717
1677.142	7533
1679.31	7664
1681.478	7610
1683.644	7654
1685.81	7704
1687.975	7586
1690.142	7551
1692.305	7533
1694.468	7481
1696.632	7479
1698.794	7617
1700.957	7510
1703.119	7622
1705.279	7496
1707.439	7443
1709.598	7499
1711.758	7368
1713.917	7412
1716.075	7469
1718.231	7504
1720.388	7374
1722.543	7344
1724.702	7469
1726.856	7367
1729.01	7586
1731.164	7520
1733.317	7472
1735.471	7405
1737.623	7362
1739.774	7355
1741.925	7507
1744.075	7473
1746.225	7517
1748.376	7416
1750.524	7406
1752.672	7369
1754.82	7506
1756.965	7451
1759.113	7443
1761.259	7322
1763.405	7397
1765.549	7324
1767.694	7538
1769.836	7496
1771.981	7453
1774.123	7512
1776.264	7385
1778.405	7480
1780.546	7573
1782.687	7460
1784.827	7525
1786.966	7472
1789.103	7394
1791.242	7491
1793.381	7481
1795.517	7523
1797.653	7420
1799.788	7449
1801.923	7473
1804.057	7506
1806.193	7409
1808.326	7514
1810.457	7521
1812.59	7447
1814.721	7535
1816.855	7486
1818.984	7540
1821.113	7496
1823.244	7449
1825.372	7362
1827.499	7477
1829.63	7496
1831.756	7608
1833.882	7491
1836.007	7349
1838.132	7432
1840.26	7554
1842.384	7358
1844.507	7551
1846.63	7558
1848.752	7502
1850.875	7458
1852.996	7463
1855.118	7352
1857.238	7511
1859.358	7386
1861.477	7401
1863.597	7267
1865.715	7392
1867.832	7541
1869.948	7360
1872.064	7319
1874.181	7459
1876.297	7398
1878.411	7416
1880.526	7436
1882.639	7452
1884.752	7355
1886.865	7449
1888.977	7489
1891.089	7451
1893.2	7516
1895.308	7408
1897.42	7467
1899.53	7503
1901.639	7465
1903.745	7446
1905.853	7522
1907.962	7456
1910.067	7426
1912.174	7458
1914.278	7495
1916.383	7508
1918.486	7516
1920.592	7459
1922.694	7583
1924.797	7597
1926.898	7509
1929	7592
1931.102	7464
1933.203	7485
1935.301	7504
1937.401	7540
1939.499	7598
1941.598	7618
1943.697	7567
1945.793	7527
1947.888	7531
1949.985	7485
1952.08	7406
1954.176	7452
1956.269	7608
1958.364	7378
1960.457	7507
1962.549	7571
1964.642	7359
1966.733	7423
1968.823	7468
1970.913	7462
1973.005	7603
1975.093	7618
1977.184	7533
1979.271	7523
1981.359	7449
1983.446	7481
1985.532	7522
1987.619	7554
1989.705	7489
1991.789	7319
1993.874	7531
1995.956	7486
1998.041	7462
2000.123	7500
2002.206	7395
2004.287	7430
2006.368	7466
2008.449	7528
2010.529	7407
2012.609	7463
2014.688	7389
2016.766	7459
2018.843	7482
2020.922	7329
2022.999	7450
2025.074	7361
2027.15	7534
2029.225	7477
2031.299	7308
2033.375	7375
2035.447	7353
2037.52	7370
2039.592	7452
2041.664	7513
2043.736	7410
2045.807	7386
2047.876	7379
2049.947	7470
2052.015	7357
2054.086	7486
2056.153	7519
2058.221	7329
2060.288	7432
2062.353	7486
2064.42	7404
2066.486	7296
2068.55	7455
2070.614	7399
2072.678	7507
2074.741	7445
2076.805	7366
2078.866	7502
2080.929	7300
2082.99	7533
2085.049	7438
2087.109	7574
2089.17	7469
2091.228	7368
2093.286	7302
2095.344	7446
2097.4	7414
2099.46	7434
2101.516	7398
2103.572	7442
2105.626	7357
2107.679	7392
2109.735	7495
2111.788	7355
2113.841	7453
2115.894	7406
2117.945	7380
2119.997	7362
2122.049	7425
2124.1	7443
2126.148	7575
2128.197	7303
2130.246	7438
2132.296	7457
2134.342	7445
2136.39	7367
2138.437	7335
2140.483	7514
2142.527	7490
2144.574	7358
2146.619	7362
2148.661	7396
2150.705	7333
2152.747	7350
2154.792	7336
2156.832	7398
2158.874	7326
2160.915	7291
2162.954	7355
2164.995	7486
2167.034	7437
2169.072	7328
2171.111	7361
2173.148	7301
2175.186	7313
2177.223	7257
2179.258	7247
2181.294	7281
2183.328	7373
2185.362	7320
2187.398	7260
2189.431	7288
2191.463	7183
2193.495	7348
2195.528	7118
2197.56	7144
2199.59	7231
2201.62	7273
2203.649	7329
2205.678	7364
2207.708	7195
2209.737	7395
2211.764	7109
2213.791	7195
2215.817	7156
2217.843	7236
2219.87	7198
2221.895	7169
2223.919	7181
2225.942	7253
2227.966	7221
2229.988	7241
2232.012	7078
2234.032	7229
2236.054	7236
2238.074	7117
2240.095	7289
2242.116	7216
2244.135	7114
2246.153	7162
2248.171	7290
2250.188	7352
2252.208	7182
2254.223	7070
2256.239	7180
2258.255	7251
2260.269	7030
2262.283	7269
2264.3	7142
2266.312	7211
2268.325	7071
2270.336	7063
2272.349	7154
2274.362	7290
2276.372	7273
2278.383	7132
2280.392	7184
2282.402	7101
2284.409	7114
2286.418	7145
2288.427	7253
2290.433	7217
2292.441	7342
2294.446	7266
2296.453	7180
2298.459	7145
2300.463	7090
2302.466	7096
2304.471	7185
2306.475	7128
2308.477	7163
2310.478	7165
2312.481	7111
2314.481	7194
2316.481	6964
2318.482	7038
2320.482	7042
2322.48	7143
2324.48	7125
2326.478	7238
2328.476	7167
2330.473	7105
2332.469	7136
2334.465	7099
2336.46	7061
2338.454	7166
2340.45	7200
2342.444	7111
2344.437	7044
2346.43	7063
2348.421	6998
2350.414	7075
2352.405	7116
2354.396	7023
2356.386	7013
2358.376	6965
2360.366	6983
2362.355	7089
2364.343	7067
2366.331	7047
2368.317	6913
2370.304	7005
2372.292	7037
2374.278	6921
2376.262	6907
2378.247	6967
2380.23	7037
2382.216	6955
2384.199	6882
2386.181	6980
2388.163	7053
2390.144	6886
2392.127	6929
2394.107	6932
2396.087	6943
2398.066	6896
2400.046	6984
2402.023	6886
2404.004	6918
2405.981	6974
2407.957	7008
2409.934	6779
2411.91	6976
2413.886	6950
2415.862	7044
2417.836	6931
2419.809	6896
2421.784	6984
2423.756	6913
2425.73	6895
2427.701	6920
2429.672	6855
2431.644	6917
2433.615	6918
2435.586	6824
2437.555	6932
2439.523	6909
2441.491	6880
2443.459	6930
2445.428	6904
2447.395	6997
2449.361	6912
2451.327	6904
2453.292	6861
2455.257	6781
2457.223	6902
2459.187	6877
2461.15	6944
2463.113	7023
2465.076	6829
2467.039	6765
2468.999	6862
2470.96	6745
2472.921	6860
2474.881	6910
2476.841	6844
2478.8	6762
2480.759	6880
2482.717	6849
2484.675	6752
2486.63	6804
2488.589	6855
2490.545	6757
2492.5	6807
2494.455	6688
2496.408	6737
2498.364	6832
2500.318	6824
2502.27	6800
2504.223	6794
2506.174	6841
2508.126	6790
2510.078	6760
2512.03	6754
2513.979	6804
2515.927	6800
2517.877	6758
2519.826	6730
2521.775	6757
2523.722	6692
2525.668	6643
2527.616	6717
2529.561	6806
2531.508	6686
2533.452	6590
2535.398	6731
2537.342	6803
2539.284	6722
2541.229	6747
2543.173	6833
2545.114	6595
2547.055	6783
2548.996	6723
2550.938	6802
2552.878	6708
2554.817	6680
2556.756	6732
2558.695	6694
2560.633	6741
2562.572	6727
2564.509	6732
2566.445	6627
2568.382	6738
2570.317	6656
2572.254	6621
2574.189	6741
2576.123	6623
2578.057	6676
2579.99	6691
2581.923	6676
2583.855	6792
2585.788	6744
2587.719	6630
2589.65	6762
2591.579	6688
2593.511	6706
2595.44	6706
2597.37	6631
2599.297	6660
2601.225	6641
2603.153	6833
2605.08	6716
2607.007	6659
2608.932	6709
2610.858	6746
2612.782	6757
2614.709	6672
2616.632	6660
2618.556	6735
2620.478	6715
2622.401	6736
2624.324	6749
2626.247	6628
2628.167	6719
2630.088	6680
2632.008	6761
2633.928	6732
2635.848	6604
2637.766	6672
2639.684	6636
2641.603	6654
2643.519	6698
2645.437	6670
2647.353	6700
2649.27	6796
2651.184	6664
2653.099	6665
2655.014	6685
2656.928	6693
2658.842	6753
2660.755	6660
2662.667	6675
2664.579	6619
2666.491	6650
2668.402	6750
2670.312	6682
2672.222	6664
2674.132	6756
2676.042	6698
2677.951	6663
2679.859	6617
2681.766	6604
2683.674	6596
2685.582	6644
2687.488	6665
2689.392	6666
2691.298	6666
2693.202	6640
2695.107	6554
2697.012	6610
2698.914	6633
2700.817	6648
2702.72	6523
2704.622	6597
2706.524	6541
2708.425	6513
2710.326	6609
2712.225	6615
2714.125	6453
2716.024	6556
2717.923	6514
2719.822	6518
2721.719	6504
2723.616	6594
2725.512	6658
2727.41	6515
2729.305	6559
2731.201	6468
2733.095	6601
2734.99	6506
2736.884	6556
2738.778	6553
2740.67	6693
2742.562	6470
2744.455	6501
2746.346	6640
2748.238	6453
2750.129	6548
2752.018	6555
2753.907	6533
2755.797	6572
2757.687	6609
2759.575	6423
2761.462	6584
2763.349	6468
2765.237	6554
2767.124	6433
2769.009	6455
2770.894	6498
2772.779	6469
2774.663	6499
2776.547	6489
2778.431	6419
2780.314	6578
2782.197	6532
2784.078	6464
2785.96	6458
2787.842	6537
2789.723	6455
2791.603	6441
2793.483	6376
2795.362	6533
2797.241	6438
2799.121	6344
2800.997	6429
2802.874	6443
2804.751	6388
2806.628	6382
2808.506	6468
2810.38	6347
2812.255	6418
2814.13	6457
2816.003	6476
2817.878	6272
2819.752	6510
2821.623	6401
2823.496	6419
2825.368	6305
2827.238	6410
2829.111	6425
2830.98	6444
2832.851	6323
2834.719	6427
2836.589	6420
2838.458	6529
2840.327	6397
2842.193	6497
2844.061	6369
2845.927	6475
2847.794	6402
2849.66	6358
2851.525	6393
2853.39	6462
2855.254	6519
2857.117	6496
2858.983	6497
2860.845	6352
2862.707	6531
2864.569	6619
2866.431	6581
2868.293	6644
2870.154	6760
2872.013	6826
2873.873	6720
2875.733	6802
2877.592	6903
2879.451	6829
2881.309	7065
2883.166	6974
2885.022	6890
2886.879	6998
2888.736	6924
2890.591	7043
2892.446	6874
2894.301	7038
2896.155	7085
2898.009	6955
2899.863	6990
2901.716	6979
2903.568	6951
2905.419	7016
2907.27	6925
2909.123	7129
2910.973	7044
2912.824	7125
2914.673	7028
2916.521	7094
2918.372	7280
2920.22	7273
2922.067	7321
2923.914	7366
2925.761	7392
2927.607	7577
2929.455	7509
2931.301	7559
2933.144	7583
2934.99	7650
2936.833	7674
2938.678	7891
2940.522	7777
2942.364	7994
2944.207	7922
2946.048	7997
2947.891	8032
2949.731	8015
2951.571	7934
2953.412	8032
2955.25	7951
2957.09	7710
2958.93	7804
2960.767	7800
2962.606	7634
2964.443	7731
2966.279	7461
2968.116	7459
2969.953	7251
2971.788	7271
2973.623	7233
2975.457	7134
2977.292	7220
2979.127	7128
2980.959	7187
2982.792	7115
2984.624	6948
2986.455	6983
2988.288	6970
2990.119	7111
2991.949	6905
2993.779	6862
2995.608	6860
2997.439	6825
2999.268	6719
3001.096	6814
3002.923	6590
3004.751	6509
3006.578	6649
3008.406	6518
3010.232	6490
3012.057	6441
3013.883	6365
3015.706	6461
3017.532	6249
3019.356	6352
3021.179	6274
3023.002	6211
3024.823	6182
3026.646	6207
3028.469	6169
3030.289	6200
3032.11	6138
3033.93	6207
3035.749	6105
3037.57	6065
3039.39	6082
3041.207	6085
3043.026	6047
3044.842	6055
3046.661	6010
3048.477	6017
3050.294	6150
3052.109	6125
3053.925	6089
3055.739	5988
3057.555	6064
3059.368	6143
3061.181	6104
3062.995	6107
3064.807	5944
3066.62	5979
3068.433	6099
3070.243	6120
3072.054	5846
3073.865	5963
3075.675	5902
3077.485	6048
3079.293	6009
3081.102	6015
3082.911	5846
3084.719	5918
3086.527	5930
3088.333	5922
3090.139	5887
3091.945	5887
3093.75	5935
3095.557	5864
3097.361	5764
3099.165	5855
3100.969	5835
3102.772	5905
3104.575	5891
3106.379	5822
3108.181	5799
3109.982	5868
3111.783	5864
3113.584	5815
3115.386	5878
3117.186	5702
3118.985	5751
3120.783	5875
3122.582	5773
3124.381	5776
3126.179	5868
3127.975	5748
3129.772	5756
3131.569	5805
3133.365	5706
3135.161	5761
3136.956	5691
3138.751	5668
3140.544	5733
3142.338	5670
3144.132	5659
3145.925	5728
3147.717	5720
3149.509	5735
3151.301	5699
3153.091	5724
3154.884	5643
3156.673	5779
3158.462	5630
3160.252	5622
3162.041	5721
3163.831	5764
3165.618	5674
3167.405	5666
3169.193	5630
3170.979	5670
3172.767	5606
3174.553	5698
3176.338	5679
3178.123	5593
3179.907	5641
3181.692	5646
3183.477	5703
3185.259	5522
3187.042	5705
3188.824	5536
3190.607	5531
3192.389	5620
3194.17	5678
3195.951	5578
3197.73	5764
3199.51	5645
3201.289	5675
3203.07	5587
3204.848	5675
3206.626	5637
3208.403	5650
3210.18	5539
3211.959	5608
3213.735	5572
3215.511	5523
3217.285	5554
3219.06	5612
3220.836	5540
3222.611	5629
3224.384	5582
3226.158	5546
3227.929	5612
3229.702	5520
3231.476	5566
3233.248	5565
3235.018	5526
3236.789	5739
3238.56	5631
3240.33	5615
3242.1	5495
3243.869	5623
3245.637	5546
3247.405	5549
3249.172	5522
3250.941	5671
3252.707	5568
3254.474	5518
3256.24	5551
3258.006	5514
3259.772	5625
3261.537	5577
3263.301	5549
3265.065	5540
3266.828	5502
3268.592	5508
3270.355	5571
3272.117	5550
3273.878	5618
3275.64	5531
3277.401	5616
3279.162	5579
3280.922	5524
3282.682	5523
3284.441	5480
3286.199	5518
3287.959	5610
3289.716	5514
3291.475	5522
3293.232	5528
3294.988	5677
3296.744	5562
3298.501	5572
3300.256	5635
3302.011	5473
3303.766	5538
3305.52	5654
3307.275	5602
3309.028	5538
3310.781	5479
3312.533	5615
3314.285	5462
3316.038	5605
3317.789	5605
3319.54	5631
3321.289	5521
3323.039	5567
3324.789	5505
3326.539	5441
3328.288	5514
3330.035	5482
3331.783	5560
3333.531	5547
3335.28	5419
3337.025	5417
3338.771	5464
3340.518	5478
3342.262	5481
3344.009	5455
3345.753	5405
3347.497	5450
3349.24	5445
3350.983	5530
3352.726	5470
3354.469	5425
3356.212	5441
3357.952	5523
3359.694	5388
3361.434	5447
3363.176	5365
3364.916	5434
3366.654	5421
3368.394	5513
3370.132	5411
3371.871	5327
3373.61	5406
3375.346	5348
3377.083	5459
3378.82	5361
3380.556	5456
3382.292	5334
3384.027	5253
3385.763	5409
3387.497	5283
3389.231	5308
3390.965	5310
3392.698	5321
3394.431	5356
3396.164	5287
3397.896	5328
3399.627	5354
3401.36	5342
3403.09	5304
3404.82	5352
3406.55	5435
3408.279	5255
3410.01	5309
3411.738	5278
3413.467	5242
3415.194	5332
3416.92	5288
3418.647	5310
3420.375	5285
3422.102	5254
3423.827	5229
3425.553	5191
3427.277	5186
3429.003	5240
3430.727	5245
3432.451	5204
3434.173	5238
3435.896	5215
3437.62	5261
3439.343	5174
3441.063	5226
3442.785	5126
3444.505	5220
3446.226	5217
3447.948	5125
3449.666	5076
3451.386	5208
3453.104	5120
3454.823	5034
3456.541	5098
3458.259	5049
3459.976	5011
3461.693	5043
3463.408	5117
3465.125	5045
3466.841	5070
3468.556	5065
3470.271	5126
3471.985	5034
3473.698	5051
3475.414	5147
3477.126	5015
3478.838	5053
3480.55	4896
3482.263	4985
3483.975	5078
3485.686	5078
3487.396	4901
3489.106	4919
3490.817	4912
3492.526	5086
3494.236	4894
3495.944	4958
3497.652	4958
3499.359	4922
3501.066	4855
3502.775	4892
3504.481	4879
3506.187	4938
3507.893	4977
3509.598	4925
3511.304	4877
3513.009	4877
3514.713	5002
3516.417	4791
3518.12	4879
3519.821	4792
3521.525	4877
3523.228	4912
3524.929	4849
3526.631	4855
3528.33	4745
3530.032	4892
3531.733	4766
3533.433	4904
3535.131	4802
3536.83	4840
3538.529	4690
3540.227	4770
3541.925	4792
3543.623	4774
3545.319	4820
3547.016	4617
3548.712	4801
3550.408	4765
3552.103	4760
3553.798	4734
3555.491	4731
3557.188	4689
3558.88	4676
3560.574	4658
3562.266	4714
3563.959	4764
3565.651	4618
3567.343	4738
3569.035	4687
3570.725	4771
3572.415	4705
3574.106	4676
3575.797	4656
3577.485	4663
3579.174	4660
3580.863	4635
3582.551	4572
3584.238	4615
3585.926	4730
3587.613	4571
3589.3	4574
3590.986	4610
3592.671	4614
3594.357	4618
3596.042	4526
3597.726	4572
3599.41	4603
3601.094	4618
3602.778	4557
3604.461	4464
3606.143	4469
3607.825	4498
3609.507	4497
3611.188	4435
3612.87	4489
3614.551	4556
3616.229	4478
3617.909	4482
3619.589	4500
3621.269	4474
3622.948	4463
3624.625	4445
3626.302	4427
3627.98	4489
3629.657	4390
3631.334	4478
3633.01	4333
3634.686	4413
3636.361	4418
3638.036	4484
3639.712	4413
3641.385	4502
3643.06	4417
3644.732	4332
3646.405	4300
3648.08	4327
3649.751	4355
3651.424	4282
3653.094	4383
3654.766	4273
3656.436	4388
3658.106	4349
3659.777	4268
3661.446	4263
3663.115	4321
3664.783	4283
3666.452	4376
3668.121	4301
3669.788	4224
3671.454	4226
3673.121	4336
3674.789	4289
3676.455	4203
3678.12	4301
3679.784	4395
3681.45	4267
3683.114	4294
3684.779	4286
3686.442	4256
3688.105	4267
3689.768	4273
3691.43	4203
3693.093	4252
3694.754	4271
3696.415	4157
3698.076	4168
3699.736	4160
3701.396	4117
3703.057	4173
3704.716	4172
3706.375	4252
3708.034	4161
3709.692	4234
3711.351	4208
3713.008	4143
3714.665	4162
3716.321	4162
3717.977	4152
3719.634	4196
3721.29	4153
3722.945	4171
3724.598	4151
3726.253	4158
3727.907	4137
3729.561	4149
3731.214	4140
3732.867	4081
3734.518	4080
3736.171	4166
3737.824	4080
3739.474	4093
3741.125	4117
3742.775	4107
3744.425	4114
3746.074	4078
3747.725	4150
3749.373	4163
3751.022	4119
3752.669	4067
3754.318	4221
3755.966	4032
3757.612	4107
3759.259	4086
3760.905	4028
3762.55	4065
3764.197	4043
3765.842	3986
3767.486	4044
3769.131	4008
3770.774	3993
3772.417	4019
3774.061	4085
3775.705	4075
3777.347	4077
3778.988	3984
3780.629	3999
3782.271	4049
3783.912	4096
3785.552	3986
3787.192	3958
3788.831	3962
3790.472	3897
3792.112	4037
3793.75	3966
3795.388	4012
3797.024	3987
3798.661	3930
3800.3	3979
3801.936	3980
3803.572	4008
3805.208	3983
3806.844	3935
3808.48	3935
3810.115	3917
3811.748	3949
3813.382	3966
3815.016	3928
3816.649	3927
3818.283	3948
3819.914	3941
3821.547	3898
3823.178	3916
3824.809	3999
3826.441	3935
3828.072	3912
3829.701	3878
3831.331	3881
3832.96	3901
3834.591	3912
3836.219	3842
3837.847	3941
3839.475	3896
3841.102	3890
3842.729	3922
3844.357	3835
3845.984	3812
3847.609	3829
3849.234	3818
3850.86	3890
3852.485	3886
3854.11	3849
3855.734	3785
3857.357	3886
3858.981	3802
3860.603	3797
3862.227	3854
3863.848	3812
3865.471	3824
3867.092	3789
3868.713	3744
3870.334	3829
3871.954	3799
3873.575	3854
3875.194	3834
3876.813	3804
3878.433	3811
3880.051	3802
3881.669	3780
3883.286	3768
3884.904	3757
3886.52	3770
3888.138	3745
3889.754	3698
3891.37	3708
3892.985	3755
3894.6	3767
3896.216	3744
3897.831	3784
3899.444	3802
3901.058	3701
3902.67	3780
3904.283	3677
3905.897	3700
3907.509	3752
3909.121	3719
3910.731	3757
3912.342	3634
3913.954	3678
3915.563	3708
3917.174	3765
3918.783	3711
3920.391	3705
3922.002	3676
3923.611	3601
3925.218	3727
3926.826	3630
3928.432	3681
3930.039	3675
3931.647	3722
3933.253	3668
3934.859	3631
3936.464	3667
3938.068	3690
3939.675	3738
3941.278	3657
3942.883	3630
3944.486	3704
3946.089	3620
3947.692	3675
3949.295	3602
3950.898	3601
3952.499	3666
3954.1	3672
3955.7	3667
3957.303	3637
3958.903	3687
3960.502	3649
3962.101	3676
3963.7	3649
3965.301	3655
3966.899	3698
3968.497	3603
3970.094	3556
3971.691	3600
3973.288	3560
3974.885	3604
3976.481	3560
3978.077	3507
3979.672	3526
3981.267	3581
3982.863	3600
3984.457	3529
3986.051	3548
3987.645	3525
3989.238	3536
3990.831	3544
3992.425	3542
3994.017	3583
3995.607	3522
3997.199	3569
3998.79	3570
4000.382	3518
4001.973	3541
4003.561	3540
4005.151	3514
4006.741	3447
4008.331	3482
4009.918	3599
4011.507	3444
4013.095	3514
4014.681	3501
4016.269	3483
4017.856	3400
4019.443	3414
4021.028	3419
4022.614	3455
4024.199	3454
4025.785	3441
4027.37	3449
4028.953	3373
4030.536	3458
4032.12	3479
4033.704	3410
4035.287	3416
4036.869	3399
4038.45	3354
4040.032	3489
4041.613	3354
4043.195	3398
4044.776	3345
4046.356	3406
4047.935	3358
4049.515	3325
4051.095	3423
4052.674	3346
4054.251	3353
4055.829	3309
4057.406	3339
4058.985	3445
4060.562	3272
4062.139	3325
4063.715	3352
4065.29	3350
4066.865	3306
4068.442	3348
4070.016	3331
4071.59	3304
4073.164	3221
4074.738	3434
4076.312	3369
4077.885	3325
4079.458	3350
4081.03	3280
4082.602	3263
4084.173	3296
4085.745	3323
4087.315	3351
4088.886	3387
4090.456	3254
4092.026	3256
4093.596	3328
4095.165	3270
4096.734	3279
4098.301	3262
4099.869	3321
4101.437	3310
4103.006	3286
4104.572	3301
4106.139	3294
4107.704	3266
4109.27	3239
4110.837	3272
4112.401	3260
4113.966	3234
4115.53	3235
4117.094	3235
4118.659	3277
4120.223	3213
4121.785	3204
4123.347	3189
4124.909	3252
4126.471	3216
4128.034	3190
4129.595	3197
4131.155	3228
4132.716	3180
4134.275	3181
4135.836	3213
4137.395	3171
4138.955	3109
4140.513	3215
4142.071	3204
4143.628	3187
4145.188	3133
4146.745	3120
4148.302	3079
4149.858	3026
4151.414	3197
4152.971	3142
4154.526	3107
4156.081	3184
4157.635	3129
4159.189	3098
4160.745	3096
4162.298	3201
4163.852	3100
4165.405	3119
4166.957	3149
4168.51	3058
4170.063	3097
4171.614	3165
4173.166	3053
4174.717	3085
4176.267	3122
4177.817	3103
4179.368	3050
4180.917	3067
4182.466	3033
4184.016	3129
4185.564	3083
4187.112	3057
4188.66	3032
4190.207	2996
4191.754	3046
4193.301	3016
4194.848	3011
4196.394	3003
4197.94	3001
4199.484	2899
4201.03	3060
4202.575	3032
4204.12	2985
4205.663	3103
4207.207	2991
4208.75	2988
4210.292	3029
4211.836	2993
4213.378	2937
4214.92	2975
4216.46	3033
4218.002	3008
4219.544	3023
4221.083	2981
4222.625	2973
4224.164	2992
4225.703	3001
4227.244	2986
4228.782	3018
4230.32	3067
4231.857	3010
4233.395	3001
4234.933	2998
4236.471	2911
4238.007	2959
4239.542	3010
4241.078	2955
4242.614	2939
4244.15	2893
4245.685	2901
4247.219	2932
4248.753	2896
4250.287	2907
4251.82	2933
4253.354	2866
4254.887	2942
4256.419	2949
4257.951	2922
4259.483	2862
4261.016	2892
4262.547	2871
4264.078	2896
4265.608	2878
4267.137	2945
4268.668	2838
4270.197	2871
4271.727	2827
4273.254	2826
4274.783	2922
4276.311	2850
4277.84	2934
4279.366	2924
4280.894	2805
4282.42	2866
4283.946	2826
4285.473	2842
4286.998	2908
4288.523	2875
4290.047	2892
4291.572	2777
4293.096	2867
4294.622	2872
4296.144	2830
4297.668	2818
4299.19	2870
4300.713	2862
4302.236	2888
4303.758	2840
4305.279	2790
4306.799	2746
4308.321	2806
4309.842	2802
4311.361	2808
4312.882	2765
4314.401	2750
