400.0961	4081
402.6185	4073
405.1424	4103
407.6635	4094
410.1838	4059
412.7035	4092
415.2225	4135
417.7388	4229
420.2585	4226
422.7754	4213
425.2917	4238
427.8072	4256
430.3221	4327
432.8363	4272
435.3498	4255
437.8626	4333
440.3727	4389
442.8841	4398
445.3969	4354
447.907	4276
450.4142	4277
452.9229	4366
455.4289	4257
457.9362	4317
460.4449	4346
462.9488	4278
465.454	4325
467.9566	4285
470.4604	4377
472.9637	4299
475.4662	4356
477.966	4366
480.4671	4351
482.9656	4391
485.4633	4376
487.9645	4388
490.4608	4423
492.9566	4393
495.4536	4360
497.948	4377
500.4437	4396
502.9387	4402
505.431	4471
507.9226	4417
510.4136	4471
512.9079	4495
515.3975	4527
517.8864	4377
520.3746	4469
522.8622	4367
525.3491	4506
527.8394	4568
530.3249	4463
532.8098	4510
535.2939	4481
537.7774	4534
540.2623	4566
542.7444	4535
545.2259	4549
547.7067	4500
550.1868	4582
552.6683	4595
555.147	4502
557.6231	4488
560.1005	4529
562.5773	4503
565.0534	4591
567.5308	4534
570.0056	4533
572.4776	4609
574.951	4623
577.4237	4593
579.8978	4676
582.3671	4621
584.8378	4746
587.3079	4711
589.7773	4731
592.244	4725
594.714	4692
597.1793	4685
599.6461	4712
602.1121	4767
604.5754	4795
607.0421	4674
609.5042	4787
611.9675	4677
614.4282	4696
616.8902	4679
619.3515	4664
621.8122	4625
624.2702	4642
626.7296	4615
629.1863	4658
631.6423	4684
634.1017	4705
636.5563	4698
639.0104	4681
641.4658	4688
643.9185	4716
646.3725	4729
648.8239	4697
651.2766	4621
653.7266	4658
656.176	4829
658.6247	4832
661.0748	4795
663.5242	4769
665.9709	4771
668.417	4826
670.8624	4789
673.3092	4860
675.7533	4794
678.1968	4831
680.6395	4814
683.0817	4817
685.5251	4858
687.9659	4879
690.4061	4910
692.8456	4829
695.2844	4872
697.7226	4906
700.1621	4804
702.599	4811
705.0332	4931
707.4688	4962
709.9036	4881
712.3399	4882
714.7735	4948
717.2044	4845
719.6367	5024
722.0683	5000
724.4993	4989
726.9296	4958
729.3593	5057
731.7883	4929
734.2147	5132
736.6423	5033
739.0714	5065
741.4958	5030
743.9216	5150
746.3447	5032
748.7691	5130
751.1929	5088
753.616	5096
756.0366	5118
758.4584	5260
760.8776	5162
763.2982	5130
765.718	5155
768.1373	5136
770.5539	5107
772.9698	5264
775.3871	5123
777.8038	5157
780.2178	5081
782.6332	5230
785.0459	5195
787.458	5219
789.8714	5193
792.2842	5292
794.6943	5241
797.1038	5215
799.5127	5260
801.9209	5134
804.3324	5162
806.7393	5226
809.1456	5150
811.5513	5297
813.9562	5272
816.3625	5271
818.7663	5279
821.1693	5257
823.5718	5238
825.9735	5188
828.3746	5238
830.7771	5155
833.177	5248
835.5762	5296
837.9747	5429
840.3727	5330
842.772	5305
845.1666	5402
847.5626	5368
849.958	5386
852.3527	5284
854.7488	5416
857.1403	5462
859.5331	5492
861.9253	5453
864.3168	5393
866.7057	5486
869.098	5339
871.4876	5445
873.8746	5475
876.263	5420
878.6487	5378
881.0378	5370
883.4243	5366
885.8081	5345
888.1933	5317
890.5759	5371
892.9598	5315
895.343	5416
897.7256	5393
900.1057	5339
902.4871	5402
904.8659	5444
907.246	5460
909.6254	5417
912.0023	5455
914.3786	5529
916.7562	5644
919.1331	5594
921.5074	5699
923.8831	5765
926.2562	5680
928.6287	5730
931.0005	5679
933.3757	5731
935.7462	5736
938.1162	5700
940.4855	5696
942.8542	5792
945.2242	5791
947.5916	5774
949.9584	5903
952.3266	6088
954.6921	6144
957.0571	6451
959.4233	6629
961.787	6540
964.15	6597
966.5125	6455
968.8742	6195
971.2354	6124
973.5959	5984
975.9559	5815
978.3151	5864
980.6738	5736
983.0338	5668
985.3912	5710
987.7461	5590
990.1022	5487
992.4578	5569
994.8127	5544
997.1689	5525
999.5207	5588
1001.874	5573
1004.226	5575
1006.576	5605
1008.929	5616
1011.28	5616
1013.628	5592
1015.977	5630
1018.324	5567
1020.674	5620
1023.019	5512
1025.366	5631
1027.713	5632
1030.056	5632
1032.399	5662
1034.746	5713
1037.087	5705
1039.431	5775
1041.771	5656
1044.113	5695
1046.454	5556
1048.793	5670
1051.133	5679
1053.471	5686
1055.807	5716
1058.146	5601
1060.483	5685
1062.818	5707
1065.153	5744
1067.489	5790
1069.822	5776
1072.156	5793
1074.488	5675
1076.82	5830
1079.15	5725
1081.48	5844
1083.814	5706
1086.143	5654
1088.471	5784
1090.799	5661
1093.126	5644
1095.452	5711
1097.78	5749
1100.105	5668
1102.43	5786
1104.754	5696
1107.077	5662
1109.4	5750
1111.722	5742
1114.044	5750
1116.365	5752
1118.685	5787
1121.005	5686
1123.324	5772
1125.643	5826
1127.961	5820
1130.278	5736
1132.595	5727
1134.911	5825
1137.226	5786
1139.541	5837
1141.854	5717
1144.167	5843
1146.482	5763
1148.793	5849
1151.105	5785
1153.414	5712
1155.725	5669
1158.033	5865
1160.344	5778
1162.651	5709
1164.959	5822
1167.265	5801
1169.572	5781
1171.878	5766
1174.184	5809
1176.488	5747
1178.79	5826
1181.094	5837
1183.396	5821
1185.699	5817
1188.001	5804
1190.301	5745
1192.6	5813
1194.9	5848
1197.2	5858
1199.497	5721
1201.794	5862
1204.09	5935
1206.387	5762
1208.684	5797
1210.978	5758
1213.272	5791
1215.565	5698
1217.858	5849
1220.15	5889
1222.443	5762
1224.734	5906
1227.024	5816
1229.313	5843
1231.602	5850
1233.892	5882
1236.18	5908
1238.467	5995
1240.754	6101
1243.04	6081
1245.325	6055
1247.612	6024
1249.896	6076
1252.178	6029
1254.461	5966
1256.743	5969
1259.027	5905
1261.308	5996
1263.587	6105
1265.867	6148
1268.146	6084
1270.425	6063
1272.703	6151
1274.981	6127
1277.256	6064
1279.532	6090
1281.808	6076
1284.083	6003
1286.358	5994
1288.63	6027
1290.904	6021
1293.175	5916
1295.449	5879
1297.719	5989
1299.99	5952
1302.259	5912
1304.529	5842
1306.798	5994
1309.065	5972
1311.333	5885
1313.599	5935
1315.866	5925
1318.131	5976
1320.396	5986
1322.66	5905
1324.925	5975
1327.187	5993
1329.448	6005
1331.711	5885
1333.974	6083
1336.234	5955
1338.493	6068
1340.752	5990
1343.01	5966
1345.269	5985
1347.526	6042
1349.784	5888
1352.04	5979
1354.295	6079
1356.552	5947
1358.806	5921
1361.059	5960
1363.312	5951
1365.564	5977
1367.818	6061
1370.069	5999
1372.318	5898
1374.568	6007
1376.817	5991
1379.066	6063
1381.316	6021
1383.564	6024
1385.809	6035
1388.056	6034
1390.301	6117
1392.549	6131
1394.793	6208
1397.036	6198
1399.279	6291
1401.522	6212
1403.763	6139
1406.007	6331
1408.248	6245
1410.487	6214
1412.727	6355
1414.965	6203
1417.205	6238
1419.442	6218
1421.68	6183
1423.915	6189
1426.152	6175
1428.388	6178
1430.623	6185
1432.857	6247
1435.091	6243
1437.323	6254
1439.556	6338
1441.789	6295
1444.019	6288
1446.25	6204
1448.48	6261
1450.708	6227
1452.938	6412
1455.167	6385
1457.394	6396
1459.62	6227
1461.846	6339
1464.073	6409
1466.299	6248
1468.523	6151
1470.746	6184
1472.969	6215
1475.191	6177
1477.415	6164
1479.636	6085
1481.858	6100
1484.078	5886
1486.298	6090
1488.518	6082
1490.736	6091
1492.954	6064
1495.169	6009
1497.386	6028
1499.602	6026
1501.819	5970
1504.034	5947
1506.248	6028
1508.462	6059
1510.675	6056
1512.888	6003
1515.1	5999
1517.311	5965
1519.522	5972
1521.732	5909
1523.942	6088
1526.151	5976
1528.36	6096
1530.566	6027
1532.773	6017
1534.98	6013
1537.187	5981
1539.392	6002
1541.596	5988
1543.801	6115
1546.005	6085
1548.208	6039
1550.411	6105
1552.612	6161
1554.814	6097
1557.013	6115
1559.212	6079
1561.414	6125
1563.612	6087
1565.811	6154
1568.007	6176
1570.203	6304
1572.403	6134
1574.598	6121
1576.792	6115
1578.988	6168
1581.181	6098
1583.376	6002
1585.568	6180
1587.761	6112
1589.952	6226
1592.143	6260
1594.333	6171
1596.524	6152
1598.715	6206
1600.903	6319
1603.091	6264
1605.278	6139
1607.466	6137
1609.652	6172
1611.838	6146
1614.023	6204
1616.207	6194
1618.391	6224
1620.576	6127
1622.759	6243
1624.941	6181
1627.123	6253
1629.304	6315
1631.484	6213
1633.664	6247
1635.844	6258
1638.022	6294
1640.201	6296
1642.38	6339
1644.556	6327
1646.732	6349
1648.908	6347
1651.084	6292
1653.257	6168
1655.433	6350
1657.607	6190
1659.779	6343
1661.951	6329
1664.122	6345
1666.295	6351
1668.467	6309
1670.635	6398
1672.805	6350
1674.973	6434
1677.142	6267
1679.31	6378
1681.478	6308
1683.644	6347
1685.81	6258
1687.975	6292
1690.142	6341
1692.305	6318
1694.468	6274
1696.632	6288
1698.794	6249
1700.957	6209
1703.119	6161
1705.279	6196
1707.439	6127
1709.598	6171
1711.758	6121
1713.917	6363
1716.075	6121
1718.231	6156
1720.388	6215
1722.543	6196
1724.702	6139
1726.856	6097
1729.01	6332
1731.164	6247
1733.317	6187
1735.471	6165
1737.623	6138
1739.774	6138
1741.925	6121
1744.075	6173
1746.225	6238
1748.376	6090
1750.524	6128
1752.672	6222
1754.82	6228
1756.965	6369
1759.113	6274
1761.259	6214
1763.405	6283
1765.549	6172
1767.694	6207
1769.836	6198
1771.981	6272
1774.123	6368
1776.264	6272
1778.405	6255
1780.546	6301
1782.687	6115
1784.827	6234
1786.966	6249
1789.103	6339
1791.242	6133
1793.381	6212
1795.517	6233
1797.653	6419
1799.788	6213
1801.923	6186
1804.057	6187
1806.193	6284
1808.326	6276
1810.457	6276
1812.59	6190
1814.721	6340
1816.855	6146
1818.984	6387
1821.113	6222
1823.244	6230
1825.372	6198
1827.499	6218
1829.63	6239
1831.756	6240
1833.882	6252
1836.007	6255
1838.132	6172
1840.26	6099
1842.384	6070
1844.507	6195
1846.63	6122
1848.752	6199
1850.875	6296
1852.996	6154
1855.118	6175
1857.238	6263
1859.358	6214
1861.477	6170
1863.597	6066
1865.715	6191
1867.832	6262
1869.948	6128
1872.064	6187
1874.181	6154
1876.297	6129
1878.411	6168
1880.526	6247
1882.639	6210
1884.752	6250
1886.865	6185
1888.977	6141
1891.089	6172
1893.2	6131
1895.308	6210
1897.42	6241
1899.53	6323
1901.639	6227
1903.745	6267
1905.853	6324
1907.962	6255
1910.067	6250
1912.174	6281
1914.278	6228
1916.383	6233
1918.486	6199
1920.592	6273
1922.694	6200
1924.797	6243
1926.898	6242
1929	6474
1931.102	6316
1933.203	6353
1935.301	6346
1937.401	6215
1939.499	6273
1941.598	6283
1943.697	6336
1945.793	6308
1947.888	6272
1949.985	6281
1952.08	6163
1954.176	6303
1956.269	6347
1958.364	6239
1960.457	6430
1962.549	6327
1964.642	6308
1966.733	6247
1968.823	6274
1970.913	6273
1973.005	6259
1975.093	6183
1977.184	6261
1979.271	6271
1981.359	6221
1983.446	6222
1985.532	6352
1987.619	6319
1989.705	6260
1991.789	6259
1993.874	6213
1995.956	6193
1998.041	6325
2000.123	6243
2002.206	6302
2004.287	6212
2006.368	6066
2008.449	6205
2010.529	6337
2012.609	6244
2014.688	6217
2016.766	6115
2018.843	6170
2020.922	6096
2022.999	6246
2025.074	6172
2027.15	6193
2029.225	6264
2031.299	6145
2033.375	6227
2035.447	6150
2037.52	6217
2039.592	6252
2041.664	6246
2043.736	6276
2045.807	6209
2047.876	6208
2049.947	6269
2052.015	6165
2054.086	6246
2056.153	6205
2058.221	6143
2060.288	6273
2062.353	6192
2064.42	6097
2066.486	6233
2068.55	6182
2070.614	6232
2072.678	6154
2074.741	6127
2076.805	6149
2078.866	6301
2080.929	6303
2082.99	6183
2085.049	6098
2087.109	6243
2089.17	6181
2091.228	6192
2093.286	6234
2095.344	6250
2097.4	6283
2099.46	6129
2101.516	6122
2103.572	6204
2105.626	6253
2107.679	6181
2109.735	6174
2111.788	6206
2113.841	6232
2115.894	6217
2117.945	6177
2119.997	6179
2122.049	6115
2124.1	6288
2126.148	6283
2128.197	6253
2130.246	6117
2132.296	6133
2134.342	6262
2136.39	6236
2138.437	6159
2140.483	6108
2142.527	6115
2144.574	6131
2146.619	6199
2148.661	6182
2150.705	6078
2152.747	6092
2154.792	6207
2156.832	6093
2158.874	6203
2160.915	6059
2162.954	6157
2164.995	6129
2167.034	6112
2169.072	6232
2171.111	6134
2173.148	6140
2175.186	6220
2177.223	6023
2179.258	6177
2181.294	6136
2183.328	6110
2185.362	6132
2187.398	6124
2189.431	6095
2191.463	6176
2193.495	6089
2195.528	6027
2197.56	6145
2199.59	6008
2201.62	6105
2203.649	6046
2205.678	6144
2207.708	5989
2209.737	6073
2211.764	6051
2213.791	5879
2215.817	5979
2217.843	6011
2219.87	5992
2221.895	5950
2223.919	6036
2225.942	5999
2227.966	6042
2229.988	5928
2232.012	5958
2234.032	6087
2236.054	6029
2238.074	5940
2240.095	6100
2242.116	5966
2244.135	6059
2246.153	6007
2248.171	6002
2250.188	5989
2252.208	5932
2254.223	6017
2256.239	6037
2258.255	6099
2260.269	5955
2262.283	6013
2264.3	6018
2266.312	5992
2268.325	6080
2270.336	5916
2272.349	5975
2274.362	5974
2276.372	6011
2278.383	6076
2280.392	5966
2282.402	6054
2284.409	5931
2286.418	6050
2288.427	6033
2290.433	5960
2292.441	6069
2294.446	5877
2296.453	5983
2298.459	5955
2300.463	5929
2302.466	5982
2304.471	5943
2306.475	6056
2308.477	5936
2310.478	5956
2312.481	6000
2314.481	5975
2316.481	5960
2318.482	5893
2320.482	5989
2322.48	5923
2324.48	5872
2326.478	5895
2328.476	6008
2330.473	5905
2332.469	5965
2334.465	5963
2336.46	5882
2338.454	5855
2340.45	6016
2342.444	5938
2344.437	6021
2346.43	5992
2348.421	5956
2350.414	5867
2352.405	5924
2354.396	5974
2356.386	5893
2358.376	5887
2360.366	5871
2362.355	5764
2364.343	5850
2366.331	5783
2368.317	5905
2370.304	5786
2372.292	5891
2374.278	5798
2376.262	5926
2378.247	5820
2380.23	5771
2382.216	5867
2384.199	5783
2386.181	5810
2388.163	5789
2390.144	5822
2392.127	5822
2394.107	5807
2396.087	5897
2398.066	5804
2400.046	5773
2402.023	5765
2404.004	5819
2405.981	5836
2407.957	5727
2409.934	5726
2411.91	5727
2413.886	5880
2415.862	5894
2417.836	5767
2419.809	5825
2421.784	5747
2423.756	5755
2425.73	5784
2427.701	5806
2429.672	5711
2431.644	5728
2433.615	5803
2435.586	5802
2437.555	5739
2439.523	5826
2441.491	5790
2443.459	5812
2445.428	5716
2447.395	5801
2449.361	5768
2451.327	5731
2453.292	5714
2455.257	5744
2457.223	5698
2459.187	5639
2461.15	5759
2463.113	5815
2465.076	5709
2467.039	5705
2468.999	5630
2470.96	5716
2472.921	5664
2474.881	5717
2476.841	5717
2478.8	5788
2480.759	5789
2482.717	5651
2484.675	5669
2486.63	5615
2488.589	5641
2490.545	5647
2492.5	5743
2494.455	5714
2496.408	5656
2498.364	5815
2500.318	5614
2502.27	5604
2504.223	5649
2506.174	5749
2508.126	5678
2510.078	5682
2512.03	5565
2513.979	5684
2515.927	5578
2517.877	5610
2519.826	5724
2521.775	5599
2523.722	5626
2525.668	5662
2527.616	5662
2529.561	5579
2531.508	5549
2533.452	5698
2535.398	5656
2537.342	5541
2539.284	5710
2541.229	5718
2543.173	5588
2545.114	5592
2547.055	5720
2548.996	5733
2550.938	5599
2552.878	5485
2554.817	5632
2556.756	5603
2558.695	5657
2560.633	5611
2562.572	5483
2564.509	5643
2566.445	5556
2568.382	5706
2570.317	5578
2572.254	5652
2574.189	5665
2576.123	5592
2578.057	5609
2579.99	5627
2581.923	5615
2583.855	5622
2585.788	5606
2587.719	5573
2589.65	5668
2591.579	5626
2593.511	5552
2595.44	5618
2597.37	5593
2599.297	5635
2601.225	5548
2603.153	5576
2605.08	5666
2607.007	5586
2608.932	5664
2610.858	5613
2612.782	5702
2614.709	5636
2616.632	5577
2618.556	5685
2620.478	5569
2622.401	5648
2624.324	5637
2626.247	5622
2628.167	5699
2630.088	5634
2632.008	5562
2633.928	5651
2635.848	5687
2637.766	5527
2639.684	5590
2641.603	5645
2643.519	5618
2645.437	5631
2647.353	5653
2649.27	5594
2651.184	5607
2653.099	5552
2655.014	5531
2656.928	5554
2658.842	5643
2660.755	5559
2662.667	5622
2664.579	5671
2666.491	5524
2668.402	5561
2670.312	5503
2672.222	5615
2674.132	5562
2676.042	5534
2677.951	5572
2679.859	5516
2681.766	5584
2683.674	5567
2685.582	5497
2687.488	5515
2689.392	5378
2691.298	5513
2693.202	5472
2695.107	5579
2697.012	5486
2698.914	5543
2700.817	5512
2702.72	5527
2704.622	5555
2706.524	5417
2708.425	5479
2710.326	5544
2712.225	5431
2714.125	5420
2716.024	5608
2717.923	5478
2719.822	5437
2721.719	5351
2723.616	5457
2725.512	5483
2727.41	5493
2729.305	5482
2731.201	5469
2733.095	5557
2734.99	5450
2736.884	5502
2738.778	5458
2740.67	5415
2742.562	5365
2744.455	5602
2746.346	5352
2748.238	5410
2750.129	5530
2752.018	5363
2753.907	5439
2755.797	5556
2757.687	5490
2759.575	5353
2761.462	5327
2763.349	5416
2765.237	5435
2767.124	5359
2769.009	5394
2770.894	5527
2772.779	5414
2774.663	5435
2776.547	5425
2778.431	5339
2780.314	5454
2782.197	5519
2784.078	5457
2785.96	5479
2787.842	5423
2789.723	5449
2791.603	5430
2793.483	5454
2795.362	5515
2797.241	5316
2799.121	5396
2800.997	5375
2802.874	5376
2804.751	5363
2806.628	5417
2808.506	5343
2810.38	5398
2812.255	5327
2814.13	5376
2816.003	5375
2817.878	5336
2819.752	5286
2821.623	5408
2823.496	5215
2825.368	5355
2827.238	5340
2829.111	5379
2830.98	5308
2832.851	5494
2834.719	5471
2836.589	5404
2838.458	5348
2840.327	5365
2842.193	5414
2844.061	5400
2845.927	5374
2847.794	5411
2849.66	5313
2851.525	5412
2853.39	5522
2855.254	5381
2857.117	5417
2858.983	5531
2860.845	5450
2862.707	5503
2864.569	5466
2866.431	5485
2868.293	5420
2870.154	5621
2872.013	5610
2873.873	5683
2875.733	5698
2877.592	5693
2879.451	5741
2881.309	5896
2883.166	5728
2885.022	5875
2886.879	5844
2888.736	5865
2890.591	5852
2892.446	5949
2894.301	5955
2896.155	5970
2898.009	5921
2899.863	5808
2901.716	5798
2903.568	5880
2905.419	5799
2907.27	5798
2909.123	6004
2910.973	5887
2912.824	5861
2914.673	5992
2916.521	5902
2918.372	6171
2920.22	6043
2922.067	6083
2923.914	5989
2925.761	6108
2927.607	6079
2929.455	6165
2931.301	6271
2933.144	6275
2934.99	6293
2936.833	6363
2938.678	6282
2940.522	6372
2942.364	6507
2944.207	6488
2946.048	6590
2947.891	6664
2949.731	6653
2951.571	6708
2953.412	6645
2955.25	6532
2957.09	6571
2958.93	6382
2960.767	6380
2962.606	6437
2964.443	6286
2966.279	6288
2968.116	6196
2969.953	6073
2971.788	6031
2973.623	5996
2975.457	5938
2977.292	6052
2979.127	5866
2980.959	6014
2982.792	5820
2984.624	5814
2986.455	5914
2988.288	5642
2990.119	5733
2991.949	5616
2993.779	5680
2995.608	5700
2997.439	5611
2999.268	5573
3001.096	5642
3002.923	5568
3004.751	5495
3006.578	5404
3008.406	5501
3010.232	5416
3012.057	5276
3013.883	5274
3015.706	5299
3017.532	5252
3019.356	5210
3021.179	5143
3023.002	5147
3024.823	5109
3026.646	5238
3028.469	5215
3030.289	5118
3032.11	5085
3033.93	5125
3035.749	5151
3037.57	5028
3039.39	5076
3041.207	5144
3043.026	5126
3044.842	5174
3046.661	5045
3048.477	5152
3050.294	5071
3052.109	5047
3053.925	5119
3055.739	5044
3057.555	5012
3059.368	5027
3061.181	5053
3062.995	5015
3064.807	4983
3066.62	4972
3068.433	5125
3070.243	5003
3072.054	4965
3073.865	5000
3075.675	5069
3077.485	5036
3079.293	4933
3081.102	5001
3082.911	5031
3084.719	4931
3086.527	4925
3088.333	4963
3090.139	4898
3091.945	4917
3093.75	4911
3095.557	4952
3097.361	4878
3099.165	4957
3100.969	4856
3102.772	4791
3104.575	4752
3106.379	4906
3108.181	4922
3109.982	4909
3111.783	4871
3113.584	4933
3115.386	4828
3117.186	4884
3118.985	4920
3120.783	4880
3122.582	4814
3124.381	4847
3126.179	4839
3127.975	4864
3129.772	4812
3131.569	4851
3133.365	4718
3135.161	4794
3136.956	4838
3138.751	4752
3140.544	4744
3142.338	4685
3144.132	4721
3145.925	4879
3147.717	4766
3149.509	4775
3151.301	4843
3153.091	4814
3154.884	4757
3156.673	4730
3158.462	4790
3160.252	4836
3162.041	4763
3163.831	4734
3165.618	4695
3167.405	4707
3169.193	4699
3170.979	4748
3172.767	4754
3174.553	4776
3176.338	4751
3178.123	4768
3179.907	4736
3181.692	4745
3183.477	4655
3185.259	4744
3187.042	4761
3188.824	4565
3190.607	4665
3192.389	4672
3194.17	4755
3195.951	4689
3197.73	4663
3199.51	4899
3201.289	4594
3203.07	4793
3204.848	4692
3206.626	4653
3208.403	4703
3210.18	4704
3211.959	4632
3213.735	4772
3215.511	4668
3217.285	4689
3219.06	4735
3220.836	4695
3222.611	4629
3224.384	4765
3226.158	4551
3227.929	4663
3229.702	4741
3231.476	4686
3233.248	4691
3235.018	4583
3236.789	4767
3238.56	4723
3240.33	4709
3242.1	4563
3243.869	4713
3245.637	4719
3247.405	4667
3249.172	4595
3250.941	4680
3252.707	4718
3254.474	4725
3256.24	4602
3258.006	4651
3259.772	4596
3261.537	4515
3263.301	4671
3265.065	4597
3266.828	4728
3268.592	4677
3270.355	4654
3272.117	4678
3273.878	4698
3275.64	4561
3277.401	4651
3279.162	4674
3280.922	4673
3282.682	4618
3284.441	4622
3286.199	4701
3287.959	4659
3289.716	4706
3291.475	4649
3293.232	4659
3294.988	4559
3296.744	4636
3298.501	4644
3300.256	4624
3302.011	4667
3303.766	4663
3305.52	4684
3307.275	4649
3309.028	4618
3310.781	4617
3312.533	4508
3314.285	4603
3316.038	4569
3317.789	4626
3319.54	4586
3321.289	4609
3323.039	4611
3324.789	4593
3326.539	4654
3328.288	4606
3330.035	4574
3331.783	4606
3333.531	4647
3335.28	4599
3337.025	4473
3338.771	4516
3340.518	4679
3342.262	4581
3344.009	4582
3345.753	4583
3347.497	4531
3349.24	4539
3350.983	4541
3352.726	4499
3354.469	4543
3356.212	4508
3357.952	4528
3359.694	4402
3361.434	4472
3363.176	4489
3364.916	4448
3366.654	4401
3368.394	4485
3370.132	4484
3371.871	4532
3373.61	4513
3375.346	4405
3377.083	4481
3378.82	4442
3380.556	4491
3382.292	4434
3384.027	4381
3385.763	4351
3387.497	4477
3389.231	4403
3390.965	4438
3392.698	4382
3394.431	4520
3396.164	4478
3397.896	4335
3399.627	4444
3401.36	4386
3403.09	4420
3404.82	4322
3406.55	4438
3408.279	4348
3410.01	4425
3411.738	4396
3413.467	4353
3415.194	4362
3416.92	4385
3418.647	4335
3420.375	4331
3422.102	4351
3423.827	4360
3425.553	4405
3427.277	4348
3429.003	4403
3430.727	4303
3432.451	4311
3434.173	4329
3435.896	4342
3437.62	4319
3439.343	4297
3441.063	4404
3442.785	4265
3444.505	4308
3446.226	4259
3447.948	4290
3449.666	4256
3451.386	4225
3453.104	4270
3454.823	4282
3456.541	4218
3458.259	4202
3459.976	4306
3461.693	4210
3463.408	4219
3465.125	4202
3466.841	4276
3468.556	4168
3470.271	4224
3471.985	4266
3473.698	4236
3475.414	4263
3477.126	4191
3478.838	4198
3480.55	4276
3482.263	4084
3483.975	4096
3485.686	4151
3487.396	4141
3489.106	4142
3490.817	4091
3492.526	4139
3494.236	4119
3495.944	4181
3497.652	4061
3499.359	4146
3501.066	4118
3502.775	4109
3504.481	4127
3506.187	4163
3507.893	4044
3509.598	4010
3511.304	3964
3513.009	4086
3514.713	4076
3516.417	4064
3518.12	3968
3519.821	4054
3521.525	4132
3523.228	4042
3524.929	4101
3526.631	4044
3528.33	3972
3530.032	3954
3531.733	3968
3533.433	4024
3535.131	4013
3536.83	4007
3538.529	4020
3540.227	3999
3541.925	3991
3543.623	3994
3545.319	3893
3547.016	3954
3548.712	3981
3550.408	3928
3552.103	3969
3553.798	4048
3555.491	3973
3557.188	3966
3558.88	3935
3560.574	3993
3562.266	3947
3563.959	3965
3565.651	3901
3567.343	3861
3569.035	3928
3570.725	3898
3572.415	3889
3574.106	3867
3575.797	3885
3577.485	3910
3579.174	3896
3580.863	3945
3582.551	3947
3584.238	3824
3585.926	3849
3587.613	3884
3589.3	3783
3590.986	3929
3592.671	3795
3594.357	3844
3596.042	3903
3597.726	3854
3599.41	3793
3601.094	3782
3602.778	3792
3604.461	3835
3606.143	3873
3607.825	3821
3609.507	3765
3611.188	3782
3612.87	3746
3614.551	3765
3616.229	3795
3617.909	3758
3619.589	3685
3621.269	3735
3622.948	3742
3624.625	3827
3626.302	3696
3627.98	3684
3629.657	3822
3631.334	3752
3633.01	3746
3634.686	3646
3636.361	3825
3638.036	3676
3639.712	3698
3641.385	3691
3643.06	3676
3644.732	3700
3646.405	3666
3648.08	3649
3649.751	3688
3651.424	3669
3653.094	3595
3654.766	3601
3656.436	3651
3658.106	3631
3659.777	3631
3661.446	3667
3663.115	3553
3664.783	3615
3666.452	3575
3668.121	3644
3669.788	3573
3671.454	3736
3673.121	3651
3674.789	3590
3676.455	3539
3678.12	3563
3679.784	3567
3681.45	3564
3683.114	3656
3684.779	3619
3686.442	3584
3688.105	3564
3689.768	3584
3691.43	3545
3693.093	3591
3694.754	3579
3696.415	3461
3698.076	3581
3699.736	3525
3701.396	3462
3703.057	3625
3704.716	3517
3706.375	3550
3708.034	3631
3709.692	3589
3711.351	3537
3713.008	3484
3714.665	3518
3716.321	3555
3717.977	3537
3719.634	3536
3721.29	3608
3722.945	3548
3724.598	3523
3726.253	3527
3727.907	3489
3729.561	3508
3731.214	3438
3732.867	3521
3734.518	3514
3736.171	3438
3737.824	3513
3739.474	3536
3741.125	3452
3742.775	3447
3744.425	3441
3746.074	3495
3747.725	3421
3749.373	3464
3751.022	3419
3752.669	3471
3754.318	3477
3755.966	3465
3757.612	3509
3759.259	3348
3760.905	3460
3762.55	3510
3764.197	3391
3765.842	3400
3767.486	3455
3769.131	3466
3770.774	3426
3772.417	3402
3774.061	3424
3775.705	3395
3777.347	3420
3778.988	3374
3780.629	3510
3782.271	3376
3783.912	3385
3785.552	3448
3787.192	3386
3788.831	3433
3790.472	3387
3792.112	3427
3793.75	3370
3795.388	3328
3797.024	3345
3798.661	3439
3800.3	3301
3801.936	3385
3803.572	3394
3805.208	3349
3806.844	3413
3808.48	3311
3810.115	3313
3811.748	3354
3813.382	3284
3815.016	3297
3816.649	3318
3818.283	3331
3819.914	3254
3821.547	3364
3823.178	3373
3824.809	3269
3826.441	3346
3828.072	3258
3829.701	3293
3831.331	3364
3832.96	3325
3834.591	3260
3836.219	3219
3837.847	3240
3839.475	3220
3841.102	3252
3842.729	3191
3844.357	3285
3845.984	3333
3847.609	3202
3849.234	3239
3850.86	3284
3852.485	3258
3854.11	3206
3855.734	3215
3857.357	3239
3858.981	3162
3860.603	3241
3862.227	3246
3863.848	3264
3865.471	3213
3867.092	3192
3868.713	3204
3870.334	3231
3871.954	3203
3873.575	3209
3875.194	3156
3876.813	3228
3878.433	3202
3880.051	3183
3881.669	3140
3883.286	3253
3884.904	3230
3886.52	3247
3888.138	3108
3889.754	3110
3891.37	3193
3892.985	3146
3894.6	3159
3896.216	3201
3897.831	3156
3899.444	3131
3901.058	3155
3902.67	3189
3904.283	3140
3905.897	3089
3907.509	3177
3909.121	3166
3910.731	3190
3912.342	3109
3913.954	3198
3915.563	3190
3917.174	3224
3918.783	3110
3920.391	3185
3922.002	3130
3923.611	3096
3925.218	3157
3926.826	3157
3928.432	3277
3930.039	3086
3931.647	3107
3933.253	3120
3934.859	3097
3936.464	3082
3938.068	3100
3939.675	3197
3941.278	3002
3942.883	3137
3944.486	3114
3946.089	3107
3947.692	3136
3949.295	3080
3950.898	3088
3952.499	3080
3954.1	3139
3955.7	3061
3957.303	3179
3958.903	3137
3960.502	3015
3962.101	3024
3963.7	2978
3965.301	3067
3966.899	3045
3968.497	3081
3970.094	3084
3971.691	3034
3973.288	3072
3974.885	3080
3976.481	2994
3978.077	3019
3979.672	3086
3981.267	3063
3982.863	3004
3984.457	3051
3986.051	3003
3987.645	3024
3989.238	2943
3990.831	3024
3992.425	3011
3994.017	2982
3995.607	2988
3997.199	2980
3998.79	2984
4000.382	2939
4001.973	2977
4003.561	2992
4005.151	2876
4006.741	2916
4008.331	2945
4009.918	2955
4011.507	2963
4013.095	2907
4014.681	2910
4016.269	2947
4017.856	2879
4019.443	2936
4021.028	2880
4022.614	2892
4024.199	2920
4025.785	2903
4027.37	2987
4028.953	2912
4030.536	2856
4032.12	2933
4033.704	2853
4035.287	2933
4036.869	2926
4038.45	2801
4040.032	2917
4041.613	2877
4043.195	2807
4044.776	2863
4046.356	2880
4047.935	2910
4049.515	2875
4051.095	2795
4052.674	2842
4054.251	2904
4055.829	2937
4057.406	2931
4058.985	2915
4060.562	2913
4062.139	2796
4063.715	2869
4065.29	2832
4066.865	2825
4068.442	2859
4070.016	2819
4071.59	2797
4073.164	2822
4074.738	2818
4076.312	2807
4077.885	2830
4079.458	2810
4081.03	2840
4082.602	2804
4084.173	2771
4085.745	2831
4087.315	2843
4088.886	2759
4090.456	2693
4092.026	2764
4093.596	2736
4095.165	2829
4096.734	2780
4098.301	2810
4099.869	2788
4101.437	2857
4103.006	2802
4104.572	2822
4106.139	2832
4107.704	2741
4109.27	2711
4110.837	2764
4112.401	2826
4113.966	2747
4115.53	2690
4117.094	2758
4118.659	2744
4120.223	2787
4121.785	2749
4123.347	2750
4124.909	2728
4126.471	2712
4128.034	2732
4129.595	2771
4131.155	2697
4132.716	2733
4134.275	2695
4135.836	2710
4137.395	2655
4138.955	2709
4140.513	2748
4142.071	2659
4143.628	2729
4145.188	2767
4146.745	2704
4148.302	2742
4149.858	2668
4151.414	2711
4152.971	2722
4154.526	2677
4156.081	2657
4157.635	2636
4159.189	2682
4160.745	2640
4162.298	2654
4163.852	2688
4165.405	2644
4166.957	2647
4168.51	2622
4170.063	2641
4171.614	2673
4173.166	2631
4174.717	2623
4176.267	2586
4177.817	2628
4179.368	2662
4180.917	2597
4182.466	2621
4184.016	2629
4185.564	2577
4187.112	2562
4188.66	2612
4190.207	2573
4191.754	2631
4193.301	2605
4194.848	2576
4196.394	2622
4197.94	2579
4199.484	2567
4201.03	2526
4202.575	2556
4204.12	2573
4205.663	2627
4207.207	2537
4208.75	2560
4210.292	2580
4211.836	2601
4213.378	2572
4214.92	2615
4216.46	2506
4218.002	2580
4219.544	2504
4221.083	2520
4222.625	2543
4224.164	2606
4225.703	2446
4227.244	2534
4228.782	2498
4230.32	2555
4231.857	2498
4233.395	2464
4234.933	2475
4236.471	2464
4238.007	2545
4239.542	2516
4241.078	2453
4242.614	2486
4244.15	2509
4245.685	2511
4247.219	2517
4248.753	2491
4250.287	2536
4251.82	2490
4253.354	2539
4254.887	2469
4256.419	2466
4257.951	2474
4259.483	2526
4261.016	2436
4262.547	2466
4264.078	2488
4265.608	2486
4267.137	2462
4268.668	2461
4270.197	2523
4271.727	2464
4273.254	2445
4274.783	2486
4276.311	2482
4277.84	2499
4279.366	2419
4280.894	2472
4282.42	2496
4283.946	2459
4285.473	2423
4286.998	2470
4288.523	2492
4290.047	2440
4291.572	2409
4293.096	2412
4294.622	2474
4296.144	2452
4297.668	2428
4299.19	2506
4300.713	2404
4302.236	2431
4303.758	2443
4305.279	2413
4306.799	2429
4308.321	2408
4309.842	2489
4311.361	2382
4312.882	2408
4314.401	2382
