400.0961	4885
402.6185	4877
405.1424	4959
407.6635	4758
410.1838	4896
412.7035	5012
415.2225	4981
417.7388	5057
420.2585	5096
422.7754	5042
425.2917	5090
427.8072	5149
430.3221	5215
432.8363	5243
435.3498	5209
437.8626	5138
440.3727	5263
442.8841	5259
445.3969	5179
447.907	5234
450.4142	5134
452.9229	5123
455.4289	5238
457.9362	5195
460.4449	5162
462.9488	5334
465.454	5204
467.9566	5265
470.4604	5387
472.9637	5260
475.4662	5284
477.966	5272
480.4671	5227
482.9656	5229
485.4633	5330
487.9645	5416
490.4608	5307
492.9566	5396
495.4536	5351
497.948	5345
500.4437	5440
502.9387	5413
505.431	5397
507.9226	5516
510.4136	5249
512.9079	5382
515.3975	5338
517.8864	5413
520.3746	5411
522.8622	5443
525.3491	5516
527.8394	5411
530.3249	5397
532.8098	5441
535.2939	5346
537.7774	5444
540.2623	5498
542.7444	5438
545.2259	5496
547.7067	5505
550.1868	5377
552.6683	5495
555.147	5527
557.6231	5476
560.1005	5633
562.5773	5472
565.0534	5546
567.5308	5574
570.0056	5533
572.4776	5575
574.951	5577
577.4237	5565
579.8978	5642
582.3671	5746
584.8378	5648
587.3079	5635
589.7773	5639
592.244	5712
594.714	5727
597.1793	5613
599.6461	5633
602.1121	5728
604.5754	5746
607.0421	5750
609.5042	5644
611.9675	5753
614.4282	5597
616.8902	5749
619.3515	5746
621.8122	5718
624.2702	5700
626.7296	5674
629.1863	5765
631.6423	5642
634.1017	5608
636.5563	5622
639.0104	5682
641.4658	5765
643.9185	5693
646.3725	5722
648.8239	5737
651.2766	5660
653.7266	5868
656.176	5764
658.6247	5763
661.0748	5734
663.5242	5674
665.9709	5800
668.417	5838
670.8624	5830
673.3092	5839
675.7533	5698
678.1968	5807
680.6395	5864
683.0817	5957
685.5251	5907
687.9659	5796
690.4061	6036
692.8456	5928
695.2844	5893
697.7226	6012
700.1621	5973
702.599	6000
705.0332	6038
707.4688	5918
709.9036	6032
712.3399	6013
714.7735	6009
717.2044	6002
719.6367	6173
722.0683	6019
724.4993	6123
726.9296	6046
729.3593	6096
731.7883	6019
734.2147	6136
736.6423	6134
739.0714	6190
741.4958	6054
743.9216	6258
746.3447	6177
748.7691	6239
751.1929	6197
753.616	6194
756.0366	6358
758.4584	6301
760.8776	6287
763.2982	6297
765.718	6275
768.1373	6255
770.5539	6313
772.9698	6370
775.3871	6270
777.8038	6262
780.2178	6460
782.6332	6275
785.0459	6372
787.458	6265
789.8714	6401
792.2842	6311
794.6943	6303
797.1038	6320
799.5127	6386
801.9209	6315
804.3324	6296
806.7393	6398
809.1456	6484
811.5513	6423
813.9562	6458
816.3625	6497
818.7663	6450
821.1693	6380
823.5718	6299
825.9735	6366
828.3746	6389
830.7771	6466
833.177	6387
835.5762	6408
837.9747	6417
840.3727	6491
842.772	6465
845.1666	6411
847.5626	6546
849.958	6448
852.3527	6647
854.7488	6502
857.1403	6521
859.5331	6605
861.9253	6556
864.3168	6622
866.7057	6624
869.098	6522
871.4876	6541
873.8746	6547
876.263	6537
878.6487	6490
881.0378	6532
883.4243	6439
885.8081	6486
888.1933	6520
890.5759	6524
892.9598	6518
895.343	6605
897.7256	6442
900.1057	6533
902.4871	6458
904.8659	6544
907.246	6634
909.6254	6614
912.0023	6716
914.3786	6717
916.7562	6800
919.1331	6991
921.5074	6999
923.8831	7137
926.2562	7076
928.6287	7017
931.0005	6792
933.3757	6820
935.7462	6807
938.1162	6977
940.4855	6997
942.8542	6932
945.2242	6972
947.5916	6979
949.9584	7071
952.3266	7170
954.6921	7326
957.0571	7405
959.4233	7491
961.787	7622
964.15	7539
966.5125	7457
968.8742	7344
971.2354	7155
973.5959	7135
975.9559	6984
978.3151	6895
980.6738	6893
983.0338	7022
985.3912	6875
987.7461	6833
990.1022	6745
992.4578	6665
994.8127	6740
997.1689	6812
999.5207	6786
1001.874	6883
1004.226	6884
1006.576	6767
1008.929	6781
1011.28	6775
1013.628	6707
1015.977	6763
1018.324	6812
1020.674	6796
1023.019	6728
1025.366	6860
1027.713	6876
1030.056	6761
1032.399	6814
1034.746	6873
1037.087	6954
1039.431	6924
1041.771	6926
1044.113	6847
1046.454	6873
1048.793	6758
1051.133	6921
1053.471	6915
1055.807	6902
1058.146	6807
1060.483	6813
1062.818	6901
1065.153	7096
1067.489	7064
1069.822	6865
1072.156	6949
1074.488	6881
1076.82	6978
1079.15	6804
1081.48	6940
1083.814	6987
1086.143	6937
1088.471	6961
1090.799	6816
1093.126	7007
1095.452	6973
1097.78	6994
1100.105	7015
1102.43	6991
1104.754	6924
1107.077	6892
1109.4	7025
1111.722	6972
1114.044	6826
1116.365	7065
1118.685	7006
1121.005	6915
1123.324	7042
1125.643	7026
1127.961	7058
1130.278	7126
1132.595	7164
1134.911	7042
1137.226	7002
1139.541	6993
1141.854	7165
1144.167	6866
1146.482	7055
1148.793	6991
1151.105	6959
1153.414	7098
1155.725	6984
1158.033	7044
1160.344	7064
1162.651	7111
1164.959	7040
1167.265	7033
1169.572	6917
1171.878	7101
1174.184	6958
1176.488	7142
1178.79	7078
1181.094	7171
1183.396	7093
1185.699	7028
1188.001	6957
1190.301	7071
1192.6	7154
1194.9	6948
1197.2	6971
1199.497	7040
1201.794	6964
1204.09	6941
1206.387	7000
1208.684	7033
1210.978	7011
1213.272	7133
1215.565	7004
1217.858	7135
1220.15	7030
1222.443	6969
1224.734	7145
1227.024	7183
1229.313	7178
1231.602	7107
1233.892	7216
1236.18	7294
1238.467	7266
1240.754	7201
1243.04	7318
1245.325	7218
1247.612	7209
1249.896	7507
1252.178	7447
1254.461	7423
1256.743	7282
1259.027	7371
1261.308	7251
1263.587	7356
1265.867	7305
1268.146	7386
1270.425	7384
1272.703	7325
1274.981	7385
1277.256	7332
1279.532	7348
1281.808	7188
1284.083	7274
1286.358	7258
1288.63	7173
1290.904	7189
1293.175	7274
1295.449	7306
1297.719	7277
1299.99	7268
1302.259	7262
1304.529	7242
1306.798	7251
1309.065	7137
1311.333	7225
1313.599	7076
1315.866	7172
1318.131	7109
1320.396	7216
1322.66	7306
1324.925	7235
1327.187	7283
1329.448	7192
1331.711	7397
1333.974	7360
1336.234	7186
1338.493	7251
1340.752	7206
1343.01	7298
1345.269	7306
1347.526	7171
1349.784	7245
1352.04	7120
1354.295	7232
1356.552	7210
1358.806	7219
1361.059	7222
1363.312	7079
1365.564	7108
1367.818	7315
1370.069	7278
1372.318	7222
1374.568	7178
1376.817	7340
1379.066	7331
1381.316	7260
1383.564	7278
1385.809	7377
1388.056	7329
1390.301	7353
1392.549	7489
1394.793	7447
1397.036	7487
1399.279	7547
1401.522	7639
1403.763	7508
1406.007	7464
1408.248	7554
1410.487	7669
1412.727	7532
1414.965	7688
1417.205	7470
1419.442	7560
1421.68	7546
1423.915	7604
1426.152	7659
1428.388	7354
1430.623	7439
1432.857	7549
1435.091	7374
1437.323	7496
1439.556	7677
1441.789	7615
1444.019	7595
1446.25	7695
1448.48	7517
1450.708	7592
1452.938	7610
1455.167	7620
1457.394	7669
1459.62	7575
1461.846	7701
1464.073	7712
1466.299	7459
1468.523	7462
1470.746	7460
1472.969	7345
1475.191	7380
1477.415	7428
1479.636	7337
1481.858	7360
1484.078	7366
1486.298	7369
1488.518	7328
1490.736	7276
1492.954	7294
1495.169	7302
1497.386	7221
1499.602	7337
1501.819	7293
1504.034	7246
1506.248	7339
1508.462	7177
1510.675	7220
1512.888	7261
1515.1	7420
1517.311	7184
1519.522	7239
1521.732	7310
1523.942	7298
1526.151	7229
1528.36	7136
1530.566	7273
1532.773	7328
1534.98	7230
1537.187	7223
1539.392	7259
1541.596	7223
1543.801	7372
1546.005	7225
1548.208	7288
1550.411	7279
1552.612	7317
1554.814	7399
1557.013	7433
1559.212	7540
1561.414	7441
1563.612	7516
1565.811	7408
1568.007	7292
1570.203	7456
1572.403	7451
1574.598	7380
1576.792	7370
1578.988	7349
1581.181	7588
1583.376	7394
1585.568	7488
1587.761	7433
1589.952	7571
1592.143	7422
1594.333	7292
1596.524	7455
1598.715	7396
1600.903	7376
1603.091	7580
1605.278	7626
1607.466	7589
1609.652	7514
1611.838	7524
1614.023	7553
1616.207	7724
1618.391	7527
1620.576	7456
1622.759	7545
1624.941	7505
1627.123	7598
1629.304	7537
1631.484	7598
1633.664	7574
1635.844	7657
1638.022	7405
1640.201	7664
1642.38	7435
1644.556	7631
1646.732	7601
1648.908	7583
1651.084	7518
1653.257	7583
1655.433	7620
1657.607	7644
1659.779	7632
1661.951	7471
1664.122	7667
1666.295	7553
1668.467	7619
1670.635	7661
1672.805	7651
1674.973	7859
1677.142	7510
1679.31	7649
1681.478	7546
1683.644	7745
1685.81	7594
1687.975	7572
1690.142	7628
1692.305	7491
1694.468	7532
1696.632	7590
1698.794	7488
1700.957	7444
1703.119	7516
1705.279	7483
1707.439	7491
1709.598	7460
1711.758	7479
1713.917	7606
1716.075	7512
1718.231	7503
1720.388	7343
1722.543	7439
1724.702	7458
1726.856	7443
1729.01	7423
1731.164	7566
1733.317	7467
1735.471	7504
1737.623	7436
1739.774	7495
1741.925	7389
1744.075	7445
1746.225	7484
1748.376	7549
1750.524	7394
1752.672	7427
1754.82	7473
1756.965	7435
1759.113	7516
1761.259	7496
1763.405	7568
1765.549	7547
1767.694	7493
1769.836	7371
1771.981	7548
1774.123	7477
1776.264	7501
1778.405	7675
1780.546	7475
1782.687	7372
1784.827	7572
1786.966	7569
1789.103	7569
1791.242	7586
1793.381	7501
1795.517	7491
1797.653	7642
1799.788	7607
1801.923	7587
1804.057	7545
1806.193	7592
1808.326	7542
1810.457	7477
1812.59	7507
1814.721	7593
1816.855	7516
1818.984	7571
1821.113	7429
1823.244	7519
1825.372	7657
1827.499	7376
1829.63	7633
1831.756	7499
1833.882	7452
1836.007	7570
1838.132	7428
1840.26	7466
1842.384	7499
1844.507	7552
1846.63	7465
1848.752	7468
1850.875	7357
1852.996	7442
1855.118	7522
1857.238	7548
1859.358	7483
1861.477	7556
1863.597	7510
1865.715	7372
1867.832	7380
1869.948	7504
1872.064	7377
1874.181	7370
1876.297	7418
1878.411	7331
1880.526	7423
1882.639	7562
1884.752	7484
1886.865	7501
1888.977	7425
1891.089	7489
1893.2	7508
1895.308	7525
1897.42	7555
1899.53	7507
1901.639	7496
1903.745	7520
1905.853	7527
1907.962	7505
1910.067	7588
1912.174	7500
1914.278	7597
1916.383	7563
1918.486	7539
1920.592	7477
1922.694	7476
1924.797	7646
1926.898	7565
1929	7713
1931.102	7575
1933.203	7590
1935.301	7521
1937.401	7584
1939.499	7671
1941.598	7659
1943.697	7567
1945.793	7504
1947.888	7571
1949.985	7584
1952.08	7444
1954.176	7583
1956.269	7611
1958.364	7513
1960.457	7406
1962.549	7575
1964.642	7521
1966.733	7550
1968.823	7534
1970.913	7511
1973.005	7505
1975.093	7486
1977.184	7550
1979.271	7489
1981.359	7367
1983.446	7424
1985.532	7573
1987.619	7530
1989.705	7500
1991.789	7546
1993.874	7503
1995.956	7471
1998.041	7469
2000.123	7498
2002.206	7452
2004.287	7421
2006.368	7443
2008.449	7449
2010.529	7474
2012.609	7496
2014.688	7452
2016.766	7445
2018.843	7384
2020.922	7418
2022.999	7430
2025.074	7337
2027.15	7503
2029.225	7465
2031.299	7489
2033.375	7445
2035.447	7432
2037.52	7509
2039.592	7414
2041.664	7412
2043.736	7462
2045.807	7420
2047.876	7522
2049.947	7579
2052.015	7491
2054.086	7642
2056.153	7397
2058.221	7400
2060.288	7511
2062.353	7598
2064.42	7389
2066.486	7547
2068.55	7605
2070.614	7564
2072.678	7478
2074.741	7437
2076.805	7473
2078.866	7333
2080.929	7494
2082.99	7393
2085.049	7492
2087.109	7456
2089.17	7317
2091.228	7533
2093.286	7401
2095.344	7446
2097.4	7510
2099.46	7492
2101.516	7430
2103.572	7449
2105.626	7465
2107.679	7441
2109.735	7438
2111.788	7417
2113.841	7541
2115.894	7424
2117.945	7524
2119.997	7353
2122.049	7472
2124.1	7420
2126.148	7603
2128.197	7536
2130.246	7340
2132.296	7341
2134.342	7519
2136.39	7407
2138.437	7498
2140.483	7506
2142.527	7362
2144.574	7357
2146.619	7447
2148.661	7439
2150.705	7386
2152.747	7414
2154.792	7429
2156.832	7487
2158.874	7431
2160.915	7301
2162.954	7369
2164.995	7403
2167.034	7426
2169.072	7329
2171.111	7392
2173.148	7315
2175.186	7438
2177.223	7314
2179.258	7292
2181.294	7374
2183.328	7361
2185.362	7277
2187.398	7241
2189.431	7360
2191.463	7312
2193.495	7245
2195.528	7203
2197.56	7188
2199.59	7342
2201.62	7401
2203.649	7188
2205.678	7320
2207.708	7296
2209.737	7203
2211.764	7210
2213.791	7186
2215.817	7166
2217.843	7203
2219.87	7217
2221.895	7273
2223.919	7155
2225.942	7250
2227.966	7350
2229.988	7245
2232.012	7172
2234.032	7266
2236.054	7124
2238.074	7249
2240.095	7115
2242.116	7147
2244.135	7194
2246.153	7192
2248.171	7246
2250.188	7117
2252.208	7144
2254.223	7341
2256.239	7230
2258.255	7159
2260.269	7270
2262.283	7180
2264.3	7313
2266.312	7117
2268.325	7268
2270.336	7137
2272.349	7193
2274.362	7155
2276.372	7080
2278.383	7292
2280.392	7152
2282.402	7251
2284.409	7185
2286.418	7091
2288.427	7245
2290.433	7199
2292.441	7185
2294.446	7285
2296.453	7177
2298.459	7225
2300.463	7222
2302.466	7060
2304.471	7172
2306.475	7236
2308.477	7259
2310.478	7013
2312.481	7059
2314.481	7204
2316.481	7220
2318.482	7149
2320.482	7143
2322.48	7170
2324.48	7175
2326.478	7213
2328.476	7118
2330.473	7076
2332.469	7111
2334.465	7125
2336.46	7053
2338.454	7146
2340.45	6960
2342.444	7127
2344.437	6997
2346.43	6965
2348.421	6972
2350.414	7136
2352.405	7090
2354.396	7111
2356.386	7057
2358.376	7000
2360.366	7072
2362.355	7034
2364.343	6983
2366.331	7022
2368.317	7091
2370.304	7035
2372.292	7180
2374.278	6937
2376.262	6982
2378.247	7057
2380.23	6977
2382.216	7009
2384.199	6880
2386.181	6911
2388.163	6898
2390.144	6912
2392.127	7045
2394.107	6908
2396.087	6930
2398.066	6880
2400.046	6907
2402.023	6806
2404.004	7051
2405.981	6873
2407.957	6867
2409.934	6901
2411.91	6885
2413.886	6852
2415.862	6938
2417.836	6881
2419.809	6921
2421.784	6923
2423.756	6860
2425.73	6931
2427.701	6912
2429.672	6911
2431.644	6916
2433.615	6848
2435.586	6862
2437.555	6928
2439.523	6918
2441.491	6860
2443.459	6957
2445.428	6827
2447.395	6896
2449.361	6886
2451.327	6906
2453.292	6985
2455.257	6872
2457.223	6984
2459.187	6797
2461.15	6894
2463.113	6784
2465.076	6783
2467.039	6926
2468.999	6876
2470.96	6840
2472.921	6885
2474.881	6950
2476.841	6798
2478.8	6815
2480.759	6926
2482.717	6752
2484.675	6847
2486.63	6765
2488.589	6859
2490.545	6752
2492.5	6740
2494.455	6731
2496.408	6707
2498.364	6769
2500.318	6829
2502.27	6888
2504.223	6662
2506.174	6748
2508.126	6737
2510.078	6723
2512.03	6811
2513.979	6722
2515.927	6805
2517.877	6835
2519.826	6777
2521.775	6738
2523.722	6657
2525.668	6823
2527.616	6799
2529.561	6849
2531.508	6699
2533.452	6865
2535.398	6717
2537.342	6633
2539.284	6630
2541.229	6929
2543.173	6670
2545.114	6715
2547.055	6749
2548.996	6820
2550.938	6724
2552.878	6690
2554.817	6699
2556.756	6598
2558.695	6657
2560.633	6663
2562.572	6611
2564.509	6829
2566.445	6709
2568.382	6656
2570.317	6723
2572.254	6653
2574.189	6759
2576.123	6721
2578.057	6790
2579.99	6657
2581.923	6627
2583.855	6699
2585.788	6715
2587.719	6722
2589.65	6674
2591.579	6652
2593.511	6745
2595.44	6622
2597.37	6630
2599.297	6714
2601.225	6757
2603.153	6778
2605.08	6642
2607.007	6818
2608.932	6670
2610.858	6735
2612.782	6700
2614.709	6664
2616.632	6675
2618.556	6661
2620.478	6657
2622.401	6784
2624.324	6696
2626.247	6605
2628.167	6722
2630.088	6654
2632.008	6615
2633.928	6711
2635.848	6721
2637.766	6561
2639.684	6841
2641.603	6709
2643.519	6712
2645.437	6725
2647.353	6676
2649.27	6556
2651.184	6675
2653.099	6773
2655.014	6727
2656.928	6683
2658.842	6669
2660.755	6725
2662.667	6597
2664.579	6585
2666.491	6668
2668.402	6605
2670.312	6798
2672.222	6719
2674.132	6595
2676.042	6697
2677.951	6748
2679.859	6682
2681.766	6613
2683.674	6644
2685.582	6615
2687.488	6662
2689.392	6617
2691.298	6547
2693.202	6603
2695.107	6549
2697.012	6613
2698.914	6686
2700.817	6443
2702.72	6579
2704.622	6476
2706.524	6643
2708.425	6622
2710.326	6668
2712.225	6481
2714.125	6450
2716.024	6639
2717.923	6539
2719.822	6524
2721.719	6453
2723.616	6505
2725.512	6496
2727.41	6559
2729.305	6458
2731.201	6654
2733.095	6434
2734.99	6498
2736.884	6435
2738.778	6509
2740.67	6565
2742.562	6581
2744.455	6494
2746.346	6614
2748.238	6466
2750.129	6433
2752.018	6472
2753.907	6662
2755.797	6476
2757.687	6494
2759.575	6365
2761.462	6485
2763.349	6503
2765.237	6468
2767.124	6539
2769.009	6530
2770.894	6441
2772.779	6529
2774.663	6322
2776.547	6407
2778.431	6466
2780.314	6450
2782.197	6264
2784.078	6490
2785.96	6368
2787.842	6410
2789.723	6422
2791.603	6366
2793.483	6405
2795.362	6401
2797.241	6417
2799.121	6327
2800.997	6420
2802.874	6462
2804.751	6360
2806.628	6402
2808.506	6477
2810.38	6493
2812.255	6470
2814.13	6430
2816.003	6347
2817.878	6358
2819.752	6446
2821.623	6481
2823.496	6443
2825.368	6484
2827.238	6358
2829.111	6432
2830.98	6371
2832.851	6397
2834.719	6420
2836.589	6413
2838.458	6338
2840.327	6337
2842.193	6391
2844.061	6469
2845.927	6469
2847.794	6424
2849.66	6433
2851.525	6500
2853.39	6585
2855.254	6513
2857.117	6680
2858.983	6505
2860.845	6609
2862.707	6574
2864.569	6624
2866.431	6497
2868.293	6638
2870.154	6745
2872.013	6715
2873.873	6689
2875.733	6732
2877.592	6935
2879.451	6981
2881.309	6793
2883.166	6848
2885.022	7029
2886.879	6978
2888.736	6915
2890.591	7088
2892.446	6902
2894.301	6919
2896.155	7057
2898.009	7004
2899.863	7027
2901.716	7024
2903.568	6954
2905.419	6944
2907.27	6932
2909.123	7050
2910.973	6969
2912.824	7027
2914.673	6988
2916.521	7134
2918.372	7224
2920.22	6987
2922.067	7318
2923.914	7219
2925.761	7302
2927.607	7218
2929.455	7274
2931.301	7311
2933.144	7396
2934.99	7387
2936.833	7396
2938.678	7493
2940.522	7485
2942.364	7645
2944.207	7644
2946.048	7863
2947.891	7863
2949.731	7875
2951.571	7775
2953.412	7714
2955.25	7658
2957.09	7760
2958.93	7642
2960.767	7790
2962.606	7572
2964.443	7588
2966.279	7583
2968.116	7484
2969.953	7240
2971.788	7325
2973.623	7170
2975.457	7137
2977.292	7152
2979.127	6919
2980.959	6900
2982.792	6819
2984.624	6876
2986.455	6823
2988.288	6901
2990.119	6750
2991.949	6755
2993.779	6675
2995.608	6662
2997.439	6707
2999.268	6581
3001.096	6466
3002.923	6390
3004.751	6445
3006.578	6477
3008.406	6302
3010.232	6368
3012.057	6405
3013.883	6249
3015.706	6295
3017.532	6297
3019.356	6309
3021.179	6234
3023.002	6299
3024.823	6130
3026.646	6171
3028.469	6037
3030.289	6108
3032.11	6112
3033.93	6185
3035.749	6068
3037.57	6167
3039.39	6012
3041.207	5959
3043.026	6075
3044.842	6066
3046.661	6160
3048.477	6033
3050.294	5913
3052.109	6087
3053.925	6025
3055.739	6042
3057.555	6014
3059.368	6014
3061.181	5944
3062.995	6086
3064.807	5942
3066.62	5897
3068.433	5958
3070.243	5969
3072.054	5975
3073.865	5981
3075.675	5957
3077.485	5877
3079.293	5999
3081.102	5857
3082.911	5975
3084.719	5826
3086.527	5946
3088.333	5876
3090.139	5844
3091.945	5776
3093.75	5852
3095.557	5923
3097.361	5795
3099.165	5860
3100.969	5698
3102.772	5801
3104.575	5822
3106.379	5822
3108.181	5800
3109.982	5702
3111.783	5772
3113.584	5822
3115.386	5823
3117.186	5743
3118.985	5775
3120.783	5696
3122.582	5723
3124.381	5790
3126.179	5689
3127.975	5723
3129.772	5745
3131.569	5769
3133.365	5661
3135.161	5679
3136.956	5629
3138.751	5567
3140.544	5548
3142.338	5667
3144.132	5574
3145.925	5732
3147.717	5664
3149.509	5635
3151.301	5703
3153.091	5523
3154.884	5691
3156.673	5673
3158.462	5583
3160.252	5682
3162.041	5578
3163.831	5651
3165.618	5605
3167.405	5637
3169.193	5592
3170.979	5658
3172.767	5575
3174.553	5569
3176.338	5556
3178.123	5643
3179.907	5541
3181.692	5575
3183.477	5513
3185.259	5481
3187.042	5521
3188.824	5709
3190.607	5424
3192.389	5476
3194.17	5558
3195.951	5638
3197.73	5503
3199.51	5521
3201.289	5573
3203.07	5485
3204.848	5430
3206.626	5450
3208.403	5555
3210.18	5539
3211.959	5497
3213.735	5627
3215.511	5563
3217.285	5489
3219.06	5611
3220.836	5546
3222.611	5539
3224.384	5568
3226.158	5469
3227.929	5463
3229.702	5592
3231.476	5451
3233.248	5483
3235.018	5478
3236.789	5497
3238.56	5567
3240.33	5574
3242.1	5553
3243.869	5509
3245.637	5461
3247.405	5435
3249.172	5481
3250.941	5522
3252.707	5442
3254.474	5475
3256.24	5532
3258.006	5459
3259.772	5433
3261.537	5386
3263.301	5514
3265.065	5496
3266.828	5391
3268.592	5569
3270.355	5508
3272.117	5404
3273.878	5435
3275.64	5458
3277.401	5498
3279.162	5537
3280.922	5369
3282.682	5487
3284.441	5326
3286.199	5473
3287.959	5458
3289.716	5415
3291.475	5544
3293.232	5367
3294.988	5448
3296.744	5416
3298.501	5483
3300.256	5397
3302.011	5387
3303.766	5378
3305.52	5467
3307.275	5477
3309.028	5464
3310.781	5367
3312.533	5464
3314.285	5404
3316.038	5310
3317.789	5300
3319.54	5370
3321.289	5464
3323.039	5489
3324.789	5371
3326.539	5319
3328.288	5435
3330.035	5517
3331.783	5334
3333.531	5319
3335.28	5418
3337.025	5365
3338.771	5341
3340.518	5351
3342.262	5360
3344.009	5240
3345.753	5415
3347.497	5341
3349.24	5239
3350.983	5346
3352.726	5217
3354.469	5291
3356.212	5293
3357.952	5285
3359.694	5380
3361.434	5326
3363.176	5226
3364.916	5339
3366.654	5249
3368.394	5306
3370.132	5390
3371.871	5272
3373.61	5246
3375.346	5217
3377.083	5260
3378.82	5249
3380.556	5282
3382.292	5116
3384.027	5203
3385.763	5186
3387.497	5149
3389.231	5229
3390.965	5189
3392.698	5265
3394.431	5241
3396.164	5079
3397.896	5207
3399.627	5123
3401.36	5112
3403.09	5176
3404.82	5189
3406.55	5126
3408.279	5253
3410.01	5261
3411.738	5012
3413.467	5111
3415.194	5194
3416.92	5141
3418.647	5100
3420.375	5035
3422.102	5058
3423.827	5106
3425.553	5154
3427.277	5110
3429.003	5093
3430.727	5038
3432.451	5153
3434.173	5078
3435.896	5097
3437.62	5017
3439.343	5030
3441.063	5037
3442.785	5089
3444.505	5022
3446.226	4987
3447.948	4995
3449.666	4910
3451.386	4981
3453.104	4981
3454.823	4916
3456.541	4949
3458.259	5006
3459.976	4887
3461.693	4977
3463.408	4890
3465.125	4892
3466.841	4907
3468.556	4993
3470.271	4969
3471.985	4932
3473.698	4984
3475.414	4942
3477.126	4797
3478.838	4890
3480.55	4882
3482.263	4863
3483.975	4841
3485.686	4919
3487.396	4878
3489.106	4806
3490.817	4745
3492.526	4941
3494.236	4822
3495.944	4869
3497.652	4805
3499.359	4819
3501.066	4786
3502.775	4769
3504.481	4754
3506.187	4782
3507.893	4866
3509.598	4836
3511.304	4807
3513.009	4761
3514.713	4674
3516.417	4693
3518.12	4679
3519.821	4783
3521.525	4737
3523.228	4730
3524.929	4720
3526.631	4704
3528.33	4675
3530.032	4713
3531.733	4771
3533.433	4685
3535.131	4799
3536.83	4779
3538.529	4752
3540.227	4741
3541.925	4674
3543.623	4671
3545.319	4764
3547.016	4613
3548.712	4677
3550.408	4657
3552.103	4703
3553.798	4574
3555.491	4594
3557.188	4564
3558.88	4600
3560.574	4602
3562.266	4584
3563.959	4624
3565.651	4516
3567.343	4638
3569.035	4634
3570.725	4576
3572.415	4578
3574.106	4558
3575.797	4603
3577.485	4584
3579.174	4556
3580.863	4494
3582.551	4556
3584.238	4505
3585.926	4550
3587.613	4600
3589.3	4621
3590.986	4525
3592.671	4495
3594.357	4524
3596.042	4476
3597.726	4513
3599.41	4505
3601.094	4419
3602.778	4572
3604.461	4422
3606.143	4473
3607.825	4456
3609.507	4492
3611.188	4497
3612.87	4401
3614.551	4412
3616.229	4380
3617.909	4370
3619.589	4380
3621.269	4400
3622.948	4362
3624.625	4385
3626.302	4413
3627.98	4402
3629.657	4408
3631.334	4319
3633.01	4246
3634.686	4390
3636.361	4325
3638.036	4386
3639.712	4398
3641.385	4356
3643.06	4261
3644.732	4163
3646.405	4366
3648.08	4305
3649.751	4226
3651.424	4370
3653.094	4268
3654.766	4290
3656.436	4307
3658.106	4249
3659.777	4332
3661.446	4285
3663.115	4253
3664.783	4199
3666.452	4213
3668.121	4323
3669.788	4192
3671.454	4294
3673.121	4283
3674.789	4277
3676.455	4249
3678.12	4211
3679.784	4173
3681.45	4172
3683.114	4234
3684.779	4197
3686.442	4275
3688.105	4232
3689.768	4175
3691.43	4197
3693.093	4269
3694.754	4153
3696.415	4109
3698.076	4223
3699.736	4239
3701.396	4189
3703.057	4236
3704.716	4161
3706.375	4188
3708.034	4140
3709.692	4157
3711.351	4084
3713.008	4076
3714.665	4107
3716.321	4250
3717.977	4133
3719.634	4077
3721.29	4118
3722.945	4106
3724.598	4105
3726.253	4100
3727.907	4137
3729.561	4138
3731.214	4088
3732.867	4085
3734.518	4089
3736.171	4086
3737.824	4110
3739.474	4160
3741.125	4126
3742.775	4015
3744.425	4146
3746.074	4118
3747.725	4101
3749.373	4151
3751.022	4094
3752.669	3937
3754.318	4023
3755.966	4056
3757.612	4024
3759.259	4034
3760.905	4044
3762.55	4092
3764.197	4063
3765.842	4025
3767.486	4049
3769.131	4002
3770.774	4069
3772.417	3938
3774.061	4075
3775.705	3948
3777.347	3999
3778.988	4014
3780.629	4014
3782.271	3884
3783.912	3977
3785.552	4000
3787.192	3971
3788.831	3949
3790.472	3980
3792.112	3942
3793.75	3992
3795.388	3949
3797.024	3945
3798.661	4007
3800.3	3958
3801.936	3879
3803.572	3928
3805.208	3929
3806.844	3958
3808.48	3945
3810.115	3964
3811.748	3923
3813.382	3947
3815.016	3857
3816.649	3861
3818.283	3929
3819.914	3849
3821.547	3918
3823.178	3836
3824.809	3830
3826.441	3912
3828.072	3900
3829.701	3899
3831.331	3869
3832.96	3731
3834.591	3858
3836.219	3872
3837.847	3813
3839.475	3813
3841.102	3875
3842.729	3816
3844.357	3837
3845.984	3840
3847.609	3821
3849.234	3719
3850.86	3911
3852.485	3867
3854.11	3758
3855.734	3858
3857.357	3760
3858.981	3815
3860.603	3832
3862.227	3718
3863.848	3757
3865.471	3831
3867.092	3755
3868.713	3792
3870.334	3758
3871.954	3776
3873.575	3747
3875.194	3745
3876.813	3785
3878.433	3794
3880.051	3682
3881.669	3757
3883.286	3806
3884.904	3734
3886.52	3755
3888.138	3740
3889.754	3703
3891.37	3785
3892.985	3742
3894.6	3784
3896.216	3720
3897.831	3719
3899.444	3722
3901.058	3680
3902.67	3698
3904.283	3696
3905.897	3648
3907.509	3736
3909.121	3707
3910.731	3650
3912.342	3653
3913.954	3733
3915.563	3683
3917.174	3620
3918.783	3681
3920.391	3758
3922.002	3653
3923.611	3701
3925.218	3672
3926.826	3663
3928.432	3698
3930.039	3616
3931.647	3676
3933.253	3654
3934.859	3636
3936.464	3587
3938.068	3688
3939.675	3667
3941.278	3568
3942.883	3639
3944.486	3645
3946.089	3657
3947.692	3602
3949.295	3639
3950.898	3652
3952.499	3588
3954.1	3664
3955.7	3592
3957.303	3583
3958.903	3549
3960.502	3549
3962.101	3603
3963.7	3565
3965.301	3580
3966.899	3519
3968.497	3586
3970.094	3455
3971.691	3584
3973.288	3610
3974.885	3574
3976.481	3545
3978.077	3521
3979.672	3521
3981.267	3493
3982.863	3569
3984.457	3510
3986.051	3524
3987.645	3539
3989.238	3479
3990.831	3444
3992.425	3501
3994.017	3484
3995.607	3502
3997.199	3418
3998.79	3491
4000.382	3442
4001.973	3525
4003.561	3503
4005.151	3515
4006.741	3500
4008.331	3551
4009.918	3470
4011.507	3490
4013.095	3495
4014.681	3477
4016.269	3434
4017.856	3460
4019.443	3433
4021.028	3448
4022.614	3473
4024.199	3396
4025.785	3377
4027.37	3380
4028.953	3446
4030.536	3302
4032.12	3383
4033.704	3404
4035.287	3382
4036.869	3380
4038.45	3362
4040.032	3428
4041.613	3378
4043.195	3324
4044.776	3370
4046.356	3335
4047.935	3386
4049.515	3303
4051.095	3450
4052.674	3300
4054.251	3331
4055.829	3352
4057.406	3324
4058.985	3294
4060.562	3294
4062.139	3350
4063.715	3295
4065.29	3280
4066.865	3290
4068.442	3234
4070.016	3334
4071.59	3317
4073.164	3253
4074.738	3391
4076.312	3285
4077.885	3240
4079.458	3323
4081.03	3393
4082.602	3353
4084.173	3305
4085.745	3343
4087.315	3274
4088.886	3262
4090.456	3207
4092.026	3284
4093.596	3286
4095.165	3240
4096.734	3185
4098.301	3247
4099.869	3262
4101.437	3217
4103.006	3285
4104.572	3225
4106.139	3247
4107.704	3291
4109.27	3225
4110.837	3300
4112.401	3217
4113.966	3199
4115.53	3154
4117.094	3146
4118.659	3291
4120.223	3191
4121.785	3212
4123.347	3232
4124.909	3210
4126.471	3167
4128.034	3145
4129.595	3147
4131.155	3137
4132.716	3225
4134.275	3210
4135.836	3192
4137.395	3192
4138.955	3196
4140.513	3088
4142.071	3236
4143.628	3227
4145.188	3126
4146.745	3128
4148.302	3122
4149.858	3145
4151.414	3085
4152.971	3068
4154.526	3156
4156.081	3053
4157.635	3106
4159.189	3107
4160.745	3144
4162.298	3098
4163.852	3122
4165.405	3110
4166.957	2963
4168.51	3105
4170.063	3101
4171.614	3097
4173.166	3123
4174.717	3104
4176.267	3048
4177.817	3002
4179.368	3038
4180.917	3063
4182.466	3090
4184.016	3034
4185.564	3015
4187.112	3011
4188.66	3105
4190.207	2951
4191.754	2998
4193.301	3037
4194.848	3031
4196.394	3045
4197.94	3024
4199.484	3019
4201.03	2977
4202.575	3059
4204.12	2934
4205.663	2965
4207.207	3013
4208.75	2928
4210.292	2974
4211.836	3035
4213.378	2954
4214.92	2978
4216.46	2975
4218.002	2970
4219.544	2937
4221.083	2910
4222.625	3009
4224.164	3012
4225.703	2942
4227.244	3018
4228.782	2996
4230.32	2899
4231.857	2975
4233.395	2975
4234.933	2949
4236.471	2964
4238.007	3014
4239.542	2922
4241.078	2969
4242.614	2990
4244.15	2917
4245.685	2913
4247.219	2950
4248.753	2926
4250.287	2921
4251.82	2903
4253.354	2958
4254.887	2929
4256.419	2887
4257.951	2937
4259.483	2851
4261.016	2855
4262.547	2918
4264.078	2926
4265.608	2846
4267.137	2884
4268.668	2897
4270.197	2872
4271.727	2899
4273.254	2839
4274.783	2827
4276.311	2880
4277.84	2855
4279.366	2903
4280.894	2806
4282.42	2841
4283.946	2813
4285.473	2829
4286.998	2882
4288.523	2889
4290.047	2820
4291.572	2822
4293.096	2866
4294.622	2814
4296.144	2887
4297.668	2844
4299.19	2858
4300.713	2798
4302.236	2818
4303.758	2791
4305.279	2812
4306.799	2840
4308.321	2826
4309.842	2722
4311.361	2801
4312.882	2793
4314.401	2793
