400.0961	5438
402.6185	5361
405.1424	5383
407.6635	5459
410.1838	5481
412.7035	5468
415.2225	5542
417.7388	5479
420.2585	5496
422.7754	5582
425.2917	5545
427.8072	5692
430.3221	5688
432.8363	5758
435.3498	5662
437.8626	5738
440.3727	5735
442.8841	5776
445.3969	5776
447.907	5669
450.4142	5826
452.9229	5822
455.4289	5785
457.9362	5780
460.4449	5815
462.9488	5769
465.454	5747
467.9566	5705
470.4604	5681
472.9637	5748
475.4662	5818
477.966	5792
480.4671	5802
482.9656	5923
485.4633	5891
487.9645	5859
490.4608	5878
492.9566	5844
495.4536	5953
497.948	6066
500.4437	5918
502.9387	5920
505.431	5952
507.9226	5928
510.4136	5984
512.9079	5913
515.3975	6055
517.8864	5961
520.3746	5995
522.8622	5883
525.3491	5923
527.8394	5980
530.3249	6135
532.8098	6102
535.2939	6053
537.7774	5953
540.2623	6069
542.7444	6063
545.2259	6070
547.7067	6057
550.1868	6059
552.6683	6162
555.147	6130
557.6231	6161
560.1005	6234
562.5773	6131
565.0534	6119
567.5308	6005
570.0056	6227
572.4776	6147
574.951	6166
577.4237	6104
579.8978	6146
582.3671	6334
584.8378	6379
587.3079	6354
589.7773	6230
592.244	6358
594.714	6262
597.1793	6239
599.6461	6264
602.1121	6163
604.5754	6347
607.0421	6260
609.5042	6183
611.9675	6248
614.4282	6178
616.8902	6166
619.3515	6170
621.8122	6250
624.2702	6240
626.7296	6312
629.1863	6221
631.6423	6243
634.1017	6267
636.5563	6246
639.0104	6287
641.4658	6316
643.9185	6134
646.3725	6326
648.8239	6272
651.2766	6436
653.7266	6319
656.176	6426
658.6247	6406
661.0748	6287
663.5242	6410
665.9709	6293
668.417	6438
670.8624	6348
673.3092	6425
675.7533	6596
678.1968	6555
680.6395	6475
683.0817	6482
685.5251	6512
687.9659	6523
690.4061	6458
692.8456	6556
695.2844	6516
697.7226	6576
700.1621	6542
702.599	6532
705.0332	6537
707.4688	6591
709.9036	6583
712.3399	6653
714.7735	6665
717.2044	6645
719.6367	6674
722.0683	6604
724.4993	6676
726.9296	6652
729.3593	6649
731.7883	6765
734.2147	6694
736.6423	6683
739.0714	6896
741.4958	6824
743.9216	6866
746.3447	6711
748.7691	6853
751.1929	6871
753.616	6905
756.0366	6907
758.4584	6883
760.8776	6976
763.2982	6983
765.718	7037
768.1373	6937
770.5539	6946
772.9698	6973
775.3871	6958
777.8038	6933
780.2178	6871
782.6332	7054
785.0459	7121
787.458	6946
789.8714	7045
792.2842	7126
794.6943	7039
797.1038	6977
799.5127	6905
801.9209	7086
804.3324	6998
806.7393	7050
809.1456	7060
811.5513	7205
813.9562	7091
816.3625	7144
818.7663	7000
821.1693	7067
823.5718	7173
825.9735	7125
828.3746	7072
830.7771	7119
833.177	7111
835.5762	7179
837.9747	7199
840.3727	7051
842.772	7060
845.1666	7245
847.5626	7263
849.958	7206
852.3527	7253
854.7488	7263
857.1403	7324
859.5331	7220
861.9253	7307
864.3168	7294
866.7057	7147
869.098	7153
871.4876	7215
873.8746	7283
876.263	7257
878.6487	7200
881.0378	7213
883.4243	7285
885.8081	7143
888.1933	7296
890.5759	7245
892.9598	7197
895.343	7233
897.7256	7197
900.1057	7246
902.4871	7220
904.8659	7201
907.246	7220
909.6254	7284
912.0023	7398
914.3786	7572
916.7562	7613
919.1331	7627
921.5074	7773
923.8831	7779
926.2562	7886
928.6287	7902
931.0005	7802
933.3757	7612
935.7462	7633
938.1162	7526
940.4855	7772
942.8542	7651
945.2242	7674
947.5916	7714
949.9584	7777
952.3266	7960
954.6921	8059
957.0571	8208
959.4233	8365
961.787	8556
964.15	8484
966.5125	8356
968.8742	8140
971.2354	8010
973.5959	7954
975.9559	7785
978.3151	7798
980.6738	7603
983.0338	7634
985.3912	7667
987.7461	7554
990.1022	7426
992.4578	7405
994.8127	7450
997.1689	7474
999.5207	7527
1001.874	7557
1004.226	7477
1006.576	7476
1008.929	7570
1011.28	7541
1013.628	7546
1015.977	7482
1018.324	7414
1020.674	7472
1023.019	7516
1025.366	7513
1027.713	7473
1030.056	7439
1032.399	7487
1034.746	7618
1037.087	7587
1039.431	7641
1041.771	7550
1044.113	7773
1046.454	7667
1048.793	7566
1051.133	7522
1053.471	7593
1055.807	7468
1058.146	7615
1060.483	7589
1062.818	7724
1065.153	7672
1067.489	7641
1069.822	7568
1072.156	7774
1074.488	7707
1076.82	7701
1079.15	7682
1081.48	7602
1083.814	7684
1086.143	7703
1088.471	7722
1090.799	7681
1093.126	7640
1095.452	7646
1097.78	7612
1100.105	7734
1102.43	7654
1104.754	7617
1107.077	7703
1109.4	7727
1111.722	7676
1114.044	7715
1116.365	7846
1118.685	7748
1121.005	7758
1123.324	7862
1125.643	7772
1127.961	7774
1130.278	7804
1132.595	7716
1134.911	7659
1137.226	7774
1139.541	7640
1141.854	7792
1144.167	7692
1146.482	7774
1148.793	7647
1151.105	7856
1153.414	7732
1155.725	7757
1158.033	7760
1160.344	7789
1162.651	7668
1164.959	7784
1167.265	7808
1169.572	7794
1171.878	7719
1174.184	7889
1176.488	7592
1178.79	7862
1181.094	7837
1183.396	7836
1185.699	7783
1188.001	7793
1190.301	7775
1192.6	7842
1194.9	7739
1197.2	7651
1199.497	7780
1201.794	7804
1204.09	7641
1206.387	7879
1208.684	7856
1210.978	7840
1213.272	7826
1215.565	7825
1217.858	7740
1220.15	7770
1222.443	7719
1224.734	7797
1227.024	7868
1229.313	7891
1231.602	7988
1233.892	7937
1236.18	7821
1238.467	7923
1240.754	7949
1243.04	7958
1245.325	7997
1247.612	7884
1249.896	8136
1252.178	8073
1254.461	8084
1256.743	8112
1259.027	8052
1261.308	8050
1263.587	8173
1265.867	8074
1268.146	8201
1270.425	8139
1272.703	8033
1274.981	8155
1277.256	8226
1279.532	8184
1281.808	7975
1284.083	7928
1286.358	7964
1288.63	8060
1290.904	7875
1293.175	7997
1295.449	7962
1297.719	7903
1299.99	7910
1302.259	7919
1304.529	7867
1306.798	7958
1309.065	8138
1311.333	8123
1313.599	7976
1315.866	7996
1318.131	7930
1320.396	8037
1322.66	8028
1324.925	8115
1327.187	8033
1329.448	8151
1331.711	8216
1333.974	8079
1336.234	7985
1338.493	8097
1340.752	8038
1343.01	8091
1345.269	7996
1347.526	8087
1349.784	7928
1352.04	7893
1354.295	7903
1356.552	8111
1358.806	7849
1361.059	8068
1363.312	7834
1365.564	7921
1367.818	7999
1370.069	7989
1372.318	8029
1374.568	7954
1376.817	8089
1379.066	8109
1381.316	8146
1383.564	8137
1385.809	8172
1388.056	8096
1390.301	8184
1392.549	8301
1394.793	8363
1397.036	8386
1399.279	8278
1401.522	8378
1403.763	8390
1406.007	8357
1408.248	8452
1410.487	8388
1412.727	8600
1414.965	8412
1417.205	8488
1419.442	8453
1421.68	8423
1423.915	8358
1426.152	8332
1428.388	8356
1430.623	8245
1432.857	8261
1435.091	8396
1437.323	8349
1439.556	8386
1441.789	8427
1444.019	8517
1446.25	8326
1448.48	8387
1450.708	8493
1452.938	8438
1455.167	8554
1457.394	8431
1459.62	8579
1461.846	8452
1464.073	8278
1466.299	8427
1468.523	8362
1470.746	8441
1472.969	8189
1475.191	8148
1477.415	8250
1479.636	8138
1481.858	8136
1484.078	8108
1486.298	8094
1488.518	7933
1490.736	8120
1492.954	8018
1495.169	8031
1497.386	8075
1499.602	8074
1501.819	7996
1504.034	8065
1506.248	7976
1508.462	8054
1510.675	7945
1512.888	7948
1515.1	8036
1517.311	7967
1519.522	7933
1521.732	7955
1523.942	7982
1526.151	8021
1528.36	7959
1530.566	8011
1532.773	7907
1534.98	8038
1537.187	8109
1539.392	7975
1541.596	7998
1543.801	7968
1546.005	8056
1548.208	8073
1550.411	8249
1552.612	8150
1554.814	8178
1557.013	8147
1559.212	8175
1561.414	8146
1563.612	8105
1565.811	8284
1568.007	8122
1570.203	8196
1572.403	8122
1574.598	8207
1576.792	8201
1578.988	8240
1581.181	8227
1583.376	8258
1585.568	8262
1587.761	8170
1589.952	8185
1592.143	8369
1594.333	8231
1596.524	8234
1598.715	8375
1600.903	8257
1603.091	8230
1605.278	8378
1607.466	8211
1609.652	8326
1611.838	8276
1614.023	8362
1616.207	8335
1618.391	8320
1620.576	8218
1622.759	8360
1624.941	8276
1627.123	8310
1629.304	8399
1631.484	8340
1633.664	8272
1635.844	8317
1638.022	8387
1640.201	8242
1642.38	8310
1644.556	8279
1646.732	8352
1648.908	8348
1651.084	8478
1653.257	8349
1655.433	8399
1657.607	8304
1659.779	8514
1661.951	8387
1664.122	8501
1666.295	8608
1668.467	8465
1670.635	8419
1672.805	8338
1674.973	8483
1677.142	8510
1679.31	8327
1681.478	8446
1683.644	8550
1685.81	8406
1687.975	8449
1690.142	8412
1692.305	8249
1694.468	8325
1696.632	8312
1698.794	8245
1700.957	8248
1703.119	8325
1705.279	8395
1707.439	8381
1709.598	8283
1711.758	8258
1713.917	8297
1716.075	8369
1718.231	8363
1720.388	8196
1722.543	8302
1724.702	8244
1726.856	8248
1729.01	8213
1731.164	8245
1733.317	8277
1735.471	8235
1737.623	8215
1739.774	8225
1741.925	8294
1744.075	8340
1746.225	8191
1748.376	8231
1750.524	8297
1752.672	8253
1754.82	8380
1756.965	8309
1759.113	8307
1761.259	8296
1763.405	8182
1765.549	8350
1767.694	8148
1769.836	8262
1771.981	8187
1774.123	8359
1776.264	8352
1778.405	8410
1780.546	8241
1782.687	8273
1784.827	8395
1786.966	8502
1789.103	8447
1791.242	8452
1793.381	8445
1795.517	8232
1797.653	8286
1799.788	8392
1801.923	8341
1804.057	8323
1806.193	8456
1808.326	8318
1810.457	8234
1812.59	8262
1814.721	8344
1816.855	8331
1818.984	8522
1821.113	8376
1823.244	8324
1825.372	8350
1827.499	8339
1829.63	8265
1831.756	8367
1833.882	8329
1836.007	8262
1838.132	8233
1840.26	8396
1842.384	8384
1844.507	8083
1846.63	8201
1848.752	8219
1850.875	8320
1852.996	8172
1855.118	8285
1857.238	8192
1859.358	8364
1861.477	8222
1863.597	8292
1865.715	8180
1867.832	8359
1869.948	8250
1872.064	8189
1874.181	8274
1876.297	8314
1878.411	8260
1880.526	8174
1882.639	8353
1884.752	8242
1886.865	8439
1888.977	8215
1891.089	8107
1893.2	8339
1895.308	8310
1897.42	8256
1899.53	8206
1901.639	8362
1903.745	8322
1905.853	8287
1907.962	8326
1910.067	8315
1912.174	8253
1914.278	8337
1916.383	8473
1918.486	8411
1920.592	8410
1922.694	8299
1924.797	8392
1926.898	8356
1929	8386
1931.102	8433
1933.203	8315
1935.301	8524
1937.401	8342
1939.499	8304
1941.598	8379
1943.697	8330
1945.793	8271
1947.888	8383
1949.985	8395
1952.08	8386
1954.176	8341
1956.269	8467
1958.364	8275
1960.457	8336
1962.549	8379
1964.642	8331
1966.733	8363
1968.823	8536
1970.913	8364
1973.005	8374
1975.093	8457
1977.184	8375
1979.271	8304
1981.359	8328
1983.446	8156
1985.532	8228
1987.619	8201
1989.705	8220
1991.789	8267
1993.874	8147
1995.956	8381
1998.041	8421
2000.123	8365
2002.206	8311
2004.287	8302
2006.368	8249
2008.449	8236
2010.529	8273
2012.609	8439
2014.688	8250
2016.766	8273
2018.843	8145
2020.922	8183
2022.999	8203
2025.074	8155
2027.15	8234
2029.225	8305
2031.299	8281
2033.375	8234
2035.447	8208
2037.52	8318
2039.592	8249
2041.664	8307
2043.736	8291
2045.807	8110
2047.876	8322
2049.947	8367
2052.015	8246
2054.086	8215
2056.153	8340
2058.221	8200
2060.288	8290
2062.353	8237
2064.42	8344
2066.486	8122
2068.55	8265
2070.614	8296
2072.678	8255
2074.741	8380
2076.805	8308
2078.866	8265
2080.929	8304
2082.99	8281
2085.049	8391
2087.109	8338
2089.17	8290
2091.228	8296
2093.286	8269
2095.344	8355
2097.4	8257
2099.46	8157
2101.516	8251
2103.572	8281
2105.626	8236
2107.679	8317
2109.735	8279
2111.788	8149
2113.841	8345
2115.894	8211
2117.945	8227
2119.997	8181
2122.049	8299
2124.1	8349
2126.148	8235
2128.197	8169
2130.246	8255
2132.296	8153
2134.342	8193
2136.39	8185
2138.437	8340
2140.483	8105
2142.527	8314
2144.574	8016
2146.619	8139
2148.661	8204
2150.705	8239
2152.747	8295
2154.792	8131
2156.832	8212
2158.874	8086
2160.915	8187
2162.954	8166
2164.995	8135
2167.034	8181
2169.072	8185
2171.111	8090
2173.148	8114
2175.186	8254
2177.223	8050
2179.258	8163
2181.294	8165
2183.328	8056
2185.362	8083
2187.398	8078
2189.431	8104
2191.463	8058
2193.495	8115
2195.528	7904
2197.56	8066
2199.59	7980
2201.62	8152
2203.649	8020
2205.678	8016
2207.708	7955
2209.737	8111
2211.764	8207
2213.791	8116
2215.817	8074
2217.843	8185
2219.87	8064
2221.895	7975
2223.919	7964
2225.942	8065
2227.966	8012
2229.988	8059
2232.012	7895
2234.032	7949
2236.054	8057
2238.074	8054
2240.095	7937
2242.116	8006
2244.135	8029
2246.153	7972
2248.171	7972
2250.188	8070
2252.208	8000
2254.223	7940
2256.239	8043
2258.255	7994
2260.269	7926
2262.283	8001
2264.3	8071
2266.312	7863
2268.325	8037
2270.336	8070
2272.349	8082
2274.362	7985
2276.372	7987
2278.383	7969
2280.392	8013
2282.402	8075
2284.409	7959
2286.418	7917
2288.427	8068
2290.433	8044
2292.441	8084
2294.446	7928
2296.453	7900
2298.459	7989
2300.463	7861
2302.466	7896
2304.471	7980
2306.475	7949
2308.477	7987
2310.478	7848
2312.481	8025
2314.481	7917
2316.481	7950
2318.482	7947
2320.482	7983
2322.48	8042
2324.48	7973
2326.478	7887
2328.476	7890
2330.473	7931
2332.469	7884
2334.465	7882
2336.46	7867
2338.454	7903
2340.45	7735
2342.444	7892
2344.437	7759
2346.43	7853
2348.421	7874
2350.414	7796
2352.405	7958
2354.396	7779
2356.386	7778
2358.376	7753
2360.366	7894
2362.355	7682
2364.343	7735
2366.331	7829
2368.317	7667
2370.304	7739
2372.292	7680
2374.278	7690
2376.262	7808
2378.247	7853
2380.23	7822
2382.216	7742
2384.199	7688
2386.181	7732
2388.163	7794
2390.144	7783
2392.127	7680
2394.107	7707
2396.087	7671
2398.066	7623
2400.046	7750
2402.023	7726
2404.004	7715
2405.981	7689
2407.957	7658
2409.934	7737
2411.91	7688
2413.886	7682
2415.862	7609
2417.836	7590
2419.809	7730
2421.784	7631
2423.756	7680
2425.73	7640
2427.701	7559
2429.672	7671
2431.644	7733
2433.615	7644
2435.586	7661
2437.555	7634
2439.523	7538
2441.491	7682
2443.459	7662
2445.428	7754
2447.395	7650
2449.361	7695
2451.327	7573
2453.292	7679
2455.257	7678
2457.223	7707
2459.187	7544
2461.15	7563
2463.113	7573
2465.076	7656
2467.039	7569
2468.999	7488
2470.96	7490
2472.921	7501
2474.881	7485
2476.841	7552
2478.8	7603
2480.759	7595
2482.717	7579
2484.675	7565
2486.63	7455
2488.589	7590
2490.545	7583
2492.5	7502
2494.455	7480
2496.408	7571
2498.364	7419
2500.318	7522
2502.27	7429
2504.223	7565
2506.174	7574
2508.126	7489
2510.078	7469
2512.03	7593
2513.979	7475
2515.927	7479
2517.877	7493
2519.826	7472
2521.775	7461
2523.722	7462
2525.668	7470
2527.616	7455
2529.561	7481
2531.508	7401
2533.452	7465
2535.398	7577
2537.342	7534
2539.284	7471
2541.229	7563
2543.173	7461
2545.114	7215
2547.055	7520
2548.996	7342
2550.938	7332
2552.878	7438
2554.817	7415
2556.756	7575
2558.695	7369
2560.633	7392
2562.572	7369
2564.509	7500
2566.445	7396
2568.382	7402
2570.317	7309
2572.254	7568
2574.189	7450
2576.123	7381
2578.057	7387
2579.99	7421
2581.923	7571
2583.855	7341
2585.788	7561
2587.719	7441
2589.65	7465
2591.579	7475
2593.511	7456
2595.44	7423
2597.37	7355
2599.297	7392
2601.225	7347
2603.153	7431
2605.08	7451
2607.007	7407
2608.932	7338
2610.858	7461
2612.782	7368
2614.709	7569
2616.632	7462
2618.556	7340
2620.478	7413
2622.401	7395
2624.324	7434
2626.247	7503
2628.167	7511
2630.088	7506
2632.008	7470
2633.928	7509
2635.848	7561
2637.766	7408
2639.684	7464
2641.603	7418
2643.519	7447
2645.437	7560
2647.353	7410
2649.27	7418
2651.184	7357
2653.099	7412
2655.014	7352
2656.928	7289
2658.842	7391
2660.755	7304
2662.667	7503
2664.579	7605
2666.491	7392
2668.402	7346
2670.312	7395
2672.222	7365
2674.132	7358
2676.042	7320
2677.951	7347
2679.859	7391
2681.766	7404
2683.674	7274
2685.582	7328
2687.488	7218
2689.392	7327
2691.298	7335
2693.202	7277
2695.107	7208
2697.012	7338
2698.914	7393
2700.817	7263
2702.72	7350
2704.622	7344
2706.524	7308
2708.425	7322
2710.326	7264
2712.225	7326
2714.125	7368
2716.024	7242
2717.923	7387
2719.822	7289
2721.719	7259
2723.616	7181
2725.512	7333
2727.41	7269
2729.305	7313
2731.201	7387
2733.095	7384
2734.99	7323
2736.884	7140
2738.778	7317
2740.67	7363
2742.562	7198
2744.455	7366
2746.346	7257
2748.238	7207
2750.129	7314
2752.018	7325
2753.907	7191
2755.797	7225
2757.687	7218
2759.575	7333
2761.462	7158
2763.349	7276
2765.237	7349
2767.124	7264
2769.009	7242
2770.894	7175
2772.779	7160
2774.663	7250
2776.547	7173
2778.431	7172
2780.314	7168
2782.197	7196
2784.078	7256
2785.96	7129
2787.842	7142
2789.723	7312
2791.603	7126
2793.483	7098
2795.362	7199
2797.241	7127
2799.121	7212
2800.997	7245
2802.874	7213
2804.751	7126
2806.628	7128
2808.506	7142
2810.38	7040
2812.255	7126
2814.13	7191
2816.003	7095
2817.878	7167
2819.752	7119
2821.623	7199
2823.496	7152
2825.368	7135
2827.238	7081
2829.111	7055
2830.98	7189
2832.851	7207
2834.719	7262
2836.589	7007
2838.458	7349
2840.327	7161
2842.193	7214
2844.061	7161
2845.927	7177
2847.794	7192
2849.66	7326
2851.525	7153
2853.39	7268
2855.254	7318
2857.117	7282
2858.983	7208
2860.845	7187
2862.707	7343
2864.569	7397
2866.431	7354
2868.293	7352
2870.154	7479
2872.013	7615
2873.873	7538
2875.733	7498
2877.592	7573
2879.451	7724
2881.309	7598
2883.166	7750
2885.022	7893
2886.879	7844
2888.736	7834
2890.591	7913
2892.446	8003
2894.301	8089
2896.155	7959
2898.009	7975
2899.863	7984
2901.716	7932
2903.568	7981
2905.419	7897
2907.27	7852
2909.123	7983
2910.973	7872
2912.824	8028
2914.673	7962
2916.521	8008
2918.372	8181
2920.22	8158
2922.067	8105
2923.914	8279
2925.761	8381
2927.607	8331
2929.455	8232
2931.301	8259
2933.144	8365
2934.99	8523
2936.833	8383
2938.678	8486
2940.522	8653
2942.364	8734
2944.207	8793
2946.048	9070
2947.891	9154
2949.731	8985
2951.571	9079
2953.412	9190
2955.25	9025
2957.09	8942
2958.93	8800
2960.767	8927
2962.606	8723
2964.443	8711
2966.279	8709
2968.116	8545
2969.953	8348
2971.788	8224
2973.623	8199
2975.457	7953
2977.292	7860
2979.127	7841
2980.959	7855
2982.792	7704
2984.624	7706
2986.455	7685
2988.288	7623
2990.119	7589
2991.949	7515
2993.779	7478
2995.608	7488
2997.439	7464
2999.268	7410
3001.096	7438
3002.923	7305
3004.751	7189
3006.578	7127
3008.406	7202
3010.232	6999
3012.057	7020
3013.883	6972
3015.706	7012
3017.532	6993
3019.356	6920
3021.179	7056
3023.002	7072
3024.823	6847
3026.646	7003
3028.469	6889
3030.289	6939
3032.11	6785
3033.93	6994
3035.749	6818
3037.57	6715
3039.39	6745
3041.207	6783
3043.026	6826
3044.842	6768
3046.661	6796
3048.477	6839
3050.294	6700
3052.109	6778
3053.925	6759
3055.739	6662
3057.555	6812
3059.368	6720
3061.181	6708
3062.995	6751
3064.807	6683
3066.62	6789
3068.433	6717
3070.243	6682
3072.054	6746
3073.865	6697
3075.675	6623
3077.485	6670
3079.293	6713
3081.102	6578
3082.911	6512
3084.719	6528
3086.527	6735
3088.333	6708
3090.139	6642
3091.945	6547
3093.75	6514
3095.557	6550
3097.361	6547
3099.165	6517
3100.969	6628
3102.772	6520
3104.575	6588
3106.379	6549
3108.181	6407
3109.982	6448
3111.783	6478
3113.584	6467
3115.386	6516
3117.186	6498
3118.985	6391
3120.783	6495
3122.582	6364
3124.381	6449
3126.179	6350
3127.975	6434
3129.772	6424
3131.569	6439
3133.365	6429
3135.161	6402
3136.956	6408
3138.751	6364
3140.544	6377
3142.338	6326
3144.132	6244
3145.925	6346
3147.717	6374
3149.509	6286
3151.301	6332
3153.091	6408
3154.884	6277
3156.673	6204
3158.462	6300
3160.252	6286
3162.041	6327
3163.831	6369
3165.618	6205
3167.405	6248
3169.193	6292
3170.979	6259
3172.767	6301
3174.553	6223
3176.338	6351
3178.123	6428
3179.907	6100
3181.692	6264
3183.477	6296
3185.259	6288
3187.042	6213
3188.824	6243
3190.607	6170
3192.389	6225
3194.17	6182
3195.951	6211
3197.73	6238
3199.51	6386
3201.289	6169
3203.07	6152
3204.848	6151
3206.626	6242
3208.403	6177
3210.18	6171
3211.959	6258
3213.735	6216
3215.511	6195
3217.285	6195
3219.06	6263
3220.836	6164
3222.611	6285
3224.384	6162
3226.158	6089
3227.929	6200
3229.702	6208
3231.476	6287
3233.248	6208
3235.018	6200
3236.789	6141
3238.56	6223
3240.33	6150
3242.1	6114
3243.869	6147
3245.637	6207
3247.405	6266
3249.172	6107
3250.941	6182
3252.707	6226
3254.474	6218
3256.24	6138
3258.006	6135
3259.772	6317
3261.537	6149
3263.301	6166
3265.065	6184
3266.828	6147
3268.592	6121
3270.355	6214
3272.117	6053
3273.878	6173
3275.64	6230
3277.401	6133
3279.162	6279
3280.922	6109
3282.682	6108
3284.441	6180
3286.199	6173
3287.959	6180
3289.716	6097
3291.475	6043
3293.232	6071
3294.988	6196
3296.744	6160
3298.501	6120
3300.256	6069
3302.011	6105
3303.766	6165
3305.52	6179
3307.275	6178
3309.028	6029
3310.781	6082
3312.533	6075
3314.285	6136
3316.038	6074
3317.789	6135
3319.54	6010
3321.289	6048
3323.039	6147
3324.789	6105
3326.539	6084
3328.288	6002
3330.035	6004
3331.783	6087
3333.531	6085
3335.28	5915
3337.025	5975
3338.771	6048
3340.518	5929
3342.262	5952
3344.009	6035
3345.753	5956
3347.497	5974
3349.24	5995
3350.983	5981
3352.726	5867
3354.469	6022
3356.212	5903
3357.952	5862
3359.694	5928
3361.434	5902
3363.176	5936
3364.916	5861
3366.654	5930
3368.394	5976
3370.132	5956
3371.871	5795
3373.61	5865
3375.346	5902
3377.083	5927
3378.82	5977
3380.556	5856
3382.292	5898
3384.027	5830
3385.763	5915
3387.497	5789
3389.231	5985
3390.965	5854
3392.698	5952
3394.431	5861
3396.164	5942
3397.896	5859
3399.627	5812
3401.36	5735
3403.09	5801
3404.82	5889
3406.55	5828
3408.279	5814
3410.01	5803
3411.738	5839
3413.467	5748
3415.194	5819
3416.92	5721
3418.647	5762
3420.375	5801
3422.102	5770
3423.827	5774
3425.553	5849
3427.277	5800
3429.003	5793
3430.727	5823
3432.451	5722
3434.173	5656
3435.896	5734
3437.62	5710
3439.343	5729
3441.063	5650
3442.785	5642
3444.505	5670
3446.226	5648
3447.948	5676
3449.666	5655
3451.386	5700
3453.104	5598
3454.823	5554
3456.541	5625
3458.259	5535
3459.976	5542
3461.693	5538
3463.408	5625
3465.125	5550
3466.841	5528
3468.556	5527
3470.271	5415
3471.985	5638
3473.698	5555
3475.414	5462
3477.126	5495
3478.838	5510
3480.55	5364
3482.263	5521
3483.975	5350
3485.686	5474
3487.396	5441
3489.106	5401
3490.817	5444
3492.526	5529
3494.236	5376
3495.944	5456
3497.652	5412
3499.359	5350
3501.066	5417
3502.775	5251
3504.481	5349
3506.187	5346
3507.893	5293
3509.598	5383
3511.304	5305
3513.009	5310
3514.713	5317
3516.417	5339
3518.12	5300
3519.821	5217
3521.525	5365
3523.228	5272
3524.929	5318
3526.631	5214
3528.33	5257
3530.032	5267
3531.733	5225
3533.433	5307
3535.131	5314
3536.83	5194
3538.529	5295
3540.227	5223
3541.925	5308
3543.623	5127
3545.319	5240
3547.016	5292
3548.712	5235
3550.408	5201
3552.103	5209
3553.798	5271
3555.491	5182
3557.188	5180
3558.88	5229
3560.574	5152
3562.266	5211
3563.959	5200
3565.651	5141
3567.343	5273
3569.035	5161
3570.725	5199
3572.415	5109
3574.106	5139
3575.797	5119
3577.485	5142
3579.174	5071
3580.863	5105
3582.551	5116
3584.238	5128
3585.926	5131
3587.613	5071
3589.3	5024
3590.986	5074
3592.671	5008
3594.357	5231
3596.042	5039
3597.726	4961
3599.41	4999
3601.094	4888
3602.778	5001
3604.461	4888
3606.143	5072
3607.825	4993
3609.507	4974
3611.188	4931
3612.87	4928
3614.551	4980
3616.229	4949
3617.909	4923
3619.589	4903
3621.269	4899
3622.948	4880
3624.625	4884
3626.302	4876
3627.98	4885
3629.657	4882
3631.334	4855
3633.01	4897
3634.686	4936
3636.361	4843
3638.036	4883
3639.712	4889
3641.385	4833
3643.06	4819
3644.732	4767
3646.405	4783
3648.08	4738
3649.751	4814
3651.424	4853
3653.094	4854
3654.766	4786
3656.436	4816
3658.106	4783
3659.777	4774
3661.446	4790
3663.115	4748
3664.783	4845
3666.452	4789
3668.121	4735
3669.788	4746
3671.454	4743
3673.121	4735
3674.789	4758
3676.455	4706
3678.12	4726
3679.784	4764
3681.45	4773
3683.114	4824
3684.779	4673
3686.442	4649
3688.105	4750
3689.768	4717
3691.43	4747
3693.093	4608
3694.754	4765
3696.415	4744
3698.076	4590
3699.736	4690
3701.396	4677
3703.057	4676
3704.716	4678
3706.375	4684
3708.034	4635
3709.692	4686
3711.351	4633
3713.008	4649
3714.665	4683
3716.321	4683
3717.977	4648
3719.634	4646
3721.29	4593
3722.945	4577
3724.598	4699
3726.253	4638
3727.907	4605
3729.561	4556
3731.214	4596
3732.867	4549
3734.518	4486
3736.171	4538
3737.824	4549
3739.474	4611
3741.125	4535
3742.775	4463
3744.425	4553
3746.074	4725
3747.725	4489
3749.373	4586
3751.022	4455
3752.669	4585
3754.318	4512
3755.966	4509
3757.612	4451
3759.259	4529
3760.905	4474
3762.55	4507
3764.197	4488
3765.842	4521
3767.486	4507
3769.131	4496
3770.774	4481
3772.417	4573
3774.061	4463
3775.705	4524
3777.347	4435
3778.988	4514
3780.629	4493
3782.271	4533
3783.912	4419
3785.552	4530
3787.192	4504
3788.831	4475
3790.472	4451
3792.112	4443
3793.75	4458
3795.388	4395
3797.024	4408
3798.661	4438
3800.3	4440
3801.936	4448
3803.572	4372
3805.208	4352
3806.844	4376
3808.48	4360
3810.115	4360
3811.748	4338
3813.382	4338
3815.016	4376
3816.649	4325
3818.283	4306
3819.914	4416
3821.547	4349
3823.178	4364
3824.809	4325
3826.441	4297
3828.072	4343
3829.701	4381
3831.331	4269
3832.96	4266
3834.591	4327
3836.219	4283
3837.847	4284
3839.475	4290
3841.102	4221
3842.729	4285
3844.357	4259
3845.984	4306
3847.609	4318
3849.234	4289
3850.86	4231
3852.485	4240
3854.11	4211
3855.734	4233
3857.357	4176
3858.981	4253
3860.603	4282
3862.227	4285
3863.848	4216
3865.471	4218
3867.092	4221
3868.713	4205
3870.334	4302
3871.954	4184
3873.575	4297
3875.194	4170
3876.813	4193
3878.433	4149
3880.051	4191
3881.669	4148
3883.286	4228
3884.904	4137
3886.52	4253
3888.138	4171
3889.754	4192
3891.37	4218
3892.985	4144
3894.6	4181
3896.216	4217
3897.831	4197
3899.444	4199
3901.058	4086
3902.67	4135
3904.283	4221
3905.897	4149
3907.509	4126
3909.121	4158
3910.731	4166
3912.342	4109
3913.954	4134
3915.563	4147
3917.174	4095
3918.783	4151
3920.391	4112
3922.002	4156
3923.611	4164
3925.218	4107
3926.826	4052
3928.432	4147
3930.039	4122
3931.647	4085
3933.253	4143
3934.859	4202
3936.464	4085
3938.068	4065
3939.675	4051
3941.278	4069
3942.883	4114
3944.486	4118
3946.089	4127
3947.692	4071
3949.295	4104
3950.898	4000
3952.499	4050
3954.1	4102
3955.7	3988
3957.303	4061
3958.903	3982
3960.502	4008
3962.101	4054
3963.7	3987
3965.301	3946
3966.899	3994
3968.497	3896
3970.094	4049
3971.691	3955
3973.288	3973
3974.885	4017
3976.481	3956
3978.077	3928
3979.672	3871
3981.267	3994
3982.863	3983
3984.457	3938
3986.051	3893
3987.645	3915
3989.238	3947
3990.831	3947
3992.425	3903
3994.017	3935
3995.607	3929
3997.199	3861
3998.79	3893
4000.382	3963
4001.973	3896
4003.561	3870
4005.151	3904
4006.741	3839
4008.331	3942
4009.918	3839
4011.507	3881
4013.095	3884
4014.681	3881
4016.269	3850
4017.856	3824
4019.443	3914
4021.028	3772
4022.614	3852
4024.199	3819
4025.785	3793
4027.37	3745
4028.953	3795
4030.536	3766
4032.12	3831
4033.704	3746
4035.287	3819
4036.869	3775
4038.45	3740
4040.032	3823
4041.613	3813
4043.195	3774
4044.776	3752
4046.356	3847
4047.935	3747
4049.515	3701
4051.095	3730
4052.674	3662
4054.251	3741
4055.829	3656
4057.406	3823
4058.985	3762
4060.562	3659
4062.139	3734
4063.715	3688
4065.29	3697
4066.865	3747
4068.442	3685
4070.016	3786
4071.59	3707
4073.164	3736
4074.738	3661
4076.312	3659
4077.885	3728
4079.458	3748
4081.03	3615
4082.602	3658
4084.173	3654
4085.745	3698
4087.315	3685
4088.886	3658
4090.456	3742
4092.026	3618
4093.596	3655
4095.165	3709
4096.734	3636
4098.301	3662
4099.869	3612
4101.437	3653
4103.006	3619
4104.572	3559
4106.139	3651
4107.704	3632
4109.27	3581
4110.837	3621
4112.401	3593
4113.966	3649
4115.53	3636
4117.094	3571
4118.659	3664
4120.223	3595
4121.785	3620
4123.347	3595
4124.909	3601
4126.471	3584
4128.034	3604
4129.595	3621
4131.155	3609
4132.716	3544
4134.275	3505
4135.836	3506
4137.395	3415
4138.955	3593
4140.513	3496
4142.071	3513
4143.628	3507
4145.188	3600
4146.745	3558
4148.302	3445
4149.858	3401
4151.414	3512
4152.971	3465
4154.526	3415
4156.081	3396
4157.635	3452
4159.189	3503
4160.745	3447
4162.298	3402
4163.852	3424
4165.405	3493
4166.957	3410
4168.51	3447
4170.063	3445
4171.614	3381
4173.166	3416
4174.717	3353
4176.267	3463
4177.817	3459
4179.368	3445
4180.917	3423
4182.466	3405
4184.016	3366
4185.564	3431
4187.112	3369
4188.66	3385
4190.207	3402
4191.754	3333
4193.301	3411
4194.848	3429
4196.394	3409
4197.94	3355
4199.484	3367
4201.03	3415
4202.575	3364
4204.12	3344
4205.663	3362
4207.207	3422
4208.75	3371
4210.292	3331
4211.836	3316
4213.378	3341
4214.92	3324
4216.46	3329
4218.002	3408
4219.544	3328
4221.083	3330
4222.625	3323
4224.164	3350
4225.703	3361
4227.244	3167
4228.782	3299
4230.32	3315
4231.857	3261
4233.395	3299
4234.933	3359
4236.471	3253
4238.007	3294
4239.542	3263
4241.078	3239
4242.614	3233
4244.15	3261
4245.685	3216
4247.219	3305
4248.753	3286
4250.287	3276
4251.82	3174
4253.354	3277
4254.887	3311
4256.419	3270
4257.951	3225
4259.483	3286
4261.016	3235
4262.547	3247
4264.078	3281
4265.608	3246
4267.137	3233
4268.668	3286
4270.197	3204
4271.727	3210
4273.254	3243
4274.783	3213
4276.311	3225
4277.84	3226
4279.366	3214
4280.894	3256
4282.42	3182
4283.946	3189
4285.473	3249
4286.998	3195
4288.523	3157
4290.047	3188
4291.572	3195
4293.096	3203
4294.622	3142
4296.144	3179
4297.668	3158
4299.19	3108
4300.713	3157
4302.236	3159
4303.758	3120
4305.279	3111
4306.799	3132
4308.321	3140
4309.842	3169
4311.361	3156
4312.882	3165
4314.401	3125
