400.0961	9464
402.6185	9727
405.1424	9593
407.6635	9700
410.1838	9633
412.7035	9664
415.2225	9686
417.7388	9904
420.2585	9932
422.7754	9963
425.2917	9980
427.8072	10233
430.3221	10096
432.8363	10165
435.3498	10073
437.8626	10232
440.3727	10197
442.8841	10256
445.3969	10247
447.907	10419
450.4142	10422
452.9229	10380
455.4289	10392
457.9362	10378
460.4449	10341
462.9488	10259
465.454	10387
467.9566	10436
470.4604	10401
472.9637	10280
475.4662	10389
477.966	10332
480.4671	10521
482.9656	10433
485.4633	10456
487.9645	10569
490.4608	10661
492.9566	10750
495.4536	10748
497.948	10728
500.4437	10640
502.9387	10790
505.431	10815
507.9226	10800
510.4136	10962
512.9079	10767
515.3975	10911
517.8864	10949
520.3746	10853
522.8622	10937
525.3491	10799
527.8394	10930
530.3249	11081
532.8098	10952
535.2939	11144
537.7774	10983
540.2623	10887
542.7444	10956
545.2259	10950
547.7067	10859
550.1868	10902
552.6683	10897
555.147	11129
557.6231	10993
560.1005	11013
562.5773	11204
565.0534	11024
567.5308	11199
570.0056	11022
572.4776	11280
574.951	11232
577.4237	11288
579.8978	11208
582.3671	11410
584.8378	11261
587.3079	11429
589.7773	11412
592.244	11447
594.714	11290
597.1793	11506
599.6461	11369
602.1121	11497
604.5754	11298
607.0421	11388
609.5042	11395
611.9675	11440
614.4282	11362
616.8902	11320
619.3515	11251
621.8122	11425
624.2702	11258
626.7296	11422
629.1863	11226
631.6423	11316
634.1017	11330
636.5563	11396
639.0104	11366
641.4658	11343
643.9185	11434
646.3725	11562
648.8239	11615
651.2766	11535
653.7266	11467
656.176	11731
658.6247	11717
661.0748	11727
663.5242	11758
665.9709	11685
668.417	11711
670.8624	11626
673.3092	11925
675.7533	11735
678.1968	11586
680.6395	11860
683.0817	11773
685.5251	11840
687.9659	11762
690.4061	12005
692.8456	11833
695.2844	12051
697.7226	11761
700.1621	12003
702.599	11723
705.0332	11942
707.4688	12136
709.9036	11956
712.3399	12139
714.7735	12119
717.2044	11940
719.6367	11959
722.0683	12179
724.4993	12072
726.9296	12193
729.3593	12303
731.7883	12288
734.2147	12369
736.6423	12446
739.0714	12382
741.4958	12372
743.9216	12395
746.3447	12421
748.7691	12410
751.1929	12690
753.616	12620
756.0366	12740
758.4584	12603
760.8776	12694
763.2982	12644
765.718	12672
768.1373	12769
770.5539	12793
772.9698	12935
775.3871	12685
777.8038	12745
780.2178	12682
782.6332	12732
785.0459	12759
787.458	12809
789.8714	12748
792.2842	12686
794.6943	12724
797.1038	12720
799.5127	12817
801.9209	12778
804.3324	12666
806.7393	12760
809.1456	12798
811.5513	13000
813.9562	12892
816.3625	13017
818.7663	12920
821.1693	12831
823.5718	12975
825.9735	12991
828.3746	12925
830.7771	12968
833.177	12910
835.5762	13030
837.9747	13016
840.3727	12932
842.772	13019
845.1666	12993
847.5626	13153
849.958	12997
852.3527	13164
854.7488	13251
857.1403	13022
859.5331	13174
861.9253	13109
864.3168	13101
866.7057	12995
869.098	12956
871.4876	13159
873.8746	13184
876.263	13047
878.6487	13062
881.0378	12977
883.4243	13044
885.8081	12983
888.1933	13144
890.5759	12977
892.9598	13219
895.343	13020
897.7256	13065
900.1057	13195
902.4871	13147
904.8659	13184
907.246	13109
909.6254	13192
912.0023	13198
914.3786	13464
916.7562	13463
919.1331	13253
921.5074	13374
923.8831	13571
926.2562	13570
928.6287	13634
931.0005	13655
933.3757	13550
935.7462	13654
938.1162	13720
940.4855	13721
942.8542	13561
945.2242	13992
947.5916	14069
949.9584	14106
952.3266	14326
954.6921	14395
957.0571	14498
959.4233	14967
961.787	15229
964.15	15083
966.5125	14851
968.8742	14677
971.2354	14524
973.5959	14127
975.9559	13994
978.3151	13866
980.6738	13775
983.0338	13615
985.3912	13610
987.7461	13653
990.1022	13434
992.4578	13391
994.8127	13661
997.1689	13624
999.5207	13594
1001.874	13627
1004.226	13650
1006.576	13521
1008.929	13639
1011.28	13743
1013.628	13556
1015.977	13684
1018.324	13690
1020.674	13550
1023.019	13775
1025.366	13648
1027.713	13589
1030.056	13848
1032.399	13649
1034.746	13724
1037.087	13614
1039.431	13699
1041.771	13890
1044.113	13821
1046.454	13720
1048.793	13680
1051.133	13799
1053.471	13699
1055.807	13740
1058.146	13810
1060.483	13944
1062.818	13838
1065.153	13880
1067.489	13972
1069.822	13992
1072.156	13970
1074.488	14033
1076.82	14009
1079.15	13986
1081.48	13680
1083.814	13938
1086.143	13983
1088.471	13818
1090.799	13952
1093.126	13914
1095.452	13977
1097.78	13778
1100.105	13919
1102.43	13866
1104.754	13730
1107.077	13933
1109.4	13801
1111.722	13966
1114.044	13857
1116.365	13970
1118.685	13895
1121.005	13937
1123.324	13870
1125.643	13974
1127.961	14086
1130.278	13977
1132.595	14058
1134.911	13990
1137.226	14063
1139.541	14037
1141.854	14010
1144.167	14026
1146.482	14030
1148.793	14003
1151.105	14103
1153.414	13980
1155.725	14142
1158.033	13905
1160.344	14109
1162.651	13984
1164.959	14049
1167.265	14080
1169.572	14089
1171.878	14101
1174.184	14163
1176.488	14106
1178.79	14133
1181.094	14255
1183.396	14268
1185.699	14059
1188.001	14014
1190.301	13951
1192.6	14155
1194.9	13930
1197.2	13925
1199.497	13912
1201.794	14113
1204.09	14189
1206.387	14222
1208.684	14212
1210.978	14009
1213.272	14089
1215.565	14204
1217.858	14244
1220.15	14181
1222.443	14221
1224.734	14223
1227.024	14326
1229.313	14131
1231.602	14164
1233.892	14272
1236.18	14283
1238.467	14489
1240.754	14517
1243.04	14307
1245.325	14581
1247.612	14341
1249.896	14486
1252.178	14560
1254.461	14766
1256.743	14608
1259.027	14375
1261.308	14412
1263.587	14304
1265.867	14553
1268.146	14449
1270.425	14402
1272.703	14496
1274.981	14502
1277.256	14498
1279.532	14400
1281.808	14420
1284.083	14471
1286.358	14324
1288.63	14376
1290.904	14300
1293.175	14430
1295.449	14335
1297.719	14373
1299.99	14380
1302.259	14481
1304.529	14299
1306.798	14435
1309.065	14191
1311.333	14457
1313.599	14469
1315.866	14284
1318.131	14516
1320.396	14421
1322.66	14350
1324.925	14445
1327.187	14341
1329.448	14421
1331.711	14484
1333.974	14406
1336.234	14263
1338.493	14261
1340.752	14387
1343.01	14267
1345.269	14380
1347.526	14267
1349.784	14459
1352.04	14482
1354.295	14423
1356.552	14453
1358.806	14454
1361.059	14326
1363.312	14443
1365.564	14352
1367.818	14433
1370.069	14613
1372.318	14566
1374.568	14646
1376.817	14751
1379.066	14472
1381.316	14553
1383.564	14600
1385.809	14601
1388.056	14392
1390.301	14463
1392.549	14466
1394.793	14485
1397.036	14749
1399.279	14615
1401.522	14681
1403.763	14774
1406.007	14600
1408.248	14706
1410.487	14611
1412.727	14781
1414.965	14785
1417.205	14693
1419.442	14743
1421.68	14754
1423.915	14779
1426.152	14845
1428.388	14813
1430.623	14825
1432.857	14915
1435.091	14903
1437.323	14675
1439.556	14985
1441.789	14998
1444.019	15050
1446.25	14812
1448.48	14903
1450.708	14922
1452.938	15008
1455.167	15009
1457.394	14900
1459.62	14974
1461.846	15040
1464.073	14981
1466.299	14896
1468.523	14870
1470.746	14880
1472.969	14774
1475.191	14679
1477.415	14665
1479.636	14591
1481.858	14511
1484.078	14458
1486.298	14586
1488.518	14743
1490.736	14518
1492.954	14560
1495.169	14599
1497.386	14525
1499.602	14532
1501.819	14614
1504.034	14632
1506.248	14551
1508.462	14434
1510.675	14427
1512.888	14529
1515.1	14403
1517.311	14327
1519.522	14507
1521.732	14215
1523.942	14481
1526.151	14399
1528.36	14396
1530.566	14484
1532.773	14468
1534.98	14579
1537.187	14565
1539.392	14537
1541.596	14627
1543.801	14620
1546.005	14635
1548.208	14458
1550.411	14626
1552.612	14604
1554.814	14740
1557.013	14624
1559.212	14725
1561.414	14739
1563.612	14886
1565.811	14768
1568.007	14843
1570.203	14692
1572.403	14770
1574.598	14724
1576.792	14820
1578.988	14917
1581.181	14818
1583.376	14974
1585.568	14795
1587.761	14785
1589.952	14859
1592.143	14958
1594.333	14756
1596.524	14825
1598.715	15006
1600.903	15109
1603.091	14785
1605.278	14960
1607.466	14839
1609.652	15029
1611.838	15287
1614.023	14998
1616.207	14980
1618.391	14950
1620.576	14909
1622.759	14966
1624.941	14978
1627.123	14989
1629.304	14877
1631.484	15025
1633.664	15041
1635.844	14939
1638.022	14957
1640.201	15000
1642.38	15005
1644.556	15289
1646.732	15002
1648.908	15172
1651.084	15026
1653.257	15028
1655.433	15046
1657.607	15109
1659.779	15068
1661.951	14963
1664.122	15161
1666.295	15132
1668.467	14943
1670.635	15185
1672.805	14994
1674.973	15172
1677.142	14911
1679.31	15139
1681.478	14907
1683.644	15002
1685.81	15261
1687.975	15032
1690.142	15024
1692.305	14949
1694.468	15101
1696.632	15037
1698.794	14922
1700.957	14782
1703.119	15005
1705.279	14864
1707.439	15069
1709.598	14944
1711.758	14869
1713.917	14960
1716.075	14918
1718.231	14888
1720.388	14888
1722.543	14839
1724.702	14882
1726.856	14749
1729.01	14775
1731.164	14744
1733.317	14817
1735.471	15115
1737.623	14813
1739.774	15057
1741.925	14918
1744.075	14772
1746.225	15077
1748.376	14792
1750.524	14944
1752.672	14998
1754.82	14954
1756.965	14957
1759.113	14931
1761.259	14992
1763.405	15048
1765.549	15119
1767.694	15011
1769.836	15012
1771.981	14994
1774.123	15089
1776.264	14850
1778.405	14970
1780.546	15023
1782.687	14841
1784.827	15117
1786.966	15058
1789.103	15110
1791.242	15010
1793.381	15012
1795.517	15150
1797.653	14958
1799.788	15121
1801.923	15287
1804.057	15083
1806.193	15130
1808.326	15270
1810.457	14875
1812.59	15116
1814.721	15221
1816.855	14962
1818.984	14823
1821.113	15043
1823.244	15071
1825.372	14916
1827.499	14993
1829.63	15010
1831.756	14825
1833.882	15008
1836.007	15010
1838.132	14868
1840.26	14974
1842.384	14858
1844.507	14863
1846.63	15020
1848.752	14985
1850.875	14696
1852.996	14826
1855.118	14829
1857.238	14890
1859.358	14906
1861.477	14936
1863.597	14832
1865.715	14796
1867.832	14855
1869.948	14714
1872.064	14712
1874.181	14795
1876.297	14670
1878.411	14713
1880.526	14956
1882.639	14941
1884.752	15054
1886.865	14910
1888.977	14824
1891.089	14869
1893.2	14785
1895.308	14862
1897.42	15053
1899.53	14927
1901.639	14971
1903.745	14955
1905.853	15058
1907.962	14979
1910.067	15000
1912.174	14932
1914.278	15068
1916.383	14837
1918.486	15186
1920.592	14926
1922.694	14970
1924.797	15010
1926.898	15085
1929	15097
1931.102	14977
1933.203	14946
1935.301	15182
1937.401	15168
1939.499	15171
1941.598	15013
1943.697	15199
1945.793	14985
1947.888	15107
1949.985	15050
1952.08	15073
1954.176	14994
1956.269	14995
1958.364	15024
1960.457	15112
1962.549	15124
1964.642	14998
1966.733	15177
1968.823	15077
1970.913	15126
1973.005	14963
1975.093	14998
1977.184	14998
1979.271	14999
1981.359	14894
1983.446	14852
1985.532	14818
1987.619	14942
1989.705	15013
1991.789	15002
1993.874	14910
1995.956	14876
1998.041	14823
2000.123	14931
2002.206	14904
2004.287	14899
2006.368	14860
2008.449	14930
2010.529	14794
2012.609	14849
2014.688	14800
2016.766	14761
2018.843	14754
2020.922	14722
2022.999	14918
2025.074	14671
2027.15	14889
2029.225	14985
2031.299	14861
2033.375	14870
2035.447	14741
2037.52	14864
2039.592	14826
2041.664	14838
2043.736	14860
2045.807	14957
2047.876	14836
2049.947	14742
2052.015	14826
2054.086	14803
2056.153	14729
2058.221	14818
2060.288	14821
2062.353	14835
2064.42	14723
2066.486	14948
2068.55	14924
2070.614	14781
2072.678	14945
2074.741	14672
2076.805	14689
2078.866	14938
2080.929	14826
2082.99	14880
2085.049	14991
2087.109	14725
2089.17	14661
2091.228	14730
2093.286	14891
2095.344	14877
2097.4	14706
2099.46	14831
2101.516	14777
2103.572	14764
2105.626	14756
2107.679	14865
2109.735	14701
2111.788	14865
2113.841	14799
2115.894	14753
2117.945	14815
2119.997	14694
2122.049	14865
2124.1	14698
2126.148	14768
2128.197	14738
2130.246	14828
2132.296	14694
2134.342	14941
2136.39	14786
2138.437	14851
2140.483	14721
2142.527	14821
2144.574	14814
2146.619	14539
2148.661	14689
2150.705	14771
2152.747	14530
2154.792	14569
2156.832	14684
2158.874	14793
2160.915	14561
2162.954	14574
2164.995	14641
2167.034	14709
2169.072	14558
2171.111	14568
2173.148	14474
2175.186	14644
2177.223	14244
2179.258	14695
2181.294	14571
2183.328	14447
2185.362	14415
2187.398	14386
2189.431	14350
2191.463	14372
2193.495	14505
2195.528	14541
2197.56	14319
2199.59	14481
2201.62	14342
2203.649	14389
2205.678	14469
2207.708	14251
2209.737	14363
2211.764	14199
2213.791	14263
2215.817	14350
2217.843	14295
2219.87	14304
2221.895	14229
2223.919	14220
2225.942	14240
2227.966	14308
2229.988	14317
2232.012	14111
2234.032	14396
2236.054	14380
2238.074	14232
2240.095	14240
2242.116	14297
2244.135	14293
2246.153	14221
2248.171	14191
2250.188	14256
2252.208	14244
2254.223	14280
2256.239	14174
2258.255	14104
2260.269	14331
2262.283	14264
2264.3	14280
2266.312	14138
2268.325	14288
2270.336	14365
2272.349	14174
2274.362	14264
2276.372	14180
2278.383	14138
2280.392	14114
2282.402	14232
2284.409	14116
2286.418	14231
2288.427	14320
2290.433	14296
2292.441	14172
2294.446	14219
2296.453	14154
2298.459	14149
2300.463	14117
2302.466	14146
2304.471	14104
2306.475	14208
2308.477	14087
2310.478	14155
2312.481	14192
2314.481	14273
2316.481	13994
2318.482	13977
2320.482	14107
2322.48	14202
2324.48	14098
2326.478	14020
2328.476	13938
2330.473	13945
2332.469	14019
2334.465	13951
2336.46	13818
2338.454	14008
2340.45	13952
2342.444	13862
2344.437	13866
2346.43	13852
2348.421	13847
2350.414	13854
2352.405	13754
2354.396	13818
2356.386	13799
2358.376	13896
2360.366	13932
2362.355	13891
2364.343	13948
2366.331	13804
2368.317	13675
2370.304	13739
2372.292	13695
2374.278	13803
2376.262	13776
2378.247	13626
2380.23	13673
2382.216	13709
2384.199	13610
2386.181	13622
2388.163	13801
2390.144	13609
2392.127	13719
2394.107	13604
2396.087	13696
2398.066	13536
2400.046	13725
2402.023	13738
2404.004	13653
2405.981	13628
2407.957	13680
2409.934	13545
2411.91	13342
2413.886	13528
2415.862	13624
2417.836	13439
2419.809	13572
2421.784	13434
2423.756	13618
2425.73	13484
2427.701	13499
2429.672	13690
2431.644	13584
2433.615	13504
2435.586	13477
2437.555	13572
2439.523	13694
2441.491	13440
2443.459	13653
2445.428	13685
2447.395	13564
2449.361	13418
2451.327	13490
2453.292	13384
2455.257	13422
2457.223	13391
2459.187	13461
2461.15	13288
2463.113	13405
2465.076	13492
2467.039	13496
2468.999	13685
2470.96	13522
2472.921	13521
2474.881	13488
2476.841	13180
2478.8	13345
2480.759	13528
2482.717	13370
2484.675	13474
2486.63	13485
2488.589	13299
2490.545	13328
2492.5	13342
2494.455	13363
2496.408	13191
2498.364	13208
2500.318	13247
2502.27	13392
2504.223	13173
2506.174	13364
2508.126	13193
2510.078	13265
2512.03	13057
2513.979	13196
2515.927	13231
2517.877	13372
2519.826	13087
2521.775	13029
2523.722	13245
2525.668	13093
2527.616	13176
2529.561	13195
2531.508	13200
2533.452	13055
2535.398	13204
2537.342	13026
2539.284	13186
2541.229	13452
2543.173	13015
2545.114	13075
2547.055	13104
2548.996	13030
2550.938	13003
2552.878	13092
2554.817	13173
2556.756	13134
2558.695	13228
2560.633	13013
2562.572	13041
2564.509	13066
2566.445	13163
2568.382	13142
2570.317	13154
2572.254	13129
2574.189	13316
2576.123	12883
2578.057	13000
2579.99	13005
2581.923	13043
2583.855	12977
2585.788	13274
2587.719	13060
2589.65	13062
2591.579	13196
2593.511	13182
2595.44	13130
2597.37	12981
2599.297	13129
2601.225	13049
2603.153	13012
2605.08	13079
2607.007	13138
2608.932	13030
2610.858	13113
2612.782	13043
2614.709	13036
2616.632	13122
2618.556	13071
2620.478	13237
2622.401	13037
2624.324	13126
2626.247	12983
2628.167	13073
2630.088	13122
2632.008	13216
2633.928	13082
2635.848	13102
2637.766	13124
2639.684	13074
2641.603	12845
2643.519	13043
2645.437	13177
2647.353	13140
2649.27	12954
2651.184	13248
2653.099	12946
2655.014	13018
2656.928	12881
2658.842	13056
2660.755	13003
2662.667	13120
2664.579	13087
2666.491	12933
2668.402	13025
2670.312	13087
2672.222	13040
2674.132	13032
2676.042	12923
2677.951	12890
2679.859	12921
2681.766	12883
2683.674	12961
2685.582	12824
2687.488	12835
2689.392	12975
2691.298	12772
2693.202	12714
2695.107	12849
2697.012	12834
2698.914	12857
2700.817	12818
2702.72	12686
2704.622	12878
2706.524	12661
2708.425	12679
2710.326	12774
2712.225	12761
2714.125	12810
2716.024	12688
2717.923	12626
2719.822	12655
2721.719	12634
2723.616	12644
2725.512	12688
2727.41	12794
2729.305	12671
2731.201	12594
2733.095	12650
2734.99	12785
2736.884	12681
2738.778	12762
2740.67	12481
2742.562	12649
2744.455	12612
2746.346	12538
2748.238	12709
2750.129	12722
2752.018	12733
2753.907	12491
2755.797	12625
2757.687	12559
2759.575	12666
2761.462	12581
2763.349	12572
2765.237	12591
2767.124	12536
2769.009	12535
2770.894	12507
2772.779	12421
2774.663	12527
2776.547	12635
2778.431	12525
2780.314	12508
2782.197	12385
2784.078	12415
2785.96	12498
2787.842	12590
2789.723	12450
2791.603	12462
2793.483	12499
2795.362	12534
2797.241	12516
2799.121	12433
2800.997	12322
2802.874	12420
2804.751	12422
2806.628	12323
2808.506	12494
2810.38	12263
2812.255	12348
2814.13	12201
2816.003	12379
2817.878	12324
2819.752	12393
2821.623	12386
2823.496	12181
2825.368	12408
2827.238	12263
2829.111	12303
2830.98	12367
2832.851	12383
2834.719	12182
2836.589	12168
2838.458	12307
2840.327	12284
2842.193	12214
2844.061	12169
2845.927	12286
2847.794	12247
2849.66	12369
2851.525	12333
2853.39	12291
2855.254	12297
2857.117	12389
2858.983	12325
2860.845	12406
2862.707	12282
2864.569	12444
2866.431	12363
2868.293	12450
2870.154	12432
2872.013	12403
2873.873	12646
2875.733	12499
2877.592	12759
2879.451	12603
2881.309	12745
2883.166	12733
2885.022	12811
2886.879	12790
2888.736	12742
2890.591	12883
2892.446	12671
2894.301	12887
2896.155	12863
2898.009	12800
2899.863	12792
2901.716	12507
2903.568	12714
2905.419	12756
2907.27	12799
2909.123	12644
2910.973	12746
2912.824	12749
2914.673	12828
2916.521	12887
2918.372	12916
2920.22	12987
2922.067	12914
2923.914	12986
2925.761	12928
2927.607	12926
2929.455	13114
2931.301	13219
2933.144	13094
2934.99	13260
2936.833	13328
2938.678	13313
2940.522	13343
2942.364	13585
2944.207	13514
2946.048	13508
2947.891	13667
2949.731	13599
2951.571	13449
2953.412	13625
2955.25	13447
2957.09	13323
2958.93	13224
2960.767	13246
2962.606	13284
2964.443	13107
2966.279	13250
2968.116	12994
2969.953	12946
2971.788	12882
2973.623	12627
2975.457	12667
2977.292	12833
2979.127	12594
2980.959	12585
2982.792	12616
2984.624	12607
2986.455	12505
2988.288	12550
2990.119	12480
2991.949	12434
2993.779	12375
2995.608	12378
2997.439	12218
2999.268	12337
3001.096	12184
3002.923	12115
3004.751	12159
3006.578	11900
3008.406	11864
3010.232	11925
3012.057	11707
3013.883	11733
3015.706	11765
3017.532	11772
3019.356	11807
3021.179	11577
3023.002	11708
3024.823	11556
3026.646	11648
3028.469	11490
3030.289	11547
3032.11	11445
3033.93	11598
3035.749	11375
3037.57	11325
3039.39	11529
3041.207	11519
3043.026	11499
3044.842	11408
3046.661	11347
3048.477	11475
3050.294	11456
3052.109	11536
3053.925	11349
3055.739	11272
3057.555	11451
3059.368	11363
3061.181	11397
3062.995	11405
3064.807	11271
3066.62	11375
3068.433	11398
3070.243	11369
3072.054	11430
3073.865	11088
3075.675	11240
3077.485	11229
3079.293	11196
3081.102	11149
3082.911	11161
3084.719	11116
3086.527	11095
3088.333	11148
3090.139	11115
3091.945	10944
3093.75	11177
3095.557	11047
3097.361	11139
3099.165	11092
3100.969	11125
3102.772	10981
3104.575	10988
3106.379	10969
3108.181	10895
3109.982	10965
3111.783	10886
3113.584	10884
3115.386	10832
3117.186	11034
3118.985	10835
3120.783	10926
3122.582	10935
3124.381	10772
3126.179	10844
3127.975	10904
3129.772	10832
3131.569	10889
3133.365	10758
3135.161	10684
3136.956	10872
3138.751	10731
3140.544	10635
3142.338	10891
3144.132	10594
3145.925	10666
3147.717	10685
3149.509	10620
3151.301	10679
3153.091	10623
3154.884	10466
3156.673	10560
3158.462	10609
3160.252	10586
3162.041	10529
3163.831	10460
3165.618	10501
3167.405	10570
3169.193	10583
3170.979	10545
3172.767	10585
3174.553	10587
3176.338	10442
3178.123	10484
3179.907	10504
3181.692	10540
3183.477	10549
3185.259	10404
3187.042	10476
3188.824	10521
3190.607	10538
3192.389	10454
3194.17	10461
3195.951	10528
3197.73	10617
3199.51	10451
3201.289	10364
3203.07	10574
3204.848	10360
3206.626	10416
3208.403	10365
3210.18	10411
3211.959	10383
3213.735	10339
3215.511	10255
3217.285	10301
3219.06	10351
3220.836	10294
3222.611	10388
3224.384	10453
3226.158	10246
3227.929	10446
3229.702	10306
3231.476	10169
3233.248	10455
3235.018	10255
3236.789	10252
3238.56	10339
3240.33	10235
3242.1	10314
3243.869	10142
3245.637	10428
3247.405	10123
3249.172	10432
3250.941	10400
3252.707	10189
3254.474	10149
3256.24	10194
3258.006	10166
3259.772	10261
3261.537	10268
3263.301	10242
3265.065	10195
3266.828	10246
3268.592	10246
3270.355	10118
3272.117	10164
3273.878	10283
3275.64	10262
3277.401	10238
3279.162	10208
3280.922	10071
3282.682	10218
3284.441	10250
3286.199	10159
3287.959	10119
3289.716	10168
3291.475	10161
3293.232	10077
3294.988	10124
3296.744	10179
3298.501	10146
3300.256	10023
3302.011	10072
3303.766	10098
3305.52	10222
3307.275	9967
3309.028	10075
3310.781	10149
3312.533	10118
3314.285	10011
3316.038	10089
3317.789	10106
3319.54	10056
3321.289	10103
3323.039	10089
3324.789	10061
3326.539	10079
3328.288	10050
3330.035	9962
3331.783	9948
3333.531	10187
3335.28	10089
3337.025	10021
3338.771	9981
3340.518	10114
3342.262	10003
3344.009	9950
3345.753	9934
3347.497	9876
3349.24	9838
3350.983	9919
3352.726	9897
3354.469	9920
3356.212	9877
3357.952	10032
3359.694	9869
3361.434	9989
3363.176	9770
3364.916	9825
3366.654	9727
3368.394	9811
3370.132	9877
3371.871	9778
3373.61	9807
3375.346	9688
3377.083	9733
3378.82	9709
3380.556	9653
3382.292	9700
3384.027	9750
3385.763	9614
3387.497	9827
3389.231	9785
3390.965	9819
3392.698	9664
3394.431	9734
3396.164	9730
3397.896	9702
3399.627	9486
3401.36	9673
3403.09	9608
3404.82	9684
3406.55	9671
3408.279	9773
3410.01	9700
3411.738	9646
3413.467	9511
3415.194	9663
3416.92	9459
3418.647	9561
3420.375	9544
3422.102	9524
3423.827	9490
3425.553	9587
3427.277	9707
3429.003	9456
3430.727	9567
3432.451	9493
3434.173	9556
3435.896	9392
3437.62	9467
3439.343	9418
3441.063	9557
3442.785	9449
3444.505	9265
3446.226	9433
3447.948	9272
3449.666	9254
3451.386	9336
3453.104	9262
3454.823	9419
3456.541	9493
3458.259	9282
3459.976	9296
3461.693	9291
3463.408	9316
3465.125	9334
3466.841	9292
3468.556	9173
3470.271	9269
3471.985	9209
3473.698	9188
3475.414	9139
3477.126	9258
3478.838	9169
3480.55	9231
3482.263	9122
3483.975	9049
3485.686	9047
3487.396	8983
3489.106	9088
3490.817	9049
3492.526	9022
3494.236	8926
3495.944	9174
3497.652	9018
3499.359	9074
3501.066	8991
3502.775	8956
3504.481	8870
3506.187	8940
3507.893	8983
3509.598	8854
3511.304	8953
3513.009	8849
3514.713	9083
3516.417	8738
3518.12	8865
3519.821	8995
3521.525	8889
3523.228	8851
3524.929	9001
3526.631	8759
3528.33	8827
3530.032	8958
3531.733	8790
3533.433	8857
3535.131	8742
3536.83	8702
3538.529	8824
3540.227	8775
3541.925	8686
3543.623	8742
3545.319	8593
3547.016	8749
3548.712	8724
3550.408	8724
3552.103	8693
3553.798	8561
3555.491	8716
3557.188	8623
3558.88	8550
3560.574	8551
3562.266	8529
3563.959	8641
3565.651	8644
3567.343	8619
3569.035	8625
3570.725	8664
3572.415	8649
3574.106	8656
3575.797	8659
3577.485	8567
3579.174	8549
3580.863	8632
3582.551	8646
3584.238	8514
3585.926	8572
3587.613	8505
3589.3	8496
3590.986	8637
3592.671	8487
3594.357	8519
3596.042	8380
3597.726	8381
3599.41	8428
3601.094	8443
3602.778	8491
3604.461	8309
3606.143	8364
3607.825	8307
3609.507	8255
3611.188	8317
3612.87	8217
3614.551	8436
3616.229	8376
3617.909	8175
3619.589	8292
3621.269	8292
3622.948	8229
3624.625	8151
3626.302	8320
3627.98	8211
3629.657	8186
3631.334	8221
3633.01	8215
3634.686	8119
3636.361	8126
3638.036	8150
3639.712	8133
3641.385	8198
3643.06	8100
3644.732	8062
3646.405	8194
3648.08	8068
3649.751	7996
3651.424	8026
3653.094	8002
3654.766	8106
3656.436	8037
3658.106	8057
3659.777	8038
3661.446	8036
3663.115	8156
3664.783	7891
3666.452	7926
3668.121	8022
3669.788	7951
3671.454	8012
3673.121	7991
3674.789	7957
3676.455	7987
3678.12	7996
3679.784	7927
3681.45	7907
3683.114	7968
3684.779	8027
3686.442	7897
3688.105	8012
3689.768	7967
3691.43	8015
3693.093	7978
3694.754	7827
3696.415	7815
3698.076	7792
3699.736	7885
3701.396	7822
3703.057	7865
3704.716	7833
3706.375	7796
3708.034	7958
3709.692	7661
3711.351	7818
3713.008	7937
3714.665	7773
3716.321	7789
3717.977	7694
3719.634	7701
3721.29	7852
3722.945	7802
3724.598	7816
3726.253	7723
3727.907	7690
3729.561	7684
3731.214	7755
3732.867	7690
3734.518	7629
3736.171	7700
3737.824	7641
3739.474	7704
3741.125	7648
3742.775	7698
3744.425	7638
3746.074	7604
3747.725	7489
3749.373	7622
3751.022	7492
3752.669	7593
3754.318	7735
3755.966	7626
3757.612	7725
3759.259	7522
3760.905	7634
3762.55	7555
3764.197	7591
3765.842	7582
3767.486	7470
3769.131	7482
3770.774	7406
3772.417	7563
3774.061	7420
3775.705	7461
3777.347	7508
3778.988	7482
3780.629	7399
3782.271	7501
3783.912	7439
3785.552	7499
3787.192	7389
3788.831	7455
3790.472	7369
3792.112	7442
3793.75	7434
3795.388	7337
3797.024	7430
3798.661	7433
3800.3	7279
3801.936	7337
3803.572	7357
3805.208	7356
3806.844	7381
3808.48	7298
3810.115	7331
3811.748	7260
3813.382	7423
3815.016	7174
3816.649	7181
3818.283	7252
3819.914	7332
3821.547	7181
3823.178	7225
3824.809	7228
3826.441	7209
3828.072	7190
3829.701	7177
3831.331	7160
3832.96	7236
3834.591	7150
3836.219	7192
3837.847	7212
3839.475	7233
3841.102	7089
3842.729	7172
3844.357	7162
3845.984	7090
3847.609	7184
3849.234	7119
3850.86	7136
3852.485	7008
3854.11	7138
3855.734	7117
3857.357	7056
3858.981	7125
3860.603	7097
3862.227	6955
3863.848	7074
3865.471	7033
3867.092	7048
3868.713	6987
3870.334	7085
3871.954	6984
3873.575	6910
3875.194	7147
3876.813	6958
3878.433	6871
3880.051	6948
3881.669	7053
3883.286	6953
3884.904	6960
3886.52	6915
3888.138	6951
3889.754	6941
3891.37	6966
3892.985	6992
3894.6	6765
3896.216	6987
3897.831	6731
3899.444	6959
3901.058	6913
3902.67	6816
3904.283	6832
3905.897	6791
3907.509	6833
3909.121	6888
3910.731	6919
3912.342	6879
3913.954	6902
3915.563	6852
3917.174	6703
3918.783	6859
3920.391	6846
3922.002	6787
3923.611	6858
3925.218	6941
3926.826	6690
3928.432	6885
3930.039	6740
3931.647	6761
3933.253	6777
3934.859	6850
3936.464	6748
3938.068	6846
3939.675	6871
3941.278	6691
3942.883	6731
3944.486	6671
3946.089	6696
3947.692	6724
3949.295	6768
3950.898	6653
3952.499	6729
3954.1	6867
3955.7	6746
3957.303	6695
3958.903	6608
3960.502	6648
3962.101	6594
3963.7	6668
3965.301	6693
3966.899	6545
3968.497	6664
3970.094	6675
3971.691	6504
3973.288	6579
3974.885	6635
3976.481	6688
3978.077	6724
3979.672	6517
3981.267	6482
3982.863	6526
3984.457	6617
3986.051	6465
3987.645	6540
3989.238	6479
3990.831	6583
3992.425	6468
3994.017	6507
3995.607	6443
3997.199	6449
3998.79	6396
4000.382	6437
4001.973	6478
4003.561	6416
4005.151	6340
4006.741	6335
4008.331	6434
4009.918	6408
4011.507	6342
4013.095	6477
4014.681	6363
4016.269	6326
4017.856	6206
4019.443	6292
4021.028	6272
4022.614	6191
4024.199	6356
4025.785	6209
4027.37	6257
4028.953	6199
4030.536	6264
4032.12	6210
4033.704	6278
4035.287	6179
4036.869	6272
4038.45	6197
4040.032	6249
4041.613	6179
4043.195	6135
4044.776	6217
4046.356	6119
4047.935	6131
4049.515	6192
4051.095	6211
4052.674	6182
4054.251	6134
4055.829	6148
4057.406	6139
4058.985	5929
4060.562	6148
4062.139	6141
4063.715	6060
4065.29	6164
4066.865	5946
4068.442	6170
4070.016	6040
4071.59	6173
4073.164	6066
4074.738	6139
4076.312	6129
4077.885	5972
4079.458	5924
4081.03	5987
4082.602	5983
4084.173	5913
4085.745	6025
4087.315	6048
4088.886	6019
4090.456	6025
4092.026	5963
4093.596	5912
4095.165	6035
4096.734	6043
4098.301	5949
4099.869	5920
4101.437	5890
4103.006	5994
4104.572	5923
4106.139	5934
4107.704	5894
4109.27	5933
4110.837	5975
4112.401	6044
4113.966	5927
4115.53	5890
4117.094	5864
4118.659	5931
4120.223	5771
4121.785	5836
4123.347	5882
4124.909	5838
4126.471	5804
4128.034	5834
4129.595	5830
4131.155	5823
4132.716	5705
4134.275	5743
4135.836	5715
4137.395	5641
4138.955	5771
4140.513	5779
4142.071	5742
4143.628	5667
4145.188	5726
4146.745	5631
4148.302	5800
4149.858	5593
4151.414	5666
4152.971	5699
4154.526	5652
4156.081	5725
4157.635	5724
4159.189	5649
4160.745	5581
4162.298	5645
4163.852	5522
4165.405	5673
4166.957	5691
4168.51	5509
4170.063	5543
4171.614	5623
4173.166	5559
4174.717	5605
4176.267	5582
4177.817	5553
4179.368	5554
4180.917	5530
4182.466	5544
4184.016	5611
4185.564	5511
4187.112	5538
4188.66	5472
4190.207	5560
4191.754	5509
4193.301	5381
4194.848	5438
4196.394	5387
4197.94	5514
4199.484	5406
4201.03	5376
4202.575	5458
4204.12	5378
4205.663	5483
4207.207	5428
4208.75	5456
4210.292	5411
4211.836	5442
4213.378	5467
4214.92	5362
4216.46	5379
4218.002	5353
4219.544	5380
4221.083	5474
4222.625	5268
4224.164	5375
4225.703	5345
4227.244	5367
4228.782	5317
4230.32	5364
4231.857	5369
4233.395	5350
4234.933	5341
4236.471	5374
4238.007	5266
4239.542	5392
4241.078	5374
4242.614	5209
4244.15	5292
4245.685	5235
4247.219	5262
4248.753	5236
4250.287	5174
4251.82	5311
4253.354	5261
4254.887	5229
4256.419	5266
4257.951	5232
4259.483	5301
4261.016	5246
4262.547	5278
4264.078	5199
4265.608	5316
4267.137	5214
4268.668	5224
4270.197	5241
4271.727	5263
4273.254	5191
4274.783	5125
4276.311	5205
4277.84	5186
4279.366	5167
4280.894	5180
4282.42	5143
4283.946	5210
4285.473	5157
4286.998	5154
4288.523	5103
4290.047	5095
4291.572	5113
4293.096	5087
4294.622	5093
4296.144	5122
4297.668	5110
4299.19	5111
4300.713	5068
4302.236	5160
4303.758	5073
4305.279	5099
4306.799	5017
4308.321	5102
4309.842	5037
4311.361	5003
4312.882	4949
4314.401	5012
