400.0961	4501
402.6185	4486
405.1424	4483
407.6635	4544
410.1838	4504
412.7035	4553
415.2225	4471
417.7388	4604
420.2585	4565
422.7754	4611
425.2917	4732
427.8072	4649
430.3221	4681
432.8363	4722
435.3498	4725
437.8626	4727
440.3727	4681
442.8841	4769
445.3969	4738
447.907	4898
450.4142	4747
452.9229	4790
455.4289	4688
457.9362	4689
460.4449	4750
462.9488	4730
465.454	4716
467.9566	4736
470.4604	4720
472.9637	4785
475.4662	4710
477.966	4792
480.4671	4872
482.9656	4880
485.4633	4849
487.9645	4891
490.4608	4736
492.9566	4830
495.4536	4878
497.948	4874
500.4437	4906
502.9387	5022
505.431	5022
507.9226	4850
510.4136	4928
512.9079	4950
515.3975	4929
517.8864	4882
520.3746	4886
522.8622	4879
525.3491	4950
527.8394	5019
530.3249	4939
532.8098	5017
535.2939	5000
537.7774	5030
540.2623	5091
542.7444	4960
545.2259	4998
547.7067	4987
550.1868	5020
552.6683	4939
555.147	5012
557.6231	5025
560.1005	5089
562.5773	5147
565.0534	5055
567.5308	5122
570.0056	5141
572.4776	5193
574.951	5194
577.4237	5093
579.8978	5189
582.3671	5194
584.8378	5134
587.3079	5155
589.7773	5273
592.244	5117
594.714	5124
597.1793	5117
599.6461	5106
602.1121	5189
604.5754	5169
607.0421	5054
609.5042	5096
611.9675	5189
614.4282	5109
616.8902	5218
619.3515	5180
621.8122	5139
624.2702	5170
626.7296	5105
629.1863	5166
631.6423	5171
634.1017	5111
636.5563	5131
639.0104	5101
641.4658	5164
643.9185	5057
646.3725	5160
648.8239	5144
651.2766	5187
653.7266	5207
656.176	5360
658.6247	5364
661.0748	5173
663.5242	5207
665.9709	5308
668.417	5309
670.8624	5212
673.3092	5278
675.7533	5287
678.1968	5341
680.6395	5287
683.0817	5379
685.5251	5320
687.9659	5356
690.4061	5385
692.8456	5354
695.2844	5251
697.7226	5341
700.1621	5324
702.599	5365
705.0332	5460
707.4688	5436
709.9036	5496
712.3399	5482
714.7735	5351
717.2044	5466
719.6367	5538
722.0683	5455
724.4993	5402
726.9296	5528
729.3593	5529
731.7883	5617
734.2147	5528
736.6423	5541
739.0714	5645
741.4958	5543
743.9216	5684
746.3447	5665
748.7691	5499
751.1929	5711
753.616	5603
756.0366	5700
758.4584	5700
760.8776	5768
763.2982	5719
765.718	5842
768.1373	5667
770.5539	5836
772.9698	5781
775.3871	5807
777.8038	5719
780.2178	5722
782.6332	5733
785.0459	5700
787.458	5763
789.8714	5776
792.2842	5595
794.6943	5750
797.1038	5803
799.5127	5714
801.9209	5733
804.3324	5698
806.7393	5870
809.1456	5877
811.5513	5781
813.9562	5797
816.3625	5771
818.7663	5773
821.1693	5870
823.5718	5858
825.9735	5889
828.3746	5957
830.7771	5858
833.177	5826
835.5762	5916
837.9747	5887
840.3727	5859
842.772	5976
845.1666	5896
847.5626	6078
849.958	5973
852.3527	6023
854.7488	6011
857.1403	5946
859.5331	6071
861.9253	5953
864.3168	6066
866.7057	5961
869.098	5953
871.4876	6104
873.8746	5914
876.263	5986
878.6487	5889
881.0378	6021
883.4243	5909
885.8081	5981
888.1933	5851
890.5759	5938
892.9598	5839
895.343	5952
897.7256	5929
900.1057	6019
902.4871	6062
904.8659	6060
907.246	5942
909.6254	6039
912.0023	6080
914.3786	6197
916.7562	6302
919.1331	6180
921.5074	6460
923.8831	6426
926.2562	6421
928.6287	6411
931.0005	6366
933.3757	6341
935.7462	6320
938.1162	6291
940.4855	6433
942.8542	6427
945.2242	6378
947.5916	6479
949.9584	6600
952.3266	6688
954.6921	6897
957.0571	7045
959.4233	7047
961.787	7213
964.15	7243
966.5125	7091
968.8742	6952
971.2354	6736
973.5959	6635
975.9559	6423
978.3151	6477
980.6738	6430
983.0338	6339
985.3912	6287
987.7461	6241
990.1022	6239
992.4578	6286
994.8127	6194
997.1689	6123
999.5207	6274
1001.874	6308
1004.226	6326
1006.576	6219
1008.929	6244
1011.28	6294
1013.628	6214
1015.977	6192
1018.324	6200
1020.674	6264
1023.019	6201
1025.366	6300
1027.713	6234
1030.056	6287
1032.399	6269
1034.746	6207
1037.087	6270
1039.431	6345
1041.771	6312
1044.113	6293
1046.454	6323
1048.793	6335
1051.133	6336
1053.471	6311
1055.807	6512
1058.146	6305
1060.483	6399
1062.818	6388
1065.153	6338
1067.489	6454
1069.822	6352
1072.156	6395
1074.488	6517
1076.82	6560
1079.15	6384
1081.48	6366
1083.814	6433
1086.143	6474
1088.471	6422
1090.799	6273
1093.126	6435
1095.452	6494
1097.78	6308
1100.105	6298
1102.43	6456
1104.754	6419
1107.077	6498
1109.4	6351
1111.722	6451
1114.044	6362
1116.365	6393
1118.685	6447
1121.005	6397
1123.324	6511
1125.643	6455
1127.961	6510
1130.278	6464
1132.595	6493
1134.911	6476
1137.226	6536
1139.541	6414
1141.854	6430
1144.167	6409
1146.482	6351
1148.793	6445
1151.105	6482
1153.414	6454
1155.725	6351
1158.033	6402
1160.344	6516
1162.651	6482
1164.959	6466
1167.265	6465
1169.572	6570
1171.878	6466
1174.184	6451
1176.488	6439
1178.79	6574
1181.094	6659
1183.396	6594
1185.699	6490
1188.001	6583
1190.301	6460
1192.6	6534
1194.9	6469
1197.2	6605
1199.497	6431
1201.794	6558
1204.09	6524
1206.387	6452
1208.684	6530
1210.978	6561
1213.272	6570
1215.565	6514
1217.858	6611
1220.15	6601
1222.443	6528
1224.734	6634
1227.024	6581
1229.313	6688
1231.602	6629
1233.892	6740
1236.18	6786
1238.467	6774
1240.754	6851
1243.04	6854
1245.325	6839
1247.612	6910
1249.896	6814
1252.178	6725
1254.461	6808
1256.743	6765
1259.027	6860
1261.308	6824
1263.587	6892
1265.867	6961
1268.146	6855
1270.425	6954
1272.703	6936
1274.981	6818
1277.256	6883
1279.532	6808
1281.808	6767
1284.083	6818
1286.358	6878
1288.63	6856
1290.904	6756
1293.175	6746
1295.449	6832
1297.719	6806
1299.99	6679
1302.259	6700
1304.529	6799
1306.798	6830
1309.065	6789
1311.333	6698
1313.599	6786
1315.866	6668
1318.131	6948
1320.396	6846
1322.66	6747
1324.925	6758
1327.187	6739
1329.448	6851
1331.711	6916
1333.974	6933
1336.234	6875
1338.493	6765
1340.752	6788
1343.01	6785
1345.269	6762
1347.526	6832
1349.784	6819
1352.04	6711
1354.295	6787
1356.552	6850
1358.806	6806
1361.059	6733
1363.312	6784
1365.564	6794
1367.818	6871
1370.069	6807
1372.318	6961
1374.568	6812
1376.817	7001
1379.066	6873
1381.316	6999
1383.564	6885
1385.809	6877
1388.056	6986
1390.301	7021
1392.549	7019
1394.793	7177
1397.036	7170
1399.279	7034
1401.522	7142
1403.763	7123
1406.007	7173
1408.248	7191
1410.487	7379
1412.727	7256
1414.965	7233
1417.205	7166
1419.442	7196
1421.68	7150
1423.915	7146
1426.152	7178
1428.388	7090
1430.623	7039
1432.857	7221
1435.091	7242
1437.323	7187
1439.556	7097
1441.789	7322
1444.019	7167
1446.25	7190
1448.48	7231
1450.708	7203
1452.938	7226
1455.167	7374
1457.394	7272
1459.62	7336
1461.846	7276
1464.073	7141
1466.299	7277
1468.523	7121
1470.746	7167
1472.969	7219
1475.191	7130
1477.415	7112
1479.636	7021
1481.858	7042
1484.078	6936
1486.298	6937
1488.518	7007
1490.736	6886
1492.954	6909
1495.169	6959
1497.386	6947
1499.602	6958
1501.819	7016
1504.034	6985
1506.248	6947
1508.462	6895
1510.675	6836
1512.888	7018
1515.1	6928
1517.311	6918
1519.522	6919
1521.732	6943
1523.942	6906
1526.151	7002
1528.36	6993
1530.566	7000
1532.773	6983
1534.98	7009
1537.187	6917
1539.392	7033
1541.596	7015
1543.801	6903
1546.005	7052
1548.208	6968
1550.411	7101
1552.612	7089
1554.814	6987
1557.013	7130
1559.212	6994
1561.414	6990
1563.612	7090
1565.811	7123
1568.007	7159
1570.203	7167
1572.403	7069
1574.598	7170
1576.792	7210
1578.988	7137
1581.181	7111
1583.376	7183
1585.568	7212
1587.761	7179
1589.952	7218
1592.143	7286
1594.333	7165
1596.524	7213
1598.715	7232
1600.903	7158
1603.091	7216
1605.278	7125
1607.466	7163
1609.652	7205
1611.838	7274
1614.023	7303
1616.207	7231
1618.391	7340
1620.576	7187
1622.759	7209
1624.941	7176
1627.123	7252
1629.304	7267
1631.484	7189
1633.664	7257
1635.844	7309
1638.022	7233
1640.201	7251
1642.38	7331
1644.556	7297
1646.732	7339
1648.908	7340
1651.084	7362
1653.257	7240
1655.433	7394
1657.607	7391
1659.779	7510
1661.951	7370
1664.122	7455
1666.295	7358
1668.467	7391
1670.635	7282
1672.805	7352
1674.973	7365
1677.142	7349
1679.31	7425
1681.478	7229
1683.644	7252
1685.81	7320
1687.975	7389
1690.142	7283
1692.305	7354
1694.468	7332
1696.632	7297
1698.794	7376
1700.957	7295
1703.119	7133
1705.279	7222
1707.439	7132
1709.598	7189
1711.758	7186
1713.917	7184
1716.075	7155
1718.231	7301
1720.388	7076
1722.543	7176
1724.702	7263
1726.856	7074
1729.01	7178
1731.164	7249
1733.317	7184
1735.471	7134
1737.623	7141
1739.774	7075
1741.925	7246
1744.075	7188
1746.225	7084
1748.376	7054
1750.524	7238
1752.672	7192
1754.82	7262
1756.965	7230
1759.113	7270
1761.259	7088
1763.405	7218
1765.549	7233
1767.694	7201
1769.836	7203
1771.981	7146
1774.123	7134
1776.264	7294
1778.405	7280
1780.546	7266
1782.687	7070
1784.827	7198
1786.966	7211
1789.103	7192
1791.242	7246
1793.381	7202
1795.517	7223
1797.653	7137
1799.788	7153
1801.923	7220
1804.057	7262
1806.193	7120
1808.326	7215
1810.457	7141
1812.59	7107
1814.721	7137
1816.855	7081
1818.984	7174
1821.113	7137
1823.244	7067
1825.372	7228
1827.499	7206
1829.63	7081
1831.756	7117
1833.882	7055
1836.007	7199
1838.132	7107
1840.26	7096
1842.384	7120
1844.507	7089
1846.63	7055
1848.752	7096
1850.875	7085
1852.996	6998
1855.118	7040
1857.238	7014
1859.358	7069
1861.477	7071
1863.597	7121
1865.715	7075
1867.832	7175
1869.948	7106
1872.064	7043
1874.181	7023
1876.297	6976
1878.411	7138
1880.526	7021
1882.639	7114
1884.752	6990
1886.865	7087
1888.977	7007
1891.089	7056
1893.2	7241
1895.308	7135
1897.42	7077
1899.53	7016
1901.639	7144
1903.745	7116
1905.853	7108
1907.962	7099
1910.067	7065
1912.174	7147
1914.278	7131
1916.383	7152
1918.486	7056
1920.592	7137
1922.694	7191
1924.797	7223
1926.898	6943
1929	7117
1931.102	7174
1933.203	7110
1935.301	7094
1937.401	7161
1939.499	7171
1941.598	7210
1943.697	7270
1945.793	7176
1947.888	7143
1949.985	7132
1952.08	7190
1954.176	7063
1956.269	7200
1958.364	7036
1960.457	7133
1962.549	7113
1964.642	7184
1966.733	7160
1968.823	7160
1970.913	7050
1973.005	7105
1975.093	7079
1977.184	7142
1979.271	7121
1981.359	7165
1983.446	7082
1985.532	7101
1987.619	6983
1989.705	7089
1991.789	7051
1993.874	7124
1995.956	7110
1998.041	7078
2000.123	6906
2002.206	7118
2004.287	7108
2006.368	7042
2008.449	7014
2010.529	6939
2012.609	7025
2014.688	6954
2016.766	7053
2018.843	6998
2020.922	6993
2022.999	7073
2025.074	7032
2027.15	7074
2029.225	6930
2031.299	7048
2033.375	7070
2035.447	7020
2037.52	7013
2039.592	7001
2041.664	7058
2043.736	7180
2045.807	6958
2047.876	7031
2049.947	7091
2052.015	6984
2054.086	7091
2056.153	7060
2058.221	7100
2060.288	7061
2062.353	7100
2064.42	7150
2066.486	7010
2068.55	7083
2070.614	7044
2072.678	7078
2074.741	6954
2076.805	7199
2078.866	7047
2080.929	7063
2082.99	7112
2085.049	7071
2087.109	7040
2089.17	6999
2091.228	7033
2093.286	6995
2095.344	7117
2097.4	7068
2099.46	6986
2101.516	7029
2103.572	7125
2105.626	7023
2107.679	7116
2109.735	7092
2111.788	7015
2113.841	7029
2115.894	7023
2117.945	7048
2119.997	7090
2122.049	6887
2124.1	7054
2126.148	6986
2128.197	7055
2130.246	6966
2132.296	7010
2134.342	7015
2136.39	6947
2138.437	7009
2140.483	6874
2142.527	7025
2144.574	7038
2146.619	6970
2148.661	6943
2150.705	6961
2152.747	7140
2154.792	6949
2156.832	6979
2158.874	6983
2160.915	6933
2162.954	6952
2164.995	6998
2167.034	6848
2169.072	6986
2171.111	6900
2173.148	6945
2175.186	6960
2177.223	6848
2179.258	6857
2181.294	6860
2183.328	6967
2185.362	6897
2187.398	6889
2189.431	6896
2191.463	6960
2193.495	6861
2195.528	6954
2197.56	7026
2199.59	6888
2201.62	6943
2203.649	6843
2205.678	6969
2207.708	6777
2209.737	6903
2211.764	6872
2213.791	6850
2215.817	6884
2217.843	6847
2219.87	6812
2221.895	6897
2223.919	6870
2225.942	6987
2227.966	6886
2229.988	6790
2232.012	6647
2234.032	6890
2236.054	6746
2238.074	6880
2240.095	6929
2242.116	6920
2244.135	6753
2246.153	6867
2248.171	6792
2250.188	6849
2252.208	6785
2254.223	6895
2256.239	6891
2258.255	6822
2260.269	6891
2262.283	6809
2264.3	6764
2266.312	6860
2268.325	6808
2270.336	6830
2272.349	6890
2274.362	6742
2276.372	6824
2278.383	6777
2280.392	6877
2282.402	6787
2284.409	6933
2286.418	6827
2288.427	6885
2290.433	6795
2292.441	6840
2294.446	6908
2296.453	6859
2298.459	6855
2300.463	6789
2302.466	6921
2304.471	6733
2306.475	6860
2308.477	6852
2310.478	6811
2312.481	6926
2314.481	6843
2316.481	6813
2318.482	6721
2320.482	6786
2322.48	6697
2324.48	6799
2326.478	6849
2328.476	6751
2330.473	6808
2332.469	6797
2334.465	6864
2336.46	6858
2338.454	6735
2340.45	6736
2342.444	6660
2344.437	6709
2346.43	6679
2348.421	6749
2350.414	6734
2352.405	6795
2354.396	6658
2356.386	6693
2358.376	6793
2360.366	6749
2362.355	6684
2364.343	6612
2366.331	6733
2368.317	6753
2370.304	6607
2372.292	6674
2374.278	6686
2376.262	6727
2378.247	6703
2380.23	6750
2382.216	6709
2384.199	6564
2386.181	6747
2388.163	6689
2390.144	6692
2392.127	6646
2394.107	6729
2396.087	6644
2398.066	6579
2400.046	6730
2402.023	6605
2404.004	6645
2405.981	6646
2407.957	6698
2409.934	6617
2411.91	6501
2413.886	6514
2415.862	6636
2417.836	6692
2419.809	6600
2421.784	6738
2423.756	6644
2425.73	6610
2427.701	6556
2429.672	6603
2431.644	6677
2433.615	6515
2435.586	6579
2437.555	6696
2439.523	6658
2441.491	6555
2443.459	6780
2445.428	6656
2447.395	6618
2449.361	6628
2451.327	6707
2453.292	6685
2455.257	6553
2457.223	6655
2459.187	6653
2461.15	6530
2463.113	6600
2465.076	6583
2467.039	6556
2468.999	6525
2470.96	6573
2472.921	6466
2474.881	6605
2476.841	6540
2478.8	6611
2480.759	6699
2482.717	6529
2484.675	6475
2486.63	6556
2488.589	6627
2490.545	6497
2492.5	6578
2494.455	6615
2496.408	6608
2498.364	6545
2500.318	6560
2502.27	6560
2504.223	6531
2506.174	6375
2508.126	6615
2510.078	6522
2512.03	6489
2513.979	6544
2515.927	6424
2517.877	6522
2519.826	6533
2521.775	6554
2523.722	6491
2525.668	6495
2527.616	6501
2529.561	6398
2531.508	6567
2533.452	6483
2535.398	6522
2537.342	6551
2539.284	6468
2541.229	6501
2543.173	6576
2545.114	6468
2547.055	6466
2548.996	6327
2550.938	6441
2552.878	6598
2554.817	6495
2556.756	6407
2558.695	6439
2560.633	6407
2562.572	6519
2564.509	6546
2566.445	6598
2568.382	6563
2570.317	6382
2572.254	6399
2574.189	6610
2576.123	6446
2578.057	6542
2579.99	6473
2581.923	6583
2583.855	6610
2585.788	6529
2587.719	6526
2589.65	6530
2591.579	6524
2593.511	6634
2595.44	6533
2597.37	6420
2599.297	6601
2601.225	6647
2603.153	6469
2605.08	6509
2607.007	6388
2608.932	6549
2610.858	6442
2612.782	6508
2614.709	6513
2616.632	6489
2618.556	6562
2620.478	6467
2622.401	6538
2624.324	6661
2626.247	6484
2628.167	6506
2630.088	6550
2632.008	6536
2633.928	6500
2635.848	6545
2637.766	6498
2639.684	6593
2641.603	6604
2643.519	6588
2645.437	6640
2647.353	6488
2649.27	6591
2651.184	6691
2653.099	6570
2655.014	6572
2656.928	6468
2658.842	6483
2660.755	6516
2662.667	6564
2664.579	6474
2666.491	6533
2668.402	6557
2670.312	6505
2672.222	6498
2674.132	6648
2676.042	6434
2677.951	6602
2679.859	6527
2681.766	6474
2683.674	6484
2685.582	6446
2687.488	6465
2689.392	6435
2691.298	6400
2693.202	6441
2695.107	6542
2697.012	6394
2698.914	6462
2700.817	6475
2702.72	6489
2704.622	6513
2706.524	6467
2708.425	6444
2710.326	6441
2712.225	6520
2714.125	6420
2716.024	6493
2717.923	6601
2719.822	6346
2721.719	6411
2723.616	6449
2725.512	6573
2727.41	6522
2729.305	6400
2731.201	6461
2733.095	6480
2734.99	6459
2736.884	6435
2738.778	6536
2740.67	6514
2742.562	6546
2744.455	6486
2746.346	6517
2748.238	6566
2750.129	6497
2752.018	6390
2753.907	6565
2755.797	6498
2757.687	6426
2759.575	6378
2761.462	6478
2763.349	6351
2765.237	6481
2767.124	6406
2769.009	6448
2770.894	6499
2772.779	6445
2774.663	6537
2776.547	6507
2778.431	6488
2780.314	6512
2782.197	6457
2784.078	6472
2785.96	6355
2787.842	6391
2789.723	6451
2791.603	6468
2793.483	6333
2795.362	6361
2797.241	6430
2799.121	6382
2800.997	6242
2802.874	6402
2804.751	6373
2806.628	6485
2808.506	6513
2810.38	6443
2812.255	6427
2814.13	6278
2816.003	6564
2817.878	6336
2819.752	6536
2821.623	6557
2823.496	6276
2825.368	6390
2827.238	6541
2829.111	6516
2830.98	6458
2832.851	6511
2834.719	6545
2836.589	6477
2838.458	6468
2840.327	6481
2842.193	6427
2844.061	6454
2845.927	6534
2847.794	6640
2849.66	6582
2851.525	6608
2853.39	6471
2855.254	6604
2857.117	6589
2858.983	6712
2860.845	6677
2862.707	6633
2864.569	6699
2866.431	6620
2868.293	6767
2870.154	6734
2872.013	6839
2873.873	6796
2875.733	6965
2877.592	6958
2879.451	6993
2881.309	7002
2883.166	7121
2885.022	7120
2886.879	7142
2888.736	7070
2890.591	7177
2892.446	7259
2894.301	7217
2896.155	7129
2898.009	7156
2899.863	7275
2901.716	7048
2903.568	7160
2905.419	7172
2907.27	7224
2909.123	7205
2910.973	7266
2912.824	7226
2914.673	7389
2916.521	7356
2918.372	7394
2920.22	7444
2922.067	7283
2923.914	7558
2925.761	7489
2927.607	7518
2929.455	7549
2931.301	7567
2933.144	7615
2934.99	7597
2936.833	7720
2938.678	7743
2940.522	7736
2942.364	8046
2944.207	7922
2946.048	7996
2947.891	8142
2949.731	8197
2951.571	8358
2953.412	8286
2955.25	8064
2957.09	7955
2958.93	7973
2960.767	7995
2962.606	7919
2964.443	7783
2966.279	7795
2968.116	7574
2969.953	7573
2971.788	7496
2973.623	7486
2975.457	7358
2977.292	7287
2979.127	7345
2980.959	7194
2982.792	7206
2984.624	7178
2986.455	7119
2988.288	6997
2990.119	7044
2991.949	6959
2993.779	6985
2995.608	6921
2997.439	6785
2999.268	6895
3001.096	6792
3002.923	6772
3004.751	6603
3006.578	6706
3008.406	6740
3010.232	6614
3012.057	6681
3013.883	6507
3015.706	6511
3017.532	6434
3019.356	6479
3021.179	6465
3023.002	6449
3024.823	6346
3026.646	6404
3028.469	6314
3030.289	6387
3032.11	6469
3033.93	6426
3035.749	6329
3037.57	6302
3039.39	6266
3041.207	6413
3043.026	6426
3044.842	6283
3046.661	6239
3048.477	6340
3050.294	6352
3052.109	6278
3053.925	6330
3055.739	6145
3057.555	6322
3059.368	6258
3061.181	6283
3062.995	6172
3064.807	6313
3066.62	6305
3068.433	6316
3070.243	6308
3072.054	6324
3073.865	6235
3075.675	6347
3077.485	6269
3079.293	6153
3081.102	6257
3082.911	6304
3084.719	6250
3086.527	6225
3088.333	6276
3090.139	6182
3091.945	6180
3093.75	6204
3095.557	6121
3097.361	6264
3099.165	6163
3100.969	6189
3102.772	6083
3104.575	6143
3106.379	6131
3108.181	6044
3109.982	6066
3111.783	6046
3113.584	6176
3115.386	6107
3117.186	6128
3118.985	6064
3120.783	6165
3122.582	6008
3124.381	6126
3126.179	6021
3127.975	6083
3129.772	6052
3131.569	6119
3133.365	6083
3135.161	6129
3136.956	5978
3138.751	6033
3140.544	6015
3142.338	5997
3144.132	5996
3145.925	6082
3147.717	6025
3149.509	6019
3151.301	6072
3153.091	5933
3154.884	5963
3156.673	6045
3158.462	6034
3160.252	5966
3162.041	5954
3163.831	6077
3165.618	5965
3167.405	6010
3169.193	5896
3170.979	6034
3172.767	5897
3174.553	5996
3176.338	5904
3178.123	6004
3179.907	6005
3181.692	6052
3183.477	5990
3185.259	6028
3187.042	6025
3188.824	5938
3190.607	5961
3192.389	5968
3194.17	5926
3195.951	6010
3197.73	6026
3199.51	5990
3201.289	6028
3203.07	5947
3204.848	5879
3206.626	5977
3208.403	5935
3210.18	5941
3211.959	6055
3213.735	6037
3215.511	6060
3217.285	5980
3219.06	6046
3220.836	5916
3222.611	5937
3224.384	6030
3226.158	5935
3227.929	6059
3229.702	6010
3231.476	5875
3233.248	6044
3235.018	5999
3236.789	5987
3238.56	5974
3240.33	5931
3242.1	6067
3243.869	6072
3245.637	6069
3247.405	6025
3249.172	6056
3250.941	6100
3252.707	6049
3254.474	6000
3256.24	5926
3258.006	5850
3259.772	6105
3261.537	6069
3263.301	6031
3265.065	5951
3266.828	5994
3268.592	6045
3270.355	6019
3272.117	5917
3273.878	5984
3275.64	6049
3277.401	6058
3279.162	6069
3280.922	6056
3282.682	6120
3284.441	5976
3286.199	6113
3287.959	6046
3289.716	5952
3291.475	5961
3293.232	6013
3294.988	6073
3296.744	6068
3298.501	6054
3300.256	5966
3302.011	5992
3303.766	5891
3305.52	6042
3307.275	5936
3309.028	5910
3310.781	5936
3312.533	6024
3314.285	6158
3316.038	5945
3317.789	6022
3319.54	6046
3321.289	6056
3323.039	6039
3324.789	6062
3326.539	5953
3328.288	5981
3330.035	6002
3331.783	5948
3333.531	5857
3335.28	5987
3337.025	6082
3338.771	5973
3340.518	5991
3342.262	6052
3344.009	6005
3345.753	5962
3347.497	5972
3349.24	5943
3350.983	5929
3352.726	5947
3354.469	5937
3356.212	5972
3357.952	6119
3359.694	5927
3361.434	6112
3363.176	6000
3364.916	6083
3366.654	5822
3368.394	5897
3370.132	5941
3371.871	5866
3373.61	6031
3375.346	5882
3377.083	5867
3378.82	5934
3380.556	5924
3382.292	5993
3384.027	5795
3385.763	5969
3387.497	5903
3389.231	5894
3390.965	5962
3392.698	5957
3394.431	5989
3396.164	5878
3397.896	6000
3399.627	5889
3401.36	5905
3403.09	5845
3404.82	5934
3406.55	5999
3408.279	5865
3410.01	5898
3411.738	5973
3413.467	5864
3415.194	5884
3416.92	5922
3418.647	5919
3420.375	5862
3422.102	5938
3423.827	5856
3425.553	5860
3427.277	5939
3429.003	5900
3430.727	5922
3432.451	5931
3434.173	5891
3435.896	5914
3437.62	6006
3439.343	5899
3441.063	5810
3442.785	5849
3444.505	5811
3446.226	5867
3447.948	5874
3449.666	5773
3451.386	5902
3453.104	5845
3454.823	5857
3456.541	5778
3458.259	5781
3459.976	5768
3461.693	5882
3463.408	5785
3465.125	5788
3466.841	5839
3468.556	5775
3470.271	5732
3471.985	5728
3473.698	5797
3475.414	5797
3477.126	5756
3478.838	5661
3480.55	5751
3482.263	5743
3483.975	5879
3485.686	5825
3487.396	5685
3489.106	5797
3490.817	5745
3492.526	5711
3494.236	5684
3495.944	5738
3497.652	5751
3499.359	5702
3501.066	5738
3502.775	5812
3504.481	5734
3506.187	5626
3507.893	5619
3509.598	5724
3511.304	5736
3513.009	5659
3514.713	5688
3516.417	5735
3518.12	5705
3519.821	5787
3521.525	5574
3523.228	5713
3524.929	5738
3526.631	5652
3528.33	5630
3530.032	5592
3531.733	5644
3533.433	5661
3535.131	5599
3536.83	5698
3538.529	5747
3540.227	5634
3541.925	5646
3543.623	5710
3545.319	5555
3547.016	5621
3548.712	5713
3550.408	5582
3552.103	5683
3553.798	5598
3555.491	5657
3557.188	5655
3558.88	5678
3560.574	5649
3562.266	5645
3563.959	5651
3565.651	5705
3567.343	5771
3569.035	5591
3570.725	5499
3572.415	5661
3574.106	5644
3575.797	5555
3577.485	5598
3579.174	5661
3580.863	5617
3582.551	5704
3584.238	5524
3585.926	5622
3587.613	5618
3589.3	5575
3590.986	5581
3592.671	5569
3594.357	5652
3596.042	5560
3597.726	5556
3599.41	5524
3601.094	5591
3602.778	5694
3604.461	5660
3606.143	5542
3607.825	5492
3609.507	5525
3611.188	5574
3612.87	5499
3614.551	5677
3616.229	5633
3617.909	5560
3619.589	5442
3621.269	5567
3622.948	5593
3624.625	5630
3626.302	5546
3627.98	5380
3629.657	5511
3631.334	5619
3633.01	5554
3634.686	5479
3636.361	5490
3638.036	5526
3639.712	5424
3641.385	5675
3643.06	5557
3644.732	5510
3646.405	5480
3648.08	5337
3649.751	5524
3651.424	5628
3653.094	5485
3654.766	5460
3656.436	5500
3658.106	5448
3659.777	5381
3661.446	5590
3663.115	5412
3664.783	5515
3666.452	5550
3668.121	5576
3669.788	5542
3671.454	5479
3673.121	5511
3674.789	5428
3676.455	5448
3678.12	5476
3679.784	5606
3681.45	5454
3683.114	5471
3684.779	5516
3686.442	5518
3688.105	5454
3689.768	5479
3691.43	5415
3693.093	5372
3694.754	5601
3696.415	5517
3698.076	5433
3699.736	5454
3701.396	5419
3703.057	5431
3704.716	5437
3706.375	5517
3708.034	5360
3709.692	5420
3711.351	5604
3713.008	5430
3714.665	5556
3716.321	5573
3717.977	5435
3719.634	5568
3721.29	5541
3722.945	5479
3724.598	5466
3726.253	5497
3727.907	5519
3729.561	5516
3731.214	5408
3732.867	5506
3734.518	5464
3736.171	5548
3737.824	5517
3739.474	5579
3741.125	5394
3742.775	5481
3744.425	5531
3746.074	5465
3747.725	5621
3749.373	5495
3751.022	5555
3752.669	5479
3754.318	5608
3755.966	5418
3757.612	5355
3759.259	5458
3760.905	5578
3762.55	5498
3764.197	5407
3765.842	5455
3767.486	5550
3769.131	5503
3770.774	5553
3772.417	5425
3774.061	5391
3775.705	5446
3777.347	5527
3778.988	5466
3780.629	5503
3782.271	5555
3783.912	5447
3785.552	5442
3787.192	5429
3788.831	5530
3790.472	5384
3792.112	5424
3793.75	5411
3795.388	5589
3797.024	5424
3798.661	5502
3800.3	5388
3801.936	5497
3803.572	5480
3805.208	5472
3806.844	5535
3808.48	5479
3810.115	5359
3811.748	5480
3813.382	5431
3815.016	5464
3816.649	5391
3818.283	5500
3819.914	5514
3821.547	5432
3823.178	5484
3824.809	5419
3826.441	5373
3828.072	5518
3829.701	5480
3831.331	5532
3832.96	5391
3834.591	5459
3836.219	5467
3837.847	5418
3839.475	5402
3841.102	5553
3842.729	5408
3844.357	5477
3845.984	5492
3847.609	5501
3849.234	5494
3850.86	5389
3852.485	5441
3854.11	5480
3855.734	5490
3857.357	5397
3858.981	5531
3860.603	5456
3862.227	5470
3863.848	5509
3865.471	5496
3867.092	5427
3868.713	5433
3870.334	5482
3871.954	5431
3873.575	5402
3875.194	5450
3876.813	5451
3878.433	5418
3880.051	5548
3881.669	5537
3883.286	5463
3884.904	5454
3886.52	5442
3888.138	5456
3889.754	5381
3891.37	5538
3892.985	5573
3894.6	5426
3896.216	5454
3897.831	5474
3899.444	5515
3901.058	5482
3902.67	5475
3904.283	5410
3905.897	5615
3907.509	5510
3909.121	5500
3910.731	5424
3912.342	5544
3913.954	5524
3915.563	5611
3917.174	5488
3918.783	5562
3920.391	5428
3922.002	5510
3923.611	5522
3925.218	5515
3926.826	5564
3928.432	5460
3930.039	5580
3931.647	5560
3933.253	5548
3934.859	5487
3936.464	5539
3938.068	5558
3939.675	5491
3941.278	5554
3942.883	5494
3944.486	5459
3946.089	5595
3947.692	5594
3949.295	5455
3950.898	5487
3952.499	5550
3954.1	5566
3955.7	5528
3957.303	5560
3958.903	5655
3960.502	5478
3962.101	5472
3963.7	5457
3965.301	5672
3966.899	5469
3968.497	5589
3970.094	5558
3971.691	5516
3973.288	5539
3974.885	5535
3976.481	5472
3978.077	5413
3979.672	5523
3981.267	5528
3982.863	5516
3984.457	5564
3986.051	5467
3987.645	5440
3989.238	5461
3990.831	5548
3992.425	5520
3994.017	5459
3995.607	5561
3997.199	5631
3998.79	5492
4000.382	5473
4001.973	5550
4003.561	5505
4005.151	5501
4006.741	5573
4008.331	5478
4009.918	5555
4011.507	5438
4013.095	5517
4014.681	5519
4016.269	5547
4017.856	5493
4019.443	5514
4021.028	5491
4022.614	5420
4024.199	5530
4025.785	5504
4027.37	5385
4028.953	5464
4030.536	5519
4032.12	5426
4033.704	5444
4035.287	5472
4036.869	5407
4038.45	5367
4040.032	5476
4041.613	5455
4043.195	5528
4044.776	5434
4046.356	5482
4047.935	5513
4049.515	5446
4051.095	5411
4052.674	5529
4054.251	5475
4055.829	5420
4057.406	5447
4058.985	5457
4060.562	5572
4062.139	5413
4063.715	5429
4065.29	5434
4066.865	5459
4068.442	5384
4070.016	5499
4071.59	5392
4073.164	5410
4074.738	5436
4076.312	5483
4077.885	5484
4079.458	5511
4081.03	5499
4082.602	5395
4084.173	5454
4085.745	5402
4087.315	5569
4088.886	5616
4090.456	5452
4092.026	5512
4093.596	5455
4095.165	5585
4096.734	5459
4098.301	5524
4099.869	5538
4101.437	5583
4103.006	5485
4104.572	5507
4106.139	5445
4107.704	5428
4109.27	5529
4110.837	5527
4112.401	5555
4113.966	5578
4115.53	5543
4117.094	5533
4118.659	5550
4120.223	5423
4121.785	5475
4123.347	5551
4124.909	5506
4126.471	5475
4128.034	5379
4129.595	5563
4131.155	5448
4132.716	5521
4134.275	5485
4135.836	5412
4137.395	5468
4138.955	5439
4140.513	5622
4142.071	5430
4143.628	5508
4145.188	5499
4146.745	5388
4148.302	5456
4149.858	5405
4151.414	5562
4152.971	5433
4154.526	5580
4156.081	5471
4157.635	5509
4159.189	5422
4160.745	5592
4162.298	5602
4163.852	5432
4165.405	5525
4166.957	5485
4168.51	5547
4170.063	5525
4171.614	5503
4173.166	5461
4174.717	5436
4176.267	5406
4177.817	5503
4179.368	5471
4180.917	5462
4182.466	5421
4184.016	5483
4185.564	5343
4187.112	5396
4188.66	5448
4190.207	5412
4191.754	5417
4193.301	5536
4194.848	5555
4196.394	5441
4197.94	5508
4199.484	5440
4201.03	5456
4202.575	5471
4204.12	5530
4205.663	5522
4207.207	5485
4208.75	5465
4210.292	5414
4211.836	5458
4213.378	5454
4214.92	5416
4216.46	5406
4218.002	5415
4219.544	5428
4221.083	5573
4222.625	5491
4224.164	5563
4225.703	5475
4227.244	5473
4228.782	5412
4230.32	5464
4231.857	5584
4233.395	5525
4234.933	5485
4236.471	5510
4238.007	5477
4239.542	5488
4241.078	5541
4242.614	5459
4244.15	5484
4245.685	5492
4247.219	5457
4248.753	5577
4250.287	5531
4251.82	5545
4253.354	5613
4254.887	5508
4256.419	5541
4257.951	5521
4259.483	5576
4261.016	5595
4262.547	5463
4264.078	5564
4265.608	5484
4267.137	5563
4268.668	5547
4270.197	5598
4271.727	5511
4273.254	5573
4274.783	5572
4276.311	5492
4277.84	5593
4279.366	5600
4280.894	5522
4282.42	5616
4283.946	5598
4285.473	5559
4286.998	5592
4288.523	5481
4290.047	5540
4291.572	5544
4293.096	5537
4294.622	5653
4296.144	5592
4297.668	5569
4299.19	5585
4300.713	5552
4302.236	5660
4303.758	5579
4305.279	5623
4306.799	5523
4308.321	5622
4309.842	5543
4311.361	5488
4312.882	5529
4314.401	5618
