400.0961	8806
402.6185	8709
405.1424	8822
407.6635	8935
410.1838	8817
412.7035	8809
415.2225	8879
417.7388	8943
420.2585	9055
422.7754	8981
425.2917	9100
427.8072	9243
430.3221	9275
432.8363	9206
435.3498	9388
437.8626	9330
440.3727	9527
442.8841	9385
445.3969	9410
447.907	9405
450.4142	9396
452.9229	9293
455.4289	9315
457.9362	9444
460.4449	9416
462.9488	9415
465.454	9557
467.9566	9385
470.4604	9456
472.9637	9515
475.4662	9615
477.966	9534
480.4671	9478
482.9656	9531
485.4633	9648
487.9645	9688
490.4608	9507
492.9566	9628
495.4536	9696
497.948	9724
500.4437	9767
502.9387	9913
505.431	9894
507.9226	9822
510.4136	9786
512.9079	9973
515.3975	9881
517.8864	9856
520.3746	9989
522.8622	10022
525.3491	9997
527.8394	9918
530.3249	9856
532.8098	9960
535.2939	9840
537.7774	9974
540.2623	10018
542.7444	9975
545.2259	9932
547.7067	9980
550.1868	9912
552.6683	9879
555.147	9993
557.6231	10050
560.1005	10111
562.5773	9978
565.0534	10056
567.5308	10150
570.0056	10099
572.4776	10194
574.951	10249
577.4237	10269
579.8978	10443
582.3671	10356
584.8378	10289
587.3079	10385
589.7773	10330
592.244	10360
594.714	10335
597.1793	10418
599.6461	10227
602.1121	10359
604.5754	10280
607.0421	10345
609.5042	10395
611.9675	10246
614.4282	10218
616.8902	10149
619.3515	10432
621.8122	10337
624.2702	10324
626.7296	10292
629.1863	10253
631.6423	10416
634.1017	10319
636.5563	10334
639.0104	10316
641.4658	10229
643.9185	10424
646.3725	10419
648.8239	10525
651.2766	10450
653.7266	10402
656.176	10545
658.6247	10464
661.0748	10415
663.5242	10607
665.9709	10590
668.417	10518
670.8624	10703
673.3092	10735
675.7533	10646
678.1968	10886
680.6395	10772
683.0817	10777
685.5251	10745
687.9659	10770
690.4061	10856
692.8456	10804
695.2844	10772
697.7226	10820
700.1621	10967
702.599	10873
705.0332	10772
707.4688	10794
709.9036	10825
712.3399	11012
714.7735	10922
717.2044	10933
719.6367	11072
722.0683	11032
724.4993	11103
726.9296	11083
729.3593	11094
731.7883	11194
734.2147	11169
736.6423	11045
739.0714	11318
741.4958	11281
743.9216	11282
746.3447	11367
748.7691	11334
751.1929	11357
753.616	11362
756.0366	11670
758.4584	11340
760.8776	11430
763.2982	11501
765.718	11560
768.1373	11533
770.5539	11612
772.9698	11553
775.3871	11587
777.8038	11578
780.2178	11587
782.6332	11639
785.0459	11556
787.458	11667
789.8714	11665
792.2842	11605
794.6943	11517
797.1038	11547
799.5127	11592
801.9209	11713
804.3324	11643
806.7393	11635
809.1456	11724
811.5513	11769
813.9562	11656
816.3625	11736
818.7663	11573
821.1693	11921
823.5718	11844
825.9735	11803
828.3746	11679
830.7771	11660
833.177	11745
835.5762	11866
837.9747	11857
840.3727	11846
842.772	11882
845.1666	11918
847.5626	11939
849.958	11887
852.3527	12042
854.7488	11912
857.1403	11926
859.5331	12124
861.9253	11967
864.3168	11920
866.7057	11798
869.098	11958
871.4876	11929
873.8746	11926
876.263	11952
878.6487	11952
881.0378	11761
883.4243	11932
885.8081	11836
888.1933	12088
890.5759	11973
892.9598	11796
895.343	12012
897.7256	11956
900.1057	11860
902.4871	11833
904.8659	12053
907.246	12066
909.6254	12006
912.0023	11903
914.3786	12126
916.7562	12022
919.1331	12409
921.5074	12486
923.8831	12438
926.2562	12175
928.6287	12432
931.0005	12422
933.3757	12369
935.7462	12493
938.1162	12457
940.4855	12695
942.8542	12523
945.2242	12866
947.5916	12784
949.9584	13042
952.3266	13423
954.6921	13609
957.0571	13660
959.4233	14212
961.787	14207
964.15	14186
966.5125	14019
968.8742	13645
971.2354	13276
973.5959	13061
975.9559	12583
978.3151	12580
980.6738	12643
983.0338	12406
985.3912	12303
987.7461	12534
990.1022	12304
992.4578	12296
994.8127	12290
997.1689	12476
999.5207	12340
1001.874	12323
1004.226	12420
1006.576	12171
1008.929	12423
1011.28	12345
1013.628	12224
1015.977	12291
1018.324	12348
1020.674	12253
1023.019	12368
1025.366	12501
1027.713	12587
1030.056	12327
1032.399	12576
1034.746	12471
1037.087	12696
1039.431	12622
1041.771	12432
1044.113	12585
1046.454	12528
1048.793	12621
1051.133	12523
1053.471	12319
1055.807	12396
1058.146	12614
1060.483	12570
1062.818	12693
1065.153	12620
1067.489	12758
1069.822	12680
1072.156	12610
1074.488	12775
1076.82	12781
1079.15	12773
1081.48	12692
1083.814	12694
1086.143	12588
1088.471	12634
1090.799	12615
1093.126	12683
1095.452	12710
1097.78	12568
1100.105	12643
1102.43	12473
1104.754	12633
1107.077	12588
1109.4	12652
1111.722	12634
1114.044	12691
1116.365	12896
1118.685	12785
1121.005	12771
1123.324	12892
1125.643	12790
1127.961	12864
1130.278	12957
1132.595	12684
1134.911	12683
1137.226	12760
1139.541	12697
1141.854	12640
1144.167	12683
1146.482	12711
1148.793	12602
1151.105	12782
1153.414	12863
1155.725	12752
1158.033	12741
1160.344	12600
1162.651	12596
1164.959	12826
1167.265	12725
1169.572	12972
1171.878	12664
1174.184	12751
1176.488	12712
1178.79	12800
1181.094	12992
1183.396	12869
1185.699	12753
1188.001	12741
1190.301	12891
1192.6	12696
1194.9	12814
1197.2	12755
1199.497	12685
1201.794	12685
1204.09	12810
1206.387	12662
1208.684	12735
1210.978	12728
1213.272	12900
1215.565	12705
1217.858	12751
1220.15	12798
1222.443	12732
1224.734	12903
1227.024	12838
1229.313	12861
1231.602	13013
1233.892	12797
1236.18	13127
1238.467	13091
1240.754	13118
1243.04	13211
1245.325	13189
1247.612	13240
1249.896	13217
1252.178	13169
1254.461	13186
1256.743	13254
1259.027	13292
1261.308	13116
1263.587	13249
1265.867	13157
1268.146	13150
1270.425	13197
1272.703	13113
1274.981	13247
1277.256	13293
1279.532	13174
1281.808	12999
1284.083	13220
1286.358	13157
1288.63	13239
1290.904	13025
1293.175	12910
1295.449	13030
1297.719	13167
1299.99	12979
1302.259	12929
1304.529	12994
1306.798	13002
1309.065	12925
1311.333	13215
1313.599	12938
1315.866	13038
1318.131	12950
1320.396	12973
1322.66	12992
1324.925	13207
1327.187	12927
1329.448	13134
1331.711	13123
1333.974	13140
1336.234	13152
1338.493	13323
1340.752	13151
1343.01	13046
1345.269	13138
1347.526	13245
1349.784	13075
1352.04	12887
1354.295	13100
1356.552	12986
1358.806	13179
1361.059	13093
1363.312	13007
1365.564	12951
1367.818	13048
1370.069	13159
1372.318	13195
1374.568	13202
1376.817	13331
1379.066	12937
1381.316	13243
1383.564	13100
1385.809	13306
1388.056	13110
1390.301	13161
1392.549	13330
1394.793	13280
1397.036	13484
1399.279	13336
1401.522	13438
1403.763	13515
1406.007	13529
1408.248	13416
1410.487	13346
1412.727	13465
1414.965	13463
1417.205	13471
1419.442	13511
1421.68	13345
1423.915	13508
1426.152	13586
1428.388	13443
1430.623	13311
1432.857	13597
1435.091	13653
1437.323	13524
1439.556	13699
1441.789	13524
1444.019	13570
1446.25	13626
1448.48	13442
1450.708	13588
1452.938	13786
1455.167	13765
1457.394	13763
1459.62	13565
1461.846	13603
1464.073	13502
1466.299	13478
1468.523	13470
1470.746	13483
1472.969	13569
1475.191	13228
1477.415	13432
1479.636	13297
1481.858	13212
1484.078	13326
1486.298	13190
1488.518	13312
1490.736	13128
1492.954	13223
1495.169	13207
1497.386	13200
1499.602	13140
1501.819	13130
1504.034	13155
1506.248	13179
1508.462	13186
1510.675	13036
1512.888	13211
1515.1	13085
1517.311	13340
1519.522	13159
1521.732	12988
1523.942	13126
1526.151	12945
1528.36	13178
1530.566	13006
1532.773	13294
1534.98	13180
1537.187	13059
1539.392	13139
1541.596	12938
1543.801	13143
1546.005	13276
1548.208	13185
1550.411	13425
1552.612	13358
1554.814	13343
1557.013	13128
1559.212	13432
1561.414	13458
1563.612	13401
1565.811	13326
1568.007	13258
1570.203	13455
1572.403	13326
1574.598	13394
1576.792	13382
1578.988	13317
1581.181	13424
1583.376	13471
1585.568	13441
1587.761	13498
1589.952	13505
1592.143	13367
1594.333	13668
1596.524	13649
1598.715	13562
1600.903	13618
1603.091	13530
1605.278	13592
1607.466	13407
1609.652	13531
1611.838	13409
1614.023	13402
1616.207	13495
1618.391	13558
1620.576	13606
1622.759	13602
1624.941	13591
1627.123	13257
1629.304	13830
1631.484	13685
1633.664	13624
1635.844	13467
1638.022	13556
1640.201	13827
1642.38	13785
1644.556	13732
1646.732	13721
1648.908	13653
1651.084	13481
1653.257	13719
1655.433	13673
1657.607	13537
1659.779	13723
1661.951	13797
1664.122	13618
1666.295	13723
1668.467	13600
1670.635	13814
1672.805	13513
1674.973	13740
1677.142	13761
1679.31	13729
1681.478	13519
1683.644	13577
1685.81	13894
1687.975	13731
1690.142	13716
1692.305	13713
1694.468	13615
1696.632	13632
1698.794	13710
1700.957	13427
1703.119	13656
1705.279	13517
1707.439	13514
1709.598	13585
1711.758	13549
1713.917	13358
1716.075	13559
1718.231	13465
1720.388	13399
1722.543	13491
1724.702	13687
1726.856	13489
1729.01	13510
1731.164	13220
1733.317	13484
1735.471	13463
1737.623	13349
1739.774	13406
1741.925	13487
1744.075	13520
1746.225	13462
1748.376	13422
1750.524	13516
1752.672	13444
1754.82	13617
1756.965	13539
1759.113	13545
1761.259	13377
1763.405	13576
1765.549	13589
1767.694	13509
1769.836	13353
1771.981	13690
1774.123	13484
1776.264	13627
1778.405	13614
1780.546	13451
1782.687	13624
1784.827	13477
1786.966	13685
1789.103	13530
1791.242	13697
1793.381	13645
1795.517	13542
1797.653	13665
1799.788	13621
1801.923	13520
1804.057	13659
1806.193	13523
1808.326	13794
1810.457	13623
1812.59	13603
1814.721	13727
1816.855	13440
1818.984	13688
1821.113	13590
1823.244	13772
1825.372	13575
1827.499	13528
1829.63	13727
1831.756	13533
1833.882	13575
1836.007	13489
1838.132	13532
1840.26	13479
1842.384	13507
1844.507	13419
1846.63	13644
1848.752	13625
1850.875	13518
1852.996	13451
1855.118	13570
1857.238	13522
1859.358	13546
1861.477	13509
1863.597	13425
1865.715	13463
1867.832	13543
1869.948	13451
1872.064	13491
1874.181	13529
1876.297	13311
1878.411	13573
1880.526	13491
1882.639	13603
1884.752	13521
1886.865	13716
1888.977	13388
1891.089	13702
1893.2	13406
1895.308	13464
1897.42	13492
1899.53	13426
1901.639	13588
1903.745	13634
1905.853	13621
1907.962	13508
1910.067	13594
1912.174	13709
1914.278	13611
1916.383	13623
1918.486	13687
1920.592	13858
1922.694	13722
1924.797	13703
1926.898	13626
1929	13738
1931.102	13615
1933.203	13563
1935.301	13717
1937.401	13562
1939.499	13571
1941.598	13793
1943.697	13632
1945.793	13768
1947.888	13693
1949.985	13852
1952.08	13483
1954.176	13747
1956.269	13757
1958.364	13673
1960.457	13686
1962.549	13743
1964.642	13553
1966.733	13721
1968.823	13781
1970.913	13661
1973.005	13604
1975.093	13680
1977.184	13760
1979.271	13615
1981.359	13625
1983.446	13602
1985.532	13543
1987.619	13572
1989.705	13667
1991.789	13433
1993.874	13375
1995.956	13592
1998.041	13445
2000.123	13508
2002.206	13524
2004.287	13573
2006.368	13388
2008.449	13399
2010.529	13555
2012.609	13422
2014.688	13558
2016.766	13328
2018.843	13416
2020.922	13414
2022.999	13307
2025.074	13404
2027.15	13534
2029.225	13362
2031.299	13385
2033.375	13488
2035.447	13460
2037.52	13456
2039.592	13321
2041.664	13542
2043.736	13347
2045.807	13517
2047.876	13445
2049.947	13589
2052.015	13415
2054.086	13479
2056.153	13446
2058.221	13556
2060.288	13462
2062.353	13490
2064.42	13447
2066.486	13365
2068.55	13459
2070.614	13539
2072.678	13461
2074.741	13498
2076.805	13285
2078.866	13546
2080.929	13465
2082.99	13493
2085.049	13368
2087.109	13509
2089.17	13514
2091.228	13583
2093.286	13453
2095.344	13399
2097.4	13512
2099.46	13317
2101.516	13478
2103.572	13583
2105.626	13433
2107.679	13512
2109.735	13405
2111.788	13547
2113.841	13460
2115.894	13314
2117.945	13427
2119.997	13308
2122.049	13440
2124.1	13611
2126.148	13509
2128.197	13405
2130.246	13350
2132.296	13422
2134.342	13383
2136.39	13317
2138.437	13403
2140.483	13315
2142.527	13465
2144.574	13479
2146.619	13268
2148.661	13275
2150.705	13409
2152.747	13400
2154.792	13233
2156.832	13263
2158.874	13402
2160.915	13091
2162.954	13304
2164.995	13115
2167.034	13271
2169.072	13292
2171.111	13277
2173.148	13200
2175.186	13250
2177.223	13186
2179.258	13095
2181.294	13138
2183.328	13298
2185.362	13051
2187.398	13074
2189.431	12958
2191.463	13105
2193.495	13181
2195.528	13097
2197.56	13057
2199.59	13077
2201.62	13088
2203.649	13237
2205.678	13094
2207.708	12878
2209.737	12993
2211.764	13092
2213.791	13043
2215.817	13110
2217.843	12951
2219.87	12850
2221.895	12927
2223.919	12965
2225.942	13132
2227.966	12934
2229.988	12998
2232.012	12986
2234.032	13024
2236.054	13004
2238.074	12887
2240.095	12847
2242.116	12903
2244.135	13059
2246.153	12821
2248.171	12827
2250.188	12899
2252.208	12893
2254.223	12963
2256.239	13018
2258.255	13051
2260.269	12954
2262.283	12876
2264.3	13032
2266.312	12809
2268.325	12828
2270.336	12941
2272.349	13001
2274.362	12996
2276.372	12993
2278.383	12988
2280.392	12917
2282.402	13046
2284.409	12865
2286.418	12933
2288.427	12935
2290.433	12919
2292.441	12952
2294.446	12960
2296.453	12849
2298.459	12901
2300.463	12902
2302.466	12799
2304.471	12730
2306.475	12841
2308.477	12832
2310.478	12719
2312.481	12910
2314.481	12688
2316.481	12757
2318.482	12907
2320.482	12753
2322.48	12697
2324.48	12681
2326.478	12650
2328.476	12684
2330.473	12655
2332.469	12760
2334.465	12841
2336.46	12558
2338.454	12634
2340.45	12723
2342.444	12742
2344.437	12735
2346.43	12676
2348.421	12608
2350.414	12692
2352.405	12661
2354.396	12538
2356.386	12588
2358.376	12555
2360.366	12511
2362.355	12524
2364.343	12770
2366.331	12526
2368.317	12494
2370.304	12581
2372.292	12580
2374.278	12591
2376.262	12670
2378.247	12370
2380.23	12563
2382.216	12590
2384.199	12436
2386.181	12529
2388.163	12418
2390.144	12459
2392.127	12517
2394.107	12308
2396.087	12334
2398.066	12204
2400.046	12347
2402.023	12384
2404.004	12381
2405.981	12340
2407.957	12292
2409.934	12329
2411.91	12532
2413.886	12318
2415.862	12274
2417.836	12388
2419.809	12613
2421.784	12379
2423.756	12269
2425.73	12351
2427.701	12168
2429.672	12567
2431.644	12490
2433.615	12394
2435.586	12490
2437.555	12175
2439.523	12164
2441.491	12316
2443.459	12316
2445.428	12406
2447.395	12229
2449.361	12205
2451.327	12311
2453.292	12281
2455.257	12214
2457.223	12434
2459.187	12273
2461.15	12323
2463.113	12267
2465.076	12281
2467.039	12192
2468.999	12124
2470.96	12214
2472.921	12236
2474.881	12110
2476.841	12143
2478.8	12171
2480.759	12080
2482.717	12114
2484.675	12125
2486.63	12260
2488.589	12031
2490.545	12143
2492.5	11941
2494.455	12096
2496.408	12077
2498.364	12098
2500.318	11987
2502.27	12007
2504.223	11881
2506.174	12034
2508.126	12048
2510.078	11984
2512.03	12128
2513.979	12010
2515.927	11985
2517.877	11950
2519.826	11903
2521.775	12015
2523.722	12020
2525.668	11976
2527.616	11991
2529.561	11934
2531.508	12081
2533.452	11896
2535.398	12097
2537.342	11855
2539.284	11896
2541.229	12258
2543.173	12048
2545.114	11821
2547.055	12143
2548.996	11852
2550.938	11956
2552.878	11971
2554.817	12068
2556.756	11870
2558.695	12022
2560.633	11979
2562.572	11916
2564.509	12057
2566.445	11813
2568.382	11973
2570.317	11981
2572.254	11890
2574.189	12064
2576.123	11981
2578.057	12056
2579.99	11876
2581.923	11987
2583.855	11958
2585.788	11907
2587.719	11932
2589.65	11896
2591.579	11985
2593.511	11955
2595.44	11953
2597.37	11883
2599.297	11887
2601.225	11994
2603.153	11835
2605.08	11866
2607.007	11867
2608.932	11736
2610.858	11961
2612.782	11953
2614.709	11934
2616.632	11830
2618.556	11893
2620.478	11855
2622.401	11887
2624.324	11901
2626.247	11739
2628.167	11930
2630.088	12067
2632.008	11978
2633.928	12020
2635.848	11856
2637.766	11856
2639.684	11982
2641.603	11910
2643.519	11765
2645.437	11959
2647.353	12029
2649.27	11792
2651.184	11766
2653.099	12000
2655.014	11784
2656.928	11816
2658.842	11952
2660.755	12065
2662.667	11843
2664.579	11785
2666.491	11802
2668.402	11790
2670.312	11852
2672.222	11714
2674.132	11884
2676.042	11726
2677.951	11818
2679.859	11756
2681.766	11688
2683.674	11826
2685.582	11710
2687.488	11813
2689.392	11845
2691.298	11766
2693.202	11825
2695.107	11637
2697.012	11630
2698.914	11696
2700.817	11644
2702.72	11695
2704.622	11755
2706.524	11705
2708.425	11521
2710.326	11508
2712.225	11847
2714.125	11613
2716.024	11679
2717.923	11637
2719.822	11440
2721.719	11570
2723.616	11671
2725.512	11696
2727.41	11463
2729.305	11550
2731.201	11466
2733.095	11584
2734.99	11494
2736.884	11390
2738.778	11487
2740.67	11407
2742.562	11552
2744.455	11495
2746.346	11649
2748.238	11297
2750.129	11597
2752.018	11460
2753.907	11462
2755.797	11404
2757.687	11493
2759.575	11334
2761.462	11395
2763.349	11554
2765.237	11501
2767.124	11545
2769.009	11384
2770.894	11258
2772.779	11452
2774.663	11459
2776.547	11455
2778.431	11386
2780.314	11614
2782.197	11439
2784.078	11471
2785.96	11308
2787.842	11477
2789.723	11399
2791.603	11418
2793.483	11284
2795.362	11318
2797.241	11318
2799.121	11398
2800.997	11260
2802.874	11315
2804.751	11290
2806.628	11226
2808.506	11241
2810.38	11160
2812.255	11105
2814.13	11317
2816.003	11367
2817.878	11308
2819.752	11350
2821.623	11209
2823.496	11211
2825.368	11291
2827.238	11269
2829.111	11249
2830.98	11219
2832.851	11233
2834.719	11395
2836.589	11195
2838.458	11251
2840.327	11149
2842.193	11249
2844.061	11324
2845.927	11275
2847.794	10988
2849.66	11181
2851.525	11198
2853.39	11297
2855.254	11277
2857.117	11418
2858.983	11571
2860.845	11442
2862.707	11432
2864.569	11486
2866.431	11286
2868.293	11363
2870.154	11465
2872.013	11637
2873.873	11593
2875.733	11506
2877.592	11597
2879.451	11624
2881.309	11757
2883.166	11621
2885.022	11729
2886.879	11868
2888.736	11743
2890.591	11942
2892.446	11773
2894.301	11992
2896.155	11832
2898.009	11723
2899.863	11940
2901.716	11712
2903.568	11917
2905.419	11857
2907.27	11826
2909.123	11898
2910.973	11847
2912.824	11901
2914.673	11873
2916.521	11842
2918.372	12009
2920.22	12008
2922.067	12123
2923.914	12097
2925.761	12180
2927.607	12318
2929.455	12258
2931.301	12422
2933.144	12206
2934.99	12356
2936.833	12555
2938.678	12456
2940.522	12512
2942.364	12789
2944.207	12653
2946.048	12720
2947.891	12809
2949.731	12812
2951.571	12678
2953.412	12856
2955.25	12691
2957.09	12665
2958.93	12507
2960.767	12606
2962.606	12323
2964.443	12438
2966.279	12293
2968.116	12188
2969.953	11994
2971.788	11947
2973.623	11941
2975.457	11844
2977.292	11838
2979.127	11741
2980.959	11792
2982.792	11765
2984.624	11548
2986.455	11704
2988.288	11533
2990.119	11458
2991.949	11404
2993.779	11484
2995.608	11330
2997.439	11196
2999.268	11271
3001.096	11119
3002.923	11254
3004.751	11150
3006.578	10958
3008.406	11109
3010.232	10805
3012.057	10629
3013.883	10740
3015.706	10898
3017.532	10834
3019.356	10700
3021.179	10728
3023.002	10578
3024.823	10647
3026.646	10497
3028.469	10598
3030.289	10654
3032.11	10454
3033.93	10588
3035.749	10452
3037.57	10679
3039.39	10496
3041.207	10298
3043.026	10435
3044.842	10537
3046.661	10417
3048.477	10468
3050.294	10448
3052.109	10534
3053.925	10443
3055.739	10255
3057.555	10448
3059.368	10388
3061.181	10312
3062.995	10444
3064.807	10445
3066.62	10287
3068.433	10423
3070.243	10456
3072.054	10271
3073.865	10320
3075.675	10142
3077.485	10280
3079.293	10154
3081.102	10278
3082.911	10462
3084.719	10114
3086.527	10178
3088.333	10008
3090.139	10238
3091.945	10124
3093.75	10111
3095.557	10159
3097.361	10099
3099.165	10119
3100.969	10124
3102.772	10060
3104.575	9802
3106.379	10119
3108.181	10026
3109.982	10128
3111.783	10091
3113.584	10039
3115.386	10142
3117.186	10116
3118.985	9850
3120.783	9885
3122.582	9849
3124.381	9900
3126.179	9937
3127.975	9873
3129.772	9780
3131.569	9887
3133.365	9865
3135.161	9894
3136.956	9766
3138.751	9852
3140.544	9739
3142.338	9882
3144.132	9910
3145.925	9958
3147.717	9924
3149.509	9721
3151.301	9765
3153.091	9686
3154.884	9850
3156.673	9801
3158.462	9920
3160.252	9886
3162.041	9853
3163.831	9742
3165.618	9715
3167.405	9810
3169.193	9800
3170.979	9655
3172.767	9688
3174.553	9822
3176.338	9814
3178.123	9677
3179.907	9545
3181.692	9693
3183.477	9555
3185.259	9656
3187.042	9692
3188.824	9437
3190.607	9754
3192.389	9643
3194.17	9565
3195.951	9615
3197.73	9637
3199.51	9638
3201.289	9513
3203.07	9631
3204.848	9720
3206.626	9664
3208.403	9446
3210.18	9559
3211.959	9645
3213.735	9482
3215.511	9512
3217.285	9476
3219.06	9453
3220.836	9509
3222.611	9674
3224.384	9531
3226.158	9574
3227.929	9543
3229.702	9601
3231.476	9621
3233.248	9432
3235.018	9521
3236.789	9390
3238.56	9415
3240.33	9499
3242.1	9429
3243.869	9320
3245.637	9352
3247.405	9401
3249.172	9482
3250.941	9532
3252.707	9413
3254.474	9486
3256.24	9360
3258.006	9375
3259.772	9389
3261.537	9418
3263.301	9485
3265.065	9308
3266.828	9365
3268.592	9382
3270.355	9363
3272.117	9434
3273.878	9284
3275.64	9408
3277.401	9509
3279.162	9222
3280.922	9462
3282.682	9401
3284.441	9401
3286.199	9250
3287.959	9363
3289.716	9336
3291.475	9350
3293.232	9464
3294.988	9327
3296.744	9359
3298.501	9307
3300.256	9354
3302.011	9323
3303.766	9225
3305.52	9456
3307.275	9275
3309.028	9294
3310.781	9283
3312.533	9437
3314.285	9297
3316.038	9267
3317.789	9263
3319.54	9245
3321.289	9278
3323.039	9200
3324.789	9394
3326.539	9194
3328.288	9211
3330.035	9315
3331.783	9327
3333.531	9312
3335.28	9155
3337.025	9166
3338.771	9237
3340.518	9119
3342.262	8998
3344.009	9196
3345.753	9082
3347.497	9107
3349.24	9186
3350.983	9074
3352.726	9150
3354.469	9079
3356.212	9097
3357.952	9176
3359.694	9100
3361.434	9074
3363.176	9062
3364.916	9105
3366.654	9212
3368.394	9073
3370.132	9077
3371.871	8985
3373.61	9060
3375.346	9139
3377.083	9011
3378.82	9027
3380.556	9000
3382.292	8914
3384.027	8973
3385.763	9018
3387.497	8876
3389.231	9056
3390.965	9047
3392.698	9125
3394.431	8819
3396.164	8855
3397.896	8824
3399.627	8856
3401.36	8856
3403.09	8903
3404.82	8876
3406.55	8864
3408.279	8851
3410.01	8811
3411.738	8853
3413.467	8784
3415.194	8859
3416.92	8842
3418.647	8745
3420.375	8702
3422.102	8753
3423.827	8816
3425.553	8877
3427.277	8727
3429.003	8739
3430.727	8852
3432.451	8843
3434.173	8726
3435.896	8747
3437.62	8603
3439.343	8698
3441.063	8691
3442.785	8687
3444.505	8640
3446.226	8663
3447.948	8574
3449.666	8612
3451.386	8654
3453.104	8624
3454.823	8654
3456.541	8667
3458.259	8601
3459.976	8557
3461.693	8506
3463.408	8587
3465.125	8501
3466.841	8598
3468.556	8591
3470.271	8483
3471.985	8488
3473.698	8515
3475.414	8568
3477.126	8495
3478.838	8501
3480.55	8416
3482.263	8531
3483.975	8426
3485.686	8502
3487.396	8466
3489.106	8300
3490.817	8329
3492.526	8306
3494.236	8185
3495.944	8340
3497.652	8257
3499.359	8248
3501.066	8202
3502.775	8383
3504.481	8254
3506.187	8234
3507.893	8274
3509.598	8251
3511.304	8230
3513.009	8175
3514.713	8098
3516.417	8138
3518.12	8174
3519.821	8156
3521.525	8190
3523.228	8139
3524.929	8124
3526.631	8125
3528.33	8148
3530.032	8159
3531.733	8235
3533.433	8151
3535.131	8165
3536.83	8165
3538.529	8205
3540.227	8109
3541.925	8132
3543.623	8040
3545.319	8022
3547.016	8083
3548.712	8005
3550.408	8029
3552.103	7973
3553.798	7944
3555.491	8137
3557.188	8032
3558.88	8021
3560.574	8042
3562.266	8014
3563.959	7917
3565.651	7958
3567.343	7960
3569.035	7923
3570.725	7967
3572.415	7843
3574.106	7879
3575.797	7841
3577.485	7841
3579.174	8057
3580.863	7887
3582.551	7799
3584.238	7805
3585.926	7795
3587.613	7986
3589.3	7766
3590.986	7733
3592.671	7799
3594.357	7739
3596.042	7738
3597.726	7658
3599.41	7833
3601.094	7694
3602.778	7711
3604.461	7631
3606.143	7603
3607.825	7714
3609.507	7783
3611.188	7547
3612.87	7605
3614.551	7593
3616.229	7618
3617.909	7584
3619.589	7585
3621.269	7589
3622.948	7558
3624.625	7635
3626.302	7510
3627.98	7621
3629.657	7554
3631.334	7564
3633.01	7663
3634.686	7514
3636.361	7345
3638.036	7427
3639.712	7554
3641.385	7607
3643.06	7518
3644.732	7305
3646.405	7415
3648.08	7436
3649.751	7384
3651.424	7477
3653.094	7431
3654.766	7426
3656.436	7356
3658.106	7424
3659.777	7385
3661.446	7459
3663.115	7317
3664.783	7296
3666.452	7344
3668.121	7353
3669.788	7353
3671.454	7218
3673.121	7357
3674.789	7279
3676.455	7253
3678.12	7379
3679.784	7214
3681.45	7247
3683.114	7290
3684.779	7310
3686.442	7290
3688.105	7091
3689.768	7260
3691.43	7161
3693.093	7174
3694.754	7266
3696.415	7165
3698.076	7280
3699.736	7192
3701.396	7178
3703.057	7210
3704.716	7177
3706.375	7128
3708.034	7139
3709.692	7132
3711.351	7083
3713.008	7182
3714.665	7165
3716.321	7280
3717.977	7168
3719.634	7203
3721.29	7098
3722.945	7113
3724.598	7148
3726.253	7137
3727.907	7056
3729.561	7040
3731.214	7034
3732.867	7160
3734.518	7140
3736.171	7093
3737.824	7125
3739.474	7089
3741.125	7092
3742.775	7044
3744.425	7144
3746.074	7067
3747.725	7029
3749.373	6978
3751.022	6989
3752.669	6944
3754.318	7013
3755.966	6965
3757.612	6954
3759.259	6883
3760.905	6944
3762.55	6840
3764.197	6923
3765.842	6923
3767.486	6859
3769.131	6984
3770.774	6847
3772.417	6908
3774.061	6852
3775.705	6786
3777.347	6901
3778.988	6936
3780.629	6912
3782.271	6914
3783.912	6821
3785.552	6720
3787.192	6697
3788.831	6882
3790.472	6887
3792.112	6714
3793.75	6798
3795.388	6813
3797.024	6748
3798.661	6795
3800.3	6707
3801.936	6840
3803.572	6737
3805.208	6693
3806.844	6753
3808.48	6735
3810.115	6783
3811.748	6700
3813.382	6647
3815.016	6599
3816.649	6712
3818.283	6786
3819.914	6559
3821.547	6696
3823.178	6549
3824.809	6623
3826.441	6686
3828.072	6647
3829.701	6652
3831.331	6586
3832.96	6667
3834.591	6579
3836.219	6471
3837.847	6471
3839.475	6599
3841.102	6587
3842.729	6620
3844.357	6489
3845.984	6669
3847.609	6464
3849.234	6537
3850.86	6548
3852.485	6523
3854.11	6402
3855.734	6504
3857.357	6429
3858.981	6464
3860.603	6507
3862.227	6468
3863.848	6429
3865.471	6435
3867.092	6412
3868.713	6582
3870.334	6482
3871.954	6499
3873.575	6362
3875.194	6464
3876.813	6370
3878.433	6462
3880.051	6500
3881.669	6426
3883.286	6333
3884.904	6410
3886.52	6401
3888.138	6395
3889.754	6399
3891.37	6399
3892.985	6319
3894.6	6350
3896.216	6392
3897.831	6358
3899.444	6281
3901.058	6365
3902.67	6283
3904.283	6379
3905.897	6352
3907.509	6270
3909.121	6365
3910.731	6278
3912.342	6375
3913.954	6314
3915.563	6215
3917.174	6282
3918.783	6266
3920.391	6214
3922.002	6262
3923.611	6283
3925.218	6261
3926.826	6326
3928.432	6170
3930.039	6211
3931.647	6322
3933.253	6199
3934.859	6035
3936.464	6175
3938.068	6197
3939.675	6254
3941.278	6219
3942.883	6319
3944.486	6177
3946.089	6121
3947.692	6281
3949.295	6201
3950.898	6263
3952.499	6194
3954.1	6148
3955.7	6205
3957.303	6146
3958.903	6173
3960.502	6073
3962.101	6097
3963.7	6092
3965.301	6119
3966.899	6121
3968.497	6047
3970.094	6076
3971.691	6130
3973.288	6008
3974.885	6088
3976.481	5916
3978.077	5966
3979.672	6089
3981.267	6102
3982.863	5927
3984.457	5928
3986.051	6041
3987.645	6036
3989.238	6019
3990.831	5980
3992.425	5870
3994.017	5941
3995.607	5918
3997.199	5901
3998.79	5870
4000.382	5967
4001.973	5870
4003.561	5957
4005.151	5885
4006.741	5881
4008.331	5811
4009.918	5863
4011.507	5815
4013.095	5930
4014.681	5860
4016.269	5846
4017.856	5840
4019.443	5756
4021.028	5817
4022.614	5737
4024.199	5801
4025.785	5873
4027.37	5775
4028.953	5769
4030.536	5746
4032.12	5711
4033.704	5763
4035.287	5742
4036.869	5723
4038.45	5693
4040.032	5706
4041.613	5723
4043.195	5625
4044.776	5667
4046.356	5646
4047.935	5781
4049.515	5704
4051.095	5662
4052.674	5722
4054.251	5678
4055.829	5629
4057.406	5615
4058.985	5556
4060.562	5659
4062.139	5669
4063.715	5607
4065.29	5583
4066.865	5612
4068.442	5535
4070.016	5590
4071.59	5627
4073.164	5491
4074.738	5466
4076.312	5649
4077.885	5570
4079.458	5625
4081.03	5634
4082.602	5518
4084.173	5456
4085.745	5633
4087.315	5526
4088.886	5540
4090.456	5532
4092.026	5407
4093.596	5432
4095.165	5626
4096.734	5555
4098.301	5568
4099.869	5374
4101.437	5591
4103.006	5506
4104.572	5568
4106.139	5364
4107.704	5566
4109.27	5426
4110.837	5493
4112.401	5425
4113.966	5400
4115.53	5395
4117.094	5398
4118.659	5438
4120.223	5430
4121.785	5312
4123.347	5380
4124.909	5366
4126.471	5269
4128.034	5319
4129.595	5391
4131.155	5355
4132.716	5283
4134.275	5341
4135.836	5279
4137.395	5336
4138.955	5291
4140.513	5327
4142.071	5236
4143.628	5292
4145.188	5287
4146.745	5188
4148.302	5291
4149.858	5334
4151.414	5268
4152.971	5270
4154.526	5323
4156.081	5206
4157.635	5219
4159.189	5195
4160.745	5182
4162.298	5136
4163.852	5200
4165.405	5199
4166.957	5255
4168.51	5126
4170.063	5152
4171.614	5205
4173.166	5097
4174.717	5152
4176.267	5005
4177.817	5108
4179.368	5108
4180.917	4999
4182.466	5079
4184.016	5155
4185.564	5025
4187.112	5090
4188.66	5061
4190.207	5070
4191.754	5017
4193.301	5170
4194.848	5018
4196.394	5008
4197.94	5093
4199.484	5058
4201.03	5145
4202.575	4959
4204.12	4948
4205.663	5029
4207.207	5022
4208.75	4949
4210.292	5014
4211.836	5033
4213.378	4996
4214.92	4967
4216.46	4976
4218.002	4948
4219.544	4937
4221.083	5017
4222.625	4869
4224.164	4988
4225.703	5002
4227.244	4983
4228.782	5008
4230.32	4936
4231.857	4864
4233.395	4920
4234.933	4985
4236.471	4905
4238.007	4874
4239.542	4879
4241.078	4961
4242.614	4930
4244.15	4944
4245.685	4890
4247.219	4915
4248.753	4837
4250.287	4859
4251.82	4825
4253.354	4939
4254.887	4872
4256.419	4871
4257.951	4852
4259.483	4910
4261.016	4857
4262.547	4873
4264.078	4811
4265.608	4846
4267.137	4805
4268.668	4782
4270.197	4797
4271.727	4754
4273.254	4878
4274.783	4760
4276.311	4760
4277.84	4781
4279.366	4782
4280.894	4824
4282.42	4737
4283.946	4720
4285.473	4717
4286.998	4743
4288.523	4721
4290.047	4828
4291.572	4716
4293.096	4728
4294.622	4759
4296.144	4776
4297.668	4674
4299.19	4679
4300.713	4694
4302.236	4749
4303.758	4597
4305.279	4692
4306.799	4716
4308.321	4684
4309.842	4717
4311.361	4743
4312.882	4586
4314.401	4538
