400.0961	4764
402.6185	4763
405.1424	4771
407.6635	4748
410.1838	4863
412.7035	4737
415.2225	4744
417.7388	4834
420.2585	4906
422.7754	4956
425.2917	4908
427.8072	4938
430.3221	4912
432.8363	4972
435.3498	4966
437.8626	5092
440.3727	5047
442.8841	5103
445.3969	5080
447.907	5069
450.4142	5042
452.9229	5079
455.4289	5028
457.9362	5069
460.4449	5053
462.9488	4991
465.454	5071
467.9566	5116
470.4604	5075
472.9637	5068
475.4662	5079
477.966	5080
480.4671	5188
482.9656	5108
485.4633	5151
487.9645	5152
490.4608	5110
492.9566	5190
495.4536	5182
497.948	5190
500.4437	5203
502.9387	5280
505.431	5342
507.9226	5275
510.4136	5275
512.9079	5233
515.3975	5251
517.8864	5354
520.3746	5220
522.8622	5283
525.3491	5330
527.8394	5271
530.3249	5312
532.8098	5383
535.2939	5236
537.7774	5324
540.2623	5297
542.7444	5295
545.2259	5277
547.7067	5355
550.1868	5388
552.6683	5422
555.147	5397
557.6231	5337
560.1005	5447
562.5773	5345
565.0534	5381
567.5308	5445
570.0056	5379
572.4776	5380
574.951	5405
577.4237	5378
579.8978	5483
582.3671	5443
584.8378	5440
587.3079	5479
589.7773	5559
592.244	5500
594.714	5494
597.1793	5547
599.6461	5476
602.1121	5467
604.5754	5562
607.0421	5586
609.5042	5622
611.9675	5609
614.4282	5496
616.8902	5571
619.3515	5450
621.8122	5551
624.2702	5465
626.7296	5579
629.1863	5475
631.6423	5416
634.1017	5451
636.5563	5460
639.0104	5557
641.4658	5556
643.9185	5452
646.3725	5476
648.8239	5595
651.2766	5549
653.7266	5533
656.176	5615
658.6247	5601
661.0748	5572
663.5242	5642
665.9709	5532
668.417	5765
670.8624	5717
673.3092	5641
675.7533	5706
678.1968	5635
680.6395	5646
683.0817	5629
685.5251	5585
687.9659	5786
690.4061	5748
692.8456	5852
695.2844	5606
697.7226	5597
700.1621	5683
702.599	5820
705.0332	5758
707.4688	5658
709.9036	5778
712.3399	5837
714.7735	5861
717.2044	5832
719.6367	5943
722.0683	5742
724.4993	5806
726.9296	5891
729.3593	5950
731.7883	5954
734.2147	5878
736.6423	5976
739.0714	5988
741.4958	5992
743.9216	5960
746.3447	6065
748.7691	5982
751.1929	5984
753.616	5957
756.0366	6066
758.4584	6112
760.8776	6065
763.2982	6094
765.718	6071
768.1373	6001
770.5539	6095
772.9698	6105
775.3871	6185
777.8038	6192
780.2178	6135
782.6332	6085
785.0459	6160
787.458	6076
789.8714	6096
792.2842	6112
794.6943	6072
797.1038	6196
799.5127	6156
801.9209	6171
804.3324	6037
806.7393	6137
809.1456	6150
811.5513	6140
813.9562	6218
816.3625	6309
818.7663	6127
821.1693	6214
823.5718	6240
825.9735	6191
828.3746	6112
830.7771	6150
833.177	6292
835.5762	6208
837.9747	6284
840.3727	6281
842.772	6172
845.1666	6287
847.5626	6360
849.958	6236
852.3527	6352
854.7488	6314
857.1403	6361
859.5331	6417
861.9253	6339
864.3168	6352
866.7057	6307
869.098	6217
871.4876	6288
873.8746	6347
876.263	6307
878.6487	6430
881.0378	6335
883.4243	6349
885.8081	6450
888.1933	6372
890.5759	6222
892.9598	6245
895.343	6316
897.7256	6318
900.1057	6248
902.4871	6271
904.8659	6443
907.246	6372
909.6254	6475
912.0023	6406
914.3786	6521
916.7562	6542
919.1331	6632
921.5074	6704
923.8831	6945
926.2562	6667
928.6287	6658
931.0005	6646
933.3757	6523
935.7462	6531
938.1162	6641
940.4855	6613
942.8542	6675
945.2242	6709
947.5916	6736
949.9584	6862
952.3266	6867
954.6921	6985
957.0571	6995
959.4233	7253
961.787	7108
964.15	7382
966.5125	7155
968.8742	7052
971.2354	6905
973.5959	6850
975.9559	6704
978.3151	6691
980.6738	6606
983.0338	6558
985.3912	6633
987.7461	6540
990.1022	6596
992.4578	6621
994.8127	6599
997.1689	6578
999.5207	6491
1001.874	6489
1004.226	6576
1006.576	6621
1008.929	6524
1011.28	6604
1013.628	6552
1015.977	6575
1018.324	6661
1020.674	6622
1023.019	6639
1025.366	6582
1027.713	6660
1030.056	6638
1032.399	6654
1034.746	6649
1037.087	6558
1039.431	6618
1041.771	6599
1044.113	6712
1046.454	6712
1048.793	6705
1051.133	6719
1053.471	6690
1055.807	6676
1058.146	6752
1060.483	6604
1062.818	6715
1065.153	6634
1067.489	6794
1069.822	6784
1072.156	6657
1074.488	6787
1076.82	6703
1079.15	6709
1081.48	6705
1083.814	6671
1086.143	6594
1088.471	6787
1090.799	6599
1093.126	6734
1095.452	6763
1097.78	6712
1100.105	6759
1102.43	6748
1104.754	6630
1107.077	6743
1109.4	6743
1111.722	6735
1114.044	6712
1116.365	6677
1118.685	6871
1121.005	6838
1123.324	6834
1125.643	6875
1127.961	6842
1130.278	6731
1132.595	6831
1134.911	6840
1137.226	6757
1139.541	6688
1141.854	6772
1144.167	6724
1146.482	6776
1148.793	6826
1151.105	6848
1153.414	6788
1155.725	6723
1158.033	6745
1160.344	6875
1162.651	6876
1164.959	6823
1167.265	6746
1169.572	6932
1171.878	6878
1174.184	6740
1176.488	6811
1178.79	6902
1181.094	6902
1183.396	6948
1185.699	6741
1188.001	6725
1190.301	6809
1192.6	6879
1194.9	6789
1197.2	6824
1199.497	6888
1201.794	6798
1204.09	6823
1206.387	6906
1208.684	6695
1210.978	6887
1213.272	6810
1215.565	6859
1217.858	6833
1220.15	6886
1222.443	6802
1224.734	6947
1227.024	6936
1229.313	6956
1231.602	7014
1233.892	6911
1236.18	7025
1238.467	7018
1240.754	7023
1243.04	7142
1245.325	7042
1247.612	7015
1249.896	7066
1252.178	7143
1254.461	7171
1256.743	7145
1259.027	7158
1261.308	7083
1263.587	7037
1265.867	7101
1268.146	7264
1270.425	7147
1272.703	7150
1274.981	7092
1277.256	7136
1279.532	7109
1281.808	7093
1284.083	7109
1286.358	7069
1288.63	7054
1290.904	7012
1293.175	6988
1295.449	7053
1297.719	7065
1299.99	6957
1302.259	6983
1304.529	6993
1306.798	7093
1309.065	6904
1311.333	6968
1313.599	7026
1315.866	6997
1318.131	7030
1320.396	7042
1322.66	6998
1324.925	7089
1327.187	7142
1329.448	7135
1331.711	7028
1333.974	7148
1336.234	7084
1338.493	7155
1340.752	7089
1343.01	7056
1345.269	7083
1347.526	6935
1349.784	6920
1352.04	6980
1354.295	6942
1356.552	6938
1358.806	7074
1361.059	6991
1363.312	7045
1365.564	6958
1367.818	7151
1370.069	7052
1372.318	7066
1374.568	7026
1376.817	7157
1379.066	7061
1381.316	7027
1383.564	7069
1385.809	7021
1388.056	7097
1390.301	7282
1392.549	7172
1394.793	7250
1397.036	7269
1399.279	7391
1401.522	7284
1403.763	7473
1406.007	7286
1408.248	7257
1410.487	7382
1412.727	7205
1414.965	7381
1417.205	7306
1419.442	7400
1421.68	7271
1423.915	7290
1426.152	7273
1428.388	7332
1430.623	7349
1432.857	7250
1435.091	7274
1437.323	7303
1439.556	7326
1441.789	7507
1444.019	7340
1446.25	7368
1448.48	7385
1450.708	7492
1452.938	7395
1455.167	7397
1457.394	7460
1459.62	7427
1461.846	7459
1464.073	7528
1466.299	7469
1468.523	7393
1470.746	7326
1472.969	7307
1475.191	7278
1477.415	7157
1479.636	7161
1481.858	7198
1484.078	7140
1486.298	7186
1488.518	7222
1490.736	7200
1492.954	7039
1495.169	7098
1497.386	6977
1499.602	7060
1501.819	6983
1504.034	7007
1506.248	6961
1508.462	7081
1510.675	7030
1512.888	6967
1515.1	6996
1517.311	7061
1519.522	7020
1521.732	7049
1523.942	6927
1526.151	6873
1528.36	7037
1530.566	7032
1532.773	6984
1534.98	7090
1537.187	7078
1539.392	6978
1541.596	6933
1543.801	7122
1546.005	7078
1548.208	7070
1550.411	7117
1552.612	7202
1554.814	7148
1557.013	7133
1559.212	7256
1561.414	7175
1563.612	7232
1565.811	7251
1568.007	7256
1570.203	7268
1572.403	7290
1574.598	7150
1576.792	7216
1578.988	7184
1581.181	7087
1583.376	7243
1585.568	7110
1587.761	7372
1589.952	7203
1592.143	7248
1594.333	7238
1596.524	7297
1598.715	7270
1600.903	7314
1603.091	7345
1605.278	7221
1607.466	7213
1609.652	7298
1611.838	7235
1614.023	7249
1616.207	7198
1618.391	7256
1620.576	7394
1622.759	7186
1624.941	7348
1627.123	7279
1629.304	7389
1631.484	7381
1633.664	7370
1635.844	7321
1638.022	7417
1640.201	7373
1642.38	7362
1644.556	7346
1646.732	7414
1648.908	7286
1651.084	7338
1653.257	7297
1655.433	7394
1657.607	7347
1659.779	7466
1661.951	7423
1664.122	7492
1666.295	7487
1668.467	7337
1670.635	7467
1672.805	7527
1674.973	7454
1677.142	7364
1679.31	7384
1681.478	7382
1683.644	7543
1685.81	7276
1687.975	7344
1690.142	7309
1692.305	7297
1694.468	7359
1696.632	7323
1698.794	7326
1700.957	7305
1703.119	7263
1705.279	7220
1707.439	7208
1709.598	7223
1711.758	7187
1713.917	7285
1716.075	7305
1718.231	7330
1720.388	7156
1722.543	7210
1724.702	7390
1726.856	7180
1729.01	7195
1731.164	7257
1733.317	7094
1735.471	7355
1737.623	7129
1739.774	7365
1741.925	7317
1744.075	7248
1746.225	7283
1748.376	7143
1750.524	7266
1752.672	7311
1754.82	7373
1756.965	7307
1759.113	7288
1761.259	7428
1763.405	7330
1765.549	7157
1767.694	7184
1769.836	7314
1771.981	7214
1774.123	7292
1776.264	7411
1778.405	7430
1780.546	7450
1782.687	7173
1784.827	7363
1786.966	7331
1789.103	7377
1791.242	7219
1793.381	7275
1795.517	7298
1797.653	7309
1799.788	7311
1801.923	7159
1804.057	7228
1806.193	7303
1808.326	7297
1810.457	7312
1812.59	7327
1814.721	7442
1816.855	7272
1818.984	7300
1821.113	7226
1823.244	7301
1825.372	7359
1827.499	7202
1829.63	7260
1831.756	7353
1833.882	7344
1836.007	7318
1838.132	7246
1840.26	7240
1842.384	7241
1844.507	7309
1846.63	7151
1848.752	7244
1850.875	7158
1852.996	7345
1855.118	7119
1857.238	7126
1859.358	7083
1861.477	7187
1863.597	7237
1865.715	7077
1867.832	7187
1869.948	7184
1872.064	7142
1874.181	7167
1876.297	7261
1878.411	7266
1880.526	7192
1882.639	7138
1884.752	7252
1886.865	7135
1888.977	7198
1891.089	7273
1893.2	7326
1895.308	7274
1897.42	7239
1899.53	7361
1901.639	7221
1903.745	7370
1905.853	7399
1907.962	7233
1910.067	7280
1912.174	7321
1914.278	7267
1916.383	7371
1918.486	7285
1920.592	7396
1922.694	7230
1924.797	7357
1926.898	7300
1929	7377
1931.102	7400
1933.203	7374
1935.301	7346
1937.401	7342
1939.499	7325
1941.598	7472
1943.697	7332
1945.793	7197
1947.888	7367
1949.985	7449
1952.08	7266
1954.176	7321
1956.269	7249
1958.364	7424
1960.457	7337
1962.549	7273
1964.642	7391
1966.733	7276
1968.823	7248
1970.913	7318
1973.005	7256
1975.093	7281
1977.184	7294
1979.271	7207
1981.359	7215
1983.446	7308
1985.532	7270
1987.619	7239
1989.705	7188
1991.789	7375
1993.874	7234
1995.956	7241
1998.041	7214
2000.123	7257
2002.206	7310
2004.287	7239
2006.368	7231
2008.449	7272
2010.529	7171
2012.609	7263
2014.688	7357
2016.766	7166
2018.843	7252
2020.922	7214
2022.999	7182
2025.074	7214
2027.15	7307
2029.225	7285
2031.299	7230
2033.375	7294
2035.447	7279
2037.52	7199
2039.592	7249
2041.664	7370
2043.736	7179
2045.807	7179
2047.876	7246
2049.947	7070
2052.015	7239
2054.086	7239
2056.153	7285
2058.221	7257
2060.288	7283
2062.353	7235
2064.42	7188
2066.486	7299
2068.55	7257
2070.614	7279
2072.678	7185
2074.741	7259
2076.805	7208
2078.866	7242
2080.929	7249
2082.99	7231
2085.049	7254
2087.109	7270
2089.17	7156
2091.228	7191
2093.286	7189
2095.344	7262
2097.4	7299
2099.46	7277
2101.516	7277
2103.572	7268
2105.626	7251
2107.679	7236
2109.735	7194
2111.788	7198
2113.841	7283
2115.894	7315
2117.945	7255
2119.997	7227
2122.049	7236
2124.1	7349
2126.148	7194
2128.197	7283
2130.246	7350
2132.296	7124
2134.342	7299
2136.39	7181
2138.437	7206
2140.483	7235
2142.527	7192
2144.574	7131
2146.619	7196
2148.661	7253
2150.705	7324
2152.747	7166
2154.792	7191
2156.832	7189
2158.874	7024
2160.915	7218
2162.954	7171
2164.995	7088
2167.034	7135
2169.072	7064
2171.111	7193
2173.148	7026
2175.186	7163
2177.223	7182
2179.258	7026
2181.294	7151
2183.328	7022
2185.362	7110
2187.398	7115
2189.431	7146
2191.463	7026
2193.495	7095
2195.528	7009
2197.56	7060
2199.59	7017
2201.62	7022
2203.649	7073
2205.678	7037
2207.708	7053
2209.737	6971
2211.764	7071
2213.791	7096
2215.817	7025
2217.843	7077
2219.87	7110
2221.895	7060
2223.919	7040
2225.942	6939
2227.966	7041
2229.988	6929
2232.012	7067
2234.032	7147
2236.054	6967
2238.074	6918
2240.095	6999
2242.116	6972
2244.135	6961
2246.153	6946
2248.171	6946
2250.188	7053
2252.208	7063
2254.223	6947
2256.239	7065
2258.255	7059
2260.269	7024
2262.283	7035
2264.3	6999
2266.312	6907
2268.325	7033
2270.336	6889
2272.349	7022
2274.362	7016
2276.372	7023
2278.383	6901
2280.392	6956
2282.402	6968
2284.409	6940
2286.418	7039
2288.427	7066
2290.433	6964
2292.441	6987
2294.446	6949
2296.453	6948
2298.459	7000
2300.463	6985
2302.466	6973
2304.471	7005
2306.475	7020
2308.477	7021
2310.478	6913
2312.481	7000
2314.481	6998
2316.481	6997
2318.482	6963
2320.482	6964
2322.48	6923
2324.48	6856
2326.478	6876
2328.476	6845
2330.473	6852
2332.469	6765
2334.465	6980
2336.46	6784
2338.454	6831
2340.45	6780
2342.444	6886
2344.437	6809
2346.43	6922
2348.421	6817
2350.414	6873
2352.405	6885
2354.396	6840
2356.386	6901
2358.376	6905
2360.366	6734
2362.355	6739
2364.343	6828
2366.331	6779
2368.317	6812
2370.304	6815
2372.292	6791
2374.278	6659
2376.262	6800
2378.247	6782
2380.23	6780
2382.216	6827
2384.199	6716
2386.181	6751
2388.163	6754
2390.144	6654
2392.127	6732
2394.107	6778
2396.087	6750
2398.066	6708
2400.046	6731
2402.023	6805
2404.004	6496
2405.981	6659
2407.957	6729
2409.934	6669
2411.91	6635
2413.886	6646
2415.862	6664
2417.836	6616
2419.809	6701
2421.784	6759
2423.756	6703
2425.73	6677
2427.701	6731
2429.672	6662
2431.644	6713
2433.615	6668
2435.586	6636
2437.555	6771
2439.523	6783
2441.491	6818
2443.459	6689
2445.428	6702
2447.395	6743
2449.361	6691
2451.327	6637
2453.292	6634
2455.257	6707
2457.223	6750
2459.187	6678
2461.15	6641
2463.113	6740
2465.076	6649
2467.039	6597
2468.999	6628
2470.96	6652
2472.921	6638
2474.881	6508
2476.841	6638
2478.8	6640
2480.759	6650
2482.717	6529
2484.675	6509
2486.63	6542
2488.589	6651
2490.545	6567
2492.5	6584
2494.455	6574
2496.408	6647
2498.364	6622
2500.318	6527
2502.27	6527
2504.223	6565
2506.174	6554
2508.126	6641
2510.078	6531
2512.03	6615
2513.979	6520
2515.927	6440
2517.877	6504
2519.826	6503
2521.775	6529
2523.722	6591
2525.668	6476
2527.616	6453
2529.561	6526
2531.508	6518
2533.452	6529
2535.398	6475
2537.342	6419
2539.284	6472
2541.229	6460
2543.173	6580
2545.114	6530
2547.055	6611
2548.996	6618
2550.938	6553
2552.878	6542
2554.817	6563
2556.756	6437
2558.695	6492
2560.633	6445
2562.572	6406
2564.509	6550
2566.445	6474
2568.382	6414
2570.317	6530
2572.254	6481
2574.189	6535
2576.123	6434
2578.057	6532
2579.99	6506
2581.923	6412
2583.855	6508
2585.788	6499
2587.719	6436
2589.65	6563
2591.579	6539
2593.511	6472
2595.44	6556
2597.37	6351
2599.297	6621
2601.225	6483
2603.153	6534
2605.08	6563
2607.007	6475
2608.932	6411
2610.858	6434
2612.782	6472
2614.709	6476
2616.632	6403
2618.556	6445
2620.478	6546
2622.401	6475
2624.324	6345
2626.247	6524
2628.167	6555
2630.088	6597
2632.008	6487
2633.928	6485
2635.848	6444
2637.766	6529
2639.684	6547
2641.603	6495
2643.519	6415
2645.437	6448
2647.353	6391
2649.27	6390
2651.184	6550
2653.099	6462
2655.014	6344
2656.928	6420
2658.842	6506
2660.755	6379
2662.667	6399
2664.579	6431
2666.491	6572
2668.402	6456
2670.312	6532
2672.222	6387
2674.132	6411
2676.042	6469
2677.951	6417
2679.859	6486
2681.766	6315
2683.674	6423
2685.582	6440
2687.488	6344
2689.392	6432
2691.298	6467
2693.202	6465
2695.107	6424
2697.012	6327
2698.914	6416
2700.817	6455
2702.72	6395
2704.622	6362
2706.524	6270
2708.425	6407
2710.326	6335
2712.225	6358
2714.125	6223
2716.024	6362
2717.923	6361
2719.822	6377
2721.719	6300
2723.616	6377
2725.512	6272
2727.41	6393
2729.305	6318
2731.201	6294
2733.095	6443
2734.99	6374
2736.884	6312
2738.778	6377
2740.67	6174
2742.562	6313
2744.455	6341
2746.346	6337
2748.238	6196
2750.129	6405
2752.018	6309
2753.907	6316
2755.797	6403
2757.687	6306
2759.575	6235
2761.462	6206
2763.349	6172
2765.237	6284
2767.124	6271
2769.009	6241
2770.894	6315
2772.779	6352
2774.663	6256
2776.547	6338
2778.431	6187
2780.314	6297
2782.197	6171
2784.078	6250
2785.96	6234
2787.842	6286
2789.723	6255
2791.603	6308
2793.483	6235
2795.362	6043
2797.241	6217
2799.121	6190
2800.997	6288
2802.874	6153
2804.751	6114
2806.628	6127
2808.506	6271
2810.38	6238
2812.255	6132
2814.13	6095
2816.003	6203
2817.878	6151
2819.752	6261
2821.623	6244
2823.496	6190
2825.368	6310
2827.238	6268
2829.111	6251
2830.98	6269
2832.851	6297
2834.719	6178
2836.589	6216
2838.458	6239
2840.327	6110
2842.193	6217
2844.061	6241
2845.927	6170
2847.794	6330
2849.66	6253
2851.525	6266
2853.39	6341
2855.254	6252
2857.117	6404
2858.983	6402
2860.845	6356
2862.707	6400
2864.569	6297
2866.431	6460
2868.293	6363
2870.154	6403
2872.013	6471
2873.873	6537
2875.733	6308
2877.592	6548
2879.451	6572
2881.309	6599
2883.166	6605
2885.022	6761
2886.879	6791
2888.736	6717
2890.591	6876
2892.446	6864
2894.301	6889
2896.155	6809
2898.009	6852
2899.863	6733
2901.716	6794
2903.568	6832
2905.419	6670
2907.27	6735
2909.123	6815
2910.973	6681
2912.824	6834
2914.673	6761
2916.521	6809
2918.372	6856
2920.22	6899
2922.067	7017
2923.914	6960
2925.761	6933
2927.607	6969
2929.455	7133
2931.301	7076
2933.144	6981
2934.99	7065
2936.833	7210
2938.678	7152
2940.522	7298
2942.364	7470
2944.207	7357
2946.048	7595
2947.891	7598
2949.731	7553
2951.571	7701
2953.412	7576
2955.25	7538
2957.09	7569
2958.93	7531
2960.767	7530
2962.606	7382
2964.443	7235
2966.279	7267
2968.116	7136
2969.953	7070
2971.788	6979
2973.623	6911
2975.457	6887
2977.292	6821
2979.127	6753
2980.959	6754
2982.792	6725
2984.624	6630
2986.455	6598
2988.288	6577
2990.119	6597
2991.949	6445
2993.779	6430
2995.608	6564
2997.439	6465
2999.268	6337
3001.096	6373
3002.923	6366
3004.751	6223
3006.578	6207
3008.406	6127
3010.232	6107
3012.057	6090
3013.883	5991
3015.706	6050
3017.532	5992
3019.356	5915
3021.179	5922
3023.002	5937
3024.823	5941
3026.646	6053
3028.469	5963
3030.289	5991
3032.11	5853
3033.93	5901
3035.749	5879
3037.57	5752
3039.39	5788
3041.207	5872
3043.026	5735
3044.842	5865
3046.661	5840
3048.477	5775
3050.294	5775
3052.109	5788
3053.925	5820
3055.739	5740
3057.555	5815
3059.368	5777
3061.181	5741
3062.995	5793
3064.807	5850
3066.62	5694
3068.433	5797
3070.243	5727
3072.054	5807
3073.865	5697
3075.675	5679
3077.485	5785
3079.293	5751
3081.102	5723
3082.911	5739
3084.719	5691
3086.527	5649
3088.333	5747
3090.139	5704
3091.945	5670
3093.75	5699
3095.557	5562
3097.361	5559
3099.165	5720
3100.969	5584
3102.772	5609
3104.575	5529
3106.379	5549
3108.181	5636
3109.982	5563
3111.783	5571
3113.584	5482
3115.386	5519
3117.186	5472
3118.985	5575
3120.783	5542
3122.582	5564
3124.381	5459
3126.179	5488
3127.975	5506
3129.772	5435
3131.569	5600
3133.365	5512
3135.161	5471
3136.956	5467
3138.751	5505
3140.544	5446
3142.338	5392
3144.132	5476
3145.925	5405
3147.717	5398
3149.509	5543
3151.301	5451
3153.091	5411
3154.884	5429
3156.673	5409
3158.462	5334
3160.252	5395
3162.041	5380
3163.831	5400
3165.618	5390
3167.405	5408
3169.193	5484
3170.979	5419
3172.767	5439
3174.553	5341
3176.338	5373
3178.123	5384
3179.907	5419
3181.692	5389
3183.477	5481
3185.259	5445
3187.042	5475
3188.824	5256
3190.607	5330
3192.389	5212
3194.17	5315
3195.951	5288
3197.73	5308
3199.51	5297
3201.289	5288
3203.07	5305
3204.848	5267
3206.626	5287
3208.403	5375
3210.18	5362
3211.959	5318
3213.735	5298
3215.511	5341
3217.285	5350
3219.06	5284
3220.836	5323
3222.611	5305
3224.384	5311
3226.158	5290
3227.929	5416
3229.702	5435
3231.476	5177
3233.248	5273
3235.018	5339
3236.789	5230
3238.56	5197
3240.33	5253
3242.1	5305
3243.869	5250
3245.637	5258
3247.405	5382
3249.172	5393
3250.941	5265
3252.707	5381
3254.474	5279
3256.24	5287
3258.006	5355
3259.772	5348
3261.537	5305
3263.301	5333
3265.065	5302
3266.828	5199
3268.592	5231
3270.355	5286
3272.117	5280
3273.878	5152
3275.64	5110
3277.401	5273
3279.162	5270
3280.922	5348
3282.682	5280
3284.441	5285
3286.199	5284
3287.959	5294
3289.716	5185
3291.475	5225
3293.232	5204
3294.988	5273
3296.744	5196
3298.501	5242
3300.256	5315
3302.011	5245
3303.766	5270
3305.52	5332
3307.275	5206
3309.028	5294
3310.781	5170
3312.533	5184
3314.285	5262
3316.038	5260
3317.789	5293
3319.54	5231
3321.289	5307
3323.039	5242
3324.789	5255
3326.539	5271
3328.288	5149
3330.035	5260
3331.783	5202
3333.531	5104
3335.28	5207
3337.025	5101
3338.771	5225
3340.518	5224
3342.262	5243
3344.009	5188
3345.753	5136
3347.497	5174
3349.24	5158
3350.983	5136
3352.726	5126
3354.469	5056
3356.212	5119
3357.952	5120
3359.694	5052
3361.434	5077
3363.176	5010
3364.916	5205
3366.654	5056
3368.394	5142
3370.132	5028
3371.871	5121
3373.61	5102
3375.346	4968
3377.083	5110
3378.82	5065
3380.556	5105
3382.292	5071
3384.027	5031
3385.763	4983
3387.497	5039
3389.231	5015
3390.965	4986
3392.698	5028
3394.431	4929
3396.164	4909
3397.896	5030
3399.627	4980
3401.36	5001
3403.09	4874
3404.82	4915
3406.55	5039
3408.279	5031
3410.01	4949
3411.738	5042
3413.467	4962
3415.194	4961
3416.92	4936
3418.647	4947
3420.375	4868
3422.102	4929
3423.827	4956
3425.553	4955
3427.277	4957
3429.003	4925
3430.727	4869
3432.451	4910
3434.173	4830
3435.896	4944
3437.62	4873
3439.343	4840
3441.063	4890
3442.785	4878
3444.505	4857
3446.226	4895
3447.948	4918
3449.666	4859
3451.386	4865
3453.104	4809
3454.823	4855
3456.541	4776
3458.259	4767
3459.976	4744
3461.693	4687
3463.408	4805
3465.125	4789
3466.841	4766
3468.556	4760
3470.271	4763
3471.985	4804
3473.698	4803
3475.414	4762
3477.126	4796
3478.838	4687
3480.55	4769
3482.263	4713
3483.975	4697
3485.686	4656
3487.396	4792
3489.106	4697
3490.817	4618
3492.526	4766
3494.236	4628
3495.944	4677
3497.652	4722
3499.359	4607
3501.066	4694
3502.775	4589
3504.481	4526
3506.187	4576
3507.893	4630
3509.598	4662
3511.304	4609
3513.009	4591
3514.713	4437
3516.417	4541
3518.12	4535
3519.821	4594
3521.525	4553
3523.228	4544
3524.929	4607
3526.631	4501
3528.33	4555
3530.032	4505
3531.733	4538
3533.433	4579
3535.131	4403
3536.83	4489
3538.529	4587
3540.227	4539
3541.925	4531
3543.623	4469
3545.319	4423
3547.016	4493
3548.712	4525
3550.408	4560
3552.103	4488
3553.798	4431
3555.491	4483
3557.188	4527
3558.88	4505
3560.574	4521
3562.266	4435
3563.959	4531
3565.651	4378
3567.343	4453
3569.035	4360
3570.725	4416
3572.415	4367
3574.106	4428
3575.797	4382
3577.485	4418
3579.174	4468
3580.863	4378
3582.551	4438
3584.238	4420
3585.926	4384
3587.613	4411
3589.3	4341
3590.986	4392
3592.671	4296
3594.357	4392
3596.042	4283
3597.726	4355
3599.41	4297
3601.094	4248
3602.778	4250
3604.461	4374
3606.143	4346
3607.825	4360
3609.507	4332
3611.188	4295
3612.87	4246
3614.551	4243
3616.229	4246
3617.909	4250
3619.589	4226
3621.269	4262
3622.948	4294
3624.625	4166
3626.302	4260
3627.98	4166
3629.657	4153
3631.334	4243
3633.01	4257
3634.686	4179
3636.361	4209
3638.036	4188
3639.712	4090
3641.385	4202
3643.06	4150
3644.732	4133
3646.405	4238
3648.08	4171
3649.751	4214
3651.424	4094
3653.094	4106
3654.766	4094
3656.436	4148
3658.106	4164
3659.777	4120
3661.446	4159
3663.115	4093
3664.783	4129
3666.452	4056
3668.121	4094
3669.788	4042
3671.454	4201
3673.121	4104
3674.789	4040
3676.455	4040
3678.12	4101
3679.784	4067
3681.45	4078
3683.114	3960
3684.779	4044
3686.442	4053
3688.105	4111
3689.768	4047
3691.43	4091
3693.093	4046
3694.754	4039
3696.415	4003
3698.076	4103
3699.736	3988
3701.396	4094
3703.057	4019
3704.716	4005
3706.375	4018
3708.034	4047
3709.692	4028
3711.351	4108
3713.008	4056
3714.665	4006
3716.321	4027
3717.977	4000
3719.634	3984
3721.29	3971
3722.945	3937
3724.598	3931
3726.253	3955
3727.907	4001
3729.561	4010
3731.214	3953
3732.867	3937
3734.518	4074
3736.171	3892
3737.824	3988
3739.474	3930
3741.125	3923
3742.775	3950
3744.425	4015
3746.074	4026
3747.725	3977
3749.373	3892
3751.022	3931
3752.669	3793
3754.318	3972
3755.966	3859
3757.612	3827
3759.259	3906
3760.905	3912
3762.55	3863
3764.197	3909
3765.842	3882
3767.486	3888
3769.131	3893
3770.774	3901
3772.417	3871
3774.061	3843
3775.705	3819
3777.347	3871
3778.988	3837
3780.629	3904
3782.271	3776
3783.912	3872
3785.552	3820
3787.192	3822
3788.831	3842
3790.472	3824
3792.112	3769
3793.75	3894
3795.388	3835
3797.024	3817
3798.661	3794
3800.3	3741
3801.936	3859
3803.572	3820
3805.208	3847
3806.844	3761
3808.48	3818
3810.115	3883
3811.748	3795
3813.382	3805
3815.016	3754
3816.649	3711
3818.283	3778
3819.914	3730
3821.547	3762
3823.178	3746
3824.809	3691
3826.441	3723
3828.072	3728
3829.701	3755
3831.331	3742
3832.96	3667
3834.591	3716
3836.219	3706
3837.847	3695
3839.475	3695
3841.102	3629
3842.729	3706
3844.357	3682
3845.984	3658
3847.609	3724
3849.234	3645
3850.86	3715
3852.485	3703
3854.11	3602
3855.734	3635
3857.357	3602
3858.981	3650
3860.603	3682
3862.227	3623
3863.848	3635
3865.471	3722
3867.092	3593
3868.713	3610
3870.334	3628
3871.954	3626
3873.575	3595
3875.194	3593
3876.813	3650
3878.433	3531
3880.051	3616
3881.669	3729
3883.286	3662
3884.904	3622
3886.52	3625
3888.138	3651
3889.754	3572
3891.37	3670
3892.985	3590
3894.6	3617
3896.216	3547
3897.831	3531
3899.444	3605
3901.058	3592
3902.67	3587
3904.283	3585
3905.897	3494
3907.509	3535
3909.121	3621
3910.731	3548
3912.342	3512
3913.954	3635
3915.563	3585
3917.174	3572
3918.783	3628
3920.391	3559
3922.002	3505
3923.611	3531
3925.218	3513
3926.826	3584
3928.432	3562
3930.039	3536
3931.647	3521
3933.253	3528
3934.859	3480
3936.464	3548
3938.068	3426
3939.675	3539
3941.278	3432
3942.883	3536
3944.486	3440
3946.089	3540
3947.692	3531
3949.295	3501
3950.898	3536
3952.499	3486
3954.1	3526
3955.7	3566
3957.303	3511
3958.903	3494
3960.502	3458
3962.101	3481
3963.7	3530
3965.301	3376
3966.899	3499
3968.497	3471
3970.094	3447
3971.691	3327
3973.288	3393
3974.885	3479
3976.481	3428
3978.077	3398
3979.672	3338
3981.267	3535
3982.863	3407
3984.457	3392
3986.051	3344
3987.645	3400
3989.238	3419
3990.831	3459
3992.425	3344
3994.017	3408
3995.607	3411
3997.199	3363
3998.79	3411
4000.382	3462
4001.973	3345
4003.561	3376
4005.151	3393
4006.741	3322
4008.331	3375
4009.918	3368
4011.507	3347
4013.095	3327
4014.681	3311
4016.269	3361
4017.856	3230
4019.443	3325
4021.028	3339
4022.614	3266
4024.199	3301
4025.785	3327
4027.37	3257
4028.953	3231
4030.536	3225
4032.12	3240
4033.704	3238
4035.287	3171
4036.869	3235
4038.45	3255
4040.032	3222
4041.613	3271
4043.195	3294
4044.776	3256
4046.356	3221
4047.935	3221
4049.515	3223
4051.095	3252
4052.674	3112
4054.251	3219
4055.829	3201
4057.406	3154
4058.985	3284
4060.562	3181
4062.139	3270
4063.715	3234
4065.29	3230
4066.865	3214
4068.442	3209
4070.016	3198
4071.59	3171
4073.164	3178
4074.738	3164
4076.312	3145
4077.885	3219
4079.458	3136
4081.03	3145
4082.602	3194
4084.173	3203
4085.745	3166
4087.315	3128
4088.886	3100
4090.456	3145
4092.026	3147
4093.596	3073
4095.165	3106
4096.734	3150
4098.301	3139
4099.869	3128
4101.437	3131
4103.006	3158
4104.572	3101
4106.139	3182
4107.704	3144
4109.27	3077
4110.837	3095
4112.401	3139
4113.966	3134
4115.53	3063
4117.094	3117
4118.659	3125
4120.223	3087
4121.785	3040
4123.347	3042
4124.909	3071
4126.471	3043
4128.034	3056
4129.595	3137
4131.155	3139
4132.716	3043
4134.275	2991
4135.836	2998
4137.395	3110
4138.955	3039
4140.513	3003
4142.071	2976
4143.628	3059
4145.188	3008
4146.745	3029
4148.302	2997
4149.858	3007
4151.414	3067
4152.971	3017
4154.526	3008
4156.081	2889
4157.635	2981
4159.189	3003
4160.745	2974
4162.298	2963
4163.852	3026
4165.405	2997
4166.957	2993
4168.51	2968
4170.063	2967
4171.614	2944
4173.166	2910
4174.717	3061
4176.267	2927
4177.817	2949
4179.368	2899
4180.917	2888
4182.466	2957
4184.016	2902
4185.564	2884
4187.112	2910
4188.66	2914
4190.207	2859
4191.754	2871
4193.301	2855
4194.848	2971
4196.394	2934
4197.94	2876
4199.484	2865
4201.03	2959
4202.575	2913
4204.12	2873
4205.663	2880
4207.207	2837
4208.75	2891
4210.292	2875
4211.836	2855
4213.378	2922
4214.92	2880
4216.46	2899
4218.002	2849
4219.544	2910
4221.083	2842
4222.625	2896
4224.164	2866
4225.703	2900
4227.244	2839
4228.782	2823
4230.32	2881
4231.857	2872
4233.395	2814
4234.933	2831
4236.471	2823
4238.007	2867
4239.542	2830
4241.078	2876
4242.614	2818
4244.15	2889
4245.685	2805
4247.219	2832
4248.753	2802
4250.287	2780
4251.82	2759
4253.354	2774
4254.887	2807
4256.419	2785
4257.951	2740
4259.483	2764
4261.016	2751
4262.547	2773
4264.078	2779
4265.608	2783
4267.137	2773
4268.668	2745
4270.197	2792
4271.727	2820
4273.254	2751
4274.783	2724
4276.311	2774
4277.84	2747
4279.366	2760
4280.894	2762
4282.42	2735
4283.946	2773
4285.473	2728
4286.998	2719
4288.523	2748
4290.047	2778
4291.572	2711
4293.096	2744
4294.622	2746
4296.144	2742
4297.668	2720
4299.19	2792
4300.713	2772
4302.236	2707
4303.758	2723
4305.279	2758
4306.799	2707
4308.321	2656
4309.842	2689
4311.361	2714
4312.882	2663
4314.401	2665
