400.0961	3993
402.6185	4060
405.1424	4104
407.6635	3999
410.1838	4035
412.7035	4050
415.2225	4060
417.7388	4058
420.2585	4061
422.7754	4174
425.2917	4128
427.8072	4169
430.3221	4169
432.8363	4286
435.3498	4340
437.8626	4197
440.3727	4185
442.8841	4251
445.3969	4275
447.907	4238
450.4142	4234
452.9229	4206
455.4289	4342
457.9362	4311
460.4449	4219
462.9488	4259
465.454	4172
467.9566	4240
470.4604	4236
472.9637	4218
475.4662	4222
477.966	4261
480.4671	4209
482.9656	4311
485.4633	4283
487.9645	4364
490.4608	4346
492.9566	4304
495.4536	4389
497.948	4313
500.4437	4427
502.9387	4451
505.431	4481
507.9226	4362
510.4136	4443
512.9079	4426
515.3975	4340
517.8864	4423
520.3746	4359
522.8622	4479
525.3491	4392
527.8394	4500
530.3249	4536
532.8098	4299
535.2939	4419
537.7774	4494
540.2623	4526
542.7444	4442
545.2259	4466
547.7067	4528
550.1868	4482
552.6683	4456
555.147	4462
557.6231	4490
560.1005	4451
562.5773	4395
565.0534	4511
567.5308	4512
570.0056	4538
572.4776	4559
574.951	4598
577.4237	4543
579.8978	4661
582.3671	4578
584.8378	4579
587.3079	4602
589.7773	4681
592.244	4575
594.714	4607
597.1793	4526
599.6461	4558
602.1121	4441
604.5754	4560
607.0421	4523
609.5042	4585
611.9675	4606
614.4282	4593
616.8902	4596
619.3515	4625
621.8122	4558
624.2702	4599
626.7296	4574
629.1863	4567
631.6423	4544
634.1017	4566
636.5563	4585
639.0104	4567
641.4658	4590
643.9185	4618
646.3725	4682
648.8239	4656
651.2766	4641
653.7266	4770
656.176	4568
658.6247	4676
661.0748	4639
663.5242	4709
665.9709	4753
668.417	4663
670.8624	4694
673.3092	4791
675.7533	4732
678.1968	4756
680.6395	4760
683.0817	4638
685.5251	4770
687.9659	4643
690.4061	4852
692.8456	4856
695.2844	4874
697.7226	4780
700.1621	4794
702.599	4761
705.0332	4775
707.4688	4826
709.9036	4868
712.3399	4821
714.7735	4844
717.2044	4799
719.6367	4902
722.0683	4904
724.4993	4909
726.9296	4877
729.3593	4834
731.7883	4904
734.2147	4937
736.6423	4920
739.0714	4962
741.4958	4944
743.9216	4976
746.3447	4904
748.7691	5002
751.1929	5044
753.616	4976
756.0366	5050
758.4584	5041
760.8776	5042
763.2982	5034
765.718	4994
768.1373	5003
770.5539	5138
772.9698	5150
775.3871	5127
777.8038	5138
780.2178	5101
782.6332	5030
785.0459	5175
787.458	5141
789.8714	5081
792.2842	5073
794.6943	5096
797.1038	5179
799.5127	5083
801.9209	5134
804.3324	5060
806.7393	5111
809.1456	5112
811.5513	5156
813.9562	5079
816.3625	5172
818.7663	5138
821.1693	5164
823.5718	5144
825.9735	5203
828.3746	5209
830.7771	5178
833.177	5176
835.5762	5135
837.9747	5177
840.3727	5228
842.772	5274
845.1666	5221
847.5626	5340
849.958	5332
852.3527	5335
854.7488	5321
857.1403	5273
859.5331	5392
861.9253	5434
864.3168	5299
866.7057	5259
869.098	5325
871.4876	5342
873.8746	5307
876.263	5319
878.6487	5275
881.0378	5282
883.4243	5337
885.8081	5257
888.1933	5311
890.5759	5240
892.9598	5246
895.343	5316
897.7256	5291
900.1057	5236
902.4871	5361
904.8659	5371
907.246	5293
909.6254	5449
912.0023	5489
914.3786	5432
916.7562	5572
919.1331	5710
921.5074	5663
923.8831	5700
926.2562	5796
928.6287	5689
931.0005	5628
933.3757	5575
935.7462	5657
938.1162	5610
940.4855	5571
942.8542	5516
945.2242	5635
947.5916	5626
949.9584	5606
952.3266	5705
954.6921	5792
957.0571	5817
959.4233	5875
961.787	6012
964.15	5899
966.5125	5935
968.8742	5826
971.2354	5783
973.5959	5706
975.9559	5726
978.3151	5602
980.6738	5527
983.0338	5555
985.3912	5664
987.7461	5479
990.1022	5516
992.4578	5415
994.8127	5427
997.1689	5380
999.5207	5520
1001.874	5467
1004.226	5479
1006.576	5528
1008.929	5488
1011.28	5442
1013.628	5468
1015.977	5452
1018.324	5468
1020.674	5463
1023.019	5492
1025.366	5548
1027.713	5473
1030.056	5551
1032.399	5481
1034.746	5558
1037.087	5602
1039.431	5601
1041.771	5482
1044.113	5549
1046.454	5644
1048.793	5429
1051.133	5550
1053.471	5543
1055.807	5509
1058.146	5576
1060.483	5488
1062.818	5653
1065.153	5589
1067.489	5589
1069.822	5453
1072.156	5617
1074.488	5593
1076.82	5613
1079.15	5602
1081.48	5590
1083.814	5557
1086.143	5586
1088.471	5604
1090.799	5669
1093.126	5530
1095.452	5612
1097.78	5591
1100.105	5538
1102.43	5638
1104.754	5584
1107.077	5593
1109.4	5618
1111.722	5649
1114.044	5754
1116.365	5655
1118.685	5656
1121.005	5702
1123.324	5792
1125.643	5717
1127.961	5717
1130.278	5759
1132.595	5799
1134.911	5701
1137.226	5657
1139.541	5641
1141.854	5689
1144.167	5706
1146.482	5636
1148.793	5695
1151.105	5610
1153.414	5787
1155.725	5615
1158.033	5674
1160.344	5790
1162.651	5621
1164.959	5631
1167.265	5630
1169.572	5702
1171.878	5675
1174.184	5710
1176.488	5753
1178.79	5718
1181.094	5827
1183.396	5751
1185.699	5751
1188.001	5667
1190.301	5749
1192.6	5732
1194.9	5586
1197.2	5708
1199.497	5758
1201.794	5659
1204.09	5683
1206.387	5856
1208.684	5650
1210.978	5575
1213.272	5770
1215.565	5751
1217.858	5638
1220.15	5677
1222.443	5729
1224.734	5803
1227.024	5703
1229.313	5793
1231.602	5780
1233.892	5835
1236.18	5851
1238.467	5773
1240.754	5921
1243.04	5942
1245.325	5874
1247.612	5979
1249.896	5955
1252.178	5837
1254.461	5974
1256.743	5986
1259.027	5938
1261.308	6096
1263.587	5868
1265.867	6027
1268.146	5951
1270.425	6116
1272.703	6108
1274.981	6047
1277.256	6002
1279.532	5936
1281.808	5998
1284.083	5902
1286.358	5934
1288.63	5941
1290.904	5968
1293.175	5926
1295.449	5824
1297.719	5875
1299.99	5811
1302.259	5927
1304.529	5892
1306.798	5961
1309.065	5964
1311.333	5897
1313.599	5796
1315.866	6001
1318.131	5910
1320.396	5887
1322.66	5840
1324.925	5854
1327.187	5908
1329.448	6017
1331.711	5939
1333.974	6020
1336.234	5915
1338.493	6039
1340.752	5942
1343.01	5872
1345.269	5950
1347.526	5887
1349.784	5898
1352.04	5915
1354.295	5890
1356.552	5916
1358.806	5884
1361.059	5796
1363.312	5862
1365.564	5819
1367.818	6018
1370.069	5982
1372.318	5889
1374.568	5874
1376.817	6063
1379.066	5882
1381.316	5904
1383.564	6026
1385.809	6015
1388.056	6075
1390.301	5986
1392.549	6071
1394.793	6285
1397.036	6215
1399.279	6343
1401.522	6382
1403.763	6354
1406.007	6412
1408.248	6307
1410.487	6244
1412.727	6261
1414.965	6133
1417.205	6209
1419.442	6304
1421.68	6141
1423.915	6190
1426.152	6141
1428.388	6184
1430.623	6203
1432.857	6293
1435.091	6097
1437.323	6198
1439.556	6324
1441.789	6332
1444.019	6213
1446.25	6360
1448.48	6191
1450.708	6215
1452.938	6311
1455.167	6345
1457.394	6472
1459.62	6475
1461.846	6404
1464.073	6369
1466.299	6354
1468.523	6224
1470.746	6162
1472.969	6145
1475.191	6147
1477.415	6092
1479.636	5993
1481.858	6016
1484.078	5953
1486.298	5906
1488.518	5833
1490.736	5716
1492.954	5798
1495.169	5759
1497.386	5918
1499.602	5863
1501.819	5903
1504.034	5791
1506.248	5859
1508.462	5842
1510.675	5820
1512.888	5841
1515.1	5881
1517.311	5783
1519.522	5767
1521.732	5816
1523.942	5877
1526.151	5869
1528.36	5913
1530.566	5921
1532.773	5875
1534.98	5876
1537.187	5911
1539.392	5895
1541.596	5880
1543.801	5961
1546.005	5910
1548.208	5983
1550.411	5829
1552.612	5939
1554.814	6026
1557.013	5879
1559.212	6023
1561.414	5930
1563.612	5953
1565.811	5987
1568.007	5905
1570.203	6082
1572.403	5964
1574.598	5973
1576.792	6116
1578.988	6012
1581.181	6174
1583.376	6092
1585.568	6070
1587.761	6050
1589.952	6017
1592.143	6192
1594.333	5998
1596.524	6090
1598.715	6174
1600.903	6066
1603.091	6106
1605.278	6100
1607.466	6123
1609.652	6134
1611.838	6077
1614.023	6125
1616.207	6228
1618.391	6103
1620.576	6149
1622.759	6160
1624.941	6107
1627.123	6130
1629.304	6201
1631.484	6170
1633.664	6223
1635.844	6266
1638.022	6166
1640.201	6208
1642.38	6100
1644.556	6246
1646.732	6140
1648.908	6111
1651.084	6341
1653.257	6134
1655.433	6138
1657.607	6159
1659.779	6314
1661.951	6203
1664.122	6227
1666.295	6293
1668.467	6187
1670.635	6308
1672.805	6249
1674.973	6181
1677.142	6342
1679.31	6276
1681.478	6201
1683.644	6199
1685.81	6146
1687.975	6247
1690.142	6210
1692.305	6206
1694.468	6188
1696.632	6011
1698.794	6126
1700.957	6108
1703.119	6234
1705.279	6004
1707.439	6107
1709.598	6087
1711.758	5959
1713.917	5985
1716.075	6052
1718.231	5999
1720.388	5989
1722.543	6102
1724.702	6050
1726.856	6034
1729.01	6074
1731.164	6086
1733.317	6128
1735.471	6124
1737.623	6070
1739.774	6058
1741.925	6073
1744.075	6023
1746.225	6132
1748.376	6127
1750.524	6063
1752.672	5991
1754.82	5955
1756.965	6142
1759.113	6176
1761.259	6044
1763.405	6153
1765.549	6061
1767.694	6006
1769.836	6069
1771.981	6063
1774.123	6059
1776.264	6123
1778.405	6123
1780.546	6029
1782.687	6055
1784.827	6062
1786.966	6122
1789.103	6044
1791.242	6058
1793.381	6080
1795.517	6161
1797.653	6188
1799.788	6147
1801.923	6107
1804.057	6171
1806.193	6040
1808.326	6104
1810.457	6158
1812.59	6152
1814.721	6150
1816.855	6101
1818.984	6043
1821.113	6080
1823.244	6085
1825.372	5985
1827.499	6104
1829.63	6099
1831.756	6117
1833.882	6052
1836.007	6037
1838.132	6038
1840.26	5983
1842.384	5971
1844.507	6175
1846.63	6073
1848.752	6120
1850.875	6010
1852.996	6126
1855.118	6028
1857.238	6033
1859.358	6097
1861.477	6018
1863.597	6071
1865.715	5958
1867.832	6043
1869.948	6183
1872.064	6043
1874.181	6052
1876.297	5920
1878.411	6009
1880.526	6035
1882.639	5995
1884.752	6143
1886.865	6027
1888.977	6016
1891.089	6063
1893.2	6143
1895.308	6013
1897.42	6105
1899.53	6144
1901.639	6177
1903.745	6039
1905.853	6197
1907.962	6083
1910.067	6111
1912.174	6178
1914.278	6106
1916.383	6054
1918.486	6076
1920.592	6035
1922.694	6202
1924.797	6063
1926.898	6101
1929	6182
1931.102	6203
1933.203	6210
1935.301	6122
1937.401	6175
1939.499	6179
1941.598	6092
1943.697	6194
1945.793	6116
1947.888	6086
1949.985	6208
1952.08	6095
1954.176	6129
1956.269	6174
1958.364	6099
1960.457	6185
1962.549	6115
1964.642	6118
1966.733	6058
1968.823	6065
1970.913	6101
1973.005	6087
1975.093	6117
1977.184	6042
1979.271	6176
1981.359	6091
1983.446	6059
1985.532	6070
1987.619	6126
1989.705	6102
1991.789	6090
1993.874	6051
1995.956	6118
1998.041	6122
2000.123	6038
2002.206	6081
2004.287	6140
2006.368	6074
2008.449	6072
2010.529	6054
2012.609	6175
2014.688	6098
2016.766	6140
2018.843	6086
2020.922	6084
2022.999	6128
2025.074	6109
2027.15	6074
2029.225	6045
2031.299	6080
2033.375	6196
2035.447	6130
2037.52	6062
2039.592	6026
2041.664	6020
2043.736	6060
2045.807	6188
2047.876	6020
2049.947	6119
2052.015	6110
2054.086	5999
2056.153	6023
2058.221	6052
2060.288	6145
2062.353	5944
2064.42	6087
2066.486	6135
2068.55	6056
2070.614	6072
2072.678	6020
2074.741	6121
2076.805	6128
2078.866	6071
2080.929	6081
2082.99	6004
2085.049	6061
2087.109	6000
2089.17	6116
2091.228	6091
2093.286	6081
2095.344	5999
2097.4	6010
2099.46	5962
2101.516	5996
2103.572	6118
2105.626	6021
2107.679	5971
2109.735	6055
2111.788	6017
2113.841	6098
2115.894	6177
2117.945	6104
2119.997	6050
2122.049	5969
2124.1	6193
2126.148	6008
2128.197	6069
2130.246	6049
2132.296	5968
2134.342	6023
2136.39	6043
2138.437	6066
2140.483	6145
2142.527	6045
2144.574	5959
2146.619	6092
2148.661	5990
2150.705	6039
2152.747	5996
2154.792	6058
2156.832	5962
2158.874	6062
2160.915	6017
2162.954	6005
2164.995	6060
2167.034	5988
2169.072	6031
2171.111	6016
2173.148	6005
2175.186	5916
2177.223	6014
2179.258	5976
2181.294	5938
2183.328	5957
2185.362	5964
2187.398	5887
2189.431	5885
2191.463	5916
2193.495	5998
2195.528	5968
2197.56	5941
2199.59	5861
2201.62	5856
2203.649	5939
2205.678	5900
2207.708	5913
2209.737	5921
2211.764	5915
2213.791	5946
2215.817	5894
2217.843	5877
2219.87	5837
2221.895	5858
2223.919	5864
2225.942	5843
2227.966	5904
2229.988	5979
2232.012	5773
2234.032	6065
2236.054	5827
2238.074	5817
2240.095	5806
2242.116	5876
2244.135	5918
2246.153	5838
2248.171	5947
2250.188	5858
2252.208	5873
2254.223	5909
2256.239	5933
2258.255	5966
2260.269	5856
2262.283	5954
2264.3	5795
2266.312	5976
2268.325	5866
2270.336	5886
2272.349	5944
2274.362	5811
2276.372	5853
2278.383	5913
2280.392	5877
2282.402	5903
2284.409	5907
2286.418	6025
2288.427	5934
2290.433	5811
2292.441	5939
2294.446	5899
2296.453	5911
2298.459	5845
2300.463	5805
2302.466	5765
2304.471	5786
2306.475	5865
2308.477	5853
2310.478	5842
2312.481	5865
2314.481	5764
2316.481	5867
2318.482	5794
2320.482	5928
2322.48	5795
2324.48	5874
2326.478	5688
2328.476	5868
2330.473	5822
2332.469	5781
2334.465	5773
2336.46	5745
2338.454	5766
2340.45	5801
2342.444	5734
2344.437	5777
2346.43	5800
2348.421	5755
2350.414	5834
2352.405	5636
2354.396	5793
2356.386	5607
2358.376	5713
2360.366	5773
2362.355	5782
2364.343	5804
2366.331	5745
2368.317	5758
2370.304	5749
2372.292	5707
2374.278	5693
2376.262	5737
2378.247	5801
2380.23	5677
2382.216	5756
2384.199	5792
2386.181	5669
2388.163	5618
2390.144	5752
2392.127	5724
2394.107	5759
2396.087	5749
2398.066	5724
2400.046	5693
2402.023	5648
2404.004	5683
2405.981	5680
2407.957	5604
2409.934	5681
2411.91	5630
2413.886	5718
2415.862	5661
2417.836	5640
2419.809	5703
2421.784	5652
2423.756	5617
2425.73	5552
2427.701	5680
2429.672	5658
2431.644	5686
2433.615	5672
2435.586	5649
2437.555	5678
2439.523	5651
2441.491	5657
2443.459	5653
2445.428	5585
2447.395	5627
2449.361	5681
2451.327	5619
2453.292	5480
2455.257	5748
2457.223	5588
2459.187	5562
2461.15	5551
2463.113	5687
2465.076	5583
2467.039	5551
2468.999	5571
2470.96	5573
2472.921	5597
2474.881	5567
2476.841	5543
2478.8	5577
2480.759	5603
2482.717	5504
2484.675	5611
2486.63	5518
2488.589	5516
2490.545	5544
2492.5	5552
2494.455	5498
2496.408	5560
2498.364	5622
2500.318	5434
2502.27	5564
2504.223	5526
2506.174	5532
2508.126	5571
2510.078	5518
2512.03	5492
2513.979	5457
2515.927	5487
2517.877	5568
2519.826	5413
2521.775	5558
2523.722	5564
2525.668	5494
2527.616	5507
2529.561	5418
2531.508	5529
2533.452	5657
2535.398	5639
2537.342	5423
2539.284	5467
2541.229	5539
2543.173	5534
2545.114	5560
2547.055	5537
2548.996	5513
2550.938	5491
2552.878	5486
2554.817	5548
2556.756	5523
2558.695	5488
2560.633	5583
2562.572	5447
2564.509	5548
2566.445	5550
2568.382	5530
2570.317	5456
2572.254	5473
2574.189	5519
2576.123	5543
2578.057	5598
2579.99	5454
2581.923	5546
2583.855	5393
2585.788	5619
2587.719	5516
2589.65	5395
2591.579	5601
2593.511	5485
2595.44	5473
2597.37	5512
2599.297	5553
2601.225	5577
2603.153	5529
2605.08	5691
2607.007	5464
2608.932	5447
2610.858	5562
2612.782	5523
2614.709	5488
2616.632	5437
2618.556	5431
2620.478	5461
2622.401	5518
2624.324	5512
2626.247	5479
2628.167	5525
2630.088	5460
2632.008	5555
2633.928	5481
2635.848	5519
2637.766	5543
2639.684	5497
2641.603	5462
2643.519	5488
2645.437	5480
2647.353	5619
2649.27	5384
2651.184	5586
2653.099	5548
2655.014	5524
2656.928	5437
2658.842	5566
2660.755	5521
2662.667	5521
2664.579	5400
2666.491	5525
2668.402	5399
2670.312	5493
2672.222	5522
2674.132	5413
2676.042	5500
2677.951	5426
2679.859	5539
2681.766	5412
2683.674	5482
2685.582	5533
2687.488	5439
2689.392	5468
2691.298	5553
2693.202	5374
2695.107	5396
2697.012	5472
2698.914	5397
2700.817	5377
2702.72	5503
2704.622	5429
2706.524	5401
2708.425	5410
2710.326	5416
2712.225	5419
2714.125	5472
2716.024	5389
2717.923	5401
2719.822	5390
2721.719	5305
2723.616	5395
2725.512	5471
2727.41	5404
2729.305	5371
2731.201	5314
2733.095	5375
2734.99	5349
2736.884	5442
2738.778	5391
2740.67	5312
2742.562	5394
2744.455	5370
2746.346	5433
2748.238	5357
2750.129	5363
2752.018	5374
2753.907	5344
2755.797	5388
2757.687	5376
2759.575	5319
2761.462	5402
2763.349	5317
2765.237	5301
2767.124	5392
2769.009	5390
2770.894	5301
2772.779	5437
2774.663	5275
2776.547	5366
2778.431	5281
2780.314	5352
2782.197	5385
2784.078	5367
2785.96	5356
2787.842	5307
2789.723	5327
2791.603	5420
2793.483	5277
2795.362	5264
2797.241	5320
2799.121	5323
2800.997	5228
2802.874	5403
2804.751	5279
2806.628	5300
2808.506	5300
2810.38	5284
2812.255	5328
2814.13	5349
2816.003	5331
2817.878	5253
2819.752	5301
2821.623	5364
2823.496	5280
2825.368	5427
2827.238	5372
2829.111	5293
2830.98	5308
2832.851	5292
2834.719	5335
2836.589	5357
2838.458	5393
2840.327	5337
2842.193	5360
2844.061	5307
2845.927	5348
2847.794	5413
2849.66	5487
2851.525	5453
2853.39	5469
2855.254	5460
2857.117	5519
2858.983	5544
2860.845	5612
2862.707	5542
2864.569	5627
2866.431	5593
2868.293	5684
2870.154	5627
2872.013	5701
2873.873	5742
2875.733	5822
2877.592	5901
2879.451	5860
2881.309	5884
2883.166	5925
2885.022	5990
2886.879	6100
2888.736	6074
2890.591	6112
2892.446	6162
2894.301	6261
2896.155	6113
2898.009	6171
2899.863	6063
2901.716	6075
2903.568	6238
2905.419	6084
2907.27	6071
2909.123	6004
2910.973	6078
2912.824	6151
2914.673	6178
2916.521	6169
2918.372	6297
2920.22	6366
2922.067	6325
2923.914	6352
2925.761	6358
2927.607	6414
2929.455	6268
2931.301	6446
2933.144	6516
2934.99	6453
2936.833	6598
2938.678	6646
2940.522	6695
2942.364	6681
2944.207	6866
2946.048	6852
2947.891	7001
2949.731	7211
2951.571	7150
2953.412	7204
2955.25	7085
2957.09	7045
2958.93	7036
2960.767	6936
2962.606	7025
2964.443	6895
2966.279	6824
2968.116	6592
2969.953	6547
2971.788	6439
2973.623	6301
2975.457	6293
2977.292	6224
2979.127	6161
2980.959	5989
2982.792	5886
2984.624	6066
2986.455	5821
2988.288	5997
2990.119	5733
2991.949	5758
2993.779	5757
2995.608	5621
2997.439	5548
2999.268	5628
3001.096	5579
3002.923	5501
3004.751	5561
3006.578	5438
3008.406	5350
3010.232	5437
3012.057	5333
3013.883	5211
3015.706	5247
3017.532	5273
3019.356	5281
3021.179	5228
3023.002	5251
3024.823	5112
3026.646	5104
3028.469	5172
3030.289	5167
3032.11	4997
3033.93	5110
3035.749	5064
3037.57	5131
3039.39	5117
3041.207	5104
3043.026	5005
3044.842	5100
3046.661	5146
3048.477	5024
3050.294	5077
3052.109	4963
3053.925	5016
3055.739	4995
3057.555	5047
3059.368	4987
3061.181	5046
3062.995	5028
3064.807	5016
3066.62	4969
3068.433	5045
3070.243	5065
3072.054	5146
3073.865	4994
3075.675	4967
3077.485	4970
3079.293	4912
3081.102	4986
3082.911	4993
3084.719	4889
3086.527	5017
3088.333	4971
3090.139	4985
3091.945	4910
3093.75	4976
3095.557	4821
3097.361	4908
3099.165	4921
3100.969	4932
3102.772	4784
3104.575	4834
3106.379	4759
3108.181	4801
3109.982	4812
3111.783	4782
3113.584	4832
3115.386	4813
3117.186	4844
3118.985	4864
3120.783	4866
3122.582	4816
3124.381	4740
3126.179	4804
3127.975	4788
3129.772	4802
3131.569	4762
3133.365	4743
3135.161	4818
3136.956	4759
3138.751	4706
3140.544	4708
3142.338	4682
3144.132	4670
3145.925	4707
3147.717	4760
3149.509	4811
3151.301	4755
3153.091	4736
3154.884	4794
3156.673	4665
3158.462	4747
3160.252	4766
3162.041	4683
3163.831	4654
3165.618	4684
3167.405	4588
3169.193	4727
3170.979	4731
3172.767	4678
3174.553	4710
3176.338	4656
3178.123	4721
3179.907	4637
3181.692	4678
3183.477	4668
3185.259	4680
3187.042	4743
3188.824	4676
3190.607	4719
3192.389	4788
3194.17	4659
3195.951	4760
3197.73	4586
3199.51	4710
3201.289	4646
3203.07	4701
3204.848	4636
3206.626	4563
3208.403	4707
3210.18	4685
3211.959	4635
3213.735	4668
3215.511	4629
3217.285	4627
3219.06	4611
3220.836	4637
3222.611	4627
3224.384	4611
3226.158	4675
3227.929	4736
3229.702	4622
3231.476	4590
3233.248	4705
3235.018	4748
3236.789	4636
3238.56	4603
3240.33	4608
3242.1	4722
3243.869	4684
3245.637	4577
3247.405	4629
3249.172	4595
3250.941	4539
3252.707	4574
3254.474	4695
3256.24	4561
3258.006	4501
3259.772	4617
3261.537	4566
3263.301	4652
3265.065	4653
3266.828	4595
3268.592	4602
3270.355	4605
3272.117	4600
3273.878	4550
3275.64	4484
3277.401	4497
3279.162	4637
3280.922	4563
3282.682	4560
3284.441	4571
3286.199	4587
3287.959	4613
3289.716	4575
3291.475	4691
3293.232	4672
3294.988	4610
3296.744	4549
3298.501	4634
3300.256	4641
3302.011	4526
3303.766	4597
3305.52	4653
3307.275	4640
3309.028	4618
3310.781	4550
3312.533	4517
3314.285	4558
3316.038	4644
3317.789	4545
3319.54	4649
3321.289	4560
3323.039	4582
3324.789	4603
3326.539	4545
3328.288	4609
3330.035	4556
3331.783	4575
3333.531	4596
3335.28	4492
3337.025	4461
3338.771	4547
3340.518	4509
3342.262	4549
3344.009	4574
3345.753	4500
3347.497	4593
3349.24	4556
3350.983	4507
3352.726	4530
3354.469	4555
3356.212	4428
3357.952	4525
3359.694	4434
3361.434	4432
3363.176	4461
3364.916	4569
3366.654	4485
3368.394	4396
3370.132	4423
3371.871	4474
3373.61	4466
3375.346	4399
3377.083	4416
3378.82	4432
3380.556	4506
3382.292	4447
3384.027	4373
3385.763	4418
3387.497	4372
3389.231	4388
3390.965	4385
3392.698	4391
3394.431	4383
3396.164	4377
3397.896	4380
3399.627	4313
3401.36	4346
3403.09	4368
3404.82	4263
3406.55	4348
3408.279	4312
3410.01	4259
3411.738	4246
3413.467	4250
3415.194	4308
3416.92	4279
3418.647	4300
3420.375	4347
3422.102	4395
3423.827	4307
3425.553	4257
3427.277	4245
3429.003	4270
3430.727	4282
3432.451	4283
3434.173	4272
3435.896	4266
3437.62	4230
3439.343	4267
3441.063	4260
3442.785	4223
3444.505	4182
3446.226	4188
3447.948	4182
3449.666	4188
3451.386	4209
3453.104	4201
3454.823	4181
3456.541	4293
3458.259	4146
3459.976	4242
3461.693	4104
3463.408	4186
3465.125	4173
3466.841	4212
3468.556	4206
3470.271	4098
3471.985	4146
3473.698	4082
3475.414	4215
3477.126	4069
3478.838	4092
3480.55	4150
3482.263	4165
3483.975	4096
3485.686	4198
3487.396	4039
3489.106	4177
3490.817	4115
3492.526	4077
3494.236	4033
3495.944	4056
3497.652	3972
3499.359	3981
3501.066	4082
3502.775	4022
3504.481	3995
3506.187	3998
3507.893	4091
3509.598	4012
3511.304	3949
3513.009	3967
3514.713	3948
3516.417	3985
3518.12	4066
3519.821	3988
3521.525	4021
3523.228	3992
3524.929	3991
3526.631	3924
3528.33	3921
3530.032	3930
3531.733	3917
3533.433	3908
3535.131	3893
3536.83	3934
3538.529	3905
3540.227	3951
3541.925	3914
3543.623	3937
3545.319	3934
3547.016	3805
3548.712	3860
3550.408	3839
3552.103	3971
3553.798	3844
3555.491	3911
3557.188	3807
3558.88	3841
3560.574	3850
3562.266	3905
3563.959	3853
3565.651	3914
3567.343	3778
3569.035	3779
3570.725	3841
3572.415	3884
3574.106	3936
3575.797	3850
3577.485	3873
3579.174	3837
3580.863	3898
3582.551	3846
3584.238	3852
3585.926	3804
3587.613	3718
3589.3	3828
3590.986	3797
3592.671	3757
3594.357	3780
3596.042	3714
3597.726	3789
3599.41	3847
3601.094	3748
3602.778	3688
3604.461	3731
3606.143	3694
3607.825	3760
3609.507	3692
3611.188	3739
3612.87	3694
3614.551	3745
3616.229	3703
3617.909	3708
3619.589	3610
3621.269	3668
3622.948	3721
3624.625	3689
3626.302	3719
3627.98	3689
3629.657	3646
3631.334	3636
3633.01	3602
3634.686	3658
3636.361	3648
3638.036	3657
3639.712	3647
3641.385	3576
3643.06	3575
3644.732	3609
3646.405	3660
3648.08	3612
3649.751	3570
3651.424	3661
3653.094	3607
3654.766	3619
3656.436	3569
3658.106	3593
3659.777	3546
3661.446	3552
3663.115	3569
3664.783	3446
3666.452	3557
3668.121	3497
3669.788	3509
3671.454	3577
3673.121	3525
3674.789	3577
3676.455	3475
3678.12	3505
3679.784	3594
3681.45	3571
3683.114	3565
3684.779	3526
3686.442	3501
3688.105	3466
3689.768	3514
3691.43	3551
3693.093	3498
3694.754	3520
3696.415	3502
3698.076	3581
3699.736	3526
3701.396	3485
3703.057	3428
3704.716	3416
3706.375	3456
3708.034	3557
3709.692	3446
3711.351	3532
3713.008	3519
3714.665	3544
3716.321	3512
3717.977	3417
3719.634	3453
3721.29	3491
3722.945	3425
3724.598	3428
3726.253	3406
3727.907	3400
3729.561	3443
3731.214	3382
3732.867	3440
3734.518	3455
3736.171	3412
3737.824	3453
3739.474	3430
3741.125	3447
3742.775	3401
3744.425	3434
3746.074	3463
3747.725	3425
3749.373	3391
3751.022	3359
3752.669	3362
3754.318	3411
3755.966	3379
3757.612	3392
3759.259	3314
3760.905	3327
3762.55	3329
3764.197	3419
3765.842	3334
3767.486	3334
3769.131	3284
3770.774	3303
3772.417	3344
3774.061	3321
3775.705	3405
3777.347	3342
3778.988	3444
3780.629	3383
3782.271	3419
3783.912	3326
3785.552	3247
3787.192	3294
3788.831	3234
3790.472	3327
3792.112	3292
3793.75	3351
3795.388	3327
3797.024	3319
3798.661	3230
3800.3	3319
3801.936	3293
3803.572	3280
3805.208	3191
3806.844	3332
3808.48	3310
3810.115	3213
3811.748	3264
3813.382	3285
3815.016	3318
3816.649	3344
3818.283	3158
3819.914	3250
3821.547	3271
3823.178	3338
3824.809	3165
3826.441	3241
3828.072	3255
3829.701	3296
3831.331	3182
3832.96	3207
3834.591	3236
3836.219	3203
3837.847	3238
3839.475	3229
3841.102	3236
3842.729	3251
3844.357	3201
3845.984	3192
3847.609	3165
3849.234	3262
3850.86	3217
3852.485	3143
3854.11	3192
3855.734	3201
3857.357	3180
3858.981	3204
3860.603	3262
3862.227	3162
3863.848	3183
3865.471	3129
3867.092	3146
3868.713	3212
3870.334	3142
3871.954	3096
3873.575	3113
3875.194	3194
3876.813	3231
3878.433	3117
3880.051	3137
3881.669	3184
3883.286	3157
3884.904	3106
3886.52	3071
3888.138	3110
3889.754	3090
3891.37	3149
3892.985	3151
3894.6	3131
3896.216	3093
3897.831	3065
3899.444	3175
3901.058	3176
3902.67	3083
3904.283	3120
3905.897	3096
3907.509	3117
3909.121	3092
3910.731	3117
3912.342	3119
3913.954	3077
3915.563	3107
3917.174	2982
3918.783	3057
3920.391	3122
3922.002	3008
3923.611	3059
3925.218	3072
3926.826	3042
3928.432	3114
3930.039	3064
3931.647	3023
3933.253	3039
3934.859	3058
3936.464	3114
3938.068	3059
3939.675	2993
3941.278	3016
3942.883	3045
3944.486	3061
3946.089	3100
3947.692	3009
3949.295	3098
3950.898	2987
3952.499	3053
3954.1	2993
3955.7	3064
3957.303	3034
3958.903	3038
3960.502	2970
3962.101	2976
3963.7	2995
3965.301	3036
3966.899	3017
3968.497	3042
3970.094	3032
3971.691	3050
3973.288	2990
3974.885	2917
3976.481	2947
3978.077	2997
3979.672	2962
3981.267	2991
3982.863	3016
3984.457	2948
3986.051	2957
3987.645	2955
3989.238	2934
3990.831	2928
3992.425	2936
3994.017	2872
3995.607	2903
3997.199	2896
3998.79	2958
4000.382	2922
4001.973	2933
4003.561	2914
4005.151	2904
4006.741	2933
4008.331	2898
4009.918	2978
4011.507	2964
4013.095	2898
4014.681	2934
4016.269	2881
4017.856	2889
4019.443	2939
4021.028	2864
4022.614	2925
4024.199	2871
4025.785	2870
4027.37	2838
4028.953	2907
4030.536	2798
4032.12	2915
4033.704	2939
4035.287	2856
4036.869	2842
4038.45	2796
4040.032	2856
4041.613	2833
4043.195	2809
4044.776	2856
4046.356	2828
4047.935	2819
4049.515	2799
4051.095	2835
4052.674	2824
4054.251	2879
4055.829	2808
4057.406	2805
4058.985	2795
4060.562	2841
4062.139	2846
4063.715	2858
4065.29	2728
4066.865	2777
4068.442	2771
4070.016	2753
4071.59	2830
4073.164	2763
4074.738	2741
4076.312	2788
4077.885	2802
4079.458	2800
4081.03	2723
4082.602	2793
4084.173	2793
4085.745	2735
4087.315	2791
4088.886	2709
4090.456	2707
4092.026	2726
4093.596	2732
4095.165	2741
4096.734	2814
4098.301	2744
4099.869	2698
4101.437	2743
4103.006	2857
4104.572	2771
4106.139	2661
4107.704	2781
4109.27	2721
4110.837	2804
4112.401	2750
4113.966	2708
4115.53	2698
4117.094	2721
4118.659	2660
4120.223	2697
4121.785	2690
4123.347	2709
4124.909	2689
4126.471	2670
4128.034	2651
4129.595	2670
4131.155	2639
4132.716	2657
4134.275	2641
4135.836	2656
4137.395	2659
4138.955	2687
4140.513	2694
4142.071	2628
4143.628	2631
4145.188	2622
4146.745	2705
4148.302	2639
4149.858	2608
4151.414	2567
4152.971	2685
4154.526	2717
4156.081	2592
4157.635	2611
4159.189	2639
4160.745	2583
4162.298	2620
4163.852	2611
4165.405	2639
4166.957	2628
4168.51	2557
4170.063	2532
4171.614	2623
4173.166	2598
4174.717	2663
4176.267	2602
4177.817	2559
4179.368	2597
4180.917	2578
4182.466	2596
4184.016	2489
4185.564	2485
4187.112	2582
4188.66	2551
4190.207	2548
4191.754	2577
4193.301	2528
4194.848	2512
4196.394	2544
4197.94	2584
4199.484	2550
4201.03	2547
4202.575	2497
4204.12	2523
4205.663	2509
4207.207	2464
4208.75	2454
4210.292	2562
4211.836	2551
4213.378	2508
4214.92	2475
4216.46	2551
4218.002	2485
4219.544	2561
4221.083	2481
4222.625	2481
4224.164	2446
4225.703	2540
4227.244	2507
4228.782	2510
4230.32	2586
4231.857	2486
4233.395	2430
4234.933	2476
4236.471	2472
4238.007	2448
4239.542	2480
4241.078	2422
4242.614	2461
4244.15	2435
4245.685	2491
4247.219	2473
4248.753	2419
4250.287	2468
4251.82	2467
4253.354	2474
4254.887	2510
4256.419	2458
4257.951	2478
4259.483	2421
4261.016	2405
4262.547	2470
4264.078	2492
4265.608	2462
4267.137	2436
4268.668	2464
4270.197	2426
4271.727	2452
4273.254	2535
4274.783	2461
4276.311	2379
4277.84	2453
4279.366	2489
4280.894	2452
4282.42	2397
4283.946	2428
4285.473	2394
4286.998	2435
4288.523	2388
4290.047	2418
4291.572	2419
4293.096	2391
4294.622	2420
4296.144	2392
4297.668	2458
4299.19	2350
4300.713	2426
4302.236	2388
4303.758	2344
4305.279	2362
4306.799	2350
4308.321	2421
4309.842	2363
4311.361	2360
4312.882	2392
4314.401	2372
