400.0961	3881
402.6185	3857
405.1424	3863
407.6635	3843
410.1838	3875
412.7035	3817
415.2225	3853
417.7388	3822
420.2585	3879
422.7754	3886
425.2917	3935
427.8072	4092
430.3221	4014
432.8363	4070
435.3498	4057
437.8626	4055
440.3727	4025
442.8841	4065
445.3969	3983
447.907	4101
450.4142	4053
452.9229	4159
455.4289	4052
457.9362	4015
460.4449	4098
462.9488	4080
465.454	3994
467.9566	4045
470.4604	4047
472.9637	4077
475.4662	4117
477.966	4082
480.4671	4123
482.9656	4062
485.4633	4141
487.9645	4169
490.4608	4064
492.9566	4101
495.4536	4184
497.948	4205
500.4437	4213
502.9387	4157
505.431	4197
507.9226	4194
510.4136	4145
512.9079	4078
515.3975	4257
517.8864	4148
520.3746	4223
522.8622	4238
525.3491	4249
527.8394	4218
530.3249	4273
532.8098	4250
535.2939	4302
537.7774	4208
540.2623	4235
542.7444	4224
545.2259	4281
547.7067	4209
550.1868	4292
552.6683	4243
555.147	4200
557.6231	4319
560.1005	4273
562.5773	4286
565.0534	4292
567.5308	4268
570.0056	4283
572.4776	4302
574.951	4287
577.4237	4337
579.8978	4454
582.3671	4338
584.8378	4312
587.3079	4382
589.7773	4290
592.244	4393
594.714	4410
597.1793	4325
599.6461	4477
602.1121	4357
604.5754	4385
607.0421	4424
609.5042	4325
611.9675	4337
614.4282	4389
616.8902	4345
619.3515	4418
621.8122	4400
624.2702	4372
626.7296	4333
629.1863	4308
631.6423	4385
634.1017	4409
636.5563	4449
639.0104	4380
641.4658	4378
643.9185	4443
646.3725	4417
648.8239	4450
651.2766	4409
653.7266	4415
656.176	4360
658.6247	4409
661.0748	4562
663.5242	4437
665.9709	4465
668.417	4392
670.8624	4483
673.3092	4555
675.7533	4400
678.1968	4501
680.6395	4471
683.0817	4568
685.5251	4523
687.9659	4503
690.4061	4557
692.8456	4629
695.2844	4496
697.7226	4541
700.1621	4572
702.599	4570
705.0332	4583
707.4688	4616
709.9036	4546
712.3399	4587
714.7735	4600
717.2044	4642
719.6367	4635
722.0683	4588
724.4993	4596
726.9296	4647
729.3593	4720
731.7883	4714
734.2147	4664
736.6423	4674
739.0714	4742
741.4958	4778
743.9216	4721
746.3447	4774
748.7691	4793
751.1929	4820
753.616	4841
756.0366	4823
758.4584	4808
760.8776	4801
763.2982	4840
765.718	4830
768.1373	4954
770.5539	4797
772.9698	4891
775.3871	4812
777.8038	4804
780.2178	4809
782.6332	4941
785.0459	4710
787.458	4783
789.8714	4848
792.2842	4867
794.6943	4879
797.1038	4872
799.5127	4851
801.9209	4897
804.3324	4894
806.7393	4850
809.1456	4898
811.5513	4889
813.9562	4968
816.3625	4884
818.7663	5002
821.1693	4984
823.5718	4911
825.9735	4882
828.3746	4958
830.7771	4980
833.177	4919
835.5762	4908
837.9747	4945
840.3727	4927
842.772	4993
845.1666	4908
847.5626	5075
849.958	5009
852.3527	5084
854.7488	5049
857.1403	5012
859.5331	5033
861.9253	4961
864.3168	4982
866.7057	5026
869.098	5099
871.4876	5073
873.8746	4991
876.263	5093
878.6487	4989
881.0378	5096
883.4243	5005
885.8081	4982
888.1933	5109
890.5759	5034
892.9598	5062
895.343	4997
897.7256	5138
900.1057	4957
902.4871	4997
904.8659	4966
907.246	4996
909.6254	5120
912.0023	5124
914.3786	5112
916.7562	5317
919.1331	5286
921.5074	5436
923.8831	5377
926.2562	5456
928.6287	5443
931.0005	5350
933.3757	5358
935.7462	5327
938.1162	5325
940.4855	5271
942.8542	5289
945.2242	5386
947.5916	5351
949.9584	5450
952.3266	5500
954.6921	5495
957.0571	5608
959.4233	5714
961.787	5760
964.15	5765
966.5125	5585
968.8742	5532
971.2354	5464
973.5959	5386
975.9559	5320
978.3151	5280
980.6738	5306
983.0338	5388
985.3912	5283
987.7461	5352
990.1022	5168
992.4578	5159
994.8127	5199
997.1689	5244
999.5207	5225
1001.874	5252
1004.226	5273
1006.576	5209
1008.929	5277
1011.28	5191
1013.628	5149
1015.977	5184
1018.324	5223
1020.674	5312
1023.019	5220
1025.366	5300
1027.713	5128
1030.056	5279
1032.399	5198
1034.746	5212
1037.087	5250
1039.431	5235
1041.771	5270
1044.113	5301
1046.454	5373
1048.793	5376
1051.133	5333
1053.471	5262
1055.807	5327
1058.146	5296
1060.483	5243
1062.818	5305
1065.153	5298
1067.489	5256
1069.822	5419
1072.156	5283
1074.488	5297
1076.82	5336
1079.15	5328
1081.48	5389
1083.814	5309
1086.143	5306
1088.471	5392
1090.799	5319
1093.126	5281
1095.452	5294
1097.78	5377
1100.105	5425
1102.43	5323
1104.754	5340
1107.077	5341
1109.4	5348
1111.722	5362
1114.044	5502
1116.365	5291
1118.685	5285
1121.005	5348
1123.324	5464
1125.643	5523
1127.961	5568
1130.278	5529
1132.595	5388
1134.911	5453
1137.226	5367
1139.541	5400
1141.854	5303
1144.167	5394
1146.482	5374
1148.793	5391
1151.105	5334
1153.414	5415
1155.725	5389
1158.033	5369
1160.344	5299
1162.651	5369
1164.959	5327
1167.265	5401
1169.572	5465
1171.878	5435
1174.184	5501
1176.488	5391
1178.79	5477
1181.094	5418
1183.396	5383
1185.699	5482
1188.001	5395
1190.301	5334
1192.6	5484
1194.9	5355
1197.2	5369
1199.497	5473
1201.794	5362
1204.09	5481
1206.387	5389
1208.684	5551
1210.978	5406
1213.272	5448
1215.565	5512
1217.858	5524
1220.15	5550
1222.443	5464
1224.734	5433
1227.024	5575
1229.313	5438
1231.602	5601
1233.892	5623
1236.18	5638
1238.467	5539
1240.754	5507
1243.04	5621
1245.325	5607
1247.612	5577
1249.896	5663
1252.178	5664
1254.461	5622
1256.743	5599
1259.027	5661
1261.308	5579
1263.587	5675
1265.867	5653
1268.146	5695
1270.425	5700
1272.703	5667
1274.981	5742
1277.256	5688
1279.532	5659
1281.808	5645
1284.083	5611
1286.358	5614
1288.63	5640
1290.904	5586
1293.175	5480
1295.449	5470
1297.719	5577
1299.99	5545
1302.259	5572
1304.529	5604
1306.798	5581
1309.065	5611
1311.333	5584
1313.599	5480
1315.866	5663
1318.131	5518
1320.396	5535
1322.66	5652
1324.925	5612
1327.187	5577
1329.448	5682
1331.711	5721
1333.974	5660
1336.234	5693
1338.493	5672
1340.752	5666
1343.01	5670
1345.269	5565
1347.526	5583
1349.784	5630
1352.04	5548
1354.295	5653
1356.552	5622
1358.806	5527
1361.059	5609
1363.312	5575
1365.564	5626
1367.818	5547
1370.069	5702
1372.318	5703
1374.568	5646
1376.817	5661
1379.066	5631
1381.316	5710
1383.564	5722
1385.809	5594
1388.056	5645
1390.301	5643
1392.549	5779
1394.793	5882
1397.036	5918
1399.279	5895
1401.522	5876
1403.763	5969
1406.007	5984
1408.248	5895
1410.487	5809
1412.727	5841
1414.965	5783
1417.205	5854
1419.442	5886
1421.68	5864
1423.915	5796
1426.152	5705
1428.388	5702
1430.623	5785
1432.857	5881
1435.091	5842
1437.323	5821
1439.556	5873
1441.789	5988
1444.019	5847
1446.25	5869
1448.48	5930
1450.708	6031
1452.938	5993
1455.167	5900
1457.394	5848
1459.62	6025
1461.846	5949
1464.073	5999
1466.299	5936
1468.523	5761
1470.746	5682
1472.969	5812
1475.191	5677
1477.415	5793
1479.636	5721
1481.858	5711
1484.078	5633
1486.298	5618
1488.518	5632
1490.736	5674
1492.954	5630
1495.169	5550
1497.386	5600
1499.602	5735
1501.819	5606
1504.034	5601
1506.248	5660
1508.462	5591
1510.675	5612
1512.888	5617
1515.1	5537
1517.311	5606
1519.522	5622
1521.732	5620
1523.942	5597
1526.151	5570
1528.36	5563
1530.566	5659
1532.773	5732
1534.98	5547
1537.187	5688
1539.392	5686
1541.596	5642
1543.801	5701
1546.005	5653
1548.208	5546
1550.411	5678
1552.612	5696
1554.814	5648
1557.013	5745
1559.212	5599
1561.414	5725
1563.612	5749
1565.811	5740
1568.007	5776
1570.203	5859
1572.403	5662
1574.598	5723
1576.792	5703
1578.988	5652
1581.181	5733
1583.376	5752
1585.568	5805
1587.761	5640
1589.952	5740
1592.143	5911
1594.333	5766
1596.524	5758
1598.715	5725
1600.903	5822
1603.091	5834
1605.278	5809
1607.466	5733
1609.652	5845
1611.838	5722
1614.023	5840
1616.207	5791
1618.391	5823
1620.576	5814
1622.759	5825
1624.941	5784
1627.123	5961
1629.304	5856
1631.484	5866
1633.664	5924
1635.844	5846
1638.022	5852
1640.201	5776
1642.38	5821
1644.556	5862
1646.732	5972
1648.908	5947
1651.084	5937
1653.257	5887
1655.433	5874
1657.607	5789
1659.779	6032
1661.951	5930
1664.122	5804
1666.295	5934
1668.467	5973
1670.635	5961
1672.805	5946
1674.973	5924
1677.142	6004
1679.31	5939
1681.478	5903
1683.644	5878
1685.81	5916
1687.975	5921
1690.142	5941
1692.305	5778
1694.468	5825
1696.632	5822
1698.794	5941
1700.957	5720
1703.119	5746
1705.279	5837
1707.439	5830
1709.598	5832
1711.758	5853
1713.917	5728
1716.075	5805
1718.231	5786
1720.388	5787
1722.543	5698
1724.702	5720
1726.856	5754
1729.01	5790
1731.164	5685
1733.317	5841
1735.471	5770
1737.623	5655
1739.774	5704
1741.925	5777
1744.075	5706
1746.225	5863
1748.376	5848
1750.524	5774
1752.672	5824
1754.82	5780
1756.965	5843
1759.113	5810
1761.259	5758
1763.405	5798
1765.549	5765
1767.694	5753
1769.836	5802
1771.981	5864
1774.123	5785
1776.264	5810
1778.405	5827
1780.546	5889
1782.687	5903
1784.827	5906
1786.966	5837
1789.103	5796
1791.242	5832
1793.381	5820
1795.517	5871
1797.653	5793
1799.788	5910
1801.923	5833
1804.057	5936
1806.193	5837
1808.326	5892
1810.457	5864
1812.59	5672
1814.721	6002
1816.855	5807
1818.984	5845
1821.113	5882
1823.244	5731
1825.372	5880
1827.499	5819
1829.63	5855
1831.756	5811
1833.882	5927
1836.007	5735
1838.132	5819
1840.26	5824
1842.384	5778
1844.507	5798
1846.63	5825
1848.752	5799
1850.875	5740
1852.996	5755
1855.118	5843
1857.238	5753
1859.358	5739
1861.477	5862
1863.597	5766
1865.715	5882
1867.832	5778
1869.948	5851
1872.064	5734
1874.181	5821
1876.297	5742
1878.411	5726
1880.526	5827
1882.639	5781
1884.752	5795
1886.865	5761
1888.977	5767
1891.089	5884
1893.2	5744
1895.308	5776
1897.42	5810
1899.53	5938
1901.639	5871
1903.745	5835
1905.853	5789
1907.962	5812
1910.067	5845
1912.174	5821
1914.278	5844
1916.383	5834
1918.486	5811
1920.592	5873
1922.694	5842
1924.797	5896
1926.898	5828
1929	5865
1931.102	5787
1933.203	5882
1935.301	5896
1937.401	5837
1939.499	5925
1941.598	5875
1943.697	5809
1945.793	5877
1947.888	5779
1949.985	5850
1952.08	5909
1954.176	5913
1956.269	5785
1958.364	5815
1960.457	5911
1962.549	5867
1964.642	5969
1966.733	5901
1968.823	5796
1970.913	5817
1973.005	5913
1975.093	5837
1977.184	5777
1979.271	5825
1981.359	5796
1983.446	5824
1985.532	5884
1987.619	5807
1989.705	5860
1991.789	5876
1993.874	5705
1995.956	5921
1998.041	5818
2000.123	5736
2002.206	5785
2004.287	5736
2006.368	5714
2008.449	5808
2010.529	5651
2012.609	5836
2014.688	5751
2016.766	5860
2018.843	5773
2020.922	5798
2022.999	5713
2025.074	5631
2027.15	5773
2029.225	5832
2031.299	5823
2033.375	5843
2035.447	5709
2037.52	5725
2039.592	5850
2041.664	5914
2043.736	5773
2045.807	5813
2047.876	5788
2049.947	5855
2052.015	5902
2054.086	5846
2056.153	5769
2058.221	5856
2060.288	5692
2062.353	5942
2064.42	5886
2066.486	5905
2068.55	5743
2070.614	5816
2072.678	5811
2074.741	5676
2076.805	5769
2078.866	5864
2080.929	5776
2082.99	5743
2085.049	5813
2087.109	5804
2089.17	5772
2091.228	5841
2093.286	5851
2095.344	5909
2097.4	5838
2099.46	5767
2101.516	5733
2103.572	5681
2105.626	5781
2107.679	5730
2109.735	5749
2111.788	5803
2113.841	5769
2115.894	5832
2117.945	5764
2119.997	5746
2122.049	5738
2124.1	5781
2126.148	5825
2128.197	5768
2130.246	5854
2132.296	5913
2134.342	5748
2136.39	5730
2138.437	5754
2140.483	5874
2142.527	5753
2144.574	5715
2146.619	5775
2148.661	5835
2150.705	5733
2152.747	5791
2154.792	5688
2156.832	5798
2158.874	5775
2160.915	5749
2162.954	5839
2164.995	5747
2167.034	5729
2169.072	5742
2171.111	5789
2173.148	5800
2175.186	5731
2177.223	5697
2179.258	5713
2181.294	5727
2183.328	5750
2185.362	5649
2187.398	5715
2189.431	5665
2191.463	5651
2193.495	5684
2195.528	5660
2197.56	5643
2199.59	5809
2201.62	5760
2203.649	5724
2205.678	5703
2207.708	5654
2209.737	5675
2211.764	5685
2213.791	5582
2215.817	5592
2217.843	5621
2219.87	5758
2221.895	5591
2223.919	5550
2225.942	5633
2227.966	5747
2229.988	5708
2232.012	5664
2234.032	5626
2236.054	5543
2238.074	5591
2240.095	5686
2242.116	5682
2244.135	5549
2246.153	5612
2248.171	5718
2250.188	5734
2252.208	5508
2254.223	5665
2256.239	5547
2258.255	5656
2260.269	5623
2262.283	5647
2264.3	5711
2266.312	5656
2268.325	5722
2270.336	5551
2272.349	5662
2274.362	5714
2276.372	5574
2278.383	5544
2280.392	5696
2282.402	5537
2284.409	5682
2286.418	5610
2288.427	5719
2290.433	5626
2292.441	5651
2294.446	5679
2296.453	5581
2298.459	5625
2300.463	5584
2302.466	5585
2304.471	5699
2306.475	5660
2308.477	5659
2310.478	5571
2312.481	5676
2314.481	5525
2316.481	5532
2318.482	5635
2320.482	5660
2322.48	5571
2324.48	5637
2326.478	5532
2328.476	5655
2330.473	5484
2332.469	5498
2334.465	5575
2336.46	5520
2338.454	5482
2340.45	5522
2342.444	5512
2344.437	5642
2346.43	5612
2348.421	5442
2350.414	5570
2352.405	5556
2354.396	5508
2356.386	5562
2358.376	5532
2360.366	5517
2362.355	5550
2364.343	5524
2366.331	5434
2368.317	5454
2370.304	5488
2372.292	5611
2374.278	5537
2376.262	5523
2378.247	5487
2380.23	5411
2382.216	5468
2384.199	5495
2386.181	5463
2388.163	5488
2390.144	5307
2392.127	5494
2394.107	5375
2396.087	5360
2398.066	5367
2400.046	5483
2402.023	5468
2404.004	5491
2405.981	5464
2407.957	5497
2409.934	5439
2411.91	5366
2413.886	5412
2415.862	5486
2417.836	5362
2419.809	5446
2421.784	5368
2423.756	5451
2425.73	5454
2427.701	5424
2429.672	5304
2431.644	5402
2433.615	5403
2435.586	5412
2437.555	5362
2439.523	5343
2441.491	5379
2443.459	5395
2445.428	5463
2447.395	5394
2449.361	5420
2451.327	5414
2453.292	5373
2455.257	5408
2457.223	5375
2459.187	5372
2461.15	5495
2463.113	5459
2465.076	5317
2467.039	5377
2468.999	5406
2470.96	5403
2472.921	5310
2474.881	5371
2476.841	5314
2478.8	5450
2480.759	5311
2482.717	5446
2484.675	5328
2486.63	5367
2488.589	5424
2490.545	5299
2492.5	5419
2494.455	5378
2496.408	5285
2498.364	5358
2500.318	5291
2502.27	5398
2504.223	5205
2506.174	5295
2508.126	5345
2510.078	5240
2512.03	5351
2513.979	5236
2515.927	5185
2517.877	5306
2519.826	5263
2521.775	5214
2523.722	5308
2525.668	5355
2527.616	5324
2529.561	5327
2531.508	5212
2533.452	5315
2535.398	5278
2537.342	5265
2539.284	5268
2541.229	5300
2543.173	5212
2545.114	5151
2547.055	5328
2548.996	5347
2550.938	5282
2552.878	5260
2554.817	5234
2556.756	5274
2558.695	5362
2560.633	5266
2562.572	5103
2564.509	5304
2566.445	5371
2568.382	5393
2570.317	5290
2572.254	5286
2574.189	5269
2576.123	5182
2578.057	5273
2579.99	5293
2581.923	5255
2583.855	5244
2585.788	5194
2587.719	5281
2589.65	5187
2591.579	5317
2593.511	5293
2595.44	5369
2597.37	5253
2599.297	5221
2601.225	5296
2603.153	5192
2605.08	5287
2607.007	5338
2608.932	5309
2610.858	5347
2612.782	5343
2614.709	5242
2616.632	5356
2618.556	5195
2620.478	5387
2622.401	5316
2624.324	5256
2626.247	5162
2628.167	5249
2630.088	5286
2632.008	5266
2633.928	5291
2635.848	5198
2637.766	5304
2639.684	5308
2641.603	5297
2643.519	5335
2645.437	5213
2647.353	5415
2649.27	5272
2651.184	5265
2653.099	5211
2655.014	5162
2656.928	5304
2658.842	5254
2660.755	5233
2662.667	5262
2664.579	5294
2666.491	5273
2668.402	5357
2670.312	5212
2672.222	5198
2674.132	5281
2676.042	5274
2677.951	5274
2679.859	5323
2681.766	5305
2683.674	5230
2685.582	5235
2687.488	5322
2689.392	5256
2691.298	5148
2693.202	5236
2695.107	5258
2697.012	5199
2698.914	5246
2700.817	5166
2702.72	5206
2704.622	5174
2706.524	5163
2708.425	5163
2710.326	5127
2712.225	5190
2714.125	5177
2716.024	5134
2717.923	5109
2719.822	5204
2721.719	5161
2723.616	5188
2725.512	5234
2727.41	5246
2729.305	5162
2731.201	5231
2733.095	5167
2734.99	5167
2736.884	5056
2738.778	5186
2740.67	5087
2742.562	5146
2744.455	5132
2746.346	5172
2748.238	5160
2750.129	5153
2752.018	5045
2753.907	5129
2755.797	5184
2757.687	5163
2759.575	5142
2761.462	5132
2763.349	5066
2765.237	5188
2767.124	5169
2769.009	5100
2770.894	5199
2772.779	5100
2774.663	5066
2776.547	5114
2778.431	5033
2780.314	5106
2782.197	5140
2784.078	5229
2785.96	5121
2787.842	5017
2789.723	5194
2791.603	5068
2793.483	5079
2795.362	5127
2797.241	5164
2799.121	5183
2800.997	5087
2802.874	5025
2804.751	5067
2806.628	5036
2808.506	5114
2810.38	5111
2812.255	5052
2814.13	5051
2816.003	4958
2817.878	5115
2819.752	5112
2821.623	5032
2823.496	5079
2825.368	5088
2827.238	4994
2829.111	5105
2830.98	5140
2832.851	5009
2834.719	5074
2836.589	5133
2838.458	5099
2840.327	5082
2842.193	5039
2844.061	5074
2845.927	5188
2847.794	5154
2849.66	5074
2851.525	5144
2853.39	5179
2855.254	5138
2857.117	5246
2858.983	5198
2860.845	5202
2862.707	5346
2864.569	5280
2866.431	5366
2868.293	5276
2870.154	5325
2872.013	5341
2873.873	5387
2875.733	5316
2877.592	5378
2879.451	5440
2881.309	5382
2883.166	5503
2885.022	5642
2886.879	5639
2888.736	5474
2890.591	5652
2892.446	5627
2894.301	5602
2896.155	5644
2898.009	5671
2899.863	5673
2901.716	5552
2903.568	5624
2905.419	5644
2907.27	5604
2909.123	5775
2910.973	5661
2912.824	5646
2914.673	5553
2916.521	5704
2918.372	5702
2920.22	5782
2922.067	5724
2923.914	5800
2925.761	5903
2927.607	5850
2929.455	5880
2931.301	5996
2933.144	5883
2934.99	6006
2936.833	6021
2938.678	6016
2940.522	6022
2942.364	6182
2944.207	6237
2946.048	6333
2947.891	6424
2949.731	6460
2951.571	6417
2953.412	6429
2955.25	6293
2957.09	6278
2958.93	6177
2960.767	6272
2962.606	6158
2964.443	6204
2966.279	5998
2968.116	5998
2969.953	5813
2971.788	5857
2973.623	5655
2975.457	5712
2977.292	5631
2979.127	5614
2980.959	5687
2982.792	5498
2984.624	5473
2986.455	5449
2988.288	5338
2990.119	5495
2991.949	5397
2993.779	5310
2995.608	5440
2997.439	5225
2999.268	5192
3001.096	5166
3002.923	5180
3004.751	5154
3006.578	5133
3008.406	5094
3010.232	5058
3012.057	4998
3013.883	5016
3015.706	5049
3017.532	5005
3019.356	4854
3021.179	5016
3023.002	4931
3024.823	5005
3026.646	4977
3028.469	4809
3030.289	4923
3032.11	4983
3033.93	4849
3035.749	4843
3037.57	4792
3039.39	4831
3041.207	4797
3043.026	4849
3044.842	4882
3046.661	4875
3048.477	4837
3050.294	4669
3052.109	4782
3053.925	4853
3055.739	4758
3057.555	4775
3059.368	4818
3061.181	4826
3062.995	4707
3064.807	4805
3066.62	4788
3068.433	4734
3070.243	4696
3072.054	4747
3073.865	4792
3075.675	4830
3077.485	4713
3079.293	4705
3081.102	4733
3082.911	4687
3084.719	4689
3086.527	4721
3088.333	4798
3090.139	4601
3091.945	4626
3093.75	4599
3095.557	4756
3097.361	4618
3099.165	4642
3100.969	4594
3102.772	4614
3104.575	4569
3106.379	4625
3108.181	4541
3109.982	4660
3111.783	4634
3113.584	4590
3115.386	4592
3117.186	4678
3118.985	4671
3120.783	4542
3122.582	4550
3124.381	4522
3126.179	4536
3127.975	4557
3129.772	4610
3131.569	4592
3133.365	4451
3135.161	4509
3136.956	4588
3138.751	4543
3140.544	4536
3142.338	4522
3144.132	4469
3145.925	4466
3147.717	4430
3149.509	4522
3151.301	4455
3153.091	4571
3154.884	4500
3156.673	4606
3158.462	4410
3160.252	4487
3162.041	4532
3163.831	4425
3165.618	4394
3167.405	4472
3169.193	4446
3170.979	4427
3172.767	4445
3174.553	4516
3176.338	4457
3178.123	4446
3179.907	4511
3181.692	4423
3183.477	4436
3185.259	4597
3187.042	4485
3188.824	4403
3190.607	4378
3192.389	4468
3194.17	4423
3195.951	4460
3197.73	4429
3199.51	4480
3201.289	4436
3203.07	4378
3204.848	4494
3206.626	4384
3208.403	4425
3210.18	4422
3211.959	4446
3213.735	4482
3215.511	4409
3217.285	4460
3219.06	4394
3220.836	4413
3222.611	4394
3224.384	4385
3226.158	4372
3227.929	4331
3229.702	4454
3231.476	4491
3233.248	4383
3235.018	4304
3236.789	4425
3238.56	4394
3240.33	4425
3242.1	4391
3243.869	4463
3245.637	4408
3247.405	4386
3249.172	4398
3250.941	4369
3252.707	4417
3254.474	4346
3256.24	4230
3258.006	4394
3259.772	4387
3261.537	4414
3263.301	4402
3265.065	4337
3266.828	4425
3268.592	4358
3270.355	4334
3272.117	4420
3273.878	4474
3275.64	4373
3277.401	4376
3279.162	4370
3280.922	4415
3282.682	4440
3284.441	4412
3286.199	4416
3287.959	4399
3289.716	4356
3291.475	4390
3293.232	4388
3294.988	4390
3296.744	4472
3298.501	4312
3300.256	4317
3302.011	4339
3303.766	4368
3305.52	4363
3307.275	4456
3309.028	4272
3310.781	4367
3312.533	4370
3314.285	4286
3316.038	4283
3317.789	4468
3319.54	4358
3321.289	4284
3323.039	4389
3324.789	4319
3326.539	4264
3328.288	4314
3330.035	4363
3331.783	4290
3333.531	4278
3335.28	4316
3337.025	4298
3338.771	4341
3340.518	4310
3342.262	4345
3344.009	4307
3345.753	4215
3347.497	4261
3349.24	4275
3350.983	4260
3352.726	4316
3354.469	4257
3356.212	4223
3357.952	4293
3359.694	4283
3361.434	4231
3363.176	4282
3364.916	4256
3366.654	4257
3368.394	4210
3370.132	4286
3371.871	4164
3373.61	4298
3375.346	4156
3377.083	4194
3378.82	4116
3380.556	4238
3382.292	4200
3384.027	4158
3385.763	4131
3387.497	4250
3389.231	4196
3390.965	4254
3392.698	4202
3394.431	4154
3396.164	4204
3397.896	4252
3399.627	4140
3401.36	4107
3403.09	4131
3404.82	4226
3406.55	4135
3408.279	4165
3410.01	4230
3411.738	4167
3413.467	4145
3415.194	4077
3416.92	4158
3418.647	4215
3420.375	4013
3422.102	4132
3423.827	4084
3425.553	3961
3427.277	4126
3429.003	4065
3430.727	4058
3432.451	4086
3434.173	4125
3435.896	4077
3437.62	4109
3439.343	4088
3441.063	4098
3442.785	4104
3444.505	4070
3446.226	4076
3447.948	4043
3449.666	3996
3451.386	4091
3453.104	4038
3454.823	4120
3456.541	3920
3458.259	3980
3459.976	4074
3461.693	4056
3463.408	3948
3465.125	3990
3466.841	3942
3468.556	3963
3470.271	3963
3471.985	3958
3473.698	3935
3475.414	4012
3477.126	3996
3478.838	3835
3480.55	3969
3482.263	3911
3483.975	3869
3485.686	3966
3487.396	3933
3489.106	3941
3490.817	3891
3492.526	3939
3494.236	3934
3495.944	3817
3497.652	3966
3499.359	3899
3501.066	3898
3502.775	3887
3504.481	3858
3506.187	3866
3507.893	3948
3509.598	3894
3511.304	3849
3513.009	3763
3514.713	3886
3516.417	3814
3518.12	3721
3519.821	3778
3521.525	3748
3523.228	3812
3524.929	3755
3526.631	3778
3528.33	3791
3530.032	3808
3531.733	3812
3533.433	3810
3535.131	3792
3536.83	3702
3538.529	3891
3540.227	3826
3541.925	3797
3543.623	3783
3545.319	3715
3547.016	3791
3548.712	3751
3550.408	3693
3552.103	3706
3553.798	3733
3555.491	3802
3557.188	3741
3558.88	3799
3560.574	3702
3562.266	3719
3563.959	3696
3565.651	3707
3567.343	3743
3569.035	3732
3570.725	3688
3572.415	3633
3574.106	3637
3575.797	3668
3577.485	3717
3579.174	3734
3580.863	3685
3582.551	3719
3584.238	3636
3585.926	3753
3587.613	3717
3589.3	3636
3590.986	3672
3592.671	3633
3594.357	3701
3596.042	3604
3597.726	3603
3599.41	3658
3601.094	3521
3602.778	3585
3604.461	3643
3606.143	3545
3607.825	3631
3609.507	3582
3611.188	3652
3612.87	3613
3614.551	3581
3616.229	3564
3617.909	3514
3619.589	3629
3621.269	3578
3622.948	3543
3624.625	3593
3626.302	3520
3627.98	3487
3629.657	3579
3631.334	3526
3633.01	3415
3634.686	3502
3636.361	3531
3638.036	3510
3639.712	3497
3641.385	3580
3643.06	3473
3644.732	3488
3646.405	3497
3648.08	3545
3649.751	3563
3651.424	3542
3653.094	3468
3654.766	3491
3656.436	3442
3658.106	3414
3659.777	3488
3661.446	3465
3663.115	3442
3664.783	3429
3666.452	3436
3668.121	3487
3669.788	3462
3671.454	3411
3673.121	3485
3674.789	3429
3676.455	3390
3678.12	3399
3679.784	3370
3681.45	3414
3683.114	3531
3684.779	3440
3686.442	3400
3688.105	3383
3689.768	3398
3691.43	3527
3693.093	3420
3694.754	3440
3696.415	3392
3698.076	3436
3699.736	3386
3701.396	3430
3703.057	3336
3704.716	3315
3706.375	3386
3708.034	3334
3709.692	3320
3711.351	3433
3713.008	3360
3714.665	3331
3716.321	3395
3717.977	3372
3719.634	3291
3721.29	3317
3722.945	3351
3724.598	3328
3726.253	3339
3727.907	3351
3729.561	3309
3731.214	3303
3732.867	3407
3734.518	3359
3736.171	3349
3737.824	3319
3739.474	3247
3741.125	3301
3742.775	3325
3744.425	3291
3746.074	3325
3747.725	3322
3749.373	3303
3751.022	3270
3752.669	3357
3754.318	3373
3755.966	3261
3757.612	3290
3759.259	3349
3760.905	3244
3762.55	3290
3764.197	3227
3765.842	3274
3767.486	3269
3769.131	3289
3770.774	3194
3772.417	3299
3774.061	3234
3775.705	3166
3777.347	3251
3778.988	3256
3780.629	3255
3782.271	3303
3783.912	3206
3785.552	3161
3787.192	3284
3788.831	3231
3790.472	3208
3792.112	3198
3793.75	3258
3795.388	3218
3797.024	3173
3798.661	3216
3800.3	3213
3801.936	3220
3803.572	3211
3805.208	3255
3806.844	3219
3808.48	3197
3810.115	3137
3811.748	3234
3813.382	3143
3815.016	3186
3816.649	3183
3818.283	3147
3819.914	3195
3821.547	3110
3823.178	3136
3824.809	3075
3826.441	3104
3828.072	3119
3829.701	3121
3831.331	3209
3832.96	3146
3834.591	3158
3836.219	3125
3837.847	3160
3839.475	3120
3841.102	3079
3842.729	3123
3844.357	3035
3845.984	3077
3847.609	3168
3849.234	3045
3850.86	3139
3852.485	3101
3854.11	3053
3855.734	3054
3857.357	3060
3858.981	3114
3860.603	3098
3862.227	3109
3863.848	3109
3865.471	3043
3867.092	3110
3868.713	3034
3870.334	3109
3871.954	3051
3873.575	3078
3875.194	3087
3876.813	3011
3878.433	2988
3880.051	3121
3881.669	3079
3883.286	3084
3884.904	3057
3886.52	3076
3888.138	3063
3889.754	3021
3891.37	3083
3892.985	3016
3894.6	2997
3896.216	3000
3897.831	3004
3899.444	3057
3901.058	3034
3902.67	2988
3904.283	3013
3905.897	3005
3907.509	3055
3909.121	2987
3910.731	3049
3912.342	2994
3913.954	2964
3915.563	3064
3917.174	3018
3918.783	2983
3920.391	3003
3922.002	2919
3923.611	2960
3925.218	2968
3926.826	3074
3928.432	3013
3930.039	2979
3931.647	2900
3933.253	2947
3934.859	2924
3936.464	2954
3938.068	3006
3939.675	3081
3941.278	2987
3942.883	3000
3944.486	3021
3946.089	2979
3947.692	2902
3949.295	3026
3950.898	2932
3952.499	2962
3954.1	2964
3955.7	2927
3957.303	2896
3958.903	2944
3960.502	2954
3962.101	2897
3963.7	2887
3965.301	2943
3966.899	3011
3968.497	2947
3970.094	2867
3971.691	2906
3973.288	2864
3974.885	2945
3976.481	2977
3978.077	2835
3979.672	2902
3981.267	2909
3982.863	2899
3984.457	2864
3986.051	2849
3987.645	2880
3989.238	2852
3990.831	2890
3992.425	2862
3994.017	2907
3995.607	2862
3997.199	2806
3998.79	2841
4000.382	2840
4001.973	2814
4003.561	2811
4005.151	2858
4006.741	2808
4008.331	2847
4009.918	2841
4011.507	2790
4013.095	2832
4014.681	2881
4016.269	2795
4017.856	2758
4019.443	2837
4021.028	2790
4022.614	2760
4024.199	2780
4025.785	2751
4027.37	2823
4028.953	2733
4030.536	2785
4032.12	2734
4033.704	2766
4035.287	2763
4036.869	2804
4038.45	2757
4040.032	2774
4041.613	2776
4043.195	2720
4044.776	2779
4046.356	2749
4047.935	2749
4049.515	2723
4051.095	2692
4052.674	2794
4054.251	2762
4055.829	2721
4057.406	2760
4058.985	2745
4060.562	2730
4062.139	2701
4063.715	2717
4065.29	2742
4066.865	2707
4068.442	2696
4070.016	2703
4071.59	2719
4073.164	2670
4074.738	2689
4076.312	2680
4077.885	2729
4079.458	2718
4081.03	2750
4082.602	2745
4084.173	2686
4085.745	2697
4087.315	2678
4088.886	2665
4090.456	2658
4092.026	2688
4093.596	2609
4095.165	2664
4096.734	2667
4098.301	2728
4099.869	2752
4101.437	2676
4103.006	2681
4104.572	2670
4106.139	2706
4107.704	2625
4109.27	2639
4110.837	2645
4112.401	2642
4113.966	2703
4115.53	2661
4117.094	2633
4118.659	2638
4120.223	2662
4121.785	2640
4123.347	2588
4124.909	2551
4126.471	2621
4128.034	2628
4129.595	2641
4131.155	2614
4132.716	2586
4134.275	2605
4135.836	2590
4137.395	2577
4138.955	2637
4140.513	2648
4142.071	2540
4143.628	2562
4145.188	2574
4146.745	2571
4148.302	2550
4149.858	2584
4151.414	2606
4152.971	2618
4154.526	2596
4156.081	2551
4157.635	2516
4159.189	2498
4160.745	2572
4162.298	2525
4163.852	2568
4165.405	2606
4166.957	2536
4168.51	2571
4170.063	2542
4171.614	2532
4173.166	2530
4174.717	2550
4176.267	2504
4177.817	2502
4179.368	2503
4180.917	2514
4182.466	2595
4184.016	2487
4185.564	2410
4187.112	2443
4188.66	2490
4190.207	2507
4191.754	2555
4193.301	2412
4194.848	2522
4196.394	2434
4197.94	2479
4199.484	2461
4201.03	2484
4202.575	2479
4204.12	2456
4205.663	2467
4207.207	2449
4208.75	2446
4210.292	2471
4211.836	2421
4213.378	2458
4214.92	2465
4216.46	2460
4218.002	2449
4219.544	2462
4221.083	2425
4222.625	2428
4224.164	2472
4225.703	2531
4227.244	2457
4228.782	2428
4230.32	2487
4231.857	2437
4233.395	2452
4234.933	2487
4236.471	2411
4238.007	2370
4239.542	2467
4241.078	2462
4242.614	2362
4244.15	2403
4245.685	2430
4247.219	2431
4248.753	2415
4250.287	2409
4251.82	2402
4253.354	2429
4254.887	2400
4256.419	2397
4257.951	2418
4259.483	2402
4261.016	2398
4262.547	2361
4264.078	2367
4265.608	2359
4267.137	2394
4268.668	2435
4270.197	2334
4271.727	2357
4273.254	2331
4274.783	2475
4276.311	2440
4277.84	2348
4279.366	2380
4280.894	2345
4282.42	2350
4283.946	2356
4285.473	2322
4286.998	2389
4288.523	2281
4290.047	2372
4291.572	2351
4293.096	2323
4294.622	2367
4296.144	2370
4297.668	2341
4299.19	2372
4300.713	2326
4302.236	2324
4303.758	2355
4305.279	2311
4306.799	2321
4308.321	2313
4309.842	2292
4311.361	2265
4312.882	2293
4314.401	2298
