400.0961	4139
402.6185	4260
405.1424	4137
407.6635	4187
410.1838	4222
412.7035	4217
415.2225	4290
417.7388	4336
420.2585	4291
422.7754	4326
425.2917	4248
427.8072	4384
430.3221	4392
432.8363	4462
435.3498	4434
437.8626	4419
440.3727	4477
442.8841	4369
445.3969	4449
447.907	4458
450.4142	4449
452.9229	4431
455.4289	4471
457.9362	4488
460.4449	4441
462.9488	4396
465.454	4514
467.9566	4490
470.4604	4525
472.9637	4420
475.4662	4499
477.966	4528
480.4671	4534
482.9656	4476
485.4633	4535
487.9645	4542
490.4608	4518
492.9566	4639
495.4536	4598
497.948	4511
500.4437	4644
502.9387	4630
505.431	4524
507.9226	4553
510.4136	4634
512.9079	4590
515.3975	4646
517.8864	4648
520.3746	4661
522.8622	4634
525.3491	4737
527.8394	4722
530.3249	4706
532.8098	4701
535.2939	4689
537.7774	4701
540.2623	4674
542.7444	4715
545.2259	4760
547.7067	4593
550.1868	4762
552.6683	4657
555.147	4822
557.6231	4654
560.1005	4711
562.5773	4706
565.0534	4764
567.5308	4776
570.0056	4676
572.4776	4842
574.951	4735
577.4237	4675
579.8978	4773
582.3671	4772
584.8378	4840
587.3079	4861
589.7773	4796
592.244	4930
594.714	4856
597.1793	4863
599.6461	4811
602.1121	4867
604.5754	4780
607.0421	4802
609.5042	4870
611.9675	4756
614.4282	4776
616.8902	4825
619.3515	4865
621.8122	4944
624.2702	4720
626.7296	4817
629.1863	4781
631.6423	4752
634.1017	4853
636.5563	4836
639.0104	4844
641.4658	4818
643.9185	4913
646.3725	4787
648.8239	4920
651.2766	4884
653.7266	4878
656.176	4834
658.6247	4857
661.0748	4972
663.5242	5025
665.9709	4871
668.417	4967
670.8624	4976
673.3092	5044
675.7533	4996
678.1968	4996
680.6395	4969
683.0817	4955
685.5251	5001
687.9659	5026
690.4061	4972
692.8456	5081
695.2844	5081
697.7226	5081
700.1621	5155
702.599	5081
705.0332	5044
707.4688	5079
709.9036	5135
712.3399	5134
714.7735	4999
717.2044	5171
719.6367	5113
722.0683	5083
724.4993	5168
726.9296	5071
729.3593	5097
731.7883	5126
734.2147	5281
736.6423	5171
739.0714	5254
741.4958	5337
743.9216	5293
746.3447	5200
748.7691	5197
751.1929	5183
753.616	5262
756.0366	5252
758.4584	5294
760.8776	5287
763.2982	5394
765.718	5259
768.1373	5294
770.5539	5343
772.9698	5415
775.3871	5471
777.8038	5360
780.2178	5316
782.6332	5337
785.0459	5310
787.458	5332
789.8714	5530
792.2842	5321
794.6943	5329
797.1038	5367
799.5127	5412
801.9209	5423
804.3324	5448
806.7393	5448
809.1456	5502
811.5513	5405
813.9562	5428
816.3625	5464
818.7663	5532
821.1693	5412
823.5718	5426
825.9735	5482
828.3746	5438
830.7771	5363
833.177	5540
835.5762	5381
837.9747	5492
840.3727	5485
842.772	5496
845.1666	5615
847.5626	5510
849.958	5589
852.3527	5675
854.7488	5605
857.1403	5665
859.5331	5727
861.9253	5611
864.3168	5509
866.7057	5561
869.098	5545
871.4876	5545
873.8746	5524
876.263	5608
878.6487	5596
881.0378	5639
883.4243	5514
885.8081	5584
888.1933	5620
890.5759	5583
892.9598	5607
895.343	5649
897.7256	5656
900.1057	5574
902.4871	5586
904.8659	5651
907.246	5677
909.6254	5628
912.0023	5695
914.3786	5767
916.7562	5704
919.1331	5918
921.5074	5996
923.8831	5989
926.2562	5941
928.6287	6012
931.0005	6004
933.3757	5887
935.7462	5907
938.1162	5865
940.4855	5897
942.8542	5840
945.2242	5888
947.5916	5997
949.9584	5969
952.3266	6128
954.6921	6069
957.0571	6265
959.4233	6344
961.787	6415
964.15	6207
966.5125	6337
968.8742	6240
971.2354	6138
973.5959	6016
975.9559	5950
978.3151	5892
980.6738	5951
983.0338	5873
985.3912	5777
987.7461	5776
990.1022	5737
992.4578	5793
994.8127	5716
997.1689	5907
999.5207	5815
1001.874	5697
1004.226	5802
1006.576	5742
1008.929	5728
1011.28	5728
1013.628	5702
1015.977	5793
1018.324	5787
1020.674	5893
1023.019	5742
1025.366	5883
1027.713	5841
1030.056	5830
1032.399	5912
1034.746	5795
1037.087	5759
1039.431	5884
1041.771	5813
1044.113	5830
1046.454	5907
1048.793	5838
1051.133	5842
1053.471	5812
1055.807	5720
1058.146	5807
1060.483	5797
1062.818	5961
1065.153	5957
1067.489	5946
1069.822	5946
1072.156	6106
1074.488	5944
1076.82	5954
1079.15	5933
1081.48	6013
1083.814	5925
1086.143	5895
1088.471	5845
1090.799	5839
1093.126	5833
1095.452	6001
1097.78	5920
1100.105	5943
1102.43	6000
1104.754	5932
1107.077	5887
1109.4	5937
1111.722	5925
1114.044	5957
1116.365	6049
1118.685	5954
1121.005	5889
1123.324	5980
1125.643	6069
1127.961	6028
1130.278	6032
1132.595	6019
1134.911	6033
1137.226	5932
1139.541	5974
1141.854	6095
1144.167	5951
1146.482	5932
1148.793	5941
1151.105	6004
1153.414	6063
1155.725	5917
1158.033	5990
1160.344	6050
1162.651	6020
1164.959	5914
1167.265	6072
1169.572	6045
1171.878	5925
1174.184	6089
1176.488	6026
1178.79	6015
1181.094	6145
1183.396	6011
1185.699	5988
1188.001	5993
1190.301	6003
1192.6	5906
1194.9	6019
1197.2	5872
1199.497	6137
1201.794	5930
1204.09	6018
1206.387	6032
1208.684	5981
1210.978	6079
1213.272	5907
1215.565	6163
1217.858	6000
1220.15	6054
1222.443	6004
1224.734	6054
1227.024	6169
1229.313	6034
1231.602	6084
1233.892	6154
1236.18	6129
1238.467	6188
1240.754	6259
1243.04	6251
1245.325	6253
1247.612	6298
1249.896	6188
1252.178	6126
1254.461	6320
1256.743	6383
1259.027	6347
1261.308	6334
1263.587	6279
1265.867	6313
1268.146	6295
1270.425	6294
1272.703	6307
1274.981	6255
1277.256	6280
1279.532	6311
1281.808	6263
1284.083	6216
1286.358	6298
1288.63	6220
1290.904	6135
1293.175	6320
1295.449	6163
1297.719	6193
1299.99	6161
1302.259	6196
1304.529	6129
1306.798	6166
1309.065	6180
1311.333	6203
1313.599	6323
1315.866	6229
1318.131	6189
1320.396	6229
1322.66	6232
1324.925	6118
1327.187	6187
1329.448	6330
1331.711	6226
1333.974	6255
1336.234	6220
1338.493	6207
1340.752	6228
1343.01	6126
1345.269	6151
1347.526	6195
1349.784	6213
1352.04	6175
1354.295	6159
1356.552	6258
1358.806	6223
1361.059	6145
1363.312	6165
1365.564	6136
1367.818	6238
1370.069	6280
1372.318	6277
1374.568	6317
1376.817	6241
1379.066	6343
1381.316	6228
1383.564	6271
1385.809	6239
1388.056	6255
1390.301	6369
1392.549	6402
1394.793	6503
1397.036	6499
1399.279	6499
1401.522	6392
1403.763	6506
1406.007	6474
1408.248	6653
1410.487	6518
1412.727	6513
1414.965	6607
1417.205	6480
1419.442	6374
1421.68	6487
1423.915	6470
1426.152	6397
1428.388	6451
1430.623	6497
1432.857	6491
1435.091	6483
1437.323	6385
1439.556	6557
1441.789	6688
1444.019	6589
1446.25	6489
1448.48	6508
1450.708	6693
1452.938	6662
1455.167	6530
1457.394	6738
1459.62	6474
1461.846	6581
1464.073	6522
1466.299	6443
1468.523	6441
1470.746	6522
1472.969	6367
1475.191	6222
1477.415	6394
1479.636	6377
1481.858	6232
1484.078	6402
1486.298	6308
1488.518	6251
1490.736	6266
1492.954	6241
1495.169	6080
1497.386	6278
1499.602	6333
1501.819	6265
1504.034	6260
1506.248	6309
1508.462	6130
1510.675	6219
1512.888	6222
1515.1	6234
1517.311	6161
1519.522	6147
1521.732	6031
1523.942	6292
1526.151	6256
1528.36	6202
1530.566	6299
1532.773	6251
1534.98	6136
1537.187	6166
1539.392	6351
1541.596	6271
1543.801	6180
1546.005	6225
1548.208	6286
1550.411	6325
1552.612	6338
1554.814	6418
1557.013	6287
1559.212	6239
1561.414	6243
1563.612	6441
1565.811	6222
1568.007	6398
1570.203	6377
1572.403	6286
1574.598	6412
1576.792	6406
1578.988	6417
1581.181	6369
1583.376	6305
1585.568	6512
1587.761	6270
1589.952	6457
1592.143	6320
1594.333	6294
1596.524	6293
1598.715	6354
1600.903	6401
1603.091	6470
1605.278	6537
1607.466	6374
1609.652	6488
1611.838	6458
1614.023	6383
1616.207	6448
1618.391	6495
1620.576	6427
1622.759	6472
1624.941	6405
1627.123	6486
1629.304	6390
1631.484	6523
1633.664	6559
1635.844	6395
1638.022	6471
1640.201	6536
1642.38	6506
1644.556	6568
1646.732	6538
1648.908	6476
1651.084	6569
1653.257	6546
1655.433	6587
1657.607	6479
1659.779	6615
1661.951	6533
1664.122	6631
1666.295	6550
1668.467	6518
1670.635	6589
1672.805	6686
1674.973	6629
1677.142	6503
1679.31	6562
1681.478	6592
1683.644	6581
1685.81	6561
1687.975	6506
1690.142	6614
1692.305	6443
1694.468	6493
1696.632	6474
1698.794	6474
1700.957	6451
1703.119	6447
1705.279	6531
1707.439	6461
1709.598	6395
1711.758	6346
1713.917	6485
1716.075	6475
1718.231	6414
1720.388	6467
1722.543	6393
1724.702	6488
1726.856	6456
1729.01	6389
1731.164	6326
1733.317	6334
1735.471	6361
1737.623	6305
1739.774	6371
1741.925	6382
1744.075	6437
1746.225	6425
1748.376	6402
1750.524	6537
1752.672	6465
1754.82	6402
1756.965	6530
1759.113	6281
1761.259	6420
1763.405	6474
1765.549	6413
1767.694	6443
1769.836	6440
1771.981	6421
1774.123	6413
1776.264	6421
1778.405	6553
1780.546	6511
1782.687	6412
1784.827	6501
1786.966	6487
1789.103	6501
1791.242	6534
1793.381	6521
1795.517	6629
1797.653	6393
1799.788	6509
1801.923	6584
1804.057	6525
1806.193	6525
1808.326	6489
1810.457	6549
1812.59	6479
1814.721	6492
1816.855	6471
1818.984	6529
1821.113	6462
1823.244	6558
1825.372	6576
1827.499	6474
1829.63	6491
1831.756	6407
1833.882	6381
1836.007	6465
1838.132	6416
1840.26	6425
1842.384	6393
1844.507	6426
1846.63	6505
1848.752	6337
1850.875	6363
1852.996	6427
1855.118	6455
1857.238	6388
1859.358	6423
1861.477	6412
1863.597	6435
1865.715	6459
1867.832	6472
1869.948	6497
1872.064	6492
1874.181	6387
1876.297	6500
1878.411	6385
1880.526	6546
1882.639	6350
1884.752	6391
1886.865	6465
1888.977	6446
1891.089	6490
1893.2	6392
1895.308	6409
1897.42	6549
1899.53	6364
1901.639	6581
1903.745	6414
1905.853	6508
1907.962	6356
1910.067	6471
1912.174	6397
1914.278	6512
1916.383	6498
1918.486	6455
1920.592	6463
1922.694	6457
1924.797	6487
1926.898	6610
1929	6528
1931.102	6523
1933.203	6594
1935.301	6518
1937.401	6508
1939.499	6465
1941.598	6585
1943.697	6561
1945.793	6491
1947.888	6531
1949.985	6561
1952.08	6394
1954.176	6579
1956.269	6461
1958.364	6534
1960.457	6599
1962.549	6521
1964.642	6523
1966.733	6496
1968.823	6554
1970.913	6500
1973.005	6463
1975.093	6508
1977.184	6459
1979.271	6472
1981.359	6420
1983.446	6405
1985.532	6372
1987.619	6486
1989.705	6455
1991.789	6537
1993.874	6410
1995.956	6428
1998.041	6427
2000.123	6421
2002.206	6613
2004.287	6429
2006.368	6386
2008.449	6444
2010.529	6542
2012.609	6482
2014.688	6373
2016.766	6451
2018.843	6389
2020.922	6393
2022.999	6445
2025.074	6360
2027.15	6445
2029.225	6425
2031.299	6357
2033.375	6430
2035.447	6405
2037.52	6415
2039.592	6355
2041.664	6445
2043.736	6375
2045.807	6536
2047.876	6477
2049.947	6379
2052.015	6435
2054.086	6445
2056.153	6458
2058.221	6422
2060.288	6463
2062.353	6464
2064.42	6393
2066.486	6494
2068.55	6477
2070.614	6422
2072.678	6536
2074.741	6427
2076.805	6344
2078.866	6467
2080.929	6457
2082.99	6405
2085.049	6528
2087.109	6425
2089.17	6510
2091.228	6448
2093.286	6469
2095.344	6396
2097.4	6502
2099.46	6456
2101.516	6516
2103.572	6487
2105.626	6506
2107.679	6526
2109.735	6403
2111.788	6361
2113.841	6271
2115.894	6447
2117.945	6433
2119.997	6416
2122.049	6379
2124.1	6431
2126.148	6350
2128.197	6493
2130.246	6396
2132.296	6378
2134.342	6505
2136.39	6444
2138.437	6400
2140.483	6397
2142.527	6523
2144.574	6440
2146.619	6486
2148.661	6384
2150.705	6358
2152.747	6361
2154.792	6442
2156.832	6404
2158.874	6424
2160.915	6422
2162.954	6355
2164.995	6208
2167.034	6426
2169.072	6296
2171.111	6371
2173.148	6342
2175.186	6428
2177.223	6439
2179.258	6404
2181.294	6487
2183.328	6366
2185.362	6265
2187.398	6368
2189.431	6329
2191.463	6325
2193.495	6289
2195.528	6255
2197.56	6293
2199.59	6358
2201.62	6315
2203.649	6327
2205.678	6234
2207.708	6328
2209.737	6245
2211.764	6158
2213.791	6241
2215.817	6287
2217.843	6302
2219.87	6153
2221.895	6288
2223.919	6297
2225.942	6321
2227.966	6211
2229.988	6243
2232.012	6341
2234.032	6336
2236.054	6260
2238.074	6254
2240.095	6195
2242.116	6265
2244.135	6228
2246.153	6255
2248.171	6276
2250.188	6277
2252.208	6262
2254.223	6191
2256.239	6291
2258.255	6238
2260.269	6271
2262.283	6292
2264.3	6169
2266.312	6253
2268.325	6193
2270.336	6280
2272.349	6289
2274.362	6212
2276.372	6342
2278.383	6292
2280.392	6213
2282.402	6267
2284.409	6278
2286.418	6183
2288.427	6278
2290.433	6157
2292.441	6227
2294.446	6277
2296.453	6189
2298.459	6276
2300.463	6241
2302.466	6235
2304.471	6171
2306.475	6221
2308.477	6259
2310.478	6270
2312.481	6223
2314.481	6152
2316.481	6214
2318.482	6257
2320.482	6197
2322.48	6268
2324.48	6230
2326.478	6198
2328.476	6173
2330.473	6211
2332.469	6102
2334.465	6224
2336.46	6131
2338.454	6167
2340.45	6091
2342.444	6126
2344.437	6282
2346.43	6193
2348.421	6021
2350.414	6165
2352.405	6196
2354.396	6058
2356.386	6206
2358.376	6079
2360.366	6061
2362.355	6190
2364.343	6071
2366.331	6078
2368.317	6112
2370.304	5935
2372.292	5980
2374.278	6088
2376.262	6185
2378.247	6006
2380.23	6201
2382.216	6057
2384.199	5954
2386.181	6001
2388.163	6046
2390.144	5967
2392.127	6045
2394.107	6033
2396.087	5952
2398.066	6125
2400.046	6067
2402.023	5974
2404.004	6022
2405.981	6082
2407.957	6077
2409.934	5970
2411.91	6026
2413.886	5974
2415.862	6000
2417.836	6125
2419.809	5961
2421.784	5998
2423.756	6016
2425.73	5959
2427.701	6032
2429.672	6043
2431.644	6076
2433.615	6039
2435.586	5913
2437.555	6035
2439.523	6090
2441.491	5999
2443.459	6046
2445.428	5949
2447.395	5974
2449.361	5927
2451.327	5886
2453.292	6017
2455.257	5988
2457.223	6091
2459.187	5919
2461.15	6041
2463.113	6004
2465.076	5899
2467.039	5908
2468.999	6066
2470.96	5918
2472.921	5939
2474.881	5908
2476.841	5931
2478.8	5976
2480.759	5910
2482.717	5942
2484.675	5882
2486.63	5867
2488.589	5842
2490.545	5883
2492.5	5922
2494.455	5904
2496.408	5885
2498.364	5916
2500.318	5880
2502.27	5942
2504.223	5991
2506.174	5896
2508.126	5960
2510.078	5954
2512.03	5887
2513.979	5847
2515.927	5876
2517.877	5910
2519.826	5882
2521.775	5891
2523.722	5838
2525.668	5951
2527.616	5832
2529.561	5861
2531.508	5811
2533.452	5834
2535.398	5781
2537.342	5830
2539.284	5844
2541.229	5845
2543.173	5855
2545.114	5828
2547.055	5918
2548.996	5888
2550.938	5771
2552.878	5734
2554.817	5795
2556.756	5803
2558.695	5904
2560.633	5909
2562.572	5827
2564.509	5797
2566.445	5895
2568.382	5906
2570.317	5856
2572.254	5860
2574.189	5916
2576.123	5923
2578.057	5828
2579.99	5805
2581.923	5792
2583.855	5841
2585.788	5834
2587.719	5743
2589.65	5862
2591.579	5792
2593.511	5773
2595.44	5880
2597.37	5804
2599.297	5869
2601.225	5825
2603.153	5746
2605.08	5835
2607.007	5872
2608.932	5880
2610.858	5904
2612.782	5861
2614.709	5801
2616.632	5749
2618.556	5842
2620.478	5880
2622.401	5807
2624.324	5862
2626.247	5810
2628.167	5973
2630.088	5789
2632.008	5828
2633.928	5752
2635.848	5837
2637.766	5739
2639.684	5853
2641.603	5840
2643.519	5871
2645.437	5826
2647.353	5826
2649.27	5903
2651.184	5788
2653.099	5946
2655.014	5704
2656.928	5811
2658.842	5914
2660.755	5768
2662.667	5780
2664.579	5891
2666.491	5874
2668.402	5881
2670.312	5873
2672.222	5822
2674.132	5851
2676.042	5787
2677.951	5798
2679.859	5807
2681.766	5830
2683.674	5789
2685.582	5779
2687.488	5712
2689.392	5765
2691.298	5760
2693.202	5733
2695.107	5883
2697.012	5683
2698.914	5801
2700.817	5831
2702.72	5707
2704.622	5805
2706.524	5812
2708.425	5672
2710.326	5715
2712.225	5741
2714.125	5757
2716.024	5676
2717.923	5860
2719.822	5769
2721.719	5692
2723.616	5653
2725.512	5649
2727.41	5660
2729.305	5771
2731.201	5734
2733.095	5665
2734.99	5800
2736.884	5633
2738.778	5732
2740.67	5648
2742.562	5609
2744.455	5703
2746.346	5665
2748.238	5628
2750.129	5615
2752.018	5623
2753.907	5726
2755.797	5594
2757.687	5708
2759.575	5689
2761.462	5652
2763.349	5681
2765.237	5678
2767.124	5602
2769.009	5500
2770.894	5698
2772.779	5670
2774.663	5634
2776.547	5829
2778.431	5639
2780.314	5602
2782.197	5627
2784.078	5672
2785.96	5639
2787.842	5677
2789.723	5653
2791.603	5657
2793.483	5587
2795.362	5591
2797.241	5596
2799.121	5612
2800.997	5669
2802.874	5616
2804.751	5677
2806.628	5533
2808.506	5530
2810.38	5606
2812.255	5613
2814.13	5644
2816.003	5670
2817.878	5566
2819.752	5639
2821.623	5650
2823.496	5558
2825.368	5542
2827.238	5554
2829.111	5585
2830.98	5632
2832.851	5644
2834.719	5609
2836.589	5584
2838.458	5615
2840.327	5605
2842.193	5640
2844.061	5577
2845.927	5632
2847.794	5577
2849.66	5720
2851.525	5692
2853.39	5721
2855.254	5749
2857.117	5558
2858.983	5694
2860.845	5831
2862.707	5720
2864.569	5720
2866.431	5794
2868.293	5804
2870.154	5848
2872.013	5931
2873.873	5781
2875.733	6066
2877.592	5961
2879.451	5925
2881.309	6124
2883.166	6120
2885.022	6108
2886.879	6138
2888.736	6228
2890.591	6110
2892.446	6102
2894.301	6149
2896.155	6256
2898.009	6224
2899.863	6198
2901.716	6029
2903.568	6193
2905.419	6122
2907.27	6122
2909.123	6166
2910.973	6200
2912.824	6322
2914.673	6213
2916.521	6217
2918.372	6376
2920.22	6462
2922.067	6285
2923.914	6471
2925.761	6408
2927.607	6506
2929.455	6496
2931.301	6521
2933.144	6584
2934.99	6545
2936.833	6573
2938.678	6619
2940.522	6663
2942.364	6912
2944.207	6920
2946.048	6871
2947.891	7105
2949.731	6987
2951.571	7075
2953.412	6979
2955.25	6958
2957.09	7042
2958.93	6931
2960.767	6888
2962.606	6782
2964.443	6725
2966.279	6687
2968.116	6450
2969.953	6440
2971.788	6363
2973.623	6357
2975.457	6208
2977.292	6108
2979.127	6190
2980.959	6161
2982.792	6135
2984.624	6029
2986.455	6202
2988.288	5997
2990.119	6020
2991.949	6009
2993.779	5940
2995.608	5842
2997.439	5871
2999.268	5820
3001.096	5748
3002.923	5722
3004.751	5665
3006.578	5740
3008.406	5559
3010.232	5589
3012.057	5580
3013.883	5586
3015.706	5486
3017.532	5526
3019.356	5393
3021.179	5456
3023.002	5419
3024.823	5418
3026.646	5511
3028.469	5374
3030.289	5324
3032.11	5382
3033.93	5386
3035.749	5391
3037.57	5416
3039.39	5341
3041.207	5394
3043.026	5235
3044.842	5293
3046.661	5313
3048.477	5316
3050.294	5409
3052.109	5341
3053.925	5151
3055.739	5216
3057.555	5409
3059.368	5312
3061.181	5297
3062.995	5235
3064.807	5257
3066.62	5236
3068.433	5302
3070.243	5176
3072.054	5335
3073.865	5284
3075.675	5159
3077.485	5236
3079.293	5153
3081.102	5192
3082.911	5176
3084.719	5206
3086.527	5110
3088.333	5175
3090.139	5218
3091.945	5146
3093.75	5073
3095.557	5159
3097.361	5164
3099.165	5198
3100.969	5137
3102.772	5110
3104.575	5142
3106.379	5108
3108.181	4976
3109.982	5002
3111.783	5121
3113.584	5085
3115.386	5068
3117.186	5076
3118.985	5036
3120.783	5104
3122.582	5079
3124.381	5091
3126.179	5103
3127.975	5049
3129.772	5033
3131.569	5011
3133.365	5059
3135.161	5005
3136.956	5024
3138.751	4996
3140.544	4927
3142.338	4965
3144.132	4941
3145.925	5029
3147.717	5001
3149.509	4989
3151.301	4973
3153.091	4971
3154.884	5008
3156.673	4951
3158.462	4876
3160.252	5008
3162.041	4980
3163.831	4967
3165.618	5026
3167.405	4951
3169.193	4909
3170.979	4990
3172.767	4997
3174.553	4789
3176.338	4936
3178.123	4923
3179.907	4853
3181.692	4995
3183.477	4847
3185.259	4919
3187.042	4973
3188.824	4927
3190.607	4854
3192.389	4921
3194.17	4910
3195.951	4788
3197.73	4857
3199.51	4870
3201.289	4896
3203.07	4923
3204.848	4832
3206.626	4931
3208.403	4918
3210.18	4847
3211.959	4883
3213.735	4936
3215.511	4854
3217.285	4767
3219.06	4905
3220.836	4880
3222.611	4776
3224.384	4872
3226.158	4970
3227.929	4880
3229.702	4839
3231.476	4728
3233.248	4912
3235.018	4832
3236.789	4921
3238.56	4850
3240.33	4917
3242.1	4877
3243.869	4826
3245.637	4780
3247.405	4822
3249.172	4921
3250.941	4772
3252.707	4983
3254.474	4766
3256.24	4842
3258.006	4798
3259.772	4933
3261.537	4877
3263.301	4887
3265.065	4846
3266.828	4879
3268.592	4806
3270.355	4845
3272.117	4798
3273.878	4886
3275.64	4755
3277.401	4882
3279.162	4845
3280.922	4833
3282.682	4754
3284.441	4808
3286.199	4890
3287.959	4890
3289.716	4763
3291.475	4794
3293.232	4856
3294.988	4833
3296.744	4934
3298.501	4856
3300.256	4813
3302.011	4862
3303.766	4913
3305.52	4801
3307.275	4814
3309.028	4856
3310.781	4771
3312.533	4747
3314.285	4737
3316.038	4821
3317.789	4924
3319.54	4800
3321.289	4818
3323.039	4778
3324.789	4751
3326.539	4759
3328.288	4755
3330.035	4739
3331.783	4739
3333.531	4824
3335.28	4773
3337.025	4775
3338.771	4715
3340.518	4787
3342.262	4725
3344.009	4723
3345.753	4688
3347.497	4671
3349.24	4723
3350.983	4748
3352.726	4779
3354.469	4774
3356.212	4671
3357.952	4711
3359.694	4702
3361.434	4648
3363.176	4778
3364.916	4715
3366.654	4660
3368.394	4637
3370.132	4641
3371.871	4676
3373.61	4692
3375.346	4676
3377.083	4626
3378.82	4655
3380.556	4641
3382.292	4685
3384.027	4572
3385.763	4528
3387.497	4617
3389.231	4619
3390.965	4625
3392.698	4611
3394.431	4576
3396.164	4648
3397.896	4622
3399.627	4538
3401.36	4611
3403.09	4507
3404.82	4570
3406.55	4526
3408.279	4491
3410.01	4540
3411.738	4628
3413.467	4515
3415.194	4533
3416.92	4567
3418.647	4597
3420.375	4504
3422.102	4501
3423.827	4564
3425.553	4558
3427.277	4568
3429.003	4595
3430.727	4481
3432.451	4519
3434.173	4409
3435.896	4578
3437.62	4465
3439.343	4479
3441.063	4564
3442.785	4489
3444.505	4436
3446.226	4502
3447.948	4410
3449.666	4439
3451.386	4510
3453.104	4451
3454.823	4386
3456.541	4427
3458.259	4428
3459.976	4394
3461.693	4374
3463.408	4405
3465.125	4406
3466.841	4378
3468.556	4326
3470.271	4453
3471.985	4365
3473.698	4392
3475.414	4380
3477.126	4368
3478.838	4322
3480.55	4336
3482.263	4292
3483.975	4274
3485.686	4369
3487.396	4250
3489.106	4320
3490.817	4214
3492.526	4286
3494.236	4257
3495.944	4260
3497.652	4293
3499.359	4265
3501.066	4228
3502.775	4332
3504.481	4233
3506.187	4281
3507.893	4326
3509.598	4248
3511.304	4285
3513.009	4158
3514.713	4188
3516.417	4209
3518.12	4290
3519.821	4220
3521.525	4222
3523.228	4252
3524.929	4143
3526.631	4185
3528.33	4163
3530.032	4150
3531.733	4180
3533.433	4224
3535.131	4170
3536.83	4163
3538.529	4172
3540.227	4071
3541.925	4203
3543.623	4167
3545.319	4115
3547.016	4110
3548.712	4163
3550.408	4110
3552.103	4083
3553.798	4098
3555.491	4038
3557.188	4084
3558.88	4086
3560.574	4084
3562.266	4149
3563.959	4121
3565.651	4042
3567.343	4121
3569.035	4038
3570.725	4095
3572.415	4024
3574.106	4047
3575.797	4124
3577.485	4020
3579.174	4082
3580.863	4029
3582.551	4110
3584.238	4036
3585.926	4050
3587.613	4039
3589.3	4094
3590.986	3999
3592.671	4122
3594.357	4003
3596.042	3996
3597.726	3960
3599.41	3991
3601.094	4021
3602.778	4095
3604.461	4018
3606.143	3946
3607.825	3970
3609.507	3932
3611.188	3915
3612.87	3876
3614.551	3881
3616.229	3852
3617.909	3897
3619.589	3890
3621.269	3899
3622.948	3937
3624.625	3880
3626.302	3989
3627.98	3858
3629.657	3928
3631.334	3887
3633.01	3863
3634.686	3932
3636.361	3815
3638.036	3858
3639.712	3805
3641.385	3752
3643.06	3851
3644.732	3898
3646.405	3826
3648.08	3818
3649.751	3840
3651.424	3842
3653.094	3758
3654.766	3838
3656.436	3780
3658.106	3731
3659.777	3811
3661.446	3883
3663.115	3815
3664.783	3730
3666.452	3803
3668.121	3765
3669.788	3706
3671.454	3831
3673.121	3689
3674.789	3753
3676.455	3764
3678.12	3754
3679.784	3666
3681.45	3767
3683.114	3725
3684.779	3765
3686.442	3743
3688.105	3685
3689.768	3767
3691.43	3808
3693.093	3744
3694.754	3728
3696.415	3685
3698.076	3742
3699.736	3681
3701.396	3713
3703.057	3719
3704.716	3674
3706.375	3632
3708.034	3708
3709.692	3677
3711.351	3708
3713.008	3737
3714.665	3767
3716.321	3592
3717.977	3698
3719.634	3697
3721.29	3717
3722.945	3631
3724.598	3623
3726.253	3707
3727.907	3668
3729.561	3570
3731.214	3676
3732.867	3579
3734.518	3621
3736.171	3651
3737.824	3677
3739.474	3620
3741.125	3675
3742.775	3619
3744.425	3630
3746.074	3679
3747.725	3569
3749.373	3594
3751.022	3596
3752.669	3629
3754.318	3692
3755.966	3598
3757.612	3576
3759.259	3653
3760.905	3551
3762.55	3620
3764.197	3602
3765.842	3583
3767.486	3587
3769.131	3551
3770.774	3641
3772.417	3591
3774.061	3607
3775.705	3540
3777.347	3522
3778.988	3537
3780.629	3628
3782.271	3521
3783.912	3529
3785.552	3512
3787.192	3586
3788.831	3592
3790.472	3567
3792.112	3509
3793.75	3522
3795.388	3509
3797.024	3480
3798.661	3531
3800.3	3450
3801.936	3477
3803.572	3474
3805.208	3456
3806.844	3534
3808.48	3480
3810.115	3453
3811.748	3543
3813.382	3517
3815.016	3480
3816.649	3450
3818.283	3536
3819.914	3472
3821.547	3459
3823.178	3342
3824.809	3500
3826.441	3468
3828.072	3492
3829.701	3423
3831.331	3330
3832.96	3372
3834.591	3422
3836.219	3405
3837.847	3408
3839.475	3434
3841.102	3416
3842.729	3392
3844.357	3465
3845.984	3365
3847.609	3353
3849.234	3322
3850.86	3340
3852.485	3426
3854.11	3429
3855.734	3457
3857.357	3394
3858.981	3420
3860.603	3289
3862.227	3388
3863.848	3315
3865.471	3380
3867.092	3379
3868.713	3410
3870.334	3382
3871.954	3280
3873.575	3373
3875.194	3318
3876.813	3382
3878.433	3292
3880.051	3326
3881.669	3321
3883.286	3345
3884.904	3394
3886.52	3360
3888.138	3292
3889.754	3301
3891.37	3269
3892.985	3336
3894.6	3295
3896.216	3306
3897.831	3316
3899.444	3258
3901.058	3310
3902.67	3356
3904.283	3329
3905.897	3298
3907.509	3256
3909.121	3312
3910.731	3337
3912.342	3334
3913.954	3306
3915.563	3292
3917.174	3278
3918.783	3251
3920.391	3291
3922.002	3251
3923.611	3314
3925.218	3209
3926.826	3249
3928.432	3273
3930.039	3267
3931.647	3261
3933.253	3248
3934.859	3247
3936.464	3274
3938.068	3295
3939.675	3269
3941.278	3170
3942.883	3237
3944.486	3328
3946.089	3294
3947.692	3224
3949.295	3190
3950.898	3195
3952.499	3250
3954.1	3249
3955.7	3270
3957.303	3155
3958.903	3125
3960.502	3210
3962.101	3139
3963.7	3210
3965.301	3123
3966.899	3193
3968.497	3233
3970.094	3233
3971.691	3160
3973.288	3158
3974.885	3167
3976.481	3213
3978.077	3207
3979.672	3174
3981.267	3172
3982.863	3169
3984.457	3178
3986.051	3160
3987.645	3130
3989.238	3069
3990.831	3188
3992.425	3127
3994.017	3157
3995.607	3189
3997.199	3153
3998.79	3141
4000.382	3134
4001.973	3074
4003.561	3064
4005.151	3091
4006.741	3104
4008.331	3080
4009.918	3042
4011.507	3155
4013.095	3091
4014.681	3099
4016.269	3108
4017.856	3035
4019.443	3006
4021.028	3126
4022.614	3024
4024.199	3095
4025.785	2997
4027.37	2983
4028.953	3056
4030.536	2991
4032.12	3049
4033.704	2928
4035.287	3018
4036.869	2968
4038.45	2977
4040.032	3058
4041.613	3055
4043.195	2970
4044.776	3010
4046.356	2987
4047.935	3019
4049.515	2917
4051.095	2989
4052.674	3043
4054.251	2960
4055.829	2954
4057.406	2917
4058.985	2952
4060.562	2935
4062.139	2966
4063.715	2929
4065.29	2991
4066.865	2898
4068.442	2942
4070.016	2931
4071.59	2918
4073.164	2932
4074.738	2978
4076.312	2923
4077.885	2956
4079.458	2973
4081.03	2929
4082.602	2966
4084.173	2913
4085.745	2881
4087.315	2923
4088.886	2881
4090.456	2905
4092.026	2874
4093.596	2919
4095.165	2937
4096.734	2928
4098.301	2853
4099.869	2895
4101.437	2857
4103.006	2891
4104.572	2834
4106.139	2903
4107.704	2953
4109.27	2947
4110.837	2871
4112.401	2834
4113.966	2915
4115.53	2905
4117.094	2833
4118.659	2817
4120.223	2883
4121.785	2856
4123.347	2878
4124.909	2793
4126.471	2855
4128.034	2847
4129.595	2833
4131.155	2840
4132.716	2877
4134.275	2834
4135.836	2797
4137.395	2813
4138.955	2829
4140.513	2851
4142.071	2840
4143.628	2824
4145.188	2801
4146.745	2749
4148.302	2795
4149.858	2793
4151.414	2709
4152.971	2826
4154.526	2749
4156.081	2776
4157.635	2760
4159.189	2847
4160.745	2706
4162.298	2821
4163.852	2696
4165.405	2710
4166.957	2770
4168.51	2769
4170.063	2777
4171.614	2779
4173.166	2741
4174.717	2725
4176.267	2715
4177.817	2689
4179.368	2723
4180.917	2737
4182.466	2740
4184.016	2737
4185.564	2744
4187.112	2723
4188.66	2675
4190.207	2676
4191.754	2709
4193.301	2688
4194.848	2697
4196.394	2772
4197.94	2641
4199.484	2669
4201.03	2700
4202.575	2659
4204.12	2689
4205.663	2623
4207.207	2684
4208.75	2775
4210.292	2677
4211.836	2688
4213.378	2732
4214.92	2644
4216.46	2649
4218.002	2725
4219.544	2622
4221.083	2668
4222.625	2614
4224.164	2588
4225.703	2665
4227.244	2656
4228.782	2643
4230.32	2703
4231.857	2658
4233.395	2621
4234.933	2573
4236.471	2705
4238.007	2624
4239.542	2638
4241.078	2659
4242.614	2601
4244.15	2624
4245.685	2665
4247.219	2645
4248.753	2603
4250.287	2636
4251.82	2593
4253.354	2578
4254.887	2682
4256.419	2573
4257.951	2577
4259.483	2562
4261.016	2545
4262.547	2586
4264.078	2617
4265.608	2573
4267.137	2612
4268.668	2603
4270.197	2544
4271.727	2553
4273.254	2567
4274.783	2597
4276.311	2564
4277.84	2579
4279.366	2532
4280.894	2614
4282.42	2615
4283.946	2541
4285.473	2579
4286.998	2496
4288.523	2531
4290.047	2549
4291.572	2561
4293.096	2532
4294.622	2509
4296.144	2536
4297.668	2497
4299.19	2534
4300.713	2525
4302.236	2504
4303.758	2499
4305.279	2485
4306.799	2477
4308.321	2522
4309.842	2516
4311.361	2524
4312.882	2504
4314.401	2489
