400.0961	3607
402.6185	3551
405.1424	3583
407.6635	3661
410.1838	3651
412.7035	3734
415.2225	3669
417.7388	3719
420.2585	3729
422.7754	3796
425.2917	3802
427.8072	3896
430.3221	3889
432.8363	3949
435.3498	3839
437.8626	3861
440.3727	3848
442.8841	3928
445.3969	3874
447.907	3938
450.4142	3930
452.9229	3916
455.4289	3886
457.9362	3910
460.4449	3931
462.9488	3908
465.454	3924
467.9566	3890
470.4604	3883
472.9637	3979
475.4662	3921
477.966	3895
480.4671	3848
482.9656	4007
485.4633	3939
487.9645	3950
490.4608	3981
492.9566	3957
495.4536	4000
497.948	3966
500.4437	3996
502.9387	3931
505.431	4087
507.9226	4102
510.4136	4075
512.9079	4067
515.3975	4016
517.8864	4098
520.3746	4001
522.8622	3979
525.3491	4082
527.8394	4078
530.3249	4076
532.8098	4075
535.2939	4025
537.7774	4054
540.2623	4132
542.7444	4088
545.2259	4115
547.7067	4018
550.1868	4128
552.6683	4121
555.147	4045
557.6231	4076
560.1005	4181
562.5773	4175
565.0534	4073
567.5308	4231
570.0056	4085
572.4776	4091
574.951	4246
577.4237	4208
579.8978	4205
582.3671	4273
584.8378	4209
587.3079	4342
589.7773	4361
592.244	4321
594.714	4203
597.1793	4193
599.6461	4311
602.1121	4214
604.5754	4212
607.0421	4159
609.5042	4172
611.9675	4263
614.4282	4211
616.8902	4164
619.3515	4230
621.8122	4298
624.2702	4253
626.7296	4195
629.1863	4259
631.6423	4212
634.1017	4151
636.5563	4192
639.0104	4221
641.4658	4269
643.9185	4242
646.3725	4202
648.8239	4222
651.2766	4238
653.7266	4220
656.176	4262
658.6247	4207
661.0748	4246
663.5242	4346
665.9709	4331
668.417	4279
670.8624	4337
673.3092	4335
675.7533	4350
678.1968	4379
680.6395	4323
683.0817	4411
685.5251	4390
687.9659	4319
690.4061	4434
692.8456	4382
695.2844	4441
697.7226	4383
700.1621	4428
702.599	4434
705.0332	4460
707.4688	4393
709.9036	4421
712.3399	4514
714.7735	4460
717.2044	4470
719.6367	4436
722.0683	4497
724.4993	4445
726.9296	4484
729.3593	4483
731.7883	4524
734.2147	4496
736.6423	4576
739.0714	4631
741.4958	4568
743.9216	4663
746.3447	4635
748.7691	4628
751.1929	4568
753.616	4528
756.0366	4642
758.4584	4589
760.8776	4547
763.2982	4722
765.718	4734
768.1373	4673
770.5539	4698
772.9698	4655
775.3871	4718
777.8038	4676
780.2178	4771
782.6332	4741
785.0459	4626
787.458	4689
789.8714	4646
792.2842	4698
794.6943	4644
797.1038	4662
799.5127	4684
801.9209	4729
804.3324	4725
806.7393	4707
809.1456	4689
811.5513	4657
813.9562	4717
816.3625	4682
818.7663	4677
821.1693	4742
823.5718	4800
825.9735	4864
828.3746	4738
830.7771	4734
833.177	4737
835.5762	4845
837.9747	4771
840.3727	4848
842.772	4826
845.1666	4787
847.5626	4833
849.958	4906
852.3527	4928
854.7488	4874
857.1403	4860
859.5331	4843
861.9253	4854
864.3168	4898
866.7057	4723
869.098	4880
871.4876	4801
873.8746	4919
876.263	4852
878.6487	4769
881.0378	4896
883.4243	4784
885.8081	4890
888.1933	4875
890.5759	4870
892.9598	4900
895.343	4826
897.7256	4834
900.1057	4873
902.4871	4846
904.8659	4777
907.246	4872
909.6254	4848
912.0023	4919
914.3786	4948
916.7562	5043
919.1331	5009
921.5074	5112
923.8831	5067
926.2562	5127
928.6287	5133
931.0005	5146
933.3757	5168
935.7462	5107
938.1162	5150
940.4855	5217
942.8542	5179
945.2242	5189
947.5916	5232
949.9584	5329
952.3266	5466
954.6921	5575
957.0571	5739
959.4233	5850
961.787	5959
964.15	6010
966.5125	5917
968.8742	5585
971.2354	5556
973.5959	5407
975.9559	5314
978.3151	5236
980.6738	5144
983.0338	5145
985.3912	5117
987.7461	5080
990.1022	5118
992.4578	5018
994.8127	5085
997.1689	5094
999.5207	5024
1001.874	4976
1004.226	5011
1006.576	5007
1008.929	5162
1011.28	5166
1013.628	5023
1015.977	5047
1018.324	5143
1020.674	5076
1023.019	5118
1025.366	5159
1027.713	5072
1030.056	5085
1032.399	5098
1034.746	5109
1037.087	5133
1039.431	5163
1041.771	5206
1044.113	5176
1046.454	5091
1048.793	5112
1051.133	5040
1053.471	5222
1055.807	5121
1058.146	5192
1060.483	5200
1062.818	5149
1065.153	5118
1067.489	5183
1069.822	5218
1072.156	5244
1074.488	5245
1076.82	5178
1079.15	5185
1081.48	5195
1083.814	5217
1086.143	5189
1088.471	5213
1090.799	5152
1093.126	5269
1095.452	5190
1097.78	5177
1100.105	5215
1102.43	5215
1104.754	5199
1107.077	5128
1109.4	5151
1111.722	5116
1114.044	5137
1116.365	5152
1118.685	5189
1121.005	5289
1123.324	5142
1125.643	5185
1127.961	5257
1130.278	5267
1132.595	5207
1134.911	5226
1137.226	5165
1139.541	5239
1141.854	5206
1144.167	5144
1146.482	5166
1148.793	5203
1151.105	5124
1153.414	5119
1155.725	5254
1158.033	5268
1160.344	5197
1162.651	5185
1164.959	5143
1167.265	5281
1169.572	5202
1171.878	5319
1174.184	5125
1176.488	5203
1178.79	5184
1181.094	5314
1183.396	5249
1185.699	5247
1188.001	5226
1190.301	5178
1192.6	5180
1194.9	5196
1197.2	5154
1199.497	5175
1201.794	5242
1204.09	5193
1206.387	5208
1208.684	5287
1210.978	5299
1213.272	5178
1215.565	5333
1217.858	5308
1220.15	5271
1222.443	5304
1224.734	5255
1227.024	5325
1229.313	5266
1231.602	5323
1233.892	5310
1236.18	5253
1238.467	5403
1240.754	5435
1243.04	5393
1245.325	5425
1247.612	5348
1249.896	5372
1252.178	5544
1254.461	5437
1256.743	5452
1259.027	5347
1261.308	5420
1263.587	5261
1265.867	5437
1268.146	5403
1270.425	5480
1272.703	5526
1274.981	5514
1277.256	5471
1279.532	5441
1281.808	5386
1284.083	5350
1286.358	5355
1288.63	5325
1290.904	5264
1293.175	5382
1295.449	5354
1297.719	5412
1299.99	5398
1302.259	5368
1304.529	5295
1306.798	5348
1309.065	5339
1311.333	5382
1313.599	5327
1315.866	5371
1318.131	5353
1320.396	5333
1322.66	5348
1324.925	5352
1327.187	5355
1329.448	5388
1331.711	5345
1333.974	5401
1336.234	5357
1338.493	5504
1340.752	5402
1343.01	5423
1345.269	5386
1347.526	5329
1349.784	5308
1352.04	5360
1354.295	5318
1356.552	5359
1358.806	5411
1361.059	5408
1363.312	5415
1365.564	5399
1367.818	5354
1370.069	5491
1372.318	5378
1374.568	5310
1376.817	5461
1379.066	5374
1381.316	5411
1383.564	5451
1385.809	5458
1388.056	5479
1390.301	5504
1392.549	5453
1394.793	5482
1397.036	5507
1399.279	5480
1401.522	5530
1403.763	5641
1406.007	5500
1408.248	5548
1410.487	5511
1412.727	5596
1414.965	5589
1417.205	5491
1419.442	5501
1421.68	5464
1423.915	5490
1426.152	5564
1428.388	5582
1430.623	5527
1432.857	5569
1435.091	5654
1437.323	5562
1439.556	5523
1441.789	5649
1444.019	5675
1446.25	5598
1448.48	5645
1450.708	5609
1452.938	5682
1455.167	5707
1457.394	5715
1459.62	5630
1461.846	5649
1464.073	5625
1466.299	5536
1468.523	5664
1470.746	5589
1472.969	5538
1475.191	5568
1477.415	5587
1479.636	5523
1481.858	5478
1484.078	5661
1486.298	5498
1488.518	5460
1490.736	5327
1492.954	5433
1495.169	5406
1497.386	5316
1499.602	5499
1501.819	5398
1504.034	5346
1506.248	5458
1508.462	5374
1510.675	5445
1512.888	5397
1515.1	5417
1517.311	5366
1519.522	5351
1521.732	5457
1523.942	5369
1526.151	5402
1528.36	5388
1530.566	5365
1532.773	5486
1534.98	5349
1537.187	5470
1539.392	5513
1541.596	5458
1543.801	5432
1546.005	5312
1548.208	5432
1550.411	5520
1552.612	5417
1554.814	5493
1557.013	5446
1559.212	5479
1561.414	5518
1563.612	5521
1565.811	5460
1568.007	5584
1570.203	5480
1572.403	5527
1574.598	5512
1576.792	5469
1578.988	5513
1581.181	5527
1583.376	5554
1585.568	5638
1587.761	5604
1589.952	5556
1592.143	5515
1594.333	5699
1596.524	5578
1598.715	5509
1600.903	5630
1603.091	5666
1605.278	5631
1607.466	5543
1609.652	5618
1611.838	5645
1614.023	5603
1616.207	5560
1618.391	5507
1620.576	5595
1622.759	5584
1624.941	5538
1627.123	5610
1629.304	5637
1631.484	5604
1633.664	5698
1635.844	5648
1638.022	5605
1640.201	5580
1642.38	5613
1644.556	5710
1646.732	5747
1648.908	5622
1651.084	5654
1653.257	5629
1655.433	5699
1657.607	5653
1659.779	5643
1661.951	5660
1664.122	5606
1666.295	5669
1668.467	5654
1670.635	5646
1672.805	5733
1674.973	5656
1677.142	5722
1679.31	5613
1681.478	5669
1683.644	5713
1685.81	5716
1687.975	5649
1690.142	5757
1692.305	5554
1694.468	5566
1696.632	5697
1698.794	5549
1700.957	5659
1703.119	5549
1705.279	5566
1707.439	5490
1709.598	5547
1711.758	5617
1713.917	5634
1716.075	5595
1718.231	5646
1720.388	5580
1722.543	5627
1724.702	5546
1726.856	5570
1729.01	5530
1731.164	5605
1733.317	5635
1735.471	5552
1737.623	5596
1739.774	5630
1741.925	5600
1744.075	5551
1746.225	5477
1748.376	5622
1750.524	5628
1752.672	5622
1754.82	5607
1756.965	5600
1759.113	5666
1761.259	5539
1763.405	5555
1765.549	5584
1767.694	5600
1769.836	5643
1771.981	5579
1774.123	5680
1776.264	5657
1778.405	5593
1780.546	5564
1782.687	5557
1784.827	5660
1786.966	5517
1789.103	5698
1791.242	5629
1793.381	5560
1795.517	5723
1797.653	5605
1799.788	5642
1801.923	5636
1804.057	5683
1806.193	5625
1808.326	5618
1810.457	5628
1812.59	5676
1814.721	5621
1816.855	5600
1818.984	5759
1821.113	5718
1823.244	5583
1825.372	5604
1827.499	5627
1829.63	5654
1831.756	5585
1833.882	5653
1836.007	5558
1838.132	5603
1840.26	5626
1842.384	5612
1844.507	5636
1846.63	5624
1848.752	5631
1850.875	5629
1852.996	5633
1855.118	5714
1857.238	5545
1859.358	5653
1861.477	5605
1863.597	5663
1865.715	5617
1867.832	5568
1869.948	5658
1872.064	5509
1874.181	5587
1876.297	5517
1878.411	5620
1880.526	5620
1882.639	5562
1884.752	5596
1886.865	5675
1888.977	5525
1891.089	5643
1893.2	5574
1895.308	5596
1897.42	5569
1899.53	5652
1901.639	5717
1903.745	5540
1905.853	5689
1907.962	5578
1910.067	5555
1912.174	5566
1914.278	5585
1916.383	5654
1918.486	5649
1920.592	5639
1922.694	5699
1924.797	5703
1926.898	5590
1929	5662
1931.102	5653
1933.203	5715
1935.301	5754
1937.401	5627
1939.499	5748
1941.598	5682
1943.697	5673
1945.793	5634
1947.888	5718
1949.985	5674
1952.08	5713
1954.176	5596
1956.269	5802
1958.364	5699
1960.457	5770
1962.549	5607
1964.642	5677
1966.733	5661
1968.823	5629
1970.913	5582
1973.005	5584
1975.093	5589
1977.184	5665
1979.271	5640
1981.359	5591
1983.446	5539
1985.532	5569
1987.619	5707
1989.705	5666
1991.789	5618
1993.874	5602
1995.956	5755
1998.041	5610
2000.123	5662
2002.206	5597
2004.287	5603
2006.368	5476
2008.449	5569
2010.529	5575
2012.609	5637
2014.688	5646
2016.766	5548
2018.843	5590
2020.922	5669
2022.999	5640
2025.074	5664
2027.15	5658
2029.225	5696
2031.299	5661
2033.375	5563
2035.447	5572
2037.52	5610
2039.592	5633
2041.664	5599
2043.736	5519
2045.807	5600
2047.876	5675
2049.947	5608
2052.015	5655
2054.086	5639
2056.153	5628
2058.221	5565
2060.288	5636
2062.353	5551
2064.42	5646
2066.486	5589
2068.55	5719
2070.614	5626
2072.678	5554
2074.741	5584
2076.805	5652
2078.866	5580
2080.929	5563
2082.99	5567
2085.049	5632
2087.109	5628
2089.17	5559
2091.228	5657
2093.286	5587
2095.344	5602
2097.4	5631
2099.46	5680
2101.516	5655
2103.572	5767
2105.626	5801
2107.679	5670
2109.735	5628
2111.788	5479
2113.841	5581
2115.894	5523
2117.945	5586
2119.997	5694
2122.049	5599
2124.1	5542
2126.148	5683
2128.197	5518
2130.246	5641
2132.296	5601
2134.342	5699
2136.39	5610
2138.437	5629
2140.483	5562
2142.527	5542
2144.574	5587
2146.619	5564
2148.661	5536
2150.705	5596
2152.747	5483
2154.792	5573
2156.832	5564
2158.874	5553
2160.915	5543
2162.954	5607
2164.995	5569
2167.034	5512
2169.072	5532
2171.111	5474
2173.148	5509
2175.186	5565
2177.223	5551
2179.258	5580
2181.294	5537
2183.328	5543
2185.362	5469
2187.398	5457
2189.431	5369
2191.463	5493
2193.495	5507
2195.528	5504
2197.56	5525
2199.59	5486
2201.62	5356
2203.649	5455
2205.678	5458
2207.708	5450
2209.737	5479
2211.764	5441
2213.791	5561
2215.817	5447
2217.843	5428
2219.87	5491
2221.895	5327
2223.919	5366
2225.942	5529
2227.966	5495
2229.988	5377
2232.012	5454
2234.032	5520
2236.054	5482
2238.074	5467
2240.095	5450
2242.116	5443
2244.135	5436
2246.153	5512
2248.171	5430
2250.188	5364
2252.208	5454
2254.223	5482
2256.239	5380
2258.255	5370
2260.269	5407
2262.283	5384
2264.3	5439
2266.312	5440
2268.325	5431
2270.336	5493
2272.349	5377
2274.362	5492
2276.372	5467
2278.383	5332
2280.392	5545
2282.402	5359
2284.409	5364
2286.418	5428
2288.427	5430
2290.433	5428
2292.441	5467
2294.446	5446
2296.453	5336
2298.459	5550
2300.463	5436
2302.466	5409
2304.471	5371
2306.475	5316
2308.477	5319
2310.478	5345
2312.481	5469
2314.481	5301
2316.481	5383
2318.482	5344
2320.482	5438
2322.48	5324
2324.48	5417
2326.478	5396
2328.476	5351
2330.473	5337
2332.469	5301
2334.465	5425
2336.46	5347
2338.454	5389
2340.45	5401
2342.444	5283
2344.437	5309
2346.43	5292
2348.421	5387
2350.414	5325
2352.405	5257
2354.396	5295
2356.386	5361
2358.376	5307
2360.366	5366
2362.355	5308
2364.343	5311
2366.331	5362
2368.317	5380
2370.304	5253
2372.292	5426
2374.278	5258
2376.262	5394
2378.247	5361
2380.23	5198
2382.216	5366
2384.199	5266
2386.181	5290
2388.163	5339
2390.144	5217
2392.127	5321
2394.107	5218
2396.087	5298
2398.066	5181
2400.046	5307
2402.023	5208
2404.004	5249
2405.981	5238
2407.957	5207
2409.934	5214
2411.91	5141
2413.886	5262
2415.862	5210
2417.836	5221
2419.809	5275
2421.784	5182
2423.756	5172
2425.73	5260
2427.701	5266
2429.672	5186
2431.644	5160
2433.615	5197
2435.586	5245
2437.555	5394
2439.523	5193
2441.491	5223
2443.459	5114
2445.428	5157
2447.395	5177
2449.361	5296
2451.327	5246
2453.292	5196
2455.257	5149
2457.223	5325
2459.187	5190
2461.15	5176
2463.113	5299
2465.076	5209
2467.039	5192
2468.999	5135
2470.96	5134
2472.921	5171
2474.881	5095
2476.841	5138
2478.8	5153
2480.759	5200
2482.717	5143
2484.675	5233
2486.63	5093
2488.589	5064
2490.545	5114
2492.5	5117
2494.455	5147
2496.408	5172
2498.364	5174
2500.318	5188
2502.27	5047
2504.223	5099
2506.174	5143
2508.126	5183
2510.078	5079
2512.03	5121
2513.979	5063
2515.927	5058
2517.877	5135
2519.826	5217
2521.775	5125
2523.722	5097
2525.668	5106
2527.616	5109
2529.561	5101
2531.508	5068
2533.452	5143
2535.398	5094
2537.342	5132
2539.284	5067
2541.229	5027
2543.173	5103
2545.114	5050
2547.055	5062
2548.996	5193
2550.938	5129
2552.878	5073
2554.817	5115
2556.756	5064
2558.695	5064
2560.633	5156
2562.572	5069
2564.509	5122
2566.445	5142
2568.382	5103
2570.317	5060
2572.254	5144
2574.189	5286
2576.123	5081
2578.057	5007
2579.99	5130
2581.923	5146
2583.855	5145
2585.788	5126
2587.719	5108
2589.65	5199
2591.579	4914
2593.511	5108
2595.44	5179
2597.37	5080
2599.297	5163
2601.225	5100
2603.153	5122
2605.08	5066
2607.007	5129
2608.932	5096
2610.858	5134
2612.782	5112
2614.709	5197
2616.632	5086
2618.556	5188
2620.478	5148
2622.401	5075
2624.324	5134
2626.247	5065
2628.167	5145
2630.088	5041
2632.008	5110
2633.928	5201
2635.848	5009
2637.766	5066
2639.684	5068
2641.603	5089
2643.519	5111
2645.437	4964
2647.353	5073
2649.27	5167
2651.184	5104
2653.099	5069
2655.014	5053
2656.928	5071
2658.842	5116
2660.755	5120
2662.667	5051
2664.579	5094
2666.491	5177
2668.402	5053
2670.312	5047
2672.222	5086
2674.132	5002
2676.042	5127
2677.951	5111
2679.859	4995
2681.766	5002
2683.674	5093
2685.582	5033
2687.488	5004
2689.392	4878
2691.298	5030
2693.202	4896
2695.107	5057
2697.012	5064
2698.914	5004
2700.817	4957
2702.72	4980
2704.622	5023
2706.524	4987
2708.425	4932
2710.326	4901
2712.225	4999
2714.125	4924
2716.024	5010
2717.923	4964
2719.822	5017
2721.719	4959
2723.616	5000
2725.512	4945
2727.41	4975
2729.305	5028
2731.201	5005
2733.095	4859
2734.99	5021
2736.884	4954
2738.778	5011
2740.67	4942
2742.562	4890
2744.455	5022
2746.346	4939
2748.238	4922
2750.129	4943
2752.018	4969
2753.907	4903
2755.797	4975
2757.687	4914
2759.575	4879
2761.462	4937
2763.349	4922
2765.237	4938
2767.124	4916
2769.009	4958
2770.894	4896
2772.779	4832
2774.663	4938
2776.547	4921
2778.431	4825
2780.314	4885
2782.197	4902
2784.078	4851
2785.96	4836
2787.842	4841
2789.723	4925
2791.603	4977
2793.483	4795
2795.362	4939
2797.241	4918
2799.121	4840
2800.997	4807
2802.874	4893
2804.751	4839
2806.628	4884
2808.506	4843
2810.38	4809
2812.255	4824
2814.13	4903
2816.003	4820
2817.878	4861
2819.752	4880
2821.623	4877
2823.496	4835
2825.368	4913
2827.238	4818
2829.111	4830
2830.98	4935
2832.851	4915
2834.719	4933
2836.589	4941
2838.458	4907
2840.327	4826
2842.193	4759
2844.061	4915
2845.927	4919
2847.794	4889
2849.66	4873
2851.525	4870
2853.39	4869
2855.254	4915
2857.117	4816
2858.983	4951
2860.845	4949
2862.707	4967
2864.569	4911
2866.431	4987
2868.293	4883
2870.154	4966
2872.013	4984
2873.873	5030
2875.733	5016
2877.592	5039
2879.451	5057
2881.309	5115
2883.166	4983
2885.022	5219
2886.879	5195
2888.736	5201
2890.591	5241
2892.446	5124
2894.301	5154
2896.155	5201
2898.009	5230
2899.863	5092
2901.716	5137
2903.568	5221
2905.419	5086
2907.27	5131
2909.123	5135
2910.973	5067
2912.824	5306
2914.673	5296
2916.521	5300
2918.372	5273
2920.22	5341
2922.067	5357
2923.914	5311
2925.761	5322
2927.607	5338
2929.455	5408
2931.301	5535
2933.144	5498
2934.99	5450
2936.833	5510
2938.678	5582
2940.522	5573
2942.364	5689
2944.207	5598
2946.048	5651
2947.891	5771
2949.731	5742
2951.571	5677
2953.412	5547
2955.25	5591
2957.09	5586
2958.93	5656
2960.767	5634
2962.606	5556
2964.443	5508
2966.279	5307
2968.116	5438
2969.953	5237
2971.788	5322
2973.623	5300
2975.457	5219
2977.292	5224
2979.127	5232
2980.959	5173
2982.792	5166
2984.624	5155
2986.455	5196
2988.288	5078
2990.119	5121
2991.949	5039
2993.779	5166
2995.608	5128
2997.439	4971
2999.268	5028
3001.096	4885
3002.923	4938
3004.751	4795
3006.578	4765
3008.406	4878
3010.232	4774
3012.057	4772
3013.883	4792
3015.706	4647
3017.532	4651
3019.356	4759
3021.179	4778
3023.002	4620
3024.823	4670
3026.646	4615
3028.469	4647
3030.289	4725
3032.11	4543
3033.93	4566
3035.749	4576
3037.57	4564
3039.39	4503
3041.207	4642
3043.026	4531
3044.842	4588
3046.661	4555
3048.477	4559
3050.294	4554
3052.109	4522
3053.925	4543
3055.739	4498
3057.555	4578
3059.368	4559
3061.181	4606
3062.995	4577
3064.807	4503
3066.62	4564
3068.433	4520
3070.243	4553
3072.054	4552
3073.865	4532
3075.675	4507
3077.485	4522
3079.293	4480
3081.102	4642
3082.911	4507
3084.719	4433
3086.527	4533
3088.333	4472
3090.139	4516
3091.945	4402
3093.75	4511
3095.557	4439
3097.361	4412
3099.165	4530
3100.969	4478
3102.772	4477
3104.575	4502
3106.379	4409
3108.181	4380
3109.982	4498
3111.783	4394
3113.584	4355
3115.386	4372
3117.186	4392
3118.985	4396
3120.783	4313
3122.582	4399
3124.381	4367
3126.179	4310
3127.975	4477
3129.772	4335
3131.569	4346
3133.365	4328
3135.161	4306
3136.956	4233
3138.751	4403
3140.544	4307
3142.338	4204
3144.132	4335
3145.925	4430
3147.717	4249
3149.509	4252
3151.301	4317
3153.091	4400
3154.884	4301
3156.673	4311
3158.462	4346
3160.252	4363
3162.041	4297
3163.831	4304
3165.618	4284
3167.405	4280
3169.193	4243
3170.979	4395
3172.767	4301
3174.553	4281
3176.338	4348
3178.123	4190
3179.907	4325
3181.692	4296
3183.477	4215
3185.259	4263
3187.042	4211
3188.824	4193
3190.607	4168
3192.389	4210
3194.17	4238
3195.951	4297
3197.73	4246
3199.51	4272
3201.289	4279
3203.07	4230
3204.848	4195
3206.626	4201
3208.403	4211
3210.18	4116
3211.959	4201
3213.735	4214
3215.511	4286
3217.285	4250
3219.06	4193
3220.836	4207
3222.611	4204
3224.384	4233
3226.158	4145
3227.929	4153
3229.702	4212
3231.476	4277
3233.248	4221
3235.018	4178
3236.789	4137
3238.56	4212
3240.33	4174
3242.1	4276
3243.869	4221
3245.637	4173
3247.405	4143
3249.172	4175
3250.941	4292
3252.707	4110
3254.474	4161
3256.24	4221
3258.006	4148
3259.772	4208
3261.537	4267
3263.301	4231
3265.065	4205
3266.828	4167
3268.592	4203
3270.355	4188
3272.117	4255
3273.878	4113
3275.64	4178
3277.401	4219
3279.162	4273
3280.922	4213
3282.682	4101
3284.441	4207
3286.199	4181
3287.959	4153
3289.716	4173
3291.475	4133
3293.232	4195
3294.988	4180
3296.744	4214
3298.501	4190
3300.256	4102
3302.011	4193
3303.766	4150
3305.52	4186
3307.275	4147
3309.028	4118
3310.781	4067
3312.533	4236
3314.285	4068
3316.038	4149
3317.789	4059
3319.54	4119
3321.289	4083
3323.039	4122
3324.789	4142
3326.539	4259
3328.288	4093
3330.035	4083
3331.783	4191
3333.531	4134
3335.28	4125
3337.025	4085
3338.771	4077
3340.518	4108
3342.262	4064
3344.009	4127
3345.753	4012
3347.497	4056
3349.24	4087
3350.983	4023
3352.726	4060
3354.469	3953
3356.212	4041
3357.952	4141
3359.694	4171
3361.434	4008
3363.176	3987
3364.916	4011
3366.654	4013
3368.394	4046
3370.132	4087
3371.871	4079
3373.61	4038
3375.346	4025
3377.083	3894
3378.82	4074
3380.556	3981
3382.292	4044
3384.027	3993
3385.763	4055
3387.497	4053
3389.231	3960
3390.965	4107
3392.698	3942
3394.431	3950
3396.164	3939
3397.896	4001
3399.627	4025
3401.36	3984
3403.09	3956
3404.82	3991
3406.55	3920
3408.279	3953
3410.01	3993
3411.738	3928
3413.467	3978
3415.194	3942
3416.92	3849
3418.647	3986
3420.375	3963
3422.102	3862
3423.827	3970
3425.553	3941
3427.277	3871
3429.003	3922
3430.727	3883
3432.451	3945
3434.173	3915
3435.896	3925
3437.62	3963
3439.343	3879
3441.063	3914
3442.785	3957
3444.505	3861
3446.226	3831
3447.948	3909
3449.666	3959
3451.386	3877
3453.104	3917
3454.823	3918
3456.541	3841
3458.259	3878
3459.976	3867
3461.693	3902
3463.408	3850
3465.125	3833
3466.841	3779
3468.556	3821
3470.271	3827
3471.985	3731
3473.698	3818
3475.414	3890
3477.126	3766
3478.838	3820
3480.55	3804
3482.263	3835
3483.975	3838
3485.686	3854
3487.396	3647
3489.106	3753
3490.817	3723
3492.526	3753
3494.236	3755
3495.944	3730
3497.652	3733
3499.359	3659
3501.066	3726
3502.775	3692
3504.481	3749
3506.187	3727
3507.893	3787
3509.598	3677
3511.304	3768
3513.009	3746
3514.713	3644
3516.417	3696
3518.12	3692
3519.821	3743
3521.525	3709
3523.228	3665
3524.929	3676
3526.631	3661
3528.33	3629
3530.032	3666
3531.733	3680
3533.433	3680
3535.131	3641
3536.83	3688
3538.529	3562
3540.227	3608
3541.925	3596
3543.623	3619
3545.319	3605
3547.016	3664
3548.712	3554
3550.408	3643
3552.103	3636
3553.798	3624
3555.491	3611
3557.188	3599
3558.88	3586
3560.574	3553
3562.266	3579
3563.959	3557
3565.651	3607
3567.343	3539
3569.035	3609
3570.725	3540
3572.415	3545
3574.106	3512
3575.797	3594
3577.485	3497
3579.174	3546
3580.863	3523
3582.551	3601
3584.238	3534
3585.926	3501
3587.613	3500
3589.3	3583
3590.986	3492
3592.671	3438
3594.357	3580
3596.042	3413
3597.726	3540
3599.41	3515
3601.094	3421
3602.778	3501
3604.461	3533
3606.143	3414
3607.825	3433
3609.507	3437
3611.188	3377
3612.87	3439
3614.551	3372
3616.229	3392
3617.909	3398
3619.589	3435
3621.269	3453
3622.948	3376
3624.625	3421
3626.302	3323
3627.98	3300
3629.657	3399
3631.334	3312
3633.01	3407
3634.686	3385
3636.361	3372
3638.036	3343
3639.712	3287
3641.385	3346
3643.06	3290
3644.732	3352
3646.405	3395
3648.08	3320
3649.751	3408
3651.424	3369
3653.094	3408
3654.766	3365
3656.436	3364
3658.106	3320
3659.777	3310
3661.446	3296
3663.115	3337
3664.783	3326
3666.452	3335
3668.121	3345
3669.788	3271
3671.454	3292
3673.121	3280
3674.789	3332
3676.455	3270
3678.12	3290
3679.784	3288
3681.45	3305
3683.114	3301
3684.779	3234
3686.442	3297
3688.105	3266
3689.768	3224
3691.43	3265
3693.093	3213
3694.754	3267
3696.415	3193
3698.076	3289
3699.736	3281
3701.396	3300
3703.057	3222
3704.716	3180
3706.375	3184
3708.034	3170
3709.692	3262
3711.351	3245
3713.008	3206
3714.665	3229
3716.321	3169
3717.977	3217
3719.634	3257
3721.29	3216
3722.945	3289
3724.598	3204
3726.253	3156
3727.907	3208
3729.561	3219
3731.214	3240
3732.867	3195
3734.518	3178
3736.171	3197
3737.824	3267
3739.474	3129
3741.125	3124
3742.775	3190
3744.425	3107
3746.074	3177
3747.725	3194
3749.373	3153
3751.022	3168
3752.669	3159
3754.318	3247
3755.966	3150
3757.612	3127
3759.259	3251
3760.905	3184
3762.55	3186
3764.197	3175
3765.842	3176
3767.486	3158
3769.131	3122
3770.774	3132
3772.417	3056
3774.061	3127
3775.705	3091
3777.347	3085
3778.988	3067
3780.629	3050
3782.271	3110
3783.912	3078
3785.552	3133
3787.192	3139
3788.831	3084
3790.472	3049
3792.112	3054
3793.75	3094
3795.388	2999
3797.024	2980
3798.661	3106
3800.3	3020
3801.936	3022
3803.572	3003
3805.208	3016
3806.844	3086
3808.48	3036
3810.115	3038
3811.748	3056
3813.382	2989
3815.016	3036
3816.649	3078
3818.283	3019
3819.914	3012
3821.547	3009
3823.178	3080
3824.809	2990
3826.441	2919
3828.072	2992
3829.701	3002
3831.331	2987
3832.96	2967
3834.591	2993
3836.219	3017
3837.847	3007
3839.475	2989
3841.102	2944
3842.729	3044
3844.357	3008
3845.984	2908
3847.609	2978
3849.234	3008
3850.86	2933
3852.485	2937
3854.11	2934
3855.734	2923
3857.357	2956
3858.981	2914
3860.603	3023
3862.227	2931
3863.848	2932
3865.471	2924
3867.092	2939
3868.713	2985
3870.334	2916
3871.954	2950
3873.575	2975
3875.194	2906
3876.813	2928
3878.433	2916
3880.051	2918
3881.669	2885
3883.286	2907
3884.904	2987
3886.52	2986
3888.138	2904
3889.754	2854
3891.37	2936
3892.985	2977
3894.6	2932
3896.216	2948
3897.831	2905
3899.444	2891
3901.058	2953
3902.67	2947
3904.283	2858
3905.897	2833
3907.509	2925
3909.121	2856
3910.731	2882
3912.342	2871
3913.954	2895
3915.563	2895
3917.174	2863
3918.783	2897
3920.391	2879
3922.002	2901
3923.611	2858
3925.218	2917
3926.826	2860
3928.432	2882
3930.039	2842
3931.647	2834
3933.253	2888
3934.859	2786
3936.464	2778
3938.068	2853
3939.675	2913
3941.278	2777
3942.883	2831
3944.486	2788
3946.089	2849
3947.692	2866
3949.295	2852
3950.898	2789
3952.499	2836
3954.1	2868
3955.7	2794
3957.303	2822
3958.903	2770
3960.502	2783
3962.101	2821
3963.7	2803
3965.301	2803
3966.899	2835
3968.497	2754
3970.094	2755
3971.691	2727
3973.288	2793
3974.885	2734
3976.481	2777
3978.077	2796
3979.672	2763
3981.267	2832
3982.863	2769
3984.457	2802
3986.051	2769
3987.645	2808
3989.238	2759
3990.831	2730
3992.425	2703
3994.017	2694
3995.607	2736
3997.199	2717
3998.79	2765
4000.382	2690
4001.973	2741
4003.561	2721
4005.151	2719
4006.741	2730
4008.331	2737
4009.918	2772
4011.507	2763
4013.095	2692
4014.681	2709
4016.269	2693
4017.856	2700
4019.443	2723
4021.028	2659
4022.614	2660
4024.199	2647
4025.785	2694
4027.37	2668
4028.953	2662
4030.536	2669
4032.12	2645
4033.704	2676
4035.287	2653
4036.869	2692
4038.45	2623
4040.032	2633
4041.613	2658
4043.195	2592
4044.776	2642
4046.356	2723
4047.935	2651
4049.515	2646
4051.095	2618
4052.674	2694
4054.251	2584
4055.829	2617
4057.406	2570
4058.985	2554
4060.562	2612
4062.139	2658
4063.715	2600
4065.29	2637
4066.865	2548
4068.442	2571
4070.016	2584
4071.59	2575
4073.164	2590
4074.738	2627
4076.312	2521
4077.885	2562
4079.458	2602
4081.03	2544
4082.602	2568
4084.173	2591
4085.745	2628
4087.315	2604
4088.886	2586
4090.456	2567
4092.026	2594
4093.596	2561
4095.165	2568
4096.734	2557
4098.301	2542
4099.869	2506
4101.437	2550
4103.006	2561
4104.572	2469
4106.139	2522
4107.704	2535
4109.27	2570
4110.837	2486
4112.401	2506
4113.966	2588
4115.53	2461
4117.094	2524
4118.659	2483
4120.223	2509
4121.785	2535
4123.347	2483
4124.909	2541
4126.471	2516
4128.034	2525
4129.595	2481
4131.155	2529
4132.716	2449
4134.275	2474
4135.836	2466
4137.395	2369
4138.955	2501
4140.513	2525
4142.071	2450
4143.628	2455
4145.188	2516
4146.745	2431
4148.302	2471
4149.858	2473
4151.414	2464
4152.971	2445
4154.526	2417
4156.081	2483
4157.635	2465
4159.189	2364
4160.745	2426
4162.298	2492
4163.852	2417
4165.405	2388
4166.957	2410
4168.51	2437
4170.063	2449
4171.614	2437
4173.166	2441
4174.717	2382
4176.267	2440
4177.817	2460
4179.368	2398
4180.917	2373
4182.466	2417
4184.016	2410
4185.564	2398
4187.112	2357
4188.66	2429
4190.207	2396
4191.754	2332
4193.301	2365
4194.848	2366
4196.394	2395
4197.94	2322
4199.484	2352
4201.03	2377
4202.575	2386
4204.12	2295
4205.663	2339
4207.207	2357
4208.75	2386
4210.292	2347
4211.836	2346
4213.378	2307
4214.92	2357
4216.46	2300
4218.002	2361
4219.544	2377
4221.083	2425
4222.625	2256
4224.164	2358
4225.703	2303
4227.244	2370
4228.782	2338
4230.32	2343
4231.857	2349
4233.395	2320
4234.933	2275
4236.471	2317
4238.007	2266
4239.542	2351
4241.078	2300
4242.614	2251
4244.15	2289
4245.685	2299
4247.219	2300
4248.753	2241
4250.287	2315
4251.82	2278
4253.354	2331
4254.887	2252
4256.419	2293
4257.951	2267
4259.483	2317
4261.016	2331
4262.547	2258
4264.078	2266
4265.608	2267
4267.137	2300
4268.668	2264
4270.197	2278
4271.727	2311
4273.254	2334
4274.783	2262
4276.311	2334
4277.84	2249
4279.366	2227
4280.894	2204
4282.42	2224
4283.946	2246
4285.473	2243
4286.998	2207
4288.523	2268
4290.047	2248
4291.572	2223
4293.096	2251
4294.622	2253
4296.144	2296
4297.668	2187
4299.19	2211
4300.713	2262
4302.236	2186
4303.758	2255
4305.279	2188
4306.799	2253
4308.321	2184
4309.842	2141
4311.361	2169
4312.882	2248
4314.401	2240
