400.0961	5787
402.6185	5868
405.1424	5972
407.6635	5811
410.1838	5865
412.7035	5952
415.2225	6003
417.7388	5996
420.2585	5931
422.7754	6119
425.2917	6097
427.8072	6171
430.3221	6168
432.8363	6197
435.3498	6226
437.8626	6135
440.3727	6172
442.8841	6314
445.3969	6349
447.907	6185
450.4142	6328
452.9229	6245
455.4289	6380
457.9362	6299
460.4449	6348
462.9488	6309
465.454	6313
467.9566	6293
470.4604	6396
472.9637	6370
475.4662	6393
477.966	6359
480.4671	6350
482.9656	6448
485.4633	6500
487.9645	6506
490.4608	6537
492.9566	6604
495.4536	6466
497.948	6459
500.4437	6511
502.9387	6557
505.431	6531
507.9226	6640
510.4136	6706
512.9079	6677
515.3975	6702
517.8864	6597
520.3746	6674
522.8622	6665
525.3491	6677
527.8394	6568
530.3249	6609
532.8098	6692
535.2939	6651
537.7774	6789
540.2623	6708
542.7444	6652
545.2259	6616
547.7067	6572
550.1868	6755
552.6683	6684
555.147	6655
557.6231	6704
560.1005	6798
562.5773	6778
565.0534	6678
567.5308	6742
570.0056	6756
572.4776	6698
574.951	6827
577.4237	6740
579.8978	6828
582.3671	6950
584.8378	6978
587.3079	6888
589.7773	6927
592.244	6928
594.714	6895
597.1793	6764
599.6461	6897
602.1121	6889
604.5754	6905
607.0421	6785
609.5042	6949
611.9675	6921
614.4282	6947
616.8902	6852
619.3515	6856
621.8122	6819
624.2702	7023
626.7296	6833
629.1863	6761
631.6423	6942
634.1017	6938
636.5563	6881
639.0104	6790
641.4658	6977
643.9185	6992
646.3725	7027
648.8239	6944
651.2766	6972
653.7266	7040
656.176	7124
658.6247	7075
661.0748	7086
663.5242	7023
665.9709	7070
668.417	7187
670.8624	6988
673.3092	7252
675.7533	7203
678.1968	7118
680.6395	7078
683.0817	7105
685.5251	7041
687.9659	7134
690.4061	7139
692.8456	7194
695.2844	7194
697.7226	7311
700.1621	7176
702.599	7207
705.0332	7315
707.4688	7167
709.9036	7245
712.3399	7296
714.7735	7250
717.2044	7285
719.6367	7364
722.0683	7401
724.4993	7329
726.9296	7376
729.3593	7480
731.7883	7311
734.2147	7449
736.6423	7366
739.0714	7447
741.4958	7549
743.9216	7545
746.3447	7593
748.7691	7501
751.1929	7640
753.616	7598
756.0366	7710
758.4584	7648
760.8776	7590
763.2982	7692
765.718	7561
768.1373	7710
770.5539	7741
772.9698	7802
775.3871	7740
777.8038	7743
780.2178	7710
782.6332	7743
785.0459	7751
787.458	7783
789.8714	7672
792.2842	7801
794.6943	7696
797.1038	7796
799.5127	7927
801.9209	7649
804.3324	7725
806.7393	7684
809.1456	7787
811.5513	7734
813.9562	7869
816.3625	7865
818.7663	7822
821.1693	7892
823.5718	7871
825.9735	7794
828.3746	7867
830.7771	7852
833.177	7895
835.5762	7931
837.9747	7962
840.3727	7933
842.772	7804
845.1666	7869
847.5626	7846
849.958	7954
852.3527	8040
854.7488	7982
857.1403	8052
859.5331	7980
861.9253	7894
864.3168	7852
866.7057	7862
869.098	7864
871.4876	7923
873.8746	7886
876.263	7925
878.6487	7940
881.0378	7820
883.4243	7875
885.8081	7962
888.1933	7769
890.5759	8024
892.9598	8068
895.343	7794
897.7256	7785
900.1057	7993
902.4871	7981
904.8659	8000
907.246	8025
909.6254	8050
912.0023	8075
914.3786	8158
916.7562	8222
919.1331	8213
921.5074	8174
923.8831	8247
926.2562	8197
928.6287	8236
931.0005	8228
933.3757	8410
935.7462	8264
938.1162	8137
940.4855	8311
942.8542	8339
945.2242	8437
947.5916	8332
949.9584	8475
952.3266	8510
954.6921	8711
957.0571	8758
959.4233	8990
961.787	8719
964.15	8890
966.5125	8769
968.8742	8868
971.2354	8582
973.5959	8519
975.9559	8357
978.3151	8439
980.6738	8363
983.0338	8323
985.3912	8213
987.7461	8207
990.1022	8166
992.4578	8156
994.8127	8230
997.1689	8222
999.5207	8261
1001.874	8251
1004.226	8107
1006.576	8247
1008.929	8222
1011.28	8245
1013.628	8201
1015.977	8199
1018.324	8124
1020.674	8255
1023.019	8380
1025.366	8186
1027.713	8307
1030.056	8340
1032.399	8116
1034.746	8400
1037.087	8311
1039.431	8264
1041.771	8263
1044.113	8181
1046.454	8368
1048.793	8514
1051.133	8272
1053.471	8327
1055.807	8318
1058.146	8309
1060.483	8261
1062.818	8285
1065.153	8452
1067.489	8351
1069.822	8429
1072.156	8505
1074.488	8379
1076.82	8386
1079.15	8380
1081.48	8342
1083.814	8415
1086.143	8474
1088.471	8322
1090.799	8417
1093.126	8383
1095.452	8464
1097.78	8330
1100.105	8521
1102.43	8375
1104.754	8447
1107.077	8564
1109.4	8459
1111.722	8587
1114.044	8461
1116.365	8523
1118.685	8428
1121.005	8473
1123.324	8477
1125.643	8536
1127.961	8569
1130.278	8661
1132.595	8526
1134.911	8508
1137.226	8564
1139.541	8390
1141.854	8442
1144.167	8520
1146.482	8474
1148.793	8572
1151.105	8610
1153.414	8662
1155.725	8478
1158.033	8568
1160.344	8517
1162.651	8664
1164.959	8560
1167.265	8596
1169.572	8537
1171.878	8685
1174.184	8415
1176.488	8584
1178.79	8519
1181.094	8617
1183.396	8539
1185.699	8597
1188.001	8610
1190.301	8481
1192.6	8372
1194.9	8386
1197.2	8526
1199.497	8578
1201.794	8555
1204.09	8523
1206.387	8522
1208.684	8583
1210.978	8616
1213.272	8667
1215.565	8686
1217.858	8520
1220.15	8590
1222.443	8628
1224.734	8684
1227.024	8576
1229.313	8624
1231.602	8739
1233.892	8562
1236.18	8795
1238.467	8649
1240.754	8855
1243.04	8824
1245.325	8979
1247.612	8908
1249.896	8965
1252.178	8749
1254.461	8719
1256.743	8815
1259.027	8767
1261.308	8797
1263.587	8863
1265.867	8806
1268.146	8826
1270.425	8875
1272.703	8769
1274.981	8780
1277.256	8877
1279.532	8791
1281.808	8761
1284.083	8800
1286.358	8697
1288.63	8823
1290.904	8758
1293.175	8751
1295.449	8759
1297.719	8719
1299.99	8659
1302.259	8657
1304.529	8795
1306.798	8732
1309.065	8733
1311.333	8670
1313.599	8734
1315.866	8844
1318.131	8742
1320.396	8715
1322.66	8711
1324.925	8606
1327.187	8867
1329.448	8728
1331.711	8799
1333.974	8924
1336.234	8704
1338.493	8883
1340.752	8792
1343.01	8695
1345.269	8618
1347.526	8857
1349.784	8933
1352.04	8622
1354.295	8711
1356.552	8848
1358.806	8703
1361.059	8671
1363.312	8781
1365.564	8641
1367.818	8778
1370.069	8814
1372.318	8779
1374.568	8816
1376.817	8751
1379.066	8907
1381.316	8865
1383.564	8851
1385.809	8965
1388.056	8827
1390.301	8969
1392.549	8891
1394.793	9026
1397.036	8955
1399.279	8918
1401.522	8889
1403.763	9141
1406.007	8873
1408.248	8981
1410.487	9085
1412.727	9119
1414.965	9112
1417.205	8976
1419.442	9013
1421.68	9053
1423.915	8985
1426.152	8887
1428.388	9081
1430.623	9012
1432.857	9122
1435.091	9145
1437.323	9026
1439.556	9188
1441.789	9091
1444.019	9192
1446.25	9078
1448.48	9054
1450.708	9168
1452.938	8966
1455.167	9108
1457.394	9177
1459.62	9182
1461.846	9066
1464.073	9159
1466.299	9193
1468.523	9035
1470.746	9075
1472.969	8990
1475.191	9008
1477.415	8927
1479.636	8790
1481.858	9040
1484.078	8949
1486.298	8833
1488.518	8944
1490.736	8800
1492.954	8770
1495.169	8792
1497.386	8752
1499.602	8811
1501.819	8921
1504.034	8673
1506.248	8832
1508.462	8843
1510.675	8717
1512.888	8726
1515.1	8814
1517.311	8881
1519.522	8884
1521.732	8639
1523.942	8927
1526.151	8770
1528.36	8832
1530.566	8802
1532.773	8740
1534.98	8785
1537.187	8728
1539.392	8855
1541.596	8795
1543.801	8810
1546.005	8882
1548.208	8799
1550.411	8953
1552.612	8783
1554.814	8847
1557.013	8826
1559.212	8954
1561.414	8907
1563.612	8863
1565.811	8980
1568.007	8999
1570.203	8998
1572.403	8996
1574.598	9128
1576.792	8945
1578.988	9096
1581.181	8940
1583.376	9006
1585.568	9172
1587.761	9101
1589.952	9057
1592.143	9125
1594.333	8996
1596.524	9009
1598.715	9104
1600.903	9145
1603.091	9144
1605.278	9053
1607.466	9160
1609.652	8983
1611.838	9067
1614.023	9085
1616.207	9046
1618.391	9073
1620.576	8999
1622.759	9247
1624.941	9080
1627.123	9180
1629.304	9106
1631.484	9014
1633.664	9206
1635.844	9034
1638.022	9165
1640.201	9056
1642.38	9076
1644.556	9319
1646.732	9237
1648.908	9036
1651.084	9159
1653.257	9230
1655.433	9174
1657.607	9216
1659.779	9219
1661.951	9144
1664.122	9290
1666.295	9073
1668.467	9066
1670.635	9191
1672.805	9173
1674.973	9135
1677.142	9174
1679.31	9093
1681.478	8926
1683.644	9244
1685.81	9139
1687.975	9135
1690.142	9157
1692.305	9238
1694.468	9098
1696.632	9131
1698.794	9121
1700.957	9111
1703.119	9157
1705.279	9129
1707.439	9123
1709.598	9028
1711.758	9084
1713.917	8986
1716.075	9135
1718.231	9030
1720.388	9076
1722.543	8881
1724.702	8966
1726.856	9013
1729.01	9102
1731.164	9122
1733.317	9036
1735.471	8936
1737.623	9123
1739.774	9102
1741.925	9113
1744.075	8965
1746.225	9146
1748.376	9059
1750.524	9197
1752.672	9164
1754.82	9000
1756.965	9042
1759.113	9163
1761.259	9012
1763.405	9107
1765.549	9201
1767.694	9098
1769.836	9147
1771.981	9081
1774.123	9230
1776.264	9174
1778.405	9241
1780.546	9282
1782.687	9156
1784.827	9153
1786.966	9157
1789.103	9035
1791.242	9193
1793.381	9316
1795.517	9127
1797.653	9184
1799.788	9165
1801.923	9086
1804.057	9170
1806.193	9101
1808.326	9200
1810.457	8983
1812.59	9193
1814.721	9133
1816.855	9113
1818.984	9006
1821.113	9210
1823.244	9110
1825.372	9164
1827.499	9214
1829.63	9123
1831.756	9025
1833.882	9150
1836.007	9165
1838.132	9080
1840.26	9084
1842.384	9088
1844.507	9000
1846.63	8976
1848.752	9098
1850.875	8956
1852.996	8980
1855.118	9096
1857.238	9081
1859.358	8998
1861.477	9047
1863.597	9167
1865.715	9044
1867.832	9185
1869.948	9046
1872.064	8929
1874.181	9071
1876.297	9026
1878.411	9039
1880.526	9078
1882.639	9104
1884.752	8990
1886.865	9100
1888.977	9049
1891.089	9076
1893.2	9093
1895.308	9052
1897.42	9063
1899.53	9128
1901.639	9091
1903.745	9124
1905.853	9192
1907.962	9054
1910.067	9210
1912.174	9214
1914.278	9067
1916.383	9271
1918.486	9237
1920.592	9161
1922.694	9094
1924.797	9221
1926.898	9248
1929	9234
1931.102	9164
1933.203	9168
1935.301	9159
1937.401	9292
1939.499	9039
1941.598	9160
1943.697	9171
1945.793	9150
1947.888	9154
1949.985	9273
1952.08	9097
1954.176	9153
1956.269	9075
1958.364	8970
1960.457	9142
1962.549	9241
1964.642	9290
1966.733	9183
1968.823	9178
1970.913	9014
1973.005	9201
1975.093	9216
1977.184	9267
1979.271	9134
1981.359	9090
1983.446	9040
1985.532	8991
1987.619	9187
1989.705	9124
1991.789	9061
1993.874	9088
1995.956	9088
1998.041	9080
2000.123	9090
2002.206	9203
2004.287	9043
2006.368	9085
2008.449	8932
2010.529	8952
2012.609	9064
2014.688	9041
2016.766	9056
2018.843	9122
2020.922	9031
2022.999	9154
2025.074	9052
2027.15	9053
2029.225	8949
2031.299	8916
2033.375	9001
2035.447	9086
2037.52	8991
2039.592	9021
2041.664	8979
2043.736	9094
2045.807	8967
2047.876	9136
2049.947	9183
2052.015	8872
2054.086	9025
2056.153	8990
2058.221	9078
2060.288	9040
2062.353	8935
2064.42	8942
2066.486	8847
2068.55	9049
2070.614	9003
2072.678	8997
2074.741	8957
2076.805	9144
2078.866	9018
2080.929	8930
2082.99	9000
2085.049	8979
2087.109	9046
2089.17	9071
2091.228	9031
2093.286	8997
2095.344	9123
2097.4	9035
2099.46	8997
2101.516	9121
2103.572	9049
2105.626	8966
2107.679	8980
2109.735	8927
2111.788	8993
2113.841	8974
2115.894	9084
2117.945	8963
2119.997	8848
2122.049	8899
2124.1	9143
2126.148	9135
2128.197	9077
2130.246	9098
2132.296	8887
2134.342	8929
2136.39	8970
2138.437	8972
2140.483	8925
2142.527	8913
2144.574	8885
2146.619	8947
2148.661	8903
2150.705	8903
2152.747	8942
2154.792	8896
2156.832	9030
2158.874	8832
2160.915	8838
2162.954	9032
2164.995	8782
2167.034	8770
2169.072	8842
2171.111	8862
2173.148	8898
2175.186	8921
2177.223	8738
2179.258	8825
2181.294	8930
2183.328	8737
2185.362	8886
2187.398	8790
2189.431	8839
2191.463	8740
2193.495	8805
2195.528	8671
2197.56	8779
2199.59	8755
2201.62	8792
2203.649	8724
2205.678	8720
2207.708	8766
2209.737	8762
2211.764	8720
2213.791	8796
2215.817	8697
2217.843	8859
2219.87	8590
2221.895	8699
2223.919	8678
2225.942	8494
2227.966	8723
2229.988	8672
2232.012	8663
2234.032	8674
2236.054	8749
2238.074	8698
2240.095	8724
2242.116	8685
2244.135	8723
2246.153	8633
2248.171	8715
2250.188	8869
2252.208	8737
2254.223	8677
2256.239	8690
2258.255	8620
2260.269	8670
2262.283	8696
2264.3	8655
2266.312	8742
2268.325	8702
2270.336	8696
2272.349	8729
2274.362	8715
2276.372	8736
2278.383	8683
2280.392	8712
2282.402	8706
2284.409	8740
2286.418	8728
2288.427	8762
2290.433	8643
2292.441	8636
2294.446	8558
2296.453	8798
2298.459	8661
2300.463	8593
2302.466	8532
2304.471	8553
2306.475	8571
2308.477	8615
2310.478	8623
2312.481	8865
2314.481	8544
2316.481	8637
2318.482	8567
2320.482	8610
2322.48	8481
2324.48	8491
2326.478	8591
2328.476	8437
2330.473	8558
2332.469	8688
2334.465	8519
2336.46	8535
2338.454	8484
2340.45	8530
2342.444	8587
2344.437	8378
2346.43	8533
2348.421	8458
2350.414	8554
2352.405	8419
2354.396	8467
2356.386	8598
2358.376	8398
2360.366	8636
2362.355	8324
2364.343	8500
2366.331	8373
2368.317	8501
2370.304	8492
2372.292	8444
2374.278	8319
2376.262	8472
2378.247	8450
2380.23	8459
2382.216	8384
2384.199	8277
2386.181	8462
2388.163	8426
2390.144	8293
2392.127	8581
2394.107	8447
2396.087	8361
2398.066	8344
2400.046	8464
2402.023	8313
2404.004	8309
2405.981	8359
2407.957	8223
2409.934	8271
2411.91	8376
2413.886	8251
2415.862	8348
2417.836	8290
2419.809	8388
2421.784	8350
2423.756	8357
2425.73	8340
2427.701	8248
2429.672	8370
2431.644	8253
2433.615	8266
2435.586	8372
2437.555	8310
2439.523	8245
2441.491	8330
2443.459	8399
2445.428	8361
2447.395	8250
2449.361	8326
2451.327	8284
2453.292	8214
2455.257	8202
2457.223	8289
2459.187	8295
2461.15	8279
2463.113	8327
2465.076	8267
2467.039	8189
2468.999	8255
2470.96	8115
2472.921	8245
2474.881	8277
2476.841	8144
2478.8	8235
2480.759	8264
2482.717	8228
2484.675	8055
2486.63	8130
2488.589	8144
2490.545	8192
2492.5	8143
2494.455	8248
2496.408	8134
2498.364	8090
2500.318	8052
2502.27	8188
2504.223	8108
2506.174	8113
2508.126	8183
2510.078	8221
2512.03	8073
2513.979	8205
2515.927	8094
2517.877	8174
2519.826	8159
2521.775	8001
2523.722	8115
2525.668	8047
2527.616	8136
2529.561	8126
2531.508	7997
2533.452	8036
2535.398	8066
2537.342	8002
2539.284	7901
2541.229	8114
2543.173	8052
2545.114	8003
2547.055	8064
2548.996	8090
2550.938	8036
2552.878	8029
2554.817	8020
2556.756	8068
2558.695	7868
2560.633	7971
2562.572	8051
2564.509	7932
2566.445	8130
2568.382	7910
2570.317	8054
2572.254	8038
2574.189	8169
2576.123	7955
2578.057	7971
2579.99	8137
2581.923	8002
2583.855	8079
2585.788	8050
2587.719	7997
2589.65	8112
2591.579	8019
2593.511	7982
2595.44	8015
2597.37	8081
2599.297	7998
2601.225	8010
2603.153	7981
2605.08	8003
2607.007	8074
2608.932	8078
2610.858	7993
2612.782	8057
2614.709	8128
2616.632	8085
2618.556	8045
2620.478	8093
2622.401	7911
2624.324	8073
2626.247	7961
2628.167	8047
2630.088	8001
2632.008	8093
2633.928	8087
2635.848	8048
2637.766	8065
2639.684	7977
2641.603	8024
2643.519	8058
2645.437	7921
2647.353	8093
2649.27	7902
2651.184	8062
2653.099	7986
2655.014	8023
2656.928	7984
2658.842	7932
2660.755	8062
2662.667	8030
2664.579	7956
2666.491	8000
2668.402	8022
2670.312	7952
2672.222	8003
2674.132	7953
2676.042	7936
2677.951	8001
2679.859	7969
2681.766	7872
2683.674	7820
2685.582	7880
2687.488	7898
2689.392	7959
2691.298	7857
2693.202	7906
2695.107	7823
2697.012	7791
2698.914	7822
2700.817	7826
2702.72	7901
2704.622	7771
2706.524	7806
2708.425	7728
2710.326	7900
2712.225	7849
2714.125	7760
2716.024	7775
2717.923	7831
2719.822	7825
2721.719	7843
2723.616	7814
2725.512	7776
2727.41	7836
2729.305	7731
2731.201	7724
2733.095	7811
2734.99	7835
2736.884	7735
2738.778	7765
2740.67	7804
2742.562	7633
2744.455	7778
2746.346	7705
2748.238	7614
2750.129	7782
2752.018	7670
2753.907	7843
2755.797	7836
2757.687	7817
2759.575	7594
2761.462	7707
2763.349	7711
2765.237	7710
2767.124	7770
2769.009	7688
2770.894	7649
2772.779	7600
2774.663	7715
2776.547	7746
2778.431	7582
2780.314	7714
2782.197	7655
2784.078	7654
2785.96	7601
2787.842	7561
2789.723	7743
2791.603	7845
2793.483	7559
2795.362	7657
2797.241	7599
2799.121	7608
2800.997	7553
2802.874	7572
2804.751	7453
2806.628	7508
2808.506	7529
2810.38	7527
2812.255	7608
2814.13	7518
2816.003	7530
2817.878	7589
2819.752	7590
2821.623	7530
2823.496	7539
2825.368	7519
2827.238	7459
2829.111	7579
2830.98	7614
2832.851	7609
2834.719	7579
2836.589	7658
2838.458	7687
2840.327	7641
2842.193	7563
2844.061	7613
2845.927	7586
2847.794	7507
2849.66	7512
2851.525	7435
2853.39	7620
2855.254	7535
2857.117	7627
2858.983	7624
2860.845	7513
2862.707	7658
2864.569	7694
2866.431	7545
2868.293	7588
2870.154	7616
2872.013	7708
2873.873	7721
2875.733	7714
2877.592	7721
2879.451	7725
2881.309	7776
2883.166	7729
2885.022	7890
2886.879	7885
2888.736	7804
2890.591	7798
2892.446	7901
2894.301	7927
2896.155	7911
2898.009	7889
2899.863	7941
2901.716	7843
2903.568	7820
2905.419	7867
2907.27	7927
2909.123	7854
2910.973	7837
2912.824	7773
2914.673	7957
2916.521	7852
2918.372	8035
2920.22	7972
2922.067	7823
2923.914	7982
2925.761	8041
2927.607	8104
2929.455	8018
2931.301	8004
2933.144	8038
2934.99	8052
2936.833	8099
2938.678	8143
2940.522	8196
2942.364	8373
2944.207	8234
2946.048	8352
2947.891	8599
2949.731	8368
2951.571	8462
2953.412	8385
2955.25	8272
2957.09	8316
2958.93	8245
2960.767	8315
2962.606	8173
2964.443	8148
2966.279	8199
2968.116	8003
2969.953	7977
2971.788	8039
2973.623	7800
2975.457	7781
2977.292	7803
2979.127	7780
2980.959	7779
2982.792	7606
2984.624	7691
2986.455	7589
2988.288	7632
2990.119	7717
2991.949	7690
2993.779	7448
2995.608	7670
2997.439	7452
2999.268	7457
3001.096	7392
3002.923	7451
3004.751	7358
3006.578	7293
3008.406	7244
3010.232	7349
3012.057	7259
3013.883	7319
3015.706	7221
3017.532	7285
3019.356	7227
3021.179	7162
3023.002	7233
3024.823	7209
3026.646	7072
3028.469	7168
3030.289	7214
3032.11	7142
3033.93	7129
3035.749	7085
3037.57	7124
3039.39	7057
3041.207	7118
3043.026	7054
3044.842	7052
3046.661	7051
3048.477	6997
3050.294	7100
3052.109	7049
3053.925	6996
3055.739	6931
3057.555	6989
3059.368	7006
3061.181	6929
3062.995	6895
3064.807	6963
3066.62	6889
3068.433	7058
3070.243	7000
3072.054	6996
3073.865	6981
3075.675	6884
3077.485	6945
3079.293	6929
3081.102	6701
3082.911	6930
3084.719	6862
3086.527	6940
3088.333	6818
3090.139	6956
3091.945	6849
3093.75	6805
3095.557	6789
3097.361	6866
3099.165	6893
3100.969	6827
3102.772	6754
3104.575	6798
3106.379	6816
3108.181	6713
3109.982	6767
3111.783	6712
3113.584	6741
3115.386	6731
3117.186	6747
3118.985	6710
3120.783	6701
3122.582	6646
3124.381	6734
3126.179	6618
3127.975	6648
3129.772	6734
3131.569	6721
3133.365	6709
3135.161	6654
3136.956	6666
3138.751	6503
3140.544	6630
3142.338	6695
3144.132	6647
3145.925	6640
3147.717	6632
3149.509	6516
3151.301	6721
3153.091	6704
3154.884	6499
3156.673	6583
3158.462	6568
3160.252	6681
3162.041	6558
3163.831	6440
3165.618	6504
3167.405	6508
3169.193	6585
3170.979	6544
3172.767	6549
3174.553	6468
3176.338	6512
3178.123	6479
3179.907	6514
3181.692	6491
3183.477	6486
3185.259	6485
3187.042	6470
3188.824	6409
3190.607	6430
3192.389	6385
3194.17	6516
3195.951	6573
3197.73	6488
3199.51	6472
3201.289	6382
3203.07	6431
3204.848	6355
3206.626	6383
3208.403	6447
3210.18	6462
3211.959	6392
3213.735	6441
3215.511	6328
3217.285	6266
3219.06	6371
3220.836	6342
3222.611	6364
3224.384	6445
3226.158	6377
3227.929	6319
3229.702	6442
3231.476	6245
3233.248	6324
3235.018	6446
3236.789	6371
3238.56	6382
3240.33	6396
3242.1	6194
3243.869	6283
3245.637	6149
3247.405	6351
3249.172	6272
3250.941	6284
3252.707	6347
3254.474	6366
3256.24	6333
3258.006	6283
3259.772	6247
3261.537	6349
3263.301	6428
3265.065	6386
3266.828	6290
3268.592	6269
3270.355	6302
3272.117	6391
3273.878	6339
3275.64	6212
3277.401	6225
3279.162	6299
3280.922	6342
3282.682	6300
3284.441	6277
3286.199	6272
3287.959	6323
3289.716	6115
3291.475	6340
3293.232	6307
3294.988	6282
3296.744	6159
3298.501	6271
3300.256	6210
3302.011	6304
3303.766	6255
3305.52	6214
3307.275	6216
3309.028	6193
3310.781	6247
3312.533	6266
3314.285	6219
3316.038	6172
3317.789	6168
3319.54	6257
3321.289	6195
3323.039	6256
3324.789	6215
3326.539	6122
3328.288	6159
3330.035	6201
3331.783	6080
3333.531	6218
3335.28	6181
3337.025	6166
3338.771	6097
3340.518	6062
3342.262	6112
3344.009	6121
3345.753	6224
3347.497	6141
3349.24	6039
3350.983	6013
3352.726	6032
3354.469	6173
3356.212	6122
3357.952	6156
3359.694	6095
3361.434	6098
3363.176	5975
3364.916	6062
3366.654	6034
3368.394	6082
3370.132	6000
3371.871	6036
3373.61	5967
3375.346	6039
3377.083	5921
3378.82	6185
3380.556	6015
3382.292	6001
3384.027	5871
3385.763	6052
3387.497	5915
3389.231	6067
3390.965	5875
3392.698	6027
3394.431	6003
3396.164	5918
3397.896	5948
3399.627	5920
3401.36	5952
3403.09	5932
3404.82	5920
3406.55	5989
3408.279	5784
3410.01	5876
3411.738	6026
3413.467	6007
3415.194	5898
3416.92	6066
3418.647	5895
3420.375	6004
3422.102	5849
3423.827	5815
3425.553	5916
3427.277	5946
3429.003	5834
3430.727	5909
3432.451	5738
3434.173	5788
3435.896	5835
3437.62	5828
3439.343	5742
3441.063	5864
3442.785	5821
3444.505	5757
3446.226	5761
3447.948	5749
3449.666	5747
3451.386	5772
3453.104	5657
3454.823	5731
3456.541	5676
3458.259	5667
3459.976	5695
3461.693	5638
3463.408	5772
3465.125	5679
3466.841	5622
3468.556	5617
3470.271	5693
3471.985	5744
3473.698	5723
3475.414	5599
3477.126	5638
3478.838	5623
3480.55	5610
3482.263	5566
3483.975	5704
3485.686	5715
3487.396	5588
3489.106	5604
3490.817	5550
3492.526	5584
3494.236	5602
3495.944	5559
3497.652	5589
3499.359	5511
3501.066	5588
3502.775	5498
3504.481	5467
3506.187	5510
3507.893	5528
3509.598	5469
3511.304	5604
3513.009	5389
3514.713	5601
3516.417	5406
3518.12	5589
3519.821	5429
3521.525	5444
3523.228	5433
3524.929	5469
3526.631	5504
3528.33	5345
3530.032	5417
3531.733	5380
3533.433	5354
3535.131	5476
3536.83	5377
3538.529	5427
3540.227	5355
3541.925	5402
3543.623	5433
3545.319	5424
3547.016	5437
3548.712	5407
3550.408	5297
3552.103	5451
3553.798	5379
3555.491	5471
3557.188	5305
3558.88	5420
3560.574	5320
3562.266	5308
3563.959	5452
3565.651	5272
3567.343	5387
3569.035	5344
3570.725	5420
3572.415	5258
3574.106	5325
3575.797	5222
3577.485	5285
3579.174	5275
3580.863	5247
3582.551	5304
3584.238	5196
3585.926	5300
3587.613	5240
3589.3	5203
3590.986	5184
3592.671	5214
3594.357	5232
3596.042	5189
3597.726	5304
3599.41	5201
3601.094	5132
3602.778	5187
3604.461	5253
3606.143	5212
3607.825	5227
3609.507	5165
3611.188	5204
3612.87	5119
3614.551	5131
3616.229	5113
3617.909	5091
3619.589	5135
3621.269	5176
3622.948	5088
3624.625	5049
3626.302	5062
3627.98	5022
3629.657	5106
3631.334	5050
3633.01	4955
3634.686	5121
3636.361	4978
3638.036	4999
3639.712	5073
3641.385	5034
3643.06	5008
3644.732	4928
3646.405	4984
3648.08	5012
3649.751	5060
3651.424	5001
3653.094	4993
3654.766	4937
3656.436	5044
3658.106	4973
3659.777	4848
3661.446	4980
3663.115	5079
3664.783	4951
3666.452	4975
3668.121	4964
3669.788	5050
3671.454	4971
3673.121	4965
3674.789	4903
3676.455	4864
3678.12	4994
3679.784	4852
3681.45	4880
3683.114	4899
3684.779	4993
3686.442	4939
3688.105	4880
3689.768	4906
3691.43	4936
3693.093	4845
3694.754	4786
3696.415	4747
3698.076	4856
3699.736	4960
3701.396	4898
3703.057	4928
3704.716	4815
3706.375	4889
3708.034	4860
3709.692	4838
3711.351	4916
3713.008	4820
3714.665	4761
3716.321	4846
3717.977	4738
3719.634	4752
3721.29	4888
3722.945	4844
3724.598	4659
3726.253	4727
3727.907	4817
3729.561	4771
3731.214	4832
3732.867	4839
3734.518	4740
3736.171	4787
3737.824	4728
3739.474	4777
3741.125	4679
3742.775	4706
3744.425	4790
3746.074	4737
3747.725	4789
3749.373	4819
3751.022	4735
3752.669	4656
3754.318	4733
3755.966	4757
3757.612	4677
3759.259	4637
3760.905	4733
3762.55	4728
3764.197	4748
3765.842	4692
3767.486	4707
3769.131	4729
3770.774	4661
3772.417	4652
3774.061	4610
3775.705	4516
3777.347	4704
3778.988	4659
3780.629	4638
3782.271	4644
3783.912	4645
3785.552	4664
3787.192	4516
3788.831	4689
3790.472	4618
3792.112	4565
3793.75	4561
3795.388	4535
3797.024	4559
3798.661	4574
3800.3	4510
3801.936	4621
3803.572	4579
3805.208	4671
3806.844	4547
3808.48	4582
3810.115	4459
3811.748	4458
3813.382	4498
3815.016	4570
3816.649	4470
3818.283	4515
3819.914	4464
3821.547	4517
3823.178	4458
3824.809	4504
3826.441	4510
3828.072	4516
3829.701	4420
3831.331	4551
3832.96	4510
3834.591	4426
3836.219	4563
3837.847	4527
3839.475	4438
3841.102	4367
3842.729	4456
3844.357	4457
3845.984	4429
3847.609	4484
3849.234	4497
3850.86	4397
3852.485	4523
3854.11	4472
3855.734	4378
3857.357	4457
3858.981	4347
3860.603	4455
3862.227	4373
3863.848	4396
3865.471	4354
3867.092	4257
3868.713	4375
3870.334	4391
3871.954	4451
3873.575	4342
3875.194	4252
3876.813	4320
3878.433	4329
3880.051	4390
3881.669	4277
3883.286	4327
3884.904	4276
3886.52	4313
3888.138	4359
3889.754	4367
3891.37	4339
3892.985	4248
3894.6	4345
3896.216	4369
3897.831	4277
3899.444	4204
3901.058	4308
3902.67	4329
3904.283	4398
3905.897	4326
3907.509	4326
3909.121	4226
3910.731	4193
3912.342	4275
3913.954	4283
3915.563	4270
3917.174	4319
3918.783	4255
3920.391	4213
3922.002	4243
3923.611	4192
3925.218	4292
3926.826	4288
3928.432	4341
3930.039	4194
3931.647	4267
3933.253	4262
3934.859	4220
3936.464	4185
3938.068	4205
3939.675	4271
3941.278	4201
3942.883	4215
3944.486	4180
3946.089	4216
3947.692	4169
3949.295	4211
3950.898	4287
3952.499	4250
3954.1	4211
3955.7	4154
3957.303	4233
3958.903	4147
3960.502	4165
3962.101	4120
3963.7	4138
3965.301	4163
3966.899	4117
3968.497	4117
3970.094	4269
3971.691	4074
3973.288	4139
3974.885	4124
3976.481	4157
3978.077	4150
3979.672	4151
3981.267	4034
3982.863	4098
3984.457	4028
3986.051	4069
3987.645	4080
3989.238	4119
3990.831	4129
3992.425	3985
3994.017	4055
3995.607	4005
3997.199	3970
3998.79	3999
4000.382	4024
4001.973	3968
4003.561	4011
4005.151	3969
4006.741	3987
4008.331	4003
4009.918	4056
4011.507	4006
4013.095	3961
4014.681	3965
4016.269	4024
4017.856	3875
4019.443	3884
4021.028	4005
4022.614	3796
4024.199	3975
4025.785	3883
4027.37	3930
4028.953	3840
4030.536	3923
4032.12	3957
4033.704	3922
4035.287	3917
4036.869	3962
4038.45	3963
4040.032	3863
4041.613	3892
4043.195	3822
4044.776	3797
4046.356	3865
4047.935	3806
4049.515	3922
4051.095	3842
4052.674	3875
4054.251	3810
4055.829	3822
4057.406	3901
4058.985	3839
4060.562	3864
4062.139	3836
4063.715	3817
4065.29	3863
4066.865	3825
4068.442	3795
4070.016	3739
4071.59	3812
4073.164	3794
4074.738	3871
4076.312	3728
4077.885	3790
4079.458	3792
4081.03	3829
4082.602	3816
4084.173	3723
4085.745	3676
4087.315	3822
4088.886	3797
4090.456	3908
4092.026	3763
4093.596	3765
4095.165	3731
4096.734	3761
4098.301	3796
4099.869	3777
4101.437	3660
4103.006	3692
4104.572	3683
4106.139	3699
4107.704	3830
4109.27	3729
4110.837	3783
4112.401	3704
4113.966	3724
4115.53	3720
4117.094	3701
4118.659	3741
4120.223	3719
4121.785	3700
4123.347	3626
4124.909	3650
4126.471	3719
4128.034	3666
4129.595	3658
4131.155	3646
4132.716	3615
4134.275	3604
4135.836	3592
4137.395	3690
4138.955	3664
4140.513	3581
4142.071	3593
4143.628	3626
4145.188	3592
4146.745	3643
4148.302	3641
4149.858	3532
4151.414	3580
4152.971	3645
4154.526	3518
4156.081	3535
4157.635	3564
4159.189	3498
4160.745	3584
4162.298	3483
4163.852	3522
4165.405	3560
4166.957	3536
4168.51	3528
4170.063	3606
4171.614	3499
4173.166	3524
4174.717	3605
4176.267	3469
4177.817	3525
4179.368	3391
4180.917	3526
4182.466	3520
4184.016	3469
4185.564	3488
4187.112	3520
4188.66	3469
4190.207	3449
4191.754	3380
4193.301	3444
4194.848	3396
4196.394	3498
4197.94	3500
4199.484	3479
4201.03	3482
4202.575	3479
4204.12	3426
4205.663	3438
4207.207	3391
4208.75	3460
4210.292	3350
4211.836	3407
4213.378	3416
4214.92	3400
4216.46	3463
4218.002	3418
4219.544	3358
4221.083	3333
4222.625	3403
4224.164	3393
4225.703	3337
4227.244	3413
4228.782	3333
4230.32	3342
4231.857	3371
4233.395	3410
4234.933	3312
4236.471	3437
4238.007	3364
4239.542	3315
4241.078	3405
4242.614	3358
4244.15	3366
4245.685	3303
4247.219	3346
4248.753	3323
4250.287	3381
4251.82	3329
4253.354	3323
4254.887	3361
4256.419	3287
4257.951	3320
4259.483	3283
4261.016	3334
4262.547	3344
4264.078	3239
4265.608	3296
4267.137	3299
4268.668	3375
4270.197	3303
4271.727	3310
4273.254	3215
4274.783	3330
4276.311	3306
4277.84	3294
4279.366	3295
4280.894	3289
4282.42	3258
4283.946	3262
4285.473	3290
4286.998	3224
4288.523	3189
4290.047	3262
4291.572	3260
4293.096	3256
4294.622	3235
4296.144	3220
4297.668	3256
4299.19	3271
4300.713	3199
4302.236	3174
4303.758	3187
4305.279	3204
4306.799	3211
4308.321	3156
4309.842	3214
4311.361	3239
4312.882	3204
4314.401	3195
