400.0961	4657
402.6185	4646
405.1424	4671
407.6635	4670
410.1838	4661
412.7035	4747
415.2225	4740
417.7388	4814
420.2585	4768
422.7754	4783
425.2917	4844
427.8072	5053
430.3221	4945
432.8363	5078
435.3498	5045
437.8626	5055
440.3727	5105
442.8841	5004
445.3969	5047
447.907	4985
450.4142	5050
452.9229	5026
455.4289	4974
457.9362	4972
460.4449	4955
462.9488	4916
465.454	4928
467.9566	4886
470.4604	4937
472.9637	4861
475.4662	4962
477.966	4927
480.4671	4912
482.9656	4959
485.4633	4899
487.9645	5019
490.4608	4885
492.9566	5032
495.4536	5006
497.948	4935
500.4437	5034
502.9387	5016
505.431	5039
507.9226	5009
510.4136	5075
512.9079	5056
515.3975	5055
517.8864	5095
520.3746	5030
522.8622	5104
525.3491	5017
527.8394	5071
530.3249	5012
532.8098	5148
535.2939	5138
537.7774	5080
540.2623	5096
542.7444	5119
545.2259	5179
547.7067	5185
550.1868	5132
552.6683	5165
555.147	5165
557.6231	5120
560.1005	5272
562.5773	5263
565.0534	5175
567.5308	5267
570.0056	5230
572.4776	5392
574.951	5373
577.4237	5474
579.8978	5386
582.3671	5404
584.8378	5440
587.3079	5351
589.7773	5428
592.244	5448
594.714	5397
597.1793	5498
599.6461	5376
602.1121	5382
604.5754	5265
607.0421	5334
609.5042	5383
611.9675	5300
614.4282	5279
616.8902	5312
619.3515	5356
621.8122	5249
624.2702	5266
626.7296	5260
629.1863	5218
631.6423	5153
634.1017	5232
636.5563	5173
639.0104	5216
641.4658	5325
643.9185	5267
646.3725	5262
648.8239	5257
651.2766	5379
653.7266	5460
656.176	5324
658.6247	5347
661.0748	5290
663.5242	5373
665.9709	5349
668.417	5380
670.8624	5462
673.3092	5351
675.7533	5452
678.1968	5454
680.6395	5340
683.0817	5484
685.5251	5490
687.9659	5508
690.4061	5445
692.8456	5389
695.2844	5466
697.7226	5511
700.1621	5489
702.599	5473
705.0332	5503
707.4688	5511
709.9036	5516
712.3399	5636
714.7735	5573
717.2044	5658
719.6367	5494
722.0683	5681
724.4993	5618
726.9296	5556
729.3593	5716
731.7883	5696
734.2147	5678
736.6423	5574
739.0714	5616
741.4958	5603
743.9216	5724
746.3447	5619
748.7691	5808
751.1929	5665
753.616	5814
756.0366	5823
758.4584	5791
760.8776	5892
763.2982	5889
765.718	5883
768.1373	5878
770.5539	5894
772.9698	5806
775.3871	5832
777.8038	5967
780.2178	5796
782.6332	5912
785.0459	5853
787.458	5894
789.8714	5917
792.2842	5844
794.6943	5835
797.1038	5836
799.5127	5861
801.9209	5876
804.3324	5927
806.7393	5890
809.1456	5840
811.5513	6008
813.9562	6002
816.3625	6019
818.7663	5842
821.1693	5895
823.5718	5968
825.9735	5936
828.3746	5951
830.7771	5884
833.177	5975
835.5762	6050
837.9747	6132
840.3727	6159
842.772	6025
845.1666	6036
847.5626	6064
849.958	6217
852.3527	6286
854.7488	6156
857.1403	6179
859.5331	6045
861.9253	6186
864.3168	6072
866.7057	6227
869.098	6174
871.4876	6163
873.8746	6184
876.263	5961
878.6487	6247
881.0378	6126
883.4243	6063
885.8081	6105
888.1933	6017
890.5759	6125
892.9598	6084
895.343	6080
897.7256	6256
900.1057	6181
902.4871	6168
904.8659	6194
907.246	6176
909.6254	6197
912.0023	6292
914.3786	6433
916.7562	6474
919.1331	6439
921.5074	6446
923.8831	6558
926.2562	6396
928.6287	6507
931.0005	6630
933.3757	6488
935.7462	6664
938.1162	6645
940.4855	6658
942.8542	6743
945.2242	6859
947.5916	7141
949.9584	7390
952.3266	7599
954.6921	7986
957.0571	8217
959.4233	8827
961.787	8985
964.15	8872
966.5125	8544
968.8742	7917
971.2354	7600
973.5959	7252
975.9559	6977
978.3151	6701
980.6738	6589
983.0338	6527
985.3912	6473
987.7461	6461
990.1022	6378
992.4578	6324
994.8127	6417
997.1689	6425
999.5207	6479
1001.874	6416
1004.226	6491
1006.576	6455
1008.929	6516
1011.28	6549
1013.628	6330
1015.977	6501
1018.324	6439
1020.674	6374
1023.019	6329
1025.366	6526
1027.713	6529
1030.056	6475
1032.399	6482
1034.746	6548
1037.087	6530
1039.431	6549
1041.771	6563
1044.113	6671
1046.454	6739
1048.793	6615
1051.133	6443
1053.471	6560
1055.807	6524
1058.146	6630
1060.483	6530
1062.818	6655
1065.153	6736
1067.489	6709
1069.822	6884
1072.156	6707
1074.488	6843
1076.82	6854
1079.15	6717
1081.48	6701
1083.814	6659
1086.143	6606
1088.471	6612
1090.799	6596
1093.126	6540
1095.452	6736
1097.78	6455
1100.105	6533
1102.43	6565
1104.754	6489
1107.077	6596
1109.4	6387
1111.722	6542
1114.044	6518
1116.365	6532
1118.685	6412
1121.005	6626
1123.324	6577
1125.643	6497
1127.961	6578
1130.278	6568
1132.595	6363
1134.911	6632
1137.226	6393
1139.541	6605
1141.854	6501
1144.167	6478
1146.482	6443
1148.793	6616
1151.105	6551
1153.414	6466
1155.725	6466
1158.033	6404
1160.344	6401
1162.651	6573
1164.959	6484
1167.265	6576
1169.572	6625
1171.878	6498
1174.184	6619
1176.488	6534
1178.79	6664
1181.094	6490
1183.396	6529
1185.699	6482
1188.001	6576
1190.301	6599
1192.6	6469
1194.9	6520
1197.2	6572
1199.497	6529
1201.794	6518
1204.09	6603
1206.387	6551
1208.684	6496
1210.978	6563
1213.272	6562
1215.565	6498
1217.858	6436
1220.15	6704
1222.443	6508
1224.734	6589
1227.024	6550
1229.313	6717
1231.602	6760
1233.892	6682
1236.18	6833
1238.467	6776
1240.754	6750
1243.04	6830
1245.325	6841
1247.612	6939
1249.896	6942
1252.178	6853
1254.461	6906
1256.743	6754
1259.027	6891
1261.308	6736
1263.587	6875
1265.867	6890
1268.146	6773
1270.425	6750
1272.703	6887
1274.981	6929
1277.256	6839
1279.532	6830
1281.808	6791
1284.083	6725
1286.358	6816
1288.63	6799
1290.904	6779
1293.175	6702
1295.449	6680
1297.719	6799
1299.99	6784
1302.259	6633
1304.529	6802
1306.798	6753
1309.065	6665
1311.333	6808
1313.599	6698
1315.866	6803
1318.131	6727
1320.396	6802
1322.66	6811
1324.925	6847
1327.187	6674
1329.448	6805
1331.711	6762
1333.974	6810
1336.234	6711
1338.493	6637
1340.752	6811
1343.01	6645
1345.269	6706
1347.526	6634
1349.784	6742
1352.04	6759
1354.295	6611
1356.552	6753
1358.806	6744
1361.059	6880
1363.312	6683
1365.564	6745
1367.818	6751
1370.069	6768
1372.318	6743
1374.568	6645
1376.817	6840
1379.066	6695
1381.316	6799
1383.564	6785
1385.809	6827
1388.056	6724
1390.301	6745
1392.549	6808
1394.793	6927
1397.036	6988
1399.279	7011
1401.522	6935
1403.763	6914
1406.007	6978
1408.248	7036
1410.487	6864
1412.727	7030
1414.965	7108
1417.205	7031
1419.442	6870
1421.68	7099
1423.915	6991
1426.152	7011
1428.388	7095
1430.623	7019
1432.857	6993
1435.091	7105
1437.323	7023
1439.556	7094
1441.789	7055
1444.019	7099
1446.25	7153
1448.48	7042
1450.708	7193
1452.938	7228
1455.167	7284
1457.394	7074
1459.62	7171
1461.846	7157
1464.073	7192
1466.299	7149
1468.523	7165
1470.746	6990
1472.969	6890
1475.191	6897
1477.415	6995
1479.636	6907
1481.858	6888
1484.078	6861
1486.298	6812
1488.518	6756
1490.736	6748
1492.954	6778
1495.169	6762
1497.386	6805
1499.602	6775
1501.819	6629
1504.034	6655
1506.248	6766
1508.462	6688
1510.675	6657
1512.888	6625
1515.1	6713
1517.311	6697
1519.522	6750
1521.732	6703
1523.942	6777
1526.151	6669
1528.36	6732
1530.566	6728
1532.773	6772
1534.98	6749
1537.187	6731
1539.392	6750
1541.596	6777
1543.801	6762
1546.005	6756
1548.208	6884
1550.411	6880
1552.612	6742
1554.814	6913
1557.013	6846
1559.212	6849
1561.414	6882
1563.612	6743
1565.811	6839
1568.007	6903
1570.203	6888
1572.403	6909
1574.598	6922
1576.792	6929
1578.988	6918
1581.181	6962
1583.376	6902
1585.568	6918
1587.761	6920
1589.952	7008
1592.143	7024
1594.333	7004
1596.524	7047
1598.715	6974
1600.903	7056
1603.091	6914
1605.278	7061
1607.466	6880
1609.652	6920
1611.838	6903
1614.023	6855
1616.207	6970
1618.391	7003
1620.576	6977
1622.759	7013
1624.941	7050
1627.123	7017
1629.304	7082
1631.484	7052
1633.664	7104
1635.844	7037
1638.022	7020
1640.201	7087
1642.38	7053
1644.556	7082
1646.732	7091
1648.908	7132
1651.084	7251
1653.257	7258
1655.433	7138
1657.607	7086
1659.779	7218
1661.951	7183
1664.122	7218
1666.295	7237
1668.467	7158
1670.635	7302
1672.805	7221
1674.973	7163
1677.142	7262
1679.31	7206
1681.478	7124
1683.644	7017
1685.81	7128
1687.975	7177
1690.142	7111
1692.305	7137
1694.468	7128
1696.632	7111
1698.794	7080
1700.957	6957
1703.119	7010
1705.279	7094
1707.439	6990
1709.598	6999
1711.758	7010
1713.917	6834
1716.075	7059
1718.231	7033
1720.388	6876
1722.543	7047
1724.702	6943
1726.856	6915
1729.01	6854
1731.164	6966
1733.317	6912
1735.471	6911
1737.623	6828
1739.774	6960
1741.925	6817
1744.075	6992
1746.225	7054
1748.376	6868
1750.524	6931
1752.672	6984
1754.82	6851
1756.965	6977
1759.113	7028
1761.259	7022
1763.405	6972
1765.549	7008
1767.694	6971
1769.836	6934
1771.981	6964
1774.123	6892
1776.264	7048
1778.405	6929
1780.546	7021
1782.687	6929
1784.827	7095
1786.966	6883
1789.103	6949
1791.242	7060
1793.381	7006
1795.517	7035
1797.653	7067
1799.788	6985
1801.923	7004
1804.057	7017
1806.193	6988
1808.326	7015
1810.457	7029
1812.59	7053
1814.721	7018
1816.855	6921
1818.984	7092
1821.113	6994
1823.244	6920
1825.372	7031
1827.499	6998
1829.63	6981
1831.756	7036
1833.882	6963
1836.007	7113
1838.132	6987
1840.26	6956
1842.384	6867
1844.507	6908
1846.63	7006
1848.752	6901
1850.875	7024
1852.996	6949
1855.118	7029
1857.238	7016
1859.358	6929
1861.477	6866
1863.597	6898
1865.715	6987
1867.832	6932
1869.948	7000
1872.064	6935
1874.181	6919
1876.297	7002
1878.411	6883
1880.526	6993
1882.639	6854
1884.752	6850
1886.865	6979
1888.977	6876
1891.089	7064
1893.2	7005
1895.308	7024
1897.42	7008
1899.53	6968
1901.639	6951
1903.745	6860
1905.853	7118
1907.962	7028
1910.067	6910
1912.174	7018
1914.278	7049
1916.383	6996
1918.486	7034
1920.592	6972
1922.694	7069
1924.797	6938
1926.898	7042
1929	7041
1931.102	7070
1933.203	7128
1935.301	7073
1937.401	7103
1939.499	7086
1941.598	7096
1943.697	6975
1945.793	6992
1947.888	7165
1949.985	7102
1952.08	7014
1954.176	7044
1956.269	7017
1958.364	7012
1960.457	7135
1962.549	7111
1964.642	6981
1966.733	7064
1968.823	7080
1970.913	7092
1973.005	7120
1975.093	7018
1977.184	7013
1979.271	6997
1981.359	6917
1983.446	6986
1985.532	7013
1987.619	7082
1989.705	6885
1991.789	6996
1993.874	7063
1995.956	6989
1998.041	6976
2000.123	6876
2002.206	6890
2004.287	6995
2006.368	6970
2008.449	6939
2010.529	6951
2012.609	7047
2014.688	7011
2016.766	6927
2018.843	7018
2020.922	6984
2022.999	7020
2025.074	7013
2027.15	6859
2029.225	6940
2031.299	6983
2033.375	7081
2035.447	6903
2037.52	6961
2039.592	7007
2041.664	6938
2043.736	6902
2045.807	6931
2047.876	7001
2049.947	6955
2052.015	6990
2054.086	6920
2056.153	6909
2058.221	6830
2060.288	6991
2062.353	6964
2064.42	6925
2066.486	6962
2068.55	6954
2070.614	6995
2072.678	7103
2074.741	6988
2076.805	6906
2078.866	7057
2080.929	6944
2082.99	6839
2085.049	6988
2087.109	7093
2089.17	6973
2091.228	7028
2093.286	6970
2095.344	7048
2097.4	7012
2099.46	7021
2101.516	6998
2103.572	7013
2105.626	7031
2107.679	7085
2109.735	6977
2111.788	6974
2113.841	6986
2115.894	6919
2117.945	6939
2119.997	6829
2122.049	6997
2124.1	6976
2126.148	6910
2128.197	6984
2130.246	7037
2132.296	6884
2134.342	7080
2136.39	6864
2138.437	6972
2140.483	6894
2142.527	6947
2144.574	6874
2146.619	7059
2148.661	6918
2150.705	6809
2152.747	6985
2154.792	6952
2156.832	6933
2158.874	6945
2160.915	6880
2162.954	6855
2164.995	6883
2167.034	6850
2169.072	6842
2171.111	6973
2173.148	6824
2175.186	6999
2177.223	6903
2179.258	6846
2181.294	6841
2183.328	6789
2185.362	6945
2187.398	6833
2189.431	6734
2191.463	6926
2193.495	6915
2195.528	6792
2197.56	6832
2199.59	6902
2201.62	6775
2203.649	6739
2205.678	6835
2207.708	6763
2209.737	6710
2211.764	6838
2213.791	6815
2215.817	6773
2217.843	6881
2219.87	6853
2221.895	6694
2223.919	6680
2225.942	6732
2227.966	6828
2229.988	6764
2232.012	6679
2234.032	6767
2236.054	6754
2238.074	6618
2240.095	6794
2242.116	6894
2244.135	6694
2246.153	6824
2248.171	6811
2250.188	6860
2252.208	6813
2254.223	6798
2256.239	6788
2258.255	6824
2260.269	6612
2262.283	6791
2264.3	6762
2266.312	6812
2268.325	6807
2270.336	6802
2272.349	6738
2274.362	6671
2276.372	6827
2278.383	6748
2280.392	6766
2282.402	6746
2284.409	6690
2286.418	6811
2288.427	6675
2290.433	6662
2292.441	6801
2294.446	6777
2296.453	6843
2298.459	6783
2300.463	6778
2302.466	6773
2304.471	6794
2306.475	6681
2308.477	6683
2310.478	6770
2312.481	6724
2314.481	6692
2316.481	6796
2318.482	6669
2320.482	6813
2322.48	6755
2324.48	6697
2326.478	6689
2328.476	6718
2330.473	6779
2332.469	6613
2334.465	6647
2336.46	6717
2338.454	6686
2340.45	6671
2342.444	6652
2344.437	6578
2346.43	6658
2348.421	6728
2350.414	6644
2352.405	6720
2354.396	6676
2356.386	6640
2358.376	6719
2360.366	6718
2362.355	6654
2364.343	6669
2366.331	6578
2368.317	6571
2370.304	6519
2372.292	6622
2374.278	6535
2376.262	6588
2378.247	6493
2380.23	6609
2382.216	6540
2384.199	6577
2386.181	6540
2388.163	6537
2390.144	6537
2392.127	6487
2394.107	6572
2396.087	6485
2398.066	6455
2400.046	6485
2402.023	6427
2404.004	6543
2405.981	6507
2407.957	6459
2409.934	6471
2411.91	6641
2413.886	6454
2415.862	6615
2417.836	6500
2419.809	6518
2421.784	6485
2423.756	6521
2425.73	6400
2427.701	6516
2429.672	6449
2431.644	6595
2433.615	6589
2435.586	6564
2437.555	6532
2439.523	6595
2441.491	6505
2443.459	6527
2445.428	6406
2447.395	6486
2449.361	6567
2451.327	6518
2453.292	6540
2455.257	6499
2457.223	6375
2459.187	6461
2461.15	6534
2463.113	6490
2465.076	6520
2467.039	6468
2468.999	6473
2470.96	6460
2472.921	6447
2474.881	6526
2476.841	6405
2478.8	6449
2480.759	6476
2482.717	6387
2484.675	6417
2486.63	6395
2488.589	6456
2490.545	6484
2492.5	6435
2494.455	6401
2496.408	6376
2498.364	6317
2500.318	6337
2502.27	6417
2504.223	6253
2506.174	6357
2508.126	6422
2510.078	6331
2512.03	6298
2513.979	6423
2515.927	6371
2517.877	6396
2519.826	6302
2521.775	6423
2523.722	6315
2525.668	6399
2527.616	6495
2529.561	6341
2531.508	6415
2533.452	6389
2535.398	6343
2537.342	6375
2539.284	6206
2541.229	6371
2543.173	6368
2545.114	6270
2547.055	6443
2548.996	6359
2550.938	6442
2552.878	6263
2554.817	6486
2556.756	6287
2558.695	6315
2560.633	6377
2562.572	6335
2564.509	6347
2566.445	6358
2568.382	6302
2570.317	6333
2572.254	6308
2574.189	6378
2576.123	6314
2578.057	6322
2579.99	6354
2581.923	6393
2583.855	6344
2585.788	6333
2587.719	6371
2589.65	6394
2591.579	6352
2593.511	6347
2595.44	6296
2597.37	6373
2599.297	6276
2601.225	6443
2603.153	6278
2605.08	6430
2607.007	6359
2608.932	6408
2610.858	6331
2612.782	6302
2614.709	6300
2616.632	6296
2618.556	6347
2620.478	6313
2622.401	6459
2624.324	6351
2626.247	6302
2628.167	6314
2630.088	6430
2632.008	6372
2633.928	6344
2635.848	6288
2637.766	6280
2639.684	6311
2641.603	6362
2643.519	6288
2645.437	6371
2647.353	6351
2649.27	6421
2651.184	6217
2653.099	6337
2655.014	6376
2656.928	6319
2658.842	6340
2660.755	6342
2662.667	6326
2664.579	6317
2666.491	6372
2668.402	6357
2670.312	6256
2672.222	6292
2674.132	6220
2676.042	6334
2677.951	6292
2679.859	6266
2681.766	6320
2683.674	6288
2685.582	6286
2687.488	6353
2689.392	6284
2691.298	6328
2693.202	6370
2695.107	6309
2697.012	6254
2698.914	6382
2700.817	6244
2702.72	6308
2704.622	6316
2706.524	6330
2708.425	6275
2710.326	6348
2712.225	6227
2714.125	6205
2716.024	6346
2717.923	6291
2719.822	6198
2721.719	6270
2723.616	6141
2725.512	6193
2727.41	6390
2729.305	6215
2731.201	6299
2733.095	6207
2734.99	6229
2736.884	6197
2738.778	6364
2740.67	6244
2742.562	6240
2744.455	6242
2746.346	6210
2748.238	6235
2750.129	6185
2752.018	6117
2753.907	6278
2755.797	6223
2757.687	6180
2759.575	6106
2761.462	6190
2763.349	6133
2765.237	6159
2767.124	6194
2769.009	6085
2770.894	6235
2772.779	6184
2774.663	6209
2776.547	6145
2778.431	6071
2780.314	6239
2782.197	6103
2784.078	6227
2785.96	6109
2787.842	6122
2789.723	6160
2791.603	6150
2793.483	6150
2795.362	6082
2797.241	6241
2799.121	6055
2800.997	6081
2802.874	6158
2804.751	6106
2806.628	6108
2808.506	6190
2810.38	6097
2812.255	6041
2814.13	6082
2816.003	6149
2817.878	6063
2819.752	6083
2821.623	6186
2823.496	6065
2825.368	6024
2827.238	6093
2829.111	6165
2830.98	6027
2832.851	6106
2834.719	6171
2836.589	6241
2838.458	6095
2840.327	6116
2842.193	6078
2844.061	6188
2845.927	6013
2847.794	6176
2849.66	6189
2851.525	6276
2853.39	6141
2855.254	6239
2857.117	6140
2858.983	6202
2860.845	6214
2862.707	6266
2864.569	6260
2866.431	6282
2868.293	6246
2870.154	6427
2872.013	6409
2873.873	6507
2875.733	6452
2877.592	6725
2879.451	6721
2881.309	6786
2883.166	6750
2885.022	6661
2886.879	6913
2888.736	6641
2890.591	6842
2892.446	6898
2894.301	6789
2896.155	6897
2898.009	6734
2899.863	6801
2901.716	6874
2903.568	6768
2905.419	6738
2907.27	6748
2909.123	6853
2910.973	6850
2912.824	7000
2914.673	6953
2916.521	6942
2918.372	7171
2920.22	7120
2922.067	7268
2923.914	7251
2925.761	7276
2927.607	7260
2929.455	7510
2931.301	7488
2933.144	7579
2934.99	7705
2936.833	7615
2938.678	7811
2940.522	7734
2942.364	7964
2944.207	7942
2946.048	8001
2947.891	8160
2949.731	7875
2951.571	8019
2953.412	8017
2955.25	7751
2957.09	7779
2958.93	7719
2960.767	7579
2962.606	7392
2964.443	7527
2966.279	7340
2968.116	7336
2969.953	7278
2971.788	7248
2973.623	7077
2975.457	7054
2977.292	7122
2979.127	7123
2980.959	7138
2982.792	6883
2984.624	6852
2986.455	6819
2988.288	6886
2990.119	6871
2991.949	6843
2993.779	6833
2995.608	6688
2997.439	6671
2999.268	6668
3001.096	6588
3002.923	6496
3004.751	6526
3006.578	6350
3008.406	6428
3010.232	6223
3012.057	6297
3013.883	6110
3015.706	6246
3017.532	6067
3019.356	6195
3021.179	6111
3023.002	6064
3024.823	6000
3026.646	5999
3028.469	5891
3030.289	5986
3032.11	5875
3033.93	5989
3035.749	5965
3037.57	5844
3039.39	5829
3041.207	5842
3043.026	5841
3044.842	5829
3046.661	5871
3048.477	5909
3050.294	5783
3052.109	5794
3053.925	5853
3055.739	5735
3057.555	5883
3059.368	5807
3061.181	5742
3062.995	5798
3064.807	5799
3066.62	5835
3068.433	5722
3070.243	5816
3072.054	5815
3073.865	5790
3075.675	5680
3077.485	5784
3079.293	5795
3081.102	5775
3082.911	5776
3084.719	5711
3086.527	5681
3088.333	5779
3090.139	5678
3091.945	5751
3093.75	5800
3095.557	5664
3097.361	5680
3099.165	5641
3100.969	5569
3102.772	5564
3104.575	5621
3106.379	5576
3108.181	5598
3109.982	5628
3111.783	5559
3113.584	5515
3115.386	5571
3117.186	5586
3118.985	5625
3120.783	5657
3122.582	5516
3124.381	5563
3126.179	5530
3127.975	5560
3129.772	5574
3131.569	5642
3133.365	5421
3135.161	5451
3136.956	5401
3138.751	5470
3140.544	5442
3142.338	5603
3144.132	5534
3145.925	5490
3147.717	5439
3149.509	5541
3151.301	5494
3153.091	5473
3154.884	5375
3156.673	5396
3158.462	5416
3160.252	5531
3162.041	5499
3163.831	5490
3165.618	5385
3167.405	5483
3169.193	5507
3170.979	5400
3172.767	5431
3174.553	5477
3176.338	5403
3178.123	5415
3179.907	5465
3181.692	5399
3183.477	5369
3185.259	5451
3187.042	5479
3188.824	5391
3190.607	5453
3192.389	5438
3194.17	5364
3195.951	5472
3197.73	5475
3199.51	5421
3201.289	5442
3203.07	5402
3204.848	5433
3206.626	5470
3208.403	5537
3210.18	5369
3211.959	5399
3213.735	5423
3215.511	5368
3217.285	5393
3219.06	5377
3220.836	5403
3222.611	5439
3224.384	5357
3226.158	5428
3227.929	5305
3229.702	5448
3231.476	5410
3233.248	5403
3235.018	5438
3236.789	5392
3238.56	5408
3240.33	5397
3242.1	5452
3243.869	5434
3245.637	5471
3247.405	5288
3249.172	5443
3250.941	5365
3252.707	5515
3254.474	5452
3256.24	5459
3258.006	5420
3259.772	5323
3261.537	5402
3263.301	5466
3265.065	5347
3266.828	5482
3268.592	5408
3270.355	5377
3272.117	5298
3273.878	5372
3275.64	5399
3277.401	5416
3279.162	5428
3280.922	5356
3282.682	5463
3284.441	5400
3286.199	5313
3287.959	5394
3289.716	5400
3291.475	5376
3293.232	5594
3294.988	5466
3296.744	5293
3298.501	5313
3300.256	5512
3302.011	5402
3303.766	5486
3305.52	5356
3307.275	5451
3309.028	5348
3310.781	5381
3312.533	5499
3314.285	5409
3316.038	5465
3317.789	5387
3319.54	5367
3321.289	5442
3323.039	5373
3324.789	5459
3326.539	5428
3328.288	5335
3330.035	5435
3331.783	5426
3333.531	5474
3335.28	5482
3337.025	5362
3338.771	5419
3340.518	5324
3342.262	5374
3344.009	5435
3345.753	5423
3347.497	5423
3349.24	5333
3350.983	5363
3352.726	5282
3354.469	5320
3356.212	5341
3357.952	5296
3359.694	5257
3361.434	5370
3363.176	5215
3364.916	5218
3366.654	5259
3368.394	5207
3370.132	5338
3371.871	5169
3373.61	5179
3375.346	5246
3377.083	5268
3378.82	5238
3380.556	5291
3382.292	5176
3384.027	5316
3385.763	5177
3387.497	5178
3389.231	5317
3390.965	5209
3392.698	5191
3394.431	5126
3396.164	5152
3397.896	5206
3399.627	5149
3401.36	5109
3403.09	5218
3404.82	5213
3406.55	5276
3408.279	5064
3410.01	5168
3411.738	5197
3413.467	5177
3415.194	5143
3416.92	5130
3418.647	5112
3420.375	5040
3422.102	5095
3423.827	5052
3425.553	5091
3427.277	5181
3429.003	5087
3430.727	5115
3432.451	5111
3434.173	5135
3435.896	5158
3437.62	5103
3439.343	5103
3441.063	5056
3442.785	5114
3444.505	4948
3446.226	5077
3447.948	5087
3449.666	5068
3451.386	5098
3453.104	5036
3454.823	4962
3456.541	4950
3458.259	5012
3459.976	5027
3461.693	5039
3463.408	5009
3465.125	5020
3466.841	4848
3468.556	4971
3470.271	4991
3471.985	4932
3473.698	4891
3475.414	4970
3477.126	4852
3478.838	4875
3480.55	4885
3482.263	4867
3483.975	4830
3485.686	4848
3487.396	4855
3489.106	4846
3490.817	4840
3492.526	4810
3494.236	4779
3495.944	4787
3497.652	4782
3499.359	4811
3501.066	4754
3502.775	4781
3504.481	4755
3506.187	4716
3507.893	4744
3509.598	4761
3511.304	4645
3513.009	4761
3514.713	4783
3516.417	4712
3518.12	4695
3519.821	4735
3521.525	4750
3523.228	4670
3524.929	4792
3526.631	4696
3528.33	4680
3530.032	4653
3531.733	4771
3533.433	4703
3535.131	4582
3536.83	4666
3538.529	4574
3540.227	4653
3541.925	4639
3543.623	4577
3545.319	4628
3547.016	4550
3548.712	4634
3550.408	4638
3552.103	4574
3553.798	4631
3555.491	4564
3557.188	4611
3558.88	4778
3560.574	4539
3562.266	4649
3563.959	4595
3565.651	4425
3567.343	4550
3569.035	4609
3570.725	4545
3572.415	4470
3574.106	4515
3575.797	4465
3577.485	4499
3579.174	4529
3580.863	4460
3582.551	4590
3584.238	4397
3585.926	4434
3587.613	4483
3589.3	4491
3590.986	4467
3592.671	4362
3594.357	4445
3596.042	4395
3597.726	4346
3599.41	4482
3601.094	4429
3602.778	4377
3604.461	4389
3606.143	4359
3607.825	4398
3609.507	4309
3611.188	4298
3612.87	4353
3614.551	4341
3616.229	4289
3617.909	4332
3619.589	4332
3621.269	4255
3622.948	4266
3624.625	4351
3626.302	4295
3627.98	4253
3629.657	4324
3631.334	4227
3633.01	4285
3634.686	4198
3636.361	4312
3638.036	4218
3639.712	4176
3641.385	4181
3643.06	4314
3644.732	4184
3646.405	4225
3648.08	4194
3649.751	4231
3651.424	4197
3653.094	4156
3654.766	4211
3656.436	4172
3658.106	4066
3659.777	4162
3661.446	4160
3663.115	4203
3664.783	4164
3666.452	4206
3668.121	4168
3669.788	4092
3671.454	4173
3673.121	4112
3674.789	4144
3676.455	4090
3678.12	4133
3679.784	4078
3681.45	4148
3683.114	4107
3684.779	4168
3686.442	4065
3688.105	4124
3689.768	4115
3691.43	4083
3693.093	4036
3694.754	3986
3696.415	4062
3698.076	4194
3699.736	3999
3701.396	3998
3703.057	3969
3704.716	4027
3706.375	4041
3708.034	4055
3709.692	4003
3711.351	4082
3713.008	3961
3714.665	4078
3716.321	4023
3717.977	4122
3719.634	4058
3721.29	4042
3722.945	4011
3724.598	4016
3726.253	4065
3727.907	3990
3729.561	3948
3731.214	4056
3732.867	3976
3734.518	3901
3736.171	4017
3737.824	4020
3739.474	4020
3741.125	4015
3742.775	4037
3744.425	3973
3746.074	3931
3747.725	3944
3749.373	3979
3751.022	3926
3752.669	3886
3754.318	3919
3755.966	3965
3757.612	3879
3759.259	3934
3760.905	3941
3762.55	3942
3764.197	3856
3765.842	3926
3767.486	3965
3769.131	3843
3770.774	3913
3772.417	3892
3774.061	3893
3775.705	3914
3777.347	3964
3778.988	3910
3780.629	3906
3782.271	3863
3783.912	3933
3785.552	3927
3787.192	3878
3788.831	3907
3790.472	3841
3792.112	3902
3793.75	3867
3795.388	3737
3797.024	3866
3798.661	3719
3800.3	3865
3801.936	3860
3803.572	3862
3805.208	3866
3806.844	3853
3808.48	3789
3810.115	3726
3811.748	3823
3813.382	3802
3815.016	3776
3816.649	3783
3818.283	3805
3819.914	3719
3821.547	3772
3823.178	3732
3824.809	3743
3826.441	3738
3828.072	3808
3829.701	3668
3831.331	3818
3832.96	3755
3834.591	3800
3836.219	3798
3837.847	3677
3839.475	3712
3841.102	3724
3842.729	3788
3844.357	3760
3845.984	3760
3847.609	3667
3849.234	3660
3850.86	3785
3852.485	3705
3854.11	3610
3855.734	3709
3857.357	3680
3858.981	3764
3860.603	3694
3862.227	3690
3863.848	3694
3865.471	3755
3867.092	3744
3868.713	3635
3870.334	3633
3871.954	3687
3873.575	3676
3875.194	3627
3876.813	3683
3878.433	3591
3880.051	3597
3881.669	3685
3883.286	3622
3884.904	3601
3886.52	3683
3888.138	3618
3889.754	3681
3891.37	3571
3892.985	3643
3894.6	3644
3896.216	3628
3897.831	3637
3899.444	3565
3901.058	3712
3902.67	3625
3904.283	3587
3905.897	3675
3907.509	3543
3909.121	3548
3910.731	3556
3912.342	3558
3913.954	3649
3915.563	3598
3917.174	3623
3918.783	3597
3920.391	3696
3922.002	3572
3923.611	3572
3925.218	3541
3926.826	3624
3928.432	3490
3930.039	3540
3931.647	3525
3933.253	3634
3934.859	3572
3936.464	3521
3938.068	3570
3939.675	3577
3941.278	3568
3942.883	3587
3944.486	3503
3946.089	3471
3947.692	3536
3949.295	3528
3950.898	3446
3952.499	3554
3954.1	3536
3955.7	3534
3957.303	3480
3958.903	3515
3960.502	3452
3962.101	3491
3963.7	3535
3965.301	3414
3966.899	3503
3968.497	3499
3970.094	3486
3971.691	3424
3973.288	3465
3974.885	3504
3976.481	3372
3978.077	3446
3979.672	3433
3981.267	3459
3982.863	3481
3984.457	3510
3986.051	3427
3987.645	3413
3989.238	3376
3990.831	3465
3992.425	3393
3994.017	3403
3995.607	3404
3997.199	3397
3998.79	3324
4000.382	3392
4001.973	3385
4003.561	3472
4005.151	3434
4006.741	3390
4008.331	3440
4009.918	3361
4011.507	3283
4013.095	3394
4014.681	3371
4016.269	3402
4017.856	3383
4019.443	3377
4021.028	3393
4022.614	3268
4024.199	3300
4025.785	3278
4027.37	3327
4028.953	3353
4030.536	3335
4032.12	3218
4033.704	3364
4035.287	3433
4036.869	3312
4038.45	3284
4040.032	3254
4041.613	3228
4043.195	3272
4044.776	3301
4046.356	3341
4047.935	3191
4049.515	3279
4051.095	3245
4052.674	3279
4054.251	3329
4055.829	3288
4057.406	3234
4058.985	3258
4060.562	3285
4062.139	3210
4063.715	3262
4065.29	3249
4066.865	3235
4068.442	3169
4070.016	3286
4071.59	3248
4073.164	3285
4074.738	3111
4076.312	3193
4077.885	3205
4079.458	3294
4081.03	3191
4082.602	3174
4084.173	3242
4085.745	3206
4087.315	3286
4088.886	3210
4090.456	3197
4092.026	3244
4093.596	3187
4095.165	3205
4096.734	3157
4098.301	3227
4099.869	3153
4101.437	3142
4103.006	3132
4104.572	3183
4106.139	3161
4107.704	3221
4109.27	3136
4110.837	3201
4112.401	3108
4113.966	3154
4115.53	3057
4117.094	3131
4118.659	3152
4120.223	3192
4121.785	3134
4123.347	3080
4124.909	3101
4126.471	3100
4128.034	3078
4129.595	3110
4131.155	3023
4132.716	3025
4134.275	3123
4135.836	3094
4137.395	3060
4138.955	3074
4140.513	3136
4142.071	3092
4143.628	3065
4145.188	3111
4146.745	3085
4148.302	3082
4149.858	3077
4151.414	2974
4152.971	3102
4154.526	3008
4156.081	3045
4157.635	3029
4159.189	3088
4160.745	3070
4162.298	2997
4163.852	3053
4165.405	3035
4166.957	2969
4168.51	2948
4170.063	3046
4171.614	3021
4173.166	3017
4174.717	2961
4176.267	3049
4177.817	2944
4179.368	2954
4180.917	2992
4182.466	2975
4184.016	2924
4185.564	3071
4187.112	2864
4188.66	3011
4190.207	2933
4191.754	2921
4193.301	2919
4194.848	2978
4196.394	2953
4197.94	2941
4199.484	2917
4201.03	2886
4202.575	2853
4204.12	2937
4205.663	2948
4207.207	2931
4208.75	2959
4210.292	2896
4211.836	2964
4213.378	2954
4214.92	2902
4216.46	2950
4218.002	3006
4219.544	2894
4221.083	2953
4222.625	2950
4224.164	2821
4225.703	2938
4227.244	2894
4228.782	2820
4230.32	2891
4231.857	2904
4233.395	2965
4234.933	2881
4236.471	2920
4238.007	2850
4239.542	2855
4241.078	2841
4242.614	2856
4244.15	2855
4245.685	2886
4247.219	2841
4248.753	2852
4250.287	2840
4251.82	2832
4253.354	2811
4254.887	2804
4256.419	2869
4257.951	2758
4259.483	2826
4261.016	2906
4262.547	2840
4264.078	2846
4265.608	2829
4267.137	2842
4268.668	2874
4270.197	2801
4271.727	2852
4273.254	2831
4274.783	2721
4276.311	2897
4277.84	2822
4279.366	2828
4280.894	2825
4282.42	2854
4283.946	2780
4285.473	2761
4286.998	2855
4288.523	2821
4290.047	2794
4291.572	2712
4293.096	2795
4294.622	2811
4296.144	2783
4297.668	2874
4299.19	2750
4300.713	2799
4302.236	2739
4303.758	2728
4305.279	2736
4306.799	2687
4308.321	2709
4309.842	2798
4311.361	2706
4312.882	2760
4314.401	2760
