400.0961	3796
402.6185	3910
405.1424	3879
407.6635	3800
410.1838	3819
412.7035	3756
415.2225	3867
417.7388	3866
420.2585	3928
422.7754	3867
425.2917	4045
427.8072	3957
430.3221	4046
432.8363	4042
435.3498	4078
437.8626	4080
440.3727	4078
442.8841	4066
445.3969	4047
447.907	3986
450.4142	4056
452.9229	4070
455.4289	3988
457.9362	4026
460.4449	3993
462.9488	4040
465.454	3968
467.9566	4042
470.4604	4010
472.9637	3909
475.4662	3912
477.966	4021
480.4671	3957
482.9656	3904
485.4633	4036
487.9645	4072
490.4608	4040
492.9566	4021
495.4536	4072
497.948	4102
500.4437	4088
502.9387	4135
505.431	4002
507.9226	4162
510.4136	4140
512.9079	4085
515.3975	4136
517.8864	4190
520.3746	4134
522.8622	4112
525.3491	4202
527.8394	4175
530.3249	4164
532.8098	4168
535.2939	4159
537.7774	4173
540.2623	4152
542.7444	4246
545.2259	4221
547.7067	4218
550.1868	4191
552.6683	4176
555.147	4144
557.6231	4112
560.1005	4224
562.5773	4249
565.0534	4285
567.5308	4260
570.0056	4243
572.4776	4253
574.951	4246
577.4237	4247
579.8978	4250
582.3671	4277
584.8378	4306
587.3079	4404
589.7773	4277
592.244	4369
594.714	4372
597.1793	4374
599.6461	4313
602.1121	4293
604.5754	4378
607.0421	4264
609.5042	4320
611.9675	4376
614.4282	4338
616.8902	4290
619.3515	4285
621.8122	4367
624.2702	4326
626.7296	4283
629.1863	4235
631.6423	4387
634.1017	4288
636.5563	4311
639.0104	4301
641.4658	4348
643.9185	4219
646.3725	4308
648.8239	4251
651.2766	4383
653.7266	4321
656.176	4313
658.6247	4340
661.0748	4367
663.5242	4331
665.9709	4300
668.417	4460
670.8624	4416
673.3092	4370
675.7533	4396
678.1968	4477
680.6395	4390
683.0817	4530
685.5251	4456
687.9659	4416
690.4061	4484
692.8456	4441
695.2844	4484
697.7226	4521
700.1621	4556
702.599	4497
705.0332	4475
707.4688	4461
709.9036	4500
712.3399	4642
714.7735	4615
717.2044	4615
719.6367	4552
722.0683	4527
724.4993	4589
726.9296	4497
729.3593	4651
731.7883	4618
734.2147	4565
736.6423	4562
739.0714	4665
741.4958	4604
743.9216	4622
746.3447	4670
748.7691	4635
751.1929	4628
753.616	4742
756.0366	4702
758.4584	4725
760.8776	4702
763.2982	4753
765.718	4696
768.1373	4689
770.5539	4745
772.9698	4793
775.3871	4711
777.8038	4757
780.2178	4815
782.6332	4825
785.0459	4829
787.458	4795
789.8714	4727
792.2842	4726
794.6943	4700
797.1038	4767
799.5127	4723
801.9209	4814
804.3324	4872
806.7393	4884
809.1456	4801
811.5513	4804
813.9562	4771
816.3625	4881
818.7663	4862
821.1693	4867
823.5718	4841
825.9735	4862
828.3746	4910
830.7771	4846
833.177	4805
835.5762	4930
837.9747	4914
840.3727	4906
842.772	4939
845.1666	4949
847.5626	5007
849.958	4951
852.3527	4993
854.7488	5139
857.1403	5082
859.5331	5114
861.9253	4943
864.3168	4978
866.7057	5046
869.098	4970
871.4876	4992
873.8746	4973
876.263	5105
878.6487	4962
881.0378	4941
883.4243	5045
885.8081	4948
888.1933	4931
890.5759	4959
892.9598	4967
895.343	4930
897.7256	4930
900.1057	5028
902.4871	5057
904.8659	5067
907.246	5047
909.6254	5027
912.0023	5123
914.3786	5184
916.7562	5402
919.1331	5495
921.5074	5500
923.8831	5598
926.2562	5490
928.6287	5421
931.0005	5405
933.3757	5382
935.7462	5475
938.1162	5357
940.4855	5494
942.8542	5352
945.2242	5503
947.5916	5419
949.9584	5479
952.3266	5845
954.6921	5794
957.0571	5972
959.4233	6153
961.787	6314
964.15	6043
966.5125	6097
968.8742	5972
971.2354	5682
973.5959	5508
975.9559	5428
978.3151	5485
980.6738	5307
983.0338	5351
985.3912	5239
987.7461	5262
990.1022	5262
992.4578	5172
994.8127	5145
997.1689	5096
999.5207	5097
1001.874	5268
1004.226	5225
1006.576	5213
1008.929	5236
1011.28	5235
1013.628	5210
1015.977	5148
1018.324	5025
1020.674	5145
1023.019	5231
1025.366	5231
1027.713	5259
1030.056	5227
1032.399	5179
1034.746	5185
1037.087	5246
1039.431	5295
1041.771	5267
1044.113	5248
1046.454	5237
1048.793	5172
1051.133	5331
1053.471	5294
1055.807	5267
1058.146	5290
1060.483	5194
1062.818	5230
1065.153	5260
1067.489	5260
1069.822	5365
1072.156	5339
1074.488	5360
1076.82	5417
1079.15	5325
1081.48	5205
1083.814	5314
1086.143	5237
1088.471	5214
1090.799	5173
1093.126	5263
1095.452	5296
1097.78	5194
1100.105	5260
1102.43	5177
1104.754	5320
1107.077	5285
1109.4	5286
1111.722	5252
1114.044	5316
1116.365	5270
1118.685	5311
1121.005	5309
1123.324	5441
1125.643	5386
1127.961	5430
1130.278	5332
1132.595	5273
1134.911	5318
1137.226	5372
1139.541	5237
1141.854	5359
1144.167	5269
1146.482	5247
1148.793	5250
1151.105	5201
1153.414	5296
1155.725	5227
1158.033	5221
1160.344	5296
1162.651	5305
1164.959	5301
1167.265	5226
1169.572	5366
1171.878	5313
1174.184	5380
1176.488	5345
1178.79	5351
1181.094	5391
1183.396	5396
1185.699	5400
1188.001	5280
1190.301	5261
1192.6	5268
1194.9	5315
1197.2	5289
1199.497	5420
1201.794	5365
1204.09	5316
1206.387	5335
1208.684	5355
1210.978	5211
1213.272	5343
1215.565	5327
1217.858	5299
1220.15	5363
1222.443	5390
1224.734	5325
1227.024	5406
1229.313	5346
1231.602	5492
1233.892	5473
1236.18	5547
1238.467	5517
1240.754	5627
1243.04	5725
1245.325	5642
1247.612	5639
1249.896	5615
1252.178	5556
1254.461	5598
1256.743	5595
1259.027	5528
1261.308	5670
1263.587	5687
1265.867	5673
1268.146	5664
1270.425	5713
1272.703	5638
1274.981	5636
1277.256	5596
1279.532	5651
1281.808	5591
1284.083	5552
1286.358	5655
1288.63	5483
1290.904	5498
1293.175	5485
1295.449	5587
1297.719	5468
1299.99	5514
1302.259	5559
1304.529	5512
1306.798	5497
1309.065	5533
1311.333	5567
1313.599	5637
1315.866	5461
1318.131	5428
1320.396	5502
1322.66	5496
1324.925	5587
1327.187	5577
1329.448	5721
1331.711	5637
1333.974	5729
1336.234	5558
1338.493	5517
1340.752	5605
1343.01	5491
1345.269	5601
1347.526	5494
1349.784	5533
1352.04	5486
1354.295	5453
1356.552	5432
1358.806	5438
1361.059	5502
1363.312	5393
1365.564	5564
1367.818	5476
1370.069	5536
1372.318	5526
1374.568	5555
1376.817	5442
1379.066	5490
1381.316	5602
1383.564	5584
1385.809	5515
1388.056	5767
1390.301	5748
1392.549	5906
1394.793	5872
1397.036	5950
1399.279	5970
1401.522	5990
1403.763	6055
1406.007	5922
1408.248	5959
1410.487	5886
1412.727	6007
1414.965	5969
1417.205	5889
1419.442	5850
1421.68	5832
1423.915	5856
1426.152	5799
1428.388	5773
1430.623	5819
1432.857	5845
1435.091	5815
1437.323	5969
1439.556	5918
1441.789	5966
1444.019	5809
1446.25	5909
1448.48	5858
1450.708	5933
1452.938	6078
1455.167	6010
1457.394	6006
1459.62	6035
1461.846	6013
1464.073	5931
1466.299	5844
1468.523	5765
1470.746	5784
1472.969	5733
1475.191	5733
1477.415	5671
1479.636	5643
1481.858	5597
1484.078	5603
1486.298	5556
1488.518	5581
1490.736	5545
1492.954	5474
1495.169	5547
1497.386	5425
1499.602	5468
1501.819	5469
1504.034	5486
1506.248	5520
1508.462	5415
1510.675	5507
1512.888	5338
1515.1	5438
1517.311	5431
1519.522	5493
1521.732	5423
1523.942	5471
1526.151	5427
1528.36	5386
1530.566	5445
1532.773	5461
1534.98	5449
1537.187	5568
1539.392	5457
1541.596	5438
1543.801	5478
1546.005	5622
1548.208	5460
1550.411	5569
1552.612	5428
1554.814	5531
1557.013	5495
1559.212	5514
1561.414	5515
1563.612	5613
1565.811	5545
1568.007	5575
1570.203	5606
1572.403	5675
1574.598	5623
1576.792	5563
1578.988	5639
1581.181	5570
1583.376	5706
1585.568	5638
1587.761	5611
1589.952	5619
1592.143	5552
1594.333	5616
1596.524	5620
1598.715	5706
1600.903	5715
1603.091	5691
1605.278	5668
1607.466	5641
1609.652	5822
1611.838	5702
1614.023	5777
1616.207	5709
1618.391	5677
1620.576	5627
1622.759	5760
1624.941	5713
1627.123	5771
1629.304	5693
1631.484	5636
1633.664	5666
1635.844	5843
1638.022	5723
1640.201	5725
1642.38	5860
1644.556	5827
1646.732	5888
1648.908	5825
1651.084	5841
1653.257	5802
1655.433	5820
1657.607	5774
1659.779	5928
1661.951	5815
1664.122	5869
1666.295	5988
1668.467	5943
1670.635	5902
1672.805	5841
1674.973	5831
1677.142	5813
1679.31	5705
1681.478	5887
1683.644	5747
1685.81	5795
1687.975	5798
1690.142	5931
1692.305	5775
1694.468	5730
1696.632	5803
1698.794	5680
1700.957	5683
1703.119	5729
1705.279	5703
1707.439	5494
1709.598	5646
1711.758	5620
1713.917	5704
1716.075	5724
1718.231	5578
1720.388	5661
1722.543	5700
1724.702	5658
1726.856	5675
1729.01	5647
1731.164	5616
1733.317	5742
1735.471	5629
1737.623	5638
1739.774	5705
1741.925	5580
1744.075	5643
1746.225	5634
1748.376	5585
1750.524	5549
1752.672	5585
1754.82	5808
1756.965	5591
1759.113	5663
1761.259	5660
1763.405	5702
1765.549	5707
1767.694	5666
1769.836	5736
1771.981	5656
1774.123	5661
1776.264	5661
1778.405	5645
1780.546	5738
1782.687	5624
1784.827	5683
1786.966	5694
1789.103	5739
1791.242	5734
1793.381	5681
1795.517	5700
1797.653	5726
1799.788	5753
1801.923	5619
1804.057	5694
1806.193	5588
1808.326	5629
1810.457	5672
1812.59	5678
1814.721	5628
1816.855	5655
1818.984	5717
1821.113	5672
1823.244	5602
1825.372	5692
1827.499	5654
1829.63	5706
1831.756	5676
1833.882	5634
1836.007	5608
1838.132	5677
1840.26	5645
1842.384	5694
1844.507	5577
1846.63	5589
1848.752	5623
1850.875	5647
1852.996	5695
1855.118	5710
1857.238	5723
1859.358	5663
1861.477	5656
1863.597	5747
1865.715	5636
1867.832	5586
1869.948	5662
1872.064	5622
1874.181	5587
1876.297	5584
1878.411	5643
1880.526	5606
1882.639	5560
1884.752	5735
1886.865	5628
1888.977	5635
1891.089	5736
1893.2	5649
1895.308	5655
1897.42	5674
1899.53	5599
1901.639	5692
1903.745	5664
1905.853	5696
1907.962	5769
1910.067	5696
1912.174	5760
1914.278	5716
1916.383	5605
1918.486	5761
1920.592	5741
1922.694	5740
1924.797	5715
1926.898	5729
1929	5693
1931.102	5727
1933.203	5690
1935.301	5671
1937.401	5716
1939.499	5722
1941.598	5816
1943.697	5684
1945.793	5694
1947.888	5673
1949.985	5754
1952.08	5669
1954.176	5792
1956.269	5777
1958.364	5662
1960.457	5696
1962.549	5705
1964.642	5736
1966.733	5755
1968.823	5612
1970.913	5740
1973.005	5647
1975.093	5720
1977.184	5672
1979.271	5773
1981.359	5682
1983.446	5641
1985.532	5677
1987.619	5711
1989.705	5562
1991.789	5620
1993.874	5716
1995.956	5667
1998.041	5629
2000.123	5574
2002.206	5613
2004.287	5701
2006.368	5646
2008.449	5748
2010.529	5576
2012.609	5576
2014.688	5682
2016.766	5610
2018.843	5652
2020.922	5629
2022.999	5761
2025.074	5479
2027.15	5612
2029.225	5627
2031.299	5629
2033.375	5696
2035.447	5590
2037.52	5606
2039.592	5660
2041.664	5602
2043.736	5746
2045.807	5555
2047.876	5741
2049.947	5654
2052.015	5552
2054.086	5640
2056.153	5733
2058.221	5713
2060.288	5700
2062.353	5544
2064.42	5660
2066.486	5639
2068.55	5548
2070.614	5670
2072.678	5682
2074.741	5638
2076.805	5726
2078.866	5723
2080.929	5625
2082.99	5665
2085.049	5545
2087.109	5660
2089.17	5576
2091.228	5621
2093.286	5680
2095.344	5687
2097.4	5681
2099.46	5669
2101.516	5592
2103.572	5700
2105.626	5585
2107.679	5700
2109.735	5748
2111.788	5620
2113.841	5593
2115.894	5658
2117.945	5763
2119.997	5666
2122.049	5650
2124.1	5794
2126.148	5533
2128.197	5665
2130.246	5611
2132.296	5602
2134.342	5746
2136.39	5572
2138.437	5626
2140.483	5719
2142.527	5727
2144.574	5634
2146.619	5671
2148.661	5659
2150.705	5567
2152.747	5651
2154.792	5612
2156.832	5693
2158.874	5580
2160.915	5629
2162.954	5488
2164.995	5554
2167.034	5585
2169.072	5604
2171.111	5578
2173.148	5539
2175.186	5494
2177.223	5605
2179.258	5504
2181.294	5554
2183.328	5565
2185.362	5590
2187.398	5517
2189.431	5520
2191.463	5604
2193.495	5570
2195.528	5584
2197.56	5469
2199.59	5538
2201.62	5428
2203.649	5517
2205.678	5495
2207.708	5482
2209.737	5573
2211.764	5442
2213.791	5464
2215.817	5551
2217.843	5436
2219.87	5536
2221.895	5482
2223.919	5418
2225.942	5459
2227.966	5456
2229.988	5490
2232.012	5518
2234.032	5543
2236.054	5504
2238.074	5443
2240.095	5604
2242.116	5513
2244.135	5453
2246.153	5545
2248.171	5558
2250.188	5573
2252.208	5395
2254.223	5400
2256.239	5443
2258.255	5473
2260.269	5574
2262.283	5517
2264.3	5391
2266.312	5366
2268.325	5483
2270.336	5349
2272.349	5402
2274.362	5500
2276.372	5449
2278.383	5441
2280.392	5443
2282.402	5551
2284.409	5510
2286.418	5398
2288.427	5425
2290.433	5440
2292.441	5466
2294.446	5463
2296.453	5423
2298.459	5582
2300.463	5398
2302.466	5386
2304.471	5470
2306.475	5454
2308.477	5494
2310.478	5458
2312.481	5544
2314.481	5527
2316.481	5418
2318.482	5500
2320.482	5447
2322.48	5437
2324.48	5388
2326.478	5399
2328.476	5504
2330.473	5407
2332.469	5343
2334.465	5382
2336.46	5313
2338.454	5389
2340.45	5417
2342.444	5377
2344.437	5305
2346.43	5405
2348.421	5272
2350.414	5320
2352.405	5384
2354.396	5359
2356.386	5425
2358.376	5326
2360.366	5397
2362.355	5420
2364.343	5311
2366.331	5337
2368.317	5298
2370.304	5351
2372.292	5305
2374.278	5294
2376.262	5428
2378.247	5404
2380.23	5315
2382.216	5305
2384.199	5270
2386.181	5299
2388.163	5314
2390.144	5376
2392.127	5203
2394.107	5254
2396.087	5281
2398.066	5238
2400.046	5358
2402.023	5261
2404.004	5264
2405.981	5192
2407.957	5340
2409.934	5230
2411.91	5115
2413.886	5372
2415.862	5220
2417.836	5261
2419.809	5295
2421.784	5325
2423.756	5343
2425.73	5209
2427.701	5282
2429.672	5354
2431.644	5161
2433.615	5251
2435.586	5274
2437.555	5313
2439.523	5239
2441.491	5306
2443.459	5298
2445.428	5246
2447.395	5273
2449.361	5291
2451.327	5242
2453.292	5211
2455.257	5234
2457.223	5230
2459.187	5247
2461.15	5159
2463.113	5166
2465.076	5299
2467.039	5155
2468.999	5349
2470.96	5182
2472.921	5242
2474.881	5180
2476.841	5187
2478.8	5259
2480.759	5243
2482.717	5153
2484.675	5153
2486.63	5142
2488.589	5245
2490.545	5269
2492.5	5212
2494.455	5202
2496.408	5201
2498.364	5188
2500.318	5155
2502.27	5197
2504.223	5041
2506.174	5309
2508.126	5160
2510.078	5152
2512.03	5089
2513.979	5195
2515.927	5134
2517.877	5080
2519.826	5126
2521.775	5086
2523.722	5183
2525.668	5159
2527.616	5093
2529.561	5156
2531.508	5107
2533.452	5136
2535.398	5110
2537.342	5168
2539.284	5199
2541.229	5164
2543.173	5038
2545.114	5033
2547.055	5169
2548.996	5111
2550.938	5175
2552.878	5189
2554.817	5143
2556.756	5136
2558.695	5114
2560.633	5180
2562.572	5094
2564.509	5105
2566.445	5200
2568.382	5167
2570.317	5176
2572.254	5108
2574.189	5144
2576.123	5042
2578.057	5109
2579.99	5102
2581.923	5226
2583.855	5150
2585.788	5203
2587.719	5114
2589.65	5197
2591.579	5139
2593.511	5171
2595.44	5185
2597.37	5153
2599.297	5212
2601.225	5159
2603.153	5233
2605.08	5152
2607.007	5175
2608.932	5080
2610.858	5071
2612.782	5054
2614.709	5153
2616.632	5171
2618.556	5200
2620.478	5231
2622.401	5112
2624.324	5093
2626.247	5180
2628.167	5143
2630.088	5219
2632.008	5160
2633.928	5243
2635.848	5208
2637.766	5219
2639.684	5197
2641.603	5181
2643.519	5115
2645.437	5226
2647.353	5113
2649.27	5174
2651.184	5137
2653.099	5163
2655.014	5230
2656.928	5152
2658.842	5158
2660.755	5061
2662.667	5173
2664.579	5219
2666.491	5170
2668.402	5093
2670.312	5056
2672.222	5074
2674.132	5233
2676.042	5191
2677.951	5162
2679.859	5168
2681.766	5169
2683.674	5069
2685.582	5077
2687.488	5055
2689.392	5056
2691.298	5036
2693.202	4990
2695.107	5129
2697.012	5013
2698.914	5020
2700.817	5052
2702.72	4992
2704.622	5095
2706.524	5089
2708.425	5047
2710.326	5028
2712.225	5155
2714.125	5079
2716.024	5053
2717.923	5025
2719.822	5076
2721.719	4995
2723.616	5119
2725.512	5121
2727.41	5053
2729.305	5082
2731.201	5066
2733.095	5011
2734.99	5022
2736.884	5039
2738.778	5090
2740.67	4960
2742.562	5004
2744.455	5083
2746.346	5086
2748.238	5110
2750.129	5157
2752.018	5003
2753.907	5092
2755.797	5066
2757.687	4995
2759.575	5071
2761.462	5022
2763.349	4969
2765.237	5015
2767.124	4991
2769.009	5181
2770.894	5053
2772.779	5097
2774.663	5063
2776.547	5131
2778.431	4880
2780.314	5036
2782.197	4949
2784.078	4928
2785.96	4977
2787.842	5012
2789.723	5038
2791.603	4960
2793.483	4937
2795.362	5045
2797.241	4934
2799.121	5058
2800.997	4981
2802.874	4972
2804.751	4986
2806.628	5060
2808.506	5077
2810.38	4934
2812.255	5057
2814.13	5028
2816.003	5036
2817.878	5034
2819.752	5028
2821.623	5019
2823.496	4950
2825.368	5023
2827.238	5034
2829.111	5034
2830.98	4947
2832.851	5078
2834.719	4998
2836.589	5056
2838.458	5072
2840.327	5121
2842.193	5046
2844.061	5115
2845.927	5075
2847.794	5092
2849.66	5127
2851.525	5023
2853.39	5143
2855.254	5236
2857.117	5233
2858.983	5252
2860.845	5289
2862.707	5162
2864.569	5454
2866.431	5294
2868.293	5408
2870.154	5548
2872.013	5523
2873.873	5444
2875.733	5621
2877.592	5708
2879.451	5675
2881.309	5795
2883.166	5768
2885.022	5897
2886.879	5974
2888.736	6009
2890.591	5973
2892.446	6001
2894.301	6055
2896.155	5978
2898.009	5997
2899.863	6009
2901.716	6034
2903.568	5936
2905.419	5966
2907.27	6017
2909.123	6001
2910.973	5991
2912.824	6109
2914.673	6090
2916.521	6185
2918.372	6179
2920.22	6274
2922.067	6238
2923.914	6375
2925.761	6408
2927.607	6426
2929.455	6461
2931.301	6598
2933.144	6586
2934.99	6518
2936.833	6688
2938.678	6790
2940.522	6709
2942.364	6907
2944.207	7071
2946.048	7226
2947.891	7253
2949.731	7384
2951.571	7320
2953.412	7338
2955.25	7142
2957.09	7173
2958.93	7119
2960.767	7174
2962.606	6907
2964.443	6945
2966.279	6819
2968.116	6557
2969.953	6417
2971.788	6295
2973.623	6305
2975.457	6156
2977.292	6147
2979.127	6088
2980.959	5986
2982.792	5879
2984.624	5827
2986.455	5815
2988.288	5833
2990.119	5654
2991.949	5729
2993.779	5641
2995.608	5639
2997.439	5504
2999.268	5491
3001.096	5420
3002.923	5277
3004.751	5335
3006.578	5314
3008.406	5078
3010.232	5189
3012.057	5240
3013.883	5148
3015.706	5188
3017.532	5020
3019.356	5014
3021.179	5112
3023.002	5050
3024.823	4922
3026.646	4899
3028.469	4938
3030.289	4855
3032.11	4787
3033.93	4965
3035.749	4806
3037.57	4793
3039.39	4914
3041.207	4852
3043.026	4790
3044.842	4868
3046.661	4800
3048.477	4841
3050.294	4837
3052.109	4719
3053.925	4774
3055.739	4769
3057.555	4784
3059.368	4784
3061.181	4780
3062.995	4863
3064.807	4889
3066.62	4759
3068.433	4817
3070.243	4746
3072.054	4791
3073.865	4794
3075.675	4779
3077.485	4828
3079.293	4748
3081.102	4745
3082.911	4726
3084.719	4718
3086.527	4784
3088.333	4806
3090.139	4637
3091.945	4636
3093.75	4695
3095.557	4610
3097.361	4672
3099.165	4577
3100.969	4640
3102.772	4646
3104.575	4578
3106.379	4716
3108.181	4551
3109.982	4640
3111.783	4649
3113.584	4677
3115.386	4612
3117.186	4560
3118.985	4579
3120.783	4477
3122.582	4621
3124.381	4535
3126.179	4575
3127.975	4612
3129.772	4525
3131.569	4549
3133.365	4450
3135.161	4569
3136.956	4491
3138.751	4529
3140.544	4465
3142.338	4520
3144.132	4471
3145.925	4520
3147.717	4545
3149.509	4534
3151.301	4572
3153.091	4550
3154.884	4488
3156.673	4515
3158.462	4542
3160.252	4508
3162.041	4437
3163.831	4499
3165.618	4505
3167.405	4432
3169.193	4560
3170.979	4453
3172.767	4398
3174.553	4467
3176.338	4437
3178.123	4424
3179.907	4437
3181.692	4475
3183.477	4467
3185.259	4561
3187.042	4458
3188.824	4461
3190.607	4500
3192.389	4471
3194.17	4471
3195.951	4532
3197.73	4407
3199.51	4421
3201.289	4518
3203.07	4494
3204.848	4436
3206.626	4494
3208.403	4440
3210.18	4379
3211.959	4473
3213.735	4497
3215.511	4491
3217.285	4410
3219.06	4455
3220.836	4438
3222.611	4463
3224.384	4429
3226.158	4399
3227.929	4411
3229.702	4517
3231.476	4468
3233.248	4347
3235.018	4462
3236.789	4431
3238.56	4423
3240.33	4477
3242.1	4421
3243.869	4407
3245.637	4405
3247.405	4512
3249.172	4465
3250.941	4531
3252.707	4484
3254.474	4484
3256.24	4500
3258.006	4497
3259.772	4585
3261.537	4375
3263.301	4453
3265.065	4409
3266.828	4409
3268.592	4491
3270.355	4462
3272.117	4494
3273.878	4453
3275.64	4473
3277.401	4445
3279.162	4488
3280.922	4421
3282.682	4402
3284.441	4570
3286.199	4359
3287.959	4460
3289.716	4460
3291.475	4423
3293.232	4430
3294.988	4359
3296.744	4518
3298.501	4523
3300.256	4446
3302.011	4472
3303.766	4447
3305.52	4493
3307.275	4424
3309.028	4385
3310.781	4416
3312.533	4524
3314.285	4503
3316.038	4383
3317.789	4383
3319.54	4490
3321.289	4424
3323.039	4553
3324.789	4450
3326.539	4491
3328.288	4478
3330.035	4443
3331.783	4335
3333.531	4455
3335.28	4411
3337.025	4347
3338.771	4343
3340.518	4440
3342.262	4360
3344.009	4322
3345.753	4346
3347.497	4373
3349.24	4389
3350.983	4376
3352.726	4391
3354.469	4335
3356.212	4352
3357.952	4346
3359.694	4315
3361.434	4258
3363.176	4287
3364.916	4339
3366.654	4266
3368.394	4233
3370.132	4315
3371.871	4290
3373.61	4288
3375.346	4235
3377.083	4267
3378.82	4267
3380.556	4243
3382.292	4281
3384.027	4261
3385.763	4244
3387.497	4231
3389.231	4274
3390.965	4287
3392.698	4170
3394.431	4181
3396.164	4247
3397.896	4161
3399.627	4239
3401.36	4238
3403.09	4244
3404.82	4204
3406.55	4303
3408.279	4166
3410.01	4213
3411.738	4171
3413.467	4131
3415.194	4155
3416.92	4175
3418.647	4180
3420.375	4136
3422.102	4099
3423.827	4244
3425.553	4250
3427.277	4153
3429.003	4159
3430.727	4147
3432.451	4076
3434.173	4174
3435.896	4135
3437.62	4111
3439.343	4098
3441.063	4133
3442.785	4178
3444.505	4045
3446.226	4191
3447.948	4241
3449.666	4041
3451.386	3990
3453.104	4103
3454.823	4157
3456.541	4005
3458.259	4031
3459.976	4032
3461.693	4032
3463.408	3998
3465.125	4003
3466.841	3986
3468.556	3980
3470.271	3927
3471.985	4046
3473.698	4013
3475.414	3942
3477.126	3932
3478.838	3862
3480.55	3839
3482.263	3926
3483.975	3934
3485.686	3961
3487.396	3912
3489.106	3843
3490.817	3923
3492.526	3886
3494.236	3921
3495.944	3848
3497.652	3879
3499.359	3880
3501.066	3865
3502.775	3893
3504.481	3890
3506.187	3928
3507.893	3872
3509.598	3833
3511.304	3903
3513.009	3868
3514.713	3856
3516.417	3844
3518.12	3812
3519.821	3809
3521.525	3791
3523.228	3888
3524.929	3806
3526.631	3803
3528.33	3749
3530.032	3827
3531.733	3807
3533.433	3895
3535.131	3769
3536.83	3794
3538.529	3758
3540.227	3737
3541.925	3748
3543.623	3773
3545.319	3779
3547.016	3700
3548.712	3704
3550.408	3685
3552.103	3666
3553.798	3701
3555.491	3668
3557.188	3688
3558.88	3632
3560.574	3696
3562.266	3721
3563.959	3740
3565.651	3657
3567.343	3606
3569.035	3615
3570.725	3554
3572.415	3758
3574.106	3729
3575.797	3638
3577.485	3653
3579.174	3718
3580.863	3582
3582.551	3667
3584.238	3613
3585.926	3590
3587.613	3620
3589.3	3602
3590.986	3636
3592.671	3647
3594.357	3581
3596.042	3501
3597.726	3647
3599.41	3549
3601.094	3525
3602.778	3495
3604.461	3596
3606.143	3619
3607.825	3491
3609.507	3459
3611.188	3560
3612.87	3445
3614.551	3467
3616.229	3457
3617.909	3495
3619.589	3588
3621.269	3530
3622.948	3525
3624.625	3515
3626.302	3484
3627.98	3435
3629.657	3473
3631.334	3434
3633.01	3518
3634.686	3458
3636.361	3406
3638.036	3412
3639.712	3395
3641.385	3428
3643.06	3475
3644.732	3377
3646.405	3329
3648.08	3350
3649.751	3441
3651.424	3346
3653.094	3402
3654.766	3400
3656.436	3385
3658.106	3395
3659.777	3312
3661.446	3471
3663.115	3329
3664.783	3343
3666.452	3342
3668.121	3320
3669.788	3300
3671.454	3266
3673.121	3438
3674.789	3401
3676.455	3330
3678.12	3346
3679.784	3246
3681.45	3334
3683.114	3355
3684.779	3311
3686.442	3299
3688.105	3345
3689.768	3309
3691.43	3321
3693.093	3330
3694.754	3296
3696.415	3276
3698.076	3397
3699.736	3316
3701.396	3341
3703.057	3313
3704.716	3232
3706.375	3298
3708.034	3301
3709.692	3146
3711.351	3235
3713.008	3237
3714.665	3273
3716.321	3240
3717.977	3280
3719.634	3225
3721.29	3231
3722.945	3254
3724.598	3236
3726.253	3320
3727.907	3289
3729.561	3267
3731.214	3214
3732.867	3287
3734.518	3210
3736.171	3255
3737.824	3206
3739.474	3247
3741.125	3202
3742.775	3233
3744.425	3209
3746.074	3200
3747.725	3195
3749.373	3219
3751.022	3197
3752.669	3117
3754.318	3203
3755.966	3203
3757.612	3131
3759.259	3209
3760.905	3201
3762.55	3251
3764.197	3177
3765.842	3099
3767.486	3167
3769.131	3192
3770.774	3166
3772.417	3222
3774.061	3127
3775.705	3068
3777.347	3197
3778.988	3200
3780.629	3146
3782.271	3112
3783.912	3040
3785.552	3131
3787.192	3086
3788.831	3127
3790.472	3072
3792.112	3129
3793.75	3043
3795.388	3068
3797.024	3105
3798.661	3066
3800.3	3057
3801.936	3082
3803.572	3037
3805.208	3062
3806.844	3073
3808.48	3016
3810.115	3048
3811.748	3079
3813.382	3152
3815.016	3064
3816.649	3067
3818.283	3091
3819.914	3032
3821.547	3045
3823.178	3089
3824.809	3009
3826.441	3015
3828.072	3007
3829.701	3011
3831.331	3026
3832.96	2980
3834.591	2988
3836.219	2977
3837.847	3064
3839.475	2979
3841.102	3054
3842.729	2979
3844.357	3021
3845.984	2998
3847.609	2951
3849.234	2988
3850.86	3020
3852.485	2927
3854.11	3025
3855.734	2939
3857.357	2901
3858.981	2960
3860.603	2968
3862.227	2947
3863.848	3046
3865.471	2940
3867.092	2968
3868.713	2940
3870.334	2945
3871.954	2992
3873.575	3010
3875.194	2903
3876.813	2942
3878.433	2948
3880.051	3031
3881.669	2952
3883.286	2974
3884.904	2889
3886.52	2865
3888.138	2966
3889.754	2934
3891.37	2942
3892.985	2921
3894.6	2925
3896.216	2979
3897.831	2916
3899.444	2943
3901.058	2986
3902.67	2892
3904.283	2910
3905.897	2907
3907.509	2898
3909.121	2919
3910.731	2845
3912.342	2878
3913.954	3003
3915.563	2850
3917.174	2887
3918.783	2889
3920.391	2913
3922.002	2882
3923.611	2912
3925.218	2881
3926.826	2915
3928.432	2975
3930.039	2868
3931.647	2880
3933.253	2839
3934.859	2905
3936.464	2862
3938.068	2883
3939.675	2817
3941.278	2861
3942.883	2857
3944.486	2881
3946.089	2875
3947.692	2849
3949.295	2861
3950.898	2796
3952.499	2912
3954.1	2820
3955.7	2853
3957.303	2951
3958.903	2789
3960.502	2870
3962.101	2803
3963.7	2879
3965.301	2855
3966.899	2775
3968.497	2760
3970.094	2852
3971.691	2789
3973.288	2826
3974.885	2816
3976.481	2746
3978.077	2855
3979.672	2716
3981.267	2766
3982.863	2772
3984.457	2775
3986.051	2790
3987.645	2797
3989.238	2735
3990.831	2782
3992.425	2795
3994.017	2714
3995.607	2724
3997.199	2769
3998.79	2785
4000.382	2750
4001.973	2778
4003.561	2810
4005.151	2710
4006.741	2756
4008.331	2705
4009.918	2700
4011.507	2693
4013.095	2704
4014.681	2612
4016.269	2663
4017.856	2686
4019.443	2674
4021.028	2676
4022.614	2694
4024.199	2741
4025.785	2690
4027.37	2635
4028.953	2710
4030.536	2666
4032.12	2656
4033.704	2678
4035.287	2667
4036.869	2712
4038.45	2642
4040.032	2678
4041.613	2634
4043.195	2696
4044.776	2612
4046.356	2677
4047.935	2605
4049.515	2606
4051.095	2672
4052.674	2609
4054.251	2589
4055.829	2679
4057.406	2612
4058.985	2617
4060.562	2620
4062.139	2651
4063.715	2663
4065.29	2725
4066.865	2649
4068.442	2630
4070.016	2648
4071.59	2600
4073.164	2588
4074.738	2627
4076.312	2676
4077.885	2617
4079.458	2634
4081.03	2661
4082.602	2596
4084.173	2625
4085.745	2647
4087.315	2581
4088.886	2664
4090.456	2570
4092.026	2638
4093.596	2591
4095.165	2674
4096.734	2616
4098.301	2596
4099.869	2566
4101.437	2575
4103.006	2513
4104.572	2531
4106.139	2623
4107.704	2605
4109.27	2587
4110.837	2590
4112.401	2530
4113.966	2550
4115.53	2595
4117.094	2526
4118.659	2577
4120.223	2557
4121.785	2590
4123.347	2535
4124.909	2516
4126.471	2509
4128.034	2545
4129.595	2542
4131.155	2483
4132.716	2529
4134.275	2526
4135.836	2510
4137.395	2500
4138.955	2498
4140.513	2425
4142.071	2457
4143.628	2480
4145.188	2453
4146.745	2523
4148.302	2448
4149.858	2504
4151.414	2451
4152.971	2437
4154.526	2565
4156.081	2448
4157.635	2464
4159.189	2438
4160.745	2459
4162.298	2461
4163.852	2490
4165.405	2437
4166.957	2436
4168.51	2490
4170.063	2476
4171.614	2357
4173.166	2421
4174.717	2498
4176.267	2400
4177.817	2427
4179.368	2443
4180.917	2454
4182.466	2413
4184.016	2387
4185.564	2398
4187.112	2429
4188.66	2446
4190.207	2406
4191.754	2438
4193.301	2388
4194.848	2378
4196.394	2392
4197.94	2409
4199.484	2390
4201.03	2369
4202.575	2403
4204.12	2382
4205.663	2331
4207.207	2418
4208.75	2348
4210.292	2334
4211.836	2400
4213.378	2358
4214.92	2338
4216.46	2381
4218.002	2406
4219.544	2404
4221.083	2359
4222.625	2302
4224.164	2359
4225.703	2264
4227.244	2283
4228.782	2334
4230.32	2381
4231.857	2327
4233.395	2291
4234.933	2317
4236.471	2404
4238.007	2346
4239.542	2326
4241.078	2348
4242.614	2352
4244.15	2253
4245.685	2385
4247.219	2325
4248.753	2310
4250.287	2302
4251.82	2355
4253.354	2320
4254.887	2338
4256.419	2274
4257.951	2311
4259.483	2333
4261.016	2309
4262.547	2320
4264.078	2336
4265.608	2328
4267.137	2299
4268.668	2346
4270.197	2300
4271.727	2310
4273.254	2250
4274.783	2270
4276.311	2327
4277.84	2311
4279.366	2359
4280.894	2292
4282.42	2219
4283.946	2251
4285.473	2261
4286.998	2268
4288.523	2262
4290.047	2332
4291.572	2293
4293.096	2295
4294.622	2269
4296.144	2212
4297.668	2212
4299.19	2212
4300.713	2214
4302.236	2243
4303.758	2180
4305.279	2269
4306.799	2279
4308.321	2293
4309.842	2251
4311.361	2171
4312.882	2217
4314.401	2189
