400.0961	4488
402.6185	4433
405.1424	4449
407.6635	4472
410.1838	4578
412.7035	4496
415.2225	4496
417.7388	4513
420.2585	4584
422.7754	4634
425.2917	4653
427.8072	4693
430.3221	4721
432.8363	4752
435.3498	4666
437.8626	4774
440.3727	4790
442.8841	4723
445.3969	4788
447.907	4884
450.4142	4790
452.9229	4763
455.4289	4886
457.9362	4833
460.4449	4820
462.9488	4713
465.454	4778
467.9566	4823
470.4604	4780
472.9637	4714
475.4662	4790
477.966	4836
480.4671	4942
482.9656	4823
485.4633	4851
487.9645	4804
490.4608	4943
492.9566	4930
495.4536	4914
497.948	4860
500.4437	5023
502.9387	4948
505.431	4974
507.9226	4992
510.4136	5006
512.9079	4980
515.3975	5082
517.8864	5026
520.3746	4931
522.8622	4982
525.3491	5026
527.8394	4907
530.3249	4901
532.8098	4929
535.2939	5042
537.7774	5119
540.2623	4911
542.7444	5113
545.2259	5000
547.7067	5027
550.1868	5014
552.6683	5027
555.147	5122
557.6231	5031
560.1005	5024
562.5773	5039
565.0534	5089
567.5308	5182
570.0056	5113
572.4776	5196
574.951	5139
577.4237	5169
579.8978	5072
582.3671	5163
584.8378	5254
587.3079	5250
589.7773	5297
592.244	5245
594.714	5217
597.1793	5215
599.6461	5239
602.1121	5231
604.5754	5287
607.0421	5298
609.5042	5245
611.9675	5287
614.4282	5175
616.8902	5134
619.3515	5147
621.8122	5232
624.2702	5201
626.7296	5166
629.1863	5215
631.6423	5076
634.1017	5233
636.5563	5172
639.0104	5198
641.4658	5182
643.9185	5177
646.3725	5193
648.8239	5284
651.2766	5180
653.7266	5272
656.176	5281
658.6247	5297
661.0748	5242
663.5242	5293
665.9709	5388
668.417	5369
670.8624	5388
673.3092	5314
675.7533	5447
678.1968	5317
680.6395	5296
683.0817	5309
685.5251	5340
687.9659	5382
690.4061	5447
692.8456	5369
695.2844	5346
697.7226	5515
700.1621	5388
702.599	5442
705.0332	5447
707.4688	5497
709.9036	5489
712.3399	5465
714.7735	5560
717.2044	5490
719.6367	5565
722.0683	5461
724.4993	5555
726.9296	5523
729.3593	5481
731.7883	5543
734.2147	5624
736.6423	5659
739.0714	5648
741.4958	5649
743.9216	5720
746.3447	5712
748.7691	5579
751.1929	5723
753.616	5670
756.0366	5772
758.4584	5675
760.8776	5671
763.2982	5793
765.718	5771
768.1373	5749
770.5539	5877
772.9698	5720
775.3871	5836
777.8038	5825
780.2178	5815
782.6332	5795
785.0459	5913
787.458	5833
789.8714	5850
792.2842	5775
794.6943	5791
797.1038	5780
799.5127	5856
801.9209	5800
804.3324	5845
806.7393	5810
809.1456	5848
811.5513	5918
813.9562	5846
816.3625	5968
818.7663	5874
821.1693	5900
823.5718	5841
825.9735	5814
828.3746	5843
830.7771	5864
833.177	6006
835.5762	5867
837.9747	5983
840.3727	5945
842.772	5921
845.1666	5967
847.5626	5990
849.958	5960
852.3527	6090
854.7488	6075
857.1403	5941
859.5331	6060
861.9253	6019
864.3168	6057
866.7057	6104
869.098	5992
871.4876	6009
873.8746	5985
876.263	5970
878.6487	6056
881.0378	5941
883.4243	5964
885.8081	5956
888.1933	5902
890.5759	6089
892.9598	5927
895.343	6018
897.7256	5891
900.1057	5973
902.4871	6081
904.8659	6062
907.246	5910
909.6254	6035
912.0023	6040
914.3786	6084
916.7562	6229
919.1331	6241
921.5074	6311
923.8831	6393
926.2562	6334
928.6287	6357
931.0005	6342
933.3757	6238
935.7462	6325
938.1162	6187
940.4855	6394
942.8542	6333
945.2242	6358
947.5916	6593
949.9584	6585
952.3266	6686
954.6921	6906
957.0571	6999
959.4233	7311
961.787	7472
964.15	7369
966.5125	7307
968.8742	7011
971.2354	6855
973.5959	6580
975.9559	6567
978.3151	6364
980.6738	6486
983.0338	6285
985.3912	6310
987.7461	6270
990.1022	6257
992.4578	6234
994.8127	6209
997.1689	6200
999.5207	6256
1001.874	6273
1004.226	6385
1006.576	6201
1008.929	6329
1011.28	6292
1013.628	6265
1015.977	6364
1018.324	6189
1020.674	6323
1023.019	6233
1025.366	6269
1027.713	6202
1030.056	6361
1032.399	6184
1034.746	6440
1037.087	6266
1039.431	6416
1041.771	6386
1044.113	6301
1046.454	6347
1048.793	6244
1051.133	6293
1053.471	6340
1055.807	6456
1058.146	6419
1060.483	6340
1062.818	6427
1065.153	6467
1067.489	6361
1069.822	6365
1072.156	6529
1074.488	6447
1076.82	6369
1079.15	6448
1081.48	6333
1083.814	6391
1086.143	6395
1088.471	6459
1090.799	6398
1093.126	6424
1095.452	6473
1097.78	6385
1100.105	6352
1102.43	6522
1104.754	6240
1107.077	6478
1109.4	6462
1111.722	6432
1114.044	6319
1116.365	6491
1118.685	6357
1121.005	6408
1123.324	6548
1125.643	6497
1127.961	6381
1130.278	6474
1132.595	6417
1134.911	6422
1137.226	6307
1139.541	6470
1141.854	6474
1144.167	6439
1146.482	6408
1148.793	6604
1151.105	6423
1153.414	6424
1155.725	6413
1158.033	6591
1160.344	6582
1162.651	6401
1164.959	6347
1167.265	6480
1169.572	6487
1171.878	6388
1174.184	6514
1176.488	6428
1178.79	6515
1181.094	6496
1183.396	6519
1185.699	6461
1188.001	6527
1190.301	6514
1192.6	6472
1194.9	6405
1197.2	6565
1199.497	6573
1201.794	6439
1204.09	6343
1206.387	6501
1208.684	6554
1210.978	6539
1213.272	6583
1215.565	6510
1217.858	6438
1220.15	6489
1222.443	6437
1224.734	6525
1227.024	6580
1229.313	6583
1231.602	6572
1233.892	6629
1236.18	6595
1238.467	6559
1240.754	6649
1243.04	6677
1245.325	6691
1247.612	6772
1249.896	6677
1252.178	6681
1254.461	6718
1256.743	6743
1259.027	6796
1261.308	6652
1263.587	6831
1265.867	6809
1268.146	6757
1270.425	6801
1272.703	6831
1274.981	6794
1277.256	6793
1279.532	6751
1281.808	6700
1284.083	6723
1286.358	6675
1288.63	6766
1290.904	6575
1293.175	6644
1295.449	6674
1297.719	6708
1299.99	6586
1302.259	6645
1304.529	6548
1306.798	6596
1309.065	6591
1311.333	6668
1313.599	6632
1315.866	6700
1318.131	6612
1320.396	6501
1322.66	6751
1324.925	6614
1327.187	6631
1329.448	6764
1331.711	6775
1333.974	6810
1336.234	6578
1338.493	6685
1340.752	6561
1343.01	6712
1345.269	6658
1347.526	6594
1349.784	6601
1352.04	6636
1354.295	6628
1356.552	6687
1358.806	6637
1361.059	6707
1363.312	6683
1365.564	6655
1367.818	6630
1370.069	6675
1372.318	6677
1374.568	6698
1376.817	6726
1379.066	6720
1381.316	6747
1383.564	6856
1385.809	6655
1388.056	6757
1390.301	6723
1392.549	6649
1394.793	6881
1397.036	6855
1399.279	6950
1401.522	6939
1403.763	6975
1406.007	6740
1408.248	6862
1410.487	6910
1412.727	6950
1414.965	6885
1417.205	6918
1419.442	6873
1421.68	6959
1423.915	6920
1426.152	6848
1428.388	6850
1430.623	6949
1432.857	6970
1435.091	6844
1437.323	6791
1439.556	6940
1441.789	6991
1444.019	6903
1446.25	6999
1448.48	6987
1450.708	7070
1452.938	6924
1455.167	6969
1457.394	6981
1459.62	6975
1461.846	6963
1464.073	7041
1466.299	6992
1468.523	7035
1470.746	6840
1472.969	6897
1475.191	6858
1477.415	6830
1479.636	6906
1481.858	6809
1484.078	6784
1486.298	6700
1488.518	6798
1490.736	6728
1492.954	6770
1495.169	6827
1497.386	6697
1499.602	6690
1501.819	6694
1504.034	6751
1506.248	6630
1508.462	6693
1510.675	6572
1512.888	6627
1515.1	6671
1517.311	6648
1519.522	6648
1521.732	6573
1523.942	6741
1526.151	6759
1528.36	6602
1530.566	6601
1532.773	6735
1534.98	6683
1537.187	6724
1539.392	6641
1541.596	6754
1543.801	6681
1546.005	6836
1548.208	6778
1550.411	6558
1552.612	6790
1554.814	6810
1557.013	6783
1559.212	6814
1561.414	6815
1563.612	6973
1565.811	6901
1568.007	6785
1570.203	6903
1572.403	6890
1574.598	6852
1576.792	6820
1578.988	6876
1581.181	6937
1583.376	7031
1585.568	6905
1587.761	6896
1589.952	6896
1592.143	6880
1594.333	6819
1596.524	6920
1598.715	6912
1600.903	6909
1603.091	6879
1605.278	6670
1607.466	6948
1609.652	6810
1611.838	6950
1614.023	6884
1616.207	6951
1618.391	6939
1620.576	6992
1622.759	6952
1624.941	6892
1627.123	6901
1629.304	6997
1631.484	7062
1633.664	6979
1635.844	6891
1638.022	7003
1640.201	7005
1642.38	6857
1644.556	7072
1646.732	6929
1648.908	7003
1651.084	7062
1653.257	7002
1655.433	7181
1657.607	6968
1659.779	7050
1661.951	6995
1664.122	7072
1666.295	7045
1668.467	7096
1670.635	7111
1672.805	7096
1674.973	7128
1677.142	7084
1679.31	7196
1681.478	7067
1683.644	7022
1685.81	7050
1687.975	7021
1690.142	7093
1692.305	6899
1694.468	6990
1696.632	6981
1698.794	7007
1700.957	6850
1703.119	7007
1705.279	6846
1707.439	6974
1709.598	6919
1711.758	6873
1713.917	6846
1716.075	6899
1718.231	6939
1720.388	6891
1722.543	6991
1724.702	6889
1726.856	6946
1729.01	6874
1731.164	6911
1733.317	6893
1735.471	6887
1737.623	6904
1739.774	6928
1741.925	6935
1744.075	6869
1746.225	6878
1748.376	6819
1750.524	7008
1752.672	7006
1754.82	6857
1756.965	6953
1759.113	6815
1761.259	6925
1763.405	6961
1765.549	6986
1767.694	7044
1769.836	6984
1771.981	6866
1774.123	7029
1776.264	6944
1778.405	6981
1780.546	7053
1782.687	7009
1784.827	6955
1786.966	7016
1789.103	7082
1791.242	6952
1793.381	6991
1795.517	7006
1797.653	6945
1799.788	6920
1801.923	6971
1804.057	7026
1806.193	7037
1808.326	6967
1810.457	6995
1812.59	6952
1814.721	7084
1816.855	6954
1818.984	6950
1821.113	7091
1823.244	6861
1825.372	6985
1827.499	7000
1829.63	7026
1831.756	6910
1833.882	6903
1836.007	6902
1838.132	6950
1840.26	7007
1842.384	6961
1844.507	7080
1846.63	6916
1848.752	6926
1850.875	6895
1852.996	6961
1855.118	6753
1857.238	7005
1859.358	7008
1861.477	6906
1863.597	6880
1865.715	6836
1867.832	7005
1869.948	6803
1872.064	6947
1874.181	6884
1876.297	6869
1878.411	6958
1880.526	6909
1882.639	6991
1884.752	6901
1886.865	6881
1888.977	6906
1891.089	6845
1893.2	6976
1895.308	6859
1897.42	6908
1899.53	7002
1901.639	6998
1903.745	7073
1905.853	7060
1907.962	6988
1910.067	6893
1912.174	7000
1914.278	6991
1916.383	7022
1918.486	7054
1920.592	6968
1922.694	6970
1924.797	6993
1926.898	7031
1929	7121
1931.102	6953
1933.203	7121
1935.301	7012
1937.401	7038
1939.499	7010
1941.598	7114
1943.697	7054
1945.793	7216
1947.888	6886
1949.985	6974
1952.08	6926
1954.176	7020
1956.269	6946
1958.364	7035
1960.457	6921
1962.549	7030
1964.642	6993
1966.733	6972
1968.823	6961
1970.913	7009
1973.005	7096
1975.093	7050
1977.184	7028
1979.271	7032
1981.359	6986
1983.446	6940
1985.532	7056
1987.619	6922
1989.705	6950
1991.789	7017
1993.874	6951
1995.956	7031
1998.041	6940
2000.123	6951
2002.206	6891
2004.287	6956
2006.368	6869
2008.449	6850
2010.529	6929
2012.609	6946
2014.688	6949
2016.766	6966
2018.843	6910
2020.922	6893
2022.999	6894
2025.074	6961
2027.15	6934
2029.225	6861
2031.299	6969
2033.375	6961
2035.447	6933
2037.52	6959
2039.592	6859
2041.664	6931
2043.736	6934
2045.807	6936
2047.876	6990
2049.947	6983
2052.015	6838
2054.086	6923
2056.153	6879
2058.221	6993
2060.288	6954
2062.353	6987
2064.42	6877
2066.486	7003
2068.55	6907
2070.614	6943
2072.678	6890
2074.741	6862
2076.805	6961
2078.866	6911
2080.929	6983
2082.99	6910
2085.049	6785
2087.109	6961
2089.17	6891
2091.228	6927
2093.286	7045
2095.344	6894
2097.4	6915
2099.46	6874
2101.516	7042
2103.572	6908
2105.626	6805
2107.679	7009
2109.735	6872
2111.788	6808
2113.841	6925
2115.894	6804
2117.945	6962
2119.997	6975
2122.049	6887
2124.1	6961
2126.148	7007
2128.197	6884
2130.246	6807
2132.296	6812
2134.342	6999
2136.39	6909
2138.437	6884
2140.483	6807
2142.527	6924
2144.574	6899
2146.619	6885
2148.661	6922
2150.705	6805
2152.747	6891
2154.792	6902
2156.832	6870
2158.874	6852
2160.915	6825
2162.954	6854
2164.995	6751
2167.034	6878
2169.072	6844
2171.111	6863
2173.148	6869
2175.186	6954
2177.223	6856
2179.258	6841
2181.294	6826
2183.328	6832
2185.362	6940
2187.398	6655
2189.431	6839
2191.463	6714
2193.495	6778
2195.528	6830
2197.56	6773
2199.59	6836
2201.62	6827
2203.649	6893
2205.678	6682
2207.708	6831
2209.737	6738
2211.764	6775
2213.791	6708
2215.817	6756
2217.843	6712
2219.87	6690
2221.895	6768
2223.919	6686
2225.942	6729
2227.966	6764
2229.988	6758
2232.012	6659
2234.032	6680
2236.054	6707
2238.074	6610
2240.095	6722
2242.116	6638
2244.135	6658
2246.153	6692
2248.171	6555
2250.188	6690
2252.208	6754
2254.223	6657
2256.239	6685
2258.255	6754
2260.269	6697
2262.283	6777
2264.3	6708
2266.312	6815
2268.325	6616
2270.336	6780
2272.349	6651
2274.362	6713
2276.372	6643
2278.383	6756
2280.392	6656
2282.402	6695
2284.409	6823
2286.418	6725
2288.427	6648
2290.433	6700
2292.441	6755
2294.446	6703
2296.453	6593
2298.459	6646
2300.463	6695
2302.466	6689
2304.471	6566
2306.475	6749
2308.477	6673
2310.478	6670
2312.481	6643
2314.481	6586
2316.481	6607
2318.482	6600
2320.482	6725
2322.48	6651
2324.48	6681
2326.478	6627
2328.476	6729
2330.473	6669
2332.469	6588
2334.465	6616
2336.46	6607
2338.454	6528
2340.45	6570
2342.444	6564
2344.437	6650
2346.43	6630
2348.421	6587
2350.414	6595
2352.405	6723
2354.396	6519
2356.386	6525
2358.376	6469
2360.366	6527
2362.355	6545
2364.343	6446
2366.331	6630
2368.317	6476
2370.304	6571
2372.292	6542
2374.278	6495
2376.262	6543
2378.247	6546
2380.23	6476
2382.216	6515
2384.199	6464
2386.181	6538
2388.163	6516
2390.144	6449
2392.127	6645
2394.107	6439
2396.087	6414
2398.066	6517
2400.046	6565
2402.023	6373
2404.004	6466
2405.981	6458
2407.957	6461
2409.934	6370
2411.91	6447
2413.886	6373
2415.862	6540
2417.836	6460
2419.809	6356
2421.784	6400
2423.756	6420
2425.73	6478
2427.701	6292
2429.672	6470
2431.644	6349
2433.615	6419
2435.586	6401
2437.555	6374
2439.523	6377
2441.491	6291
2443.459	6461
2445.428	6384
2447.395	6262
2449.361	6479
2451.327	6413
2453.292	6398
2455.257	6413
2457.223	6406
2459.187	6381
2461.15	6361
2463.113	6344
2465.076	6428
2467.039	6380
2468.999	6356
2470.96	6266
2472.921	6324
2474.881	6431
2476.841	6406
2478.8	6366
2480.759	6275
2482.717	6362
2484.675	6339
2486.63	6275
2488.589	6313
2490.545	6280
2492.5	6232
2494.455	6206
2496.408	6294
2498.364	6375
2500.318	6441
2502.27	6295
2504.223	6180
2506.174	6208
2508.126	6195
2510.078	6271
2512.03	6309
2513.979	6270
2515.927	6335
2517.877	6384
2519.826	6378
2521.775	6234
2523.722	6322
2525.668	6278
2527.616	6267
2529.561	6311
2531.508	6297
2533.452	6329
2535.398	6354
2537.342	6393
2539.284	6160
2541.229	6362
2543.173	6370
2545.114	6322
2547.055	6334
2548.996	6296
2550.938	6192
2552.878	6226
2554.817	6158
2556.756	6257
2558.695	6252
2560.633	6251
2562.572	6140
2564.509	6144
2566.445	6240
2568.382	6365
2570.317	6232
2572.254	6277
2574.189	6403
2576.123	6232
2578.057	6205
2579.99	6293
2581.923	6331
2583.855	6265
2585.788	6202
2587.719	6215
2589.65	6269
2591.579	6100
2593.511	6213
2595.44	6271
2597.37	6221
2599.297	6183
2601.225	6267
2603.153	6231
2605.08	6347
2607.007	6171
2608.932	6189
2610.858	6296
2612.782	6257
2614.709	6332
2616.632	6283
2618.556	6194
2620.478	6252
2622.401	6257
2624.324	6136
2626.247	6198
2628.167	6365
2630.088	6277
2632.008	6441
2633.928	6246
2635.848	6280
2637.766	6186
2639.684	6250
2641.603	6177
2643.519	6251
2645.437	6143
2647.353	6218
2649.27	6336
2651.184	6251
2653.099	6296
2655.014	6098
2656.928	6226
2658.842	6240
2660.755	6198
2662.667	6291
2664.579	6264
2666.491	6242
2668.402	6223
2670.312	6317
2672.222	6092
2674.132	6244
2676.042	6083
2677.951	6185
2679.859	6315
2681.766	6127
2683.674	6253
2685.582	6192
2687.488	6083
2689.392	6195
2691.298	6121
2693.202	6049
2695.107	6133
2697.012	6190
2698.914	6154
2700.817	6122
2702.72	6139
2704.622	6189
2706.524	6112
2708.425	6194
2710.326	6052
2712.225	6086
2714.125	6194
2716.024	6000
2717.923	6060
2719.822	5996
2721.719	6125
2723.616	6185
2725.512	6239
2727.41	6182
2729.305	5980
2731.201	6072
2733.095	6088
2734.99	6118
2736.884	6117
2738.778	6061
2740.67	6051
2742.562	6076
2744.455	6146
2746.346	6071
2748.238	6007
2750.129	6013
2752.018	6101
2753.907	6101
2755.797	5988
2757.687	6038
2759.575	6046
2761.462	6069
2763.349	6056
2765.237	6059
2767.124	6107
2769.009	6041
2770.894	6047
2772.779	6018
2774.663	6131
2776.547	6156
2778.431	6048
2780.314	5944
2782.197	6020
2784.078	6052
2785.96	6023
2787.842	5940
2789.723	6002
2791.603	5989
2793.483	6007
2795.362	6041
2797.241	6066
2799.121	6047
2800.997	5944
2802.874	6025
2804.751	5999
2806.628	5947
2808.506	5916
2810.38	5940
2812.255	5992
2814.13	5825
2816.003	6003
2817.878	5967
2819.752	5884
2821.623	5874
2823.496	5993
2825.368	6062
2827.238	5933
2829.111	6020
2830.98	6030
2832.851	5902
2834.719	5896
2836.589	6057
2838.458	5972
2840.327	5828
2842.193	5986
2844.061	5981
2845.927	5913
2847.794	5987
2849.66	5940
2851.525	6036
2853.39	5942
2855.254	6003
2857.117	6018
2858.983	5995
2860.845	6061
2862.707	6116
2864.569	6096
2866.431	6090
2868.293	6128
2870.154	6142
2872.013	6198
2873.873	6242
2875.733	6140
2877.592	6362
2879.451	6403
2881.309	6272
2883.166	6352
2885.022	6419
2886.879	6373
2888.736	6448
2890.591	6474
2892.446	6381
2894.301	6402
2896.155	6442
2898.009	6402
2899.863	6400
2901.716	6433
2903.568	6491
2905.419	6382
2907.27	6437
2909.123	6409
2910.973	6379
2912.824	6463
2914.673	6368
2916.521	6494
2918.372	6507
2920.22	6509
2922.067	6557
2923.914	6794
2925.761	6799
2927.607	6806
2929.455	6832
2931.301	6703
2933.144	6915
2934.99	6856
2936.833	6942
2938.678	6978
2940.522	6852
2942.364	6985
2944.207	7041
2946.048	7209
2947.891	7240
2949.731	7213
2951.571	7120
2953.412	7149
2955.25	7059
2957.09	7052
2958.93	6952
2960.767	6965
2962.606	6754
2964.443	6937
2966.279	6887
2968.116	6755
2969.953	6674
2971.788	6712
2973.623	6529
2975.457	6467
2977.292	6495
2979.127	6454
2980.959	6371
2982.792	6381
2984.624	6332
2986.455	6359
2988.288	6321
2990.119	6245
2991.949	6291
2993.779	6228
2995.608	6203
2997.439	6153
2999.268	6132
3001.096	6000
3002.923	6049
3004.751	6052
3006.578	5995
3008.406	6012
3010.232	5914
3012.057	5917
3013.883	5906
3015.706	5929
3017.532	5855
3019.356	5828
3021.179	5756
3023.002	5754
3024.823	5673
3026.646	5700
3028.469	5618
3030.289	5685
3032.11	5672
3033.93	5603
3035.749	5590
3037.57	5733
3039.39	5643
3041.207	5584
3043.026	5612
3044.842	5757
3046.661	5664
3048.477	5576
3050.294	5512
3052.109	5693
3053.925	5652
3055.739	5513
3057.555	5622
3059.368	5501
3061.181	5579
3062.995	5554
3064.807	5647
3066.62	5428
3068.433	5680
3070.243	5696
3072.054	5575
3073.865	5480
3075.675	5613
3077.485	5560
3079.293	5504
3081.102	5505
3082.911	5569
3084.719	5487
3086.527	5476
3088.333	5444
3090.139	5561
3091.945	5459
3093.75	5440
3095.557	5424
3097.361	5521
3099.165	5511
3100.969	5424
3102.772	5439
3104.575	5414
3106.379	5454
3108.181	5423
3109.982	5462
3111.783	5427
3113.584	5374
3115.386	5313
3117.186	5451
3118.985	5300
3120.783	5326
3122.582	5309
3124.381	5367
3126.179	5299
3127.975	5306
3129.772	5297
3131.569	5362
3133.365	5449
3135.161	5362
3136.956	5241
3138.751	5375
3140.544	5246
3142.338	5320
3144.132	5183
3145.925	5386
3147.717	5321
3149.509	5335
3151.301	5269
3153.091	5248
3154.884	5266
3156.673	5221
3158.462	5288
3160.252	5306
3162.041	5253
3163.831	5259
3165.618	5263
3167.405	5322
3169.193	5295
3170.979	5200
3172.767	5297
3174.553	5198
3176.338	5289
3178.123	5209
3179.907	5240
3181.692	5288
3183.477	5259
3185.259	5170
3187.042	5271
3188.824	5201
3190.607	5219
3192.389	5197
3194.17	5139
3195.951	5217
3197.73	5173
3199.51	5223
3201.289	5132
3203.07	5109
3204.848	5120
3206.626	5136
3208.403	5231
3210.18	5156
3211.959	5127
3213.735	5252
3215.511	5114
3217.285	5165
3219.06	5247
3220.836	5116
3222.611	5223
3224.384	5214
3226.158	5221
3227.929	5178
3229.702	5081
3231.476	5165
3233.248	5034
3235.018	5181
3236.789	5148
3238.56	5103
3240.33	5088
3242.1	5100
3243.869	5153
3245.637	5138
3247.405	5063
3249.172	5200
3250.941	5118
3252.707	5189
3254.474	5074
3256.24	5038
3258.006	5146
3259.772	5116
3261.537	5198
3263.301	5161
3265.065	5122
3266.828	5055
3268.592	5135
3270.355	5128
3272.117	5069
3273.878	5161
3275.64	5179
3277.401	5078
3279.162	5162
3280.922	5098
3282.682	5142
3284.441	5144
3286.199	5152
3287.959	5025
3289.716	5142
3291.475	5156
3293.232	5181
3294.988	5153
3296.744	5181
3298.501	5146
3300.256	5100
3302.011	5153
3303.766	5095
3305.52	5012
3307.275	5077
3309.028	5069
3310.781	5138
3312.533	5117
3314.285	5111
3316.038	5175
3317.789	5117
3319.54	4983
3321.289	5024
3323.039	5058
3324.789	4977
3326.539	5044
3328.288	5041
3330.035	5182
3331.783	4978
3333.531	4992
3335.28	5155
3337.025	5018
3338.771	5008
3340.518	5151
3342.262	4937
3344.009	4985
3345.753	5011
3347.497	5070
3349.24	4971
3350.983	5033
3352.726	4880
3354.469	5062
3356.212	4998
3357.952	4977
3359.694	4992
3361.434	4956
3363.176	4934
3364.916	5086
3366.654	4885
3368.394	4985
3370.132	4952
3371.871	4882
3373.61	4954
3375.346	4900
3377.083	4971
3378.82	4950
3380.556	4939
3382.292	4959
3384.027	4916
3385.763	4869
3387.497	4876
3389.231	4838
3390.965	4878
3392.698	4930
3394.431	4889
3396.164	4918
3397.896	4998
3399.627	4823
3401.36	4926
3403.09	4934
3404.82	4926
3406.55	4882
3408.279	4720
3410.01	4890
3411.738	4894
3413.467	4881
3415.194	4773
3416.92	4827
3418.647	4854
3420.375	4829
3422.102	4855
3423.827	4822
3425.553	4876
3427.277	4764
3429.003	4788
3430.727	4772
3432.451	4771
3434.173	4867
3435.896	4782
3437.62	4769
3439.343	4777
3441.063	4718
3442.785	4692
3444.505	4801
3446.226	4824
3447.948	4803
3449.666	4685
3451.386	4722
3453.104	4688
3454.823	4718
3456.541	4674
3458.259	4627
3459.976	4569
3461.693	4659
3463.408	4814
3465.125	4680
3466.841	4590
3468.556	4725
3470.271	4590
3471.985	4682
3473.698	4559
3475.414	4549
3477.126	4603
3478.838	4528
3480.55	4600
3482.263	4614
3483.975	4709
3485.686	4671
3487.396	4551
3489.106	4533
3490.817	4544
3492.526	4601
3494.236	4532
3495.944	4520
3497.652	4567
3499.359	4615
3501.066	4538
3502.775	4570
3504.481	4625
3506.187	4532
3507.893	4537
3509.598	4507
3511.304	4469
3513.009	4429
3514.713	4511
3516.417	4429
3518.12	4485
3519.821	4489
3521.525	4444
3523.228	4509
3524.929	4498
3526.631	4399
3528.33	4472
3530.032	4413
3531.733	4452
3533.433	4364
3535.131	4454
3536.83	4459
3538.529	4449
3540.227	4396
3541.925	4468
3543.623	4482
3545.319	4398
3547.016	4352
3548.712	4426
3550.408	4364
3552.103	4374
3553.798	4402
3555.491	4372
3557.188	4339
3558.88	4405
3560.574	4347
3562.266	4466
3563.959	4423
3565.651	4331
3567.343	4353
3569.035	4334
3570.725	4377
3572.415	4364
3574.106	4352
3575.797	4350
3577.485	4358
3579.174	4246
3580.863	4284
3582.551	4250
3584.238	4257
3585.926	4289
3587.613	4326
3589.3	4335
3590.986	4318
3592.671	4287
3594.357	4170
3596.042	4241
3597.726	4147
3599.41	4290
3601.094	4220
3602.778	4138
3604.461	4227
3606.143	4157
3607.825	4248
3609.507	4116
3611.188	4123
3612.87	4127
3614.551	4120
3616.229	4149
3617.909	4142
3619.589	4212
3621.269	4150
3622.948	4056
3624.625	4128
3626.302	4159
3627.98	4153
3629.657	4094
3631.334	4185
3633.01	4110
3634.686	4127
3636.361	4114
3638.036	4103
3639.712	4113
3641.385	4051
3643.06	4063
3644.732	4092
3646.405	4040
3648.08	4026
3649.751	4054
3651.424	4131
3653.094	4035
3654.766	4064
3656.436	4028
3658.106	4022
3659.777	4040
3661.446	4086
3663.115	3984
3664.783	4036
3666.452	4057
3668.121	4041
3669.788	3975
3671.454	3975
3673.121	3956
3674.789	3917
3676.455	3994
3678.12	4025
3679.784	4018
3681.45	3976
3683.114	3955
3684.779	3977
3686.442	3984
3688.105	3994
3689.768	3920
3691.43	3956
3693.093	3938
3694.754	3991
3696.415	3878
3698.076	3977
3699.736	3951
3701.396	4060
3703.057	3856
3704.716	3919
3706.375	3884
3708.034	3846
3709.692	3991
3711.351	3879
3713.008	3916
3714.665	3915
3716.321	3885
3717.977	3881
3719.634	3927
3721.29	3914
3722.945	3815
3724.598	3825
3726.253	3820
3727.907	3887
3729.561	3896
3731.214	3896
3732.867	3822
3734.518	3822
3736.171	3849
3737.824	3853
3739.474	3837
3741.125	3870
3742.775	3750
3744.425	3852
3746.074	3830
3747.725	3846
3749.373	3834
3751.022	3791
3752.669	3730
3754.318	3808
3755.966	3726
3757.612	3808
3759.259	3799
3760.905	3824
3762.55	3778
3764.197	3828
3765.842	3728
3767.486	3784
3769.131	3804
3770.774	3748
3772.417	3716
3774.061	3790
3775.705	3834
3777.347	3736
3778.988	3813
3780.629	3801
3782.271	3876
3783.912	3757
3785.552	3775
3787.192	3727
3788.831	3790
3790.472	3775
3792.112	3756
3793.75	3674
3795.388	3789
3797.024	3722
3798.661	3788
3800.3	3693
3801.936	3761
3803.572	3722
3805.208	3666
3806.844	3557
3808.48	3649
3810.115	3704
3811.748	3729
3813.382	3679
3815.016	3640
3816.649	3753
3818.283	3655
3819.914	3677
3821.547	3719
3823.178	3641
3824.809	3611
3826.441	3618
3828.072	3648
3829.701	3612
3831.331	3652
3832.96	3666
3834.591	3594
3836.219	3668
3837.847	3602
3839.475	3566
3841.102	3624
3842.729	3550
3844.357	3606
3845.984	3627
3847.609	3592
3849.234	3629
3850.86	3534
3852.485	3521
3854.11	3559
3855.734	3647
3857.357	3524
3858.981	3693
3860.603	3583
3862.227	3544
3863.848	3525
3865.471	3523
3867.092	3613
3868.713	3554
3870.334	3505
3871.954	3510
3873.575	3551
3875.194	3433
3876.813	3557
3878.433	3549
3880.051	3535
3881.669	3562
3883.286	3516
3884.904	3530
3886.52	3514
3888.138	3528
3889.754	3493
3891.37	3484
3892.985	3535
3894.6	3457
3896.216	3540
3897.831	3468
3899.444	3448
3901.058	3497
3902.67	3537
3904.283	3532
3905.897	3491
3907.509	3477
3909.121	3561
3910.731	3506
3912.342	3499
3913.954	3519
3915.563	3527
3917.174	3454
3918.783	3421
3920.391	3395
3922.002	3496
3923.611	3429
3925.218	3441
3926.826	3480
3928.432	3352
3930.039	3494
3931.647	3414
3933.253	3452
3934.859	3402
3936.464	3451
3938.068	3421
3939.675	3525
3941.278	3408
3942.883	3418
3944.486	3355
3946.089	3427
3947.692	3351
3949.295	3494
3950.898	3429
3952.499	3429
3954.1	3422
3955.7	3379
3957.303	3339
3958.903	3432
3960.502	3431
3962.101	3293
3963.7	3262
3965.301	3362
3966.899	3434
3968.497	3425
3970.094	3304
3971.691	3429
3973.288	3420
3974.885	3348
3976.481	3324
3978.077	3342
3979.672	3284
3981.267	3405
3982.863	3400
3984.457	3367
3986.051	3369
3987.645	3273
3989.238	3315
3990.831	3347
3992.425	3295
3994.017	3269
3995.607	3264
3997.199	3249
3998.79	3257
4000.382	3304
4001.973	3239
4003.561	3203
4005.151	3227
4006.741	3364
4008.331	6645
4009.918	3278
4011.507	3202
4013.095	3279
4014.681	3197
4016.269	3220
4017.856	3216
4019.443	3147
4021.028	3223
4022.614	3213
4024.199	3191
4025.785	3229
4027.37	3259
4028.953	3256
4030.536	3193
4032.12	3124
4033.704	3189
4035.287	3191
4036.869	3240
4038.45	3236
4040.032	3082
4041.613	3223
4043.195	3219
4044.776	3181
4046.356	3134
4047.935	3115
4049.515	3130
4051.095	3091
4052.674	3118
4054.251	3170
4055.829	3076
4057.406	3113
4058.985	3195
4060.562	3188
4062.139	3166
4063.715	3140
4065.29	3104
4066.865	3181
4068.442	3145
4070.016	3077
4071.59	3137
4073.164	3096
4074.738	3075
4076.312	3076
4077.885	3137
4079.458	3149
4081.03	3121
4082.602	3093
4084.173	3053
4085.745	3060
4087.315	3085
4088.886	3093
4090.456	3093
4092.026	3091
4093.596	3075
4095.165	3091
4096.734	3033
4098.301	3116
4099.869	3049
4101.437	3057
4103.006	3074
4104.572	2971
4106.139	3094
4107.704	3009
4109.27	2941
4110.837	3054
4112.401	3066
4113.966	3028
4115.53	2990
4117.094	3002
4118.659	3067
4120.223	3002
4121.785	3029
4123.347	2998
4124.909	2921
4126.471	3011
4128.034	3023
4129.595	2982
4131.155	3055
4132.716	3017
4134.275	2976
4135.836	2964
4137.395	2983
4138.955	2998
4140.513	2956
4142.071	2921
4143.628	2903
4145.188	2963
4146.745	2915
4148.302	2957
4149.858	2917
4151.414	2975
4152.971	2989
4154.526	2924
4156.081	2965
4157.635	2917
4159.189	2974
4160.745	2926
4162.298	2924
4163.852	2811
4165.405	2905
4166.957	2961
4168.51	2848
4170.063	2900
4171.614	2908
4173.166	2879
4174.717	2880
4176.267	2894
4177.817	2849
4179.368	2819
4180.917	2916
4182.466	2871
4184.016	2899
4185.564	2839
4187.112	2811
4188.66	2825
4190.207	2814
4191.754	2867
4193.301	2888
4194.848	2889
4196.394	2867
4197.94	2857
4199.484	2859
4201.03	2800
4202.575	2839
4204.12	2868
4205.663	2824
4207.207	2732
4208.75	2833
4210.292	2795
4211.836	2741
4213.378	2803
4214.92	2856
4216.46	2797
4218.002	2831
4219.544	2824
4221.083	2694
4222.625	2832
4224.164	2745
4225.703	2796
4227.244	2749
4228.782	2767
4230.32	2838
4231.857	2795
4233.395	2818
4234.933	2740
4236.471	2839
4238.007	2751
4239.542	2760
4241.078	2760
4242.614	2758
4244.15	2738
4245.685	2822
4247.219	2760
4248.753	2730
4250.287	2746
4251.82	2746
4253.354	2779
4254.887	2740
4256.419	2732
4257.951	2729
4259.483	2746
4261.016	2809
4262.547	2816
4264.078	2724
4265.608	2658
4267.137	2762
4268.668	2744
4270.197	2665
4271.727	2747
4273.254	2694
4274.783	2702
4276.311	2721
4277.84	2735
4279.366	2737
4280.894	2722
4282.42	2717
4283.946	2647
4285.473	2685
4286.998	2677
4288.523	2706
4290.047	2704
4291.572	2702
4293.096	2700
4294.622	2639
4296.144	2632
4297.668	2622
4299.19	2664
4300.713	2661
4302.236	2685
4303.758	2574
4305.279	2689
4306.799	2646
4308.321	2658
4309.842	2690
4311.361	2695
4312.882	2654
4314.401	2738
