400.0961	4127
402.6185	4002
405.1424	4089
407.6635	4132
410.1838	4119
412.7035	4131
415.2225	4087
417.7388	4071
420.2585	4173
422.7754	4208
425.2917	4264
427.8072	4306
430.3221	4335
432.8363	4376
435.3498	4377
437.8626	4334
440.3727	4287
442.8841	4330
445.3969	4299
447.907	4324
450.4142	4205
452.9229	4333
455.4289	4333
457.9362	4380
460.4449	4328
462.9488	4329
465.454	4338
467.9566	4343
470.4604	4379
472.9637	4296
475.4662	4413
477.966	4366
480.4671	4413
482.9656	4354
485.4633	4330
487.9645	4422
490.4608	4430
492.9566	4463
495.4536	4395
497.948	4445
500.4437	4520
502.9387	4561
505.431	4440
507.9226	4522
510.4136	4534
512.9079	4511
515.3975	4532
517.8864	4491
520.3746	4546
522.8622	4543
525.3491	4477
527.8394	4521
530.3249	4417
532.8098	4438
535.2939	4510
537.7774	4523
540.2623	4510
542.7444	4489
545.2259	4564
547.7067	4523
550.1868	4484
552.6683	4571
555.147	4479
557.6231	4486
560.1005	4592
562.5773	4491
565.0534	4486
567.5308	4609
570.0056	4627
572.4776	4681
574.951	4674
577.4237	4608
579.8978	4700
582.3671	4719
584.8378	4763
587.3079	4725
589.7773	4856
592.244	4699
594.714	4736
597.1793	4781
599.6461	4657
602.1121	4651
604.5754	4736
607.0421	4688
609.5042	4837
611.9675	4607
614.4282	4687
616.8902	4823
619.3515	4658
621.8122	4694
624.2702	4712
626.7296	4745
629.1863	4691
631.6423	4745
634.1017	4706
636.5563	4716
639.0104	4665
641.4658	4718
643.9185	4710
646.3725	4784
648.8239	4791
651.2766	4782
653.7266	4684
656.176	4825
658.6247	4751
661.0748	4863
663.5242	4826
665.9709	4754
668.417	4874
670.8624	4887
673.3092	4809
675.7533	4823
678.1968	4799
680.6395	4899
683.0817	4844
685.5251	4887
687.9659	4870
690.4061	4952
692.8456	4879
695.2844	4916
697.7226	4884
700.1621	4975
702.599	4929
705.0332	4916
707.4688	4950
709.9036	5004
712.3399	4866
714.7735	4994
717.2044	4951
719.6367	5013
722.0683	5001
724.4993	5013
726.9296	4973
729.3593	4983
731.7883	4983
734.2147	5069
736.6423	5122
739.0714	5071
741.4958	5056
743.9216	5120
746.3447	5195
748.7691	5158
751.1929	5192
753.616	5089
756.0366	5109
758.4584	5211
760.8776	5180
763.2982	5155
765.718	5248
768.1373	5258
770.5539	5147
772.9698	5187
775.3871	5272
777.8038	5319
780.2178	5228
782.6332	5288
785.0459	5207
787.458	5260
789.8714	5266
792.2842	5286
794.6943	5275
797.1038	5209
799.5127	5341
801.9209	5282
804.3324	5307
806.7393	5308
809.1456	5282
811.5513	5219
813.9562	5412
816.3625	5322
818.7663	5271
821.1693	5281
823.5718	5359
825.9735	5373
828.3746	5360
830.7771	5353
833.177	5375
835.5762	5296
837.9747	5351
840.3727	5285
842.772	5362
845.1666	5382
847.5626	5457
849.958	5449
852.3527	5405
854.7488	5537
857.1403	5394
859.5331	5437
861.9253	5376
864.3168	5337
866.7057	5437
869.098	5359
871.4876	5443
873.8746	5458
876.263	5455
878.6487	5462
881.0378	5374
883.4243	5418
885.8081	5474
888.1933	5396
890.5759	5396
892.9598	5462
895.343	5459
897.7256	5444
900.1057	5477
902.4871	5310
904.8659	5407
907.246	5500
909.6254	5509
912.0023	5517
914.3786	5464
916.7562	5596
919.1331	5548
921.5074	5675
923.8831	5711
926.2562	5619
928.6287	5660
931.0005	5553
933.3757	5682
935.7462	5713
938.1162	5670
940.4855	5687
942.8542	5736
945.2242	5798
947.5916	5816
949.9584	5905
952.3266	5967
954.6921	6082
957.0571	6202
959.4233	6365
961.787	6411
964.15	6361
966.5125	6275
968.8742	6197
971.2354	5991
973.5959	5909
975.9559	5726
978.3151	5678
980.6738	5654
983.0338	5650
985.3912	5663
987.7461	5723
990.1022	5562
992.4578	5651
994.8127	5620
997.1689	5675
999.5207	5569
1001.874	5595
1004.226	5624
1006.576	5612
1008.929	5614
1011.28	5596
1013.628	5731
1015.977	5651
1018.324	5574
1020.674	5632
1023.019	5595
1025.366	5539
1027.713	5697
1030.056	5718
1032.399	5695
1034.746	5671
1037.087	5561
1039.431	5689
1041.771	5701
1044.113	5780
1046.454	5644
1048.793	5612
1051.133	5699
1053.471	5736
1055.807	5744
1058.146	5749
1060.483	5777
1062.818	5822
1065.153	5695
1067.489	5713
1069.822	5767
1072.156	5847
1074.488	5793
1076.82	5879
1079.15	5916
1081.48	5777
1083.814	5748
1086.143	5725
1088.471	5791
1090.799	5811
1093.126	5683
1095.452	5887
1097.78	5797
1100.105	5814
1102.43	5796
1104.754	5819
1107.077	5901
1109.4	5761
1111.722	5827
1114.044	5782
1116.365	5674
1118.685	5811
1121.005	5744
1123.324	5748
1125.643	5836
1127.961	5769
1130.278	5732
1132.595	5832
1134.911	5801
1137.226	5900
1139.541	5740
1141.854	5792
1144.167	5794
1146.482	5860
1148.793	5859
1151.105	5697
1153.414	5874
1155.725	5868
1158.033	5861
1160.344	5776
1162.651	5871
1164.959	5758
1167.265	5850
1169.572	5842
1171.878	5935
1174.184	5810
1176.488	5853
1178.79	5874
1181.094	5941
1183.396	5859
1185.699	5877
1188.001	5807
1190.301	5860
1192.6	5742
1194.9	5883
1197.2	5782
1199.497	5808
1201.794	5811
1204.09	5699
1206.387	5777
1208.684	5892
1210.978	5830
1213.272	5742
1215.565	5892
1217.858	5897
1220.15	6017
1222.443	5804
1224.734	5899
1227.024	5868
1229.313	5891
1231.602	6006
1233.892	5892
1236.18	6007
1238.467	5952
1240.754	5874
1243.04	6007
1245.325	6027
1247.612	6044
1249.896	5974
1252.178	5984
1254.461	6077
1256.743	6093
1259.027	6096
1261.308	5993
1263.587	6052
1265.867	6025
1268.146	6026
1270.425	6028
1272.703	6135
1274.981	6081
1277.256	6083
1279.532	5950
1281.808	5979
1284.083	5957
1286.358	5977
1288.63	6016
1290.904	5908
1293.175	6089
1295.449	5987
1297.719	5977
1299.99	5964
1302.259	5989
1304.529	5995
1306.798	5963
1309.065	6061
1311.333	6031
1313.599	5981
1315.866	6069
1318.131	6035
1320.396	5939
1322.66	5994
1324.925	6074
1327.187	5998
1329.448	6065
1331.711	6129
1333.974	5995
1336.234	5990
1338.493	6039
1340.752	6049
1343.01	5949
1345.269	6010
1347.526	5990
1349.784	6069
1352.04	5947
1354.295	5960
1356.552	5962
1358.806	6037
1361.059	6018
1363.312	6059
1365.564	5993
1367.818	6002
1370.069	6060
1372.318	5999
1374.568	6032
1376.817	6126
1379.066	5962
1381.316	6094
1383.564	5982
1385.809	6094
1388.056	6136
1390.301	6083
1392.549	6045
1394.793	6205
1397.036	6000
1399.279	6167
1401.522	6283
1403.763	6222
1406.007	6291
1408.248	6141
1410.487	6303
1412.727	6099
1414.965	6296
1417.205	6232
1419.442	6084
1421.68	6122
1423.915	6176
1426.152	6154
1428.388	6230
1430.623	6299
1432.857	6224
1435.091	6174
1437.323	6176
1439.556	6186
1441.789	6214
1444.019	6372
1446.25	6214
1448.48	6291
1450.708	6294
1452.938	6249
1455.167	6325
1457.394	6257
1459.62	6411
1461.846	6365
1464.073	6260
1466.299	6225
1468.523	6428
1470.746	6201
1472.969	6247
1475.191	6224
1477.415	6154
1479.636	6024
1481.858	6145
1484.078	6081
1486.298	6049
1488.518	6098
1490.736	6109
1492.954	6214
1495.169	6093
1497.386	6075
1499.602	6010
1501.819	6009
1504.034	5954
1506.248	6045
1508.462	6136
1510.675	6098
1512.888	6040
1515.1	5987
1517.311	6071
1519.522	6036
1521.732	6051
1523.942	6124
1526.151	5984
1528.36	6022
1530.566	6024
1532.773	5941
1534.98	6004
1537.187	5927
1539.392	6100
1541.596	6098
1543.801	6078
1546.005	6093
1548.208	6150
1550.411	6183
1552.612	6026
1554.814	6005
1557.013	6091
1559.212	6131
1561.414	6141
1563.612	6091
1565.811	6121
1568.007	6188
1570.203	6186
1572.403	6112
1574.598	6112
1576.792	6109
1578.988	6167
1581.181	6175
1583.376	6280
1585.568	6267
1587.761	6173
1589.952	6302
1592.143	6218
1594.333	6284
1596.524	6169
1598.715	6288
1600.903	6231
1603.091	6250
1605.278	6244
1607.466	6072
1609.652	6245
1611.838	6199
1614.023	6239
1616.207	6227
1618.391	6277
1620.576	6117
1622.759	6262
1624.941	6272
1627.123	6251
1629.304	6206
1631.484	6285
1633.664	6286
1635.844	6249
1638.022	6372
1640.201	6309
1642.38	6349
1644.556	6377
1646.732	6300
1648.908	6207
1651.084	6187
1653.257	6294
1655.433	6333
1657.607	6297
1659.779	6406
1661.951	6265
1664.122	6456
1666.295	6198
1668.467	6373
1670.635	6366
1672.805	6441
1674.973	6270
1677.142	6328
1679.31	6345
1681.478	6396
1683.644	6431
1685.81	6415
1687.975	6313
1690.142	6368
1692.305	6241
1694.468	6288
1696.632	6354
1698.794	6375
1700.957	6204
1703.119	6278
1705.279	6180
1707.439	6250
1709.598	6298
1711.758	6218
1713.917	6206
1716.075	6255
1718.231	6213
1720.388	6251
1722.543	6145
1724.702	6218
1726.856	6274
1729.01	6351
1731.164	6300
1733.317	6220
1735.471	6198
1737.623	6166
1739.774	6221
1741.925	6146
1744.075	6214
1746.225	6275
1748.376	6172
1750.524	6299
1752.672	6281
1754.82	6160
1756.965	6242
1759.113	6238
1761.259	6265
1763.405	6283
1765.549	6269
1767.694	6252
1769.836	6281
1771.981	6357
1774.123	6286
1776.264	6283
1778.405	6273
1780.546	6338
1782.687	6372
1784.827	6356
1786.966	6368
1789.103	6218
1791.242	6363
1793.381	6349
1795.517	6282
1797.653	6307
1799.788	6299
1801.923	6341
1804.057	6307
1806.193	6371
1808.326	6287
1810.457	6196
1812.59	6262
1814.721	6344
1816.855	6192
1818.984	6329
1821.113	6253
1823.244	6416
1825.372	6321
1827.499	6329
1829.63	6238
1831.756	6275
1833.882	6317
1836.007	6290
1838.132	6234
1840.26	6264
1842.384	6306
1844.507	6348
1846.63	6239
1848.752	6302
1850.875	6181
1852.996	6382
1855.118	6243
1857.238	6150
1859.358	6220
1861.477	6193
1863.597	6222
1865.715	6264
1867.832	6263
1869.948	6184
1872.064	6244
1874.181	6233
1876.297	6259
1878.411	6322
1880.526	6282
1882.639	6350
1884.752	6375
1886.865	6313
1888.977	6257
1891.089	6208
1893.2	6262
1895.308	6185
1897.42	6317
1899.53	6336
1901.639	6353
1903.745	6241
1905.853	6369
1907.962	6300
1910.067	6294
1912.174	6380
1914.278	6233
1916.383	6347
1918.486	6365
1920.592	6302
1922.694	6264
1924.797	6350
1926.898	6349
1929	6351
1931.102	6319
1933.203	6370
1935.301	6249
1937.401	6307
1939.499	6293
1941.598	6400
1943.697	6354
1945.793	6334
1947.888	6316
1949.985	6410
1952.08	6366
1954.176	6336
1956.269	6261
1958.364	6360
1960.457	6316
1962.549	6403
1964.642	6396
1966.733	6320
1968.823	6221
1970.913	6303
1973.005	6437
1975.093	6358
1977.184	6194
1979.271	6401
1981.359	6240
1983.446	6250
1985.532	6289
1987.619	6202
1989.705	6353
1991.789	6285
1993.874	6350
1995.956	6351
1998.041	6315
2000.123	6407
2002.206	6366
2004.287	6355
2006.368	6142
2008.449	6352
2010.529	6184
2012.609	6304
2014.688	6319
2016.766	6311
2018.843	6267
2020.922	6223
2022.999	6303
2025.074	6264
2027.15	6221
2029.225	6252
2031.299	6284
2033.375	6226
2035.447	6269
2037.52	6244
2039.592	6266
2041.664	6346
2043.736	6234
2045.807	6354
2047.876	6260
2049.947	6333
2052.015	6198
2054.086	6287
2056.153	6272
2058.221	6160
2060.288	6418
2062.353	6322
2064.42	6230
2066.486	6143
2068.55	6194
2070.614	6408
2072.678	6265
2074.741	6326
2076.805	6158
2078.866	6315
2080.929	6351
2082.99	6171
2085.049	6363
2087.109	6267
2089.17	6234
2091.228	6312
2093.286	6097
2095.344	6221
2097.4	6210
2099.46	6189
2101.516	6270
2103.572	6222
2105.626	6235
2107.679	6255
2109.735	6376
2111.788	6251
2113.841	6242
2115.894	6298
2117.945	6306
2119.997	6239
2122.049	6243
2124.1	6349
2126.148	6266
2128.197	6293
2130.246	6273
2132.296	6113
2134.342	6275
2136.39	6251
2138.437	6276
2140.483	6285
2142.527	6298
2144.574	6223
2146.619	6285
2148.661	6287
2150.705	6179
2152.747	6264
2154.792	6153
2156.832	6348
2158.874	6116
2160.915	6269
2162.954	6217
2164.995	6255
2167.034	6280
2169.072	6109
2171.111	6060
2173.148	6166
2175.186	6227
2177.223	6139
2179.258	6268
2181.294	6125
2183.328	6146
2185.362	6173
2187.398	6071
2189.431	6201
2191.463	6069
2193.495	6085
2195.528	6085
2197.56	6175
2199.59	6107
2201.62	6086
2203.649	6219
2205.678	6093
2207.708	6018
2209.737	6085
2211.764	5998
2213.791	6144
2215.817	5965
2217.843	6133
2219.87	6128
2221.895	6096
2223.919	6088
2225.942	6230
2227.966	6028
2229.988	5978
2232.012	6107
2234.032	6081
2236.054	6107
2238.074	5987
2240.095	6070
2242.116	6037
2244.135	5945
2246.153	5985
2248.171	6074
2250.188	6019
2252.208	6006
2254.223	6084
2256.239	6031
2258.255	6137
2260.269	6112
2262.283	6082
2264.3	6105
2266.312	6084
2268.325	6281
2270.336	6050
2272.349	6056
2274.362	6079
2276.372	5973
2278.383	6019
2280.392	6112
2282.402	6121
2284.409	6041
2286.418	6077
2288.427	6028
2290.433	6045
2292.441	6110
2294.446	6074
2296.453	5997
2298.459	5980
2300.463	6074
2302.466	6005
2304.471	6074
2306.475	6047
2308.477	5980
2310.478	5971
2312.481	6040
2314.481	5968
2316.481	5955
2318.482	5957
2320.482	5965
2322.48	5976
2324.48	6070
2326.478	5969
2328.476	6056
2330.473	6075
2332.469	5955
2334.465	5938
2336.46	5954
2338.454	5869
2340.45	5956
2342.444	5960
2344.437	5919
2346.43	5935
2348.421	5881
2350.414	5935
2352.405	5939
2354.396	5979
2356.386	5918
2358.376	5899
2360.366	5928
2362.355	5887
2364.343	5971
2366.331	5919
2368.317	6035
2370.304	5961
2372.292	5981
2374.278	5916
2376.262	5909
2378.247	5814
2380.23	5882
2382.216	5941
2384.199	5849
2386.181	5834
2388.163	5915
2390.144	5812
2392.127	5874
2394.107	5903
2396.087	5892
2398.066	5765
2400.046	5847
2402.023	5889
2404.004	5859
2405.981	5761
2407.957	5966
2409.934	5831
2411.91	5776
2413.886	5783
2415.862	5824
2417.836	5736
2419.809	5800
2421.784	5867
2423.756	5851
2425.73	5918
2427.701	5677
2429.672	5795
2431.644	5900
2433.615	5880
2435.586	5764
2437.555	5760
2439.523	5848
2441.491	5804
2443.459	5682
2445.428	5786
2447.395	5831
2449.361	5893
2451.327	5728
2453.292	5826
2455.257	5739
2457.223	5755
2459.187	5885
2461.15	5761
2463.113	5743
2465.076	5782
2467.039	5782
2468.999	5810
2470.96	5743
2472.921	5801
2474.881	5748
2476.841	5734
2478.8	5817
2480.759	5829
2482.717	5846
2484.675	5778
2486.63	5700
2488.589	5761
2490.545	5734
2492.5	5721
2494.455	5704
2496.408	5641
2498.364	5656
2500.318	5692
2502.27	5663
2504.223	5707
2506.174	5701
2508.126	5664
2510.078	5636
2512.03	5616
2513.979	5606
2515.927	5636
2517.877	5753
2519.826	5673
2521.775	5725
2523.722	5670
2525.668	5760
2527.616	5603
2529.561	5722
2531.508	5701
2533.452	5842
2535.398	5647
2537.342	5714
2539.284	5568
2541.229	5703
2543.173	5680
2545.114	5605
2547.055	5744
2548.996	5707
2550.938	5570
2552.878	5708
2554.817	5720
2556.756	5596
2558.695	5620
2560.633	5732
2562.572	5546
2564.509	5702
2566.445	5688
2568.382	5633
2570.317	5650
2572.254	5623
2574.189	5625
2576.123	5571
2578.057	5781
2579.99	5663
2581.923	5646
2583.855	5724
2585.788	5799
2587.719	5598
2589.65	5697
2591.579	5645
2593.511	5683
2595.44	5577
2597.37	5641
2599.297	5613
2601.225	5667
2603.153	5606
2605.08	5624
2607.007	5740
2608.932	5670
2610.858	5669
2612.782	5663
2614.709	5734
2616.632	5612
2618.556	5722
2620.478	5650
2622.401	5566
2624.324	5654
2626.247	5586
2628.167	5747
2630.088	5771
2632.008	5640
2633.928	5725
2635.848	5642
2637.766	5589
2639.684	5695
2641.603	5693
2643.519	5661
2645.437	5643
2647.353	5694
2649.27	5623
2651.184	5576
2653.099	5705
2655.014	5582
2656.928	5562
2658.842	5611
2660.755	5525
2662.667	5757
2664.579	5593
2666.491	5594
2668.402	5626
2670.312	5575
2672.222	5525
2674.132	5576
2676.042	5646
2677.951	5639
2679.859	5479
2681.766	5500
2683.674	5600
2685.582	5547
2687.488	5623
2689.392	5577
2691.298	5530
2693.202	5532
2695.107	5525
2697.012	5527
2698.914	5525
2700.817	5519
2702.72	5557
2704.622	5527
2706.524	5560
2708.425	5522
2710.326	5473
2712.225	5523
2714.125	5592
2716.024	5424
2717.923	5504
2719.822	5546
2721.719	5488
2723.616	5476
2725.512	5536
2727.41	5532
2729.305	5433
2731.201	5492
2733.095	5510
2734.99	5515
2736.884	5546
2738.778	5486
2740.67	5477
2742.562	5437
2744.455	5534
2746.346	5548
2748.238	5498
2750.129	5418
2752.018	5567
2753.907	5344
2755.797	5377
2757.687	5499
2759.575	5467
2761.462	5383
2763.349	5475
2765.237	5467
2767.124	5496
2769.009	5479
2770.894	5524
2772.779	5496
2774.663	5497
2776.547	5437
2778.431	5376
2780.314	5425
2782.197	5386
2784.078	5415
2785.96	5359
2787.842	5426
2789.723	5475
2791.603	5370
2793.483	5443
2795.362	5327
2797.241	5423
2799.121	5454
2800.997	5385
2802.874	5479
2804.751	5362
2806.628	5442
2808.506	5420
2810.38	5361
2812.255	5458
2814.13	5344
2816.003	5350
2817.878	5469
2819.752	5405
2821.623	5407
2823.496	5398
2825.368	5474
2827.238	5302
2829.111	5327
2830.98	5367
2832.851	5473
2834.719	5386
2836.589	5467
2838.458	5436
2840.327	5302
2842.193	5453
2844.061	5382
2845.927	5297
2847.794	5406
2849.66	5404
2851.525	5370
2853.39	5408
2855.254	5472
2857.117	5482
2858.983	5370
2860.845	5473
2862.707	5369
2864.569	5480
2866.431	5413
2868.293	5491
2870.154	5501
2872.013	5659
2873.873	5509
2875.733	5571
2877.592	5504
2879.451	5684
2881.309	5654
2883.166	5686
2885.022	5656
2886.879	5724
2888.736	5694
2890.591	5799
2892.446	5759
2894.301	5765
2896.155	5670
2898.009	5803
2899.863	5598
2901.716	5576
2903.568	5743
2905.419	5702
2907.27	5685
2909.123	5606
2910.973	5622
2912.824	5778
2914.673	5696
2916.521	5800
2918.372	5743
2920.22	5857
2922.067	5854
2923.914	5931
2925.761	5872
2927.607	5983
2929.455	5902
2931.301	5876
2933.144	5931
2934.99	5957
2936.833	5984
2938.678	6104
2940.522	6009
2942.364	6140
2944.207	6124
2946.048	6262
2947.891	6211
2949.731	6188
2951.571	6192
2953.412	6276
2955.25	6173
2957.09	6133
2958.93	6234
2960.767	6188
2962.606	6044
2964.443	6026
2966.279	5970
2968.116	5944
2969.953	5878
2971.788	5874
2973.623	5768
2975.457	5757
2977.292	5790
2979.127	5744
2980.959	5721
2982.792	5579
2984.624	5621
2986.455	5593
2988.288	5645
2990.119	5580
2991.949	5580
2993.779	5503
2995.608	5471
2997.439	5380
2999.268	5417
3001.096	5416
3002.923	5495
3004.751	5376
3006.578	5326
3008.406	5277
3010.232	5361
3012.057	5354
3013.883	5258
3015.706	5251
3017.532	5206
3019.356	5225
3021.179	5131
3023.002	5278
3024.823	5128
3026.646	5040
3028.469	5109
3030.289	5159
3032.11	5162
3033.93	5114
3035.749	5110
3037.57	5023
3039.39	5108
3041.207	5084
3043.026	5006
3044.842	5114
3046.661	5168
3048.477	5080
3050.294	4942
3052.109	5023
3053.925	5068
3055.739	4971
3057.555	5018
3059.368	5113
3061.181	4986
3062.995	5147
3064.807	5131
3066.62	5003
3068.433	5031
3070.243	4964
3072.054	5011
3073.865	4952
3075.675	5019
3077.485	4950
3079.293	4938
3081.102	4996
3082.911	4894
3084.719	4890
3086.527	4947
3088.333	4908
3090.139	4931
3091.945	4890
3093.75	4816
3095.557	4933
3097.361	4935
3099.165	5053
3100.969	4884
3102.772	4873
3104.575	4819
3106.379	4829
3108.181	4940
3109.982	4955
3111.783	4942
3113.584	4890
3115.386	4772
3117.186	4906
3118.985	4774
3120.783	4917
3122.582	4887
3124.381	4816
3126.179	4765
3127.975	4798
3129.772	4740
3131.569	4819
3133.365	4804
3135.161	4753
3136.956	4819
3138.751	4656
3140.544	4765
3142.338	4733
3144.132	4748
3145.925	4773
3147.717	4722
3149.509	4783
3151.301	4818
3153.091	4703
3154.884	4760
3156.673	4731
3158.462	4680
3160.252	4729
3162.041	4752
3163.831	4648
3165.618	4757
3167.405	4763
3169.193	4691
3170.979	4701
3172.767	4658
3174.553	4672
3176.338	4640
3178.123	4718
3179.907	4605
3181.692	4659
3183.477	4722
3185.259	4705
3187.042	4719
3188.824	4674
3190.607	4716
3192.389	4644
3194.17	4643
3195.951	4715
3197.73	4652
3199.51	4592
3201.289	4610
3203.07	4661
3204.848	4690
3206.626	4649
3208.403	4622
3210.18	4652
3211.959	4646
3213.735	4700
3215.511	4573
3217.285	4589
3219.06	4633
3220.836	4581
3222.611	4582
3224.384	4656
3226.158	4606
3227.929	4591
3229.702	4579
3231.476	4605
3233.248	4593
3235.018	4551
3236.789	4655
3238.56	4644
3240.33	4583
3242.1	4714
3243.869	4553
3245.637	4470
3247.405	4637
3249.172	4592
3250.941	4669
3252.707	4639
3254.474	4618
3256.24	4640
3258.006	4638
3259.772	4645
3261.537	4457
3263.301	4615
3265.065	4629
3266.828	4601
3268.592	4555
3270.355	4544
3272.117	4577
3273.878	4642
3275.64	4606
3277.401	4651
3279.162	4596
3280.922	4594
3282.682	4584
3284.441	4609
3286.199	4528
3287.959	4563
3289.716	4511
3291.475	4568
3293.232	4607
3294.988	4559
3296.744	4619
3298.501	4638
3300.256	4537
3302.011	4546
3303.766	4610
3305.52	4594
3307.275	4540
3309.028	4572
3310.781	4605
3312.533	4540
3314.285	4543
3316.038	4559
3317.789	4515
3319.54	4615
3321.289	4566
3323.039	4544
3324.789	4449
3326.539	4651
3328.288	4578
3330.035	4524
3331.783	4392
3333.531	4552
3335.28	4574
3337.025	4519
3338.771	4544
3340.518	4432
3342.262	4539
3344.009	4552
3345.753	4540
3347.497	4494
3349.24	4451
3350.983	4495
3352.726	4565
3354.469	4452
3356.212	4475
3357.952	4394
3359.694	4500
3361.434	4513
3363.176	4339
3364.916	4384
3366.654	4416
3368.394	4353
3370.132	4462
3371.871	4411
3373.61	4409
3375.346	4429
3377.083	4442
3378.82	4365
3380.556	4380
3382.292	4398
3384.027	4448
3385.763	4337
3387.497	4404
3389.231	4295
3390.965	4297
3392.698	4402
3394.431	4392
3396.164	4391
3397.896	4472
3399.627	4252
3401.36	4189
3403.09	4430
3404.82	4419
3406.55	4336
3408.279	4360
3410.01	4333
3411.738	4310
3413.467	4405
3415.194	4368
3416.92	4274
3418.647	4236
3420.375	4271
3422.102	4298
3423.827	4334
3425.553	4337
3427.277	4255
3429.003	4378
3430.727	4380
3432.451	4261
3434.173	4208
3435.896	4286
3437.62	4281
3439.343	4335
3441.063	4289
3442.785	4273
3444.505	4188
3446.226	4307
3447.948	4208
3449.666	4163
3451.386	4214
3453.104	4266
3454.823	4321
3456.541	4305
3458.259	4239
3459.976	4222
3461.693	4219
3463.408	4147
3465.125	4201
3466.841	4140
3468.556	4229
3470.271	4262
3471.985	4166
3473.698	4095
3475.414	4202
3477.126	4173
3478.838	4180
3480.55	4118
3482.263	4201
3483.975	4146
3485.686	4135
3487.396	4059
3489.106	4181
3490.817	4041
3492.526	4113
3494.236	4063
3495.944	4021
3497.652	4091
3499.359	4141
3501.066	4022
3502.775	4006
3504.481	4110
3506.187	4134
3507.893	4081
3509.598	3941
3511.304	4094
3513.009	4004
3514.713	4107
3516.417	3957
3518.12	4020
3519.821	4029
3521.525	4049
3523.228	4044
3524.929	4053
3526.631	3938
3528.33	3956
3530.032	3962
3531.733	3976
3533.433	3992
3535.131	3943
3536.83	4001
3538.529	3978
3540.227	4020
3541.925	4005
3543.623	3957
3545.319	3921
3547.016	3963
3548.712	3961
3550.408	3923
3552.103	3947
3553.798	3923
3555.491	3968
3557.188	3902
3558.88	4024
3560.574	3866
3562.266	3986
3563.959	3923
3565.651	3916
3567.343	3892
3569.035	3883
3570.725	3938
3572.415	3898
3574.106	3928
3575.797	3897
3577.485	3950
3579.174	3808
3580.863	3828
3582.551	3900
3584.238	3722
3585.926	3872
3587.613	3881
3589.3	3860
3590.986	3877
3592.671	3900
3594.357	3863
3596.042	3775
3597.726	3913
3599.41	3857
3601.094	3899
3602.778	3812
3604.461	3864
3606.143	3790
3607.825	3768
3609.507	3856
3611.188	3806
3612.87	3815
3614.551	3769
3616.229	3675
3617.909	3735
3619.589	3744
3621.269	3660
3622.948	3660
3624.625	3711
3626.302	3730
3627.98	3754
3629.657	3750
3631.334	3780
3633.01	3666
3634.686	3774
3636.361	3669
3638.036	3700
3639.712	3635
3641.385	3620
3643.06	3731
3644.732	3691
3646.405	3677
3648.08	3649
3649.751	3731
3651.424	3552
3653.094	3712
3654.766	3679
3656.436	3711
3658.106	3677
3659.777	3679
3661.446	3681
3663.115	3680
3664.783	3576
3666.452	3705
3668.121	3623
3669.788	3630
3671.454	3624
3673.121	3598
3674.789	3682
3676.455	3621
3678.12	3502
3679.784	3589
3681.45	3657
3683.114	3571
3684.779	3582
3686.442	3646
3688.105	3629
3689.768	3581
3691.43	3646
3693.093	3565
3694.754	3591
3696.415	3543
3698.076	3591
3699.736	3564
3701.396	3664
3703.057	3534
3704.716	3528
3706.375	3601
3708.034	3584
3709.692	3526
3711.351	3496
3713.008	3602
3714.665	3584
3716.321	3514
3717.977	3497
3719.634	3638
3721.29	3551
3722.945	3592
3724.598	3455
3726.253	3576
3727.907	3517
3729.561	3542
3731.214	3457
3732.867	3482
3734.518	3576
3736.171	3497
3737.824	3494
3739.474	3460
3741.125	3449
3742.775	3530
3744.425	3494
3746.074	3573
3747.725	3481
3749.373	3538
3751.022	3508
3752.669	3453
3754.318	3491
3755.966	3533
3757.612	3478
3759.259	3460
3760.905	3474
3762.55	3473
3764.197	3430
3765.842	3429
3767.486	3433
3769.131	3272
3770.774	3495
3772.417	3373
3774.061	3418
3775.705	3419
3777.347	3421
3778.988	3472
3780.629	3410
3782.271	3431
3783.912	3384
3785.552	3479
3787.192	3376
3788.831	3408
3790.472	3318
3792.112	3359
3793.75	3363
3795.388	3390
3797.024	3441
3798.661	3322
3800.3	3363
3801.936	3304
3803.572	3318
3805.208	3300
3806.844	3366
3808.48	3298
3810.115	3364
3811.748	3278
3813.382	3381
3815.016	3283
3816.649	3367
3818.283	3315
3819.914	3363
3821.547	3303
3823.178	3380
3824.809	3341
3826.441	3336
3828.072	3261
3829.701	3284
3831.331	3248
3832.96	3287
3834.591	3267
3836.219	3267
3837.847	3359
3839.475	3261
3841.102	3314
3842.729	3320
3844.357	3242
3845.984	3239
3847.609	3206
3849.234	3262
3850.86	3213
3852.485	3247
3854.11	3237
3855.734	3252
3857.357	3306
3858.981	3287
3860.603	3219
3862.227	3289
3863.848	3214
3865.471	3229
3867.092	3196
3868.713	3204
3870.334	3267
3871.954	3244
3873.575	3259
3875.194	3184
3876.813	3257
3878.433	3099
3880.051	3184
3881.669	3295
3883.286	3214
3884.904	3162
3886.52	3281
3888.138	3161
3889.754	3202
3891.37	3126
3892.985	3167
3894.6	3199
3896.216	3127
3897.831	3152
3899.444	3155
3901.058	3184
3902.67	3136
3904.283	3161
3905.897	3189
3907.509	3133
3909.121	3226
3910.731	3153
3912.342	3260
3913.954	3173
3915.563	3132
3917.174	3172
3918.783	3154
3920.391	3262
3922.002	3097
3923.611	3176
3925.218	3141
3926.826	3097
3928.432	3222
3930.039	3174
3931.647	3119
3933.253	3169
3934.859	3138
3936.464	3132
3938.068	3143
3939.675	3109
3941.278	3093
3942.883	3219
3944.486	3093
3946.089	3146
3947.692	3117
3949.295	3141
3950.898	3073
3952.499	3182
3954.1	3111
3955.7	3138
3957.303	3113
3958.903	3050
3960.502	3130
3962.101	3106
3963.7	3128
3965.301	3105
3966.899	3007
3968.497	3040
3970.094	3085
3971.691	2998
3973.288	3030
3974.885	3096
3976.481	2994
3978.077	3029
3979.672	2993
3981.267	3029
3982.863	3076
3984.457	3002
3986.051	2941
3987.645	2960
3989.238	3014
3990.831	3007
3992.425	3022
3994.017	3019
3995.607	2947
3997.199	3014
3998.79	3001
4000.382	2972
4001.973	2990
4003.561	2976
4005.151	2996
4006.741	2958
4008.331	2943
4009.918	3031
4011.507	2960
4013.095	2914
4014.681	2967
4016.269	3014
4017.856	2896
4019.443	2935
4021.028	2935
4022.614	2938
4024.199	2908
4025.785	2912
4027.37	2832
4028.953	2976
4030.536	2964
4032.12	2863
4033.704	2909
4035.287	2934
4036.869	2921
4038.45	2914
4040.032	2905
4041.613	2884
4043.195	2877
4044.776	2898
4046.356	2830
4047.935	2865
4049.515	2940
4051.095	2868
4052.674	2838
4054.251	2876
4055.829	2878
4057.406	2895
4058.985	2846
4060.562	2960
4062.139	2828
4063.715	2862
4065.29	2886
4066.865	2886
4068.442	2795
4070.016	2829
4071.59	2876
4073.164	2821
4074.738	2818
4076.312	2757
4077.885	2848
4079.458	2846
4081.03	2830
4082.602	2882
4084.173	2818
4085.745	2864
4087.315	2811
4088.886	2792
4090.456	2658
4092.026	2832
4093.596	2837
4095.165	2771
4096.734	2834
4098.301	2781
4099.869	2773
4101.437	2758
4103.006	2757
4104.572	2778
4106.139	2845
4107.704	2822
4109.27	2810
4110.837	2753
4112.401	2768
4113.966	2818
4115.53	2799
4117.094	2759
4118.659	2793
4120.223	2761
4121.785	2749
4123.347	2738
4124.909	2759
4126.471	2707
4128.034	2762
4129.595	2853
4131.155	2778
4132.716	2684
4134.275	2662
4135.836	2729
4137.395	2687
4138.955	2747
4140.513	2691
4142.071	2680
4143.628	2702
4145.188	2770
4146.745	2591
4148.302	2646
4149.858	2651
4151.414	2667
4152.971	2659
4154.526	2709
4156.081	2632
4157.635	2630
4159.189	2765
4160.745	2546
4162.298	2655
4163.852	2615
4165.405	2680
4166.957	2682
4168.51	2699
4170.063	2732
4171.614	2689
4173.166	2589
4174.717	2651
4176.267	2616
4177.817	2642
4179.368	2632
4180.917	2665
4182.466	2623
4184.016	2671
4185.564	2610
4187.112	2638
4188.66	2572
4190.207	2642
4191.754	2591
4193.301	2589
4194.848	2638
4196.394	2596
4197.94	2584
4199.484	2578
4201.03	2582
4202.575	2582
4204.12	2560
4205.663	2637
4207.207	2519
4208.75	2583
4210.292	2572
4211.836	2548
4213.378	2532
4214.92	2584
4216.46	2555
4218.002	2529
4219.544	2578
4221.083	2517
4222.625	2569
4224.164	2528
4225.703	2563
4227.244	2571
4228.782	2547
4230.32	2580
4231.857	2528
4233.395	2523
4234.933	2529
4236.471	2576
4238.007	2503
4239.542	2535
4241.078	2529
4242.614	2521
4244.15	2497
4245.685	2517
4247.219	2506
4248.753	2519
4250.287	2460
4251.82	2534
4253.354	2508
4254.887	2514
4256.419	2483
4257.951	2508
4259.483	2519
4261.016	2498
4262.547	2474
4264.078	2487
4265.608	2480
4267.137	2524
4268.668	2535
4270.197	2432
4271.727	2494
4273.254	2492
4274.783	2450
4276.311	2461
4277.84	2423
4279.366	2469
4280.894	2535
4282.42	2416
4283.946	2522
4285.473	2467
4286.998	2474
4288.523	2530
4290.047	2390
4291.572	2397
4293.096	2453
4294.622	2450
4296.144	2484
4297.668	2434
4299.19	2424
4300.713	2470
4302.236	2381
4303.758	2430
4305.279	2385
4306.799	2446
4308.321	2448
4309.842	2378
4311.361	2407
4312.882	2378
4314.401	2398
