400.0961	4797
402.6185	4745
405.1424	4807
407.6635	4838
410.1838	4845
412.7035	4747
415.2225	4935
417.7388	4886
420.2585	4987
422.7754	4931
425.2917	4958
427.8072	5057
430.3221	5064
432.8363	5109
435.3498	5147
437.8626	5065
440.3727	5090
442.8841	4980
445.3969	5109
447.907	5147
450.4142	5094
452.9229	5006
455.4289	5047
457.9362	5038
460.4449	4987
462.9488	5124
465.454	5057
467.9566	4995
470.4604	5056
472.9637	5077
475.4662	5070
477.966	5231
480.4671	5057
482.9656	5101
485.4633	5156
487.9645	5201
490.4608	5126
492.9566	5214
495.4536	5343
497.948	5207
500.4437	5219
502.9387	5071
505.431	5220
507.9226	5256
510.4136	5209
512.9079	5130
515.3975	5315
517.8864	5274
520.3746	5333
522.8622	5275
525.3491	5250
527.8394	5352
530.3249	5285
532.8098	5332
535.2939	5273
537.7774	5297
540.2623	5363
542.7444	5434
545.2259	5371
547.7067	5396
550.1868	5327
552.6683	5289
555.147	5320
557.6231	5339
560.1005	5363
562.5773	5375
565.0534	5498
567.5308	5361
570.0056	5475
572.4776	5428
574.951	5513
577.4237	5456
579.8978	5595
582.3671	5454
584.8378	5544
587.3079	5556
589.7773	5545
592.244	5608
594.714	5492
597.1793	5672
599.6461	5439
602.1121	5483
604.5754	5508
607.0421	5403
609.5042	5477
611.9675	5613
614.4282	5574
616.8902	5630
619.3515	5597
621.8122	5515
624.2702	5501
626.7296	5497
629.1863	5545
631.6423	5436
634.1017	5423
636.5563	5486
639.0104	5557
641.4658	5542
643.9185	5503
646.3725	5471
648.8239	5566
651.2766	5623
653.7266	5598
656.176	5495
658.6247	5545
661.0748	5538
663.5242	5585
665.9709	5752
668.417	5730
670.8624	5644
673.3092	5574
675.7533	5659
678.1968	5631
680.6395	5700
683.0817	5697
685.5251	5743
687.9659	5700
690.4061	5775
692.8456	5789
695.2844	5645
697.7226	5732
700.1621	5729
702.599	5753
705.0332	5814
707.4688	5801
709.9036	5806
712.3399	5823
714.7735	5796
717.2044	5796
719.6367	5835
722.0683	5842
724.4993	5931
726.9296	5901
729.3593	5947
731.7883	5920
734.2147	5884
736.6423	5816
739.0714	5991
741.4958	6037
743.9216	5949
746.3447	5962
748.7691	5990
751.1929	5967
753.616	6056
756.0366	6105
758.4584	6086
760.8776	6008
763.2982	6193
765.718	6110
768.1373	6140
770.5539	6060
772.9698	6201
775.3871	6100
777.8038	6141
780.2178	6035
782.6332	6206
785.0459	6139
787.458	6176
789.8714	6084
792.2842	6006
794.6943	6211
797.1038	6180
799.5127	6121
801.9209	6118
804.3324	6117
806.7393	6167
809.1456	6278
811.5513	6109
813.9562	6188
816.3625	6289
818.7663	6280
821.1693	6285
823.5718	6253
825.9735	6256
828.3746	6299
830.7771	6284
833.177	6311
835.5762	6320
837.9747	6194
840.3727	6342
842.772	6302
845.1666	6372
847.5626	6365
849.958	6469
852.3527	6416
854.7488	6297
857.1403	6529
859.5331	6510
861.9253	6421
864.3168	6420
866.7057	6335
869.098	6328
871.4876	6385
873.8746	6391
876.263	6442
878.6487	6385
881.0378	6476
883.4243	6306
885.8081	6439
888.1933	6303
890.5759	6270
892.9598	6365
895.343	6324
897.7256	6307
900.1057	6325
902.4871	6526
904.8659	6349
907.246	6507
909.6254	6427
912.0023	6502
914.3786	6593
916.7562	6671
919.1331	6714
921.5074	6742
923.8831	6963
926.2562	6905
928.6287	6812
931.0005	6739
933.3757	6816
935.7462	6735
938.1162	6844
940.4855	6816
942.8542	6822
945.2242	6827
947.5916	6972
949.9584	7196
952.3266	7232
954.6921	7427
957.0571	7703
959.4233	7807
961.787	7981
964.15	7963
966.5125	7824
968.8742	7512
971.2354	7298
973.5959	7075
975.9559	6954
978.3151	6780
980.6738	6790
983.0338	6680
985.3912	6749
987.7461	6625
990.1022	6700
992.4578	6680
994.8127	6624
997.1689	6642
999.5207	6681
1001.874	6775
1004.226	6742
1006.576	6692
1008.929	6606
1011.28	6669
1013.628	6619
1015.977	6575
1018.324	6593
1020.674	6647
1023.019	6622
1025.366	6698
1027.713	6637
1030.056	6717
1032.399	6722
1034.746	6728
1037.087	6696
1039.431	6786
1041.771	6653
1044.113	6702
1046.454	6745
1048.793	6674
1051.133	6744
1053.471	6784
1055.807	6762
1058.146	6703
1060.483	6725
1062.818	6738
1065.153	6867
1067.489	6822
1069.822	6946
1072.156	6813
1074.488	6941
1076.82	6893
1079.15	6863
1081.48	6867
1083.814	6645
1086.143	6828
1088.471	6781
1090.799	6737
1093.126	6769
1095.452	6912
1097.78	6926
1100.105	6819
1102.43	6770
1104.754	6757
1107.077	6897
1109.4	6742
1111.722	6859
1114.044	6776
1116.365	6785
1118.685	6819
1121.005	6753
1123.324	6805
1125.643	6745
1127.961	6847
1130.278	6922
1132.595	6868
1134.911	6850
1137.226	6714
1139.541	6697
1141.854	6808
1144.167	6839
1146.482	6843
1148.793	6791
1151.105	6823
1153.414	6849
1155.725	6891
1158.033	6937
1160.344	6784
1162.651	6912
1164.959	6840
1167.265	6865
1169.572	6854
1171.878	6801
1174.184	6924
1176.488	6881
1178.79	6924
1181.094	6938
1183.396	6954
1185.699	6903
1188.001	6975
1190.301	6761
1192.6	6864
1194.9	6812
1197.2	6838
1199.497	6796
1201.794	7089
1204.09	6799
1206.387	6803
1208.684	6833
1210.978	6828
1213.272	6909
1215.565	6914
1217.858	6806
1220.15	6843
1222.443	6902
1224.734	6879
1227.024	7017
1229.313	6846
1231.602	6961
1233.892	6983
1236.18	7038
1238.467	7144
1240.754	7072
1243.04	7208
1245.325	7170
1247.612	7160
1249.896	7133
1252.178	7166
1254.461	7205
1256.743	7124
1259.027	7125
1261.308	7193
1263.587	7135
1265.867	7229
1268.146	7200
1270.425	7324
1272.703	7230
1274.981	7184
1277.256	7139
1279.532	7299
1281.808	7076
1284.083	7114
1286.358	7080
1288.63	7021
1290.904	7093
1293.175	7072
1295.449	7213
1297.719	7089
1299.99	7166
1302.259	7068
1304.529	7020
1306.798	7195
1309.065	7016
1311.333	7045
1313.599	7131
1315.866	7061
1318.131	7097
1320.396	6971
1322.66	7024
1324.925	7125
1327.187	7051
1329.448	7170
1331.711	7168
1333.974	7162
1336.234	7172
1338.493	7152
1340.752	7159
1343.01	6984
1345.269	7061
1347.526	7026
1349.784	6973
1352.04	7063
1354.295	7016
1356.552	7028
1358.806	6940
1361.059	7101
1363.312	7011
1365.564	6948
1367.818	7105
1370.069	7094
1372.318	6996
1374.568	7152
1376.817	7183
1379.066	7029
1381.316	7215
1383.564	7136
1385.809	7077
1388.056	7202
1390.301	7279
1392.549	7250
1394.793	7351
1397.036	7514
1399.279	7362
1401.522	7428
1403.763	7446
1406.007	7487
1408.248	7375
1410.487	7470
1412.727	7448
1414.965	7431
1417.205	7416
1419.442	7340
1421.68	7341
1423.915	7353
1426.152	7405
1428.388	7331
1430.623	7394
1432.857	7378
1435.091	7366
1437.323	7378
1439.556	7481
1441.789	7375
1444.019	7483
1446.25	7467
1448.48	7432
1450.708	7582
1452.938	7540
1455.167	7494
1457.394	7614
1459.62	7425
1461.846	7513
1464.073	7351
1466.299	7417
1468.523	7433
1470.746	7288
1472.969	7264
1475.191	7278
1477.415	7167
1479.636	7299
1481.858	7296
1484.078	7204
1486.298	7106
1488.518	7072
1490.736	7127
1492.954	7011
1495.169	6969
1497.386	7189
1499.602	7063
1501.819	7062
1504.034	7060
1506.248	6986
1508.462	7038
1510.675	7045
1512.888	7116
1515.1	7058
1517.311	7093
1519.522	7070
1521.732	7023
1523.942	7006
1526.151	7052
1528.36	7156
1530.566	6982
1532.773	7062
1534.98	7077
1537.187	7125
1539.392	7056
1541.596	7120
1543.801	7071
1546.005	7116
1548.208	7014
1550.411	7176
1552.612	7112
1554.814	7253
1557.013	7149
1559.212	7211
1561.414	7281
1563.612	7345
1565.811	7022
1568.007	7159
1570.203	7295
1572.403	7286
1574.598	7256
1576.792	7373
1578.988	7321
1581.181	7390
1583.376	7209
1585.568	7174
1587.761	7309
1589.952	7270
1592.143	7332
1594.333	7214
1596.524	7331
1598.715	7272
1600.903	7280
1603.091	7306
1605.278	7334
1607.466	7217
1609.652	7323
1611.838	7304
1614.023	7538
1616.207	7284
1618.391	7284
1620.576	7397
1622.759	7337
1624.941	7409
1627.123	7156
1629.304	7528
1631.484	7418
1633.664	7423
1635.844	7352
1638.022	7417
1640.201	7375
1642.38	7449
1644.556	7377
1646.732	7463
1648.908	7373
1651.084	7352
1653.257	7560
1655.433	7474
1657.607	7446
1659.779	7447
1661.951	7489
1664.122	7467
1666.295	7424
1668.467	7473
1670.635	7542
1672.805	7591
1674.973	7543
1677.142	7546
1679.31	7465
1681.478	7466
1683.644	7484
1685.81	7464
1687.975	7524
1690.142	7464
1692.305	7416
1694.468	7479
1696.632	7380
1698.794	7372
1700.957	7224
1703.119	7406
1705.279	7332
1707.439	7298
1709.598	7334
1711.758	7349
1713.917	7143
1716.075	7282
1718.231	7326
1720.388	7260
1722.543	7294
1724.702	7344
1726.856	7153
1729.01	7357
1731.164	7358
1733.317	7229
1735.471	7330
1737.623	7230
1739.774	7269
1741.925	7405
1744.075	7277
1746.225	7439
1748.376	7287
1750.524	7375
1752.672	7161
1754.82	7448
1756.965	7214
1759.113	7217
1761.259	7206
1763.405	7473
1765.549	7349
1767.694	7389
1769.836	7357
1771.981	7371
1774.123	7323
1776.264	7236
1778.405	7436
1780.546	7297
1782.687	7385
1784.827	7406
1786.966	7341
1789.103	7409
1791.242	7340
1793.381	7391
1795.517	7340
1797.653	7480
1799.788	7338
1801.923	7398
1804.057	7327
1806.193	7341
1808.326	7403
1810.457	7362
1812.59	7321
1814.721	7389
1816.855	7352
1818.984	7282
1821.113	7329
1823.244	7277
1825.372	7342
1827.499	7428
1829.63	7329
1831.756	7278
1833.882	7369
1836.007	7311
1838.132	7318
1840.26	7449
1842.384	7341
1844.507	7289
1846.63	7382
1848.752	7297
1850.875	7370
1852.996	7364
1855.118	7252
1857.238	7235
1859.358	7376
1861.477	7193
1863.597	7396
1865.715	7207
1867.832	7199
1869.948	7344
1872.064	7362
1874.181	7256
1876.297	7270
1878.411	7201
1880.526	7270
1882.639	7242
1884.752	7192
1886.865	7311
1888.977	7153
1891.089	7296
1893.2	7272
1895.308	7262
1897.42	7367
1899.53	7304
1901.639	7339
1903.745	7396
1905.853	7309
1907.962	7398
1910.067	7404
1912.174	7365
1914.278	7449
1916.383	7377
1918.486	7458
1920.592	7406
1922.694	7511
1924.797	7498
1926.898	7410
1929	7396
1931.102	7404
1933.203	7419
1935.301	7457
1937.401	7405
1939.499	7495
1941.598	7418
1943.697	7308
1945.793	7383
1947.888	7442
1949.985	7472
1952.08	7332
1954.176	7282
1956.269	7301
1958.364	7375
1960.457	7345
1962.549	7341
1964.642	7271
1966.733	7405
1968.823	7419
1970.913	7524
1973.005	7412
1975.093	7524
1977.184	7303
1979.271	7351
1981.359	7367
1983.446	7371
1985.532	7305
1987.619	7341
1989.705	7330
1991.789	7320
1993.874	7476
1995.956	7241
1998.041	7375
2000.123	7132
2002.206	7281
2004.287	7311
2006.368	7260
2008.449	7327
2010.529	7376
2012.609	7154
2014.688	7307
2016.766	7422
2018.843	7239
2020.922	7385
2022.999	7252
2025.074	7270
2027.15	7313
2029.225	7186
2031.299	7342
2033.375	7412
2035.447	7321
2037.52	7237
2039.592	7338
2041.664	7292
2043.736	7365
2045.807	7261
2047.876	7227
2049.947	7337
2052.015	7282
2054.086	7343
2056.153	7345
2058.221	7247
2060.288	7348
2062.353	7299
2064.42	7277
2066.486	7337
2068.55	7324
2070.614	7286
2072.678	7264
2074.741	7372
2076.805	7387
2078.866	7321
2080.929	7297
2082.99	7371
2085.049	7308
2087.109	7253
2089.17	7310
2091.228	7335
2093.286	7280
2095.344	7251
2097.4	7368
2099.46	7346
2101.516	7340
2103.572	7291
2105.626	7300
2107.679	7350
2109.735	7303
2111.788	7257
2113.841	7195
2115.894	7286
2117.945	7333
2119.997	7390
2122.049	7317
2124.1	7371
2126.148	7213
2128.197	7332
2130.246	7389
2132.296	7219
2134.342	7473
2136.39	7437
2138.437	7224
2140.483	7392
2142.527	7215
2144.574	7261
2146.619	7285
2148.661	7201
2150.705	7279
2152.747	7262
2154.792	7292
2156.832	7289
2158.874	7228
2160.915	7284
2162.954	7230
2164.995	7217
2167.034	7217
2169.072	7197
2171.111	7229
2173.148	7202
2175.186	7317
2177.223	7210
2179.258	7205
2181.294	7348
2183.328	7188
2185.362	7201
2187.398	7162
2189.431	7081
2191.463	7217
2193.495	7061
2195.528	7157
2197.56	7106
2199.59	7063
2201.62	7152
2203.649	6981
2205.678	7144
2207.708	7097
2209.737	7107
2211.764	7172
2213.791	7098
2215.817	7125
2217.843	7117
2219.87	7131
2221.895	7155
2223.919	7069
2225.942	7023
2227.966	7107
2229.988	7115
2232.012	7093
2234.032	7022
2236.054	7089
2238.074	7145
2240.095	7179
2242.116	7024
2244.135	6976
2246.153	7031
2248.171	7102
2250.188	7031
2252.208	7045
2254.223	7021
2256.239	7125
2258.255	7112
2260.269	7073
2262.283	7107
2264.3	7094
2266.312	7116
2268.325	7067
2270.336	7065
2272.349	7002
2274.362	6960
2276.372	7106
2278.383	7089
2280.392	7139
2282.402	7033
2284.409	7086
2286.418	7094
2288.427	7092
2290.433	7108
2292.441	6980
2294.446	6994
2296.453	7028
2298.459	7056
2300.463	7093
2302.466	7194
2304.471	6978
2306.475	7161
2308.477	7037
2310.478	7036
2312.481	7039
2314.481	6927
2316.481	7010
2318.482	7201
2320.482	6986
2322.48	7010
2324.48	6932
2326.478	7002
2328.476	7028
2330.473	6986
2332.469	7014
2334.465	6941
2336.46	7011
2338.454	6934
2340.45	6814
2342.444	7068
2344.437	7014
2346.43	7050
2348.421	6911
2350.414	7023
2352.405	6939
2354.396	6919
2356.386	7001
2358.376	7052
2360.366	6977
2362.355	6811
2364.343	7018
2366.331	6891
2368.317	6894
2370.304	6911
2372.292	6954
2374.278	6833
2376.262	6868
2378.247	6937
2380.23	6941
2382.216	6933
2384.199	6881
2386.181	6901
2388.163	6850
2390.144	6850
2392.127	6920
2394.107	6936
2396.087	6932
2398.066	6850
2400.046	6852
2402.023	6833
2404.004	6820
2405.981	6837
2407.957	6870
2409.934	6856
2411.91	6843
2413.886	6852
2415.862	6853
2417.836	6790
2419.809	6901
2421.784	6826
2423.756	6763
2425.73	6761
2427.701	6812
2429.672	6787
2431.644	6842
2433.615	6938
2435.586	6709
2437.555	6718
2439.523	6824
2441.491	6825
2443.459	6900
2445.428	6809
2447.395	6833
2449.361	6851
2451.327	6921
2453.292	6768
2455.257	6837
2457.223	6820
2459.187	6790
2461.15	6844
2463.113	6742
2465.076	6822
2467.039	6742
2468.999	6728
2470.96	6662
2472.921	6701
2474.881	6678
2476.841	6705
2478.8	6741
2480.759	6765
2482.717	6622
2484.675	6864
2486.63	6769
2488.589	6648
2490.545	6737
2492.5	6652
2494.455	6696
2496.408	6705
2498.364	6731
2500.318	6758
2502.27	6687
2504.223	6599
2506.174	6621
2508.126	6678
2510.078	6686
2512.03	6701
2513.979	6584
2515.927	6761
2517.877	6740
2519.826	6717
2521.775	6805
2523.722	6695
2525.668	6665
2527.616	6700
2529.561	6722
2531.508	6646
2533.452	6638
2535.398	6668
2537.342	6639
2539.284	6668
2541.229	6630
2543.173	6672
2545.114	6694
2547.055	6715
2548.996	6730
2550.938	6745
2552.878	6603
2554.817	6659
2556.756	6749
2558.695	6589
2560.633	6591
2562.572	6659
2564.509	6670
2566.445	6570
2568.382	6524
2570.317	6662
2572.254	6593
2574.189	6755
2576.123	6495
2578.057	6631
2579.99	6564
2581.923	6672
2583.855	6617
2585.788	6674
2587.719	6647
2589.65	6587
2591.579	6661
2593.511	6602
2595.44	6552
2597.37	6649
2599.297	6716
2601.225	6702
2603.153	6685
2605.08	6531
2607.007	6684
2608.932	6585
2610.858	6611
2612.782	6702
2614.709	6684
2616.632	6616
2618.556	6708
2620.478	6665
2622.401	6682
2624.324	6625
2626.247	6579
2628.167	6705
2630.088	6618
2632.008	6767
2633.928	6687
2635.848	6492
2637.766	6727
2639.684	6629
2641.603	6629
2643.519	6589
2645.437	6574
2647.353	6528
2649.27	6509
2651.184	6656
2653.099	6621
2655.014	6493
2656.928	6592
2658.842	6576
2660.755	6768
2662.667	6594
2664.579	6545
2666.491	6624
2668.402	6671
2670.312	6528
2672.222	6706
2674.132	6687
2676.042	6617
2677.951	6615
2679.859	6491
2681.766	6514
2683.674	6438
2685.582	6599
2687.488	6669
2689.392	6519
2691.298	6526
2693.202	6407
2695.107	6475
2697.012	6551
2698.914	6507
2700.817	6417
2702.72	6528
2704.622	6448
2706.524	6450
2708.425	6576
2710.326	6503
2712.225	6466
2714.125	6521
2716.024	6515
2717.923	6554
2719.822	6517
2721.719	6444
2723.616	6463
2725.512	6417
2727.41	6486
2729.305	6500
2731.201	6490
2733.095	6457
2734.99	6527
2736.884	6477
2738.778	6525
2740.67	6410
2742.562	6452
2744.455	6481
2746.346	6508
2748.238	6415
2750.129	6450
2752.018	6407
2753.907	6536
2755.797	6404
2757.687	6422
2759.575	6534
2761.462	6524
2763.349	6410
2765.237	6360
2767.124	6449
2769.009	6360
2770.894	6425
2772.779	6386
2774.663	6347
2776.547	6459
2778.431	6474
2780.314	6351
2782.197	6505
2784.078	6403
2785.96	6387
2787.842	6425
2789.723	6538
2791.603	6537
2793.483	6433
2795.362	6357
2797.241	6441
2799.121	6458
2800.997	6406
2802.874	6421
2804.751	6428
2806.628	6278
2808.506	6289
2810.38	6323
2812.255	6331
2814.13	6403
2816.003	6417
2817.878	6302
2819.752	6425
2821.623	6447
2823.496	6306
2825.368	6331
2827.238	6291
2829.111	6423
2830.98	6376
2832.851	6419
2834.719	6480
2836.589	6389
2838.458	6356
2840.327	6388
2842.193	6488
2844.061	6484
2845.927	6531
2847.794	6491
2849.66	6436
2851.525	6588
2853.39	6517
2855.254	6556
2857.117	6482
2858.983	6481
2860.845	6644
2862.707	6576
2864.569	6624
2866.431	6651
2868.293	6618
2870.154	6678
2872.013	6790
2873.873	6700
2875.733	6829
2877.592	6911
2879.451	6988
2881.309	6930
2883.166	7083
2885.022	7180
2886.879	7091
2888.736	7040
2890.591	7214
2892.446	7203
2894.301	7134
2896.155	7291
2898.009	7166
2899.863	7166
2901.716	7122
2903.568	7154
2905.419	7157
2907.27	7095
2909.123	7163
2910.973	7058
2912.824	7237
2914.673	7184
2916.521	7296
2918.372	7323
2920.22	7376
2922.067	7328
2923.914	7375
2925.761	7466
2927.607	7538
2929.455	7592
2931.301	7594
2933.144	7611
2934.99	7697
2936.833	7744
2938.678	7818
2940.522	7843
2942.364	8026
2944.207	7970
2946.048	8139
2947.891	8273
2949.731	8227
2951.571	8276
2953.412	8201
2955.25	8102
2957.09	8086
2958.93	8072
2960.767	7976
2962.606	7840
2964.443	7878
2966.279	7649
2968.116	7531
2969.953	7477
2971.788	7424
2973.623	7331
2975.457	7271
2977.292	7163
2979.127	7101
2980.959	7166
2982.792	7053
2984.624	6966
2986.455	7079
2988.288	6978
2990.119	6957
2991.949	6913
2993.779	6856
2995.608	6850
2997.439	6687
2999.268	6822
3001.096	6641
3002.923	6551
3004.751	6544
3006.578	6518
3008.406	6584
3010.232	6489
3012.057	6433
3013.883	6340
3015.706	6412
3017.532	6292
3019.356	6269
3021.179	6248
3023.002	6264
3024.823	6175
3026.646	6218
3028.469	6157
3030.289	6154
3032.11	6024
3033.93	6171
3035.749	6116
3037.57	6007
3039.39	6108
3041.207	6005
3043.026	6067
3044.842	6071
3046.661	6134
3048.477	6012
3050.294	5953
3052.109	6017
3053.925	6051
3055.739	5983
3057.555	6011
3059.368	5992
3061.181	5996
3062.995	6151
3064.807	6072
3066.62	5976
3068.433	5938
3070.243	6047
3072.054	6038
3073.865	6123
3075.675	6058
3077.485	5921
3079.293	5927
3081.102	5890
3082.911	5867
3084.719	5893
3086.527	5911
3088.333	5886
3090.139	5861
3091.945	5911
3093.75	5864
3095.557	5820
3097.361	5913
3099.165	5905
3100.969	5826
3102.772	5849
3104.575	5840
3106.379	5795
3108.181	5794
3109.982	5831
3111.783	5739
3113.584	5811
3115.386	5909
3117.186	5809
3118.985	5683
3120.783	5682
3122.582	5657
3124.381	5701
3126.179	5720
3127.975	5722
3129.772	5771
3131.569	5834
3133.365	5647
3135.161	5738
3136.956	5648
3138.751	5679
3140.544	5709
3142.338	5667
3144.132	5691
3145.925	5659
3147.717	5707
3149.509	5724
3151.301	5692
3153.091	5614
3154.884	5546
3156.673	5570
3158.462	5669
3160.252	5759
3162.041	5694
3163.831	5661
3165.618	5634
3167.405	5681
3169.193	5625
3170.979	5681
3172.767	5532
3174.553	5604
3176.338	5589
3178.123	5596
3179.907	5558
3181.692	5637
3183.477	5721
3185.259	5570
3187.042	5539
3188.824	5578
3190.607	5654
3192.389	5587
3194.17	5483
3195.951	5510
3197.73	5542
3199.51	5567
3201.289	5514
3203.07	5586
3204.848	5579
3206.626	5574
3208.403	5570
3210.18	5523
3211.959	5536
3213.735	5639
3215.511	5621
3217.285	5506
3219.06	5692
3220.836	5571
3222.611	5690
3224.384	5577
3226.158	5578
3227.929	5519
3229.702	5563
3231.476	5553
3233.248	5569
3235.018	5558
3236.789	5581
3238.56	5439
3240.33	5485
3242.1	5516
3243.869	5536
3245.637	5588
3247.405	5620
3249.172	5703
3250.941	5574
3252.707	5677
3254.474	5597
3256.24	5623
3258.006	5686
3259.772	5518
3261.537	5634
3263.301	5578
3265.065	5606
3266.828	5614
3268.592	5562
3270.355	5578
3272.117	5570
3273.878	5541
3275.64	5505
3277.401	5493
3279.162	5559
3280.922	5609
3282.682	5537
3284.441	5631
3286.199	5445
3287.959	5563
3289.716	5600
3291.475	5553
3293.232	5614
3294.988	5577
3296.744	5514
3298.501	5526
3300.256	5553
3302.011	5499
3303.766	5460
3305.52	5574
3307.275	5562
3309.028	5487
3310.781	5563
3312.533	5584
3314.285	5496
3316.038	5518
3317.789	5573
3319.54	5513
3321.289	5536
3323.039	5450
3324.789	5495
3326.539	5489
3328.288	5485
3330.035	5515
3331.783	5516
3333.531	5471
3335.28	5474
3337.025	5376
3338.771	5427
3340.518	5462
3342.262	5502
3344.009	5456
3345.753	5450
3347.497	5363
3349.24	5528
3350.983	5388
3352.726	5485
3354.469	5420
3356.212	5327
3357.952	5415
3359.694	5448
3361.434	5477
3363.176	5296
3364.916	5346
3366.654	5379
3368.394	5354
3370.132	5443
3371.871	5288
3373.61	5416
3375.346	5383
3377.083	5337
3378.82	5354
3380.556	5366
3382.292	5369
3384.027	5263
3385.763	5307
3387.497	5287
3389.231	5424
3390.965	5237
3392.698	5343
3394.431	5309
3396.164	5243
3397.896	5246
3399.627	5286
3401.36	5339
3403.09	5308
3404.82	5287
3406.55	5223
3408.279	5164
3410.01	5268
3411.738	5277
3413.467	5184
3415.194	5283
3416.92	5138
3418.647	5232
3420.375	5116
3422.102	5240
3423.827	5212
3425.553	5316
3427.277	5140
3429.003	5263
3430.727	5073
3432.451	5242
3434.173	5322
3435.896	5149
3437.62	5075
3439.343	5150
3441.063	5101
3442.785	5105
3444.505	5143
3446.226	5122
3447.948	5171
3449.666	5086
3451.386	5074
3453.104	5041
3454.823	5150
3456.541	5080
3458.259	5040
3459.976	5110
3461.693	5028
3463.408	5041
3465.125	5003
3466.841	5041
3468.556	5030
3470.271	5073
3471.985	4952
3473.698	5016
3475.414	4950
3477.126	4945
3478.838	4875
3480.55	5032
3482.263	4956
3483.975	4948
3485.686	4945
3487.396	4995
3489.106	4942
3490.817	4937
3492.526	4847
3494.236	4873
3495.944	4944
3497.652	4872
3499.359	4938
3501.066	4825
3502.775	4917
3504.481	4782
3506.187	4896
3507.893	4878
3509.598	4820
3511.304	4869
3513.009	4852
3514.713	4814
3516.417	4810
3518.12	4897
3519.821	4822
3521.525	4867
3523.228	4843
3524.929	4852
3526.631	4789
3528.33	4805
3530.032	4780
3531.733	4851
3533.433	4782
3535.131	4761
3536.83	4686
3538.529	4780
3540.227	4776
3541.925	4656
3543.623	4738
3545.319	4775
3547.016	4706
3548.712	4715
3550.408	4671
3552.103	4787
3553.798	4707
3555.491	4768
3557.188	4761
3558.88	4784
3560.574	4713
3562.266	4756
3563.959	4738
3565.651	4631
3567.343	4663
3569.035	4644
3570.725	4691
3572.415	4664
3574.106	4580
3575.797	4645
3577.485	4663
3579.174	4608
3580.863	4642
3582.551	4533
3584.238	4649
3585.926	4580
3587.613	4610
3589.3	4530
3590.986	4495
3592.671	4585
3594.357	4488
3596.042	4492
3597.726	4532
3599.41	4489
3601.094	4629
3602.778	4502
3604.461	4442
3606.143	4509
3607.825	4545
3609.507	4556
3611.188	4542
3612.87	4402
3614.551	4530
3616.229	4417
3617.909	4403
3619.589	4423
3621.269	4419
3622.948	4404
3624.625	4348
3626.302	4383
3627.98	4425
3629.657	4362
3631.334	4380
3633.01	4347
3634.686	4486
3636.361	4281
3638.036	4366
3639.712	4375
3641.385	4370
3643.06	4269
3644.732	4386
3646.405	4316
3648.08	4330
3649.751	4299
3651.424	4242
3653.094	4300
3654.766	4267
3656.436	4331
3658.106	4253
3659.777	4297
3661.446	4250
3663.115	4306
3664.783	4275
3666.452	4321
3668.121	4226
3669.788	4242
3671.454	4191
3673.121	4294
3674.789	4267
3676.455	4154
3678.12	4264
3679.784	4328
3681.45	4221
3683.114	4274
3684.779	4184
3686.442	4238
3688.105	4261
3689.768	4177
3691.43	4175
3693.093	4213
3694.754	4159
3696.415	4166
3698.076	4206
3699.736	4103
3701.396	4267
3703.057	4257
3704.716	4217
3706.375	4274
3708.034	4220
3709.692	4150
3711.351	4282
3713.008	4275
3714.665	4159
3716.321	4159
3717.977	4113
3719.634	4203
3721.29	4120
3722.945	4135
3724.598	4229
3726.253	4160
3727.907	4102
3729.561	4085
3731.214	4183
3732.867	4200
3734.518	4127
3736.171	4109
3737.824	4184
3739.474	4102
3741.125	4121
3742.775	4120
3744.425	4056
3746.074	4135
3747.725	4105
3749.373	4038
3751.022	4088
3752.669	4127
3754.318	4037
3755.966	3987
3757.612	3982
3759.259	4048
3760.905	4114
3762.55	4090
3764.197	4083
3765.842	3990
3767.486	4046
3769.131	4040
3770.774	4026
3772.417	4030
3774.061	3922
3775.705	4012
3777.347	4042
3778.988	3999
3780.629	3982
3782.271	4043
3783.912	3973
3785.552	3965
3787.192	3983
3788.831	4089
3790.472	4002
3792.112	3961
3793.75	3990
3795.388	3975
3797.024	4007
3798.661	3997
3800.3	3938
3801.936	3970
3803.572	3960
3805.208	4015
3806.844	3846
3808.48	3946
3810.115	3926
3811.748	3846
3813.382	3926
3815.016	3954
3816.649	3850
3818.283	3814
3819.914	3883
3821.547	3920
3823.178	3960
3824.809	3835
3826.441	3854
3828.072	3813
3829.701	3911
3831.331	3887
3832.96	3807
3834.591	3833
3836.219	3857
3837.847	3806
3839.475	3833
3841.102	3805
3842.729	3885
3844.357	3802
3845.984	3872
3847.609	3880
3849.234	3871
3850.86	3872
3852.485	3859
3854.11	3799
3855.734	3862
3857.357	3753
3858.981	3822
3860.603	3827
3862.227	3846
3863.848	3766
3865.471	3747
3867.092	3788
3868.713	3879
3870.334	3781
3871.954	3750
3873.575	3793
3875.194	3838
3876.813	3789
3878.433	3805
3880.051	3746
3881.669	3773
3883.286	3807
3884.904	3731
3886.52	3740
3888.138	3783
3889.754	3747
3891.37	3837
3892.985	3723
3894.6	3782
3896.216	3733
3897.831	3715
3899.444	3795
3901.058	3730
3902.67	3663
3904.283	3706
3905.897	3743
3907.509	3720
3909.121	3761
3910.731	3702
3912.342	3768
3913.954	3629
3915.563	3734
3917.174	3710
3918.783	3700
3920.391	3738
3922.002	3642
3923.611	3660
3925.218	3778
3926.826	3697
3928.432	3625
3930.039	3709
3931.647	3673
3933.253	3714
3934.859	3696
3936.464	3655
3938.068	3725
3939.675	3728
3941.278	3658
3942.883	3658
3944.486	3645
3946.089	3702
3947.692	3676
3949.295	3631
3950.898	3686
3952.499	3639
3954.1	3721
3955.7	3613
3957.303	3623
3958.903	3630
3960.502	3644
3962.101	3619
3963.7	3572
3965.301	3580
3966.899	3557
3968.497	3637
3970.094	3582
3971.691	3635
3973.288	3675
3974.885	3580
3976.481	3586
3978.077	3575
3979.672	3606
3981.267	3578
3982.863	3481
3984.457	3479
3986.051	3494
3987.645	3543
3989.238	3493
3990.831	3491
3992.425	3520
3994.017	3521
3995.607	3535
3997.199	3555
3998.79	3505
4000.382	3530
4001.973	3527
4003.561	3459
4005.151	3447
4006.741	3447
4008.331	3488
4009.918	3446
4011.507	3502
4013.095	3464
4014.681	3455
4016.269	3434
4017.856	3413
4019.443	3533
4021.028	3402
4022.614	3420
4024.199	3399
4025.785	3462
4027.37	3388
4028.953	3431
4030.536	3349
4032.12	3467
4033.704	3389
4035.287	3362
4036.869	3442
4038.45	3509
4040.032	3449
4041.613	3420
4043.195	3439
4044.776	3402
4046.356	3360
4047.935	3388
4049.515	3348
4051.095	3327
4052.674	3320
4054.251	3329
4055.829	3267
4057.406	3359
4058.985	3343
4060.562	3379
4062.139	3330
4063.715	3335
4065.29	3255
4066.865	3293
4068.442	3296
4070.016	3400
4071.59	3324
4073.164	3312
4074.738	3280
4076.312	3299
4077.885	3373
4079.458	3334
4081.03	3279
4082.602	3394
4084.173	3387
4085.745	3301
4087.315	3298
4088.886	3308
4090.456	3298
4092.026	3348
4093.596	3292
4095.165	3311
4096.734	3267
4098.301	3366
4099.869	3217
4101.437	3232
4103.006	3294
4104.572	3285
4106.139	3241
4107.704	3183
4109.27	3212
4110.837	3207
4112.401	3248
4113.966	3269
4115.53	3291
4117.094	3233
4118.659	3208
4120.223	3211
4121.785	3168
4123.347	3290
4124.909	3178
4126.471	3314
4128.034	3224
4129.595	3201
4131.155	3248
4132.716	3206
4134.275	3195
4135.836	3248
4137.395	3179
4138.955	3225
4140.513	3143
4142.071	3231
4143.628	3194
4145.188	3140
4146.745	3208
4148.302	3197
4149.858	3202
4151.414	3134
4152.971	3211
4154.526	3153
4156.081	3199
4157.635	3140
4159.189	3081
4160.745	3157
4162.298	3153
4163.852	3046
4165.405	3163
4166.957	3160
4168.51	3125
4170.063	3183
4171.614	3137
4173.166	3111
4174.717	3020
4176.267	3095
4177.817	3055
4179.368	3082
4180.917	3075
4182.466	3030
4184.016	3063
4185.564	3062
4187.112	3022
4188.66	3062
4190.207	2997
4191.754	3071
4193.301	3037
4194.848	3066
4196.394	3012
4197.94	2974
4199.484	3072
4201.03	3030
4202.575	3031
4204.12	2964
4205.663	2939
4207.207	3046
4208.75	3061
4210.292	2995
4211.836	2994
4213.378	2952
4214.92	3065
4216.46	3054
4218.002	3038
4219.544	3011
4221.083	2996
4222.625	2962
4224.164	2971
4225.703	2995
4227.244	2945
4228.782	3021
4230.32	2948
4231.857	2924
4233.395	2925
4234.933	2992
4236.471	2976
4238.007	2924
4239.542	3011
4241.078	2985
4242.614	2923
4244.15	2967
4245.685	2974
4247.219	2881
4248.753	2873
4250.287	2958
4251.82	2919
4253.354	2910
4254.887	2825
4256.419	2929
4257.951	2946
4259.483	2971
4261.016	2894
4262.547	2909
4264.078	2919
4265.608	2944
4267.137	2927
4268.668	2928
4270.197	2914
4271.727	2917
4273.254	2883
4274.783	2848
4276.311	2921
4277.84	2955
4279.366	2968
4280.894	2978
4282.42	2877
4283.946	2858
4285.473	2855
4286.998	2904
4288.523	2888
4290.047	2860
4291.572	2897
4293.096	2845
4294.622	2920
4296.144	2865
4297.668	2851
4299.19	2921
4300.713	2850
4302.236	2841
4303.758	2896
4305.279	2729
4306.799	2820
4308.321	2815
4309.842	2779
4311.361	2770
4312.882	2855
4314.401	2801
