400.0961	4010
402.6185	3952
405.1424	3888
407.6635	4029
410.1838	3976
412.7035	3938
415.2225	4042
417.7388	4001
420.2585	4052
422.7754	4224
425.2917	4149
427.8072	4167
430.3221	4234
432.8363	4344
435.3498	4256
437.8626	4275
440.3727	4224
442.8841	4263
445.3969	4265
447.907	4267
450.4142	4201
452.9229	4155
455.4289	4185
457.9362	4331
460.4449	4147
462.9488	4235
465.454	4087
467.9566	4126
470.4604	4093
472.9637	4149
475.4662	4122
477.966	4154
480.4671	4109
482.9656	4160
485.4633	4127
487.9645	4148
490.4608	4135
492.9566	4236
495.4536	4219
497.948	4233
500.4437	4224
502.9387	4229
505.431	4229
507.9226	4202
510.4136	4346
512.9079	4197
515.3975	4286
517.8864	4270
520.3746	4261
522.8622	4258
525.3491	4240
527.8394	4281
530.3249	4312
532.8098	4323
535.2939	4378
537.7774	4321
540.2623	4343
542.7444	4400
545.2259	4283
547.7067	4282
550.1868	4318
552.6683	4302
555.147	4352
557.6231	4414
560.1005	4302
562.5773	4354
565.0534	4331
567.5308	4438
570.0056	4489
572.4776	4468
574.951	4456
577.4237	4542
579.8978	4550
582.3671	4701
584.8378	4564
587.3079	4597
589.7773	4577
592.244	4600
594.714	4592
597.1793	4471
599.6461	4557
602.1121	4435
604.5754	4463
607.0421	4458
609.5042	4538
611.9675	4533
614.4282	4511
616.8902	4564
619.3515	4506
621.8122	4489
624.2702	4472
626.7296	4559
629.1863	4277
631.6423	4443
634.1017	4387
636.5563	4409
639.0104	4453
641.4658	4413
643.9185	4301
646.3725	4478
648.8239	4471
651.2766	4438
653.7266	4485
656.176	4439
658.6247	4455
661.0748	4544
663.5242	4533
665.9709	4424
668.417	4496
670.8624	4493
673.3092	4540
675.7533	4458
678.1968	4601
680.6395	4621
683.0817	4598
685.5251	4582
687.9659	4663
690.4061	4552
692.8456	4476
695.2844	4562
697.7226	4509
700.1621	4648
702.599	4635
705.0332	4706
707.4688	4594
709.9036	4653
712.3399	4732
714.7735	4647
717.2044	4642
719.6367	4684
722.0683	4651
724.4993	4755
726.9296	4770
729.3593	4671
731.7883	4655
734.2147	4721
736.6423	4741
739.0714	4805
741.4958	4714
743.9216	4801
746.3447	4876
748.7691	4822
751.1929	4838
753.616	4895
756.0366	4911
758.4584	4902
760.8776	4957
763.2982	4970
765.718	4892
768.1373	4931
770.5539	4910
772.9698	4900
775.3871	4848
777.8038	4934
780.2178	4985
782.6332	4897
785.0459	4884
787.458	4878
789.8714	4871
792.2842	4946
794.6943	4891
797.1038	4967
799.5127	4978
801.9209	5038
804.3324	4947
806.7393	4998
809.1456	5033
811.5513	5019
813.9562	5053
816.3625	5012
818.7663	5049
821.1693	5077
823.5718	5006
825.9735	5042
828.3746	4938
830.7771	5042
833.177	5068
835.5762	4965
837.9747	4956
840.3727	5068
842.772	5066
845.1666	5124
847.5626	5107
849.958	5107
852.3527	5266
854.7488	5108
857.1403	5203
859.5331	5243
861.9253	5188
864.3168	5176
866.7057	5333
869.098	5138
871.4876	5220
873.8746	5078
876.263	5262
878.6487	5169
881.0378	5189
883.4243	5133
885.8081	5103
888.1933	5185
890.5759	5093
892.9598	5132
895.343	5185
897.7256	5164
900.1057	5073
902.4871	5203
904.8659	5141
907.246	5193
909.6254	5194
912.0023	5309
914.3786	5321
916.7562	5420
919.1331	5519
921.5074	5560
923.8831	5531
926.2562	5572
928.6287	5500
931.0005	5465
933.3757	5583
935.7462	5631
938.1162	5610
940.4855	5658
942.8542	5711
945.2242	5830
947.5916	5984
949.9584	6165
952.3266	6474
954.6921	6740
957.0571	7067
959.4233	7468
961.787	7505
964.15	7528
966.5125	7206
968.8742	6757
971.2354	6340
973.5959	6087
975.9559	5923
978.3151	5774
980.6738	5617
983.0338	5475
985.3912	5493
987.7461	5356
990.1022	5433
992.4578	5463
994.8127	5263
997.1689	5469
999.5207	5425
1001.874	5379
1004.226	5472
1006.576	5459
1008.929	5435
1011.28	5485
1013.628	5419
1015.977	5468
1018.324	5400
1020.674	5414
1023.019	5398
1025.366	5453
1027.713	5523
1030.056	5476
1032.399	5398
1034.746	5454
1037.087	5502
1039.431	5541
1041.771	5497
1044.113	5478
1046.454	5523
1048.793	5536
1051.133	5421
1053.471	5532
1055.807	5536
1058.146	5565
1060.483	5695
1062.818	5629
1065.153	5682
1067.489	5654
1069.822	5746
1072.156	5789
1074.488	5638
1076.82	5704
1079.15	5672
1081.48	5678
1083.814	5657
1086.143	5539
1088.471	5484
1090.799	5469
1093.126	5426
1095.452	5454
1097.78	5485
1100.105	5529
1102.43	5418
1104.754	5588
1107.077	5474
1109.4	5433
1111.722	5460
1114.044	5420
1116.365	5514
1118.685	5489
1121.005	5447
1123.324	5392
1125.643	5527
1127.961	5543
1130.278	5496
1132.595	5457
1134.911	5516
1137.226	5563
1139.541	5484
1141.854	5399
1144.167	5463
1146.482	5507
1148.793	5490
1151.105	5438
1153.414	5550
1155.725	5454
1158.033	5484
1160.344	5536
1162.651	5491
1164.959	5562
1167.265	5423
1169.572	5555
1171.878	5502
1174.184	5511
1176.488	5506
1178.79	5475
1181.094	5595
1183.396	5550
1185.699	5507
1188.001	5542
1190.301	5389
1192.6	5512
1194.9	5371
1197.2	5566
1199.497	5516
1201.794	5430
1204.09	5495
1206.387	5462
1208.684	5437
1210.978	5518
1213.272	5480
1215.565	5601
1217.858	5490
1220.15	5686
1222.443	5411
1224.734	5541
1227.024	5591
1229.313	5601
1231.602	5642
1233.892	5668
1236.18	5688
1238.467	5715
1240.754	5728
1243.04	5793
1245.325	5692
1247.612	5751
1249.896	5771
1252.178	5812
1254.461	5753
1256.743	5763
1259.027	5937
1261.308	5777
1263.587	5881
1265.867	5785
1268.146	5794
1270.425	5850
1272.703	5720
1274.981	5728
1277.256	5879
1279.532	5787
1281.808	5753
1284.083	5643
1286.358	5797
1288.63	5683
1290.904	5751
1293.175	5679
1295.449	5701
1297.719	5773
1299.99	5644
1302.259	5531
1304.529	5699
1306.798	5745
1309.065	5638
1311.333	5649
1313.599	5669
1315.866	5607
1318.131	5668
1320.396	5670
1322.66	5610
1324.925	5675
1327.187	5733
1329.448	5677
1331.711	5695
1333.974	5667
1336.234	5569
1338.493	5781
1340.752	5619
1343.01	5603
1345.269	5623
1347.526	5683
1349.784	5715
1352.04	5648
1354.295	5612
1356.552	5749
1358.806	5577
1361.059	5748
1363.312	5598
1365.564	5652
1367.818	5638
1370.069	5661
1372.318	5605
1374.568	5745
1376.817	5733
1379.066	5812
1381.316	5696
1383.564	5815
1385.809	5731
1388.056	5729
1390.301	5767
1392.549	5791
1394.793	5912
1397.036	5979
1399.279	5892
1401.522	5906
1403.763	6103
1406.007	5921
1408.248	5995
1410.487	5936
1412.727	5982
1414.965	5899
1417.205	5935
1419.442	5962
1421.68	5820
1423.915	6005
1426.152	5912
1428.388	5974
1430.623	5884
1432.857	5985
1435.091	6025
1437.323	6072
1439.556	6000
1441.789	6066
1444.019	6025
1446.25	5953
1448.48	6076
1450.708	6034
1452.938	6131
1455.167	6117
1457.394	6161
1459.62	6214
1461.846	6008
1464.073	6031
1466.299	6080
1468.523	5897
1470.746	5796
1472.969	5858
1475.191	5867
1477.415	5983
1479.636	5919
1481.858	5809
1484.078	5750
1486.298	5676
1488.518	5706
1490.736	5672
1492.954	5793
1495.169	5644
1497.386	5720
1499.602	5680
1501.819	5714
1504.034	5580
1506.248	5643
1508.462	5601
1510.675	5511
1512.888	5596
1515.1	5569
1517.311	5628
1519.522	5729
1521.732	5646
1523.942	5561
1526.151	5624
1528.36	5750
1530.566	5756
1532.773	5625
1534.98	5523
1537.187	5599
1539.392	5660
1541.596	5748
1543.801	5655
1546.005	5588
1548.208	5653
1550.411	5735
1552.612	5749
1554.814	5760
1557.013	5721
1559.212	5684
1561.414	5840
1563.612	5805
1565.811	5747
1568.007	5766
1570.203	5924
1572.403	5839
1574.598	5723
1576.792	5777
1578.988	5782
1581.181	5747
1583.376	5878
1585.568	5873
1587.761	5850
1589.952	5885
1592.143	5834
1594.333	5749
1596.524	5746
1598.715	5814
1600.903	5840
1603.091	5762
1605.278	5916
1607.466	5771
1609.652	5877
1611.838	5921
1614.023	5870
1616.207	5838
1618.391	5862
1620.576	5834
1622.759	5973
1624.941	5838
1627.123	5906
1629.304	5964
1631.484	5926
1633.664	5940
1635.844	5901
1638.022	5875
1640.201	5986
1642.38	5974
1644.556	5996
1646.732	6012
1648.908	5838
1651.084	5997
1653.257	6096
1655.433	5958
1657.607	6105
1659.779	6100
1661.951	5966
1664.122	6121
1666.295	5938
1668.467	6013
1670.635	6083
1672.805	6114
1674.973	6015
1677.142	5979
1679.31	6059
1681.478	6079
1683.644	6021
1685.81	6045
1687.975	6004
1690.142	5992
1692.305	6124
1694.468	6015
1696.632	6062
1698.794	6007
1700.957	5877
1703.119	5906
1705.279	5866
1707.439	5885
1709.598	5925
1711.758	5917
1713.917	5853
1716.075	5897
1718.231	5782
1720.388	5814
1722.543	5906
1724.702	5988
1726.856	5793
1729.01	5783
1731.164	5701
1733.317	5812
1735.471	5858
1737.623	5895
1739.774	5804
1741.925	5756
1744.075	5751
1746.225	5725
1748.376	5831
1750.524	5848
1752.672	5897
1754.82	5818
1756.965	5795
1759.113	5896
1761.259	5896
1763.405	5902
1765.549	5805
1767.694	5909
1769.836	5946
1771.981	5789
1774.123	5868
1776.264	5904
1778.405	5815
1780.546	5916
1782.687	5833
1784.827	5874
1786.966	5774
1789.103	5893
1791.242	5790
1793.381	5875
1795.517	5885
1797.653	5901
1799.788	5841
1801.923	5809
1804.057	5777
1806.193	5874
1808.326	5779
1810.457	5947
1812.59	5939
1814.721	5925
1816.855	5877
1818.984	5988
1821.113	5936
1823.244	5902
1825.372	5893
1827.499	5869
1829.63	5893
1831.756	5944
1833.882	5915
1836.007	5876
1838.132	5891
1840.26	5808
1842.384	5798
1844.507	5795
1846.63	5756
1848.752	5753
1850.875	5934
1852.996	5787
1855.118	5932
1857.238	5790
1859.358	5813
1861.477	5873
1863.597	5816
1865.715	5824
1867.832	5877
1869.948	5974
1872.064	5752
1874.181	5821
1876.297	5836
1878.411	5829
1880.526	5819
1882.639	5776
1884.752	5980
1886.865	5857
1888.977	5822
1891.089	5785
1893.2	5810
1895.308	5907
1897.42	5995
1899.53	5780
1901.639	5879
1903.745	5861
1905.853	5909
1907.962	5861
1910.067	5837
1912.174	5837
1914.278	5940
1916.383	5844
1918.486	5963
1920.592	5973
1922.694	5957
1924.797	5822
1926.898	5935
1929	5821
1931.102	5951
1933.203	5891
1935.301	5948
1937.401	5933
1939.499	5885
1941.598	5964
1943.697	5845
1945.793	5904
1947.888	5931
1949.985	5903
1952.08	5980
1954.176	5899
1956.269	5831
1958.364	5869
1960.457	5939
1962.549	6011
1964.642	5947
1966.733	5915
1968.823	5863
1970.913	5874
1973.005	5957
1975.093	5950
1977.184	5868
1979.271	5907
1981.359	5898
1983.446	5886
1985.532	5945
1987.619	5858
1989.705	5869
1991.789	5824
1993.874	5969
1995.956	5809
1998.041	5873
2000.123	5827
2002.206	5918
2004.287	5760
2006.368	5954
2008.449	5859
2010.529	5829
2012.609	5922
2014.688	5828
2016.766	5817
2018.843	5886
2020.922	5757
2022.999	5783
2025.074	5871
2027.15	5863
2029.225	5802
2031.299	5879
2033.375	5761
2035.447	5870
2037.52	5755
2039.592	5943
2041.664	5923
2043.736	5895
2045.807	5855
2047.876	5855
2049.947	5812
2052.015	5861
2054.086	5962
2056.153	5913
2058.221	5978
2060.288	5803
2062.353	5861
2064.42	5834
2066.486	5813
2068.55	5908
2070.614	5880
2072.678	5856
2074.741	5863
2076.805	5866
2078.866	5781
2080.929	5914
2082.99	5899
2085.049	5959
2087.109	5869
2089.17	5860
2091.228	5838
2093.286	5853
2095.344	5906
2097.4	5879
2099.46	5818
2101.516	5784
2103.572	5955
2105.626	5827
2107.679	5767
2109.735	5920
2111.788	5816
2113.841	5953
2115.894	5823
2117.945	5780
2119.997	5995
2122.049	5834
2124.1	5711
2126.148	5824
2128.197	5916
2130.246	5845
2132.296	5872
2134.342	5927
2136.39	5930
2138.437	5847
2140.483	5848
2142.527	5716
2144.574	5837
2146.619	5830
2148.661	5883
2150.705	5904
2152.747	5773
2154.792	5754
2156.832	5881
2158.874	5877
2160.915	5799
2162.954	5818
2164.995	5809
2167.034	5803
2169.072	5744
2171.111	5861
2173.148	5757
2175.186	5874
2177.223	5755
2179.258	5737
2181.294	5783
2183.328	5760
2185.362	5731
2187.398	5669
2189.431	5748
2191.463	5663
2193.495	5821
2195.528	5694
2197.56	5748
2199.59	5780
2201.62	5679
2203.649	5756
2205.678	5721
2207.708	5698
2209.737	5699
2211.764	5641
2213.791	5674
2215.817	5679
2217.843	5709
2219.87	5733
2221.895	5717
2223.919	5640
2225.942	5689
2227.966	5720
2229.988	5634
2232.012	5652
2234.032	5736
2236.054	5681
2238.074	5714
2240.095	5775
2242.116	5625
2244.135	5678
2246.153	5619
2248.171	5777
2250.188	5701
2252.208	5820
2254.223	5716
2256.239	5736
2258.255	5748
2260.269	5721
2262.283	5639
2264.3	5622
2266.312	5578
2268.325	5756
2270.336	5689
2272.349	5708
2274.362	5708
2276.372	5691
2278.383	5655
2280.392	5712
2282.402	5703
2284.409	5694
2286.418	5704
2288.427	5689
2290.433	5579
2292.441	5615
2294.446	5665
2296.453	5634
2298.459	5733
2300.463	5687
2302.466	5671
2304.471	5695
2306.475	5765
2308.477	5663
2310.478	5738
2312.481	5655
2314.481	5622
2316.481	5718
2318.482	5595
2320.482	5625
2322.48	5727
2324.48	5664
2326.478	5561
2328.476	5667
2330.473	5608
2332.469	5582
2334.465	5711
2336.46	5643
2338.454	5559
2340.45	5575
2342.444	5523
2344.437	5634
2346.43	5589
2348.421	5586
2350.414	5565
2352.405	5656
2354.396	5552
2356.386	5553
2358.376	5490
2360.366	5651
2362.355	5622
2364.343	5623
2366.331	5467
2368.317	5531
2370.304	5489
2372.292	5535
2374.278	5571
2376.262	5630
2378.247	5612
2380.23	5496
2382.216	5594
2384.199	5491
2386.181	5564
2388.163	5434
2390.144	5528
2392.127	5505
2394.107	5588
2396.087	5484
2398.066	5459
2400.046	5497
2402.023	5407
2404.004	5575
2405.981	5540
2407.957	5472
2409.934	5467
2411.91	5389
2413.886	5516
2415.862	5524
2417.836	5502
2419.809	5431
2421.784	5590
2423.756	5515
2425.73	5459
2427.701	5490
2429.672	5492
2431.644	5533
2433.615	5492
2435.586	5414
2437.555	5537
2439.523	5564
2441.491	5481
2443.459	5486
2445.428	5443
2447.395	5362
2449.361	5390
2451.327	5430
2453.292	5477
2455.257	5413
2457.223	5587
2459.187	5483
2461.15	5348
2463.113	5548
2465.076	5433
2467.039	5470
2468.999	5452
2470.96	5326
2472.921	5404
2474.881	5417
2476.841	5312
2478.8	5497
2480.759	5391
2482.717	5374
2484.675	5353
2486.63	5424
2488.589	5323
2490.545	5366
2492.5	5334
2494.455	5381
2496.408	5356
2498.364	5363
2500.318	5397
2502.27	5298
2504.223	5327
2506.174	5451
2508.126	5356
2510.078	5280
2512.03	5312
2513.979	5402
2515.927	5428
2517.877	5385
2519.826	5344
2521.775	5413
2523.722	5365
2525.668	5361
2527.616	5286
2529.561	5466
2531.508	5404
2533.452	5428
2535.398	5322
2537.342	5312
2539.284	5366
2541.229	5366
2543.173	5332
2545.114	5387
2547.055	5444
2548.996	5265
2550.938	5245
2552.878	5443
2554.817	5385
2556.756	5285
2558.695	5414
2560.633	5270
2562.572	5246
2564.509	5441
2566.445	5251
2568.382	5329
2570.317	5293
2572.254	5387
2574.189	5408
2576.123	5404
2578.057	5317
2579.99	5416
2581.923	5346
2583.855	5410
2585.788	5372
2587.719	5331
2589.65	5406
2591.579	5344
2593.511	5328
2595.44	5416
2597.37	5260
2599.297	5276
2601.225	5238
2603.153	5248
2605.08	5279
2607.007	5385
2608.932	5301
2610.858	5346
2612.782	5307
2614.709	5379
2616.632	5323
2618.556	5295
2620.478	5417
2622.401	5388
2624.324	5358
2626.247	5366
2628.167	5418
2630.088	5439
2632.008	5270
2633.928	5426
2635.848	5371
2637.766	5275
2639.684	5341
2641.603	5347
2643.519	5372
2645.437	5406
2647.353	5355
2649.27	5302
2651.184	5320
2653.099	5356
2655.014	5268
2656.928	5382
2658.842	5343
2660.755	5283
2662.667	5327
2664.579	5318
2666.491	5391
2668.402	5331
2670.312	5316
2672.222	5261
2674.132	5395
2676.042	5290
2677.951	5330
2679.859	5226
2681.766	5331
2683.674	5349
2685.582	5357
2687.488	5437
2689.392	5254
2691.298	5291
2693.202	5186
2695.107	5285
2697.012	5374
2698.914	5287
2700.817	5279
2702.72	5271
2704.622	5242
2706.524	5245
2708.425	5299
2710.326	5234
2712.225	5246
2714.125	5267
2716.024	5222
2717.923	5282
2719.822	5145
2721.719	5232
2723.616	5190
2725.512	5297
2727.41	5191
2729.305	5218
2731.201	5169
2733.095	5238
2734.99	5236
2736.884	5249
2738.778	5265
2740.67	5246
2742.562	5197
2744.455	5253
2746.346	5234
2748.238	5203
2750.129	5167
2752.018	5227
2753.907	5225
2755.797	5262
2757.687	5174
2759.575	5268
2761.462	5241
2763.349	5187
2765.237	5124
2767.124	5197
2769.009	5080
2770.894	5184
2772.779	5255
2774.663	5194
2776.547	5164
2778.431	5194
2780.314	5214
2782.197	5250
2784.078	5271
2785.96	5080
2787.842	5216
2789.723	5197
2791.603	5090
2793.483	5208
2795.362	5120
2797.241	5133
2799.121	5234
2800.997	5212
2802.874	5241
2804.751	5156
2806.628	5123
2808.506	5247
2810.38	5221
2812.255	5243
2814.13	5116
2816.003	5131
2817.878	5213
2819.752	5080
2821.623	5141
2823.496	5167
2825.368	5237
2827.238	5166
2829.111	5287
2830.98	5234
2832.851	5109
2834.719	5170
2836.589	5199
2838.458	5291
2840.327	5169
2842.193	5144
2844.061	5286
2845.927	5225
2847.794	5260
2849.66	5325
2851.525	5323
2853.39	5277
2855.254	5251
2857.117	5189
2858.983	5273
2860.845	5288
2862.707	5425
2864.569	5298
2866.431	5433
2868.293	5470
2870.154	5509
2872.013	5562
2873.873	5561
2875.733	5599
2877.592	5582
2879.451	5772
2881.309	5706
2883.166	5725
2885.022	5822
2886.879	5902
2888.736	5851
2890.591	5876
2892.446	5919
2894.301	5792
2896.155	5940
2898.009	5893
2899.863	5897
2901.716	5759
2903.568	5908
2905.419	5764
2907.27	5848
2909.123	5939
2910.973	5899
2912.824	6027
2914.673	5996
2916.521	6068
2918.372	6201
2920.22	6182
2922.067	6201
2923.914	6262
2925.761	6411
2927.607	6391
2929.455	6563
2931.301	6524
2933.144	6541
2934.99	6566
2936.833	6645
2938.678	6767
2940.522	6801
2942.364	6902
2944.207	7042
2946.048	6949
2947.891	7073
2949.731	7085
2951.571	6981
2953.412	6929
2955.25	6756
2957.09	6773
2958.93	6627
2960.767	6746
2962.606	6658
2964.443	6486
2966.279	6495
2968.116	6351
2969.953	6237
2971.788	6262
2973.623	6129
2975.457	6094
2977.292	6191
2979.127	5988
2980.959	6000
2982.792	6068
2984.624	6020
2986.455	5860
2988.288	5846
2990.119	5850
2991.949	5826
2993.779	5868
2995.608	5812
2997.439	5760
2999.268	5600
3001.096	5665
3002.923	5636
3004.751	5418
3006.578	5622
3008.406	5456
3010.232	5388
3012.057	5222
3013.883	5163
3015.706	5203
3017.532	5151
3019.356	5190
3021.179	5170
3023.002	5152
3024.823	5035
3026.646	5024
3028.469	4914
3030.289	5102
3032.11	4962
3033.93	4959
3035.749	4967
3037.57	5011
3039.39	5016
3041.207	4859
3043.026	4929
3044.842	4941
3046.661	4776
3048.477	4929
3050.294	4917
3052.109	5092
3053.925	4920
3055.739	4924
3057.555	4884
3059.368	4986
3061.181	4839
3062.995	4831
3064.807	4885
3066.62	4911
3068.433	4971
3070.243	4867
3072.054	4898
3073.865	5001
3075.675	4875
3077.485	4888
3079.293	4731
3081.102	4864
3082.911	4777
3084.719	4855
3086.527	4808
3088.333	4813
3090.139	4782
3091.945	4846
3093.75	4831
3095.557	4804
3097.361	4751
3099.165	4783
3100.969	4781
3102.772	4743
3104.575	4748
3106.379	4846
3108.181	4692
3109.982	4840
3111.783	4661
3113.584	4796
3115.386	4768
3117.186	4696
3118.985	4630
3120.783	4671
3122.582	4747
3124.381	4708
3126.179	4750
3127.975	4770
3129.772	4741
3131.569	4771
3133.365	4590
3135.161	4595
3136.956	4693
3138.751	4643
3140.544	4683
3142.338	4693
3144.132	4640
3145.925	4649
3147.717	4630
3149.509	4607
3151.301	4713
3153.091	4631
3154.884	4622
3156.673	4681
3158.462	4629
3160.252	4657
3162.041	4536
3163.831	4602
3165.618	4697
3167.405	4663
3169.193	4661
3170.979	4537
3172.767	4536
3174.553	4672
3176.338	4621
3178.123	4627
3179.907	4681
3181.692	4556
3183.477	4628
3185.259	4633
3187.042	4639
3188.824	4539
3190.607	4686
3192.389	4621
3194.17	4587
3195.951	4577
3197.73	4698
3199.51	4667
3201.289	4717
3203.07	4645
3204.848	4535
3206.626	4616
3208.403	4583
3210.18	4637
3211.959	4621
3213.735	4631
3215.511	4589
3217.285	4547
3219.06	4548
3220.836	4581
3222.611	4558
3224.384	4587
3226.158	4560
3227.929	4681
3229.702	4575
3231.476	4562
3233.248	4546
3235.018	4600
3236.789	4577
3238.56	4627
3240.33	4511
3242.1	4589
3243.869	4690
3245.637	4587
3247.405	4497
3249.172	4661
3250.941	4554
3252.707	4688
3254.474	4551
3256.24	4657
3258.006	4623
3259.772	4585
3261.537	4578
3263.301	4621
3265.065	4686
3266.828	4664
3268.592	4647
3270.355	4659
3272.117	4654
3273.878	4678
3275.64	4635
3277.401	4607
3279.162	4536
3280.922	4607
3282.682	4477
3284.441	4558
3286.199	4587
3287.959	4521
3289.716	4548
3291.475	4693
3293.232	4573
3294.988	4662
3296.744	4610
3298.501	4592
3300.256	4657
3302.011	4663
3303.766	4622
3305.52	4562
3307.275	4672
3309.028	4628
3310.781	4574
3312.533	4598
3314.285	4599
3316.038	4556
3317.789	4615
3319.54	4585
3321.289	4556
3323.039	4726
3324.789	4568
3326.539	4617
3328.288	4549
3330.035	4667
3331.783	4573
3333.531	4554
3335.28	4651
3337.025	4585
3338.771	4551
3340.518	4599
3342.262	4459
3344.009	4682
3345.753	4505
3347.497	4450
3349.24	4525
3350.983	4528
3352.726	4495
3354.469	4522
3356.212	4543
3357.952	4550
3359.694	4485
3361.434	4505
3363.176	4499
3364.916	4532
3366.654	4458
3368.394	4461
3370.132	4509
3371.871	4432
3373.61	4415
3375.346	4364
3377.083	4518
3378.82	4462
3380.556	4411
3382.292	4481
3384.027	4466
3385.763	4403
3387.497	4400
3389.231	4464
3390.965	4481
3392.698	4374
3394.431	4386
3396.164	4391
3397.896	4411
3399.627	4441
3401.36	4337
3403.09	4352
3404.82	4360
3406.55	4418
3408.279	4389
3410.01	4385
3411.738	4412
3413.467	4326
3415.194	4363
3416.92	4310
3418.647	4380
3420.375	4346
3422.102	4338
3423.827	4431
3425.553	4324
3427.277	4385
3429.003	4367
3430.727	4199
3432.451	4315
3434.173	4292
3435.896	4268
3437.62	4299
3439.343	4285
3441.063	4324
3442.785	4331
3444.505	4370
3446.226	4285
3447.948	4329
3449.666	4184
3451.386	4283
3453.104	4353
3454.823	4315
3456.541	4346
3458.259	4206
3459.976	4244
3461.693	4278
3463.408	4232
3465.125	4268
3466.841	4140
3468.556	4156
3470.271	4204
3471.985	4195
3473.698	4130
3475.414	4185
3477.126	4093
3478.838	4188
3480.55	4187
3482.263	4159
3483.975	4129
3485.686	4164
3487.396	4052
3489.106	4080
3490.817	4023
3492.526	4101
3494.236	4156
3495.944	4085
3497.652	4053
3499.359	4112
3501.066	4087
3502.775	4102
3504.481	4026
3506.187	4115
3507.893	4071
3509.598	3981
3511.304	4037
3513.009	3997
3514.713	3996
3516.417	3991
3518.12	3952
3519.821	4057
3521.525	3997
3523.228	3924
3524.929	4025
3526.631	3986
3528.33	3918
3530.032	3987
3531.733	4006
3533.433	3996
3535.131	3862
3536.83	3951
3538.529	3893
3540.227	3975
3541.925	4023
3543.623	3924
3545.319	3978
3547.016	4012
3548.712	3998
3550.408	3888
3552.103	3887
3553.798	3852
3555.491	3851
3557.188	3846
3558.88	3870
3560.574	3850
3562.266	3859
3563.959	3876
3565.651	3877
3567.343	3806
3569.035	3786
3570.725	3901
3572.415	3813
3574.106	3864
3575.797	3830
3577.485	3942
3579.174	3758
3580.863	3768
3582.551	3862
3584.238	3818
3585.926	3746
3587.613	3855
3589.3	3817
3590.986	3772
3592.671	3753
3594.357	3797
3596.042	3725
3597.726	3749
3599.41	3758
3601.094	3745
3602.778	3678
3604.461	3730
3606.143	3680
3607.825	3767
3609.507	3741
3611.188	3736
3612.87	3769
3614.551	3722
3616.229	3674
3617.909	3640
3619.589	3607
3621.269	3683
3622.948	3676
3624.625	3653
3626.302	3650
3627.98	3639
3629.657	3617
3631.334	3595
3633.01	3555
3634.686	3605
3636.361	3639
3638.036	3605
3639.712	3574
3641.385	3671
3643.06	3509
3644.732	3563
3646.405	3557
3648.08	3563
3649.751	3479
3651.424	3478
3653.094	3542
3654.766	3530
3656.436	3547
3658.106	3569
3659.777	3466
3661.446	3539
3663.115	3534
3664.783	3471
3666.452	3517
3668.121	3516
3669.788	3551
3671.454	3526
3673.121	3504
3674.789	3476
3676.455	3490
3678.12	3503
3679.784	3530
3681.45	3428
3683.114	3447
3684.779	3440
3686.442	3420
3688.105	3491
3689.768	3410
3691.43	3454
3693.093	3449
3694.754	3389
3696.415	3396
3698.076	3508
3699.736	3409
3701.396	3414
3703.057	3464
3704.716	3410
3706.375	3494
3708.034	3408
3709.692	3392
3711.351	3387
3713.008	3372
3714.665	3399
3716.321	3468
3717.977	3371
3719.634	3459
3721.29	3444
3722.945	3349
3724.598	3356
3726.253	3350
3727.907	3360
3729.561	3303
3731.214	3373
3732.867	3353
3734.518	3453
3736.171	3394
3737.824	3415
3739.474	3315
3741.125	3278
3742.775	3397
3744.425	3326
3746.074	3287
3747.725	3350
3749.373	3367
3751.022	3346
3752.669	3338
3754.318	3378
3755.966	3384
3757.612	3332
3759.259	3286
3760.905	3263
3762.55	3314
3764.197	3223
3765.842	3341
3767.486	3289
3769.131	3325
3770.774	3369
3772.417	3182
3774.061	3284
3775.705	3290
3777.347	3266
3778.988	3216
3780.629	3350
3782.271	3234
3783.912	3257
3785.552	3234
3787.192	3257
3788.831	3228
3790.472	3248
3792.112	3254
3793.75	3285
3795.388	3229
3797.024	3277
3798.661	3268
3800.3	3280
3801.936	3237
3803.572	3208
3805.208	3250
3806.844	3224
3808.48	3230
3810.115	3171
3811.748	3205
3813.382	3215
3815.016	3166
3816.649	3206
3818.283	3197
3819.914	3170
3821.547	3107
3823.178	3179
3824.809	3176
3826.441	3138
3828.072	3191
3829.701	3276
3831.331	3219
3832.96	3188
3834.591	3190
3836.219	3174
3837.847	3172
3839.475	3175
3841.102	3193
3842.729	3200
3844.357	3112
3845.984	3200
3847.609	3128
3849.234	3152
3850.86	3218
3852.485	3123
3854.11	3139
3855.734	3151
3857.357	3113
3858.981	3159
3860.603	3171
3862.227	3018
3863.848	3104
3865.471	3100
3867.092	3140
3868.713	3154
3870.334	3136
3871.954	3123
3873.575	3060
3875.194	3124
3876.813	3150
3878.433	3097
3880.051	3115
3881.669	3090
3883.286	3072
3884.904	3109
3886.52	3109
3888.138	3172
3889.754	3088
3891.37	3110
3892.985	3064
3894.6	3061
3896.216	3080
3897.831	3078
3899.444	3071
3901.058	3104
3902.67	2998
3904.283	3018
3905.897	3031
3907.509	3116
3909.121	3021
3910.731	3096
3912.342	3083
3913.954	3063
3915.563	3081
3917.174	3058
3918.783	3085
3920.391	3036
3922.002	3055
3923.611	3029
3925.218	3013
3926.826	3021
3928.432	2979
3930.039	2987
3931.647	3039
3933.253	2989
3934.859	3056
3936.464	3022
3938.068	2978
3939.675	3105
3941.278	3001
3942.883	3039
3944.486	2986
3946.089	3041
3947.692	2968
3949.295	2968
3950.898	3015
3952.499	2972
3954.1	2980
3955.7	2958
3957.303	3008
3958.903	2949
3960.502	2930
3962.101	3051
3963.7	2991
3965.301	2883
3966.899	2916
3968.497	2996
3970.094	2970
3971.691	2954
3973.288	2915
3974.885	2868
3976.481	2912
3978.077	2910
3979.672	2959
3981.267	2909
3982.863	2964
3984.457	2893
3986.051	2958
3987.645	2933
3989.238	2912
3990.831	2885
3992.425	2823
3994.017	2890
3995.607	2916
3997.199	3015
3998.79	2865
4000.382	2845
4001.973	2928
4003.561	2817
4005.151	2910
4006.741	2878
4008.331	2972
4009.918	2844
4011.507	2790
4013.095	2964
4014.681	2886
4016.269	2841
4017.856	2792
4019.443	2809
4021.028	2858
4022.614	2842
4024.199	2821
4025.785	2831
4027.37	2770
4028.953	2859
4030.536	2893
4032.12	2855
4033.704	2835
4035.287	2829
4036.869	2790
4038.45	2784
4040.032	2788
4041.613	2773
4043.195	2765
4044.776	2776
4046.356	2771
4047.935	2771
4049.515	2770
4051.095	2744
4052.674	2886
4054.251	2809
4055.829	2739
4057.406	2752
4058.985	2735
4060.562	2852
4062.139	2720
4063.715	2732
4065.29	2767
4066.865	2728
4068.442	2694
4070.016	2737
4071.59	2784
4073.164	2741
4074.738	2711
4076.312	2715
4077.885	2751
4079.458	2671
4081.03	2672
4082.602	2715
4084.173	2703
4085.745	2702
4087.315	2724
4088.886	2721
4090.456	2642
4092.026	2708
4093.596	2626
4095.165	2738
4096.734	2724
4098.301	2619
4099.869	2667
4101.437	2693
4103.006	2629
4104.572	2637
4106.139	2655
4107.704	2685
4109.27	2770
4110.837	2697
4112.401	2677
4113.966	2675
4115.53	2715
4117.094	2655
4118.659	2713
4120.223	2674
4121.785	2676
4123.347	2643
4124.909	2660
4126.471	2680
4128.034	2676
4129.595	2651
4131.155	2604
4132.716	2607
4134.275	2671
4135.836	2639
4137.395	2592
4138.955	2675
4140.513	2617
4142.071	2595
4143.628	2620
4145.188	2610
4146.745	2672
4148.302	2612
4149.858	2621
4151.414	2573
4152.971	2564
4154.526	2600
4156.081	2566
4157.635	2566
4159.189	2616
4160.745	2564
4162.298	2611
4163.852	2546
4165.405	2543
4166.957	2555
4168.51	2548
4170.063	2598
4171.614	2552
4173.166	2456
4174.717	2533
4176.267	2521
4177.817	2437
4179.368	2508
4180.917	2482
4182.466	2544
4184.016	2524
4185.564	2547
4187.112	2472
4188.66	2460
4190.207	2494
4191.754	2520
4193.301	2494
4194.848	2538
4196.394	2542
4197.94	2621
4199.484	2550
4201.03	2480
4202.575	2497
4204.12	2452
4205.663	2523
4207.207	2410
4208.75	2496
4210.292	2504
4211.836	2517
4213.378	2471
4214.92	2474
4216.46	2482
4218.002	2452
4219.544	2472
4221.083	2423
4222.625	2452
4224.164	2431
4225.703	2552
4227.244	2451
4228.782	2508
4230.32	2453
4231.857	2398
4233.395	2465
4234.933	2474
4236.471	2464
4238.007	2512
4239.542	2453
4241.078	2460
4242.614	2484
4244.15	2420
4245.685	2455
4247.219	2436
4248.753	2440
4250.287	2389
4251.82	2376
4253.354	2415
4254.887	2469
4256.419	2363
4257.951	2394
4259.483	2406
4261.016	2410
4262.547	2378
4264.078	2456
4265.608	2484
4267.137	2416
4268.668	2414
4270.197	2420
4271.727	2322
4273.254	2381
4274.783	2423
4276.311	2347
4277.84	2407
4279.366	2370
4280.894	2405
4282.42	2349
4283.946	2401
4285.473	2434
4286.998	2350
4288.523	2377
4290.047	2428
4291.572	2323
4293.096	2339
4294.622	2360
4296.144	2359
4297.668	2352
4299.19	2363
4300.713	2358
4302.236	2351
4303.758	2301
4305.279	2342
4306.799	2328
4308.321	2291
4309.842	2315
4311.361	2331
4312.882	2360
4314.401	2322
