400.0961	9499
402.6185	9654
405.1424	9547
407.6635	9666
410.1838	9810
412.7035	9692
415.2225	9859
417.7388	9682
420.2585	9972
422.7754	9929
425.2917	9961
427.8072	10090
430.3221	10177
432.8363	10175
435.3498	10238
437.8626	10318
440.3727	10259
442.8841	10332
445.3969	10340
447.907	10298
450.4142	10302
452.9229	10291
455.4289	10405
457.9362	10491
460.4449	10356
462.9488	10264
465.454	10436
467.9566	10304
470.4604	10564
472.9637	10557
475.4662	10617
477.966	10546
480.4671	10487
482.9656	10397
485.4633	10613
487.9645	10641
490.4608	10615
492.9566	10794
495.4536	10782
497.948	10782
500.4437	10775
502.9387	10710
505.431	10830
507.9226	10722
510.4136	10887
512.9079	10752
515.3975	10917
517.8864	11004
520.3746	10917
522.8622	10955
525.3491	10877
527.8394	11014
530.3249	11154
532.8098	10968
535.2939	10948
537.7774	11058
540.2623	10916
542.7444	10930
545.2259	10986
547.7067	11009
550.1868	10984
552.6683	11063
555.147	10939
557.6231	10867
560.1005	10934
562.5773	11149
565.0534	11236
567.5308	11006
570.0056	11103
572.4776	11176
574.951	11214
577.4237	11301
579.8978	11209
582.3671	11317
584.8378	11217
587.3079	11411
589.7773	11328
592.244	11383
594.714	11219
597.1793	11405
599.6461	11375
602.1121	11109
604.5754	11400
607.0421	11376
609.5042	11336
611.9675	11433
614.4282	11242
616.8902	11431
619.3515	11317
621.8122	11362
624.2702	11393
626.7296	11336
629.1863	11165
631.6423	11325
634.1017	11360
636.5563	11455
639.0104	11384
641.4658	11490
643.9185	11569
646.3725	11453
648.8239	11568
651.2766	11663
653.7266	11373
656.176	11422
658.6247	11682
661.0748	11444
663.5242	11685
665.9709	11648
668.417	11753
670.8624	11774
673.3092	11523
675.7533	11728
678.1968	11647
680.6395	11750
683.0817	11835
685.5251	11897
687.9659	11875
690.4061	12054
692.8456	11872
695.2844	11737
697.7226	11863
700.1621	11831
702.599	12002
705.0332	12072
707.4688	11950
709.9036	11944
712.3399	12076
714.7735	12193
717.2044	12069
719.6367	12144
722.0683	11999
724.4993	12029
726.9296	12346
729.3593	12075
731.7883	12095
734.2147	12309
736.6423	12421
739.0714	12518
741.4958	12390
743.9216	12455
746.3447	12641
748.7691	12400
751.1929	12593
753.616	12568
756.0366	12601
758.4584	12563
760.8776	12636
763.2982	12599
765.718	12646
768.1373	12707
770.5539	12592
772.9698	12847
775.3871	12623
777.8038	12739
780.2178	12632
782.6332	12833
785.0459	12581
787.458	12743
789.8714	12716
792.2842	12901
794.6943	12839
797.1038	12694
799.5127	12738
801.9209	12806
804.3324	12691
806.7393	12786
809.1456	12729
811.5513	12861
813.9562	12928
816.3625	12883
818.7663	12942
821.1693	12716
823.5718	12749
825.9735	12739
828.3746	12833
830.7771	12755
833.177	13060
835.5762	12739
837.9747	13056
840.3727	12885
842.772	13140
845.1666	12911
847.5626	13161
849.958	13173
852.3527	13096
854.7488	13057
857.1403	12949
859.5331	13186
861.9253	13151
864.3168	13062
866.7057	12990
869.098	13035
871.4876	13011
873.8746	13087
876.263	13111
878.6487	13052
881.0378	12982
883.4243	12984
885.8081	12994
888.1933	12978
890.5759	13056
892.9598	12934
895.343	12991
897.7256	13187
900.1057	12803
902.4871	13103
904.8659	13094
907.246	13044
909.6254	13077
912.0023	13043
914.3786	13281
916.7562	13317
919.1331	13472
921.5074	13632
923.8831	13546
926.2562	13766
928.6287	13546
931.0005	13617
933.3757	13468
935.7462	13572
938.1162	13659
940.4855	13678
942.8542	13820
945.2242	13765
947.5916	13837
949.9584	13966
952.3266	14059
954.6921	14425
957.0571	14525
959.4233	14939
961.787	14839
964.15	14644
966.5125	14658
968.8742	14325
971.2354	14059
973.5959	13938
975.9559	13852
978.3151	13666
980.6738	13666
983.0338	13513
985.3912	13538
987.7461	13594
990.1022	13372
992.4578	13498
994.8127	13426
997.1689	13565
999.5207	13606
1001.874	13621
1004.226	13560
1006.576	13491
1008.929	13617
1011.28	13678
1013.628	13423
1015.977	13394
1018.324	13413
1020.674	13747
1023.019	13628
1025.366	13611
1027.713	13705
1030.056	13496
1032.399	13718
1034.746	13737
1037.087	13788
1039.431	13504
1041.771	13822
1044.113	13464
1046.454	13703
1048.793	13679
1051.133	13590
1053.471	13709
1055.807	13933
1058.146	13812
1060.483	13782
1062.818	13790
1065.153	14021
1067.489	13803
1069.822	13812
1072.156	13813
1074.488	14006
1076.82	13934
1079.15	13735
1081.48	13736
1083.814	13831
1086.143	13764
1088.471	13868
1090.799	13775
1093.126	13899
1095.452	13761
1097.78	13715
1100.105	13935
1102.43	14052
1104.754	13956
1107.077	13937
1109.4	13863
1111.722	14028
1114.044	14022
1116.365	13949
1118.685	13791
1121.005	14119
1123.324	13977
1125.643	13889
1127.961	14213
1130.278	14053
1132.595	13982
1134.911	14061
1137.226	13879
1139.541	14072
1141.854	13950
1144.167	14040
1146.482	14081
1148.793	13916
1151.105	13951
1153.414	13873
1155.725	13935
1158.033	14063
1160.344	13908
1162.651	14003
1164.959	13821
1167.265	13915
1169.572	14084
1171.878	14038
1174.184	13969
1176.488	13895
1178.79	14060
1181.094	14172
1183.396	13944
1185.699	14045
1188.001	14042
1190.301	14067
1192.6	14028
1194.9	13772
1197.2	14056
1199.497	13845
1201.794	14046
1204.09	14041
1206.387	13998
1208.684	14061
1210.978	14041
1213.272	14014
1215.565	14099
1217.858	14142
1220.15	14170
1222.443	14061
1224.734	14203
1227.024	14227
1229.313	14189
1231.602	14175
1233.892	14250
1236.18	14390
1238.467	14389
1240.754	14435
1243.04	14183
1245.325	14427
1247.612	14332
1249.896	14567
1252.178	14422
1254.461	14548
1256.743	14544
1259.027	14231
1261.308	14499
1263.587	14468
1265.867	14389
1268.146	14378
1270.425	14542
1272.703	14440
1274.981	14601
1277.256	14494
1279.532	14477
1281.808	14405
1284.083	14385
1286.358	14430
1288.63	14241
1290.904	14266
1293.175	14352
1295.449	14305
1297.719	14417
1299.99	14353
1302.259	14253
1304.529	14226
1306.798	14359
1309.065	14255
1311.333	14340
1313.599	14244
1315.866	14319
1318.131	14295
1320.396	14291
1322.66	14177
1324.925	14310
1327.187	14309
1329.448	14388
1331.711	14488
1333.974	14493
1336.234	14355
1338.493	14458
1340.752	14382
1343.01	14425
1345.269	14393
1347.526	14357
1349.784	14473
1352.04	14356
1354.295	14347
1356.552	14367
1358.806	14207
1361.059	14349
1363.312	14376
1365.564	14262
1367.818	14307
1370.069	14264
1372.318	14342
1374.568	14530
1376.817	14485
1379.066	14347
1381.316	14321
1383.564	14644
1385.809	14377
1388.056	14626
1390.301	14581
1392.549	14510
1394.793	14618
1397.036	14711
1399.279	14633
1401.522	14698
1403.763	14852
1406.007	14613
1408.248	14713
1410.487	14687
1412.727	14755
1414.965	14820
1417.205	14755
1419.442	14708
1421.68	14778
1423.915	14735
1426.152	14609
1428.388	14831
1430.623	14723
1432.857	14967
1435.091	14747
1437.323	14879
1439.556	14796
1441.789	15015
1444.019	14897
1446.25	14960
1448.48	14981
1450.708	14922
1452.938	15027
1455.167	14945
1457.394	14930
1459.62	15055
1461.846	14855
1464.073	14998
1466.299	14927
1468.523	14812
1470.746	14902
1472.969	14785
1475.191	14520
1477.415	14775
1479.636	14773
1481.858	14683
1484.078	14462
1486.298	14686
1488.518	14473
1490.736	14422
1492.954	14511
1495.169	14455
1497.386	14418
1499.602	14466
1501.819	14563
1504.034	14333
1506.248	14449
1508.462	14257
1510.675	14388
1512.888	14411
1515.1	14233
1517.311	14231
1519.522	14289
1521.732	14344
1523.942	14348
1526.151	14167
1528.36	14404
1530.566	14477
1532.773	14330
1534.98	14461
1537.187	14226
1539.392	14528
1541.596	14417
1543.801	14343
1546.005	14575
1548.208	14422
1550.411	14498
1552.612	14424
1554.814	14479
1557.013	14563
1559.212	14536
1561.414	14480
1563.612	14595
1565.811	14811
1568.007	14641
1570.203	14810
1572.403	14731
1574.598	14820
1576.792	14836
1578.988	14993
1581.181	14609
1583.376	14851
1585.568	14863
1587.761	14748
1589.952	14876
1592.143	14677
1594.333	14860
1596.524	14916
1598.715	14927
1600.903	15024
1603.091	14771
1605.278	14821
1607.466	14908
1609.652	15048
1611.838	14855
1614.023	14793
1616.207	14795
1618.391	14839
1620.576	14848
1622.759	14978
1624.941	15002
1627.123	14929
1629.304	15153
1631.484	14869
1633.664	15122
1635.844	14920
1638.022	15040
1640.201	14998
1642.38	15072
1644.556	14860
1646.732	14874
1648.908	14901
1651.084	14871
1653.257	15008
1655.433	15018
1657.607	14931
1659.779	15128
1661.951	14850
1664.122	14922
1666.295	15227
1668.467	14931
1670.635	14960
1672.805	15065
1674.973	15053
1677.142	14933
1679.31	14944
1681.478	14985
1683.644	14880
1685.81	15058
1687.975	14931
1690.142	14926
1692.305	14881
1694.468	14860
1696.632	14929
1698.794	14986
1700.957	14803
1703.119	14831
1705.279	14782
1707.439	14945
1709.598	14756
1711.758	14757
1713.917	14743
1716.075	14709
1718.231	15009
1720.388	14842
1722.543	14961
1724.702	14911
1726.856	14827
1729.01	14763
1731.164	14711
1733.317	14866
1735.471	14985
1737.623	14860
1739.774	14745
1741.925	14897
1744.075	14730
1746.225	14853
1748.376	14709
1750.524	14817
1752.672	14702
1754.82	14876
1756.965	14789
1759.113	14906
1761.259	14772
1763.405	14765
1765.549	14890
1767.694	14899
1769.836	15019
1771.981	14841
1774.123	14881
1776.264	14878
1778.405	15028
1780.546	14910
1782.687	14909
1784.827	15064
1786.966	14947
1789.103	14993
1791.242	15104
1793.381	14925
1795.517	14897
1797.653	14950
1799.788	14922
1801.923	14954
1804.057	14986
1806.193	14962
1808.326	14861
1810.457	14866
1812.59	14916
1814.721	15137
1816.855	14890
1818.984	14882
1821.113	14835
1823.244	14807
1825.372	14865
1827.499	14944
1829.63	14868
1831.756	14756
1833.882	14989
1836.007	15102
1838.132	14693
1840.26	14885
1842.384	14713
1844.507	14750
1846.63	14948
1848.752	14737
1850.875	14696
1852.996	14950
1855.118	14792
1857.238	14699
1859.358	14594
1861.477	14701
1863.597	14681
1865.715	14717
1867.832	14722
1869.948	14748
1872.064	14800
1874.181	14823
1876.297	14859
1878.411	14605
1880.526	14735
1882.639	14782
1884.752	14736
1886.865	14884
1888.977	14868
1891.089	14591
1893.2	14927
1895.308	14923
1897.42	14808
1899.53	14831
1901.639	14909
1903.745	14885
1905.853	14874
1907.962	14937
1910.067	14892
1912.174	14867
1914.278	15021
1916.383	14983
1918.486	14960
1920.592	14914
1922.694	15098
1924.797	14983
1926.898	14958
1929	15057
1931.102	14867
1933.203	15007
1935.301	14989
1937.401	14932
1939.499	14933
1941.598	14986
1943.697	15126
1945.793	15278
1947.888	15081
1949.985	14844
1952.08	15049
1954.176	15021
1956.269	14919
1958.364	15102
1960.457	15025
1962.549	15014
1964.642	14825
1966.733	14967
1968.823	14780
1970.913	15134
1973.005	15071
1975.093	14951
1977.184	14918
1979.271	14893
1981.359	14983
1983.446	14907
1985.532	14875
1987.619	14769
1989.705	14899
1991.789	14817
1993.874	14893
1995.956	14692
1998.041	14720
2000.123	14560
2002.206	14914
2004.287	14628
2006.368	14627
2008.449	14794
2010.529	14752
2012.609	14865
2014.688	14720
2016.766	14760
2018.843	14864
2020.922	14681
2022.999	14917
2025.074	14682
2027.15	14705
2029.225	14774
2031.299	14700
2033.375	14758
2035.447	14823
2037.52	14795
2039.592	14587
2041.664	14627
2043.736	14471
2045.807	14843
2047.876	14844
2049.947	14689
2052.015	14688
2054.086	14729
2056.153	14785
2058.221	14795
2060.288	14714
2062.353	14919
2064.42	14781
2066.486	14792
2068.55	14839
2070.614	14733
2072.678	14769
2074.741	14769
2076.805	14681
2078.866	14864
2080.929	14619
2082.99	14737
2085.049	14773
2087.109	14790
2089.17	14783
2091.228	14683
2093.286	14934
2095.344	14716
2097.4	14684
2099.46	14720
2101.516	14744
2103.572	14758
2105.626	14767
2107.679	14687
2109.735	14642
2111.788	14667
2113.841	14726
2115.894	14676
2117.945	14623
2119.997	14713
2122.049	14722
2124.1	14822
2126.148	14611
2128.197	14687
2130.246	14841
2132.296	14593
2134.342	14647
2136.39	14626
2138.437	14658
2140.483	14645
2142.527	14761
2144.574	14531
2146.619	14541
2148.661	14770
2150.705	14591
2152.747	14589
2154.792	14739
2156.832	14597
2158.874	14583
2160.915	14353
2162.954	14508
2164.995	14437
2167.034	14355
2169.072	14381
2171.111	14481
2173.148	14631
2175.186	14751
2177.223	14431
2179.258	14449
2181.294	14506
2183.328	14410
2185.362	14450
2187.398	14381
2189.431	14495
2191.463	14370
2193.495	14497
2195.528	14505
2197.56	14445
2199.59	14295
2201.62	14192
2203.649	14278
2205.678	14337
2207.708	14207
2209.737	14284
2211.764	14261
2213.791	14275
2215.817	14209
2217.843	14189
2219.87	14180
2221.895	14241
2223.919	14110
2225.942	14257
2227.966	14348
2229.988	14107
2232.012	14152
2234.032	14233
2236.054	14160
2238.074	14233
2240.095	14267
2242.116	14192
2244.135	14336
2246.153	14004
2248.171	14361
2250.188	14082
2252.208	14055
2254.223	14255
2256.239	14114
2258.255	14151
2260.269	14175
2262.283	14270
2264.3	14032
2266.312	14134
2268.325	14162
2270.336	14098
2272.349	14224
2274.362	14216
2276.372	14097
2278.383	14156
2280.392	14232
2282.402	14172
2284.409	14114
2286.418	14115
2288.427	14172
2290.433	14168
2292.441	14146
2294.446	14223
2296.453	13972
2298.459	14118
2300.463	14201
2302.466	14095
2304.471	14134
2306.475	14164
2308.477	14084
2310.478	13838
2312.481	14137
2314.481	14176
2316.481	14016
2318.482	13973
2320.482	13850
2322.48	13802
2324.48	13865
2326.478	14033
2328.476	13940
2330.473	13923
2332.469	13961
2334.465	13876
2336.46	14005
2338.454	13857
2340.45	13742
2342.444	13824
2344.437	13864
2346.43	14114
2348.421	13833
2350.414	13892
2352.405	13667
2354.396	13839
2356.386	13900
2358.376	13839
2360.366	13840
2362.355	13723
2364.343	13706
2366.331	13794
2368.317	13755
2370.304	13668
2372.292	13773
2374.278	13664
2376.262	13816
2378.247	13651
2380.23	13560
2382.216	13712
2384.199	13723
2386.181	13712
2388.163	13705
2390.144	13619
2392.127	13695
2394.107	13649
2396.087	13560
2398.066	13546
2400.046	13719
2402.023	13533
2404.004	13642
2405.981	13565
2407.957	13667
2409.934	13455
2411.91	13582
2413.886	13312
2415.862	13387
2417.836	13469
2419.809	13624
2421.784	13599
2423.756	13637
2425.73	13539
2427.701	13463
2429.672	13449
2431.644	13464
2433.615	13530
2435.586	13362
2437.555	13578
2439.523	13510
2441.491	13515
2443.459	13409
2445.428	13621
2447.395	13448
2449.361	13481
2451.327	13482
2453.292	13450
2455.257	13399
2457.223	13585
2459.187	13304
2461.15	13425
2463.113	13138
2465.076	13274
2467.039	13521
2468.999	13471
2470.96	13488
2472.921	13267
2474.881	13381
2476.841	13145
2478.8	13280
2480.759	13308
2482.717	13213
2484.675	13292
2486.63	13188
2488.589	13440
2490.545	13273
2492.5	13233
2494.455	13215
2496.408	13336
2498.364	13349
2500.318	13274
2502.27	13106
2504.223	13212
2506.174	13111
2508.126	13168
2510.078	12955
2512.03	13300
2513.979	13349
2515.927	13076
2517.877	13150
2519.826	13174
2521.775	13209
2523.722	13144
2525.668	13121
2527.616	13152
2529.561	13152
2531.508	13168
2533.452	13112
2535.398	13111
2537.342	13227
2539.284	13108
2541.229	13095
2543.173	13207
2545.114	13000
2547.055	13058
2548.996	13219
2550.938	13121
2552.878	13161
2554.817	13048
2556.756	13128
2558.695	12964
2560.633	13005
2562.572	13047
2564.509	13184
2566.445	13101
2568.382	13113
2570.317	13175
2572.254	12990
2574.189	13335
2576.123	13073
2578.057	13124
2579.99	12970
2581.923	12998
2583.855	12963
2585.788	13192
2587.719	12981
2589.65	13251
2591.579	13104
2593.511	12984
2595.44	12997
2597.37	13135
2599.297	12992
2601.225	13075
2603.153	13069
2605.08	13013
2607.007	13115
2608.932	13103
2610.858	13160
2612.782	13030
2614.709	13305
2616.632	13016
2618.556	13118
2620.478	13048
2622.401	12899
2624.324	13029
2626.247	13074
2628.167	13095
2630.088	13269
2632.008	13148
2633.928	13249
2635.848	13119
2637.766	12974
2639.684	13037
2641.603	13155
2643.519	13271
2645.437	13247
2647.353	13087
2649.27	12860
2651.184	12962
2653.099	13127
2655.014	13047
2656.928	12983
2658.842	13019
2660.755	13081
2662.667	13016
2664.579	13052
2666.491	12991
2668.402	12911
2670.312	12900
2672.222	12871
2674.132	12838
2676.042	12899
2677.951	12846
2679.859	12926
2681.766	12965
2683.674	12928
2685.582	12747
2687.488	13029
2689.392	12953
2691.298	12862
2693.202	12692
2695.107	13016
2697.012	12592
2698.914	13010
2700.817	12758
2702.72	12964
2704.622	12758
2706.524	12688
2708.425	12669
2710.326	12748
2712.225	12748
2714.125	12736
2716.024	12792
2717.923	12881
2719.822	12734
2721.719	12874
2723.616	12628
2725.512	12655
2727.41	12784
2729.305	12789
2731.201	12631
2733.095	12755
2734.99	12448
2736.884	12661
2738.778	12609
2740.67	12682
2742.562	12652
2744.455	12546
2746.346	12548
2748.238	12679
2750.129	12800
2752.018	12664
2753.907	12632
2755.797	12637
2757.687	12671
2759.575	12584
2761.462	12578
2763.349	12563
2765.237	12479
2767.124	12613
2769.009	12497
2770.894	12679
2772.779	12472
2774.663	12715
2776.547	12622
2778.431	12476
2780.314	12490
2782.197	12459
2784.078	12435
2785.96	12468
2787.842	12374
2789.723	12460
2791.603	12335
2793.483	12335
2795.362	12421
2797.241	12501
2799.121	12383
2800.997	12610
2802.874	12412
2804.751	12476
2806.628	12365
2808.506	12505
2810.38	12271
2812.255	12327
2814.13	12417
2816.003	12198
2817.878	12195
2819.752	12265
2821.623	12430
2823.496	12328
2825.368	12337
2827.238	12350
2829.111	12346
2830.98	12241
2832.851	12445
2834.719	12524
2836.589	12310
2838.458	12253
2840.327	12220
2842.193	12253
2844.061	12327
2845.927	12399
2847.794	12239
2849.66	12310
2851.525	12524
2853.39	12301
2855.254	12483
2857.117	12399
2858.983	12447
2860.845	12475
2862.707	12332
2864.569	12425
2866.431	12477
2868.293	12421
2870.154	12652
2872.013	12603
2873.873	12529
2875.733	12637
2877.592	12729
2879.451	12972
2881.309	12840
2883.166	12773
2885.022	13032
2886.879	12882
2888.736	12929
2890.591	12977
2892.446	13086
2894.301	13090
2896.155	12877
2898.009	12992
2899.863	12996
2901.716	12876
2903.568	12885
2905.419	12859
2907.27	12913
2909.123	12877
2910.973	12978
2912.824	13010
2914.673	13142
2916.521	13088
2918.372	13182
2920.22	13025
2922.067	13186
2923.914	13402
2925.761	13197
2927.607	13248
2929.455	13226
2931.301	13402
2933.144	13292
2934.99	13389
2936.833	13459
2938.678	13479
2940.522	13640
2942.364	13773
2944.207	13748
2946.048	13909
2947.891	13965
2949.731	13918
2951.571	13965
2953.412	13941
2955.25	13793
2957.09	13755
2958.93	13582
2960.767	13775
2962.606	13560
2964.443	13438
2966.279	13365
2968.116	13212
2969.953	13107
2971.788	13116
2973.623	12998
2975.457	12886
2977.292	13004
2979.127	12789
2980.959	12885
2982.792	12667
2984.624	12554
2986.455	12568
2988.288	12668
2990.119	12718
2991.949	12572
2993.779	12562
2995.608	12410
2997.439	12462
2999.268	12249
3001.096	12319
3002.923	12239
3004.751	12148
3006.578	11996
3008.406	12075
3010.232	12058
3012.057	11959
3013.883	11874
3015.706	11934
3017.532	11780
3019.356	11839
3021.179	11695
3023.002	11890
3024.823	11694
3026.646	11573
3028.469	11602
3030.289	11629
3032.11	11533
3033.93	11571
3035.749	11701
3037.57	11412
3039.39	11482
3041.207	11590
3043.026	11498
3044.842	11605
3046.661	11382
3048.477	11438
3050.294	11484
3052.109	11452
3053.925	11616
3055.739	11371
3057.555	11264
3059.368	11384
3061.181	11322
3062.995	11522
3064.807	11506
3066.62	11444
3068.433	11555
3070.243	11409
3072.054	11301
3073.865	11352
3075.675	11265
3077.485	11294
3079.293	11181
3081.102	11332
3082.911	11294
3084.719	11166
3086.527	11324
3088.333	11197
3090.139	11220
3091.945	11111
3093.75	11012
3095.557	11133
3097.361	11033
3099.165	11149
3100.969	11102
3102.772	10936
3104.575	11048
3106.379	11000
3108.181	10993
3109.982	11019
3111.783	10946
3113.584	11025
3115.386	10928
3117.186	11033
3118.985	10938
3120.783	10903
3122.582	10921
3124.381	10955
3126.179	10902
3127.975	10738
3129.772	10979
3131.569	10808
3133.365	10807
3135.161	10834
3136.956	10823
3138.751	10824
3140.544	10823
3142.338	10790
3144.132	10664
3145.925	10944
3147.717	10741
3149.509	10755
3151.301	10728
3153.091	10640
3154.884	10676
3156.673	10607
3158.462	10602
3160.252	10702
3162.041	10589
3163.831	10699
3165.618	10675
3167.405	10682
3169.193	10705
3170.979	10699
3172.767	10540
3174.553	10445
3176.338	10610
3178.123	10517
3179.907	10543
3181.692	10551
3183.477	10523
3185.259	10554
3187.042	10427
3188.824	10490
3190.607	10429
3192.389	10554
3194.17	10379
3195.951	10616
3197.73	10521
3199.51	10476
3201.289	10362
3203.07	10368
3204.848	10515
3206.626	10461
3208.403	10354
3210.18	10463
3211.959	10442
3213.735	10423
3215.511	10408
3217.285	10493
3219.06	10424
3220.836	10431
3222.611	10318
3224.384	10326
3226.158	10425
3227.929	10357
3229.702	10377
3231.476	10397
3233.248	10393
3235.018	10238
3236.789	10328
3238.56	10179
3240.33	10299
3242.1	10302
3243.869	10299
3245.637	10347
3247.405	10266
3249.172	10381
3250.941	10362
3252.707	10285
3254.474	10381
3256.24	10344
3258.006	10395
3259.772	10320
3261.537	10195
3263.301	10244
3265.065	10310
3266.828	10281
3268.592	10330
3270.355	10301
3272.117	10145
3273.878	10165
3275.64	10261
3277.401	10301
3279.162	10121
3280.922	10443
3282.682	10268
3284.441	10291
3286.199	10386
3287.959	10333
3289.716	10356
3291.475	10354
3293.232	10323
3294.988	10091
3296.744	10096
3298.501	10153
3300.256	10129
3302.011	10079
3303.766	10116
3305.52	10155
3307.275	10131
3309.028	10377
3310.781	10287
3312.533	10111
3314.285	10157
3316.038	10192
3317.789	10092
3319.54	10182
3321.289	10033
3323.039	10249
3324.789	10188
3326.539	10022
3328.288	10113
3330.035	10201
3331.783	10065
3333.531	10061
3335.28	10138
3337.025	10141
3338.771	9959
3340.518	9977
3342.262	9870
3344.009	10205
3345.753	9974
3347.497	9967
3349.24	9955
3350.983	9967
3352.726	10077
3354.469	9917
3356.212	9860
3357.952	9908
3359.694	9855
3361.434	9962
3363.176	9862
3364.916	9886
3366.654	9854
3368.394	9979
3370.132	9907
3371.871	9871
3373.61	9846
3375.346	9899
3377.083	9802
3378.82	9844
3380.556	9816
3382.292	9831
3384.027	9861
3385.763	9665
3387.497	9753
3389.231	9884
3390.965	9694
3392.698	9689
3394.431	9745
3396.164	9629
3397.896	9706
3399.627	9776
3401.36	9740
3403.09	9635
3404.82	9685
3406.55	9581
3408.279	9660
3410.01	9711
3411.738	9715
3413.467	9700
3415.194	9644
3416.92	9655
3418.647	9656
3420.375	9456
3422.102	9538
3423.827	9641
3425.553	9596
3427.277	9595
3429.003	9553
3430.727	9529
3432.451	9577
3434.173	9448
3435.896	9465
3437.62	9530
3439.343	9419
3441.063	9431
3442.785	9533
3444.505	9349
3446.226	9461
3447.948	9360
3449.666	9447
3451.386	9428
3453.104	9307
3454.823	9426
3456.541	9355
3458.259	9238
3459.976	9306
3461.693	9267
3463.408	9309
3465.125	9445
3466.841	9064
3468.556	9364
3470.271	9132
3471.985	9171
3473.698	9245
3475.414	9302
3477.126	9243
3478.838	9221
3480.55	9102
3482.263	9084
3483.975	9153
3485.686	9161
3487.396	9217
3489.106	9177
3490.817	9174
3492.526	9142
3494.236	9195
3495.944	9102
3497.652	9157
3499.359	9003
3501.066	9019
3502.775	9076
3504.481	9043
3506.187	9014
3507.893	9013
3509.598	8951
3511.304	9044
3513.009	8786
3514.713	8988
3516.417	9043
3518.12	9018
3519.821	9005
3521.525	8972
3523.228	8866
3524.929	8978
3526.631	8969
3528.33	8827
3530.032	8883
3531.733	8990
3533.433	8901
3535.131	8782
3536.83	8847
3538.529	8850
3540.227	8675
3541.925	8867
3543.623	8837
3545.319	8832
3547.016	8757
3548.712	8843
3550.408	8685
3552.103	8743
3553.798	8656
3555.491	8801
3557.188	8660
3558.88	8704
3560.574	8676
3562.266	8754
3563.959	8618
3565.651	8643
3567.343	8684
3569.035	8621
3570.725	8744
3572.415	8785
3574.106	8743
3575.797	8574
3577.485	8808
3579.174	8759
3580.863	8601
3582.551	8518
3584.238	8614
3585.926	8504
3587.613	8642
3589.3	8549
3590.986	8614
3592.671	8550
3594.357	8439
3596.042	8510
3597.726	8397
3599.41	8626
3601.094	8371
3602.778	8413
3604.461	8311
3606.143	8365
3607.825	8424
3609.507	8298
3611.188	8349
3612.87	8484
3614.551	8382
3616.229	8391
3617.909	8272
3619.589	8237
3621.269	8395
3622.948	8285
3624.625	8262
3626.302	8253
3627.98	8262
3629.657	8308
3631.334	8398
3633.01	8224
3634.686	8239
3636.361	8051
3638.036	8211
3639.712	8262
3641.385	8208
3643.06	8114
3644.732	8073
3646.405	8070
3648.08	8168
3649.751	8050
3651.424	8035
3653.094	8188
3654.766	8024
3656.436	7991
3658.106	8116
3659.777	8068
3661.446	7956
3663.115	8193
3664.783	8056
3666.452	8031
3668.121	7952
3669.788	8015
3671.454	8009
3673.121	7876
3674.789	8016
3676.455	7966
3678.12	7971
3679.784	7976
3681.45	7992
3683.114	7983
3684.779	8004
3686.442	8083
3688.105	7888
3689.768	7833
3691.43	7918
3693.093	7831
3694.754	7973
3696.415	7857
3698.076	7832
3699.736	7864
3701.396	8006
3703.057	7872
3704.716	7814
3706.375	7878
3708.034	7879
3709.692	7837
3711.351	7843
3713.008	7816
3714.665	7842
3716.321	7754
3717.977	7834
3719.634	7999
3721.29	7742
3722.945	7878
3724.598	7789
3726.253	7909
3727.907	7708
3729.561	7781
3731.214	7754
3732.867	7792
3734.518	7795
3736.171	7825
3737.824	7687
3739.474	7628
3741.125	7713
3742.775	7665
3744.425	7634
3746.074	7712
3747.725	7702
3749.373	7737
3751.022	7559
3752.669	7627
3754.318	7669
3755.966	7585
3757.612	7566
3759.259	7559
3760.905	7613
3762.55	7627
3764.197	7456
3765.842	7635
3767.486	7591
3769.131	7559
3770.774	7614
3772.417	7546
3774.061	7491
3775.705	7505
3777.347	7468
3778.988	7413
3780.629	7407
3782.271	7436
3783.912	7525
3785.552	7562
3787.192	7390
3788.831	7491
3790.472	7375
3792.112	7389
3793.75	7441
3795.388	7409
3797.024	7477
3798.661	7486
3800.3	7377
3801.936	7418
3803.572	7441
3805.208	7371
3806.844	7364
3808.48	7368
3810.115	7393
3811.748	7236
3813.382	7361
3815.016	7384
3816.649	7377
3818.283	7482
3819.914	7240
3821.547	7212
3823.178	7230
3824.809	7252
3826.441	7277
3828.072	7215
3829.701	7265
3831.331	7165
3832.96	7255
3834.591	7201
3836.219	7241
3837.847	7179
3839.475	7186
3841.102	7175
3842.729	7159
3844.357	7313
3845.984	7195
3847.609	7117
3849.234	7097
3850.86	7169
3852.485	7061
3854.11	7108
3855.734	7114
3857.357	7005
3858.981	7238
3860.603	6925
3862.227	7127
3863.848	7136
3865.471	7088
3867.092	6984
3868.713	7055
3870.334	6947
3871.954	7095
3873.575	7036
3875.194	6934
3876.813	7162
3878.433	7130
3880.051	6942
3881.669	7071
3883.286	7070
3884.904	7081
3886.52	6907
3888.138	6904
3889.754	6970
3891.37	7096
3892.985	6970
3894.6	6894
3896.216	6873
3897.831	6961
3899.444	6769
3901.058	7096
3902.67	6886
3904.283	6898
3905.897	6850
3907.509	6808
3909.121	6875
3910.731	6862
3912.342	6860
3913.954	6891
3915.563	6833
3917.174	6995
3918.783	6910
3920.391	6921
3922.002	6890
3923.611	6852
3925.218	6808
3926.826	6835
3928.432	6778
3930.039	6689
3931.647	6868
3933.253	6785
3934.859	6848
3936.464	6821
3938.068	6813
3939.675	6815
3941.278	6685
3942.883	6694
3944.486	6832
3946.089	6827
3947.692	6836
3949.295	6755
3950.898	6803
3952.499	6725
3954.1	6795
3955.7	6775
3957.303	6775
3958.903	6695
3960.502	6661
3962.101	6673
3963.7	6688
3965.301	6717
3966.899	6627
3968.497	6582
3970.094	6657
3971.691	6605
3973.288	6677
3974.885	6661
3976.481	6631
3978.077	6674
3979.672	6565
3981.267	6646
3982.863	6660
3984.457	6642
3986.051	6460
3987.645	6575
3989.238	6433
3990.831	6494
3992.425	6462
3994.017	6355
3995.607	6577
3997.199	6622
3998.79	6512
4000.382	6430
4001.973	6380
4003.561	6439
4005.151	6428
4006.741	6486
4008.331	6399
4009.918	6413
4011.507	6470
4013.095	6436
4014.681	6343
4016.269	6482
4017.856	6283
4019.443	6433
4021.028	6326
4022.614	6323
4024.199	6318
4025.785	6362
4027.37	6295
4028.953	6238
4030.536	6218
4032.12	6276
4033.704	6236
4035.287	6288
4036.869	6308
4038.45	6279
4040.032	6143
4041.613	6313
4043.195	6304
4044.776	6139
4046.356	6281
4047.935	6331
4049.515	6196
4051.095	6108
4052.674	6330
4054.251	6246
4055.829	6107
4057.406	6169
4058.985	6189
4060.562	6064
4062.139	6165
4063.715	6098
4065.29	6013
4066.865	6172
4068.442	6139
4070.016	6082
4071.59	6105
4073.164	6150
4074.738	6172
4076.312	6043
4077.885	6123
4079.458	6024
4081.03	6032
4082.602	6059
4084.173	6016
4085.745	6092
4087.315	6149
4088.886	6045
4090.456	6114
4092.026	6100
4093.596	6026
4095.165	5999
4096.734	6025
4098.301	6059
4099.869	6002
4101.437	5948
4103.006	6002
4104.572	6050
4106.139	5958
4107.704	6011
4109.27	5861
4110.837	6018
4112.401	5950
4113.966	5948
4115.53	5931
4117.094	5963
4118.659	5841
4120.223	5879
4121.785	5904
4123.347	5834
4124.909	5759
4126.471	5890
4128.034	5931
4129.595	5764
4131.155	5911
4132.716	5885
4134.275	5893
4135.836	5780
4137.395	5858
4138.955	5686
4140.513	5826
4142.071	5717
4143.628	5859
4145.188	5816
4146.745	5813
4148.302	5796
4149.858	5728
4151.414	5764
4152.971	5682
4154.526	5671
4156.081	5686
4157.635	5708
4159.189	5597
4160.745	5650
4162.298	5699
4163.852	5622
4165.405	5736
4166.957	5647
4168.51	5632
4170.063	5612
4171.614	5528
4173.166	5641
4174.717	5690
4176.267	5622
4177.817	5614
4179.368	5502
4180.917	5513
4182.466	5424
4184.016	5659
4185.564	5572
4187.112	5636
4188.66	5635
4190.207	5566
4191.754	5547
4193.301	5523
4194.848	5538
4196.394	5446
4197.94	5553
4199.484	5560
4201.03	5469
4202.575	5379
4204.12	5437
4205.663	5519
4207.207	5464
4208.75	5406
4210.292	5496
4211.836	5436
4213.378	5537
4214.92	5470
4216.46	5474
4218.002	5476
4219.544	5401
4221.083	5435
4222.625	5419
4224.164	5418
4225.703	5324
4227.244	5428
4228.782	5355
4230.32	5415
4231.857	5439
4233.395	5304
4234.933	5361
4236.471	5389
4238.007	5377
4239.542	5342
4241.078	5387
4242.614	5378
4244.15	5366
4245.685	5296
4247.219	5318
4248.753	5259
4250.287	5396
4251.82	5303
4253.354	5255
4254.887	5366
4256.419	5236
4257.951	5230
4259.483	5292
4261.016	5274
4262.547	5221
4264.078	5379
4265.608	5296
4267.137	5159
4268.668	5273
4270.197	5234
4271.727	5221
4273.254	5171
4274.783	5315
4276.311	5119
4277.84	5263
4279.366	5229
4280.894	5192
4282.42	5161
4283.946	5275
4285.473	5273
4286.998	5198
4288.523	5276
4290.047	5158
4291.572	5162
4293.096	5118
4294.622	5189
4296.144	5143
4297.668	5116
4299.19	5097
4300.713	5176
4302.236	5124
4303.758	5084
4305.279	5160
4306.799	5023
4308.321	5124
4309.842	5072
4311.361	5101
4312.882	4953
4314.401	5055
