400.0961	3680
402.6185	3762
405.1424	3768
407.6635	3796
410.1838	3816
412.7035	3783
415.2225	3867
417.7388	3868
420.2585	3873
422.7754	3911
425.2917	3925
427.8072	3956
430.3221	4026
432.8363	4007
435.3498	3970
437.8626	3967
440.3727	4054
442.8841	4116
445.3969	4001
447.907	4029
450.4142	4014
452.9229	3966
455.4289	3961
457.9362	4001
460.4449	4079
462.9488	4044
465.454	3944
467.9566	3993
470.4604	4011
472.9637	4041
475.4662	3946
477.966	4058
480.4671	3923
482.9656	4010
485.4633	4043
487.9645	4033
490.4608	3961
492.9566	4061
495.4536	4165
497.948	4071
500.4437	4104
502.9387	4038
505.431	4077
507.9226	4055
510.4136	4127
512.9079	4201
515.3975	4196
517.8864	4146
520.3746	4117
522.8622	4154
525.3491	4170
527.8394	4174
530.3249	4080
532.8098	4141
535.2939	4142
537.7774	4169
540.2623	4104
542.7444	4082
545.2259	4190
547.7067	4151
550.1868	4162
552.6683	4224
555.147	4253
557.6231	4186
560.1005	4164
562.5773	4219
565.0534	4247
567.5308	4316
570.0056	4298
572.4776	4270
574.951	4212
577.4237	4292
579.8978	4320
582.3671	4385
584.8378	4350
587.3079	4311
589.7773	4381
592.244	4363
594.714	4341
597.1793	4203
599.6461	4379
602.1121	4339
604.5754	4196
607.0421	4380
609.5042	4328
611.9675	4278
614.4282	4335
616.8902	4263
619.3515	4354
621.8122	4364
624.2702	4218
626.7296	4263
629.1863	4262
631.6423	4303
634.1017	4302
636.5563	4295
639.0104	4296
641.4658	4255
643.9185	4352
646.3725	4339
648.8239	4249
651.2766	4321
653.7266	4441
656.176	4388
658.6247	4340
661.0748	4295
663.5242	4371
665.9709	4348
668.417	4447
670.8624	4394
673.3092	4390
675.7533	4396
678.1968	4439
680.6395	4516
683.0817	4362
685.5251	4376
687.9659	4462
690.4061	4492
692.8456	4495
695.2844	4495
697.7226	4473
700.1621	4423
702.599	4458
705.0332	4431
707.4688	4495
709.9036	4525
712.3399	4577
714.7735	4509
717.2044	4563
719.6367	4558
722.0683	4583
724.4993	4613
726.9296	4612
729.3593	4573
731.7883	4628
734.2147	4535
736.6423	4631
739.0714	4661
741.4958	4607
743.9216	4725
746.3447	4664
748.7691	4666
751.1929	4670
753.616	4729
756.0366	4783
758.4584	4734
760.8776	4827
763.2982	4666
765.718	4695
768.1373	4760
770.5539	4821
772.9698	4782
775.3871	4713
777.8038	4794
780.2178	4828
782.6332	4842
785.0459	4737
787.458	4837
789.8714	4732
792.2842	4877
794.6943	4752
797.1038	4812
799.5127	4913
801.9209	4806
804.3324	4840
806.7393	4916
809.1456	4796
811.5513	4896
813.9562	4848
816.3625	4887
818.7663	4872
821.1693	4911
823.5718	4847
825.9735	4820
828.3746	4881
830.7771	4850
833.177	4817
835.5762	4949
837.9747	4845
840.3727	4925
842.772	4913
845.1666	4910
847.5626	4993
849.958	4882
852.3527	5002
854.7488	4927
857.1403	5076
859.5331	5071
861.9253	5008
864.3168	4983
866.7057	5024
869.098	4982
871.4876	5024
873.8746	5026
876.263	4910
878.6487	5030
881.0378	4983
883.4243	4933
885.8081	4900
888.1933	4939
890.5759	4971
892.9598	4950
895.343	4950
897.7256	4983
900.1057	5050
902.4871	5001
904.8659	4917
907.246	4962
909.6254	5027
912.0023	4983
914.3786	5104
916.7562	5093
919.1331	5228
921.5074	5224
923.8831	5281
926.2562	5327
928.6287	5225
931.0005	5301
933.3757	5301
935.7462	5186
938.1162	5346
940.4855	5367
942.8542	5377
945.2242	5410
947.5916	5423
949.9584	5538
952.3266	5596
954.6921	5863
957.0571	6043
959.4233	6106
961.787	6289
964.15	6242
966.5125	6067
968.8742	6036
971.2354	5787
973.5959	5511
975.9559	5541
978.3151	5252
980.6738	5285
983.0338	5289
985.3912	5245
987.7461	5188
990.1022	5161
992.4578	5147
994.8127	5276
997.1689	5068
999.5207	5192
1001.874	5205
1004.226	5162
1006.576	5163
1008.929	5192
1011.28	5154
1013.628	5133
1015.977	5248
1018.324	5127
1020.674	5152
1023.019	5235
1025.366	5192
1027.713	5154
1030.056	5206
1032.399	5231
1034.746	5218
1037.087	5224
1039.431	5277
1041.771	5336
1044.113	5361
1046.454	5334
1048.793	5376
1051.133	5360
1053.471	5325
1055.807	5252
1058.146	5246
1060.483	5379
1062.818	5356
1065.153	5305
1067.489	5333
1069.822	5370
1072.156	5285
1074.488	5420
1076.82	5387
1079.15	5267
1081.48	5309
1083.814	5358
1086.143	5281
1088.471	5299
1090.799	5378
1093.126	5199
1095.452	5310
1097.78	5245
1100.105	5287
1102.43	5316
1104.754	5266
1107.077	5425
1109.4	5238
1111.722	5426
1114.044	5288
1116.365	5173
1118.685	5248
1121.005	5328
1123.324	5353
1125.643	5347
1127.961	5365
1130.278	5356
1132.595	5354
1134.911	5343
1137.226	5292
1139.541	5391
1141.854	5356
1144.167	5385
1146.482	5398
1148.793	5361
1151.105	5248
1153.414	5315
1155.725	5358
1158.033	5351
1160.344	5244
1162.651	5408
1164.959	5307
1167.265	5305
1169.572	5319
1171.878	5290
1174.184	5322
1176.488	5245
1178.79	5320
1181.094	5362
1183.396	5277
1185.699	5327
1188.001	5306
1190.301	5420
1192.6	5360
1194.9	5443
1197.2	5317
1199.497	5330
1201.794	5220
1204.09	5227
1206.387	5356
1208.684	5270
1210.978	5365
1213.272	5272
1215.565	5376
1217.858	5333
1220.15	5383
1222.443	5337
1224.734	5372
1227.024	5451
1229.313	5487
1231.602	5432
1233.892	5391
1236.18	5555
1238.467	5454
1240.754	5420
1243.04	5539
1245.325	5574
1247.612	5603
1249.896	5509
1252.178	5548
1254.461	5582
1256.743	5608
1259.027	5617
1261.308	5617
1263.587	5532
1265.867	5505
1268.146	5628
1270.425	5648
1272.703	5494
1274.981	5500
1277.256	5489
1279.532	5582
1281.808	5621
1284.083	5528
1286.358	5553
1288.63	5485
1290.904	5514
1293.175	5479
1295.449	5509
1297.719	5518
1299.99	5465
1302.259	5513
1304.529	5420
1306.798	5536
1309.065	5555
1311.333	5539
1313.599	5349
1315.866	5451
1318.131	5560
1320.396	5636
1322.66	5524
1324.925	5405
1327.187	5470
1329.448	5569
1331.711	5557
1333.974	5574
1336.234	5434
1338.493	5512
1340.752	5427
1343.01	5428
1345.269	5505
1347.526	5537
1349.784	5365
1352.04	5474
1354.295	5543
1356.552	5479
1358.806	5415
1361.059	5454
1363.312	5547
1365.564	5510
1367.818	5561
1370.069	5492
1372.318	5595
1374.568	5521
1376.817	5461
1379.066	5574
1381.316	5541
1383.564	5555
1385.809	5576
1388.056	5560
1390.301	5652
1392.549	5668
1394.793	5745
1397.036	5776
1399.279	5631
1401.522	5813
1403.763	5753
1406.007	5743
1408.248	5645
1410.487	5780
1412.727	5749
1414.965	5719
1417.205	5740
1419.442	5726
1421.68	5609
1423.915	5718
1426.152	5679
1428.388	5792
1430.623	5686
1432.857	5790
1435.091	5735
1437.323	5779
1439.556	5800
1441.789	5734
1444.019	5622
1446.25	5786
1448.48	5822
1450.708	5779
1452.938	5912
1455.167	5772
1457.394	5804
1459.62	5814
1461.846	5768
1464.073	5811
1466.299	5730
1468.523	5758
1470.746	5862
1472.969	5646
1475.191	5664
1477.415	5540
1479.636	5685
1481.858	5607
1484.078	5524
1486.298	5614
1488.518	5645
1490.736	5555
1492.954	5502
1495.169	5469
1497.386	5626
1499.602	5565
1501.819	5515
1504.034	5604
1506.248	5551
1508.462	5475
1510.675	5539
1512.888	5511
1515.1	5502
1517.311	5516
1519.522	5489
1521.732	5490
1523.942	5559
1526.151	5421
1528.36	5450
1530.566	5483
1532.773	5471
1534.98	5562
1537.187	5490
1539.392	5541
1541.596	5494
1543.801	5432
1546.005	5546
1548.208	5540
1550.411	5623
1552.612	5546
1554.814	5457
1557.013	5604
1559.212	5645
1561.414	5655
1563.612	5572
1565.811	5598
1568.007	5614
1570.203	5637
1572.403	5633
1574.598	5662
1576.792	5642
1578.988	5673
1581.181	5625
1583.376	5573
1585.568	5693
1587.761	5734
1589.952	5663
1592.143	5731
1594.333	5679
1596.524	5671
1598.715	5671
1600.903	5775
1603.091	5669
1605.278	5681
1607.466	5661
1609.652	5730
1611.838	5733
1614.023	5719
1616.207	5730
1618.391	5778
1620.576	5732
1622.759	5728
1624.941	5748
1627.123	5638
1629.304	5755
1631.484	5733
1633.664	5831
1635.844	5745
1638.022	5833
1640.201	5737
1642.38	5864
1644.556	5732
1646.732	5823
1648.908	5777
1651.084	5829
1653.257	5731
1655.433	5685
1657.607	5738
1659.779	5823
1661.951	5840
1664.122	5768
1666.295	5778
1668.467	5905
1670.635	5827
1672.805	5734
1674.973	5840
1677.142	5787
1679.31	5769
1681.478	5752
1683.644	5901
1685.81	5829
1687.975	5776
1690.142	5817
1692.305	5814
1694.468	5869
1696.632	5781
1698.794	5730
1700.957	5600
1703.119	5776
1705.279	5684
1707.439	5786
1709.598	5753
1711.758	5752
1713.917	5772
1716.075	5656
1718.231	5739
1720.388	5686
1722.543	5662
1724.702	5593
1726.856	5682
1729.01	5669
1731.164	5728
1733.317	5672
1735.471	5710
1737.623	5729
1739.774	5707
1741.925	5715
1744.075	5672
1746.225	5726
1748.376	5582
1750.524	5640
1752.672	5710
1754.82	5689
1756.965	5677
1759.113	5668
1761.259	5711
1763.405	5598
1765.549	5728
1767.694	5685
1769.836	5718
1771.981	5699
1774.123	5805
1776.264	5606
1778.405	5727
1780.546	5734
1782.687	5753
1784.827	5672
1786.966	5713
1789.103	5707
1791.242	5794
1793.381	5674
1795.517	5684
1797.653	5651
1799.788	5791
1801.923	5797
1804.057	5814
1806.193	5678
1808.326	5753
1810.457	5685
1812.59	5780
1814.721	5869
1816.855	5786
1818.984	5821
1821.113	5825
1823.244	5651
1825.372	5705
1827.499	5617
1829.63	5774
1831.756	5756
1833.882	5630
1836.007	5783
1838.132	5725
1840.26	5822
1842.384	5740
1844.507	5695
1846.63	5734
1848.752	5607
1850.875	5689
1852.996	5641
1855.118	5639
1857.238	5720
1859.358	5766
1861.477	5646
1863.597	5631
1865.715	5699
1867.832	5722
1869.948	5564
1872.064	5687
1874.181	5693
1876.297	5723
1878.411	5718
1880.526	5633
1882.639	5679
1884.752	5709
1886.865	5726
1888.977	5711
1891.089	5652
1893.2	5753
1895.308	5708
1897.42	5803
1899.53	5771
1901.639	5828
1903.745	5740
1905.853	5822
1907.962	5786
1910.067	5748
1912.174	5824
1914.278	5763
1916.383	5790
1918.486	5738
1920.592	5737
1922.694	5744
1924.797	5826
1926.898	5617
1929	5801
1931.102	5864
1933.203	5890
1935.301	5730
1937.401	5799
1939.499	5727
1941.598	5828
1943.697	5837
1945.793	5860
1947.888	5754
1949.985	5825
1952.08	5766
1954.176	5730
1956.269	5694
1958.364	5773
1960.457	5814
1962.549	5749
1964.642	5743
1966.733	5809
1968.823	5692
1970.913	5812
1973.005	5770
1975.093	5781
1977.184	5671
1979.271	5774
1981.359	5715
1983.446	5663
1985.532	5710
1987.619	5786
1989.705	5837
1991.789	5756
1993.874	5706
1995.956	5763
1998.041	5773
2000.123	5757
2002.206	5713
2004.287	5754
2006.368	5651
2008.449	5666
2010.529	5613
2012.609	5628
2014.688	5734
2016.766	5781
2018.843	5686
2020.922	5667
2022.999	5765
2025.074	5693
2027.15	5773
2029.225	5804
2031.299	5664
2033.375	5567
2035.447	5756
2037.52	5701
2039.592	5671
2041.664	5669
2043.736	5755
2045.807	5698
2047.876	5636
2049.947	5696
2052.015	5782
2054.086	5734
2056.153	5608
2058.221	5780
2060.288	5784
2062.353	5721
2064.42	5772
2066.486	5665
2068.55	5769
2070.614	5695
2072.678	5707
2074.741	5582
2076.805	5782
2078.866	5717
2080.929	5652
2082.99	5733
2085.049	5686
2087.109	5617
2089.17	5714
2091.228	5678
2093.286	5692
2095.344	5783
2097.4	5659
2099.46	5671
2101.516	5682
2103.572	5746
2105.626	5653
2107.679	5633
2109.735	5663
2111.788	5544
2113.841	5744
2115.894	5665
2117.945	5670
2119.997	5655
2122.049	5704
2124.1	5867
2126.148	5719
2128.197	5651
2130.246	5662
2132.296	5653
2134.342	5671
2136.39	5761
2138.437	5694
2140.483	5678
2142.527	5609
2144.574	5606
2146.619	5670
2148.661	5726
2150.705	5699
2152.747	5591
2154.792	5645
2156.832	5629
2158.874	5569
2160.915	5681
2162.954	5694
2164.995	5703
2167.034	5701
2169.072	5664
2171.111	5596
2173.148	5640
2175.186	5601
2177.223	5531
2179.258	5610
2181.294	5678
2183.328	5557
2185.362	5613
2187.398	5597
2189.431	5489
2191.463	5587
2193.495	5647
2195.528	5598
2197.56	5514
2199.59	5625
2201.62	5528
2203.649	5604
2205.678	5569
2207.708	5614
2209.737	5602
2211.764	5493
2213.791	5600
2215.817	5526
2217.843	5550
2219.87	5595
2221.895	5617
2223.919	5616
2225.942	5632
2227.966	5580
2229.988	5443
2232.012	5487
2234.032	5566
2236.054	5496
2238.074	5462
2240.095	5421
2242.116	5603
2244.135	5410
2246.153	5591
2248.171	5534
2250.188	5588
2252.208	5567
2254.223	5546
2256.239	5606
2258.255	5631
2260.269	5580
2262.283	5493
2264.3	5559
2266.312	5432
2268.325	5469
2270.336	5558
2272.349	5601
2274.362	5530
2276.372	5516
2278.383	5480
2280.392	5569
2282.402	5576
2284.409	5485
2286.418	5627
2288.427	5602
2290.433	5562
2292.441	5513
2294.446	5492
2296.453	5476
2298.459	5489
2300.463	5625
2302.466	5487
2304.471	5544
2306.475	5486
2308.477	5459
2310.478	5471
2312.481	5527
2314.481	5555
2316.481	5531
2318.482	5402
2320.482	5420
2322.48	5493
2324.48	5474
2326.478	5487
2328.476	5436
2330.473	5517
2332.469	5539
2334.465	5463
2336.46	5456
2338.454	5465
2340.45	5438
2342.444	5437
2344.437	5445
2346.43	5426
2348.421	5450
2350.414	5412
2352.405	5437
2354.396	5368
2356.386	5470
2358.376	5426
2360.366	5362
2362.355	5489
2364.343	5425
2366.331	5471
2368.317	5432
2370.304	5308
2372.292	5357
2374.278	5396
2376.262	5343
2378.247	5333
2380.23	5470
2382.216	5472
2384.199	5374
2386.181	5453
2388.163	5342
2390.144	5321
2392.127	5449
2394.107	5358
2396.087	5327
2398.066	5350
2400.046	5335
2402.023	5278
2404.004	5322
2405.981	5323
2407.957	5330
2409.934	5268
2411.91	5421
2413.886	5282
2415.862	5417
2417.836	5246
2419.809	5369
2421.784	5216
2423.756	5325
2425.73	5339
2427.701	5301
2429.672	5363
2431.644	5375
2433.615	5393
2435.586	5269
2437.555	5398
2439.523	5329
2441.491	5391
2443.459	5341
2445.428	5303
2447.395	5273
2449.361	5386
2451.327	5274
2453.292	5378
2455.257	5246
2457.223	5237
2459.187	5362
2461.15	5255
2463.113	5407
2465.076	5229
2467.039	5174
2468.999	5274
2470.96	5182
2472.921	5246
2474.881	5222
2476.841	5316
2478.8	5280
2480.759	5300
2482.717	5233
2484.675	5290
2486.63	5293
2488.589	5311
2490.545	5252
2492.5	5217
2494.455	5199
2496.408	5294
2498.364	5224
2500.318	5221
2502.27	5243
2504.223	5298
2506.174	5264
2508.126	5164
2510.078	5261
2512.03	5344
2513.979	5196
2515.927	5190
2517.877	5249
2519.826	5323
2521.775	5188
2523.722	5207
2525.668	5218
2527.616	5234
2529.561	5186
2531.508	5142
2533.452	5124
2535.398	5153
2537.342	5270
2539.284	5255
2541.229	5362
2543.173	5246
2545.114	5172
2547.055	5196
2548.996	5163
2550.938	5115
2552.878	5159
2554.817	5200
2556.756	5226
2558.695	5296
2560.633	5216
2562.572	5204
2564.509	5275
2566.445	5238
2568.382	5228
2570.317	5225
2572.254	5061
2574.189	5136
2576.123	5202
2578.057	5148
2579.99	5154
2581.923	5262
2583.855	5095
2585.788	5181
2587.719	5134
2589.65	5200
2591.579	5244
2593.511	5160
2595.44	5160
2597.37	5163
2599.297	5227
2601.225	5185
2603.153	5168
2605.08	5098
2607.007	5223
2608.932	5168
2610.858	5172
2612.782	5226
2614.709	5153
2616.632	5221
2618.556	5159
2620.478	5190
2622.401	5192
2624.324	5182
2626.247	5183
2628.167	5169
2630.088	5264
2632.008	5192
2633.928	5185
2635.848	5175
2637.766	5240
2639.684	5132
2641.603	5271
2643.519	5192
2645.437	5161
2647.353	5234
2649.27	5252
2651.184	5173
2653.099	5214
2655.014	5183
2656.928	5167
2658.842	5173
2660.755	5237
2662.667	5162
2664.579	5044
2666.491	5251
2668.402	5205
2670.312	5218
2672.222	5138
2674.132	5221
2676.042	5173
2677.951	5158
2679.859	5245
2681.766	5121
2683.674	5048
2685.582	5111
2687.488	5151
2689.392	5187
2691.298	5130
2693.202	5170
2695.107	5050
2697.012	5141
2698.914	5139
2700.817	5115
2702.72	5079
2704.622	5008
2706.524	5120
2708.425	5065
2710.326	4947
2712.225	5159
2714.125	5083
2716.024	5235
2717.923	5061
2719.822	5052
2721.719	5153
2723.616	5089
2725.512	5061
2727.41	5071
2729.305	5119
2731.201	4957
2733.095	5127
2734.99	5123
2736.884	5035
2738.778	5106
2740.67	5116
2742.562	4994
2744.455	5034
2746.346	5051
2748.238	5042
2750.129	4996
2752.018	5056
2753.907	4934
2755.797	5018
2757.687	5042
2759.575	5050
2761.462	5018
2763.349	5049
2765.237	5070
2767.124	4905
2769.009	5002
2770.894	5018
2772.779	5033
2774.663	5075
2776.547	5024
2778.431	5045
2780.314	5059
2782.197	5069
2784.078	5106
2785.96	4949
2787.842	5026
2789.723	4945
2791.603	5008
2793.483	4966
2795.362	5001
2797.241	5095
2799.121	4922
2800.997	5012
2802.874	4999
2804.751	4985
2806.628	5035
2808.506	5020
2810.38	4916
2812.255	4958
2814.13	5036
2816.003	4964
2817.878	4978
2819.752	5018
2821.623	5023
2823.496	5002
2825.368	4984
2827.238	4916
2829.111	4912
2830.98	4953
2832.851	5039
2834.719	5023
2836.589	5001
2838.458	4982
2840.327	5018
2842.193	4937
2844.061	5116
2845.927	5107
2847.794	5007
2849.66	4928
2851.525	5027
2853.39	4976
2855.254	5049
2857.117	5072
2858.983	5119
2860.845	5143
2862.707	5153
2864.569	5168
2866.431	5195
2868.293	5126
2870.154	5189
2872.013	5217
2873.873	5230
2875.733	5307
2877.592	5338
2879.451	5418
2881.309	5366
2883.166	5418
2885.022	5337
2886.879	5433
2888.736	5480
2890.591	5525
2892.446	5535
2894.301	5490
2896.155	5483
2898.009	5494
2899.863	5473
2901.716	5475
2903.568	5453
2905.419	5412
2907.27	5405
2909.123	5552
2910.973	5513
2912.824	5581
2914.673	5551
2916.521	5548
2918.372	5643
2920.22	5724
2922.067	5628
2923.914	5754
2925.761	5737
2927.607	5791
2929.455	5893
2931.301	5999
2933.144	5935
2934.99	5954
2936.833	6146
2938.678	6027
2940.522	5981
2942.364	6102
2944.207	6081
2946.048	6266
2947.891	6306
2949.731	6318
2951.571	6323
2953.412	6282
2955.25	6240
2957.09	6212
2958.93	6060
2960.767	6150
2962.606	6001
2964.443	6013
2966.279	5928
2968.116	5875
2969.953	5860
2971.788	5598
2973.623	5654
2975.457	5591
2977.292	5601
2979.127	5536
2980.959	5498
2982.792	5534
2984.624	5412
2986.455	5330
2988.288	5415
2990.119	5356
2991.949	5275
2993.779	5191
2995.608	5358
2997.439	5259
2999.268	5278
3001.096	5155
3002.923	5089
3004.751	5245
3006.578	5120
3008.406	5038
3010.232	5005
3012.057	4901
3013.883	4988
3015.706	4910
3017.532	4886
3019.356	4837
3021.179	4777
3023.002	4892
3024.823	4816
3026.646	4861
3028.469	4841
3030.289	4724
3032.11	4798
3033.93	4815
3035.749	4718
3037.57	4742
3039.39	4705
3041.207	4782
3043.026	4741
3044.842	4711
3046.661	4687
3048.477	4724
3050.294	4748
3052.109	4762
3053.925	4716
3055.739	4673
3057.555	4731
3059.368	4653
3061.181	4695
3062.995	4780
3064.807	4708
3066.62	4719
3068.433	4718
3070.243	4687
3072.054	4744
3073.865	4724
3075.675	4687
3077.485	4586
3079.293	4662
3081.102	4725
3082.911	4559
3084.719	4704
3086.527	4671
3088.333	4616
3090.139	4558
3091.945	4521
3093.75	4556
3095.557	4662
3097.361	4708
3099.165	4635
3100.969	4597
3102.772	4533
3104.575	4601
3106.379	4515
3108.181	4527
3109.982	4507
3111.783	4552
3113.584	4519
3115.386	4452
3117.186	4529
3118.985	4517
3120.783	4527
3122.582	4514
3124.381	4504
3126.179	4569
3127.975	4460
3129.772	4534
3131.569	4586
3133.365	4457
3135.161	4481
3136.956	4602
3138.751	4398
3140.544	4469
3142.338	4460
3144.132	4493
3145.925	4506
3147.717	4475
3149.509	4445
3151.301	4433
3153.091	4360
3154.884	4420
3156.673	4433
3158.462	4396
3160.252	4486
3162.041	4395
3163.831	4387
3165.618	4425
3167.405	4358
3169.193	4468
3170.979	4433
3172.767	4484
3174.553	4394
3176.338	4447
3178.123	4399
3179.907	4366
3181.692	4458
3183.477	4420
3185.259	4516
3187.042	4378
3188.824	4440
3190.607	4433
3192.389	4383
3194.17	4442
3195.951	4416
3197.73	4477
3199.51	4299
3201.289	4379
3203.07	4363
3204.848	4356
3206.626	4335
3208.403	4428
3210.18	4352
3211.959	4377
3213.735	4381
3215.511	4344
3217.285	4286
3219.06	4394
3220.836	4392
3222.611	4350
3224.384	4338
3226.158	4499
3227.929	4324
3229.702	4318
3231.476	4379
3233.248	4366
3235.018	4326
3236.789	4356
3238.56	4361
3240.33	4339
3242.1	4291
3243.869	4251
3245.637	4496
3247.405	4376
3249.172	4396
3250.941	4313
3252.707	4373
3254.474	4363
3256.24	4401
3258.006	4395
3259.772	4461
3261.537	4291
3263.301	4303
3265.065	4366
3266.828	4396
3268.592	4352
3270.355	4360
3272.117	4304
3273.878	4377
3275.64	4398
3277.401	4370
3279.162	4308
3280.922	4344
3282.682	4373
3284.441	4362
3286.199	4316
3287.959	4298
3289.716	4298
3291.475	4426
3293.232	4396
3294.988	4354
3296.744	4310
3298.501	4360
3300.256	4378
3302.011	4357
3303.766	4390
3305.52	4380
3307.275	4344
3309.028	4281
3310.781	4360
3312.533	4315
3314.285	4349
3316.038	4372
3317.789	4386
3319.54	4337
3321.289	4334
3323.039	4321
3324.789	4290
3326.539	4220
3328.288	4225
3330.035	4249
3331.783	4331
3333.531	4239
3335.28	4326
3337.025	4267
3338.771	4220
3340.518	4328
3342.262	4273
3344.009	4332
3345.753	4253
3347.497	4234
3349.24	4330
3350.983	4218
3352.726	4210
3354.469	4207
3356.212	4219
3357.952	4187
3359.694	4211
3361.434	4198
3363.176	4164
3364.916	4190
3366.654	4148
3368.394	4239
3370.132	4234
3371.871	4191
3373.61	4119
3375.346	4172
3377.083	4197
3378.82	4101
3380.556	4095
3382.292	4127
3384.027	4116
3385.763	4125
3387.497	4145
3389.231	4202
3390.965	4175
3392.698	4157
3394.431	4162
3396.164	4083
3397.896	4220
3399.627	4099
3401.36	4110
3403.09	4193
3404.82	4144
3406.55	4132
3408.279	4092
3410.01	4136
3411.738	4153
3413.467	4046
3415.194	4051
3416.92	4009
3418.647	3998
3420.375	4109
3422.102	4111
3423.827	4002
3425.553	4101
3427.277	4049
3429.003	4072
3430.727	4114
3432.451	4022
3434.173	4159
3435.896	4066
3437.62	4002
3439.343	4094
3441.063	4013
3442.785	4112
3444.505	3993
3446.226	4048
3447.948	3992
3449.666	4034
3451.386	3963
3453.104	3963
3454.823	3935
3456.541	4007
3458.259	3933
3459.976	3813
3461.693	3851
3463.408	3966
3465.125	3969
3466.841	3876
3468.556	4005
3470.271	3972
3471.985	3943
3473.698	3903
3475.414	3952
3477.126	3895
3478.838	3819
3480.55	3930
3482.263	3949
3483.975	3832
3485.686	3973
3487.396	3950
3489.106	3820
3490.817	3843
3492.526	3829
3494.236	3898
3495.944	3872
3497.652	3853
3499.359	3814
3501.066	3794
3502.775	3722
3504.481	3784
3506.187	3804
3507.893	3799
3509.598	3754
3511.304	3843
3513.009	3733
3514.713	3773
3516.417	3827
3518.12	3880
3519.821	3799
3521.525	3790
3523.228	3835
3524.929	3809
3526.631	3762
3528.33	3769
3530.032	3800
3531.733	3751
3533.433	3771
3535.131	3740
3536.83	3688
3538.529	3813
3540.227	3718
3541.925	3702
3543.623	3713
3545.319	3808
3547.016	3668
3548.712	3693
3550.408	3715
3552.103	3701
3553.798	3710
3555.491	3688
3557.188	3687
3558.88	3713
3560.574	3657
3562.266	3675
3563.959	3708
3565.651	3592
3567.343	3733
3569.035	3649
3570.725	3652
3572.415	3683
3574.106	3674
3575.797	3673
3577.485	3712
3579.174	3624
3580.863	3618
3582.551	3543
3584.238	3694
3585.926	3624
3587.613	3696
3589.3	3614
3590.986	3585
3592.671	3574
3594.357	3588
3596.042	3613
3597.726	3561
3599.41	3687
3601.094	3593
3602.778	3640
3604.461	3564
3606.143	3601
3607.825	3525
3609.507	3552
3611.188	3497
3612.87	3580
3614.551	3446
3616.229	3508
3617.909	3479
3619.589	3477
3621.269	3508
3622.948	3506
3624.625	3458
3626.302	3542
3627.98	3460
3629.657	3414
3631.334	3401
3633.01	3436
3634.686	3526
3636.361	3501
3638.036	3495
3639.712	3446
3641.385	3478
3643.06	3435
3644.732	3452
3646.405	3470
3648.08	3467
3649.751	3417
3651.424	3424
3653.094	3465
3654.766	3443
3656.436	3390
3658.106	3352
3659.777	3373
3661.446	3399
3663.115	3380
3664.783	3384
3666.452	3399
3668.121	3421
3669.788	3453
3671.454	3392
3673.121	3333
3674.789	3315
3676.455	3246
3678.12	3415
3679.784	3373
3681.45	3346
3683.114	3360
3684.779	3322
3686.442	3370
3688.105	3328
3689.768	3286
3691.43	3295
3693.093	3319
3694.754	3322
3696.415	3261
3698.076	3343
3699.736	3314
3701.396	3290
3703.057	3348
3704.716	3311
3706.375	3337
3708.034	3364
3709.692	3306
3711.351	3287
3713.008	3356
3714.665	3274
3716.321	3330
3717.977	3217
3719.634	3305
3721.29	3252
3722.945	3288
3724.598	3247
3726.253	3315
3727.907	3234
3729.561	3213
3731.214	3282
3732.867	3280
3734.518	3253
3736.171	3263
3737.824	3259
3739.474	3193
3741.125	3249
3742.775	3303
3744.425	3277
3746.074	3258
3747.725	3245
3749.373	3181
3751.022	3259
3752.669	3234
3754.318	3205
3755.966	3173
3757.612	3233
3759.259	3187
3760.905	3244
3762.55	3222
3764.197	3183
3765.842	3233
3767.486	3244
3769.131	3182
3770.774	3254
3772.417	3157
3774.061	3119
3775.705	3193
3777.347	3198
3778.988	3133
3780.629	3164
3782.271	3202
3783.912	3147
3785.552	3149
3787.192	3128
3788.831	3189
3790.472	3115
3792.112	3142
3793.75	3144
3795.388	3181
3797.024	3156
3798.661	3204
3800.3	3109
3801.936	3103
3803.572	3094
3805.208	3044
3806.844	3073
3808.48	3118
3810.115	3110
3811.748	3054
3813.382	3188
3815.016	3043
3816.649	3085
3818.283	3118
3819.914	3019
3821.547	3060
3823.178	3080
3824.809	3045
3826.441	3041
3828.072	3092
3829.701	3085
3831.331	3037
3832.96	3040
3834.591	3016
3836.219	3037
3837.847	3101
3839.475	3071
3841.102	3047
3842.729	3049
3844.357	2973
3845.984	3042
3847.609	3053
3849.234	3027
3850.86	3088
3852.485	3028
3854.11	3052
3855.734	3032
3857.357	3017
3858.981	2987
3860.603	3101
3862.227	2982
3863.848	3043
3865.471	2972
3867.092	3034
3868.713	2987
3870.334	2960
3871.954	2923
3873.575	2989
3875.194	2992
3876.813	3041
3878.433	2890
3880.051	2917
3881.669	2921
3883.286	2978
3884.904	2933
3886.52	3000
3888.138	2918
3889.754	2914
3891.37	3044
3892.985	2985
3894.6	2893
3896.216	2977
3897.831	3004
3899.444	2961
3901.058	3005
3902.67	2967
3904.283	2959
3905.897	2951
3907.509	2956
3909.121	3022
3910.731	2925
3912.342	2972
3913.954	2974
3915.563	2913
3917.174	2937
3918.783	2936
3920.391	2974
3922.002	2944
3923.611	2974
3925.218	2902
3926.826	2984
3928.432	2945
3930.039	2940
3931.647	2884
3933.253	2856
3934.859	2863
3936.464	2897
3938.068	2918
3939.675	2905
3941.278	2875
3942.883	2970
3944.486	2875
3946.089	2919
3947.692	2815
3949.295	2914
3950.898	2829
3952.499	2987
3954.1	2875
3955.7	2898
3957.303	2813
3958.903	2843
3960.502	2899
3962.101	2899
3963.7	2810
3965.301	2835
3966.899	2815
3968.497	2817
3970.094	2875
3971.691	2954
3973.288	2879
3974.885	2816
3976.481	2817
3978.077	2906
3979.672	2914
3981.267	2933
3982.863	2861
3984.457	2850
3986.051	2810
3987.645	2788
3989.238	2779
3990.831	2851
3992.425	2780
3994.017	2806
3995.607	2854
3997.199	2816
3998.79	2744
4000.382	2771
4001.973	2805
4003.561	2776
4005.151	2735
4006.741	2852
4008.331	2804
4009.918	2727
4011.507	2793
4013.095	2697
4014.681	2734
4016.269	2774
4017.856	2689
4019.443	2772
4021.028	2720
4022.614	2699
4024.199	2749
4025.785	2699
4027.37	2739
4028.953	2760
4030.536	2708
4032.12	2761
4033.704	2726
4035.287	2666
4036.869	2746
4038.45	2596
4040.032	2686
4041.613	2615
4043.195	2717
4044.776	2704
4046.356	2649
4047.935	2683
4049.515	2662
4051.095	2773
4052.674	2668
4054.251	2692
4055.829	2722
4057.406	2725
4058.985	2712
4060.562	2673
4062.139	2707
4063.715	2671
4065.29	2613
4066.865	2633
4068.442	2683
4070.016	2668
4071.59	2698
4073.164	2633
4074.738	2593
4076.312	2656
4077.885	2646
4079.458	2609
4081.03	2668
4082.602	2586
4084.173	2596
4085.745	2654
4087.315	2582
4088.886	2691
4090.456	2653
4092.026	2534
4093.596	2598
4095.165	2590
4096.734	2609
4098.301	2604
4099.869	2670
4101.437	2615
4103.006	2647
4104.572	2597
4106.139	2564
4107.704	2624
4109.27	2614
4110.837	2601
4112.401	2571
4113.966	2536
4115.53	2573
4117.094	2617
4118.659	2564
4120.223	2582
4121.785	2633
4123.347	2544
4124.909	2489
4126.471	2569
4128.034	2549
4129.595	2548
4131.155	2548
4132.716	2547
4134.275	2525
4135.836	2503
4137.395	2489
4138.955	2586
4140.513	2523
4142.071	2478
4143.628	2531
4145.188	2476
4146.745	2571
4148.302	2531
4149.858	2571
4151.414	2515
4152.971	2527
4154.526	2429
4156.081	2542
4157.635	2496
4159.189	2443
4160.745	2496
4162.298	2501
4163.852	2449
4165.405	2468
4166.957	2494
4168.51	2463
4170.063	2516
4171.614	2468
4173.166	2450
4174.717	2450
4176.267	2432
4177.817	2481
4179.368	2417
4180.917	2425
4182.466	2479
4184.016	2479
4185.564	2481
4187.112	2459
4188.66	2442
4190.207	2468
4191.754	2460
4193.301	2469
4194.848	2424
4196.394	2355
4197.94	2425
4199.484	2422
4201.03	2406
4202.575	2460
4204.12	2384
4205.663	2450
4207.207	2349
4208.75	2421
4210.292	2441
4211.836	2406
4213.378	2332
4214.92	2385
4216.46	2441
4218.002	2400
4219.544	2400
4221.083	2341
4222.625	2392
4224.164	2402
4225.703	2317
4227.244	2392
4228.782	2340
4230.32	2383
4231.857	2383
4233.395	2373
4234.933	2309
4236.471	2386
4238.007	2361
4239.542	2405
4241.078	2357
4242.614	2390
4244.15	2341
4245.685	2335
4247.219	2370
4248.753	2313
4250.287	2347
4251.82	2323
4253.354	2374
4254.887	2391
4256.419	2363
4257.951	2323
4259.483	2330
4261.016	2374
4262.547	2356
4264.078	2357
4265.608	2335
4267.137	2304
4268.668	2304
4270.197	2338
4271.727	2313
4273.254	2316
4274.783	2333
4276.311	2322
4277.84	2386
4279.366	2354
4280.894	2301
4282.42	2306
4283.946	2320
4285.473	2308
4286.998	2368
4288.523	2230
4290.047	2286
4291.572	2260
4293.096	2243
4294.622	2346
4296.144	2306
4297.668	2322
4299.19	2287
4300.713	2244
4302.236	2330
4303.758	2310
4305.279	2236
4306.799	2315
4308.321	2295
4309.842	2252
4311.361	2249
4312.882	2289
4314.401	2283
