400.0961	4074
402.6185	3980
405.1424	4053
407.6635	3973
410.1838	4002
412.7035	4026
415.2225	4002
417.7388	4108
420.2585	3982
422.7754	4246
425.2917	4105
427.8072	4221
430.3221	4221
432.8363	4223
435.3498	4257
437.8626	4270
440.3727	4332
442.8841	4231
445.3969	4273
447.907	4241
450.4142	4220
452.9229	4190
455.4289	4199
457.9362	4192
460.4449	4147
462.9488	4231
465.454	4190
467.9566	4139
470.4604	4168
472.9637	4202
475.4662	4208
477.966	4171
480.4671	4198
482.9656	4302
485.4633	4333
487.9645	4265
490.4608	4231
492.9566	4293
495.4536	4368
497.948	4294
500.4437	4304
502.9387	4238
505.431	4233
507.9226	4285
510.4136	4330
512.9079	4302
515.3975	4364
517.8864	4328
520.3746	4283
522.8622	4349
525.3491	4327
527.8394	4282
530.3249	4327
532.8098	4379
535.2939	4327
537.7774	4363
540.2623	4391
542.7444	4432
545.2259	4468
547.7067	4408
550.1868	4404
552.6683	4330
555.147	4420
557.6231	4444
560.1005	4447
562.5773	4404
565.0534	4412
567.5308	4378
570.0056	4346
572.4776	4461
574.951	4475
577.4237	4515
579.8978	4554
582.3671	4540
584.8378	4586
587.3079	4558
589.7773	4553
592.244	4612
594.714	4582
597.1793	4503
599.6461	4570
602.1121	4550
604.5754	4505
607.0421	4565
609.5042	4523
611.9675	4487
614.4282	4544
616.8902	4486
619.3515	4582
621.8122	4559
624.2702	4529
626.7296	4482
629.1863	4519
631.6423	4602
634.1017	4410
636.5563	4480
639.0104	4545
641.4658	4532
643.9185	4405
646.3725	4503
648.8239	4570
651.2766	4510
653.7266	4514
656.176	4608
658.6247	4661
661.0748	4655
663.5242	4493
665.9709	4577
668.417	4668
670.8624	4542
673.3092	4601
675.7533	4612
678.1968	4495
680.6395	4595
683.0817	4703
685.5251	4695
687.9659	4665
690.4061	4761
692.8456	4670
695.2844	4656
697.7226	4669
700.1621	4670
702.599	4794
705.0332	4763
707.4688	4775
709.9036	4841
712.3399	4816
714.7735	4758
717.2044	4775
719.6367	4879
722.0683	4822
724.4993	4859
726.9296	4830
729.3593	4804
731.7883	4797
734.2147	4882
736.6423	4854
739.0714	4814
741.4958	4965
743.9216	4917
746.3447	4840
748.7691	5020
751.1929	4813
753.616	4843
756.0366	4889
758.4584	4968
760.8776	4919
763.2982	5062
765.718	4899
768.1373	4965
770.5539	4992
772.9698	5014
775.3871	4999
777.8038	5036
780.2178	4965
782.6332	4973
785.0459	4964
787.458	5081
789.8714	5006
792.2842	5056
794.6943	5057
797.1038	4963
799.5127	5035
801.9209	5005
804.3324	5062
806.7393	5071
809.1456	5077
811.5513	5064
813.9562	5058
816.3625	5122
818.7663	5041
821.1693	5041
823.5718	5118
825.9735	5125
828.3746	5136
830.7771	5014
833.177	5084
835.5762	5112
837.9747	5085
840.3727	5131
842.772	5088
845.1666	5121
847.5626	5097
849.958	5162
852.3527	5272
854.7488	5292
857.1403	5225
859.5331	5218
861.9253	5184
864.3168	5265
866.7057	5314
869.098	5311
871.4876	5247
873.8746	5239
876.263	5216
878.6487	5209
881.0378	5149
883.4243	5104
885.8081	5249
888.1933	5127
890.5759	5172
892.9598	5161
895.343	5135
897.7256	5244
900.1057	5240
902.4871	5204
904.8659	5249
907.246	5253
909.6254	5330
912.0023	5356
914.3786	5376
916.7562	5581
919.1331	5510
921.5074	5796
923.8831	5665
926.2562	5698
928.6287	5628
931.0005	5612
933.3757	5727
935.7462	5673
938.1162	5548
940.4855	5500
942.8542	5537
945.2242	5577
947.5916	5673
949.9584	5727
952.3266	5726
954.6921	5953
957.0571	6110
959.4233	6198
961.787	6278
964.15	6276
966.5125	6307
968.8742	6200
971.2354	5932
973.5959	5909
975.9559	5663
978.3151	5636
980.6738	5627
983.0338	5501
985.3912	5449
987.7461	5490
990.1022	5443
992.4578	5365
994.8127	5418
997.1689	5464
999.5207	5408
1001.874	5562
1004.226	5398
1006.576	5504
1008.929	5358
1011.28	5499
1013.628	5451
1015.977	5441
1018.324	5429
1020.674	5448
1023.019	5336
1025.366	5508
1027.713	5358
1030.056	5598
1032.399	5507
1034.746	5502
1037.087	5465
1039.431	5417
1041.771	5548
1044.113	5469
1046.454	5511
1048.793	5517
1051.133	5442
1053.471	5451
1055.807	5496
1058.146	5521
1060.483	5622
1062.818	5635
1065.153	5524
1067.489	5546
1069.822	5531
1072.156	5513
1074.488	5544
1076.82	5625
1079.15	5567
1081.48	5526
1083.814	5561
1086.143	5397
1088.471	5540
1090.799	5420
1093.126	5526
1095.452	5532
1097.78	5466
1100.105	5576
1102.43	5590
1104.754	5548
1107.077	5464
1109.4	5558
1111.722	5490
1114.044	5581
1116.365	5538
1118.685	5614
1121.005	5514
1123.324	5655
1125.643	5594
1127.961	5694
1130.278	5667
1132.595	5660
1134.911	5655
1137.226	5458
1139.541	5475
1141.854	5483
1144.167	5550
1146.482	5539
1148.793	5614
1151.105	5516
1153.414	5597
1155.725	5568
1158.033	5564
1160.344	5549
1162.651	5639
1164.959	5502
1167.265	5605
1169.572	5637
1171.878	5588
1174.184	5593
1176.488	5621
1178.79	5790
1181.094	5711
1183.396	5698
1185.699	5613
1188.001	5601
1190.301	5485
1192.6	5546
1194.9	5516
1197.2	5561
1199.497	5668
1201.794	5595
1204.09	5631
1206.387	5663
1208.684	5526
1210.978	5536
1213.272	5725
1215.565	5645
1217.858	5606
1220.15	5605
1222.443	5636
1224.734	5673
1227.024	5745
1229.313	5704
1231.602	5719
1233.892	5794
1236.18	5791
1238.467	5768
1240.754	5736
1243.04	5881
1245.325	5874
1247.612	5722
1249.896	5911
1252.178	5932
1254.461	5925
1256.743	5791
1259.027	5836
1261.308	5822
1263.587	5896
1265.867	5929
1268.146	5902
1270.425	5912
1272.703	5868
1274.981	5903
1277.256	5893
1279.532	5783
1281.808	5731
1284.083	5803
1286.358	5713
1288.63	5770
1290.904	5788
1293.175	5843
1295.449	5811
1297.719	5917
1299.99	5814
1302.259	5736
1304.529	5728
1306.798	5755
1309.065	5768
1311.333	5889
1313.599	5837
1315.866	5799
1318.131	5786
1320.396	5826
1322.66	5796
1324.925	5770
1327.187	5850
1329.448	5919
1331.711	5932
1333.974	5876
1336.234	5829
1338.493	5887
1340.752	5902
1343.01	5765
1345.269	5834
1347.526	5732
1349.784	5688
1352.04	5674
1354.295	5743
1356.552	5760
1358.806	5697
1361.059	5806
1363.312	5743
1365.564	5834
1367.818	5899
1370.069	5881
1372.318	5822
1374.568	5743
1376.817	5929
1379.066	5904
1381.316	5957
1383.564	5872
1385.809	5906
1388.056	5938
1390.301	5883
1392.549	5920
1394.793	6180
1397.036	6230
1399.279	6252
1401.522	6242
1403.763	6232
1406.007	6293
1408.248	6186
1410.487	6071
1412.727	6170
1414.965	6155
1417.205	6139
1419.442	6135
1421.68	6087
1423.915	6156
1426.152	5972
1428.388	6069
1430.623	5948
1432.857	6137
1435.091	6126
1437.323	6052
1439.556	6125
1441.789	6178
1444.019	6264
1446.25	6159
1448.48	6259
1450.708	6077
1452.938	6245
1455.167	6281
1457.394	6226
1459.62	6155
1461.846	6137
1464.073	6228
1466.299	6196
1468.523	5951
1470.746	6087
1472.969	5956
1475.191	5895
1477.415	5998
1479.636	5893
1481.858	5862
1484.078	5865
1486.298	5834
1488.518	5805
1490.736	5725
1492.954	5678
1495.169	5678
1497.386	5754
1499.602	5950
1501.819	5706
1504.034	5835
1506.248	5712
1508.462	5876
1510.675	5765
1512.888	5733
1515.1	5690
1517.311	5788
1519.522	5782
1521.732	5766
1523.942	5712
1526.151	5756
1528.36	5685
1530.566	5785
1532.773	5769
1534.98	5842
1537.187	5761
1539.392	5780
1541.596	5833
1543.801	5884
1546.005	5855
1548.208	5842
1550.411	5774
1552.612	5880
1554.814	5894
1557.013	5875
1559.212	5860
1561.414	5910
1563.612	5885
1565.811	5830
1568.007	5975
1570.203	5993
1572.403	5784
1574.598	5911
1576.792	5893
1578.988	6024
1581.181	5941
1583.376	6047
1585.568	5984
1587.761	5980
1589.952	5985
1592.143	5999
1594.333	6040
1596.524	5963
1598.715	5945
1600.903	6028
1603.091	5972
1605.278	6008
1607.466	6021
1609.652	6034
1611.838	5939
1614.023	6081
1616.207	6018
1618.391	5970
1620.576	5916
1622.759	6065
1624.941	6040
1627.123	5993
1629.304	6039
1631.484	6012
1633.664	6065
1635.844	6061
1638.022	6027
1640.201	6067
1642.38	6150
1644.556	6164
1646.732	6061
1648.908	6081
1651.084	6076
1653.257	6076
1655.433	6135
1657.607	6105
1659.779	6135
1661.951	6162
1664.122	6214
1666.295	6098
1668.467	6217
1670.635	6171
1672.805	6067
1674.973	6138
1677.142	6296
1679.31	6127
1681.478	6132
1683.644	6090
1685.81	6107
1687.975	6025
1690.142	6163
1692.305	6101
1694.468	6086
1696.632	6012
1698.794	6037
1700.957	5903
1703.119	6044
1705.279	6006
1707.439	5957
1709.598	6080
1711.758	5946
1713.917	6007
1716.075	6045
1718.231	6076
1720.388	5881
1722.543	5980
1724.702	6020
1726.856	6006
1729.01	5967
1731.164	5940
1733.317	5982
1735.471	5974
1737.623	5901
1739.774	5936
1741.925	5900
1744.075	5988
1746.225	5838
1748.376	5950
1750.524	5977
1752.672	5998
1754.82	5950
1756.965	6051
1759.113	5919
1761.259	6075
1763.405	6021
1765.549	6034
1767.694	5992
1769.836	5972
1771.981	6103
1774.123	5980
1776.264	6032
1778.405	5989
1780.546	6116
1782.687	5982
1784.827	6023
1786.966	5955
1789.103	6009
1791.242	6087
1793.381	5879
1795.517	6046
1797.653	6088
1799.788	6034
1801.923	6051
1804.057	6049
1806.193	6035
1808.326	6051
1810.457	6127
1812.59	6040
1814.721	5993
1816.855	5941
1818.984	5968
1821.113	5898
1823.244	6026
1825.372	6026
1827.499	6003
1829.63	6032
1831.756	5998
1833.882	5937
1836.007	6021
1838.132	6074
1840.26	6104
1842.384	5982
1844.507	6008
1846.63	6052
1848.752	5977
1850.875	5998
1852.996	5975
1855.118	6002
1857.238	5946
1859.358	5900
1861.477	5959
1863.597	6042
1865.715	5965
1867.832	5985
1869.948	6066
1872.064	5946
1874.181	5966
1876.297	5895
1878.411	5847
1880.526	5900
1882.639	6004
1884.752	6036
1886.865	6065
1888.977	6000
1891.089	6107
1893.2	6152
1895.308	6064
1897.42	6049
1899.53	6011
1901.639	6014
1903.745	5977
1905.853	6049
1907.962	6039
1910.067	6091
1912.174	5977
1914.278	6014
1916.383	5993
1918.486	6020
1920.592	5997
1922.694	6030
1924.797	6057
1926.898	6161
1929	6024
1931.102	6126
1933.203	6251
1935.301	6033
1937.401	6196
1939.499	6022
1941.598	6105
1943.697	6122
1945.793	6116
1947.888	6012
1949.985	6140
1952.08	6029
1954.176	6086
1956.269	6037
1958.364	6018
1960.457	6130
1962.549	6067
1964.642	5954
1966.733	6041
1968.823	6030
1970.913	6052
1973.005	6122
1975.093	6053
1977.184	6081
1979.271	6087
1981.359	6083
1983.446	6101
1985.532	5939
1987.619	6048
1989.705	5998
1991.789	6061
1993.874	6096
1995.956	6037
1998.041	6131
2000.123	6027
2002.206	5995
2004.287	5961
2006.368	6007
2008.449	5930
2010.529	6043
2012.609	6054
2014.688	5961
2016.766	5982
2018.843	6021
2020.922	5952
2022.999	6001
2025.074	5957
2027.15	5987
2029.225	6037
2031.299	6045
2033.375	5988
2035.447	5956
2037.52	5992
2039.592	5969
2041.664	6004
2043.736	6042
2045.807	5955
2047.876	5886
2049.947	5993
2052.015	5885
2054.086	6017
2056.153	6071
2058.221	5976
2060.288	6059
2062.353	6037
2064.42	6122
2066.486	6099
2068.55	5946
2070.614	6059
2072.678	6042
2074.741	6029
2076.805	6109
2078.866	5894
2080.929	6124
2082.99	6050
2085.049	6004
2087.109	5986
2089.17	6044
2091.228	6031
2093.286	6028
2095.344	5971
2097.4	6042
2099.46	5902
2101.516	5940
2103.572	6001
2105.626	6052
2107.679	6085
2109.735	6010
2111.788	5933
2113.841	6093
2115.894	5895
2117.945	6027
2119.997	5973
2122.049	6006
2124.1	6076
2126.148	6023
2128.197	6092
2130.246	5950
2132.296	5969
2134.342	6113
2136.39	5948
2138.437	5954
2140.483	6056
2142.527	5946
2144.574	6038
2146.619	5980
2148.661	5945
2150.705	5956
2152.747	5974
2154.792	5883
2156.832	5979
2158.874	5993
2160.915	5930
2162.954	5982
2164.995	5986
2167.034	5927
2169.072	5916
2171.111	5937
2173.148	5916
2175.186	5953
2177.223	5922
2179.258	5958
2181.294	6064
2183.328	5894
2185.362	5804
2187.398	6006
2189.431	6009
2191.463	5932
2193.495	5881
2195.528	5790
2197.56	5920
2199.59	5902
2201.62	5758
2203.649	5823
2205.678	5902
2207.708	5826
2209.737	5916
2211.764	5781
2213.791	5874
2215.817	5910
2217.843	5824
2219.87	5799
2221.895	5847
2223.919	5788
2225.942	5791
2227.966	5737
2229.988	5765
2232.012	5823
2234.032	5896
2236.054	5901
2238.074	5886
2240.095	5849
2242.116	5903
2244.135	5905
2246.153	5824
2248.171	5919
2250.188	5852
2252.208	5822
2254.223	5845
2256.239	5974
2258.255	5816
2260.269	5786
2262.283	5875
2264.3	5708
2266.312	5800
2268.325	5812
2270.336	5898
2272.349	5814
2274.362	5830
2276.372	5749
2278.383	5868
2280.392	5795
2282.402	5883
2284.409	5864
2286.418	5909
2288.427	5979
2290.433	5850
2292.441	5821
2294.446	5763
2296.453	5880
2298.459	5739
2300.463	5719
2302.466	5771
2304.471	5812
2306.475	5831
2308.477	5796
2310.478	5692
2312.481	5806
2314.481	5815
2316.481	5771
2318.482	5849
2320.482	5780
2322.48	5836
2324.48	5693
2326.478	5769
2328.476	5683
2330.473	5788
2332.469	5732
2334.465	5811
2336.46	5825
2338.454	5822
2340.45	5780
2342.444	5783
2344.437	5799
2346.43	5891
2348.421	5674
2350.414	5633
2352.405	5717
2354.396	5769
2356.386	5641
2358.376	5667
2360.366	5742
2362.355	5863
2364.343	5751
2366.331	5694
2368.317	5588
2370.304	5774
2372.292	5647
2374.278	5606
2376.262	5646
2378.247	5630
2380.23	5604
2382.216	5752
2384.199	5562
2386.181	5635
2388.163	5688
2390.144	5694
2392.127	5671
2394.107	5745
2396.087	5546
2398.066	5547
2400.046	5553
2402.023	5585
2404.004	5703
2405.981	5667
2407.957	5630
2409.934	5530
2411.91	5716
2413.886	5553
2415.862	5577
2417.836	5615
2419.809	5546
2421.784	5567
2423.756	5625
2425.73	5543
2427.701	5648
2429.672	5605
2431.644	5689
2433.615	5668
2435.586	5610
2437.555	5736
2439.523	5516
2441.491	5708
2443.459	5602
2445.428	5636
2447.395	5636
2449.361	5600
2451.327	5520
2453.292	5725
2455.257	5590
2457.223	5662
2459.187	5582
2461.15	5600
2463.113	5521
2465.076	5558
2467.039	5500
2468.999	5583
2470.96	5579
2472.921	5517
2474.881	5563
2476.841	5557
2478.8	5509
2480.759	5580
2482.717	5483
2484.675	5597
2486.63	5531
2488.589	5550
2490.545	5463
2492.5	5440
2494.455	5552
2496.408	5573
2498.364	5575
2500.318	5478
2502.27	5447
2504.223	5502
2506.174	5544
2508.126	5555
2510.078	5625
2512.03	5559
2513.979	5423
2515.927	5451
2517.877	5506
2519.826	5478
2521.775	5510
2523.722	5562
2525.668	5579
2527.616	5575
2529.561	5549
2531.508	5419
2533.452	5464
2535.398	5497
2537.342	5481
2539.284	5462
2541.229	5488
2543.173	5433
2545.114	5443
2547.055	5456
2548.996	5459
2550.938	5468
2552.878	5540
2554.817	5563
2556.756	5571
2558.695	5555
2560.633	5599
2562.572	5465
2564.509	5567
2566.445	5435
2568.382	5542
2570.317	5521
2572.254	5390
2574.189	5601
2576.123	5498
2578.057	5430
2579.99	5426
2581.923	5468
2583.855	5468
2585.788	5452
2587.719	5471
2589.65	5512
2591.579	5484
2593.511	5556
2595.44	5544
2597.37	5480
2599.297	5535
2601.225	5492
2603.153	5450
2605.08	5498
2607.007	5514
2608.932	5608
2610.858	5536
2612.782	5444
2614.709	5470
2616.632	5555
2618.556	5502
2620.478	5512
2622.401	5531
2624.324	5542
2626.247	5385
2628.167	5489
2630.088	5544
2632.008	5522
2633.928	5461
2635.848	5439
2637.766	5496
2639.684	5470
2641.603	5526
2643.519	5515
2645.437	5485
2647.353	5556
2649.27	5414
2651.184	5423
2653.099	5538
2655.014	5400
2656.928	5489
2658.842	5493
2660.755	5417
2662.667	5432
2664.579	5472
2666.491	5565
2668.402	5442
2670.312	5465
2672.222	5450
2674.132	5365
2676.042	5438
2677.951	5408
2679.859	5433
2681.766	5462
2683.674	5527
2685.582	5396
2687.488	5370
2689.392	5451
2691.298	5502
2693.202	5429
2695.107	5310
2697.012	5421
2698.914	5468
2700.817	5326
2702.72	5459
2704.622	5429
2706.524	5523
2708.425	5371
2710.326	5402
2712.225	5422
2714.125	5418
2716.024	5380
2717.923	5278
2719.822	5290
2721.719	5465
2723.616	5375
2725.512	5368
2727.41	5378
2729.305	5411
2731.201	5355
2733.095	5344
2734.99	5454
2736.884	5358
2738.778	5300
2740.67	5385
2742.562	5386
2744.455	5344
2746.346	5337
2748.238	5293
2750.129	5506
2752.018	5372
2753.907	5358
2755.797	5381
2757.687	5424
2759.575	5377
2761.462	5323
2763.349	5345
2765.237	5397
2767.124	5398
2769.009	5404
2770.894	5349
2772.779	5441
2774.663	5324
2776.547	5392
2778.431	5310
2780.314	5322
2782.197	5314
2784.078	5360
2785.96	5345
2787.842	5307
2789.723	5258
2791.603	5337
2793.483	5300
2795.362	5302
2797.241	5447
2799.121	5319
2800.997	5446
2802.874	5286
2804.751	5326
2806.628	5275
2808.506	5361
2810.38	5385
2812.255	5361
2814.13	5383
2816.003	5380
2817.878	5379
2819.752	5287
2821.623	5378
2823.496	5392
2825.368	5367
2827.238	5327
2829.111	5442
2830.98	5360
2832.851	5429
2834.719	5404
2836.589	5391
2838.458	5487
2840.327	5392
2842.193	5403
2844.061	5277
2845.927	5410
2847.794	5387
2849.66	5405
2851.525	5541
2853.39	5412
2855.254	5527
2857.117	5451
2858.983	5558
2860.845	5507
2862.707	5568
2864.569	5566
2866.431	5748
2868.293	5595
2870.154	5652
2872.013	5778
2873.873	5708
2875.733	5840
2877.592	5854
2879.451	5780
2881.309	5897
2883.166	5935
2885.022	6072
2886.879	6067
2888.736	6092
2890.591	6201
2892.446	6226
2894.301	6211
2896.155	6116
2898.009	6157
2899.863	6213
2901.716	6100
2903.568	6180
2905.419	6040
2907.27	6037
2909.123	6188
2910.973	6190
2912.824	6312
2914.673	6226
2916.521	6233
2918.372	6231
2920.22	6323
2922.067	6464
2923.914	6347
2925.761	6456
2927.607	6469
2929.455	6511
2931.301	6493
2933.144	6584
2934.99	6603
2936.833	6647
2938.678	6665
2940.522	6733
2942.364	6938
2944.207	7052
2946.048	7104
2947.891	7325
2949.731	7262
2951.571	7210
2953.412	7210
2955.25	7168
2957.09	7154
2958.93	7014
2960.767	7068
2962.606	6882
2964.443	6903
2966.279	6833
2968.116	6680
2969.953	6490
2971.788	6483
2973.623	6316
2975.457	6211
2977.292	6249
2979.127	6168
2980.959	6115
2982.792	5950
2984.624	5970
2986.455	5952
2988.288	5811
2990.119	5893
2991.949	5782
2993.779	5737
2995.608	5787
2997.439	5659
2999.268	5636
3001.096	5619
3002.923	5567
3004.751	5479
3006.578	5503
3008.406	5392
3010.232	5330
3012.057	5417
3013.883	5419
3015.706	5367
3017.532	5237
3019.356	5390
3021.179	5258
3023.002	5351
3024.823	5214
3026.646	5174
3028.469	5162
3030.289	5143
3032.11	5134
3033.93	5194
3035.749	5216
3037.57	5190
3039.39	5179
3041.207	5128
3043.026	5137
3044.842	4991
3046.661	5205
3048.477	5242
3050.294	5178
3052.109	5042
3053.925	5121
3055.739	5111
3057.555	5195
3059.368	5037
3061.181	5175
3062.995	5137
3064.807	5066
3066.62	5067
3068.433	5093
3070.243	5076
3072.054	5074
3073.865	5119
3075.675	5074
3077.485	5015
3079.293	4961
3081.102	5072
3082.911	5104
3084.719	4925
3086.527	5073
3088.333	4968
3090.139	5069
3091.945	4999
3093.75	4993
3095.557	4934
3097.361	5094
3099.165	4965
3100.969	4890
3102.772	4992
3104.575	4976
3106.379	4921
3108.181	4990
3109.982	4817
3111.783	4879
3113.584	4949
3115.386	4926
3117.186	4915
3118.985	4924
3120.783	4852
3122.582	4940
3124.381	4828
3126.179	4894
3127.975	4973
3129.772	4863
3131.569	4879
3133.365	4834
3135.161	4817
3136.956	4895
3138.751	4879
3140.544	4819
3142.338	4811
3144.132	4885
3145.925	4838
3147.717	4752
3149.509	4802
3151.301	4827
3153.091	4783
3154.884	4819
3156.673	4815
3158.462	4889
3160.252	4842
3162.041	4755
3163.831	4790
3165.618	4747
3167.405	4808
3169.193	4759
3170.979	4874
3172.767	4786
3174.553	4805
3176.338	4831
3178.123	4915
3179.907	4689
3181.692	4701
3183.477	4754
3185.259	4779
3187.042	4724
3188.824	4729
3190.607	4746
3192.389	4784
3194.17	4822
3195.951	4698
3197.73	4646
3199.51	4765
3201.289	4704
3203.07	4766
3204.848	4727
3206.626	4712
3208.403	4716
3210.18	4751
3211.959	4695
3213.735	4805
3215.511	4739
3217.285	4687
3219.06	4889
3220.836	4662
3222.611	4664
3224.384	4775
3226.158	4723
3227.929	4773
3229.702	4708
3231.476	4718
3233.248	4734
3235.018	4721
3236.789	4734
3238.56	4779
3240.33	4616
3242.1	4831
3243.869	4717
3245.637	4812
3247.405	4676
3249.172	4808
3250.941	4749
3252.707	4619
3254.474	4639
3256.24	4822
3258.006	4828
3259.772	4695
3261.537	4742
3263.301	4698
3265.065	4740
3266.828	4684
3268.592	4758
3270.355	4738
3272.117	4681
3273.878	4723
3275.64	4671
3277.401	4725
3279.162	4774
3280.922	4702
3282.682	4710
3284.441	4685
3286.199	4750
3287.959	4696
3289.716	4610
3291.475	4727
3293.232	4776
3294.988	4686
3296.744	4705
3298.501	4759
3300.256	4648
3302.011	4733
3303.766	4648
3305.52	4753
3307.275	4711
3309.028	4625
3310.781	4696
3312.533	4639
3314.285	4605
3316.038	4695
3317.789	4662
3319.54	4666
3321.289	4728
3323.039	4735
3324.789	4744
3326.539	4629
3328.288	4593
3330.035	4652
3331.783	4610
3333.531	4613
3335.28	4755
3337.025	4582
3338.771	4600
3340.518	4614
3342.262	4590
3344.009	4628
3345.753	4614
3347.497	4575
3349.24	4596
3350.983	4612
3352.726	4671
3354.469	4548
3356.212	4521
3357.952	4550
3359.694	4566
3361.434	4574
3363.176	4489
3364.916	4617
3366.654	4556
3368.394	4528
3370.132	4556
3371.871	4496
3373.61	4607
3375.346	4522
3377.083	4570
3378.82	4545
3380.556	4516
3382.292	4504
3384.027	4472
3385.763	4469
3387.497	4483
3389.231	4463
3390.965	4542
3392.698	4419
3394.431	4386
3396.164	4453
3397.896	4511
3399.627	4445
3401.36	4408
3403.09	4515
3404.82	4379
3406.55	4516
3408.279	4515
3410.01	4456
3411.738	4553
3413.467	4423
3415.194	4455
3416.92	4392
3418.647	4505
3420.375	4401
3422.102	4460
3423.827	4406
3425.553	4475
3427.277	4411
3429.003	4488
3430.727	4394
3432.451	4389
3434.173	4418
3435.896	4343
3437.62	4479
3439.343	4279
3441.063	4381
3442.785	4385
3444.505	4318
3446.226	4339
3447.948	4415
3449.666	4279
3451.386	4353
3453.104	4337
3454.823	4235
3456.541	4377
3458.259	4303
3459.976	4282
3461.693	4304
3463.408	4259
3465.125	4312
3466.841	4234
3468.556	4248
3470.271	4291
3471.985	4303
3473.698	4216
3475.414	4234
3477.126	4221
3478.838	4269
3480.55	4173
3482.263	4217
3483.975	4146
3485.686	4189
3487.396	4209
3489.106	4143
3490.817	4159
3492.526	4081
3494.236	4194
3495.944	4107
3497.652	4231
3499.359	4239
3501.066	4047
3502.775	4173
3504.481	4124
3506.187	4146
3507.893	4128
3509.598	4221
3511.304	4082
3513.009	4117
3514.713	4045
3516.417	4141
3518.12	4079
3519.821	4112
3521.525	3998
3523.228	3989
3524.929	4072
3526.631	4075
3528.33	4080
3530.032	4087
3531.733	4104
3533.433	4095
3535.131	3972
3536.83	4042
3538.529	4103
3540.227	4004
3541.925	4005
3543.623	4007
3545.319	3984
3547.016	3930
3548.712	4039
3550.408	3959
3552.103	3992
3553.798	4058
3555.491	3969
3557.188	3963
3558.88	4012
3560.574	3942
3562.266	3979
3563.959	3946
3565.651	3994
3567.343	3985
3569.035	3975
3570.725	4034
3572.415	3895
3574.106	3897
3575.797	3902
3577.485	3952
3579.174	3914
3580.863	3963
3582.551	3966
3584.238	3926
3585.926	3828
3587.613	3955
3589.3	3818
3590.986	3830
3592.671	3828
3594.357	3899
3596.042	3867
3597.726	3862
3599.41	3798
3601.094	3781
3602.778	3955
3604.461	3927
3606.143	3704
3607.825	3836
3609.507	3773
3611.188	3801
3612.87	3827
3614.551	3758
3616.229	3833
3617.909	3866
3619.589	3812
3621.269	3831
3622.948	3794
3624.625	3682
3626.302	3708
3627.98	3665
3629.657	3726
3631.334	3810
3633.01	3748
3634.686	3681
3636.361	3645
3638.036	3706
3639.712	3714
3641.385	3678
3643.06	3640
3644.732	3706
3646.405	3696
3648.08	3660
3649.751	3665
3651.424	3661
3653.094	3715
3654.766	3720
3656.436	3727
3658.106	3531
3659.777	3660
3661.446	3652
3663.115	3660
3664.783	3575
3666.452	3611
3668.121	3593
3669.788	3690
3671.454	3616
3673.121	3653
3674.789	3672
3676.455	3593
3678.12	3677
3679.784	3642
3681.45	3527
3683.114	3646
3684.779	3611
3686.442	3553
3688.105	3574
3689.768	3506
3691.43	3519
3693.093	3643
3694.754	3659
3696.415	3544
3698.076	3582
3699.736	3524
3701.396	3525
3703.057	3679
3704.716	3624
3706.375	3619
3708.034	3523
3709.692	3614
3711.351	3550
3713.008	3567
3714.665	3603
3716.321	3537
3717.977	3604
3719.634	3553
3721.29	3422
3722.945	3515
3724.598	3501
3726.253	3518
3727.907	3572
3729.561	3531
3731.214	3561
3732.867	3519
3734.518	3454
3736.171	3467
3737.824	3474
3739.474	3468
3741.125	3548
3742.775	3463
3744.425	3580
3746.074	3470
3747.725	3473
3749.373	3511
3751.022	3429
3752.669	3476
3754.318	3414
3755.966	3509
3757.612	3411
3759.259	3438
3760.905	3445
3762.55	3464
3764.197	3474
3765.842	3454
3767.486	3527
3769.131	3465
3770.774	3438
3772.417	3450
3774.061	3376
3775.705	3403
3777.347	3447
3778.988	3376
3780.629	3448
3782.271	3398
3783.912	3364
3785.552	3453
3787.192	3373
3788.831	3369
3790.472	3367
3792.112	3406
3793.75	3396
3795.388	3388
3797.024	3299
3798.661	3393
3800.3	3366
3801.936	3384
3803.572	3362
3805.208	3315
3806.844	3401
3808.48	3390
3810.115	3400
3811.748	3284
3813.382	3326
3815.016	3347
3816.649	3360
3818.283	3358
3819.914	3281
3821.547	3390
3823.178	3270
3824.809	3337
3826.441	3327
3828.072	3335
3829.701	3305
3831.331	3337
3832.96	3310
3834.591	3353
3836.219	3301
3837.847	3355
3839.475	3349
3841.102	3262
3842.729	3375
3844.357	3330
3845.984	3286
3847.609	3275
3849.234	3298
3850.86	3374
3852.485	3291
3854.11	3258
3855.734	3266
3857.357	3215
3858.981	3270
3860.603	3329
3862.227	3295
3863.848	3214
3865.471	3241
3867.092	3221
3868.713	3169
3870.334	3255
3871.954	3343
3873.575	3197
3875.194	3187
3876.813	3204
3878.433	3248
3880.051	3184
3881.669	3188
3883.286	3218
3884.904	3167
3886.52	3267
3888.138	3142
3889.754	3243
3891.37	3215
3892.985	3207
3894.6	3160
3896.216	3299
3897.831	3239
3899.444	3175
3901.058	3209
3902.67	3207
3904.283	3199
3905.897	3228
3907.509	3158
3909.121	3220
3910.731	3104
3912.342	3203
3913.954	3184
3915.563	3099
3917.174	3156
3918.783	3165
3920.391	3137
3922.002	3206
3923.611	3204
3925.218	3207
3926.826	3110
3928.432	3228
3930.039	3092
3931.647	3131
3933.253	3179
3934.859	3233
3936.464	3172
3938.068	3180
3939.675	3120
3941.278	3138
3942.883	3215
3944.486	3057
3946.089	3158
3947.692	3101
3949.295	3170
3950.898	3109
3952.499	3115
3954.1	3155
3955.7	3038
3957.303	3199
3958.903	3198
3960.502	3066
3962.101	3127
3963.7	3115
3965.301	3145
3966.899	3036
3968.497	3063
3970.094	3083
3971.691	3053
3973.288	3014
3974.885	3086
3976.481	3127
3978.077	3096
3979.672	3110
3981.267	3044
3982.863	3073
3984.457	3034
3986.051	3054
3987.645	3104
3989.238	3025
3990.831	3020
3992.425	3032
3994.017	3052
3995.607	3027
3997.199	3012
3998.79	2993
4000.382	3024
4001.973	3001
4003.561	3047
4005.151	3059
4006.741	2966
4008.331	2990
4009.918	3049
4011.507	2950
4013.095	2949
4014.681	2995
4016.269	2983
4017.856	3002
4019.443	2975
4021.028	2927
4022.614	2898
4024.199	2920
4025.785	3000
4027.37	2881
4028.953	2999
4030.536	2978
4032.12	2920
4033.704	3001
4035.287	2962
4036.869	2859
4038.45	3020
4040.032	2893
4041.613	2936
4043.195	2916
4044.776	2900
4046.356	2970
4047.935	2956
4049.515	2941
4051.095	2928
4052.674	2897
4054.251	2871
4055.829	2885
4057.406	2895
4058.985	2907
4060.562	2918
4062.139	2911
4063.715	2894
4065.29	2912
4066.865	2897
4068.442	2846
4070.016	2837
4071.59	2862
4073.164	2838
4074.738	2904
4076.312	2918
4077.885	2891
4079.458	2842
4081.03	2898
4082.602	2902
4084.173	2811
4085.745	2826
4087.315	2841
4088.886	2823
4090.456	2880
4092.026	2814
4093.596	2823
4095.165	2803
4096.734	2782
4098.301	2791
4099.869	2784
4101.437	2815
4103.006	2786
4104.572	2820
4106.139	2825
4107.704	2745
4109.27	2847
4110.837	2756
4112.401	2782
4113.966	2821
4115.53	2752
4117.094	2746
4118.659	2820
4120.223	2755
4121.785	2718
4123.347	2814
4124.909	2866
4126.471	2765
4128.034	2783
4129.595	2713
4131.155	2769
4132.716	2784
4134.275	2714
4135.836	2876
4137.395	2778
4138.955	2805
4140.513	2732
4142.071	2644
4143.628	2731
4145.188	2765
4146.745	2716
4148.302	2754
4149.858	2754
4151.414	2673
4152.971	2695
4154.526	2664
4156.081	2700
4157.635	2750
4159.189	2729
4160.745	2720
4162.298	2735
4163.852	2665
4165.405	2685
4166.957	2670
4168.51	2621
4170.063	2700
4171.614	2567
4173.166	2674
4174.717	2693
4176.267	2623
4177.817	2653
4179.368	2649
4180.917	2680
4182.466	2646
4184.016	2612
4185.564	2593
4187.112	2621
4188.66	2598
4190.207	2657
4191.754	2601
4193.301	2621
4194.848	2668
4196.394	2638
4197.94	2587
4199.484	2643
4201.03	2625
4202.575	2572
4204.12	2631
4205.663	2637
4207.207	2585
4208.75	2670
4210.292	2625
4211.836	2594
4213.378	2620
4214.92	2626
4216.46	2579
4218.002	2659
4219.544	2611
4221.083	2549
4222.625	2597
4224.164	2574
4225.703	2617
4227.244	2553
4228.782	2510
4230.32	2638
4231.857	2591
4233.395	2589
4234.933	2590
4236.471	2580
4238.007	2624
4239.542	2501
4241.078	2585
4242.614	2567
4244.15	2549
4245.685	2545
4247.219	2525
4248.753	2601
4250.287	2524
4251.82	2543
4253.354	2500
4254.887	2549
4256.419	2562
4257.951	2574
4259.483	2562
4261.016	2503
4262.547	2526
4264.078	2488
4265.608	2527
4267.137	2587
4268.668	2543
4270.197	2513
4271.727	2554
4273.254	2519
4274.783	2537
4276.311	2544
4277.84	2525
4279.366	2514
4280.894	2502
4282.42	2509
4283.946	2476
4285.473	2457
4286.998	2490
4288.523	2489
4290.047	2448
4291.572	2431
4293.096	2486
4294.622	2475
4296.144	2531
4297.668	2466
4299.19	2494
4300.713	2484
4302.236	2444
4303.758	2461
4305.279	2466
4306.799	2474
4308.321	2449
4309.842	2433
4311.361	2443
4312.882	2501
4314.401	2409
