400.0961	7683
402.6185	7767
405.1424	7734
407.6635	7737
410.1838	7747
412.7035	7837
415.2225	7902
417.7388	7964
420.2585	7864
422.7754	7998
425.2917	8088
427.8072	8077
430.3221	8145
432.8363	8209
435.3498	8187
437.8626	8278
440.3727	8214
442.8841	8309
445.3969	8442
447.907	8264
450.4142	8342
452.9229	8309
455.4289	8408
457.9362	8288
460.4449	8240
462.9488	8364
465.454	8296
467.9566	8376
470.4604	8466
472.9637	8502
475.4662	8511
477.966	8404
480.4671	8368
482.9656	8580
485.4633	8503
487.9645	8460
490.4608	8602
492.9566	8647
495.4536	8678
497.948	8733
500.4437	8629
502.9387	8673
505.431	8638
507.9226	8610
510.4136	8763
512.9079	8781
515.3975	8685
517.8864	8630
520.3746	8716
522.8622	8732
525.3491	8641
527.8394	8808
530.3249	8770
532.8098	8799
535.2939	8742
537.7774	8701
540.2623	8836
542.7444	8847
545.2259	8837
547.7067	8891
550.1868	8777
552.6683	8909
555.147	8681
557.6231	8735
560.1005	8881
562.5773	8897
565.0534	8890
567.5308	8732
570.0056	8963
572.4776	8787
574.951	8807
577.4237	8850
579.8978	9180
582.3671	8984
584.8378	9071
587.3079	8931
589.7773	9036
592.244	9011
594.714	9005
597.1793	9140
599.6461	9138
602.1121	9011
604.5754	9155
607.0421	9096
609.5042	9076
611.9675	9068
614.4282	9154
616.8902	9211
619.3515	9006
621.8122	9250
624.2702	9138
626.7296	8948
629.1863	9148
631.6423	9002
634.1017	9143
636.5563	9094
639.0104	9127
641.4658	9126
643.9185	9218
646.3725	9148
648.8239	9207
651.2766	9114
653.7266	9248
656.176	9350
658.6247	9274
661.0748	9408
663.5242	9508
665.9709	9341
668.417	9364
670.8624	9267
673.3092	9384
675.7533	9387
678.1968	9519
680.6395	9430
683.0817	9402
685.5251	9477
687.9659	9551
690.4061	9532
692.8456	9500
695.2844	9474
697.7226	9602
700.1621	9535
702.599	9611
705.0332	9556
707.4688	9641
709.9036	9507
712.3399	9574
714.7735	9550
717.2044	9627
719.6367	9706
722.0683	9607
724.4993	9779
726.9296	9725
729.3593	9771
731.7883	9913
734.2147	9932
736.6423	9828
739.0714	9880
741.4958	9947
743.9216	10013
746.3447	9936
748.7691	10002
751.1929	10086
753.616	9843
756.0366	9967
758.4584	9997
760.8776	10140
763.2982	10185
765.718	10033
768.1373	10195
770.5539	10229
772.9698	10081
775.3871	10246
777.8038	10180
780.2178	10147
782.6332	10261
785.0459	10309
787.458	10251
789.8714	10252
792.2842	10167
794.6943	10154
797.1038	10250
799.5127	10236
801.9209	10281
804.3324	10130
806.7393	10136
809.1456	10209
811.5513	10245
813.9562	10356
816.3625	10270
818.7663	10243
821.1693	10361
823.5718	10252
825.9735	10426
828.3746	10326
830.7771	10145
833.177	10377
835.5762	10371
837.9747	10381
840.3727	10389
842.772	10257
845.1666	10454
847.5626	10452
849.958	10391
852.3527	10599
854.7488	10528
857.1403	10455
859.5331	10587
861.9253	10492
864.3168	10394
866.7057	10457
869.098	10445
871.4876	10573
873.8746	10301
876.263	10498
878.6487	10404
881.0378	10412
883.4243	10411
885.8081	10347
888.1933	10564
890.5759	10492
892.9598	10415
895.343	10430
897.7256	10365
900.1057	10429
902.4871	10337
904.8659	10488
907.246	10394
909.6254	10535
912.0023	10528
914.3786	10884
916.7562	10623
919.1331	10846
921.5074	10954
923.8831	11001
926.2562	10978
928.6287	10984
931.0005	10938
933.3757	10787
935.7462	10947
938.1162	10875
940.4855	11123
942.8542	10901
945.2242	10941
947.5916	10973
949.9584	11251
952.3266	11161
954.6921	11383
957.0571	11527
959.4233	11678
961.787	11891
964.15	11705
966.5125	11751
968.8742	11390
971.2354	11316
973.5959	11179
975.9559	11051
978.3151	10947
980.6738	10939
983.0338	10813
985.3912	10831
987.7461	10924
990.1022	10654
992.4578	10855
994.8127	10748
997.1689	10811
999.5207	10782
1001.874	10869
1004.226	10924
1006.576	10859
1008.929	10808
1011.28	10785
1013.628	10926
1015.977	10753
1018.324	10912
1020.674	10789
1023.019	10839
1025.366	10877
1027.713	10996
1030.056	10852
1032.399	10834
1034.746	10905
1037.087	10912
1039.431	11032
1041.771	10912
1044.113	10853
1046.454	11036
1048.793	10966
1051.133	10974
1053.471	10917
1055.807	11226
1058.146	10932
1060.483	11079
1062.818	10987
1065.153	11141
1067.489	11038
1069.822	11042
1072.156	11160
1074.488	11033
1076.82	11130
1079.15	11012
1081.48	11043
1083.814	11117
1086.143	11024
1088.471	11250
1090.799	11100
1093.126	10903
1095.452	11219
1097.78	11034
1100.105	11016
1102.43	11090
1104.754	11004
1107.077	11128
1109.4	11168
1111.722	11103
1114.044	11089
1116.365	11180
1118.685	11241
1121.005	11201
1123.324	11130
1125.643	11207
1127.961	11309
1130.278	11153
1132.595	11309
1134.911	11185
1137.226	11154
1139.541	11062
1141.854	11098
1144.167	11275
1146.482	11117
1148.793	11327
1151.105	11074
1153.414	11170
1155.725	11191
1158.033	11342
1160.344	11148
1162.651	11267
1164.959	11184
1167.265	11208
1169.572	11312
1171.878	11323
1174.184	11247
1176.488	11257
1178.79	11101
1181.094	11289
1183.396	11192
1185.699	11250
1188.001	11158
1190.301	11285
1192.6	11171
1194.9	11212
1197.2	11071
1199.497	11107
1201.794	11344
1204.09	11146
1206.387	11374
1208.684	11386
1210.978	11201
1213.272	11301
1215.565	11195
1217.858	11185
1220.15	11369
1222.443	11242
1224.734	11228
1227.024	11284
1229.313	11324
1231.602	11525
1233.892	11428
1236.18	11435
1238.467	11350
1240.754	11725
1243.04	11436
1245.325	11501
1247.612	11553
1249.896	11406
1252.178	11530
1254.461	11545
1256.743	11534
1259.027	11586
1261.308	11604
1263.587	11663
1265.867	11509
1268.146	11629
1270.425	11742
1272.703	11653
1274.981	11735
1277.256	11448
1279.532	11632
1281.808	11616
1284.083	11493
1286.358	11482
1288.63	11571
1290.904	11466
1293.175	11436
1295.449	11417
1297.719	11408
1299.99	11414
1302.259	11449
1304.529	11533
1306.798	11376
1309.065	11463
1311.333	11214
1313.599	11492
1315.866	11626
1318.131	11569
1320.396	11434
1322.66	11448
1324.925	11415
1327.187	11404
1329.448	11524
1331.711	11605
1333.974	11504
1336.234	11428
1338.493	11503
1340.752	11675
1343.01	11606
1345.269	11457
1347.526	11545
1349.784	11414
1352.04	11493
1354.295	11546
1356.552	11442
1358.806	11473
1361.059	11614
1363.312	11531
1365.564	11418
1367.818	11538
1370.069	11394
1372.318	11835
1374.568	11546
1376.817	11671
1379.066	11556
1381.316	11581
1383.564	11526
1385.809	11436
1388.056	11611
1390.301	11659
1392.549	11690
1394.793	11749
1397.036	11854
1399.279	11761
1401.522	11822
1403.763	11882
1406.007	11864
1408.248	11863
1410.487	11760
1412.727	11819
1414.965	11848
1417.205	11887
1419.442	11925
1421.68	11906
1423.915	11837
1426.152	11752
1428.388	11816
1430.623	11971
1432.857	11754
1435.091	11905
1437.323	11806
1439.556	11963
1441.789	11904
1444.019	12089
1446.25	12008
1448.48	11985
1450.708	11949
1452.938	12119
1455.167	12010
1457.394	11943
1459.62	11967
1461.846	11769
1464.073	11902
1466.299	11773
1468.523	11826
1470.746	11732
1472.969	11821
1475.191	11864
1477.415	11734
1479.636	11607
1481.858	11849
1484.078	11687
1486.298	11676
1488.518	11654
1490.736	11606
1492.954	11600
1495.169	11617
1497.386	11533
1499.602	11548
1501.819	11655
1504.034	11526
1506.248	11604
1508.462	11517
1510.675	11412
1512.888	11303
1515.1	11510
1517.311	11550
1519.522	11594
1521.732	11518
1523.942	11610
1526.151	11414
1528.36	11518
1530.566	11610
1532.773	11589
1534.98	11565
1537.187	11439
1539.392	11407
1541.596	11599
1543.801	11377
1546.005	11570
1548.208	11654
1550.411	11641
1552.612	11622
1554.814	11594
1557.013	11688
1559.212	11636
1561.414	11747
1563.612	11664
1565.811	11774
1568.007	11721
1570.203	11809
1572.403	11727
1574.598	11807
1576.792	11811
1578.988	11722
1581.181	11802
1583.376	11762
1585.568	11756
1587.761	11644
1589.952	11855
1592.143	11882
1594.333	11837
1596.524	11701
1598.715	11702
1600.903	11865
1603.091	11796
1605.278	11981
1607.466	11811
1609.652	12014
1611.838	11926
1614.023	11966
1616.207	11859
1618.391	11884
1620.576	11956
1622.759	11984
1624.941	11876
1627.123	11786
1629.304	11974
1631.484	12008
1633.664	12028
1635.844	11836
1638.022	11722
1640.201	11941
1642.38	11979
1644.556	11901
1646.732	12127
1648.908	12046
1651.084	12075
1653.257	11964
1655.433	11790
1657.607	11949
1659.779	12022
1661.951	11890
1664.122	11970
1666.295	12138
1668.467	11963
1670.635	11936
1672.805	12159
1674.973	12072
1677.142	12059
1679.31	12100
1681.478	11847
1683.644	12079
1685.81	12043
1687.975	11979
1690.142	11910
1692.305	11921
1694.468	11981
1696.632	11919
1698.794	11801
1700.957	11851
1703.119	11901
1705.279	11813
1707.439	11730
1709.598	11793
1711.758	11703
1713.917	11998
1716.075	11877
1718.231	11816
1720.388	11883
1722.543	11936
1724.702	11959
1726.856	11562
1729.01	11797
1731.164	11748
1733.317	11802
1735.471	11888
1737.623	11816
1739.774	12027
1741.925	11815
1744.075	11866
1746.225	11901
1748.376	11663
1750.524	11816
1752.672	11867
1754.82	11875
1756.965	11934
1759.113	11879
1761.259	11878
1763.405	11890
1765.549	12050
1767.694	11659
1769.836	12024
1771.981	11953
1774.123	11805
1776.264	11987
1778.405	12018
1780.546	11926
1782.687	11902
1784.827	11912
1786.966	11900
1789.103	12106
1791.242	12083
1793.381	11958
1795.517	11886
1797.653	12017
1799.788	12002
1801.923	12004
1804.057	11943
1806.193	12013
1808.326	11970
1810.457	12018
1812.59	11826
1814.721	12048
1816.855	11931
1818.984	11850
1821.113	11963
1823.244	11799
1825.372	11939
1827.499	11939
1829.63	11853
1831.756	11915
1833.882	11957
1836.007	11937
1838.132	11894
1840.26	12069
1842.384	11845
1844.507	11906
1846.63	11859
1848.752	11887
1850.875	11755
1852.996	11906
1855.118	11747
1857.238	11794
1859.358	11842
1861.477	11664
1863.597	11879
1865.715	11758
1867.832	11879
1869.948	11751
1872.064	11859
1874.181	11860
1876.297	11837
1878.411	11700
1880.526	11721
1882.639	11748
1884.752	11813
1886.865	11801
1888.977	11837
1891.089	11909
1893.2	11883
1895.308	11708
1897.42	11850
1899.53	11983
1901.639	11853
1903.745	11892
1905.853	11920
1907.962	12065
1910.067	11728
1912.174	12003
1914.278	12011
1916.383	12078
1918.486	11922
1920.592	12039
1922.694	11931
1924.797	11963
1926.898	12012
1929	11970
1931.102	11972
1933.203	12114
1935.301	11924
1937.401	11944
1939.499	12027
1941.598	11975
1943.697	12096
1945.793	12129
1947.888	12146
1949.985	11972
1952.08	11881
1954.176	12146
1956.269	12053
1958.364	11894
1960.457	12109
1962.549	11930
1964.642	12008
1966.733	12103
1968.823	12004
1970.913	11892
1973.005	11882
1975.093	11912
1977.184	12013
1979.271	11808
1981.359	11778
1983.446	11871
1985.532	11947
1987.619	11794
1989.705	11883
1991.789	11930
1993.874	11784
1995.956	11854
1998.041	11895
2000.123	11903
2002.206	11820
2004.287	11929
2006.368	11828
2008.449	11758
2010.529	11703
2012.609	11723
2014.688	11790
2016.766	11721
2018.843	11976
2020.922	11743
2022.999	11947
2025.074	11854
2027.15	11782
2029.225	11705
2031.299	11726
2033.375	11695
2035.447	11813
2037.52	11648
2039.592	11697
2041.664	11599
2043.736	11727
2045.807	11649
2047.876	11845
2049.947	11900
2052.015	11703
2054.086	11694
2056.153	11764
2058.221	11769
2060.288	11825
2062.353	11906
2064.42	11659
2066.486	11754
2068.55	11843
2070.614	11660
2072.678	11728
2074.741	11742
2076.805	11654
2078.866	11755
2080.929	11759
2082.99	11781
2085.049	11718
2087.109	11832
2089.17	11694
2091.228	11756
2093.286	11845
2095.344	11904
2097.4	11918
2099.46	11908
2101.516	11868
2103.572	11829
2105.626	11747
2107.679	11551
2109.735	11736
2111.788	11698
2113.841	11755
2115.894	11715
2117.945	11814
2119.997	11681
2122.049	11816
2124.1	11788
2126.148	11806
2128.197	11654
2130.246	11690
2132.296	11662
2134.342	11554
2136.39	11709
2138.437	11681
2140.483	11807
2142.527	11495
2144.574	11630
2146.619	11627
2148.661	11542
2150.705	11531
2152.747	11740
2154.792	11636
2156.832	11508
2158.874	11612
2160.915	11586
2162.954	11678
2164.995	11515
2167.034	11559
2169.072	11564
2171.111	11500
2173.148	11631
2175.186	11682
2177.223	11536
2179.258	11500
2181.294	11522
2183.328	11520
2185.362	11492
2187.398	11484
2189.431	11527
2191.463	11630
2193.495	11366
2195.528	11507
2197.56	11390
2199.59	11292
2201.62	11358
2203.649	11291
2205.678	11481
2207.708	11285
2209.737	11282
2211.764	11357
2213.791	11473
2215.817	11236
2217.843	11462
2219.87	11319
2221.895	11274
2223.919	11136
2225.942	11329
2227.966	11430
2229.988	11336
2232.012	11220
2234.032	11530
2236.054	11199
2238.074	11273
2240.095	11329
2242.116	11462
2244.135	11216
2246.153	11363
2248.171	11314
2250.188	11251
2252.208	11182
2254.223	11215
2256.239	11430
2258.255	11264
2260.269	11357
2262.283	11379
2264.3	11321
2266.312	11338
2268.325	11369
2270.336	11288
2272.349	11317
2274.362	11185
2276.372	11315
2278.383	11394
2280.392	11130
2282.402	11416
2284.409	11252
2286.418	11209
2288.427	11279
2290.433	11250
2292.441	11291
2294.446	11353
2296.453	11323
2298.459	11275
2300.463	11228
2302.466	11251
2304.471	11214
2306.475	11321
2308.477	11274
2310.478	11165
2312.481	11245
2314.481	11189
2316.481	11171
2318.482	11109
2320.482	11239
2322.48	11093
2324.48	11213
2326.478	11133
2328.476	11110
2330.473	11096
2332.469	11107
2334.465	11164
2336.46	11003
2338.454	11087
2340.45	11013
2342.444	10999
2344.437	10914
2346.43	11152
2348.421	10929
2350.414	10805
2352.405	11011
2354.396	11126
2356.386	11045
2358.376	11026
2360.366	10966
2362.355	11045
2364.343	10909
2366.331	10947
2368.317	11107
2370.304	10932
2372.292	11057
2374.278	10915
2376.262	11047
2378.247	10909
2380.23	10686
2382.216	10957
2384.199	10858
2386.181	10997
2388.163	10882
2390.144	10738
2392.127	10908
2394.107	10863
2396.087	10714
2398.066	10802
2400.046	10907
2402.023	10740
2404.004	10919
2405.981	10876
2407.957	10903
2409.934	10972
2411.91	10686
2413.886	10878
2415.862	10684
2417.836	10727
2419.809	10765
2421.784	10734
2423.756	10859
2425.73	10762
2427.701	10751
2429.672	10910
2431.644	10930
2433.615	10605
2435.586	10813
2437.555	10802
2439.523	10674
2441.491	10846
2443.459	10783
2445.428	10864
2447.395	10691
2449.361	10618
2451.327	10721
2453.292	10806
2455.257	10767
2457.223	10757
2459.187	10770
2461.15	10743
2463.113	10802
2465.076	10647
2467.039	10595
2468.999	10545
2470.96	10657
2472.921	10559
2474.881	10676
2476.841	10538
2478.8	10727
2480.759	10544
2482.717	10666
2484.675	10601
2486.63	10443
2488.589	10540
2490.545	10656
2492.5	10522
2494.455	10743
2496.408	10621
2498.364	10617
2500.318	10481
2502.27	10505
2504.223	10580
2506.174	10632
2508.126	10462
2510.078	10494
2512.03	10562
2513.979	10550
2515.927	10387
2517.877	10452
2519.826	10566
2521.775	10477
2523.722	10501
2525.668	10596
2527.616	10508
2529.561	10404
2531.508	10526
2533.452	10469
2535.398	10410
2537.342	10429
2539.284	10354
2541.229	10609
2543.173	10415
2545.114	10396
2547.055	10538
2548.996	10377
2550.938	10399
2552.878	10392
2554.817	10611
2556.756	10412
2558.695	10369
2560.633	10418
2562.572	10300
2564.509	10380
2566.445	10469
2568.382	10453
2570.317	10462
2572.254	10528
2574.189	10506
2576.123	10428
2578.057	10498
2579.99	10350
2581.923	10408
2583.855	10302
2585.788	10467
2587.719	10302
2589.65	10401
2591.579	10348
2593.511	10536
2595.44	10352
2597.37	10363
2599.297	10553
2601.225	10405
2603.153	10319
2605.08	10439
2607.007	10455
2608.932	10360
2610.858	10372
2612.782	10338
2614.709	10447
2616.632	10311
2618.556	10375
2620.478	10293
2622.401	10311
2624.324	10300
2626.247	10332
2628.167	10429
2630.088	10494
2632.008	10410
2633.928	10384
2635.848	10244
2637.766	10424
2639.684	10490
2641.603	10458
2643.519	10398
2645.437	10263
2647.353	10556
2649.27	10306
2651.184	10443
2653.099	10491
2655.014	10431
2656.928	10393
2658.842	10367
2660.755	10275
2662.667	10275
2664.579	10314
2666.491	10435
2668.402	10339
2670.312	10346
2672.222	10216
2674.132	10414
2676.042	10294
2677.951	10251
2679.859	10150
2681.766	10272
2683.674	10283
2685.582	10354
2687.488	10218
2689.392	10234
2691.298	10145
2693.202	10288
2695.107	10241
2697.012	10315
2698.914	10127
2700.817	10206
2702.72	10108
2704.622	10146
2706.524	10170
2708.425	9992
2710.326	10224
2712.225	10062
2714.125	10135
2716.024	10148
2717.923	9989
2719.822	10131
2721.719	9958
2723.616	10152
2725.512	10093
2727.41	10013
2729.305	10103
2731.201	9985
2733.095	10123
2734.99	10026
2736.884	10122
2738.778	10207
2740.67	9983
2742.562	10023
2744.455	10096
2746.346	9929
2748.238	10023
2750.129	9912
2752.018	10020
2753.907	10114
2755.797	10017
2757.687	10080
2759.575	10054
2761.462	9948
2763.349	9966
2765.237	10004
2767.124	9950
2769.009	9910
2770.894	10005
2772.779	10047
2774.663	9979
2776.547	10086
2778.431	9945
2780.314	9921
2782.197	9949
2784.078	9965
2785.96	9747
2787.842	10016
2789.723	9958
2791.603	9910
2793.483	9757
2795.362	9892
2797.241	9927
2799.121	9966
2800.997	9886
2802.874	9944
2804.751	9865
2806.628	9958
2808.506	9955
2810.38	9838
2812.255	9741
2814.13	9739
2816.003	9832
2817.878	9761
2819.752	9940
2821.623	9888
2823.496	9795
2825.368	9735
2827.238	9832
2829.111	9833
2830.98	9877
2832.851	9859
2834.719	9921
2836.589	9740
2838.458	9833
2840.327	9707
2842.193	9835
2844.061	9910
2845.927	9863
2847.794	9783
2849.66	9856
2851.525	10004
2853.39	9851
2855.254	9879
2857.117	10060
2858.983	9927
2860.845	9870
2862.707	10001
2864.569	10064
2866.431	10001
2868.293	9966
2870.154	10215
2872.013	10187
2873.873	10034
2875.733	10131
2877.592	10141
2879.451	10160
2881.309	10177
2883.166	10162
2885.022	10437
2886.879	10367
2888.736	10345
2890.591	10421
2892.446	10442
2894.301	10401
2896.155	10408
2898.009	10266
2899.863	10330
2901.716	10440
2903.568	10297
2905.419	10191
2907.27	10279
2909.123	10163
2910.973	10259
2912.824	10466
2914.673	10365
2916.521	10373
2918.372	10392
2920.22	10489
2922.067	10488
2923.914	10455
2925.761	10591
2927.607	10618
2929.455	10505
2931.301	10699
2933.144	10565
2934.99	10764
2936.833	10703
2938.678	10788
2940.522	10894
2942.364	10901
2944.207	10855
2946.048	10907
2947.891	11115
2949.731	11116
2951.571	11147
2953.412	11096
2955.25	11084
2957.09	11026
2958.93	10887
2960.767	10935
2962.606	11097
2964.443	10811
2966.279	10836
2968.116	10619
2969.953	10634
2971.788	10634
2973.623	10327
2975.457	10394
2977.292	10360
2979.127	10283
2980.959	10213
2982.792	10158
2984.624	10018
2986.455	10129
2988.288	10084
2990.119	10040
2991.949	9834
2993.779	9928
2995.608	9835
2997.439	9915
2999.268	9793
3001.096	9764
3002.923	9687
3004.751	9538
3006.578	9600
3008.406	9558
3010.232	9632
3012.057	9554
3013.883	9488
3015.706	9225
3017.532	9378
3019.356	9355
3021.179	9374
3023.002	9344
3024.823	9144
3026.646	9268
3028.469	9277
3030.289	9181
3032.11	9455
3033.93	9343
3035.749	9288
3037.57	9196
3039.39	9151
3041.207	9024
3043.026	9129
3044.842	9166
3046.661	9165
3048.477	9057
3050.294	9126
3052.109	9168
3053.925	9164
3055.739	9134
3057.555	9215
3059.368	9170
3061.181	9118
3062.995	9026
3064.807	9134
3066.62	8992
3068.433	9122
3070.243	8969
3072.054	9010
3073.865	8998
3075.675	9010
3077.485	8977
3079.293	9061
3081.102	8962
3082.911	8977
3084.719	8997
3086.527	8836
3088.333	8874
3090.139	8893
3091.945	8803
3093.75	8877
3095.557	8806
3097.361	8904
3099.165	8828
3100.969	8747
3102.772	8926
3104.575	8747
3106.379	8742
3108.181	8923
3109.982	8695
3111.783	8778
3113.584	8667
3115.386	8589
3117.186	8906
3118.985	8578
3120.783	8660
3122.582	8644
3124.381	8663
3126.179	8673
3127.975	8649
3129.772	8652
3131.569	8768
3133.365	8657
3135.161	8521
3136.956	8563
3138.751	8644
3140.544	8642
3142.338	8497
3144.132	8501
3145.925	8552
3147.717	8550
3149.509	8575
3151.301	8519
3153.091	8463
3154.884	8453
3156.673	8585
3158.462	8408
3160.252	8683
3162.041	8529
3163.831	8473
3165.618	8403
3167.405	8497
3169.193	8508
3170.979	8428
3172.767	8345
3174.553	8211
3176.338	8374
3178.123	8535
3179.907	8459
3181.692	8288
3183.477	8332
3185.259	8363
3187.042	8367
3188.824	8395
3190.607	8358
3192.389	8282
3194.17	8266
3195.951	8400
3197.73	8340
3199.51	8388
3201.289	8347
3203.07	8292
3204.848	8340
3206.626	8253
3208.403	8264
3210.18	8375
3211.959	8229
3213.735	8228
3215.511	8365
3217.285	8276
3219.06	8390
3220.836	8263
3222.611	8195
3224.384	8295
3226.158	8240
3227.929	8228
3229.702	8331
3231.476	8223
3233.248	8224
3235.018	8263
3236.789	8234
3238.56	8399
3240.33	8209
3242.1	8245
3243.869	8133
3245.637	8171
3247.405	8171
3249.172	8204
3250.941	8094
3252.707	8145
3254.474	8095
3256.24	8254
3258.006	8177
3259.772	8323
3261.537	8152
3263.301	8154
3265.065	8173
3266.828	8196
3268.592	8235
3270.355	8157
3272.117	8340
3273.878	7994
3275.64	8096
3277.401	8055
3279.162	8097
3280.922	8061
3282.682	8142
3284.441	8225
3286.199	8127
3287.959	8074
3289.716	8108
3291.475	8220
3293.232	8179
3294.988	8030
3296.744	8317
3298.501	8090
3300.256	8129
3302.011	8153
3303.766	8092
3305.52	8132
3307.275	8073
3309.028	7960
3310.781	8044
3312.533	8063
3314.285	7970
3316.038	8102
3317.789	7997
3319.54	8047
3321.289	7938
3323.039	8026
3324.789	8049
3326.539	7960
3328.288	7865
3330.035	8142
3331.783	8006
3333.531	8003
3335.28	8057
3337.025	7984
3338.771	8001
3340.518	7923
3342.262	7892
3344.009	7923
3345.753	7894
3347.497	8081
3349.24	8038
3350.983	8045
3352.726	7854
3354.469	7939
3356.212	7894
3357.952	7850
3359.694	7893
3361.434	7927
3363.176	7929
3364.916	8035
3366.654	7941
3368.394	7822
3370.132	7813
3371.871	7845
3373.61	7817
3375.346	7770
3377.083	7809
3378.82	7789
3380.556	7810
3382.292	7856
3384.027	7729
3385.763	7643
3387.497	7756
3389.231	7753
3390.965	7750
3392.698	7669
3394.431	7800
3396.164	7709
3397.896	7770
3399.627	7688
3401.36	7604
3403.09	7658
3404.82	7741
3406.55	7726
3408.279	7602
3410.01	7645
3411.738	7539
3413.467	7782
3415.194	7656
3416.92	7653
3418.647	7597
3420.375	7501
3422.102	7617
3423.827	7662
3425.553	7709
3427.277	7621
3429.003	7599
3430.727	7575
3432.451	7555
3434.173	7590
3435.896	7520
3437.62	7624
3439.343	7509
3441.063	7476
3442.785	7475
3444.505	7455
3446.226	7471
3447.948	7456
3449.666	7431
3451.386	7486
3453.104	7569
3454.823	7445
3456.541	7380
3458.259	7312
3459.976	7534
3461.693	7434
3463.408	7353
3465.125	7493
3466.841	7423
3468.556	7324
3470.271	7245
3471.985	7225
3473.698	7309
3475.414	7146
3477.126	7328
3478.838	7226
3480.55	7293
3482.263	7229
3483.975	7310
3485.686	7334
3487.396	7259
3489.106	7299
3490.817	7216
3492.526	7237
3494.236	7099
3495.944	7260
3497.652	7286
3499.359	7065
3501.066	7299
3502.775	7149
3504.481	7168
3506.187	7111
3507.893	7156
3509.598	7122
3511.304	7142
3513.009	7055
3514.713	7131
3516.417	7136
3518.12	7190
3519.821	7145
3521.525	7065
3523.228	7148
3524.929	7081
3526.631	7003
3528.33	7048
3530.032	7041
3531.733	7136
3533.433	6975
3535.131	7021
3536.83	7010
3538.529	7038
3540.227	7038
3541.925	7033
3543.623	6984
3545.319	7046
3547.016	7000
3548.712	6982
3550.408	7024
3552.103	7144
3553.798	6973
3555.491	7006
3557.188	6814
3558.88	6989
3560.574	6838
3562.266	6929
3563.959	6917
3565.651	6853
3567.343	6932
3569.035	6927
3570.725	6857
3572.415	6833
3574.106	6904
3575.797	6796
3577.485	6790
3579.174	6791
3580.863	6835
3582.551	6756
3584.238	6673
3585.926	6804
3587.613	6807
3589.3	6892
3590.986	6826
3592.671	6669
3594.357	6605
3596.042	6701
3597.726	6756
3599.41	6679
3601.094	6692
3602.778	6773
3604.461	6653
3606.143	6638
3607.825	6645
3609.507	6703
3611.188	6585
3612.87	6597
3614.551	6706
3616.229	6672
3617.909	6534
3619.589	6533
3621.269	6589
3622.948	6452
3624.625	6520
3626.302	6471
3627.98	6475
3629.657	6503
3631.334	6662
3633.01	6542
3634.686	6427
3636.361	6433
3638.036	6472
3639.712	6590
3641.385	6434
3643.06	6416
3644.732	6360
3646.405	6537
3648.08	6437
3649.751	6565
3651.424	6478
3653.094	6372
3654.766	6426
3656.436	6325
3658.106	6434
3659.777	6392
3661.446	6367
3663.115	6382
3664.783	6355
3666.452	6349
3668.121	6462
3669.788	6418
3671.454	6416
3673.121	6316
3674.789	6352
3676.455	6346
3678.12	6228
3679.784	6324
3681.45	6198
3683.114	6239
3684.779	6283
3686.442	6267
3688.105	6234
3689.768	6222
3691.43	6286
3693.093	6287
3694.754	6222
3696.415	6287
3698.076	6306
3699.736	6230
3701.396	6183
3703.057	6283
3704.716	6227
3706.375	6260
3708.034	6259
3709.692	6220
3711.351	6210
3713.008	6191
3714.665	6180
3716.321	6214
3717.977	6254
3719.634	6135
3721.29	6207
3722.945	6201
3724.598	6144
3726.253	6119
3727.907	6221
3729.561	6240
3731.214	6121
3732.867	6130
3734.518	6150
3736.171	6270
3737.824	6123
3739.474	6016
3741.125	6112
3742.775	5990
3744.425	6086
3746.074	6132
3747.725	6127
3749.373	6041
3751.022	5944
3752.669	6051
3754.318	6130
3755.966	6018
3757.612	6133
3759.259	6049
3760.905	6173
3762.55	6042
3764.197	6057
3765.842	5952
3767.486	5981
3769.131	5959
3770.774	5998
3772.417	5991
3774.061	5995
3775.705	5940
3777.347	5947
3778.988	5825
3780.629	5884
3782.271	5964
3783.912	5864
3785.552	5878
3787.192	5897
3788.831	5935
3790.472	5983
3792.112	5984
3793.75	5862
3795.388	5856
3797.024	5855
3798.661	5865
3800.3	5851
3801.936	5900
3803.572	5901
3805.208	5821
3806.844	5880
3808.48	5794
3810.115	5824
3811.748	5919
3813.382	5910
3815.016	5880
3816.649	5703
3818.283	5820
3819.914	5726
3821.547	5730
3823.178	5797
3824.809	5783
3826.441	5718
3828.072	5656
3829.701	5702
3831.331	5708
3832.96	5663
3834.591	5753
3836.219	5660
3837.847	5789
3839.475	5795
3841.102	5710
3842.729	5622
3844.357	5718
3845.984	5647
3847.609	5630
3849.234	5697
3850.86	5664
3852.485	5694
3854.11	5696
3855.734	5616
3857.357	5635
3858.981	5773
3860.603	5607
3862.227	5695
3863.848	5552
3865.471	5638
3867.092	5574
3868.713	5703
3870.334	5511
3871.954	5576
3873.575	5547
3875.194	5537
3876.813	5511
3878.433	5684
3880.051	5562
3881.669	5526
3883.286	5469
3884.904	5601
3886.52	5445
3888.138	5491
3889.754	5552
3891.37	5564
3892.985	5488
3894.6	5468
3896.216	5502
3897.831	5492
3899.444	5476
3901.058	5557
3902.67	5554
3904.283	5525
3905.897	5434
3907.509	5459
3909.121	5490
3910.731	5432
3912.342	5506
3913.954	5388
3915.563	5409
3917.174	5451
3918.783	5470
3920.391	5382
3922.002	5497
3923.611	5432
3925.218	5455
3926.826	5452
3928.432	5473
3930.039	5298
3931.647	5291
3933.253	5479
3934.859	5384
3936.464	5413
3938.068	5513
3939.675	5386
3941.278	5310
3942.883	5514
3944.486	5348
3946.089	5336
3947.692	5320
3949.295	5424
3950.898	5340
3952.499	5357
3954.1	5489
3955.7	5348
3957.303	5297
3958.903	5345
3960.502	5323
3962.101	5282
3963.7	5265
3965.301	5299
3966.899	5300
3968.497	5297
3970.094	5379
3971.691	5295
3973.288	5296
3974.885	5350
3976.481	5271
3978.077	5303
3979.672	5270
3981.267	5194
3982.863	5236
3984.457	5257
3986.051	5205
3987.645	5210
3989.238	5227
3990.831	5110
3992.425	5143
3994.017	5164
3995.607	5241
3997.199	5182
3998.79	5161
4000.382	5187
4001.973	5196
4003.561	5026
4005.151	5058
4006.741	5124
4008.331	5072
4009.918	5004
4011.507	5086
4013.095	5120
4014.681	4964
4016.269	5056
4017.856	5031
4019.443	5182
4021.028	4995
4022.614	5029
4024.199	5057
4025.785	5046
4027.37	4944
4028.953	5078
4030.536	5106
4032.12	5028
4033.704	4951
4035.287	5044
4036.869	4979
4038.45	4824
4040.032	4942
4041.613	4885
4043.195	4935
4044.776	5021
4046.356	4898
4047.935	4973
4049.515	4998
4051.095	4915
4052.674	4971
4054.251	4930
4055.829	4918
4057.406	4938
4058.985	4941
4060.562	4899
4062.139	4888
4063.715	4912
4065.29	4845
4066.865	4804
4068.442	4873
4070.016	4808
4071.59	4916
4073.164	4855
4074.738	4811
4076.312	4801
4077.885	4837
4079.458	4884
4081.03	4822
4082.602	4885
4084.173	4799
4085.745	4771
4087.315	4815
4088.886	4854
4090.456	4763
4092.026	4839
4093.596	4843
4095.165	4907
4096.734	4755
4098.301	4811
4099.869	4792
4101.437	4838
4103.006	4831
4104.572	4741
4106.139	4782
4107.704	4721
4109.27	4790
4110.837	4698
4112.401	4747
4113.966	4724
4115.53	4739
4117.094	4718
4118.659	4644
4120.223	4591
4121.785	4708
4123.347	4669
4124.909	4674
4126.471	4717
4128.034	4664
4129.595	4596
4131.155	4669
4132.716	4650
4134.275	4562
4135.836	4608
4137.395	4570
4138.955	4588
4140.513	4488
4142.071	4569
4143.628	4541
4145.188	4600
4146.745	4573
4148.302	4672
4149.858	4599
4151.414	4545
4152.971	4583
4154.526	4681
4156.081	4500
4157.635	4521
4159.189	4514
4160.745	4559
4162.298	4572
4163.852	4462
4165.405	4471
4166.957	4557
4168.51	4486
4170.063	4447
4171.614	4464
4173.166	4441
4174.717	4435
4176.267	4467
4177.817	4464
4179.368	4468
4180.917	4454
4182.466	4506
4184.016	4464
4185.564	4396
4187.112	4466
4188.66	4339
4190.207	4374
4191.754	4356
4193.301	4381
4194.848	4468
4196.394	4361
4197.94	4448
4199.484	4376
4201.03	4338
4202.575	4408
4204.12	4294
4205.663	4405
4207.207	4313
4208.75	4304
4210.292	4392
4211.836	4381
4213.378	4323
4214.92	4433
4216.46	4322
4218.002	4300
4219.544	4324
4221.083	4285
4222.625	4330
4224.164	4367
4225.703	4295
4227.244	4317
4228.782	4316
4230.32	4373
4231.857	4346
4233.395	4305
4234.933	4328
4236.471	4323
4238.007	4191
4239.542	4343
4241.078	4258
4242.614	4228
4244.15	4223
4245.685	4306
4247.219	4242
4248.753	4231
4250.287	4157
4251.82	4255
4253.354	4256
4254.887	4237
4256.419	4185
4257.951	4144
4259.483	4228
4261.016	4158
4262.547	4244
4264.078	4217
4265.608	4200
4267.137	4191
4268.668	4188
4270.197	4199
4271.727	4176
4273.254	4116
4274.783	4156
4276.311	4180
4277.84	4165
4279.366	4098
4280.894	4200
4282.42	4144
4283.946	4200
4285.473	4124
4286.998	4165
4288.523	4100
4290.047	4158
4291.572	4142
4293.096	4075
4294.622	4205
4296.144	4138
4297.668	4067
4299.19	4059
4300.713	4001
4302.236	4113
4303.758	4104
4305.279	4039
4306.799	3998
4308.321	4034
4309.842	4095
4311.361	4064
4312.882	4121
4314.401	4099
