400.0961	4321
402.6185	4304
405.1424	4297
407.6635	4332
410.1838	4326
412.7035	4359
415.2225	4344
417.7388	4432
420.2585	4424
422.7754	4452
425.2917	4528
427.8072	4435
430.3221	4564
432.8363	4543
435.3498	4585
437.8626	4579
440.3727	4575
442.8841	4669
445.3969	4556
447.907	4505
450.4142	4507
452.9229	4595
455.4289	4553
457.9362	4580
460.4449	4577
462.9488	4577
465.454	4588
467.9566	4622
470.4604	4613
472.9637	4653
475.4662	4654
477.966	4731
480.4671	4688
482.9656	4719
485.4633	4739
487.9645	4594
490.4608	4637
492.9566	4688
495.4536	4743
497.948	4777
500.4437	4790
502.9387	4750
505.431	4734
507.9226	4875
510.4136	4738
512.9079	4742
515.3975	4848
517.8864	4782
520.3746	4784
522.8622	4783
525.3491	4824
527.8394	4775
530.3249	4824
532.8098	4827
535.2939	4823
537.7774	4670
540.2623	4924
542.7444	4821
545.2259	4839
547.7067	4830
550.1868	4795
552.6683	4828
555.147	4825
557.6231	4797
560.1005	4880
562.5773	4943
565.0534	4846
567.5308	4941
570.0056	4917
572.4776	4873
574.951	4913
577.4237	4931
579.8978	4982
582.3671	5070
584.8378	4937
587.3079	5041
589.7773	4973
592.244	4994
594.714	4969
597.1793	5091
599.6461	4946
602.1121	4916
604.5754	4986
607.0421	4956
609.5042	4855
611.9675	4967
614.4282	4979
616.8902	5007
619.3515	4982
621.8122	4992
624.2702	5019
626.7296	4938
629.1863	5035
631.6423	4976
634.1017	4981
636.5563	4984
639.0104	5006
641.4658	5063
643.9185	4982
646.3725	5059
648.8239	4994
651.2766	5087
653.7266	5022
656.176	5000
658.6247	5186
661.0748	5073
663.5242	5047
665.9709	5107
668.417	5132
670.8624	5216
673.3092	5079
675.7533	5199
678.1968	5173
680.6395	5164
683.0817	5183
685.5251	5252
687.9659	5209
690.4061	5243
692.8456	5197
695.2844	5161
697.7226	5278
700.1621	5200
702.599	5232
705.0332	5296
707.4688	5272
709.9036	5280
712.3399	5358
714.7735	5324
717.2044	5291
719.6367	5257
722.0683	5241
724.4993	5336
726.9296	5328
729.3593	5294
731.7883	5349
734.2147	5390
736.6423	5378
739.0714	5536
741.4958	5424
743.9216	5462
746.3447	5483
748.7691	5443
751.1929	5508
753.616	5441
756.0366	5474
758.4584	5491
760.8776	5568
763.2982	5594
765.718	5604
768.1373	5562
770.5539	5524
772.9698	5588
775.3871	5486
777.8038	5665
780.2178	5470
782.6332	5516
785.0459	5536
787.458	5590
789.8714	5481
792.2842	5530
794.6943	5505
797.1038	5581
799.5127	5619
801.9209	5614
804.3324	5533
806.7393	5660
809.1456	5687
811.5513	5509
813.9562	5529
816.3625	5591
818.7663	5683
821.1693	5753
823.5718	5634
825.9735	5657
828.3746	5632
830.7771	5662
833.177	5607
835.5762	5755
837.9747	5642
840.3727	5552
842.772	5721
845.1666	5760
847.5626	5701
849.958	5701
852.3527	5659
854.7488	5770
857.1403	5815
859.5331	5877
861.9253	5700
864.3168	5703
866.7057	5732
869.098	5778
871.4876	5673
873.8746	5689
876.263	5729
878.6487	5824
881.0378	5726
883.4243	5699
885.8081	5712
888.1933	5768
890.5759	5598
892.9598	5695
895.343	5724
897.7256	5748
900.1057	5747
902.4871	5769
904.8659	5772
907.246	5684
909.6254	5818
912.0023	5808
914.3786	5919
916.7562	6008
919.1331	6061
921.5074	6114
923.8831	6062
926.2562	6108
928.6287	6133
931.0005	6157
933.3757	6011
935.7462	6048
938.1162	6070
940.4855	6037
942.8542	6126
945.2242	6024
947.5916	6091
949.9584	6260
952.3266	6140
954.6921	6405
957.0571	6331
959.4233	6520
961.787	6502
964.15	6405
966.5125	6422
968.8742	6397
971.2354	6272
973.5959	6132
975.9559	6186
978.3151	6023
980.6738	6089
983.0338	6028
985.3912	5885
987.7461	6055
990.1022	5995
992.4578	5925
994.8127	6006
997.1689	6010
999.5207	5900
1001.874	5920
1004.226	6049
1006.576	5841
1008.929	5946
1011.28	5971
1013.628	6036
1015.977	5924
1018.324	5892
1020.674	5890
1023.019	5954
1025.366	5933
1027.713	5934
1030.056	6021
1032.399	5986
1034.746	5941
1037.087	6040
1039.431	6075
1041.771	6069
1044.113	6047
1046.454	5987
1048.793	5962
1051.133	5983
1053.471	6053
1055.807	5980
1058.146	6063
1060.483	6036
1062.818	6103
1065.153	6160
1067.489	6076
1069.822	6094
1072.156	6190
1074.488	6080
1076.82	6134
1079.15	6063
1081.48	5962
1083.814	6023
1086.143	6033
1088.471	6148
1090.799	5982
1093.126	5956
1095.452	6034
1097.78	6166
1100.105	6124
1102.43	6030
1104.754	6109
1107.077	6142
1109.4	6063
1111.722	6122
1114.044	6115
1116.365	6166
1118.685	6144
1121.005	6029
1123.324	6233
1125.643	6228
1127.961	6183
1130.278	6280
1132.595	6117
1134.911	6210
1137.226	6175
1139.541	6104
1141.854	6187
1144.167	6115
1146.482	6203
1148.793	6181
1151.105	6105
1153.414	6184
1155.725	6143
1158.033	6142
1160.344	6192
1162.651	6155
1164.959	6200
1167.265	6173
1169.572	6185
1171.878	6181
1174.184	6201
1176.488	6235
1178.79	6267
1181.094	6189
1183.396	6249
1185.699	6192
1188.001	6165
1190.301	6100
1192.6	6164
1194.9	6160
1197.2	6018
1199.497	6156
1201.794	6203
1204.09	6140
1206.387	6165
1208.684	6282
1210.978	6298
1213.272	6110
1215.565	6138
1217.858	6049
1220.15	6198
1222.443	6171
1224.734	6153
1227.024	6282
1229.313	6237
1231.602	6322
1233.892	6259
1236.18	6311
1238.467	6312
1240.754	6389
1243.04	6370
1245.325	6369
1247.612	6516
1249.896	6331
1252.178	6429
1254.461	6374
1256.743	6486
1259.027	6513
1261.308	6361
1263.587	6480
1265.867	6595
1268.146	6533
1270.425	6543
1272.703	6434
1274.981	6470
1277.256	6503
1279.532	6370
1281.808	6333
1284.083	6398
1286.358	6484
1288.63	6359
1290.904	6360
1293.175	6329
1295.449	6399
1297.719	6415
1299.99	6265
1302.259	6379
1304.529	6317
1306.798	6348
1309.065	6384
1311.333	6297
1313.599	6374
1315.866	6434
1318.131	6329
1320.396	6374
1322.66	6485
1324.925	6416
1327.187	6476
1329.448	6482
1331.711	6464
1333.974	6514
1336.234	6465
1338.493	6417
1340.752	6365
1343.01	6422
1345.269	6391
1347.526	6415
1349.784	6414
1352.04	6337
1354.295	6457
1356.552	6378
1358.806	6388
1361.059	6365
1363.312	6424
1365.564	6318
1367.818	6397
1370.069	6360
1372.318	6444
1374.568	6479
1376.817	6450
1379.066	6413
1381.316	6458
1383.564	6387
1385.809	6393
1388.056	6609
1390.301	6481
1392.549	6605
1394.793	6668
1397.036	6797
1399.279	6641
1401.522	6673
1403.763	6697
1406.007	6818
1408.248	6563
1410.487	6705
1412.727	6650
1414.965	6782
1417.205	6744
1419.442	6784
1421.68	6604
1423.915	6596
1426.152	6600
1428.388	6534
1430.623	6697
1432.857	6498
1435.091	6595
1437.323	6708
1439.556	6703
1441.789	6721
1444.019	6689
1446.25	6613
1448.48	6687
1450.708	6840
1452.938	6633
1455.167	6747
1457.394	6838
1459.62	6794
1461.846	6705
1464.073	6877
1466.299	6607
1468.523	6684
1470.746	6621
1472.969	6643
1475.191	6544
1477.415	6621
1479.636	6587
1481.858	6483
1484.078	6442
1486.298	6405
1488.518	6374
1490.736	6429
1492.954	6283
1495.169	6462
1497.386	6430
1499.602	6562
1501.819	6346
1504.034	6355
1506.248	6271
1508.462	6314
1510.675	6382
1512.888	6305
1515.1	6397
1517.311	6350
1519.522	6345
1521.732	6338
1523.942	6421
1526.151	6467
1528.36	6424
1530.566	6343
1532.773	6318
1534.98	6363
1537.187	6351
1539.392	6258
1541.596	6364
1543.801	6331
1546.005	6446
1548.208	6467
1550.411	6351
1552.612	6417
1554.814	6353
1557.013	6526
1559.212	6445
1561.414	6439
1563.612	6493
1565.811	6549
1568.007	6644
1570.203	6561
1572.403	6455
1574.598	6454
1576.792	6673
1578.988	6684
1581.181	6555
1583.376	6590
1585.568	6687
1587.761	6585
1589.952	6514
1592.143	6610
1594.333	6573
1596.524	6645
1598.715	6528
1600.903	6603
1603.091	6647
1605.278	6583
1607.466	6598
1609.652	6475
1611.838	6729
1614.023	6709
1616.207	6623
1618.391	6556
1620.576	6535
1622.759	6733
1624.941	6718
1627.123	6637
1629.304	6694
1631.484	6641
1633.664	6637
1635.844	6706
1638.022	6571
1640.201	6719
1642.38	6643
1644.556	6715
1646.732	6746
1648.908	6684
1651.084	6730
1653.257	6603
1655.433	6687
1657.607	6585
1659.779	6814
1661.951	6616
1664.122	6749
1666.295	6752
1668.467	6652
1670.635	6731
1672.805	6813
1674.973	6746
1677.142	6698
1679.31	6677
1681.478	6675
1683.644	6699
1685.81	6697
1687.975	6763
1690.142	6740
1692.305	6640
1694.468	6816
1696.632	6655
1698.794	6703
1700.957	6517
1703.119	6643
1705.279	6602
1707.439	6661
1709.598	6644
1711.758	6477
1713.917	6562
1716.075	6595
1718.231	6701
1720.388	6663
1722.543	6620
1724.702	6705
1726.856	6572
1729.01	6452
1731.164	6514
1733.317	6670
1735.471	6642
1737.623	6516
1739.774	6559
1741.925	6623
1744.075	6516
1746.225	6680
1748.376	6584
1750.524	6588
1752.672	6590
1754.82	6602
1756.965	6661
1759.113	6562
1761.259	6670
1763.405	6690
1765.549	6683
1767.694	6627
1769.836	6517
1771.981	6695
1774.123	6654
1776.264	6651
1778.405	6600
1780.546	6630
1782.687	6654
1784.827	6678
1786.966	6575
1789.103	6634
1791.242	6637
1793.381	6584
1795.517	6656
1797.653	6623
1799.788	6687
1801.923	6637
1804.057	6679
1806.193	6667
1808.326	6706
1810.457	6706
1812.59	6733
1814.721	6705
1816.855	6724
1818.984	6601
1821.113	6642
1823.244	6650
1825.372	6718
1827.499	6593
1829.63	6673
1831.756	6614
1833.882	6590
1836.007	6592
1838.132	6631
1840.26	6628
1842.384	6642
1844.507	6581
1846.63	6603
1848.752	6734
1850.875	6513
1852.996	6575
1855.118	6525
1857.238	6606
1859.358	6673
1861.477	6524
1863.597	6553
1865.715	6618
1867.832	6708
1869.948	6582
1872.064	6499
1874.181	6599
1876.297	6631
1878.411	6442
1880.526	6522
1882.639	6616
1884.752	6535
1886.865	6595
1888.977	6668
1891.089	6581
1893.2	6471
1895.308	6522
1897.42	6680
1899.53	6521
1901.639	6534
1903.745	6631
1905.853	6680
1907.962	6593
1910.067	6660
1912.174	6544
1914.278	6569
1916.383	6669
1918.486	6618
1920.592	6600
1922.694	6583
1924.797	6672
1926.898	6678
1929	6689
1931.102	6597
1933.203	6710
1935.301	6703
1937.401	6563
1939.499	6684
1941.598	6689
1943.697	6821
1945.793	6594
1947.888	6688
1949.985	6824
1952.08	6703
1954.176	6720
1956.269	6621
1958.364	6626
1960.457	6676
1962.549	6672
1964.642	6618
1966.733	6669
1968.823	6734
1970.913	6575
1973.005	6626
1975.093	6685
1977.184	6642
1979.271	6536
1981.359	6561
1983.446	6733
1985.532	6652
1987.619	6592
1989.705	6657
1991.789	6559
1993.874	6673
1995.956	6566
1998.041	6579
2000.123	6605
2002.206	6498
2004.287	6644
2006.368	6573
2008.449	6604
2010.529	6607
2012.609	6594
2014.688	6722
2016.766	6594
2018.843	6619
2020.922	6634
2022.999	6517
2025.074	6603
2027.15	6567
2029.225	6500
2031.299	6517
2033.375	6524
2035.447	6576
2037.52	6527
2039.592	6557
2041.664	6496
2043.736	6563
2045.807	6505
2047.876	6635
2049.947	6558
2052.015	6601
2054.086	6562
2056.153	6580
2058.221	6615
2060.288	6593
2062.353	6490
2064.42	6669
2066.486	6709
2068.55	6690
2070.614	6566
2072.678	6619
2074.741	6633
2076.805	6601
2078.866	6646
2080.929	6593
2082.99	6613
2085.049	6579
2087.109	6600
2089.17	6638
2091.228	6701
2093.286	6707
2095.344	6610
2097.4	6623
2099.46	6624
2101.516	6627
2103.572	6590
2105.626	6623
2107.679	6513
2109.735	6578
2111.788	6521
2113.841	6636
2115.894	6581
2117.945	6613
2119.997	6408
2122.049	6451
2124.1	6650
2126.148	6620
2128.197	6504
2130.246	6531
2132.296	6617
2134.342	6582
2136.39	6631
2138.437	6607
2140.483	6541
2142.527	6620
2144.574	6557
2146.619	6501
2148.661	6599
2150.705	6606
2152.747	6433
2154.792	6578
2156.832	6658
2158.874	6558
2160.915	6409
2162.954	6550
2164.995	6486
2167.034	6492
2169.072	6481
2171.111	6490
2173.148	6557
2175.186	6487
2177.223	6463
2179.258	6521
2181.294	6479
2183.328	6386
2185.362	6543
2187.398	6411
2189.431	6429
2191.463	6396
2193.495	6397
2195.528	6511
2197.56	6494
2199.59	6469
2201.62	6441
2203.649	6498
2205.678	6410
2207.708	6497
2209.737	6525
2211.764	6440
2213.791	6415
2215.817	6432
2217.843	6459
2219.87	6328
2221.895	6378
2223.919	6365
2225.942	6418
2227.966	6462
2229.988	6300
2232.012	6336
2234.032	6432
2236.054	6374
2238.074	6473
2240.095	6346
2242.116	6457
2244.135	6384
2246.153	6403
2248.171	6466
2250.188	6346
2252.208	6359
2254.223	6465
2256.239	6434
2258.255	6363
2260.269	6298
2262.283	6389
2264.3	6431
2266.312	6263
2268.325	6391
2270.336	6449
2272.349	6339
2274.362	6450
2276.372	6446
2278.383	6408
2280.392	6386
2282.402	6356
2284.409	6290
2286.418	6331
2288.427	6406
2290.433	6263
2292.441	6386
2294.446	6301
2296.453	6413
2298.459	6481
2300.463	6380
2302.466	6310
2304.471	6359
2306.475	6345
2308.477	6314
2310.478	6353
2312.481	6264
2314.481	6329
2316.481	6423
2318.482	6321
2320.482	6325
2322.48	6333
2324.48	6321
2326.478	6336
2328.476	6375
2330.473	6271
2332.469	6280
2334.465	6240
2336.46	6228
2338.454	6216
2340.45	6364
2342.444	6316
2344.437	6317
2346.43	6296
2348.421	6170
2350.414	6313
2352.405	6182
2354.396	6310
2356.386	6315
2358.376	6225
2360.366	6202
2362.355	6190
2364.343	6261
2366.331	6151
2368.317	6128
2370.304	6213
2372.292	6226
2374.278	6234
2376.262	6248
2378.247	6192
2380.23	6257
2382.216	6209
2384.199	6125
2386.181	6088
2388.163	6199
2390.144	6122
2392.127	6258
2394.107	6116
2396.087	6155
2398.066	6111
2400.046	6068
2402.023	6143
2404.004	6180
2405.981	6196
2407.957	6229
2409.934	6098
2411.91	6147
2413.886	6132
2415.862	6241
2417.836	6100
2419.809	6138
2421.784	6206
2423.756	6183
2425.73	6131
2427.701	6098
2429.672	6194
2431.644	6134
2433.615	6026
2435.586	6114
2437.555	6027
2439.523	6066
2441.491	6143
2443.459	6094
2445.428	6217
2447.395	6000
2449.361	6143
2451.327	6097
2453.292	6197
2455.257	6056
2457.223	6146
2459.187	6064
2461.15	6133
2463.113	6061
2465.076	6110
2467.039	6135
2468.999	6188
2470.96	6118
2472.921	6024
2474.881	6152
2476.841	6037
2478.8	6057
2480.759	6033
2482.717	5963
2484.675	6139
2486.63	6116
2488.589	6103
2490.545	6112
2492.5	5905
2494.455	6111
2496.408	5964
2498.364	5952
2500.318	6022
2502.27	5958
2504.223	5903
2506.174	6078
2508.126	5906
2510.078	5864
2512.03	5992
2513.979	6013
2515.927	6015
2517.877	5954
2519.826	5989
2521.775	5929
2523.722	6091
2525.668	6015
2527.616	6121
2529.561	6031
2531.508	5997
2533.452	5944
2535.398	6011
2537.342	5991
2539.284	5974
2541.229	6050
2543.173	6013
2545.114	5926
2547.055	6077
2548.996	5946
2550.938	5977
2552.878	5992
2554.817	5927
2556.756	6016
2558.695	6009
2560.633	6041
2562.572	6050
2564.509	6004
2566.445	5972
2568.382	6027
2570.317	5980
2572.254	6031
2574.189	6007
2576.123	5915
2578.057	5895
2579.99	5876
2581.923	5948
2583.855	6011
2585.788	5930
2587.719	5906
2589.65	5908
2591.579	5958
2593.511	5955
2595.44	5922
2597.37	5959
2599.297	5949
2601.225	5999
2603.153	5864
2605.08	6005
2607.007	5990
2608.932	5967
2610.858	5989
2612.782	5902
2614.709	5997
2616.632	5857
2618.556	5954
2620.478	6019
2622.401	6074
2624.324	5882
2626.247	5874
2628.167	6030
2630.088	5949
2632.008	6020
2633.928	5978
2635.848	5962
2637.766	6061
2639.684	5940
2641.603	5953
2643.519	5908
2645.437	6052
2647.353	6069
2649.27	5907
2651.184	5928
2653.099	6089
2655.014	5984
2656.928	5944
2658.842	5965
2660.755	5950
2662.667	5913
2664.579	5985
2666.491	5915
2668.402	5901
2670.312	5894
2672.222	5835
2674.132	5865
2676.042	5990
2677.951	5930
2679.859	5999
2681.766	5868
2683.674	5925
2685.582	5893
2687.488	5846
2689.392	5838
2691.298	5955
2693.202	5752
2695.107	5891
2697.012	5877
2698.914	5809
2700.817	5815
2702.72	5920
2704.622	5910
2706.524	5859
2708.425	5895
2710.326	5889
2712.225	5907
2714.125	5934
2716.024	5909
2717.923	5732
2719.822	5835
2721.719	5779
2723.616	5847
2725.512	5899
2727.41	5811
2729.305	5811
2731.201	5815
2733.095	5787
2734.99	5790
2736.884	5788
2738.778	5910
2740.67	5759
2742.562	5830
2744.455	5810
2746.346	5756
2748.238	5826
2750.129	5932
2752.018	5787
2753.907	5717
2755.797	5822
2757.687	5792
2759.575	5791
2761.462	5755
2763.349	5775
2765.237	5828
2767.124	5753
2769.009	5768
2770.894	5864
2772.779	5767
2774.663	5805
2776.547	5755
2778.431	5709
2780.314	5683
2782.197	5755
2784.078	5704
2785.96	5713
2787.842	5810
2789.723	5879
2791.603	5753
2793.483	5698
2795.362	5701
2797.241	5709
2799.121	5731
2800.997	5686
2802.874	5750
2804.751	5719
2806.628	5602
2808.506	5650
2810.38	5602
2812.255	5887
2814.13	5825
2816.003	5734
2817.878	5677
2819.752	5717
2821.623	5748
2823.496	5690
2825.368	5778
2827.238	5682
2829.111	5726
2830.98	5771
2832.851	5729
2834.719	5765
2836.589	5750
2838.458	5699
2840.327	5812
2842.193	5742
2844.061	5790
2845.927	5726
2847.794	5819
2849.66	5795
2851.525	5775
2853.39	5759
2855.254	5809
2857.117	5814
2858.983	5810
2860.845	5960
2862.707	5873
2864.569	5784
2866.431	5839
2868.293	5918
2870.154	5986
2872.013	5913
2873.873	5945
2875.733	6082
2877.592	6045
2879.451	6076
2881.309	6094
2883.166	6127
2885.022	6071
2886.879	6168
2888.736	6271
2890.591	6189
2892.446	6298
2894.301	6376
2896.155	6263
2898.009	6255
2899.863	6180
2901.716	6199
2903.568	6287
2905.419	6243
2907.27	6149
2909.123	6168
2910.973	6184
2912.824	6326
2914.673	6198
2916.521	6277
2918.372	6171
2920.22	6428
2922.067	6471
2923.914	6426
2925.761	6475
2927.607	6433
2929.455	6571
2931.301	6444
2933.144	6520
2934.99	6530
2936.833	6595
2938.678	6649
2940.522	6590
2942.364	6750
2944.207	6793
2946.048	6928
2947.891	6995
2949.731	6893
2951.571	6911
2953.412	6917
2955.25	6965
2957.09	6796
2958.93	6695
2960.767	6727
2962.606	6810
2964.443	6634
2966.279	6611
2968.116	6423
2969.953	6465
2971.788	6405
2973.623	6222
2975.457	6249
2977.292	6256
2979.127	6199
2980.959	6060
2982.792	6081
2984.624	5975
2986.455	6038
2988.288	6006
2990.119	5995
2991.949	5937
2993.779	5954
2995.608	5846
2997.439	5870
2999.268	5799
3001.096	5763
3002.923	5695
3004.751	5787
3006.578	5687
3008.406	5671
3010.232	5631
3012.057	5585
3013.883	5542
3015.706	5612
3017.532	5575
3019.356	5503
3021.179	5531
3023.002	5546
3024.823	5416
3026.646	5488
3028.469	5533
3030.289	5453
3032.11	5424
3033.93	5493
3035.749	5386
3037.57	5313
3039.39	5377
3041.207	5418
3043.026	5341
3044.842	5427
3046.661	5387
3048.477	5413
3050.294	5369
3052.109	5334
3053.925	5363
3055.739	5320
3057.555	5325
3059.368	5415
3061.181	5240
3062.995	5315
3064.807	5341
3066.62	5333
3068.433	5450
3070.243	5415
3072.054	5342
3073.865	5385
3075.675	5262
3077.485	5343
3079.293	5356
3081.102	5431
3082.911	5307
3084.719	5239
3086.527	5349
3088.333	5292
3090.139	5256
3091.945	5162
3093.75	5208
3095.557	5229
3097.361	5126
3099.165	5158
3100.969	5174
3102.772	5191
3104.575	5116
3106.379	5293
3108.181	5139
3109.982	5085
3111.783	5160
3113.584	5178
3115.386	5139
3117.186	5194
3118.985	5068
3120.783	5177
3122.582	5122
3124.381	5080
3126.179	5118
3127.975	5083
3129.772	5137
3131.569	5132
3133.365	5202
3135.161	5020
3136.956	5069
3138.751	5016
3140.544	4979
3142.338	5037
3144.132	4980
3145.925	5121
3147.717	5111
3149.509	5053
3151.301	5096
3153.091	5007
3154.884	5030
3156.673	5022
3158.462	5041
3160.252	4998
3162.041	5007
3163.831	5051
3165.618	5025
3167.405	5074
3169.193	5069
3170.979	4964
3172.767	5046
3174.553	5086
3176.338	5135
3178.123	4961
3179.907	4980
3181.692	5016
3183.477	4919
3185.259	5012
3187.042	4936
3188.824	4907
3190.607	4947
3192.389	4926
3194.17	4886
3195.951	4937
3197.73	5017
3199.51	4954
3201.289	4877
3203.07	4967
3204.848	4936
3206.626	4935
3208.403	4937
3210.18	4924
3211.959	4869
3213.735	4915
3215.511	4944
3217.285	4911
3219.06	4963
3220.836	4903
3222.611	4931
3224.384	4995
3226.158	4885
3227.929	4879
3229.702	4975
3231.476	4863
3233.248	4881
3235.018	4914
3236.789	4967
3238.56	4930
3240.33	4901
3242.1	4933
3243.869	4840
3245.637	4887
3247.405	4865
3249.172	4957
3250.941	4870
3252.707	4919
3254.474	4847
3256.24	4890
3258.006	4887
3259.772	4857
3261.537	4816
3263.301	4850
3265.065	4805
3266.828	4939
3268.592	4966
3270.355	4774
3272.117	4891
3273.878	4852
3275.64	4861
3277.401	4890
3279.162	4896
3280.922	4842
3282.682	4845
3284.441	4872
3286.199	4908
3287.959	4877
3289.716	4818
3291.475	4872
3293.232	4909
3294.988	4842
3296.744	4840
3298.501	4808
3300.256	4851
3302.011	4928
3303.766	4833
3305.52	4816
3307.275	4849
3309.028	4877
3310.781	4833
3312.533	4818
3314.285	5016
3316.038	4802
3317.789	4895
3319.54	4917
3321.289	4865
3323.039	4785
3324.789	4745
3326.539	4821
3328.288	4800
3330.035	4832
3331.783	4880
3333.531	4781
3335.28	4795
3337.025	4738
3338.771	4734
3340.518	4754
3342.262	4694
3344.009	4786
3345.753	4727
3347.497	4737
3349.24	4749
3350.983	4744
3352.726	4744
3354.469	4714
3356.212	4696
3357.952	4706
3359.694	4755
3361.434	4760
3363.176	4770
3364.916	4747
3366.654	4727
3368.394	4802
3370.132	4689
3371.871	4607
3373.61	4752
3375.346	4599
3377.083	4661
3378.82	4709
3380.556	4768
3382.292	4748
3384.027	4654
3385.763	4632
3387.497	4640
3389.231	4710
3390.965	4700
3392.698	4679
3394.431	4648
3396.164	4633
3397.896	4724
3399.627	4566
3401.36	4679
3403.09	4569
3404.82	4578
3406.55	4657
3408.279	4589
3410.01	4688
3411.738	4686
3413.467	4590
3415.194	4520
3416.92	4607
3418.647	4565
3420.375	4621
3422.102	4651
3423.827	4637
3425.553	4634
3427.277	4584
3429.003	4570
3430.727	4491
3432.451	4450
3434.173	4584
3435.896	4586
3437.62	4540
3439.343	4562
3441.063	4512
3442.785	4465
3444.505	4613
3446.226	4497
3447.948	4495
3449.666	4534
3451.386	4438
3453.104	4464
3454.823	4524
3456.541	4454
3458.259	4492
3459.976	4477
3461.693	4495
3463.408	4465
3465.125	4474
3466.841	4410
3468.556	4399
3470.271	4425
3471.985	4428
3473.698	4463
3475.414	4418
3477.126	4455
3478.838	4355
3480.55	4374
3482.263	4353
3483.975	4361
3485.686	4398
3487.396	4322
3489.106	4369
3490.817	4335
3492.526	4287
3494.236	4381
3495.944	4266
3497.652	4298
3499.359	4326
3501.066	4316
3502.775	4425
3504.481	4329
3506.187	4262
3507.893	4325
3509.598	4313
3511.304	4349
3513.009	4256
3514.713	4245
3516.417	4247
3518.12	4246
3519.821	4275
3521.525	4219
3523.228	4191
3524.929	4267
3526.631	4202
3528.33	4275
3530.032	4307
3531.733	4255
3533.433	4268
3535.131	4256
3536.83	4315
3538.529	4216
3540.227	4203
3541.925	4173
3543.623	4163
3545.319	4207
3547.016	4102
3548.712	4174
3550.408	4143
3552.103	4242
3553.798	4194
3555.491	4188
3557.188	4112
3558.88	4175
3560.574	4150
3562.266	4082
3563.959	4188
3565.651	4145
3567.343	4162
3569.035	4183
3570.725	4110
3572.415	4137
3574.106	4156
3575.797	4132
3577.485	4045
3579.174	4032
3580.863	4089
3582.551	4148
3584.238	4137
3585.926	4094
3587.613	4083
3589.3	4134
3590.986	4093
3592.671	4126
3594.357	3964
3596.042	4012
3597.726	4043
3599.41	4069
3601.094	3983
3602.778	4013
3604.461	4008
3606.143	4009
3607.825	4056
3609.507	3933
3611.188	3988
3612.87	3951
3614.551	4003
3616.229	3932
3617.909	3978
3619.589	3906
3621.269	4007
3622.948	3961
3624.625	3925
3626.302	3955
3627.98	3953
3629.657	3859
3631.334	3923
3633.01	3943
3634.686	3945
3636.361	3967
3638.036	4002
3639.712	3866
3641.385	3862
3643.06	3866
3644.732	3879
3646.405	3880
3648.08	3932
3649.751	3896
3651.424	3812
3653.094	3909
3654.766	3911
3656.436	3894
3658.106	3872
3659.777	3949
3661.446	3842
3663.115	3889
3664.783	3803
3666.452	3787
3668.121	3858
3669.788	3856
3671.454	3760
3673.121	3876
3674.789	3840
3676.455	3823
3678.12	3847
3679.784	3843
3681.45	3763
3683.114	3786
3684.779	3817
3686.442	3835
3688.105	3814
3689.768	3748
3691.43	3747
3693.093	3698
3694.754	3781
3696.415	3829
3698.076	3752
3699.736	3723
3701.396	3839
3703.057	3806
3704.716	3795
3706.375	3779
3708.034	3745
3709.692	3764
3711.351	3718
3713.008	3767
3714.665	3817
3716.321	3773
3717.977	3723
3719.634	3757
3721.29	3677
3722.945	3745
3724.598	3725
3726.253	3712
3727.907	3699
3729.561	3752
3731.214	3682
3732.867	3657
3734.518	3744
3736.171	3773
3737.824	3693
3739.474	3710
3741.125	3725
3742.775	3797
3744.425	3745
3746.074	3666
3747.725	3753
3749.373	3717
3751.022	3691
3752.669	3661
3754.318	3689
3755.966	3694
3757.612	3630
3759.259	3643
3760.905	3616
3762.55	3620
3764.197	3657
3765.842	3623
3767.486	3684
3769.131	3656
3770.774	3578
3772.417	3607
3774.061	3611
3775.705	3599
3777.347	3597
3778.988	3575
3780.629	3623
3782.271	3615
3783.912	3547
3785.552	3632
3787.192	3621
3788.831	3547
3790.472	3542
3792.112	3548
3793.75	3581
3795.388	3575
3797.024	3575
3798.661	3555
3800.3	3633
3801.936	3572
3803.572	3621
3805.208	3563
3806.844	3592
3808.48	3576
3810.115	3622
3811.748	3563
3813.382	3614
3815.016	3524
3816.649	3577
3818.283	3482
3819.914	3498
3821.547	3544
3823.178	3480
3824.809	3542
3826.441	3650
3828.072	3559
3829.701	3525
3831.331	3467
3832.96	3450
3834.591	3468
3836.219	3534
3837.847	3480
3839.475	3531
3841.102	3574
3842.729	3478
3844.357	3368
3845.984	3382
3847.609	3373
3849.234	3486
3850.86	3503
3852.485	3370
3854.11	3399
3855.734	3424
3857.357	3454
3858.981	3449
3860.603	3436
3862.227	3481
3863.848	3389
3865.471	3404
3867.092	3399
3868.713	3408
3870.334	3471
3871.954	3452
3873.575	3444
3875.194	3363
3876.813	3401
3878.433	3403
3880.051	3333
3881.669	3417
3883.286	3384
3884.904	3388
3886.52	3453
3888.138	3362
3889.754	3273
3891.37	3364
3892.985	3444
3894.6	3451
3896.216	3375
3897.831	3340
3899.444	3326
3901.058	3262
3902.67	3421
3904.283	3327
3905.897	3328
3907.509	3368
3909.121	3375
3910.731	3367
3912.342	3269
3913.954	3327
3915.563	3332
3917.174	3382
3918.783	3315
3920.391	3385
3922.002	3365
3923.611	3299
3925.218	3314
3926.826	3312
3928.432	3309
3930.039	3320
3931.647	3381
3933.253	3380
3934.859	3352
3936.464	3305
3938.068	3337
3939.675	3274
3941.278	3272
3942.883	3311
3944.486	3271
3946.089	3313
3947.692	3211
3949.295	3279
3950.898	3284
3952.499	3307
3954.1	3240
3955.7	3286
3957.303	3262
3958.903	3227
3960.502	3260
3962.101	3205
3963.7	3225
3965.301	3285
3966.899	3148
3968.497	3237
3970.094	3199
3971.691	3262
3973.288	3279
3974.885	3261
3976.481	3197
3978.077	3241
3979.672	3227
3981.267	3202
3982.863	3204
3984.457	3151
3986.051	3228
3987.645	3193
3989.238	3179
3990.831	3108
3992.425	3172
3994.017	3141
3995.607	3158
3997.199	3163
3998.79	3152
4000.382	3208
4001.973	3139
4003.561	3138
4005.151	3196
4006.741	3116
4008.331	3154
4009.918	3147
4011.507	3082
4013.095	3112
4014.681	3135
4016.269	3092
4017.856	3037
4019.443	3131
4021.028	3028
4022.614	3068
4024.199	3162
4025.785	3143
4027.37	3084
4028.953	3065
4030.536	3132
4032.12	3093
4033.704	3090
4035.287	3101
4036.869	3092
4038.45	3093
4040.032	3032
4041.613	3069
4043.195	2922
4044.776	3050
4046.356	3074
4047.935	2973
4049.515	3150
4051.095	3126
4052.674	3056
4054.251	3039
4055.829	3024
4057.406	3023
4058.985	3026
4060.562	3040
4062.139	3068
4063.715	2991
4065.29	2996
4066.865	2951
4068.442	2979
4070.016	3009
4071.59	2972
4073.164	3022
4074.738	2940
4076.312	3029
4077.885	2929
4079.458	3016
4081.03	2983
4082.602	2999
4084.173	3015
4085.745	3040
4087.315	2973
4088.886	3005
4090.456	2927
4092.026	2956
4093.596	2900
4095.165	2931
4096.734	3000
4098.301	2973
4099.869	2917
4101.437	2950
4103.006	2858
4104.572	2941
4106.139	2986
4107.704	2984
4109.27	2896
4110.837	2956
4112.401	2906
4113.966	2866
4115.53	2899
4117.094	2966
4118.659	2887
4120.223	2894
4121.785	2879
4123.347	2961
4124.909	2894
4126.471	2897
4128.034	2932
4129.595	2932
4131.155	2900
4132.716	2833
4134.275	2953
4135.836	2854
4137.395	2866
4138.955	2935
4140.513	2971
4142.071	2811
4143.628	2895
4145.188	2897
4146.745	2812
4148.302	2860
4149.858	2859
4151.414	2816
4152.971	2868
4154.526	2818
4156.081	2831
4157.635	2796
4159.189	2832
4160.745	2888
4162.298	2750
4163.852	2826
4165.405	2820
4166.957	2820
4168.51	2804
4170.063	2812
4171.614	2824
4173.166	2752
4174.717	2735
4176.267	2731
4177.817	2765
4179.368	2778
4180.917	2698
4182.466	2790
4184.016	2793
4185.564	2777
4187.112	2757
4188.66	2733
4190.207	2703
4191.754	2778
4193.301	2703
4194.848	2756
4196.394	2788
4197.94	2720
4199.484	2827
4201.03	2713
4202.575	2741
4204.12	2697
4205.663	2706
4207.207	2755
4208.75	2696
4210.292	2749
4211.836	2769
4213.378	2670
4214.92	2693
4216.46	2633
4218.002	2699
4219.544	2674
4221.083	2738
4222.625	2689
4224.164	2721
4225.703	2643
4227.244	2677
4228.782	2689
4230.32	2673
4231.857	2723
4233.395	2737
4234.933	2710
4236.471	2703
4238.007	2669
4239.542	2683
4241.078	2647
4242.614	2653
4244.15	2752
4245.685	2677
4247.219	2642
4248.753	2740
4250.287	2639
4251.82	2618
4253.354	2639
4254.887	2668
4256.419	2640
4257.951	2579
4259.483	2633
4261.016	2604
4262.547	2654
4264.078	2682
4265.608	2640
4267.137	2660
4268.668	2637
4270.197	2659
4271.727	2653
4273.254	2599
4274.783	2639
4276.311	2639
4277.84	2658
4279.366	2628
4280.894	2599
4282.42	2559
4283.946	2660
4285.473	2583
4286.998	2502
4288.523	2530
4290.047	2646
4291.572	2542
4293.096	2551
4294.622	2512
4296.144	2573
4297.668	2512
4299.19	2614
4300.713	2526
4302.236	2566
4303.758	2597
4305.279	2529
4306.799	2591
4308.321	2603
4309.842	2575
4311.361	2558
4312.882	2582
4314.401	2518
