400.0961	7751
402.6185	7864
405.1424	7929
407.6635	7849
410.1838	7906
412.7035	7974
415.2225	7985
417.7388	8103
420.2585	8124
422.7754	8251
425.2917	8229
427.8072	8352
430.3221	8240
432.8363	8295
435.3498	8307
437.8626	8437
440.3727	8272
442.8841	8239
445.3969	8452
447.907	8539
450.4142	8440
452.9229	8393
455.4289	8319
457.9362	8405
460.4449	8457
462.9488	8328
465.454	8326
467.9566	8484
470.4604	8500
472.9637	8439
475.4662	8580
477.966	8468
480.4671	8550
482.9656	8622
485.4633	8633
487.9645	8722
490.4608	8644
492.9566	8592
495.4536	8654
497.948	8626
500.4437	8709
502.9387	8687
505.431	8771
507.9226	8615
510.4136	8803
512.9079	8708
515.3975	8768
517.8864	8790
520.3746	8720
522.8622	8723
525.3491	8800
527.8394	8879
530.3249	8912
532.8098	8874
535.2939	8928
537.7774	8840
540.2623	8947
542.7444	8918
545.2259	8867
547.7067	8883
550.1868	8859
552.6683	8963
555.147	8866
557.6231	8914
560.1005	9027
562.5773	8949
565.0534	9109
567.5308	8953
570.0056	9043
572.4776	9072
574.951	8931
577.4237	9083
579.8978	9124
582.3671	9223
584.8378	9159
587.3079	9208
589.7773	9267
592.244	9293
594.714	9137
597.1793	9177
599.6461	9169
602.1121	9165
604.5754	9198
607.0421	9208
609.5042	9083
611.9675	9348
614.4282	9175
616.8902	9070
619.3515	9226
621.8122	9249
624.2702	9139
626.7296	9196
629.1863	9120
631.6423	9159
634.1017	9173
636.5563	9261
639.0104	9132
641.4658	9238
643.9185	9244
646.3725	9177
648.8239	9424
651.2766	9204
653.7266	9253
656.176	9399
658.6247	9223
661.0748	9414
663.5242	9454
665.9709	9145
668.417	9414
670.8624	9381
673.3092	9366
675.7533	9554
678.1968	9437
680.6395	9578
683.0817	9542
685.5251	9522
687.9659	9627
690.4061	9519
692.8456	9604
695.2844	9557
697.7226	9553
700.1621	9542
702.599	9674
705.0332	9630
707.4688	9673
709.9036	9789
712.3399	9694
714.7735	9882
717.2044	9676
719.6367	9786
722.0683	9734
724.4993	9782
726.9296	9783
729.3593	9774
731.7883	9989
734.2147	9870
736.6423	9911
739.0714	9905
741.4958	9950
743.9216	10099
746.3447	9929
748.7691	10016
751.1929	10075
753.616	10187
756.0366	10262
758.4584	10113
760.8776	10182
763.2982	10080
765.718	10146
768.1373	10196
770.5539	10233
772.9698	10234
775.3871	10255
777.8038	10376
780.2178	10265
782.6332	10185
785.0459	10200
787.458	10133
789.8714	10390
792.2842	10039
794.6943	10301
797.1038	10240
799.5127	10181
801.9209	10211
804.3324	10292
806.7393	10346
809.1456	10363
811.5513	10547
813.9562	10326
816.3625	10369
818.7663	10386
821.1693	10384
823.5718	10459
825.9735	10587
828.3746	10557
830.7771	10413
833.177	10338
835.5762	10373
837.9747	10573
840.3727	10510
842.772	10526
845.1666	10455
847.5626	10634
849.958	10486
852.3527	10660
854.7488	10742
857.1403	10590
859.5331	10696
861.9253	10617
864.3168	10591
866.7057	10509
869.098	10617
871.4876	10528
873.8746	10608
876.263	10710
878.6487	10634
881.0378	10652
883.4243	10640
885.8081	10516
888.1933	10583
890.5759	10574
892.9598	10633
895.343	10571
897.7256	10483
900.1057	10552
902.4871	10591
904.8659	10684
907.246	10618
909.6254	10742
912.0023	10605
914.3786	10812
916.7562	11027
919.1331	11058
921.5074	11167
923.8831	11120
926.2562	11195
928.6287	11198
931.0005	11157
933.3757	11040
935.7462	11143
938.1162	11041
940.4855	11195
942.8542	11099
945.2242	11117
947.5916	11196
949.9584	11489
952.3266	11700
954.6921	11750
957.0571	12064
959.4233	12336
961.787	12467
964.15	12380
966.5125	12311
968.8742	11993
971.2354	11725
973.5959	11496
975.9559	11359
978.3151	11118
980.6738	11213
983.0338	11101
985.3912	10965
987.7461	11001
990.1022	10895
992.4578	10877
994.8127	10932
997.1689	10769
999.5207	10895
1001.874	11155
1004.226	10940
1006.576	10997
1008.929	10924
1011.28	10927
1013.628	10954
1015.977	11032
1018.324	10995
1020.674	11094
1023.019	11037
1025.366	11159
1027.713	11083
1030.056	11063
1032.399	11022
1034.746	11026
1037.087	11028
1039.431	11135
1041.771	11023
1044.113	10994
1046.454	11202
1048.793	11107
1051.133	11031
1053.471	11007
1055.807	10992
1058.146	11100
1060.483	11132
1062.818	11074
1065.153	11234
1067.489	11165
1069.822	11219
1072.156	11325
1074.488	11271
1076.82	11331
1079.15	11329
1081.48	11313
1083.814	11237
1086.143	11279
1088.471	10992
1090.799	11009
1093.126	11075
1095.452	11208
1097.78	11167
1100.105	11094
1102.43	11198
1104.754	11240
1107.077	11203
1109.4	11100
1111.722	11268
1114.044	11219
1116.365	11268
1118.685	11317
1121.005	11447
1123.324	11342
1125.643	11436
1127.961	11338
1130.278	11423
1132.595	11222
1134.911	11266
1137.226	11270
1139.541	11222
1141.854	11371
1144.167	11224
1146.482	11295
1148.793	11349
1151.105	11298
1153.414	11324
1155.725	11316
1158.033	11374
1160.344	11295
1162.651	11337
1164.959	11234
1167.265	11138
1169.572	11299
1171.878	11305
1174.184	11267
1176.488	11317
1178.79	11412
1181.094	11381
1183.396	11491
1185.699	11365
1188.001	11285
1190.301	11389
1192.6	11350
1194.9	11346
1197.2	11232
1199.497	11153
1201.794	11293
1204.09	11387
1206.387	11335
1208.684	11384
1210.978	11268
1213.272	11190
1215.565	11347
1217.858	11247
1220.15	11552
1222.443	11376
1224.734	11276
1227.024	11304
1229.313	11546
1231.602	11624
1233.892	11633
1236.18	11704
1238.467	11455
1240.754	11638
1243.04	11585
1245.325	11788
1247.612	11745
1249.896	11868
1252.178	11705
1254.461	11717
1256.743	11685
1259.027	11769
1261.308	11746
1263.587	11709
1265.867	11761
1268.146	11878
1270.425	11848
1272.703	11839
1274.981	11870
1277.256	11573
1279.532	11744
1281.808	11710
1284.083	11666
1286.358	11614
1288.63	11602
1290.904	11651
1293.175	11523
1295.449	11531
1297.719	11643
1299.99	11628
1302.259	11411
1304.529	11512
1306.798	11655
1309.065	11623
1311.333	11564
1313.599	11613
1315.866	11607
1318.131	11627
1320.396	11583
1322.66	11463
1324.925	11711
1327.187	11691
1329.448	11723
1331.711	11816
1333.974	11632
1336.234	11624
1338.493	11709
1340.752	11631
1343.01	11698
1345.269	11771
1347.526	11627
1349.784	11709
1352.04	11463
1354.295	11599
1356.552	11691
1358.806	11682
1361.059	11714
1363.312	11431
1365.564	11493
1367.818	11613
1370.069	11658
1372.318	11598
1374.568	11691
1376.817	11830
1379.066	11644
1381.316	11690
1383.564	11995
1385.809	11580
1388.056	11776
1390.301	11763
1392.549	11882
1394.793	12060
1397.036	11888
1399.279	12022
1401.522	12218
1403.763	12097
1406.007	12037
1408.248	12116
1410.487	12144
1412.727	12182
1414.965	11830
1417.205	12068
1419.442	11956
1421.68	12062
1423.915	12075
1426.152	12100
1428.388	12059
1430.623	12193
1432.857	12040
1435.091	12020
1437.323	12197
1439.556	12202
1441.789	12220
1444.019	12266
1446.25	12127
1448.48	12140
1450.708	12368
1452.938	12180
1455.167	12132
1457.394	12304
1459.62	12200
1461.846	12307
1464.073	12193
1466.299	12026
1468.523	12120
1470.746	12023
1472.969	12129
1475.191	11941
1477.415	11883
1479.636	11797
1481.858	11743
1484.078	11782
1486.298	11796
1488.518	11756
1490.736	11817
1492.954	11616
1495.169	11559
1497.386	11549
1499.602	11713
1501.819	11815
1504.034	11638
1506.248	11578
1508.462	11599
1510.675	11558
1512.888	11658
1515.1	11634
1517.311	11587
1519.522	11646
1521.732	11590
1523.942	11786
1526.151	11603
1528.36	11649
1530.566	11662
1532.773	11665
1534.98	11422
1537.187	11613
1539.392	11710
1541.596	11575
1543.801	11585
1546.005	11746
1548.208	11601
1550.411	11771
1552.612	11691
1554.814	11855
1557.013	11744
1559.212	11770
1561.414	11907
1563.612	11692
1565.811	11723
1568.007	11933
1570.203	11893
1572.403	11888
1574.598	11898
1576.792	11837
1578.988	11927
1581.181	11855
1583.376	11825
1585.568	11913
1587.761	11927
1589.952	12136
1592.143	12032
1594.333	11796
1596.524	11954
1598.715	11892
1600.903	11817
1603.091	12069
1605.278	11878
1607.466	12003
1609.652	11901
1611.838	11879
1614.023	12142
1616.207	12039
1618.391	12032
1620.576	11866
1622.759	12023
1624.941	12062
1627.123	12044
1629.304	12170
1631.484	12092
1633.664	12163
1635.844	12143
1638.022	12061
1640.201	12163
1642.38	12080
1644.556	12179
1646.732	12022
1648.908	12036
1651.084	12253
1653.257	12067
1655.433	12227
1657.607	12042
1659.779	12266
1661.951	12167
1664.122	12182
1666.295	12310
1668.467	12184
1670.635	12309
1672.805	12140
1674.973	12261
1677.142	11999
1679.31	12312
1681.478	12112
1683.644	12012
1685.81	12174
1687.975	12051
1690.142	11953
1692.305	12036
1694.468	12155
1696.632	11962
1698.794	12153
1700.957	12062
1703.119	11964
1705.279	11916
1707.439	11925
1709.598	11902
1711.758	12044
1713.917	11923
1716.075	11984
1718.231	11841
1720.388	11939
1722.543	11882
1724.702	11912
1726.856	11946
1729.01	12058
1731.164	11921
1733.317	11728
1735.471	11862
1737.623	11938
1739.774	11882
1741.925	11911
1744.075	11980
1746.225	11930
1748.376	12006
1750.524	11922
1752.672	11816
1754.82	11961
1756.965	11948
1759.113	11966
1761.259	11827
1763.405	11861
1765.549	11920
1767.694	11877
1769.836	12105
1771.981	12070
1774.123	11983
1776.264	12067
1778.405	11997
1780.546	11986
1782.687	11932
1784.827	12025
1786.966	12039
1789.103	11972
1791.242	12077
1793.381	11987
1795.517	12097
1797.653	11848
1799.788	11958
1801.923	12032
1804.057	12177
1806.193	11818
1808.326	12062
1810.457	12075
1812.59	12113
1814.721	12090
1816.855	11905
1818.984	12098
1821.113	12054
1823.244	11861
1825.372	11871
1827.499	11965
1829.63	11951
1831.756	11939
1833.882	12024
1836.007	11842
1838.132	12014
1840.26	11989
1842.384	11866
1844.507	11877
1846.63	11960
1848.752	11781
1850.875	11842
1852.996	11717
1855.118	11924
1857.238	11742
1859.358	11753
1861.477	11673
1863.597	11872
1865.715	11751
1867.832	11960
1869.948	11872
1872.064	11853
1874.181	11860
1876.297	11856
1878.411	11880
1880.526	11961
1882.639	11927
1884.752	12034
1886.865	11898
1888.977	11820
1891.089	12075
1893.2	11968
1895.308	11834
1897.42	11988
1899.53	11810
1901.639	11964
1903.745	11946
1905.853	12084
1907.962	11834
1910.067	11881
1912.174	12053
1914.278	11996
1916.383	11983
1918.486	12035
1920.592	12104
1922.694	11980
1924.797	12004
1926.898	12096
1929	11968
1931.102	12088
1933.203	12087
1935.301	12083
1937.401	12165
1939.499	12108
1941.598	12037
1943.697	12167
1945.793	12068
1947.888	11973
1949.985	11932
1952.08	12085
1954.176	12005
1956.269	11940
1958.364	12188
1960.457	12051
1962.549	11990
1964.642	11944
1966.733	11977
1968.823	12012
1970.913	11996
1973.005	12022
1975.093	12000
1977.184	11943
1979.271	12062
1981.359	12074
1983.446	12091
1985.532	11991
1987.619	11958
1989.705	12002
1991.789	11918
1993.874	11925
1995.956	11837
1998.041	11902
2000.123	11846
2002.206	11870
2004.287	11912
2006.368	11829
2008.449	11714
2010.529	11775
2012.609	11835
2014.688	11831
2016.766	11854
2018.843	11843
2020.922	11771
2022.999	11910
2025.074	11733
2027.15	11891
2029.225	12017
2031.299	11874
2033.375	11905
2035.447	12023
2037.52	11838
2039.592	11873
2041.664	11793
2043.736	11779
2045.807	11954
2047.876	11717
2049.947	11829
2052.015	11875
2054.086	11781
2056.153	11963
2058.221	11779
2060.288	11877
2062.353	11850
2064.42	12037
2066.486	11621
2068.55	11844
2070.614	11848
2072.678	11894
2074.741	11709
2076.805	11845
2078.866	11824
2080.929	11883
2082.99	11863
2085.049	11848
2087.109	11785
2089.17	11853
2091.228	11868
2093.286	11885
2095.344	11833
2097.4	11685
2099.46	11704
2101.516	11934
2103.572	11749
2105.626	11709
2107.679	12009
2109.735	11894
2111.788	11707
2113.841	11847
2115.894	11913
2117.945	11755
2119.997	11861
2122.049	11721
2124.1	11740
2126.148	11748
2128.197	11763
2130.246	11713
2132.296	11867
2134.342	11834
2136.39	11747
2138.437	11740
2140.483	11742
2142.527	11711
2144.574	11648
2146.619	11583
2148.661	11833
2150.705	11647
2152.747	11764
2154.792	11669
2156.832	11765
2158.874	11607
2160.915	11688
2162.954	11774
2164.995	11711
2167.034	11673
2169.072	11583
2171.111	11575
2173.148	11619
2175.186	11634
2177.223	11696
2179.258	11471
2181.294	11611
2183.328	11665
2185.362	11703
2187.398	11410
2189.431	11576
2191.463	11455
2193.495	11499
2195.528	11493
2197.56	11482
2199.59	11376
2201.62	11496
2203.649	11516
2205.678	11389
2207.708	11437
2209.737	11488
2211.764	11524
2213.791	11375
2215.817	11461
2217.843	11437
2219.87	11345
2221.895	11485
2223.919	11318
2225.942	11443
2227.966	11420
2229.988	11401
2232.012	11450
2234.032	11502
2236.054	11522
2238.074	11327
2240.095	11380
2242.116	11388
2244.135	11394
2246.153	11461
2248.171	11337
2250.188	11426
2252.208	11348
2254.223	11273
2256.239	11331
2258.255	11279
2260.269	11297
2262.283	11372
2264.3	11391
2266.312	11513
2268.325	11225
2270.336	11382
2272.349	11140
2274.362	11387
2276.372	11355
2278.383	11351
2280.392	11363
2282.402	11324
2284.409	11519
2286.418	11373
2288.427	11457
2290.433	11395
2292.441	11344
2294.446	11275
2296.453	11194
2298.459	11306
2300.463	11304
2302.466	11215
2304.471	11224
2306.475	11168
2308.477	11318
2310.478	11321
2312.481	11320
2314.481	11229
2316.481	11410
2318.482	11077
2320.482	11357
2322.48	11282
2324.48	11201
2326.478	11161
2328.476	11148
2330.473	11257
2332.469	11248
2334.465	11117
2336.46	11111
2338.454	11136
2340.45	11163
2342.444	11205
2344.437	11030
2346.43	10988
2348.421	11098
2350.414	11384
2352.405	11134
2354.396	10974
2356.386	11017
2358.376	10978
2360.366	11092
2362.355	10983
2364.343	11024
2366.331	10996
2368.317	10969
2370.304	10896
2372.292	11102
2374.278	10964
2376.262	11011
2378.247	10907
2380.23	11064
2382.216	11060
2384.199	10856
2386.181	10924
2388.163	10906
2390.144	10864
2392.127	10990
2394.107	10867
2396.087	10739
2398.066	10850
2400.046	11029
2402.023	10666
2404.004	10859
2405.981	10939
2407.957	10898
2409.934	10720
2411.91	10752
2413.886	10748
2415.862	10887
2417.836	10802
2419.809	10861
2421.784	10824
2423.756	10722
2425.73	10728
2427.701	10827
2429.672	10834
2431.644	10903
2433.615	10817
2435.586	10773
2437.555	10818
2439.523	10829
2441.491	10773
2443.459	10945
2445.428	10791
2447.395	10675
2449.361	10901
2451.327	10622
2453.292	10643
2455.257	10797
2457.223	10709
2459.187	10726
2461.15	10759
2463.113	10701
2465.076	10703
2467.039	10735
2468.999	10816
2470.96	10555
2472.921	10700
2474.881	10727
2476.841	10657
2478.8	10760
2480.759	10707
2482.717	10844
2484.675	10692
2486.63	10562
2488.589	10737
2490.545	10646
2492.5	10548
2494.455	10655
2496.408	10631
2498.364	10685
2500.318	10521
2502.27	10631
2504.223	10614
2506.174	10387
2508.126	10716
2510.078	10511
2512.03	10596
2513.979	10599
2515.927	10485
2517.877	10486
2519.826	10677
2521.775	10707
2523.722	10369
2525.668	10580
2527.616	10519
2529.561	10601
2531.508	10525
2533.452	10510
2535.398	10460
2537.342	10404
2539.284	10449
2541.229	10465
2543.173	10497
2545.114	10613
2547.055	10498
2548.996	10393
2550.938	10611
2552.878	10488
2554.817	10389
2556.756	10438
2558.695	10352
2560.633	10546
2562.572	10422
2564.509	10528
2566.445	10352
2568.382	10425
2570.317	10416
2572.254	10548
2574.189	10374
2576.123	10365
2578.057	10355
2579.99	10394
2581.923	10531
2583.855	10495
2585.788	10595
2587.719	10320
2589.65	10588
2591.579	10473
2593.511	10461
2595.44	10417
2597.37	10421
2599.297	10394
2601.225	10469
2603.153	10449
2605.08	10546
2607.007	10266
2608.932	10566
2610.858	10471
2612.782	10634
2614.709	10483
2616.632	10442
2618.556	10310
2620.478	10404
2622.401	10437
2624.324	10338
2626.247	10355
2628.167	10361
2630.088	10399
2632.008	10547
2633.928	10528
2635.848	10345
2637.766	10396
2639.684	10387
2641.603	10514
2643.519	10558
2645.437	10534
2647.353	10410
2649.27	10438
2651.184	10406
2653.099	10466
2655.014	10448
2656.928	10465
2658.842	10440
2660.755	10421
2662.667	10439
2664.579	10410
2666.491	10359
2668.402	10362
2670.312	10477
2672.222	10312
2674.132	10417
2676.042	10422
2677.951	10389
2679.859	10522
2681.766	10425
2683.674	10324
2685.582	10287
2687.488	10232
2689.392	10237
2691.298	10257
2693.202	10088
2695.107	10287
2697.012	10294
2698.914	10340
2700.817	10159
2702.72	10248
2704.622	10300
2706.524	10266
2708.425	10167
2710.326	10193
2712.225	10280
2714.125	10124
2716.024	10267
2717.923	10120
2719.822	10289
2721.719	10217
2723.616	10118
2725.512	10227
2727.41	10245
2729.305	10195
2731.201	10021
2733.095	10146
2734.99	10150
2736.884	10127
2738.778	10205
2740.67	10080
2742.562	10088
2744.455	10239
2746.346	10282
2748.238	10088
2750.129	10082
2752.018	10104
2753.907	9971
2755.797	10021
2757.687	10042
2759.575	10176
2761.462	9908
2763.349	10164
2765.237	10072
2767.124	10084
2769.009	9927
2770.894	10002
2772.779	9914
2774.663	10108
2776.547	10078
2778.431	9988
2780.314	10033
2782.197	9970
2784.078	10028
2785.96	9935
2787.842	10122
2789.723	9983
2791.603	10025
2793.483	10003
2795.362	10007
2797.241	10099
2799.121	10073
2800.997	9904
2802.874	9922
2804.751	9778
2806.628	9985
2808.506	9959
2810.38	10008
2812.255	10044
2814.13	9865
2816.003	9840
2817.878	9960
2819.752	9845
2821.623	9955
2823.496	9948
2825.368	9828
2827.238	9935
2829.111	9950
2830.98	9934
2832.851	10015
2834.719	9961
2836.589	9881
2838.458	10070
2840.327	9952
2842.193	10037
2844.061	10012
2845.927	9990
2847.794	9814
2849.66	9927
2851.525	9992
2853.39	9987
2855.254	9910
2857.117	9901
2858.983	10054
2860.845	10074
2862.707	10178
2864.569	10094
2866.431	10111
2868.293	10192
2870.154	10281
2872.013	10363
2873.873	10276
2875.733	10479
2877.592	10438
2879.451	10492
2881.309	10611
2883.166	10620
2885.022	10801
2886.879	10954
2888.736	10750
2890.591	10739
2892.446	10704
2894.301	10628
2896.155	10708
2898.009	10707
2899.863	10828
2901.716	10741
2903.568	10630
2905.419	10779
2907.27	10679
2909.123	10738
2910.973	10664
2912.824	11001
2914.673	10633
2916.521	10939
2918.372	10772
2920.22	11046
2922.067	10984
2923.914	11074
2925.761	11127
2927.607	11184
2929.455	11228
2931.301	11154
2933.144	11328
2934.99	11358
2936.833	11248
2938.678	11484
2940.522	11450
2942.364	11528
2944.207	11710
2946.048	11839
2947.891	11984
2949.731	11897
2951.571	11835
2953.412	12081
2955.25	11882
2957.09	11839
2958.93	11731
2960.767	11891
2962.606	11387
2964.443	11494
2966.279	11402
2968.116	11048
2969.953	11016
2971.788	11111
2973.623	10879
2975.457	10773
2977.292	10774
2979.127	10713
2980.959	10626
2982.792	10557
2984.624	10485
2986.455	10537
2988.288	10381
2990.119	10377
2991.949	10294
2993.779	10323
2995.608	10349
2997.439	10168
2999.268	10084
3001.096	9996
3002.923	10041
3004.751	9792
3006.578	9815
3008.406	9880
3010.232	9757
3012.057	9848
3013.883	9761
3015.706	9679
3017.532	9663
3019.356	9503
3021.179	9585
3023.002	9535
3024.823	9422
3026.646	9475
3028.469	9396
3030.289	9436
3032.11	9359
3033.93	9423
3035.749	9348
3037.57	9294
3039.39	9150
3041.207	9346
3043.026	9122
3044.842	9310
3046.661	9238
3048.477	9278
3050.294	9235
3052.109	9260
3053.925	9201
3055.739	9110
3057.555	9224
3059.368	9249
3061.181	9161
3062.995	9186
3064.807	9249
3066.62	9261
3068.433	9288
3070.243	9146
3072.054	9248
3073.865	9122
3075.675	9099
3077.485	9052
3079.293	9124
3081.102	9143
3082.911	9230
3084.719	9086
3086.527	9245
3088.333	9031
3090.139	9221
3091.945	9022
3093.75	9116
3095.557	9016
3097.361	9026
3099.165	8867
3100.969	8868
3102.772	9017
3104.575	8972
3106.379	8984
3108.181	8955
3109.982	8869
3111.783	8844
3113.584	8861
3115.386	8787
3117.186	8863
3118.985	8876
3120.783	8866
3122.582	8810
3124.381	8733
3126.179	8907
3127.975	8764
3129.772	8690
3131.569	8885
3133.365	8729
3135.161	8604
3136.956	8782
3138.751	8780
3140.544	8670
3142.338	8669
3144.132	8572
3145.925	8551
3147.717	8548
3149.509	8553
3151.301	8670
3153.091	8637
3154.884	8498
3156.673	8506
3158.462	8597
3160.252	8601
3162.041	8621
3163.831	8628
3165.618	8403
3167.405	8645
3169.193	8611
3170.979	8538
3172.767	8419
3174.553	8584
3176.338	8586
3178.123	8689
3179.907	8626
3181.692	8514
3183.477	8609
3185.259	8535
3187.042	8578
3188.824	8506
3190.607	8504
3192.389	8501
3194.17	8437
3195.951	8466
3197.73	8443
3199.51	8520
3201.289	8401
3203.07	8416
3204.848	8648
3206.626	8525
3208.403	8523
3210.18	8399
3211.959	8477
3213.735	8478
3215.511	8311
3217.285	8436
3219.06	8455
3220.836	8298
3222.611	8472
3224.384	8538
3226.158	8429
3227.929	8436
3229.702	8413
3231.476	8491
3233.248	8444
3235.018	8466
3236.789	8480
3238.56	8574
3240.33	8465
3242.1	8413
3243.869	8463
3245.637	8321
3247.405	8354
3249.172	8624
3250.941	8377
3252.707	8278
3254.474	8399
3256.24	8285
3258.006	8433
3259.772	8421
3261.537	8415
3263.301	8383
3265.065	8400
3266.828	8506
3268.592	8452
3270.355	8574
3272.117	8346
3273.878	8277
3275.64	8429
3277.401	8426
3279.162	8384
3280.922	8281
3282.682	8301
3284.441	8361
3286.199	8327
3287.959	8269
3289.716	8286
3291.475	8283
3293.232	8268
3294.988	8284
3296.744	8274
3298.501	8219
3300.256	8110
3302.011	8341
3303.766	8243
3305.52	8353
3307.275	8244
3309.028	8367
3310.781	8291
3312.533	8287
3314.285	8200
3316.038	8307
3317.789	8353
3319.54	8167
3321.289	8153
3323.039	8352
3324.789	8326
3326.539	8291
3328.288	8252
3330.035	8196
3331.783	8242
3333.531	8254
3335.28	8348
3337.025	8251
3338.771	8143
3340.518	8182
3342.262	8241
3344.009	8165
3345.753	8149
3347.497	8116
3349.24	8057
3350.983	8217
3352.726	8102
3354.469	8103
3356.212	7936
3357.952	8042
3359.694	8083
3361.434	8134
3363.176	8024
3364.916	8040
3366.654	7951
3368.394	8112
3370.132	8000
3371.871	7930
3373.61	7978
3375.346	7866
3377.083	7909
3378.82	7831
3380.556	7907
3382.292	7924
3384.027	7945
3385.763	7875
3387.497	7892
3389.231	7908
3390.965	7984
3392.698	7906
3394.431	7777
3396.164	7877
3397.896	8015
3399.627	7960
3401.36	7914
3403.09	7941
3404.82	7864
3406.55	7924
3408.279	7906
3410.01	7787
3411.738	7902
3413.467	7777
3415.194	7728
3416.92	7932
3418.647	7820
3420.375	7718
3422.102	7663
3423.827	7840
3425.553	7879
3427.277	7672
3429.003	7812
3430.727	7742
3432.451	7743
3434.173	7767
3435.896	7764
3437.62	7721
3439.343	7699
3441.063	7624
3442.785	7796
3444.505	7497
3446.226	7709
3447.948	7583
3449.666	7556
3451.386	7578
3453.104	7702
3454.823	7593
3456.541	7571
3458.259	7522
3459.976	7456
3461.693	7559
3463.408	7574
3465.125	7521
3466.841	7492
3468.556	7352
3470.271	7412
3471.985	7446
3473.698	7414
3475.414	7464
3477.126	7377
3478.838	7480
3480.55	7415
3482.263	7454
3483.975	7334
3485.686	7357
3487.396	7405
3489.106	7409
3490.817	7387
3492.526	7288
3494.236	7316
3495.944	7506
3497.652	7484
3499.359	7220
3501.066	7382
3502.775	7260
3504.481	7276
3506.187	7339
3507.893	7188
3509.598	7088
3511.304	7298
3513.009	7272
3514.713	7207
3516.417	7250
3518.12	7313
3519.821	7229
3521.525	7029
3523.228	7164
3524.929	7319
3526.631	7194
3528.33	7107
3530.032	7165
3531.733	7116
3533.433	7104
3535.131	7220
3536.83	7076
3538.529	7064
3540.227	6993
3541.925	7122
3543.623	7074
3545.319	7100
3547.016	7094
3548.712	7082
3550.408	6957
3552.103	7128
3553.798	6975
3555.491	6932
3557.188	6932
3558.88	7070
3560.574	6922
3562.266	6897
3563.959	7098
3565.651	6961
3567.343	6941
3569.035	6870
3570.725	6878
3572.415	6821
3574.106	6920
3575.797	7039
3577.485	6937
3579.174	6787
3580.863	6882
3582.551	6862
3584.238	6821
3585.926	6841
3587.613	6882
3589.3	6877
3590.986	6837
3592.671	6875
3594.357	6850
3596.042	6676
3597.726	6773
3599.41	6868
3601.094	6810
3602.778	6799
3604.461	6805
3606.143	6715
3607.825	6861
3609.507	6672
3611.188	6639
3612.87	6675
3614.551	6816
3616.229	6610
3617.909	6660
3619.589	6580
3621.269	6714
3622.948	6634
3624.625	6632
3626.302	6629
3627.98	6729
3629.657	6588
3631.334	6740
3633.01	6561
3634.686	6574
3636.361	6624
3638.036	6565
3639.712	6464
3641.385	6503
3643.06	6521
3644.732	6383
3646.405	6568
3648.08	6475
3649.751	6656
3651.424	6462
3653.094	6508
3654.766	6512
3656.436	6488
3658.106	6343
3659.777	6306
3661.446	6395
3663.115	6449
3664.783	6477
3666.452	6449
3668.121	6393
3669.788	6428
3671.454	6369
3673.121	6330
3674.789	6309
3676.455	6411
3678.12	6328
3679.784	6370
3681.45	6274
3683.114	6316
3684.779	6440
3686.442	6401
3688.105	6203
3689.768	6276
3691.43	6180
3693.093	6234
3694.754	6389
3696.415	6284
3698.076	6306
3699.736	6409
3701.396	6302
3703.057	6259
3704.716	6234
3706.375	6237
3708.034	6215
3709.692	6333
3711.351	6221
3713.008	6209
3714.665	6154
3716.321	6188
3717.977	6117
3719.634	6205
3721.29	6341
3722.945	6159
3724.598	6104
3726.253	6279
3727.907	6242
3729.561	6153
3731.214	6234
3732.867	6206
3734.518	6076
3736.171	6145
3737.824	6197
3739.474	6110
3741.125	6132
3742.775	6064
3744.425	6054
3746.074	6138
3747.725	6139
3749.373	6088
3751.022	6030
3752.669	6010
3754.318	6122
3755.966	6095
3757.612	5996
3759.259	6060
3760.905	5941
3762.55	6062
3764.197	6010
3765.842	6073
3767.486	6087
3769.131	6045
3770.774	6010
3772.417	5953
3774.061	6109
3775.705	5920
3777.347	5940
3778.988	5979
3780.629	6080
3782.271	5965
3783.912	5884
3785.552	6006
3787.192	5941
3788.831	6024
3790.472	5838
3792.112	6093
3793.75	5926
3795.388	5927
3797.024	5899
3798.661	5935
3800.3	5892
3801.936	5834
3803.572	5861
3805.208	5884
3806.844	5953
3808.48	5917
3810.115	5783
3811.748	5791
3813.382	5885
3815.016	5807
3816.649	5750
3818.283	5926
3819.914	5844
3821.547	5834
3823.178	5865
3824.809	5739
3826.441	5688
3828.072	5759
3829.701	5734
3831.331	5795
3832.96	5767
3834.591	5699
3836.219	5657
3837.847	5645
3839.475	5791
3841.102	5714
3842.729	5677
3844.357	5681
3845.984	5672
3847.609	5758
3849.234	5574
3850.86	5731
3852.485	5684
3854.11	5621
3855.734	5574
3857.357	5650
3858.981	5635
3860.603	5613
3862.227	5645
3863.848	5717
3865.471	5611
3867.092	5645
3868.713	5581
3870.334	5585
3871.954	5532
3873.575	5577
3875.194	5584
3876.813	5615
3878.433	5541
3880.051	5602
3881.669	5559
3883.286	5643
3884.904	5474
3886.52	5601
3888.138	5586
3889.754	5569
3891.37	5579
3892.985	5564
3894.6	5439
3896.216	5465
3897.831	5497
3899.444	5474
3901.058	5506
3902.67	5460
3904.283	5560
3905.897	5496
3907.509	5406
3909.121	5515
3910.731	5417
3912.342	5415
3913.954	5466
3915.563	5548
3917.174	5419
3918.783	5489
3920.391	5449
3922.002	5507
3923.611	5406
3925.218	5397
3926.826	5438
3928.432	5421
3930.039	5468
3931.647	5481
3933.253	5443
3934.859	5390
3936.464	5367
3938.068	5456
3939.675	5464
3941.278	5424
3942.883	5334
3944.486	5355
3946.089	5496
3947.692	5341
3949.295	5475
3950.898	5440
3952.499	5319
3954.1	5364
3955.7	5407
3957.303	5256
3958.903	5296
3960.502	5335
3962.101	5379
3963.7	5253
3965.301	5320
3966.899	5274
3968.497	5238
3970.094	5324
3971.691	5289
3973.288	5204
3974.885	5308
3976.481	5264
3978.077	5223
3979.672	5275
3981.267	5188
3982.863	5262
3984.457	5210
3986.051	5180
3987.645	5235
3989.238	5264
3990.831	5219
3992.425	5143
3994.017	5197
3995.607	5111
3997.199	5053
3998.79	5177
4000.382	5101
4001.973	5090
4003.561	5188
4005.151	5116
4006.741	5116
4008.331	5044
4009.918	5112
4011.507	4997
4013.095	5139
4014.681	5079
4016.269	5116
4017.856	5073
4019.443	5146
4021.028	5033
4022.614	5059
4024.199	5049
4025.785	5068
4027.37	5045
4028.953	5079
4030.536	4996
4032.12	5002
4033.704	4941
4035.287	4995
4036.869	4924
4038.45	4955
4040.032	4964
4041.613	4988
4043.195	5021
4044.776	4939
4046.356	4967
4047.935	4953
4049.515	5001
4051.095	4994
4052.674	4871
4054.251	4964
4055.829	4842
4057.406	4857
4058.985	4934
4060.562	4940
4062.139	4870
4063.715	4968
4065.29	4844
4066.865	4889
4068.442	4869
4070.016	4887
4071.59	4899
4073.164	4917
4074.738	4842
4076.312	4940
4077.885	4860
4079.458	4884
4081.03	4784
4082.602	4842
4084.173	4890
4085.745	4894
4087.315	4908
4088.886	4846
4090.456	4801
4092.026	4739
4093.596	4671
4095.165	4784
4096.734	4772
4098.301	4803
4099.869	4815
4101.437	4771
4103.006	4750
4104.572	4783
4106.139	4811
4107.704	4813
4109.27	4730
4110.837	4763
4112.401	4759
4113.966	4659
4115.53	4750
4117.094	4705
4118.659	4800
4120.223	4718
4121.785	4727
4123.347	4714
4124.909	4738
4126.471	4718
4128.034	4726
4129.595	4773
4131.155	4596
4132.716	4710
4134.275	4670
4135.836	4612
4137.395	4566
4138.955	4568
4140.513	4631
4142.071	4582
4143.628	4634
4145.188	4653
4146.745	4539
4148.302	4558
4149.858	4578
4151.414	4550
4152.971	4600
4154.526	4609
4156.081	4495
4157.635	4492
4159.189	4578
4160.745	4536
4162.298	4509
4163.852	4462
4165.405	4584
4166.957	4527
4168.51	4510
4170.063	4472
4171.614	4483
4173.166	4474
4174.717	4512
4176.267	4518
4177.817	4439
4179.368	4511
4180.917	4502
4182.466	4505
4184.016	4347
4185.564	4392
4187.112	4420
4188.66	4425
4190.207	4408
4191.754	4379
4193.301	4457
4194.848	4497
4196.394	4428
4197.94	4358
4199.484	4342
4201.03	4466
4202.575	4369
4204.12	4341
4205.663	4410
4207.207	4417
4208.75	4411
4210.292	4376
4211.836	4409
4213.378	4298
4214.92	4332
4216.46	4342
4218.002	4266
4219.544	4368
4221.083	4284
4222.625	4288
4224.164	4369
4225.703	4308
4227.244	4304
4228.782	4305
4230.32	4304
4231.857	4319
4233.395	4331
4234.933	4372
4236.471	4250
4238.007	4296
4239.542	4309
4241.078	4262
4242.614	4277
4244.15	4242
4245.685	4237
4247.219	4307
4248.753	4321
4250.287	4224
4251.82	4328
4253.354	4203
4254.887	4220
4256.419	4166
4257.951	4213
4259.483	4325
4261.016	4255
4262.547	4220
4264.078	4268
4265.608	4212
4267.137	4204
4268.668	4205
4270.197	4123
4271.727	4167
4273.254	4247
4274.783	4156
4276.311	4166
4277.84	4169
4279.366	4190
4280.894	4170
4282.42	4143
4283.946	4033
4285.473	4150
4286.998	4176
4288.523	4020
4290.047	4110
4291.572	4109
4293.096	4101
4294.622	4133
4296.144	4055
4297.668	4134
4299.19	4086
4300.713	4112
4302.236	4131
4303.758	4055
4305.279	4153
4306.799	4086
4308.321	4067
4309.842	4076
4311.361	3953
4312.882	4087
4314.401	4033
