400.0961	9381
402.6185	9338
405.1424	9513
407.6635	9404
410.1838	9487
412.7035	9495
415.2225	9493
417.7388	9593
420.2585	9679
422.7754	9773
425.2917	9910
427.8072	9833
430.3221	9886
432.8363	9966
435.3498	9999
437.8626	10055
440.3727	10036
442.8841	10050
445.3969	9986
447.907	9974
450.4142	9998
452.9229	9998
455.4289	10040
457.9362	10221
460.4449	9998
462.9488	10145
465.454	10118
467.9566	10024
470.4604	10266
472.9637	10163
475.4662	10273
477.966	10181
480.4671	10238
482.9656	10197
485.4633	10344
487.9645	10471
490.4608	10313
492.9566	10291
495.4536	10388
497.948	10418
500.4437	10408
502.9387	10403
505.431	10398
507.9226	10390
510.4136	10457
512.9079	10604
515.3975	10606
517.8864	10637
520.3746	10479
522.8622	10484
525.3491	10693
527.8394	10605
530.3249	10702
532.8098	10835
535.2939	10551
537.7774	10760
540.2623	10611
542.7444	10740
545.2259	10631
547.7067	10665
550.1868	10748
552.6683	10820
555.147	10513
557.6231	10688
560.1005	10834
562.5773	10859
565.0534	10769
567.5308	10834
570.0056	10810
572.4776	10952
574.951	10811
577.4237	10957
579.8978	11053
582.3671	11143
584.8378	11140
587.3079	11012
589.7773	11021
592.244	11063
594.714	11211
597.1793	11008
599.6461	11073
602.1121	11044
604.5754	10963
607.0421	10995
609.5042	11065
611.9675	11095
614.4282	11034
616.8902	11178
619.3515	11090
621.8122	10894
624.2702	11010
626.7296	11107
629.1863	11096
631.6423	10971
634.1017	10997
636.5563	11132
639.0104	10979
641.4658	11268
643.9185	11033
646.3725	11120
648.8239	11082
651.2766	11297
653.7266	11228
656.176	11165
658.6247	11299
661.0748	11285
663.5242	11258
665.9709	11193
668.417	11345
670.8624	11480
673.3092	11390
675.7533	11202
678.1968	11453
680.6395	11418
683.0817	11512
685.5251	11378
687.9659	11438
690.4061	11360
692.8456	11510
695.2844	11569
697.7226	11601
700.1621	11451
702.599	11568
705.0332	11599
707.4688	11635
709.9036	11578
712.3399	11715
714.7735	11692
717.2044	11759
719.6367	11814
722.0683	11886
724.4993	11817
726.9296	11801
729.3593	11864
731.7883	11898
734.2147	11991
736.6423	11899
739.0714	11917
741.4958	12052
743.9216	12040
746.3447	12010
748.7691	12181
751.1929	12295
753.616	12366
756.0366	12352
758.4584	12272
760.8776	12128
763.2982	12265
765.718	12343
768.1373	12328
770.5539	12405
772.9698	12405
775.3871	12374
777.8038	12444
780.2178	12331
782.6332	12254
785.0459	12448
787.458	12547
789.8714	12359
792.2842	12249
794.6943	12469
797.1038	12424
799.5127	12462
801.9209	12496
804.3324	12393
806.7393	12433
809.1456	12393
811.5513	12650
813.9562	12403
816.3625	12531
818.7663	12586
821.1693	12549
823.5718	12540
825.9735	12622
828.3746	12477
830.7771	12407
833.177	12574
835.5762	12572
837.9747	12601
840.3727	12479
842.772	12497
845.1666	12688
847.5626	12763
849.958	12741
852.3527	12735
854.7488	12892
857.1403	12890
859.5331	12830
861.9253	12488
864.3168	12680
866.7057	12843
869.098	12663
871.4876	12679
873.8746	12798
876.263	12803
878.6487	12847
881.0378	12766
883.4243	12588
885.8081	12597
888.1933	12776
890.5759	12732
892.9598	12640
895.343	12613
897.7256	12771
900.1057	12714
902.4871	12899
904.8659	12819
907.246	12856
909.6254	12804
912.0023	12889
914.3786	13016
916.7562	13007
919.1331	13220
921.5074	13077
923.8831	13356
926.2562	13323
928.6287	13277
931.0005	13245
933.3757	13348
935.7462	13439
938.1162	13301
940.4855	13370
942.8542	13559
945.2242	13668
947.5916	13808
949.9584	13837
952.3266	14149
954.6921	14330
957.0571	14955
959.4233	15136
961.787	15101
964.15	15255
966.5125	15037
968.8742	14631
971.2354	14091
973.5959	13939
975.9559	13690
978.3151	13445
980.6738	13334
983.0338	13455
985.3912	13271
987.7461	13198
990.1022	13294
992.4578	13197
994.8127	13115
997.1689	13264
999.5207	13128
1001.874	13278
1004.226	13264
1006.576	13095
1008.929	13150
1011.28	13076
1013.628	13298
1015.977	13228
1018.324	13105
1020.674	13364
1023.019	13392
1025.366	13278
1027.713	13308
1030.056	13375
1032.399	13264
1034.746	13255
1037.087	13278
1039.431	13380
1041.771	13401
1044.113	13413
1046.454	13340
1048.793	13406
1051.133	13396
1053.471	13271
1055.807	13401
1058.146	13290
1060.483	13511
1062.818	13326
1065.153	13570
1067.489	13491
1069.822	13658
1072.156	13422
1074.488	13629
1076.82	13556
1079.15	13370
1081.48	13439
1083.814	13504
1086.143	13424
1088.471	13418
1090.799	13563
1093.126	13260
1095.452	13589
1097.78	13425
1100.105	13415
1102.43	13393
1104.754	13398
1107.077	13507
1109.4	13607
1111.722	13719
1114.044	13511
1116.365	13662
1118.685	13663
1121.005	13452
1123.324	13502
1125.643	13552
1127.961	13375
1130.278	13670
1132.595	13496
1134.911	13570
1137.226	13681
1139.541	13533
1141.854	13580
1144.167	13477
1146.482	13548
1148.793	13669
1151.105	13495
1153.414	13544
1155.725	13558
1158.033	13445
1160.344	13571
1162.651	13460
1164.959	13408
1167.265	13755
1169.572	13601
1171.878	13745
1174.184	13472
1176.488	13689
1178.79	13608
1181.094	13519
1183.396	13567
1185.699	13676
1188.001	13688
1190.301	13534
1192.6	13424
1194.9	13512
1197.2	13649
1199.497	13554
1201.794	13639
1204.09	13432
1206.387	13632
1208.684	13675
1210.978	13453
1213.272	13759
1215.565	13778
1217.858	13671
1220.15	13771
1222.443	13568
1224.734	13592
1227.024	13705
1229.313	13664
1231.602	13928
1233.892	13921
1236.18	13900
1238.467	13940
1240.754	13924
1243.04	14024
1245.325	13908
1247.612	13953
1249.896	14128
1252.178	13909
1254.461	14081
1256.743	14053
1259.027	13936
1261.308	14074
1263.587	14128
1265.867	13973
1268.146	14190
1270.425	14061
1272.703	14084
1274.981	14406
1277.256	13968
1279.532	13945
1281.808	13990
1284.083	13959
1286.358	13678
1288.63	14069
1290.904	13836
1293.175	13904
1295.449	13783
1297.719	13966
1299.99	13772
1302.259	13792
1304.529	13831
1306.798	13962
1309.065	13913
1311.333	13984
1313.599	13868
1315.866	13862
1318.131	13743
1320.396	13954
1322.66	13896
1324.925	13826
1327.187	13842
1329.448	13842
1331.711	14019
1333.974	13945
1336.234	13798
1338.493	13759
1340.752	13819
1343.01	13824
1345.269	13861
1347.526	13820
1349.784	13832
1352.04	13699
1354.295	13798
1356.552	13924
1358.806	13676
1361.059	13900
1363.312	13849
1365.564	13940
1367.818	13911
1370.069	13925
1372.318	13907
1374.568	13897
1376.817	14056
1379.066	14008
1381.316	13864
1383.564	13955
1385.809	14077
1388.056	14076
1390.301	13993
1392.549	14111
1394.793	14186
1397.036	14257
1399.279	14051
1401.522	14149
1403.763	14364
1406.007	14289
1408.248	14211
1410.487	14182
1412.727	14296
1414.965	14414
1417.205	14337
1419.442	14371
1421.68	14093
1423.915	14277
1426.152	14429
1428.388	14146
1430.623	14270
1432.857	14338
1435.091	14191
1437.323	14279
1439.556	14274
1441.789	14509
1444.019	14345
1446.25	14424
1448.48	14413
1450.708	14358
1452.938	14636
1455.167	14526
1457.394	14460
1459.62	14413
1461.846	14412
1464.073	14453
1466.299	14527
1468.523	14271
1470.746	14118
1472.969	14164
1475.191	14133
1477.415	14213
1479.636	14133
1481.858	14089
1484.078	14214
1486.298	14047
1488.518	13990
1490.736	13925
1492.954	13934
1495.169	13986
1497.386	13919
1499.602	13976
1501.819	13870
1504.034	13832
1506.248	13847
1508.462	13869
1510.675	13749
1512.888	13867
1515.1	13716
1517.311	13623
1519.522	13883
1521.732	13848
1523.942	13945
1526.151	13976
1528.36	13940
1530.566	13856
1532.773	13927
1534.98	14122
1537.187	13799
1539.392	13791
1541.596	14018
1543.801	14042
1546.005	13859
1548.208	13907
1550.411	13987
1552.612	14001
1554.814	13900
1557.013	13942
1559.212	14194
1561.414	14120
1563.612	14076
1565.811	14041
1568.007	14107
1570.203	14244
1572.403	14206
1574.598	14260
1576.792	14212
1578.988	14213
1581.181	14162
1583.376	14272
1585.568	14294
1587.761	14278
1589.952	14332
1592.143	14241
1594.333	14139
1596.524	14304
1598.715	14423
1600.903	14257
1603.091	14395
1605.278	14461
1607.466	14369
1609.652	14182
1611.838	14404
1614.023	14274
1616.207	14439
1618.391	14592
1620.576	14232
1622.759	14332
1624.941	14314
1627.123	14286
1629.304	14300
1631.484	14295
1633.664	14597
1635.844	14396
1638.022	14360
1640.201	14393
1642.38	14421
1644.556	14309
1646.732	14502
1648.908	14452
1651.084	14285
1653.257	14347
1655.433	14446
1657.607	14476
1659.779	14650
1661.951	14328
1664.122	14643
1666.295	14517
1668.467	14584
1670.635	14497
1672.805	14444
1674.973	14220
1677.142	14655
1679.31	14374
1681.478	14304
1683.644	14503
1685.81	14627
1687.975	14336
1690.142	14439
1692.305	14319
1694.468	14434
1696.632	14515
1698.794	14362
1700.957	14353
1703.119	14374
1705.279	14322
1707.439	14198
1709.598	14219
1711.758	14288
1713.917	14224
1716.075	14213
1718.231	14299
1720.388	14235
1722.543	14223
1724.702	14287
1726.856	14120
1729.01	14158
1731.164	14217
1733.317	14113
1735.471	14125
1737.623	14169
1739.774	14171
1741.925	14382
1744.075	14307
1746.225	14294
1748.376	14107
1750.524	14257
1752.672	14116
1754.82	14324
1756.965	14289
1759.113	14091
1761.259	14158
1763.405	14213
1765.549	14225
1767.694	14287
1769.836	14397
1771.981	14215
1774.123	14280
1776.264	14419
1778.405	14369
1780.546	14507
1782.687	14311
1784.827	14408
1786.966	14325
1789.103	14297
1791.242	14408
1793.381	14370
1795.517	14392
1797.653	14373
1799.788	14448
1801.923	14311
1804.057	14377
1806.193	14320
1808.326	14200
1810.457	14308
1812.59	14331
1814.721	14465
1816.855	14380
1818.984	14254
1821.113	14212
1823.244	14223
1825.372	14186
1827.499	14420
1829.63	14091
1831.756	14229
1833.882	14078
1836.007	14221
1838.132	14083
1840.26	14386
1842.384	14093
1844.507	14136
1846.63	14251
1848.752	14099
1850.875	14189
1852.996	14110
1855.118	13951
1857.238	14103
1859.358	14185
1861.477	14191
1863.597	14148
1865.715	14135
1867.832	14068
1869.948	14053
1872.064	14007
1874.181	14113
1876.297	14097
1878.411	14218
1880.526	14154
1882.639	14136
1884.752	14211
1886.865	14075
1888.977	14115
1891.089	14164
1893.2	14271
1895.308	14007
1897.42	14363
1899.53	14145
1901.639	14356
1903.745	14295
1905.853	14470
1907.962	14166
1910.067	14375
1912.174	14382
1914.278	14269
1916.383	14428
1918.486	14387
1920.592	14081
1922.694	14424
1924.797	14326
1926.898	14253
1929	14512
1931.102	14424
1933.203	14245
1935.301	14500
1937.401	14355
1939.499	14503
1941.598	14320
1943.697	14250
1945.793	14177
1947.888	14363
1949.985	14276
1952.08	14311
1954.176	14313
1956.269	14208
1958.364	14331
1960.457	14178
1962.549	14454
1964.642	14092
1966.733	14465
1968.823	14311
1970.913	14338
1973.005	14378
1975.093	14153
1977.184	14108
1979.271	14349
1981.359	14272
1983.446	14246
1985.532	14210
1987.619	14208
1989.705	14204
1991.789	14043
1993.874	14044
1995.956	14194
1998.041	14061
2000.123	14057
2002.206	14266
2004.287	14061
2006.368	14132
2008.449	14103
2010.529	14242
2012.609	14200
2014.688	13961
2016.766	14001
2018.843	13924
2020.922	14070
2022.999	14234
2025.074	14157
2027.15	14094
2029.225	14076
2031.299	14041
2033.375	14029
2035.447	14157
2037.52	14118
2039.592	14263
2041.664	14085
2043.736	13986
2045.807	14009
2047.876	14138
2049.947	14282
2052.015	14218
2054.086	14166
2056.153	14264
2058.221	14170
2060.288	14217
2062.353	14092
2064.42	14041
2066.486	14034
2068.55	14192
2070.614	14164
2072.678	14075
2074.741	14027
2076.805	13966
2078.866	14201
2080.929	14011
2082.99	13956
2085.049	13974
2087.109	13961
2089.17	14081
2091.228	14014
2093.286	14327
2095.344	14114
2097.4	14031
2099.46	13896
2101.516	14128
2103.572	14243
2105.626	13770
2107.679	13960
2109.735	14134
2111.788	14022
2113.841	14009
2115.894	13960
2117.945	13871
2119.997	14042
2122.049	13943
2124.1	14019
2126.148	13902
2128.197	14091
2130.246	13989
2132.296	13957
2134.342	13984
2136.39	13908
2138.437	14000
2140.483	13923
2142.527	13784
2144.574	13964
2146.619	13950
2148.661	13950
2150.705	14019
2152.747	13879
2154.792	13870
2156.832	14031
2158.874	13730
2160.915	13962
2162.954	13967
2164.995	13886
2167.034	13728
2169.072	13747
2171.111	13751
2173.148	13814
2175.186	13656
2177.223	13824
2179.258	13701
2181.294	13965
2183.328	13744
2185.362	13804
2187.398	13715
2189.431	13572
2191.463	13564
2193.495	13682
2195.528	13617
2197.56	13580
2199.59	13508
2201.62	13725
2203.649	13676
2205.678	13642
2207.708	13511
2209.737	13518
2211.764	13673
2213.791	13532
2215.817	13675
2217.843	13565
2219.87	13545
2221.895	13564
2223.919	13500
2225.942	13464
2227.966	13429
2229.988	13566
2232.012	13488
2234.032	13584
2236.054	13322
2238.074	13466
2240.095	13448
2242.116	13525
2244.135	13507
2246.153	13565
2248.171	13565
2250.188	13483
2252.208	13343
2254.223	13610
2256.239	13490
2258.255	13379
2260.269	13644
2262.283	13484
2264.3	13451
2266.312	13418
2268.325	13439
2270.336	13503
2272.349	13441
2274.362	13570
2276.372	13474
2278.383	13311
2280.392	13387
2282.402	13496
2284.409	13394
2286.418	13355
2288.427	13250
2290.433	13504
2292.441	13498
2294.446	13420
2296.453	13378
2298.459	13426
2300.463	13482
2302.466	13463
2304.471	13390
2306.475	13447
2308.477	13386
2310.478	13143
2312.481	13245
2314.481	13435
2316.481	13334
2318.482	13381
2320.482	13343
2322.48	13224
2324.48	13368
2326.478	13194
2328.476	13270
2330.473	13091
2332.469	13178
2334.465	13220
2336.46	13199
2338.454	13183
2340.45	13159
2342.444	13251
2344.437	13201
2346.43	13281
2348.421	13223
2350.414	13154
2352.405	13141
2354.396	13159
2356.386	13315
2358.376	13093
2360.366	13039
2362.355	13116
2364.343	13018
2366.331	13169
2368.317	13270
2370.304	13112
2372.292	13137
2374.278	12866
2376.262	13060
2378.247	12928
2380.23	13049
2382.216	12950
2384.199	12956
2386.181	13118
2388.163	13017
2390.144	12947
2392.127	12779
2394.107	12946
2396.087	12684
2398.066	12948
2400.046	12987
2402.023	12691
2404.004	12840
2405.981	12861
2407.957	12806
2409.934	12722
2411.91	12861
2413.886	12864
2415.862	12732
2417.836	12668
2419.809	12772
2421.784	12759
2423.756	12732
2425.73	12700
2427.701	12746
2429.672	12919
2431.644	12754
2433.615	12766
2435.586	12758
2437.555	12821
2439.523	12693
2441.491	12817
2443.459	12849
2445.428	12833
2447.395	12686
2449.361	12760
2451.327	12638
2453.292	12638
2455.257	12746
2457.223	12681
2459.187	12786
2461.15	12577
2463.113	12561
2465.076	12683
2467.039	12607
2468.999	12668
2470.96	12565
2472.921	12673
2474.881	12690
2476.841	12616
2478.8	12722
2480.759	12761
2482.717	12472
2484.675	12530
2486.63	12704
2488.589	12619
2490.545	12502
2492.5	12441
2494.455	12592
2496.408	12689
2498.364	12449
2500.318	12425
2502.27	12502
2504.223	12359
2506.174	12530
2508.126	12519
2510.078	12384
2512.03	12548
2513.979	12369
2515.927	12511
2517.877	12440
2519.826	12425
2521.775	12380
2523.722	12378
2525.668	12365
2527.616	12438
2529.561	12497
2531.508	12406
2533.452	12417
2535.398	12355
2537.342	12353
2539.284	12485
2541.229	12496
2543.173	12359
2545.114	12523
2547.055	12336
2548.996	12425
2550.938	12345
2552.878	12319
2554.817	12433
2556.756	12314
2558.695	12256
2560.633	12317
2562.572	12293
2564.509	12489
2566.445	12416
2568.382	12344
2570.317	12379
2572.254	12359
2574.189	12365
2576.123	12267
2578.057	12481
2579.99	12305
2581.923	12228
2583.855	12206
2585.788	12318
2587.719	12354
2589.65	12333
2591.579	12290
2593.511	12414
2595.44	12243
2597.37	12362
2599.297	12221
2601.225	12356
2603.153	12320
2605.08	12216
2607.007	12411
2608.932	12290
2610.858	12542
2612.782	12294
2614.709	12382
2616.632	12211
2618.556	12471
2620.478	12262
2622.401	12373
2624.324	12492
2626.247	12387
2628.167	12292
2630.088	12336
2632.008	12331
2633.928	12314
2635.848	12259
2637.766	12375
2639.684	12454
2641.603	12472
2643.519	12372
2645.437	12338
2647.353	12410
2649.27	12242
2651.184	12232
2653.099	12265
2655.014	12166
2656.928	12356
2658.842	12356
2660.755	12301
2662.667	12399
2664.579	12247
2666.491	12340
2668.402	12005
2670.312	12193
2672.222	12034
2674.132	12200
2676.042	12161
2677.951	12319
2679.859	11998
2681.766	12123
2683.674	12113
2685.582	12054
2687.488	12119
2689.392	12172
2691.298	12164
2693.202	11943
2695.107	12144
2697.012	12084
2698.914	12080
2700.817	11885
2702.72	12066
2704.622	12053
2706.524	12147
2708.425	11961
2710.326	12002
2712.225	12083
2714.125	11924
2716.024	11968
2717.923	11880
2719.822	12052
2721.719	11809
2723.616	11843
2725.512	11921
2727.41	12004
2729.305	11847
2731.201	11966
2733.095	12016
2734.99	11814
2736.884	11879
2738.778	12049
2740.67	11883
2742.562	12030
2744.455	11937
2746.346	11793
2748.238	11676
2750.129	11917
2752.018	11854
2753.907	11644
2755.797	11805
2757.687	11729
2759.575	11818
2761.462	11789
2763.349	11737
2765.237	11737
2767.124	11850
2769.009	11789
2770.894	11753
2772.779	11859
2774.663	11762
2776.547	11843
2778.431	11778
2780.314	11816
2782.197	11763
2784.078	11771
2785.96	11655
2787.842	11736
2789.723	11749
2791.603	11897
2793.483	11714
2795.362	11657
2797.241	11812
2799.121	11791
2800.997	11689
2802.874	11651
2804.751	11651
2806.628	11563
2808.506	11786
2810.38	11740
2812.255	11689
2814.13	11553
2816.003	11548
2817.878	11733
2819.752	11497
2821.623	11696
2823.496	11437
2825.368	11671
2827.238	11464
2829.111	11691
2830.98	11641
2832.851	11495
2834.719	11697
2836.589	11607
2838.458	11666
2840.327	11450
2842.193	11711
2844.061	11673
2845.927	11631
2847.794	11624
2849.66	11588
2851.525	11576
2853.39	11694
2855.254	11567
2857.117	11590
2858.983	11609
2860.845	11716
2862.707	11742
2864.569	11835
2866.431	11799
2868.293	11750
2870.154	11797
2872.013	11835
2873.873	11910
2875.733	11893
2877.592	11997
2879.451	12130
2881.309	12254
2883.166	12127
2885.022	12339
2886.879	12311
2888.736	12262
2890.591	12373
2892.446	12174
2894.301	12169
2896.155	12336
2898.009	12204
2899.863	12334
2901.716	12251
2903.568	12123
2905.419	12038
2907.27	12356
2909.123	12313
2910.973	12257
2912.824	12363
2914.673	12487
2916.521	12404
2918.372	12520
2920.22	12387
2922.067	12640
2923.914	12542
2925.761	12782
2927.607	12677
2929.455	12680
2931.301	12792
2933.144	12731
2934.99	13206
2936.833	13069
2938.678	13111
2940.522	13027
2942.364	13373
2944.207	13436
2946.048	13333
2947.891	13365
2949.731	13392
2951.571	13338
2953.412	13367
2955.25	13369
2957.09	13100
2958.93	13010
2960.767	12931
2962.606	12947
2964.443	12838
2966.279	12749
2968.116	12486
2969.953	12608
2971.788	12422
2973.623	12417
2975.457	12362
2977.292	12287
2979.127	12227
2980.959	12239
2982.792	12015
2984.624	12157
2986.455	12035
2988.288	11982
2990.119	11783
2991.949	11968
2993.779	11795
2995.608	11793
2997.439	11617
2999.268	11719
3001.096	11597
3002.923	11403
3004.751	11542
3006.578	11343
3008.406	11258
3010.232	11315
3012.057	11252
3013.883	11213
3015.706	11197
3017.532	11233
3019.356	11028
3021.179	11064
3023.002	11040
3024.823	10918
3026.646	10866
3028.469	10878
3030.289	10891
3032.11	10783
3033.93	10955
3035.749	10789
3037.57	10748
3039.39	10841
3041.207	10852
3043.026	10887
3044.842	10715
3046.661	10628
3048.477	10737
3050.294	10760
3052.109	10668
3053.925	10695
3055.739	10686
3057.555	10766
3059.368	10582
3061.181	10641
3062.995	10591
3064.807	10725
3066.62	10686
3068.433	10608
3070.243	10504
3072.054	10461
3073.865	10608
3075.675	10597
3077.485	10565
3079.293	10476
3081.102	10667
3082.911	10551
3084.719	10443
3086.527	10422
3088.333	10582
3090.139	10635
3091.945	10361
3093.75	10488
3095.557	10311
3097.361	10439
3099.165	10420
3100.969	10276
3102.772	10229
3104.575	10237
3106.379	10448
3108.181	10256
3109.982	10303
3111.783	10226
3113.584	10333
3115.386	10198
3117.186	10232
3118.985	10304
3120.783	10203
3122.582	10164
3124.381	10080
3126.179	10166
3127.975	10227
3129.772	10093
3131.569	10319
3133.365	10140
3135.161	10090
3136.956	10109
3138.751	10142
3140.544	10098
3142.338	10039
3144.132	9903
3145.925	10154
3147.717	9970
3149.509	9997
3151.301	10088
3153.091	9833
3154.884	10049
3156.673	9949
3158.462	9888
3160.252	10098
3162.041	9978
3163.831	9948
3165.618	9882
3167.405	9881
3169.193	10003
3170.979	10140
3172.767	9848
3174.553	9784
3176.338	9937
3178.123	9978
3179.907	9876
3181.692	9809
3183.477	9904
3185.259	9747
3187.042	9850
3188.824	10049
3190.607	9784
3192.389	9819
3194.17	9881
3195.951	9965
3197.73	9811
3199.51	9917
3201.289	9778
3203.07	9872
3204.848	9771
3206.626	9719
3208.403	9779
3210.18	9713
3211.959	9820
3213.735	9650
3215.511	9775
3217.285	9770
3219.06	9796
3220.836	9898
3222.611	9690
3224.384	9652
3226.158	9682
3227.929	9707
3229.702	9757
3231.476	9797
3233.248	9660
3235.018	9779
3236.789	9532
3238.56	9750
3240.33	9751
3242.1	9765
3243.869	9588
3245.637	9731
3247.405	9712
3249.172	9723
3250.941	9805
3252.707	9542
3254.474	9535
3256.24	9679
3258.006	9569
3259.772	9619
3261.537	9597
3263.301	9559
3265.065	9551
3266.828	9634
3268.592	9621
3270.355	9658
3272.117	9548
3273.878	9609
3275.64	9625
3277.401	9570
3279.162	9627
3280.922	9681
3282.682	9631
3284.441	9683
3286.199	9661
3287.959	9629
3289.716	9633
3291.475	9570
3293.232	9632
3294.988	9542
3296.744	9602
3298.501	9519
3300.256	9566
3302.011	9602
3303.766	9634
3305.52	9512
3307.275	9583
3309.028	9533
3310.781	9532
3312.533	9494
3314.285	9461
3316.038	9539
3317.789	9630
3319.54	9693
3321.289	9575
3323.039	9426
3324.789	9420
3326.539	9639
3328.288	9573
3330.035	9549
3331.783	9509
3333.531	9500
3335.28	9386
3337.025	9308
3338.771	9345
3340.518	9396
3342.262	9480
3344.009	9320
3345.753	9422
3347.497	9516
3349.24	9335
3350.983	9347
3352.726	9476
3354.469	9243
3356.212	9406
3357.952	9277
3359.694	9207
3361.434	9385
3363.176	9202
3364.916	9324
3366.654	9360
3368.394	9182
3370.132	9214
3371.871	9233
3373.61	9089
3375.346	9222
3377.083	9202
3378.82	9132
3380.556	9305
3382.292	9188
3384.027	9232
3385.763	9058
3387.497	9100
3389.231	9122
3390.965	9191
3392.698	9111
3394.431	9065
3396.164	9052
3397.896	8984
3399.627	9238
3401.36	9194
3403.09	9241
3404.82	9006
3406.55	9029
3408.279	9023
3410.01	9178
3411.738	9048
3413.467	8949
3415.194	9077
3416.92	8871
3418.647	9020
3420.375	8953
3422.102	9033
3423.827	8916
3425.553	9028
3427.277	8858
3429.003	9016
3430.727	8852
3432.451	8926
3434.173	8890
3435.896	8851
3437.62	8858
3439.343	8845
3441.063	8941
3442.785	8861
3444.505	8740
3446.226	8848
3447.948	8767
3449.666	8752
3451.386	8679
3453.104	8658
3454.823	8878
3456.541	8669
3458.259	8783
3459.976	8655
3461.693	8720
3463.408	8692
3465.125	8648
3466.841	8654
3468.556	8675
3470.271	8541
3471.985	8605
3473.698	8614
3475.414	8668
3477.126	8567
3478.838	8554
3480.55	8581
3482.263	8414
3483.975	8608
3485.686	8640
3487.396	8523
3489.106	8550
3490.817	8551
3492.526	8471
3494.236	8460
3495.944	8391
3497.652	8410
3499.359	8531
3501.066	8402
3502.775	8581
3504.481	8242
3506.187	8392
3507.893	8408
3509.598	8323
3511.304	8494
3513.009	8220
3514.713	8398
3516.417	8342
3518.12	8221
3519.821	8508
3521.525	8306
3523.228	8325
3524.929	8301
3526.631	8161
3528.33	8245
3530.032	8279
3531.733	8222
3533.433	8332
3535.131	8213
3536.83	8177
3538.529	8207
3540.227	8237
3541.925	8220
3543.623	8086
3545.319	8097
3547.016	8181
3548.712	8106
3550.408	8167
3552.103	8135
3553.798	8036
3555.491	8244
3557.188	8116
3558.88	8020
3560.574	8091
3562.266	8075
3563.959	8115
3565.651	8085
3567.343	8015
3569.035	8006
3570.725	8131
3572.415	8104
3574.106	8042
3575.797	8000
3577.485	7922
3579.174	7958
3580.863	7967
3582.551	7892
3584.238	8074
3585.926	8008
3587.613	7968
3589.3	7931
3590.986	7890
3592.671	7779
3594.357	7841
3596.042	7813
3597.726	7678
3599.41	7847
3601.094	7778
3602.778	7804
3604.461	7811
3606.143	7778
3607.825	7804
3609.507	7775
3611.188	7731
3612.87	7663
3614.551	7734
3616.229	7692
3617.909	7649
3619.589	7702
3621.269	7709
3622.948	7593
3624.625	7606
3626.302	7639
3627.98	7635
3629.657	7490
3631.334	7626
3633.01	7533
3634.686	7584
3636.361	7438
3638.036	7518
3639.712	7443
3641.385	7482
3643.06	7431
3644.732	7560
3646.405	7502
3648.08	7437
3649.751	7465
3651.424	7419
3653.094	7531
3654.766	7453
3656.436	7383
3658.106	7355
3659.777	7415
3661.446	7419
3663.115	7361
3664.783	7276
3666.452	7424
3668.121	7411
3669.788	7306
3671.454	7326
3673.121	7297
3674.789	7415
3676.455	7340
3678.12	7332
3679.784	7264
3681.45	7284
3683.114	7287
3684.779	7283
3686.442	7436
3688.105	7253
3689.768	7173
3691.43	7244
3693.093	7291
3694.754	7352
3696.415	7280
3698.076	7243
3699.736	7256
3701.396	7110
3703.057	7263
3704.716	7238
3706.375	7206
3708.034	7069
3709.692	7261
3711.351	7216
3713.008	7112
3714.665	7172
3716.321	7106
3717.977	7101
3719.634	7204
3721.29	7203
3722.945	7158
3724.598	7119
3726.253	7034
3727.907	7133
3729.561	7204
3731.214	7086
3732.867	7053
3734.518	7072
3736.171	7018
3737.824	7105
3739.474	7120
3741.125	7187
3742.775	7122
3744.425	7166
3746.074	7023
3747.725	7072
3749.373	7135
3751.022	7092
3752.669	6974
3754.318	6926
3755.966	7053
3757.612	7003
3759.259	6956
3760.905	7009
3762.55	6893
3764.197	7021
3765.842	7033
3767.486	6935
3769.131	6873
3770.774	6958
3772.417	6981
3774.061	6930
3775.705	6902
3777.347	7008
3778.988	6870
3780.629	6922
3782.271	6801
3783.912	6861
3785.552	6916
3787.192	6900
3788.831	6746
3790.472	6855
3792.112	6877
3793.75	6705
3795.388	6752
3797.024	6815
3798.661	6773
3800.3	6706
3801.936	6772
3803.572	6748
3805.208	6802
3806.844	6754
3808.48	6841
3810.115	6748
3811.748	6672
3813.382	6818
3815.016	6688
3816.649	6738
3818.283	6680
3819.914	6669
3821.547	6603
3823.178	6612
3824.809	6695
3826.441	6601
3828.072	6674
3829.701	6634
3831.331	6713
3832.96	6653
3834.591	6649
3836.219	6512
3837.847	6649
3839.475	6563
3841.102	6619
3842.729	6596
3844.357	6633
3845.984	6592
3847.609	6633
3849.234	6500
3850.86	6464
3852.485	6522
3854.11	6421
3855.734	6524
3857.357	6511
3858.981	6540
3860.603	6490
3862.227	6503
3863.848	6509
3865.471	6506
3867.092	6441
3868.713	6388
3870.334	6523
3871.954	6418
3873.575	6472
3875.194	6547
3876.813	6424
3878.433	6417
3880.051	6391
3881.669	6388
3883.286	6413
3884.904	6304
3886.52	6450
3888.138	6458
3889.754	6284
3891.37	6399
3892.985	6328
3894.6	6288
3896.216	6369
3897.831	6295
3899.444	6408
3901.058	6407
3902.67	6264
3904.283	6422
3905.897	6401
3907.509	6279
3909.121	6355
3910.731	6320
3912.342	6277
3913.954	6315
3915.563	6291
3917.174	6308
3918.783	6338
3920.391	6257
3922.002	6288
3923.611	6382
3925.218	6245
3926.826	6248
3928.432	6331
3930.039	6332
3931.647	6247
3933.253	6291
3934.859	6303
3936.464	6255
3938.068	6170
3939.675	6272
3941.278	6157
3942.883	6323
3944.486	6220
3946.089	6199
3947.692	6201
3949.295	6186
3950.898	6166
3952.499	6156
3954.1	6178
3955.7	6260
3957.303	6121
3958.903	6130
3960.502	6186
3962.101	6186
3963.7	6074
3965.301	6104
3966.899	6094
3968.497	6253
3970.094	6170
3971.691	6067
3973.288	6050
3974.885	6098
3976.481	6103
3978.077	6024
3979.672	5975
3981.267	6057
3982.863	6022
3984.457	6044
3986.051	6020
3987.645	6118
3989.238	5961
3990.831	5951
3992.425	5928
3994.017	5928
3995.607	5880
3997.199	5933
3998.79	5922
4000.382	5896
4001.973	5890
4003.561	5885
4005.151	5936
4006.741	5809
4008.331	5872
4009.918	5810
4011.507	5841
4013.095	5805
4014.681	5818
4016.269	5925
4017.856	5797
4019.443	5799
4021.028	5829
4022.614	5807
4024.199	5793
4025.785	5798
4027.37	5757
4028.953	5733
4030.536	5670
4032.12	5701
4033.704	5691
4035.287	5675
4036.869	5751
4038.45	5876
4040.032	5735
4041.613	5633
4043.195	5636
4044.776	5695
4046.356	5744
4047.935	5699
4049.515	5709
4051.095	5617
4052.674	5633
4054.251	5705
4055.829	5645
4057.406	5622
4058.985	5657
4060.562	5576
4062.139	5642
4063.715	5609
4065.29	5496
4066.865	5668
4068.442	5610
4070.016	5611
4071.59	5518
4073.164	5550
4074.738	5607
4076.312	5485
4077.885	5615
4079.458	5507
4081.03	5480
4082.602	5668
4084.173	5537
4085.745	5546
4087.315	5492
4088.886	5452
4090.456	5528
4092.026	5589
4093.596	5380
4095.165	5501
4096.734	5544
4098.301	5445
4099.869	5461
4101.437	5492
4103.006	5524
4104.572	5389
4106.139	5441
4107.704	5414
4109.27	5484
4110.837	5518
4112.401	5474
4113.966	5458
4115.53	5464
4117.094	5454
4118.659	5460
4120.223	5362
4121.785	5328
4123.347	5388
4124.909	5393
4126.471	5240
4128.034	5310
4129.595	5339
4131.155	5357
4132.716	5341
4134.275	5400
4135.836	5331
4137.395	5283
4138.955	5236
4140.513	5343
4142.071	5240
4143.628	5258
4145.188	5280
4146.745	5282
4148.302	5322
4149.858	5229
4151.414	5252
4152.971	5258
4154.526	5163
4156.081	5202
4157.635	5160
4159.189	5265
4160.745	5215
4162.298	5207
4163.852	5128
4165.405	5244
4166.957	5143
4168.51	5128
4170.063	5181
4171.614	5141
4173.166	5153
4174.717	5071
4176.267	5120
4177.817	5129
4179.368	5110
4180.917	5048
4182.466	5126
4184.016	5074
4185.564	5093
4187.112	5139
4188.66	5140
4190.207	4976
4191.754	5006
4193.301	5064
4194.848	4972
4196.394	5079
4197.94	4982
4199.484	5057
4201.03	5039
4202.575	5080
4204.12	5000
4205.663	5059
4207.207	4844
4208.75	4882
4210.292	5020
4211.836	4908
4213.378	4965
4214.92	4953
4216.46	5078
4218.002	5051
4219.544	4975
4221.083	4969
4222.625	4974
4224.164	4868
4225.703	4870
4227.244	4910
4228.782	4846
4230.32	5008
4231.857	4909
4233.395	4933
4234.933	4900
4236.471	4876
4238.007	4868
4239.542	4939
4241.078	4846
4242.614	4865
4244.15	4826
4245.685	4860
4247.219	4876
4248.753	4815
4250.287	4817
4251.82	4903
4253.354	4768
4254.887	4796
4256.419	4828
4257.951	4768
4259.483	4852
4261.016	4793
4262.547	4803
4264.078	4748
4265.608	4792
4267.137	4808
4268.668	4768
4270.197	4817
4271.727	4730
4273.254	4791
4274.783	4717
4276.311	4853
4277.84	4715
4279.366	4720
4280.894	4731
4282.42	4694
4283.946	4678
4285.473	4731
4286.998	4713
4288.523	4710
4290.047	4745
4291.572	4705
4293.096	4756
4294.622	4728
4296.144	4773
4297.668	4649
4299.19	4582
4300.713	4782
4302.236	4639
4303.758	4709
4305.279	4602
4306.799	4632
4308.321	4641
4309.842	4576
4311.361	4597
4312.882	4573
4314.401	4708
