400.0961	6067
402.6185	6142
405.1424	6058
407.6635	6154
410.1838	6118
412.7035	6249
415.2225	6292
417.7388	6366
420.2585	6331
422.7754	6436
425.2917	6427
427.8072	6360
430.3221	6500
432.8363	6473
435.3498	6467
437.8626	6651
440.3727	6468
442.8841	6633
445.3969	6478
447.907	6555
450.4142	6527
452.9229	6583
455.4289	6656
457.9362	6608
460.4449	6491
462.9488	6625
465.454	6521
467.9566	6560
470.4604	6576
472.9637	6627
475.4662	6544
477.966	6624
480.4671	6645
482.9656	6753
485.4633	6641
487.9645	6680
490.4608	6679
492.9566	6729
495.4536	6678
497.948	6735
500.4437	6668
502.9387	6847
505.431	6832
507.9226	6832
510.4136	6726
512.9079	6731
515.3975	6955
517.8864	6880
520.3746	6995
522.8622	6945
525.3491	6886
527.8394	6934
530.3249	6886
532.8098	6928
535.2939	6804
537.7774	6971
540.2623	6922
542.7444	6966
545.2259	6804
547.7067	6892
550.1868	6901
552.6683	6988
555.147	6943
557.6231	7028
560.1005	6979
562.5773	7071
565.0534	7040
567.5308	7001
570.0056	6968
572.4776	7026
574.951	7074
577.4237	7189
579.8978	7243
582.3671	7177
584.8378	7216
587.3079	7241
589.7773	7281
592.244	7215
594.714	7141
597.1793	7253
599.6461	7094
602.1121	7186
604.5754	7317
607.0421	7134
609.5042	7142
611.9675	7109
614.4282	7163
616.8902	7162
619.3515	7066
621.8122	7102
624.2702	7216
626.7296	7165
629.1863	7219
631.6423	7046
634.1017	7303
636.5563	7170
639.0104	7199
641.4658	7152
643.9185	7294
646.3725	7224
648.8239	7336
651.2766	7119
653.7266	7174
656.176	7304
658.6247	7315
661.0748	7346
663.5242	7267
665.9709	7345
668.417	7292
670.8624	7294
673.3092	7352
675.7533	7365
678.1968	7493
680.6395	7408
683.0817	7422
685.5251	7337
687.9659	7400
690.4061	7440
692.8456	7453
695.2844	7389
697.7226	7568
700.1621	7530
702.599	7444
705.0332	7532
707.4688	7536
709.9036	7538
712.3399	7509
714.7735	7573
717.2044	7560
719.6367	7673
722.0683	7588
724.4993	7707
726.9296	7689
729.3593	7704
731.7883	7717
734.2147	7768
736.6423	7804
739.0714	7663
741.4958	7895
743.9216	7779
746.3447	7819
748.7691	7913
751.1929	7825
753.616	7903
756.0366	7946
758.4584	7965
760.8776	7841
763.2982	8040
765.718	7993
768.1373	7966
770.5539	7931
772.9698	8096
775.3871	7914
777.8038	8034
780.2178	7930
782.6332	7966
785.0459	7861
787.458	8168
789.8714	8122
792.2842	7978
794.6943	7964
797.1038	8059
799.5127	7949
801.9209	7974
804.3324	8116
806.7393	8019
809.1456	8017
811.5513	8040
813.9562	8055
816.3625	8076
818.7663	8231
821.1693	8237
823.5718	8097
825.9735	8030
828.3746	7946
830.7771	8182
833.177	8169
835.5762	8104
837.9747	8210
840.3727	8194
842.772	8210
845.1666	8235
847.5626	8246
849.958	8210
852.3527	8387
854.7488	8261
857.1403	8351
859.5331	8297
861.9253	8184
864.3168	8252
866.7057	8228
869.098	8274
871.4876	8327
873.8746	8235
876.263	8270
878.6487	8384
881.0378	8257
883.4243	8249
885.8081	8204
888.1933	8313
890.5759	8299
892.9598	8309
895.343	8235
897.7256	8404
900.1057	8406
902.4871	8269
904.8659	8307
907.246	8371
909.6254	8348
912.0023	8383
914.3786	8445
916.7562	8643
919.1331	8606
921.5074	8627
923.8831	8653
926.2562	8690
928.6287	8638
931.0005	8672
933.3757	8689
935.7462	8689
938.1162	8759
940.4855	8821
942.8542	8779
945.2242	8862
947.5916	8955
949.9584	9071
952.3266	9373
954.6921	9650
957.0571	9854
959.4233	10117
961.787	10167
964.15	10403
966.5125	10117
968.8742	9877
971.2354	9369
973.5959	9258
975.9559	8927
978.3151	8940
980.6738	8727
983.0338	8694
985.3912	8655
987.7461	8555
990.1022	8603
992.4578	8521
994.8127	8607
997.1689	8591
999.5207	8689
1001.874	8621
1004.226	8584
1006.576	8665
1008.929	8804
1011.28	8548
1013.628	8471
1015.977	8595
1018.324	8420
1020.674	8591
1023.019	8760
1025.366	8641
1027.713	8695
1030.056	8739
1032.399	8601
1034.746	8771
1037.087	8621
1039.431	8828
1041.771	8741
1044.113	8735
1046.454	8801
1048.793	8822
1051.133	8655
1053.471	8907
1055.807	8812
1058.146	8764
1060.483	8834
1062.818	8732
1065.153	8827
1067.489	8868
1069.822	8915
1072.156	9012
1074.488	9008
1076.82	8821
1079.15	8813
1081.48	8848
1083.814	8801
1086.143	8952
1088.471	8806
1090.799	8811
1093.126	8899
1095.452	8703
1097.78	8872
1100.105	8870
1102.43	8858
1104.754	8712
1107.077	8767
1109.4	8793
1111.722	8807
1114.044	8841
1116.365	8808
1118.685	8789
1121.005	8817
1123.324	8898
1125.643	8887
1127.961	8843
1130.278	8924
1132.595	8837
1134.911	8822
1137.226	8708
1139.541	8870
1141.854	8781
1144.167	8722
1146.482	9002
1148.793	8785
1151.105	8920
1153.414	8811
1155.725	8867
1158.033	8859
1160.344	8941
1162.651	8826
1164.959	8912
1167.265	8927
1169.572	8800
1171.878	8944
1174.184	8920
1176.488	8914
1178.79	8738
1181.094	8957
1183.396	8864
1185.699	8912
1188.001	8805
1190.301	8794
1192.6	8952
1194.9	8870
1197.2	8847
1199.497	8889
1201.794	8962
1204.09	8873
1206.387	8905
1208.684	8950
1210.978	8914
1213.272	8894
1215.565	8773
1217.858	8787
1220.15	9000
1222.443	8902
1224.734	8837
1227.024	8995
1229.313	9071
1231.602	9004
1233.892	9056
1236.18	9163
1238.467	9210
1240.754	9087
1243.04	9119
1245.325	9325
1247.612	9172
1249.896	9232
1252.178	9346
1254.461	9223
1256.743	9334
1259.027	9215
1261.308	9194
1263.587	9101
1265.867	9335
1268.146	9132
1270.425	9105
1272.703	9231
1274.981	9263
1277.256	9240
1279.532	9268
1281.808	9250
1284.083	9307
1286.358	9106
1288.63	9182
1290.904	9184
1293.175	9137
1295.449	9121
1297.719	9205
1299.99	9048
1302.259	9068
1304.529	8931
1306.798	9102
1309.065	8975
1311.333	8967
1313.599	9024
1315.866	9085
1318.131	8854
1320.396	9116
1322.66	9174
1324.925	8995
1327.187	9057
1329.448	9056
1331.711	9086
1333.974	9174
1336.234	8881
1338.493	9167
1340.752	9156
1343.01	9139
1345.269	9178
1347.526	9133
1349.784	9198
1352.04	9053
1354.295	9004
1356.552	9156
1358.806	9075
1361.059	9118
1363.312	9087
1365.564	9004
1367.818	9200
1370.069	9113
1372.318	9132
1374.568	9046
1376.817	9335
1379.066	9088
1381.316	9221
1383.564	9213
1385.809	9216
1388.056	9192
1390.301	9186
1392.549	9157
1394.793	9313
1397.036	9278
1399.279	9319
1401.522	9406
1403.763	9473
1406.007	9371
1408.248	9268
1410.487	9355
1412.727	9414
1414.965	9391
1417.205	9414
1419.442	9358
1421.68	9224
1423.915	9393
1426.152	9310
1428.388	9488
1430.623	9463
1432.857	9493
1435.091	9469
1437.323	9351
1439.556	9355
1441.789	9505
1444.019	9669
1446.25	9539
1448.48	9537
1450.708	9488
1452.938	9619
1455.167	9622
1457.394	9675
1459.62	9585
1461.846	9652
1464.073	9431
1466.299	9639
1468.523	9334
1470.746	9472
1472.969	9343
1475.191	9341
1477.415	9307
1479.636	9345
1481.858	9258
1484.078	9256
1486.298	9273
1488.518	9182
1490.736	9012
1492.954	9070
1495.169	9079
1497.386	9227
1499.602	9043
1501.819	9311
1504.034	9094
1506.248	8988
1508.462	9091
1510.675	9129
1512.888	9143
1515.1	9132
1517.311	9155
1519.522	9161
1521.732	9075
1523.942	9021
1526.151	9212
1528.36	9050
1530.566	9177
1532.773	9097
1534.98	9241
1537.187	9216
1539.392	9190
1541.596	9214
1543.801	9228
1546.005	9138
1548.208	9210
1550.411	9162
1552.612	9313
1554.814	9398
1557.013	9165
1559.212	9230
1561.414	9299
1563.612	9257
1565.811	9194
1568.007	9390
1570.203	9265
1572.403	9320
1574.598	9344
1576.792	9419
1578.988	9385
1581.181	9443
1583.376	9426
1585.568	9350
1587.761	9555
1589.952	9399
1592.143	9530
1594.333	9447
1596.524	9432
1598.715	9523
1600.903	9393
1603.091	9437
1605.278	9492
1607.466	9549
1609.652	9446
1611.838	9534
1614.023	9403
1616.207	9415
1618.391	9376
1620.576	9384
1622.759	9529
1624.941	9640
1627.123	9430
1629.304	9527
1631.484	9662
1633.664	9577
1635.844	9480
1638.022	9534
1640.201	9547
1642.38	9484
1644.556	9538
1646.732	9544
1648.908	9538
1651.084	9660
1653.257	9515
1655.433	9716
1657.607	9547
1659.779	9750
1661.951	9604
1664.122	9654
1666.295	9631
1668.467	9449
1670.635	9677
1672.805	9745
1674.973	9526
1677.142	9625
1679.31	9552
1681.478	9632
1683.644	9598
1685.81	9653
1687.975	9502
1690.142	9633
1692.305	9465
1694.468	9615
1696.632	9453
1698.794	9499
1700.957	9480
1703.119	9437
1705.279	9341
1707.439	9438
1709.598	9482
1711.758	9635
1713.917	9373
1716.075	9477
1718.231	9450
1720.388	9350
1722.543	9458
1724.702	9392
1726.856	9427
1729.01	9421
1731.164	9293
1733.317	9343
1735.471	9428
1737.623	9373
1739.774	9333
1741.925	9384
1744.075	9302
1746.225	9546
1748.376	9221
1750.524	9504
1752.672	9443
1754.82	9428
1756.965	9456
1759.113	9472
1761.259	9474
1763.405	9343
1765.549	9507
1767.694	9488
1769.836	9418
1771.981	9478
1774.123	9577
1776.264	9565
1778.405	9521
1780.546	9509
1782.687	9368
1784.827	9479
1786.966	9582
1789.103	9425
1791.242	9586
1793.381	9428
1795.517	9506
1797.653	9525
1799.788	9553
1801.923	9563
1804.057	9628
1806.193	9434
1808.326	9502
1810.457	9393
1812.59	9540
1814.721	9565
1816.855	9497
1818.984	9485
1821.113	9432
1823.244	9498
1825.372	9520
1827.499	9327
1829.63	9429
1831.756	9408
1833.882	9524
1836.007	9490
1838.132	9379
1840.26	9436
1842.384	9419
1844.507	9464
1846.63	9457
1848.752	9528
1850.875	9346
1852.996	9352
1855.118	9383
1857.238	9394
1859.358	9435
1861.477	9436
1863.597	9391
1865.715	9368
1867.832	9384
1869.948	9311
1872.064	9395
1874.181	9510
1876.297	9416
1878.411	9299
1880.526	9342
1882.639	9425
1884.752	9412
1886.865	9427
1888.977	9463
1891.089	9526
1893.2	9535
1895.308	9313
1897.42	9431
1899.53	9462
1901.639	9454
1903.745	9456
1905.853	9527
1907.962	9428
1910.067	9424
1912.174	9556
1914.278	9562
1916.383	9401
1918.486	9558
1920.592	9464
1922.694	9426
1924.797	9404
1926.898	9508
1929	9699
1931.102	9512
1933.203	9534
1935.301	9528
1937.401	9531
1939.499	9532
1941.598	9562
1943.697	9561
1945.793	9598
1947.888	9463
1949.985	9591
1952.08	9527
1954.176	9564
1956.269	9461
1958.364	9484
1960.457	9712
1962.549	9535
1964.642	9414
1966.733	9531
1968.823	9514
1970.913	9518
1973.005	9567
1975.093	9481
1977.184	9588
1979.271	9502
1981.359	9437
1983.446	9334
1985.532	9526
1987.619	9434
1989.705	9431
1991.789	9480
1993.874	9380
1995.956	9365
1998.041	9440
2000.123	9441
2002.206	9535
2004.287	9412
2006.368	9380
2008.449	9332
2010.529	9516
2012.609	9450
2014.688	9364
2016.766	9390
2018.843	9422
2020.922	9419
2022.999	9439
2025.074	9399
2027.15	9344
2029.225	9383
2031.299	9436
2033.375	9288
2035.447	9476
2037.52	9379
2039.592	9325
2041.664	9439
2043.736	9477
2045.807	9291
2047.876	9468
2049.947	9273
2052.015	9375
2054.086	9450
2056.153	9282
2058.221	9419
2060.288	9400
2062.353	9527
2064.42	9308
2066.486	9536
2068.55	9346
2070.614	9336
2072.678	9472
2074.741	9336
2076.805	9461
2078.866	9501
2080.929	9286
2082.99	9459
2085.049	9550
2087.109	9410
2089.17	9413
2091.228	9308
2093.286	9402
2095.344	9362
2097.4	9383
2099.46	9374
2101.516	9367
2103.572	9425
2105.626	9474
2107.679	9316
2109.735	9391
2111.788	9354
2113.841	9393
2115.894	9454
2117.945	9393
2119.997	9273
2122.049	9418
2124.1	9273
2126.148	9435
2128.197	9402
2130.246	9395
2132.296	9374
2134.342	9497
2136.39	9319
2138.437	9383
2140.483	9308
2142.527	9299
2144.574	9341
2146.619	9465
2148.661	9327
2150.705	9140
2152.747	9126
2154.792	9225
2156.832	9337
2158.874	9293
2160.915	9356
2162.954	9272
2164.995	9190
2167.034	9191
2169.072	9204
2171.111	9382
2173.148	9284
2175.186	9252
2177.223	9158
2179.258	9241
2181.294	9359
2183.328	9301
2185.362	9133
2187.398	9254
2189.431	9111
2191.463	9133
2193.495	9183
2195.528	9166
2197.56	9107
2199.59	9055
2201.62	9129
2203.649	9175
2205.678	9217
2207.708	9015
2209.737	9293
2211.764	9049
2213.791	9016
2215.817	9105
2217.843	9143
2219.87	9195
2221.895	9110
2223.919	9228
2225.942	9090
2227.966	9120
2229.988	9124
2232.012	9062
2234.032	9295
2236.054	9106
2238.074	8978
2240.095	9030
2242.116	9089
2244.135	9123
2246.153	9057
2248.171	9170
2250.188	9059
2252.208	9048
2254.223	9101
2256.239	9177
2258.255	9021
2260.269	9230
2262.283	8978
2264.3	9000
2266.312	9123
2268.325	9060
2270.336	8903
2272.349	9143
2274.362	9272
2276.372	9163
2278.383	9106
2280.392	9059
2282.402	9020
2284.409	9162
2286.418	8972
2288.427	9100
2290.433	9041
2292.441	8917
2294.446	9070
2296.453	9096
2298.459	9117
2300.463	8912
2302.466	8909
2304.471	8906
2306.475	9040
2308.477	9055
2310.478	9004
2312.481	8947
2314.481	8889
2316.481	8983
2318.482	9017
2320.482	9001
2322.48	9027
2324.48	9009
2326.478	8829
2328.476	8891
2330.473	8990
2332.469	8919
2334.465	8977
2336.46	8835
2338.454	8995
2340.45	9007
2342.444	8879
2344.437	9017
2346.43	8839
2348.421	8877
2350.414	8941
2352.405	8913
2354.396	8829
2356.386	8919
2358.376	8795
2360.366	8791
2362.355	8745
2364.343	8718
2366.331	8815
2368.317	8892
2370.304	8669
2372.292	8775
2374.278	8751
2376.262	8907
2378.247	8739
2380.23	8669
2382.216	8850
2384.199	8630
2386.181	8780
2388.163	8648
2390.144	8626
2392.127	8837
2394.107	8540
2396.087	8709
2398.066	8661
2400.046	8697
2402.023	8691
2404.004	8693
2405.981	8657
2407.957	8715
2409.934	8792
2411.91	8706
2413.886	8620
2415.862	8614
2417.836	8696
2419.809	8738
2421.784	8623
2423.756	8778
2425.73	8605
2427.701	8665
2429.672	8667
2431.644	8674
2433.615	8617
2435.586	8688
2437.555	8715
2439.523	8607
2441.491	8660
2443.459	8717
2445.428	8623
2447.395	8698
2449.361	8605
2451.327	8503
2453.292	8630
2455.257	8607
2457.223	8514
2459.187	8639
2461.15	8696
2463.113	8469
2465.076	8464
2467.039	8624
2468.999	8608
2470.96	8571
2472.921	8446
2474.881	8678
2476.841	8481
2478.8	8580
2480.759	8634
2482.717	8419
2484.675	8459
2486.63	8373
2488.589	8499
2490.545	8504
2492.5	8496
2494.455	8600
2496.408	8385
2498.364	8385
2500.318	8505
2502.27	8595
2504.223	8490
2506.174	8551
2508.126	8536
2510.078	8398
2512.03	8566
2513.979	8479
2515.927	8396
2517.877	8544
2519.826	8477
2521.775	8537
2523.722	8491
2525.668	8400
2527.616	8494
2529.561	8449
2531.508	8497
2533.452	8498
2535.398	8411
2537.342	8354
2539.284	8352
2541.229	8569
2543.173	8426
2545.114	8458
2547.055	8425
2548.996	8401
2550.938	8337
2552.878	8425
2554.817	8441
2556.756	8377
2558.695	8392
2560.633	8373
2562.572	8337
2564.509	8519
2566.445	8434
2568.382	8442
2570.317	8393
2572.254	8299
2574.189	8440
2576.123	8205
2578.057	8447
2579.99	8431
2581.923	8455
2583.855	8352
2585.788	8385
2587.719	8404
2589.65	8377
2591.579	8240
2593.511	8444
2595.44	8284
2597.37	8406
2599.297	8521
2601.225	8271
2603.153	8404
2605.08	8430
2607.007	8357
2608.932	8379
2610.858	8356
2612.782	8402
2614.709	8427
2616.632	8407
2618.556	8422
2620.478	8451
2622.401	8434
2624.324	8481
2626.247	8465
2628.167	8312
2630.088	8420
2632.008	8527
2633.928	8455
2635.848	8441
2637.766	8372
2639.684	8361
2641.603	8352
2643.519	8417
2645.437	8413
2647.353	8360
2649.27	8432
2651.184	8406
2653.099	8229
2655.014	8536
2656.928	8344
2658.842	8371
2660.755	8512
2662.667	8285
2664.579	8168
2666.491	8423
2668.402	8273
2670.312	8378
2672.222	8332
2674.132	8401
2676.042	8157
2677.951	8260
2679.859	8271
2681.766	8382
2683.674	8220
2685.582	8364
2687.488	8194
2689.392	8283
2691.298	8365
2693.202	8338
2695.107	8220
2697.012	8162
2698.914	8312
2700.817	8163
2702.72	8219
2704.622	8340
2706.524	8316
2708.425	8157
2710.326	8240
2712.225	8228
2714.125	8048
2716.024	8256
2717.923	8270
2719.822	8186
2721.719	8172
2723.616	8190
2725.512	8210
2727.41	8143
2729.305	8036
2731.201	8089
2733.095	8119
2734.99	8175
2736.884	8064
2738.778	8063
2740.67	8109
2742.562	8140
2744.455	8195
2746.346	8178
2748.238	8127
2750.129	8083
2752.018	8183
2753.907	8175
2755.797	8035
2757.687	8131
2759.575	8170
2761.462	8117
2763.349	8033
2765.237	8134
2767.124	8095
2769.009	8062
2770.894	8109
2772.779	8197
2774.663	7985
2776.547	8146
2778.431	7879
2780.314	8025
2782.197	8158
2784.078	7921
2785.96	8143
2787.842	8220
2789.723	7940
2791.603	7987
2793.483	7996
2795.362	8020
2797.241	8056
2799.121	8102
2800.997	7934
2802.874	7794
2804.751	8036
2806.628	7967
2808.506	7928
2810.38	7921
2812.255	7917
2814.13	8026
2816.003	7952
2817.878	7956
2819.752	8013
2821.623	8024
2823.496	7824
2825.368	8030
2827.238	8012
2829.111	8033
2830.98	7944
2832.851	7999
2834.719	7946
2836.589	7937
2838.458	8053
2840.327	7822
2842.193	7967
2844.061	7883
2845.927	8029
2847.794	8001
2849.66	8077
2851.525	7962
2853.39	8054
2855.254	7955
2857.117	8062
2858.983	8012
2860.845	8133
2862.707	8125
2864.569	8102
2866.431	8056
2868.293	8144
2870.154	8196
2872.013	8313
2873.873	8195
2875.733	8295
2877.592	8447
2879.451	8457
2881.309	8392
2883.166	8558
2885.022	8539
2886.879	8523
2888.736	8414
2890.591	8461
2892.446	8456
2894.301	8540
2896.155	8642
2898.009	8536
2899.863	8418
2901.716	8577
2903.568	8483
2905.419	8451
2907.27	8410
2909.123	8476
2910.973	8522
2912.824	8571
2914.673	8645
2916.521	8495
2918.372	8611
2920.22	8814
2922.067	8726
2923.914	8717
2925.761	8789
2927.607	8907
2929.455	8844
2931.301	9026
2933.144	9108
2934.99	9121
2936.833	9158
2938.678	9257
2940.522	9098
2942.364	9288
2944.207	9356
2946.048	9318
2947.891	9465
2949.731	9437
2951.571	9317
2953.412	9329
2955.25	9144
2957.09	9213
2958.93	9144
2960.767	9223
2962.606	8843
2964.443	9062
2966.279	9018
2968.116	8848
2969.953	8740
2971.788	8877
2973.623	8592
2975.457	8482
2977.292	8627
2979.127	8638
2980.959	8546
2982.792	8392
2984.624	8359
2986.455	8445
2988.288	8450
2990.119	8194
2991.949	8215
2993.779	8390
2995.608	8279
2997.439	8197
2999.268	8178
3001.096	8000
3002.923	8092
3004.751	8026
3006.578	7972
3008.406	7826
3010.232	7863
3012.057	7805
3013.883	7753
3015.706	7836
3017.532	7645
3019.356	7710
3021.179	7536
3023.002	7719
3024.823	7397
3026.646	7560
3028.469	7710
3030.289	7483
3032.11	7492
3033.93	7498
3035.749	7472
3037.57	7439
3039.39	7391
3041.207	7536
3043.026	7537
3044.842	7468
3046.661	7440
3048.477	7458
3050.294	7434
3052.109	7382
3053.925	7483
3055.739	7431
3057.555	7402
3059.368	7413
3061.181	7413
3062.995	7382
3064.807	7517
3066.62	7422
3068.433	7471
3070.243	7438
3072.054	7342
3073.865	7266
3075.675	7283
3077.485	7309
3079.293	7317
3081.102	7220
3082.911	7315
3084.719	7318
3086.527	7157
3088.333	7313
3090.139	7221
3091.945	7273
3093.75	7267
3095.557	7293
3097.361	7146
3099.165	7275
3100.969	7261
3102.772	7152
3104.575	7137
3106.379	7217
3108.181	7122
3109.982	7159
3111.783	7112
3113.584	7156
3115.386	7104
3117.186	7156
3118.985	7167
3120.783	7087
3122.582	7117
3124.381	7140
3126.179	7092
3127.975	7115
3129.772	7071
3131.569	7001
3133.365	7061
3135.161	7030
3136.956	7057
3138.751	7038
3140.544	7080
3142.338	7046
3144.132	6900
3145.925	7058
3147.717	7025
3149.509	7066
3151.301	7113
3153.091	7038
3154.884	7044
3156.673	6894
3158.462	7047
3160.252	6951
3162.041	6934
3163.831	6943
3165.618	6859
3167.405	7039
3169.193	7081
3170.979	6844
3172.767	6988
3174.553	6931
3176.338	6913
3178.123	6797
3179.907	6918
3181.692	6770
3183.477	6768
3185.259	6887
3187.042	6811
3188.824	6868
3190.607	6891
3192.389	6952
3194.17	6797
3195.951	6928
3197.73	6840
3199.51	6729
3201.289	6768
3203.07	6842
3204.848	6912
3206.626	6851
3208.403	6856
3210.18	6823
3211.959	6831
3213.735	6817
3215.511	6799
3217.285	6803
3219.06	6812
3220.836	6833
3222.611	6773
3224.384	6769
3226.158	6824
3227.929	6865
3229.702	6791
3231.476	6826
3233.248	6715
3235.018	6845
3236.789	6737
3238.56	6703
3240.33	6692
3242.1	6821
3243.869	6767
3245.637	6882
3247.405	6678
3249.172	6844
3250.941	6686
3252.707	6760
3254.474	6749
3256.24	6754
3258.006	6721
3259.772	6727
3261.537	6714
3263.301	6810
3265.065	6771
3266.828	6870
3268.592	6757
3270.355	6747
3272.117	6743
3273.878	6808
3275.64	6795
3277.401	6736
3279.162	6780
3280.922	6763
3282.682	6839
3284.441	6693
3286.199	6638
3287.959	6822
3289.716	6782
3291.475	6769
3293.232	6690
3294.988	6813
3296.744	6709
3298.501	6734
3300.256	6696
3302.011	6772
3303.766	6692
3305.52	6739
3307.275	6678
3309.028	6699
3310.781	6823
3312.533	6787
3314.285	6709
3316.038	6738
3317.789	6714
3319.54	6688
3321.289	6785
3323.039	6637
3324.789	6662
3326.539	6611
3328.288	6583
3330.035	6699
3331.783	6690
3333.531	6622
3335.28	6521
3337.025	6695
3338.771	6687
3340.518	6617
3342.262	6687
3344.009	6556
3345.753	6638
3347.497	6654
3349.24	6691
3350.983	6606
3352.726	6652
3354.469	6569
3356.212	6414
3357.952	6526
3359.694	6553
3361.434	6541
3363.176	6555
3364.916	6625
3366.654	6479
3368.394	6483
3370.132	6529
3371.871	6432
3373.61	6519
3375.346	6478
3377.083	6476
3378.82	6568
3380.556	6502
3382.292	6420
3384.027	6410
3385.763	6487
3387.497	6295
3389.231	6433
3390.965	6504
3392.698	6493
3394.431	6412
3396.164	6476
3397.896	6458
3399.627	6417
3401.36	6462
3403.09	6374
3404.82	6391
3406.55	6352
3408.279	6434
3410.01	6455
3411.738	6366
3413.467	6308
3415.194	6444
3416.92	6359
3418.647	6468
3420.375	6267
3422.102	6470
3423.827	6293
3425.553	6380
3427.277	6334
3429.003	6304
3430.727	6377
3432.451	6371
3434.173	6397
3435.896	6301
3437.62	6277
3439.343	6226
3441.063	6209
3442.785	6174
3444.505	6350
3446.226	6280
3447.948	6223
3449.666	6132
3451.386	6161
3453.104	6173
3454.823	6190
3456.541	6184
3458.259	6063
3459.976	6123
3461.693	6194
3463.408	6022
3465.125	6150
3466.841	6123
3468.556	6175
3470.271	5993
3471.985	6107
3473.698	6069
3475.414	6019
3477.126	5999
3478.838	6166
3480.55	5990
3482.263	6095
3483.975	5981
3485.686	6033
3487.396	6067
3489.106	5997
3490.817	5961
3492.526	6150
3494.236	5974
3495.944	6046
3497.652	6038
3499.359	6015
3501.066	5953
3502.775	5887
3504.481	5849
3506.187	5928
3507.893	6061
3509.598	5998
3511.304	5913
3513.009	5825
3514.713	5869
3516.417	5898
3518.12	5870
3519.821	5868
3521.525	5793
3523.228	5852
3524.929	5932
3526.631	5841
3528.33	5763
3530.032	5758
3531.733	5841
3533.433	5908
3535.131	5844
3536.83	5799
3538.529	5773
3540.227	5871
3541.925	5834
3543.623	5823
3545.319	5814
3547.016	5757
3548.712	5773
3550.408	5669
3552.103	5752
3553.798	5653
3555.491	5677
3557.188	5690
3558.88	5777
3560.574	5756
3562.266	5773
3563.959	5684
3565.651	5669
3567.343	5696
3569.035	5701
3570.725	5672
3572.415	5677
3574.106	5641
3575.797	5581
3577.485	5651
3579.174	5608
3580.863	5722
3582.551	5597
3584.238	5645
3585.926	5641
3587.613	5726
3589.3	5603
3590.986	5573
3592.671	5607
3594.357	5604
3596.042	5592
3597.726	5545
3599.41	5526
3601.094	5461
3602.778	5434
3604.461	5568
3606.143	5442
3607.825	5498
3609.507	5495
3611.188	5519
3612.87	5446
3614.551	5522
3616.229	5441
3617.909	5396
3619.589	5467
3621.269	5413
3622.948	5353
3624.625	5412
3626.302	5500
3627.98	5370
3629.657	5313
3631.334	5427
3633.01	5295
3634.686	5401
3636.361	5360
3638.036	5314
3639.712	5295
3641.385	5363
3643.06	5383
3644.732	5239
3646.405	5303
3648.08	5384
3649.751	5381
3651.424	5205
3653.094	5377
3654.766	5228
3656.436	5245
3658.106	5309
3659.777	5257
3661.446	5316
3663.115	5176
3664.783	5293
3666.452	5308
3668.121	5269
3669.788	5236
3671.454	5122
3673.121	5197
3674.789	5253
3676.455	5177
3678.12	5199
3679.784	5287
3681.45	5141
3683.114	5144
3684.779	5184
3686.442	5153
3688.105	5163
3689.768	5137
3691.43	5125
3693.093	5172
3694.754	5121
3696.415	5104
3698.076	5067
3699.736	5170
3701.396	5163
3703.057	5095
3704.716	5132
3706.375	5199
3708.034	5147
3709.692	5088
3711.351	5154
3713.008	5116
3714.665	5011
3716.321	5120
3717.977	5093
3719.634	5094
3721.29	5017
3722.945	5065
3724.598	5060
3726.253	5081
3727.907	5106
3729.561	5115
3731.214	5052
3732.867	5095
3734.518	5022
3736.171	5037
3737.824	5077
3739.474	4959
3741.125	5017
3742.775	5125
3744.425	4992
3746.074	4987
3747.725	5021
3749.373	5002
3751.022	4988
3752.669	5045
3754.318	4990
3755.966	4975
3757.612	4932
3759.259	4972
3760.905	5007
3762.55	5000
3764.197	4973
3765.842	4979
3767.486	4989
3769.131	5000
3770.774	4935
3772.417	4920
3774.061	4898
3775.705	5036
3777.347	4871
3778.988	4857
3780.629	4889
3782.271	4829
3783.912	4902
3785.552	4807
3787.192	4872
3788.831	4796
3790.472	4759
3792.112	4789
3793.75	4908
3795.388	4825
3797.024	4832
3798.661	4834
3800.3	4850
3801.936	4894
3803.572	4924
3805.208	4822
3806.844	4870
3808.48	4723
3810.115	4870
3811.748	4775
3813.382	4770
3815.016	4788
3816.649	4750
3818.283	4797
3819.914	4824
3821.547	4706
3823.178	4790
3824.809	4772
3826.441	4705
3828.072	4721
3829.701	4745
3831.331	4782
3832.96	4864
3834.591	4641
3836.219	4654
3837.847	4711
3839.475	4613
3841.102	4746
3842.729	4678
3844.357	4760
3845.984	4642
3847.609	4677
3849.234	4667
3850.86	4771
3852.485	4712
3854.11	4595
3855.734	4561
3857.357	4676
3858.981	4596
3860.603	4725
3862.227	4642
3863.848	4644
3865.471	4530
3867.092	4541
3868.713	4598
3870.334	4678
3871.954	4689
3873.575	4604
3875.194	4569
3876.813	4582
3878.433	4557
3880.051	4618
3881.669	4557
3883.286	4597
3884.904	4524
3886.52	4538
3888.138	4545
3889.754	4492
3891.37	4663
3892.985	4654
3894.6	4456
3896.216	4556
3897.831	4616
3899.444	4614
3901.058	4512
3902.67	4501
3904.283	4545
3905.897	4519
3907.509	4528
3909.121	4484
3910.731	4530
3912.342	4641
3913.954	4520
3915.563	4441
3917.174	4518
3918.783	4492
3920.391	4510
3922.002	4531
3923.611	4562
3925.218	4488
3926.826	4553
3928.432	4498
3930.039	4501
3931.647	4459
3933.253	4398
3934.859	4471
3936.464	4378
3938.068	4456
3939.675	4437
3941.278	4468
3942.883	4498
3944.486	4493
3946.089	4426
3947.692	4427
3949.295	4499
3950.898	4446
3952.499	4397
3954.1	4411
3955.7	4418
3957.303	4436
3958.903	4391
3960.502	4376
3962.101	4366
3963.7	4357
3965.301	4386
3966.899	4410
3968.497	4407
3970.094	4430
3971.691	4377
3973.288	4454
3974.885	4366
3976.481	4343
3978.077	4363
3979.672	4377
3981.267	4336
3982.863	4303
3984.457	4246
3986.051	4296
3987.645	4402
3989.238	4265
3990.831	4378
3992.425	4279
3994.017	4324
3995.607	4259
3997.199	4195
3998.79	4245
4000.382	4186
4001.973	4197
4003.561	4179
4005.151	4251
4006.741	4173
4008.331	4220
4009.918	4209
4011.507	4266
4013.095	4132
4014.681	4207
4016.269	4156
4017.856	4213
4019.443	4217
4021.028	4277
4022.614	4183
4024.199	4214
4025.785	4166
4027.37	4103
4028.953	4110
4030.536	4123
4032.12	4147
4033.704	4080
4035.287	4104
4036.869	4080
4038.45	4104
4040.032	4138
4041.613	4095
4043.195	4115
4044.776	4048
4046.356	4168
4047.935	4104
4049.515	4064
4051.095	4097
4052.674	4026
4054.251	4103
4055.829	4080
4057.406	3971
4058.985	4064
4060.562	4057
4062.139	4109
4063.715	4035
4065.29	4098
4066.865	4076
4068.442	4081
4070.016	4035
4071.59	3934
4073.164	3970
4074.738	4003
4076.312	4057
4077.885	3933
4079.458	4046
4081.03	4075
4082.602	3997
4084.173	3996
4085.745	3976
4087.315	3936
4088.886	3999
4090.456	3941
4092.026	3944
4093.596	3942
4095.165	3950
4096.734	4001
4098.301	3913
4099.869	3963
4101.437	3932
4103.006	3944
4104.572	3971
4106.139	3852
4107.704	3956
4109.27	3881
4110.837	4036
4112.401	3954
4113.966	3936
4115.53	3846
4117.094	3923
4118.659	3903
4120.223	3893
4121.785	3891
4123.347	3928
4124.909	3897
4126.471	3842
4128.034	3851
4129.595	3829
4131.155	3797
4132.716	3797
4134.275	3915
4135.836	3717
4137.395	3820
4138.955	3784
4140.513	3840
4142.071	3854
4143.628	3886
4145.188	3815
4146.745	3863
4148.302	3794
4149.858	3854
4151.414	3784
4152.971	3767
4154.526	3775
4156.081	3788
4157.635	3716
4159.189	3740
4160.745	3721
4162.298	3748
4163.852	3796
4165.405	3813
4166.957	3758
4168.51	3718
4170.063	3729
4171.614	3674
4173.166	3752
4174.717	3705
4176.267	3771
4177.817	3723
4179.368	3650
4180.917	3748
4182.466	3690
4184.016	3712
4185.564	3663
4187.112	3665
4188.66	3734
4190.207	3606
4191.754	3740
4193.301	3685
4194.848	3694
4196.394	3586
4197.94	3634
4199.484	3559
4201.03	3671
4202.575	3639
4204.12	3592
4205.663	3641
4207.207	3605
4208.75	3637
4210.292	3554
4211.836	3632
4213.378	3625
4214.92	3564
4216.46	3640
4218.002	3566
4219.544	3600
4221.083	3540
4222.625	3615
4224.164	3585
4225.703	3613
4227.244	3636
4228.782	3510
4230.32	3576
4231.857	3486
4233.395	3564
4234.933	3618
4236.471	3532
4238.007	3498
4239.542	3491
4241.078	3554
4242.614	3621
4244.15	3605
4245.685	3518
4247.219	3543
4248.753	3576
4250.287	3513
4251.82	3533
4253.354	3490
4254.887	3492
4256.419	3478
4257.951	3549
4259.483	3465
4261.016	3484
4262.547	3462
4264.078	3522
4265.608	3364
4267.137	3563
4268.668	3482
4270.197	3414
4271.727	3587
4273.254	3527
4274.783	3558
4276.311	3425
4277.84	3457
4279.366	3505
4280.894	3454
4282.42	3446
4283.946	3403
4285.473	3430
4286.998	3453
4288.523	3496
4290.047	3423
4291.572	3466
4293.096	3438
4294.622	3507
4296.144	3389
4297.668	3390
4299.19	3459
4300.713	3394
4302.236	3368
4303.758	3422
4305.279	3439
4306.799	3472
4308.321	3307
4309.842	3408
4311.361	3365
4312.882	3373
4314.401	3365
