400.0961	4198
402.6185	4301
405.1424	4277
407.6635	4304
410.1838	4317
412.7035	4302
415.2225	4299
417.7388	4309
420.2585	4341
422.7754	4399
425.2917	4457
427.8072	4469
430.3221	4495
432.8363	4630
435.3498	4603
437.8626	4613
440.3727	4515
442.8841	4582
445.3969	4517
447.907	4569
450.4142	4508
452.9229	4569
455.4289	4458
457.9362	4551
460.4449	4473
462.9488	4462
465.454	4554
467.9566	4514
470.4604	4512
472.9637	4567
475.4662	4564
477.966	4523
480.4671	4496
482.9656	4573
485.4633	4577
487.9645	4556
490.4608	4642
492.9566	4641
495.4536	4563
497.948	4673
500.4437	4630
502.9387	4637
505.431	4684
507.9226	4655
510.4136	4666
512.9079	4681
515.3975	4689
517.8864	4630
520.3746	4689
522.8622	4659
525.3491	4702
527.8394	4700
530.3249	4713
532.8098	4792
535.2939	4739
537.7774	4815
540.2623	4681
542.7444	4736
545.2259	4667
547.7067	4843
550.1868	4750
552.6683	4809
555.147	4784
557.6231	4707
560.1005	4739
562.5773	4738
565.0534	4750
567.5308	4848
570.0056	4781
572.4776	4882
574.951	4918
577.4237	4815
579.8978	4904
582.3671	4949
584.8378	4930
587.3079	4924
589.7773	4962
592.244	4908
594.714	4899
597.1793	4972
599.6461	4919
602.1121	4941
604.5754	4841
607.0421	4888
609.5042	4895
611.9675	4823
614.4282	4977
616.8902	4854
619.3515	4882
621.8122	4862
624.2702	4995
626.7296	4873
629.1863	4782
631.6423	4834
634.1017	4877
636.5563	4891
639.0104	4854
641.4658	4855
643.9185	4968
646.3725	4864
648.8239	4826
651.2766	4921
653.7266	4989
656.176	4956
658.6247	4950
661.0748	4926
663.5242	5021
665.9709	4906
668.417	5000
670.8624	4988
673.3092	5059
675.7533	4975
678.1968	4990
680.6395	5037
683.0817	5029
685.5251	5108
687.9659	5052
690.4061	5163
692.8456	5081
695.2844	5084
697.7226	4948
700.1621	5069
702.599	5060
705.0332	5104
707.4688	5105
709.9036	5059
712.3399	5070
714.7735	5231
717.2044	5080
719.6367	5241
722.0683	5160
724.4993	5157
726.9296	5242
729.3593	5224
731.7883	5274
734.2147	5311
736.6423	5193
739.0714	5235
741.4958	5285
743.9216	5342
746.3447	5253
748.7691	5261
751.1929	5394
753.616	5271
756.0366	5275
758.4584	5375
760.8776	5251
763.2982	5466
765.718	5451
768.1373	5454
770.5539	5380
772.9698	5366
775.3871	5408
777.8038	5431
780.2178	5488
782.6332	5398
785.0459	5387
787.458	5448
789.8714	5451
792.2842	5324
794.6943	5337
797.1038	5510
799.5127	5481
801.9209	5470
804.3324	5427
806.7393	5531
809.1456	5447
811.5513	5475
813.9562	5500
816.3625	5569
818.7663	5593
821.1693	5453
823.5718	5481
825.9735	5461
828.3746	5404
830.7771	5504
833.177	5509
835.5762	5488
837.9747	5526
840.3727	5492
842.772	5543
845.1666	5598
847.5626	5598
849.958	5647
852.3527	5781
854.7488	5720
857.1403	5683
859.5331	5691
861.9253	5606
864.3168	5636
866.7057	5708
869.098	5620
871.4876	5608
873.8746	5704
876.263	5634
878.6487	5778
881.0378	5672
883.4243	5635
885.8081	5567
888.1933	5628
890.5759	5654
892.9598	5515
895.343	5667
897.7256	5624
900.1057	5619
902.4871	5687
904.8659	5613
907.246	5596
909.6254	5857
912.0023	5756
914.3786	5763
916.7562	5866
919.1331	5939
921.5074	5984
923.8831	5968
926.2562	6119
928.6287	5970
931.0005	6059
933.3757	5925
935.7462	6026
938.1162	5959
940.4855	6193
942.8542	6183
945.2242	6225
947.5916	6259
949.9584	6368
952.3266	6469
954.6921	6740
957.0571	6971
959.4233	7091
961.787	7292
964.15	7261
966.5125	7196
968.8742	6937
971.2354	6671
973.5959	6348
975.9559	6278
978.3151	6133
980.6738	6058
983.0338	5989
985.3912	6023
987.7461	5816
990.1022	5919
992.4578	5837
994.8127	5861
997.1689	5884
999.5207	5894
1001.874	5859
1004.226	6035
1006.576	5939
1008.929	5959
1011.28	5874
1013.628	5806
1015.977	5840
1018.324	5898
1020.674	5773
1023.019	5938
1025.366	5925
1027.713	5882
1030.056	5884
1032.399	5955
1034.746	5942
1037.087	5981
1039.431	6001
1041.771	6000
1044.113	5934
1046.454	6052
1048.793	5986
1051.133	6015
1053.471	5969
1055.807	6012
1058.146	6054
1060.483	6024
1062.818	5930
1065.153	6150
1067.489	6094
1069.822	6136
1072.156	6135
1074.488	6029
1076.82	6094
1079.15	6118
1081.48	6096
1083.814	6128
1086.143	5983
1088.471	6065
1090.799	6054
1093.126	5944
1095.452	5914
1097.78	5982
1100.105	6175
1102.43	5960
1104.754	5913
1107.077	5992
1109.4	6067
1111.722	6096
1114.044	6035
1116.365	5917
1118.685	5987
1121.005	6135
1123.324	5942
1125.643	6002
1127.961	6008
1130.278	5967
1132.595	6006
1134.911	6056
1137.226	5940
1139.541	5882
1141.854	6076
1144.167	5998
1146.482	6035
1148.793	5937
1151.105	5981
1153.414	5982
1155.725	6138
1158.033	6071
1160.344	6074
1162.651	6115
1164.959	6041
1167.265	6025
1169.572	5959
1171.878	6101
1174.184	6108
1176.488	6213
1178.79	6001
1181.094	6077
1183.396	6119
1185.699	5914
1188.001	6070
1190.301	6030
1192.6	6060
1194.9	6016
1197.2	5976
1199.497	5933
1201.794	6046
1204.09	5956
1206.387	6119
1208.684	5964
1210.978	5996
1213.272	6121
1215.565	6092
1217.858	6141
1220.15	6062
1222.443	6157
1224.734	6115
1227.024	6132
1229.313	6110
1231.602	6270
1233.892	6240
1236.18	6307
1238.467	6349
1240.754	6216
1243.04	6229
1245.325	6302
1247.612	6359
1249.896	6329
1252.178	6346
1254.461	6396
1256.743	6303
1259.027	6342
1261.308	6281
1263.587	6307
1265.867	6382
1268.146	6372
1270.425	6453
1272.703	6398
1274.981	6359
1277.256	6400
1279.532	6332
1281.808	6282
1284.083	6306
1286.358	6310
1288.63	6249
1290.904	6237
1293.175	6263
1295.449	6210
1297.719	6171
1299.99	6153
1302.259	6199
1304.529	6151
1306.798	6311
1309.065	6192
1311.333	6204
1313.599	6080
1315.866	6293
1318.131	6239
1320.396	6251
1322.66	6295
1324.925	6266
1327.187	6316
1329.448	6315
1331.711	6306
1333.974	6339
1336.234	6170
1338.493	6445
1340.752	6310
1343.01	6185
1345.269	6249
1347.526	6201
1349.784	6187
1352.04	6159
1354.295	6176
1356.552	6221
1358.806	6220
1361.059	6281
1363.312	6257
1365.564	6150
1367.818	6250
1370.069	6271
1372.318	6188
1374.568	6223
1376.817	6334
1379.066	6243
1381.316	6261
1383.564	6162
1385.809	6296
1388.056	6212
1390.301	6453
1392.549	6349
1394.793	6508
1397.036	6440
1399.279	6492
1401.522	6432
1403.763	6590
1406.007	6527
1408.248	6551
1410.487	6546
1412.727	6648
1414.965	6616
1417.205	6566
1419.442	6511
1421.68	6522
1423.915	6402
1426.152	6527
1428.388	6383
1430.623	6510
1432.857	6646
1435.091	6522
1437.323	6515
1439.556	6517
1441.789	6560
1444.019	6660
1446.25	6646
1448.48	6649
1450.708	6649
1452.938	6592
1455.167	6571
1457.394	6681
1459.62	6696
1461.846	6677
1464.073	6730
1466.299	6576
1468.523	6374
1470.746	6545
1472.969	6610
1475.191	6440
1477.415	6319
1479.636	6391
1481.858	6321
1484.078	6320
1486.298	6304
1488.518	6226
1490.736	6296
1492.954	6315
1495.169	6247
1497.386	6268
1499.602	6323
1501.819	6174
1504.034	6219
1506.248	6219
1508.462	6230
1510.675	6155
1512.888	6181
1515.1	6266
1517.311	6278
1519.522	6170
1521.732	6160
1523.942	6229
1526.151	6231
1528.36	6151
1530.566	6243
1532.773	6283
1534.98	6220
1537.187	6183
1539.392	6219
1541.596	6205
1543.801	6231
1546.005	6321
1548.208	6300
1550.411	6272
1552.612	6285
1554.814	6227
1557.013	6360
1559.212	6324
1561.414	6289
1563.612	6318
1565.811	6381
1568.007	6379
1570.203	6348
1572.403	6366
1574.598	6506
1576.792	6403
1578.988	6479
1581.181	6382
1583.376	6365
1585.568	6405
1587.761	6341
1589.952	6405
1592.143	6428
1594.333	6330
1596.524	6291
1598.715	6433
1600.903	6453
1603.091	6430
1605.278	6549
1607.466	6472
1609.652	6424
1611.838	6471
1614.023	6428
1616.207	6473
1618.391	6486
1620.576	6427
1622.759	6532
1624.941	6541
1627.123	6440
1629.304	6538
1631.484	6541
1633.664	6568
1635.844	6581
1638.022	6562
1640.201	6553
1642.38	6648
1644.556	6525
1646.732	6495
1648.908	6557
1651.084	6614
1653.257	6540
1655.433	6621
1657.607	6629
1659.779	6589
1661.951	6666
1664.122	6664
1666.295	6663
1668.467	6600
1670.635	6707
1672.805	6662
1674.973	6631
1677.142	6673
1679.31	6654
1681.478	6565
1683.644	6595
1685.81	6643
1687.975	6678
1690.142	6639
1692.305	6694
1694.468	6534
1696.632	6646
1698.794	6584
1700.957	6452
1703.119	6512
1705.279	6479
1707.439	6564
1709.598	6486
1711.758	6397
1713.917	6423
1716.075	6452
1718.231	6396
1720.388	6545
1722.543	6445
1724.702	6401
1726.856	6350
1729.01	6461
1731.164	6356
1733.317	6414
1735.471	6517
1737.623	6353
1739.774	6378
1741.925	6427
1744.075	6506
1746.225	6426
1748.376	6393
1750.524	6477
1752.672	6399
1754.82	6534
1756.965	6474
1759.113	6448
1761.259	6368
1763.405	6475
1765.549	6456
1767.694	6489
1769.836	6484
1771.981	6442
1774.123	6490
1776.264	6517
1778.405	6539
1780.546	6505
1782.687	6484
1784.827	6372
1786.966	6475
1789.103	6459
1791.242	6402
1793.381	6619
1795.517	6501
1797.653	6388
1799.788	6526
1801.923	6589
1804.057	6490
1806.193	6498
1808.326	6497
1810.457	6592
1812.59	6477
1814.721	6521
1816.855	6467
1818.984	6456
1821.113	6465
1823.244	6439
1825.372	6578
1827.499	6523
1829.63	6409
1831.756	6397
1833.882	6420
1836.007	6399
1838.132	6439
1840.26	6498
1842.384	6504
1844.507	6399
1846.63	6523
1848.752	6512
1850.875	6426
1852.996	6410
1855.118	6347
1857.238	6317
1859.358	6428
1861.477	6471
1863.597	6316
1865.715	6444
1867.832	6381
1869.948	6419
1872.064	6412
1874.181	6407
1876.297	6421
1878.411	6471
1880.526	6562
1882.639	6568
1884.752	6291
1886.865	6391
1888.977	6413
1891.089	6586
1893.2	6329
1895.308	6360
1897.42	6407
1899.53	6483
1901.639	6603
1903.745	6531
1905.853	6462
1907.962	6499
1910.067	6502
1912.174	6458
1914.278	6577
1916.383	6548
1918.486	6490
1920.592	6556
1922.694	6457
1924.797	6556
1926.898	6554
1929	6491
1931.102	6584
1933.203	6552
1935.301	6638
1937.401	6498
1939.499	6505
1941.598	6544
1943.697	6496
1945.793	6341
1947.888	6619
1949.985	6674
1952.08	6465
1954.176	6551
1956.269	6547
1958.364	6543
1960.457	6564
1962.549	6526
1964.642	6541
1966.733	6539
1968.823	6622
1970.913	6478
1973.005	6489
1975.093	6664
1977.184	6516
1979.271	6354
1981.359	6499
1983.446	6446
1985.532	6531
1987.619	6478
1989.705	6424
1991.789	6476
1993.874	6540
1995.956	6576
1998.041	6373
2000.123	6474
2002.206	6483
2004.287	6412
2006.368	6387
2008.449	6374
2010.529	6440
2012.609	6448
2014.688	6551
2016.766	6428
2018.843	6338
2020.922	6525
2022.999	6531
2025.074	6379
2027.15	6550
2029.225	6364
2031.299	6437
2033.375	6389
2035.447	6480
2037.52	6481
2039.592	6475
2041.664	6555
2043.736	6504
2045.807	6476
2047.876	6584
2049.947	6418
2052.015	6570
2054.086	6386
2056.153	6410
2058.221	6406
2060.288	6450
2062.353	6507
2064.42	6358
2066.486	6510
2068.55	6527
2070.614	6401
2072.678	6517
2074.741	6441
2076.805	6465
2078.866	6464
2080.929	6495
2082.99	6401
2085.049	6418
2087.109	6533
2089.17	6431
2091.228	6433
2093.286	6520
2095.344	6493
2097.4	6523
2099.46	6432
2101.516	6509
2103.572	6496
2105.626	6370
2107.679	6467
2109.735	6416
2111.788	6385
2113.841	6405
2115.894	6427
2117.945	6433
2119.997	6392
2122.049	6456
2124.1	6496
2126.148	6479
2128.197	6512
2130.246	6316
2132.296	6481
2134.342	6519
2136.39	6365
2138.437	6447
2140.483	6404
2142.527	6429
2144.574	6328
2146.619	6401
2148.661	6351
2150.705	6328
2152.747	6474
2154.792	6453
2156.832	6459
2158.874	6328
2160.915	6347
2162.954	6358
2164.995	6262
2167.034	6343
2169.072	6369
2171.111	6404
2173.148	6379
2175.186	6436
2177.223	6483
2179.258	6337
2181.294	6493
2183.328	6356
2185.362	6286
2187.398	6400
2189.431	6272
2191.463	6339
2193.495	6363
2195.528	6265
2197.56	6345
2199.59	6412
2201.62	6255
2203.649	6254
2205.678	6290
2207.708	6245
2209.737	6236
2211.764	6233
2213.791	6284
2215.817	6219
2217.843	6201
2219.87	6321
2221.895	6240
2223.919	6209
2225.942	6221
2227.966	6277
2229.988	6291
2232.012	6368
2234.032	6227
2236.054	6344
2238.074	6275
2240.095	6215
2242.116	6238
2244.135	6242
2246.153	6233
2248.171	6275
2250.188	6314
2252.208	6280
2254.223	6232
2256.239	6232
2258.255	6248
2260.269	6326
2262.283	6340
2264.3	6256
2266.312	6121
2268.325	6226
2270.336	6183
2272.349	6326
2274.362	6236
2276.372	6299
2278.383	6275
2280.392	6206
2282.402	6171
2284.409	6243
2286.418	6219
2288.427	6236
2290.433	6173
2292.441	6180
2294.446	6236
2296.453	6164
2298.459	6310
2300.463	6227
2302.466	6322
2304.471	6336
2306.475	6260
2308.477	6181
2310.478	6267
2312.481	6280
2314.481	6176
2316.481	6288
2318.482	6209
2320.482	6154
2322.48	6254
2324.48	6195
2326.478	6259
2328.476	6061
2330.473	6222
2332.469	6079
2334.465	6116
2336.46	6190
2338.454	6197
2340.45	6185
2342.444	6137
2344.437	6139
2346.43	6185
2348.421	6115
2350.414	6028
2352.405	6065
2354.396	6141
2356.386	6161
2358.376	6123
2360.366	6014
2362.355	6063
2364.343	6076
2366.331	6184
2368.317	6197
2370.304	6232
2372.292	6041
2374.278	6040
2376.262	6213
2378.247	6094
2380.23	6014
2382.216	6200
2384.199	6026
2386.181	6029
2388.163	6151
2390.144	6001
2392.127	6058
2394.107	5880
2396.087	6054
2398.066	5989
2400.046	6093
2402.023	6070
2404.004	6080
2405.981	6033
2407.957	6021
2409.934	5955
2411.91	5966
2413.886	6074
2415.862	5948
2417.836	6047
2419.809	6059
2421.784	5914
2423.756	6005
2425.73	6066
2427.701	6032
2429.672	6011
2431.644	6188
2433.615	5972
2435.586	5886
2437.555	6030
2439.523	6042
2441.491	5913
2443.459	5897
2445.428	5932
2447.395	5911
2449.361	5978
2451.327	6061
2453.292	5935
2455.257	6027
2457.223	5956
2459.187	5940
2461.15	5981
2463.113	5881
2465.076	5959
2467.039	5959
2468.999	5901
2470.96	5839
2472.921	5886
2474.881	6017
2476.841	5935
2478.8	5984
2480.759	5993
2482.717	5845
2484.675	5984
2486.63	5864
2488.589	5920
2490.545	5950
2492.5	5934
2494.455	5955
2496.408	5962
2498.364	5794
2500.318	5993
2502.27	5979
2504.223	5979
2506.174	6019
2508.126	5933
2510.078	5838
2512.03	5738
2513.979	5985
2515.927	5931
2517.877	5936
2519.826	5881
2521.775	5856
2523.722	5970
2525.668	5985
2527.616	5867
2529.561	5854
2531.508	5931
2533.452	5904
2535.398	5887
2537.342	5930
2539.284	5780
2541.229	5837
2543.173	5890
2545.114	5931
2547.055	5774
2548.996	5756
2550.938	5926
2552.878	5887
2554.817	5850
2556.756	5934
2558.695	5978
2560.633	5831
2562.572	5825
2564.509	5931
2566.445	5958
2568.382	5825
2570.317	5779
2572.254	5785
2574.189	5869
2576.123	5861
2578.057	5938
2579.99	5767
2581.923	5789
2583.855	5927
2585.788	5817
2587.719	5867
2589.65	5928
2591.579	5881
2593.511	5853
2595.44	5776
2597.37	5765
2599.297	5966
2601.225	5834
2603.153	5916
2605.08	5858
2607.007	5859
2608.932	5919
2610.858	5811
2612.782	5771
2614.709	5800
2616.632	5915
2618.556	5848
2620.478	5879
2622.401	5860
2624.324	5760
2626.247	5925
2628.167	5801
2630.088	5891
2632.008	5976
2633.928	5812
2635.848	5966
2637.766	5909
2639.684	5802
2641.603	5813
2643.519	5883
2645.437	5874
2647.353	5836
2649.27	5804
2651.184	5848
2653.099	5868
2655.014	5850
2656.928	5850
2658.842	5859
2660.755	5858
2662.667	5902
2664.579	5885
2666.491	5858
2668.402	5832
2670.312	5856
2672.222	5899
2674.132	5789
2676.042	5736
2677.951	5872
2679.859	5779
2681.766	5698
2683.674	5939
2685.582	5802
2687.488	5784
2689.392	5721
2691.298	5830
2693.202	5746
2695.107	5842
2697.012	5827
2698.914	5828
2700.817	5823
2702.72	5751
2704.622	5759
2706.524	5770
2708.425	5628
2710.326	5818
2712.225	5715
2714.125	5866
2716.024	5686
2717.923	5712
2719.822	5711
2721.719	5782
2723.616	5757
2725.512	5738
2727.41	5700
2729.305	5735
2731.201	5808
2733.095	5808
2734.99	5766
2736.884	5806
2738.778	5756
2740.67	5703
2742.562	5792
2744.455	5696
2746.346	5654
2748.238	5798
2750.129	5718
2752.018	5722
2753.907	5742
2755.797	5747
2757.687	5655
2759.575	5818
2761.462	5763
2763.349	5723
2765.237	5658
2767.124	5618
2769.009	5732
2770.894	5689
2772.779	5700
2774.663	5762
2776.547	5748
2778.431	5720
2780.314	5674
2782.197	5679
2784.078	5691
2785.96	5752
2787.842	5593
2789.723	5588
2791.603	5729
2793.483	5692
2795.362	5636
2797.241	5641
2799.121	5632
2800.997	5784
2802.874	5596
2804.751	5664
2806.628	5582
2808.506	5679
2810.38	5671
2812.255	5675
2814.13	5537
2816.003	5588
2817.878	5672
2819.752	5725
2821.623	5707
2823.496	5642
2825.368	5687
2827.238	5573
2829.111	5609
2830.98	5688
2832.851	5606
2834.719	5676
2836.589	5717
2838.458	5650
2840.327	5585
2842.193	5659
2844.061	5649
2845.927	5585
2847.794	5751
2849.66	5815
2851.525	5679
2853.39	5712
2855.254	5853
2857.117	5852
2858.983	5920
2860.845	5835
2862.707	5866
2864.569	5789
2866.431	5942
2868.293	5953
2870.154	5939
2872.013	6014
2873.873	6079
2875.733	6184
2877.592	6213
2879.451	6228
2881.309	6167
2883.166	6383
2885.022	6422
2886.879	6390
2888.736	6442
2890.591	6471
2892.446	6435
2894.301	6355
2896.155	6440
2898.009	6413
2899.863	6390
2901.716	6369
2903.568	6331
2905.419	6343
2907.27	6281
2909.123	6326
2910.973	6443
2912.824	6457
2914.673	6572
2916.521	6506
2918.372	6598
2920.22	6618
2922.067	6582
2923.914	6860
2925.761	6942
2927.607	6830
2929.455	6808
2931.301	7054
2933.144	6926
2934.99	6907
2936.833	7111
2938.678	7188
2940.522	7210
2942.364	7365
2944.207	7417
2946.048	7413
2947.891	7445
2949.731	7496
2951.571	7487
2953.412	7540
2955.25	7266
2957.09	7433
2958.93	7261
2960.767	7251
2962.606	7029
2964.443	7090
2966.279	7128
2968.116	7045
2969.953	6650
2971.788	6752
2973.623	6637
2975.457	6570
2977.292	6562
2979.127	6428
2980.959	6445
2982.792	6358
2984.624	6337
2986.455	6461
2988.288	6330
2990.119	6281
2991.949	6138
2993.779	6112
2995.608	6133
2997.439	6140
2999.268	5995
3001.096	5921
3002.923	5911
3004.751	5900
3006.578	5926
3008.406	5793
3010.232	5742
3012.057	5791
3013.883	5633
3015.706	5666
3017.532	5650
3019.356	5647
3021.179	5547
3023.002	5594
3024.823	5497
3026.646	5375
3028.469	5531
3030.289	5499
3032.11	5567
3033.93	5396
3035.749	5522
3037.57	5397
3039.39	5393
3041.207	5427
3043.026	5389
3044.842	5375
3046.661	5389
3048.477	5465
3050.294	5326
3052.109	5217
3053.925	5306
3055.739	5359
3057.555	5439
3059.368	5385
3061.181	5396
3062.995	5369
3064.807	5440
3066.62	5319
3068.433	5350
3070.243	5441
3072.054	5320
3073.865	5248
3075.675	5306
3077.485	5243
3079.293	5279
3081.102	5391
3082.911	5293
3084.719	5232
3086.527	5229
3088.333	5122
3090.139	5321
3091.945	5198
3093.75	5251
3095.557	5288
3097.361	5249
3099.165	5090
3100.969	5233
3102.772	5136
3104.575	5220
3106.379	5200
3108.181	5216
3109.982	5149
3111.783	5204
3113.584	5057
3115.386	5153
3117.186	5112
3118.985	5179
3120.783	5112
3122.582	5158
3124.381	5049
3126.179	5190
3127.975	5196
3129.772	5095
3131.569	5159
3133.365	5086
3135.161	5108
3136.956	5107
3138.751	5134
3140.544	5034
3142.338	5091
3144.132	5051
3145.925	5164
3147.717	5074
3149.509	5068
3151.301	5155
3153.091	5071
3154.884	5009
3156.673	5107
3158.462	5068
3160.252	5203
3162.041	4989
3163.831	5100
3165.618	5099
3167.405	5070
3169.193	5020
3170.979	5029
3172.767	5088
3174.553	5080
3176.338	4960
3178.123	5164
3179.907	4956
3181.692	5054
3183.477	5003
3185.259	5011
3187.042	5047
3188.824	4980
3190.607	4950
3192.389	5031
3194.17	4993
3195.951	4975
3197.73	4989
3199.51	4981
3201.289	5132
3203.07	4977
3204.848	5020
3206.626	5000
3208.403	4961
3210.18	4930
3211.959	4970
3213.735	4974
3215.511	4968
3217.285	5059
3219.06	5055
3220.836	4967
3222.611	4942
3224.384	4978
3226.158	5009
3227.929	5020
3229.702	5171
3231.476	4963
3233.248	4984
3235.018	4926
3236.789	4999
3238.56	4981
3240.33	5005
3242.1	4987
3243.869	5018
3245.637	5037
3247.405	4944
3249.172	4997
3250.941	4915
3252.707	5035
3254.474	4984
3256.24	4884
3258.006	4941
3259.772	4978
3261.537	4939
3263.301	5021
3265.065	4968
3266.828	5003
3268.592	4866
3270.355	4957
3272.117	5001
3273.878	4933
3275.64	4949
3277.401	5006
3279.162	5043
3280.922	4856
3282.682	4895
3284.441	4972
3286.199	4883
3287.959	4988
3289.716	4934
3291.475	5008
3293.232	4929
3294.988	4992
3296.744	4957
3298.501	4949
3300.256	5020
3302.011	5011
3303.766	5002
3305.52	4929
3307.275	4931
3309.028	4923
3310.781	5005
3312.533	4890
3314.285	4890
3316.038	5007
3317.789	4927
3319.54	4953
3321.289	4917
3323.039	5025
3324.789	4984
3326.539	4891
3328.288	5026
3330.035	5049
3331.783	4917
3333.531	4968
3335.28	4937
3337.025	4939
3338.771	4829
3340.518	4943
3342.262	4853
3344.009	4891
3345.753	4946
3347.497	4892
3349.24	4888
3350.983	4879
3352.726	4965
3354.469	4835
3356.212	4898
3357.952	4934
3359.694	4754
3361.434	4866
3363.176	4780
3364.916	4888
3366.654	4878
3368.394	4927
3370.132	4876
3371.871	4833
3373.61	4860
3375.346	4834
3377.083	4853
3378.82	4903
3380.556	4915
3382.292	4734
3384.027	4831
3385.763	4744
3387.497	4861
3389.231	4823
3390.965	4620
3392.698	4798
3394.431	4757
3396.164	4718
3397.896	4790
3399.627	4700
3401.36	4708
3403.09	4754
3404.82	4751
3406.55	4784
3408.279	4682
3410.01	4771
3411.738	4807
3413.467	4701
3415.194	4668
3416.92	4681
3418.647	4643
3420.375	4692
3422.102	4624
3423.827	4621
3425.553	4691
3427.277	4704
3429.003	4693
3430.727	4748
3432.451	4641
3434.173	4611
3435.896	4776
3437.62	4603
3439.343	4654
3441.063	4555
3442.785	4712
3444.505	4553
3446.226	4548
3447.948	4625
3449.666	4548
3451.386	4612
3453.104	4643
3454.823	4534
3456.541	4534
3458.259	4488
3459.976	4579
3461.693	4497
3463.408	4604
3465.125	4650
3466.841	4609
3468.556	4547
3470.271	4564
3471.985	4535
3473.698	4426
3475.414	4460
3477.126	4387
3478.838	4476
3480.55	4473
3482.263	4453
3483.975	4419
3485.686	4504
3487.396	4410
3489.106	4377
3490.817	4416
3492.526	4397
3494.236	4436
3495.944	4415
3497.652	4357
3499.359	4426
3501.066	4342
3502.775	4317
3504.481	4363
3506.187	4348
3507.893	4314
3509.598	4349
3511.304	4342
3513.009	4447
3514.713	4359
3516.417	4406
3518.12	4277
3519.821	4340
3521.525	4352
3523.228	4354
3524.929	4299
3526.631	4287
3528.33	4284
3530.032	4291
3531.733	4255
3533.433	4182
3535.131	4279
3536.83	4298
3538.529	4286
3540.227	4320
3541.925	4272
3543.623	4235
3545.319	4224
3547.016	4196
3548.712	4206
3550.408	4197
3552.103	4175
3553.798	4187
3555.491	4168
3557.188	4179
3558.88	4324
3560.574	4118
3562.266	4198
3563.959	4151
3565.651	4148
3567.343	4127
3569.035	4206
3570.725	4101
3572.415	4171
3574.106	4167
3575.797	4147
3577.485	4157
3579.174	4261
3580.863	4162
3582.551	4055
3584.238	4113
3585.926	4057
3587.613	4087
3589.3	4125
3590.986	4139
3592.671	4085
3594.357	4097
3596.042	3999
3597.726	3979
3599.41	4050
3601.094	4047
3602.778	3989
3604.461	4020
3606.143	3971
3607.825	3947
3609.507	4079
3611.188	4027
3612.87	4001
3614.551	4037
3616.229	3899
3617.909	4011
3619.589	3910
3621.269	3972
3622.948	3892
3624.625	3908
3626.302	3960
3627.98	3924
3629.657	3934
3631.334	3908
3633.01	3930
3634.686	4000
3636.361	3869
3638.036	3852
3639.712	3813
3641.385	4022
3643.06	3904
3644.732	3919
3646.405	3891
3648.08	3863
3649.751	3865
3651.424	3834
3653.094	3802
3654.766	3870
3656.436	3774
3658.106	3880
3659.777	3827
3661.446	3824
3663.115	3738
3664.783	3798
3666.452	3736
3668.121	3820
3669.788	3831
3671.454	3820
3673.121	3787
3674.789	3656
3676.455	3796
3678.12	3798
3679.784	3693
3681.45	3742
3683.114	3858
3684.779	3828
3686.442	3690
3688.105	3779
3689.768	3729
3691.43	3706
3693.093	3653
3694.754	3754
3696.415	3750
3698.076	3757
3699.736	3758
3701.396	3779
3703.057	3687
3704.716	3737
3706.375	3816
3708.034	3780
3709.692	3648
3711.351	3771
3713.008	3851
3714.665	3775
3716.321	3653
3717.977	3698
3719.634	3611
3721.29	3700
3722.945	3753
3724.598	3732
3726.253	3704
3727.907	3675
3729.561	3626
3731.214	3759
3732.867	3647
3734.518	3613
3736.171	3729
3737.824	3698
3739.474	3714
3741.125	3552
3742.775	3699
3744.425	3726
3746.074	3608
3747.725	3686
3749.373	3618
3751.022	3725
3752.669	3741
3754.318	3606
3755.966	3595
3757.612	3566
3759.259	3559
3760.905	3614
3762.55	3662
3764.197	3644
3765.842	3557
3767.486	3682
3769.131	3628
3770.774	3614
3772.417	3567
3774.061	3595
3775.705	3563
3777.347	3614
3778.988	3535
3780.629	3610
3782.271	3527
3783.912	3557
3785.552	3515
3787.192	3557
3788.831	3557
3790.472	3520
3792.112	3628
3793.75	3559
3795.388	3542
3797.024	3495
3798.661	3630
3800.3	3430
3801.936	3520
3803.572	3533
3805.208	3485
3806.844	3468
3808.48	3519
3810.115	3528
3811.748	3493
3813.382	3489
3815.016	3450
3816.649	3481
3818.283	3472
3819.914	3437
3821.547	3388
3823.178	3412
3824.809	3488
3826.441	3468
3828.072	3453
3829.701	3402
3831.331	3400
3832.96	3463
3834.591	3404
3836.219	3455
3837.847	3463
3839.475	3429
3841.102	3379
3842.729	3438
3844.357	3361
3845.984	3407
3847.609	3395
3849.234	3380
3850.86	3482
3852.485	3444
3854.11	3418
3855.734	3403
3857.357	3383
3858.981	3407
3860.603	3451
3862.227	3377
3863.848	3372
3865.471	3420
3867.092	3363
3868.713	3402
3870.334	3377
3871.954	3366
3873.575	3374
3875.194	3397
3876.813	3371
3878.433	3346
3880.051	3423
3881.669	3363
3883.286	3343
3884.904	3339
3886.52	3380
3888.138	3334
3889.754	3331
3891.37	3417
3892.985	3372
3894.6	3367
3896.216	3395
3897.831	3374
3899.444	3300
3901.058	3340
3902.67	3322
3904.283	3297
3905.897	3357
3907.509	3325
3909.121	3310
3910.731	3315
3912.342	3383
3913.954	3236
3915.563	3277
3917.174	3322
3918.783	3271
3920.391	3277
3922.002	3295
3923.611	3243
3925.218	3345
3926.826	3259
3928.432	3315
3930.039	3218
3931.647	3265
3933.253	3264
3934.859	3362
3936.464	3260
3938.068	3302
3939.675	3180
3941.278	3239
3942.883	3303
3944.486	3277
3946.089	3230
3947.692	3340
3949.295	3306
3950.898	3286
3952.499	3245
3954.1	3321
3955.7	3166
3957.303	3210
3958.903	3205
3960.502	3304
3962.101	3270
3963.7	3229
3965.301	3169
3966.899	3245
3968.497	3222
3970.094	3214
3971.691	3252
3973.288	3221
3974.885	3257
3976.481	3160
3978.077	3200
3979.672	3139
3981.267	3166
3982.863	3233
3984.457	3227
3986.051	3169
3987.645	3109
3989.238	3161
3990.831	3228
3992.425	3154
3994.017	3162
3995.607	3160
3997.199	3156
3998.79	3132
4000.382	3174
4001.973	3032
4003.561	3131
4005.151	3177
4006.741	3126
4008.331	3086
4009.918	3045
4011.507	3077
4013.095	3113
4014.681	3060
4016.269	3126
4017.856	3064
4019.443	2993
4021.028	3084
4022.614	3107
4024.199	3041
4025.785	3034
4027.37	2994
4028.953	3046
4030.536	2983
4032.12	3091
4033.704	3012
4035.287	3054
4036.869	3058
4038.45	3038
4040.032	3055
4041.613	3002
4043.195	2956
4044.776	3084
4046.356	3006
4047.935	2962
4049.515	3006
4051.095	2980
4052.674	2997
4054.251	3068
4055.829	3019
4057.406	3031
4058.985	3009
4060.562	3017
4062.139	2964
4063.715	2957
4065.29	2985
4066.865	2977
4068.442	2921
4070.016	2990
4071.59	3019
4073.164	2949
4074.738	3049
4076.312	2966
4077.885	2986
4079.458	2968
4081.03	2982
4082.602	3006
4084.173	2949
4085.745	2969
4087.315	2983
4088.886	2942
4090.456	2855
4092.026	3001
4093.596	2931
4095.165	2876
4096.734	2929
4098.301	2963
4099.869	2875
4101.437	2977
4103.006	2944
4104.572	2889
4106.139	2949
4107.704	2978
4109.27	2938
4110.837	2868
4112.401	2896
4113.966	2902
4115.53	2911
4117.094	2896
4118.659	2881
4120.223	2878
4121.785	2895
4123.347	2924
4124.909	2853
4126.471	2824
4128.034	2890
4129.595	2883
4131.155	2937
4132.716	2897
4134.275	2806
4135.836	2826
4137.395	2927
4138.955	2802
4140.513	2892
4142.071	2854
4143.628	2893
4145.188	2804
4146.745	2762
4148.302	2816
4149.858	2799
4151.414	2822
4152.971	2736
4154.526	2714
4156.081	2837
4157.635	2825
4159.189	2786
4160.745	2801
4162.298	2787
4163.852	2776
4165.405	2786
4166.957	2779
4168.51	2777
4170.063	2780
4171.614	2754
4173.166	2751
4174.717	2732
4176.267	2808
4177.817	2720
4179.368	2760
4180.917	2729
4182.466	2779
4184.016	2738
4185.564	2702
4187.112	2730
4188.66	2715
4190.207	2738
4191.754	2669
4193.301	2751
4194.848	2776
4196.394	2705
4197.94	2749
4199.484	2652
4201.03	2741
4202.575	2666
4204.12	2652
4205.663	2708
4207.207	2726
4208.75	2725
4210.292	2669
4211.836	2652
4213.378	2617
4214.92	2687
4216.46	2721
4218.002	2727
4219.544	2690
4221.083	2725
4222.625	2660
4224.164	2651
4225.703	2599
4227.244	2740
4228.782	2713
4230.32	2685
4231.857	2597
4233.395	2663
4234.933	2628
4236.471	2607
4238.007	2633
4239.542	2660
4241.078	2684
4242.614	2614
4244.15	2660
4245.685	2635
4247.219	2667
4248.753	2602
4250.287	2654
4251.82	2719
4253.354	2630
4254.887	2591
4256.419	2585
4257.951	2605
4259.483	2614
4261.016	2669
4262.547	2602
4264.078	2626
4265.608	2578
4267.137	2595
4268.668	2615
4270.197	2647
4271.727	2615
4273.254	2581
4274.783	2611
4276.311	2631
4277.84	2600
4279.366	2589
4280.894	2565
4282.42	2506
4283.946	2608
4285.473	2576
4286.998	2607
4288.523	2575
4290.047	2574
4291.572	2537
4293.096	2510
4294.622	2569
4296.144	2445
4297.668	2570
4299.19	2551
4300.713	2563
4302.236	2565
4303.758	2522
4305.279	2489
4306.799	2536
4308.321	2569
4309.842	2558
4311.361	2464
4312.882	2506
4314.401	2532
