400.0961	4708
402.6185	4741
405.1424	4683
407.6635	4716
410.1838	4747
412.7035	4697
415.2225	4918
417.7388	4790
420.2585	4912
422.7754	4909
425.2917	4967
427.8072	4986
430.3221	5112
432.8363	5027
435.3498	5112
437.8626	5033
440.3727	5048
442.8841	5095
445.3969	5109
447.907	5118
450.4142	5164
452.9229	4994
455.4289	5078
457.9362	4989
460.4449	5029
462.9488	4911
465.454	5009
467.9566	5078
470.4604	4977
472.9637	4931
475.4662	5025
477.966	5052
480.4671	4908
482.9656	4979
485.4633	5080
487.9645	5091
490.4608	5136
492.9566	5077
495.4536	5130
497.948	5157
500.4437	5130
502.9387	5164
505.431	5217
507.9226	5175
510.4136	5171
512.9079	5207
515.3975	5234
517.8864	5231
520.3746	5248
522.8622	5148
525.3491	5223
527.8394	5231
530.3249	5211
532.8098	5185
535.2939	5174
537.7774	5233
540.2623	5260
542.7444	5116
545.2259	5160
547.7067	5325
550.1868	5269
552.6683	5318
555.147	5267
557.6231	5280
560.1005	5243
562.5773	5348
565.0534	5314
567.5308	5432
570.0056	5318
572.4776	5400
574.951	5330
577.4237	5476
579.8978	5471
582.3671	5493
584.8378	5429
587.3079	5531
589.7773	5607
592.244	5541
594.714	5522
597.1793	5559
599.6461	5390
602.1121	5564
604.5754	5368
607.0421	5449
609.5042	5403
611.9675	5449
614.4282	5351
616.8902	5424
619.3515	5396
621.8122	5517
624.2702	5388
626.7296	5328
629.1863	5310
631.6423	5478
634.1017	5373
636.5563	5508
639.0104	5346
641.4658	5395
643.9185	5405
646.3725	5436
648.8239	5432
651.2766	5419
653.7266	5437
656.176	5476
658.6247	5551
661.0748	5520
663.5242	5415
665.9709	5537
668.417	5507
670.8624	5518
673.3092	5557
675.7533	5553
678.1968	5643
680.6395	5583
683.0817	5580
685.5251	5742
687.9659	5648
690.4061	5668
692.8456	5650
695.2844	5670
697.7226	5591
700.1621	5631
702.599	5681
705.0332	5629
707.4688	5605
709.9036	5712
712.3399	5720
714.7735	5769
717.2044	5756
719.6367	5729
722.0683	5675
724.4993	5710
726.9296	5865
729.3593	5741
731.7883	5853
734.2147	5897
736.6423	5819
739.0714	5774
741.4958	5889
743.9216	5825
746.3447	5855
748.7691	5928
751.1929	5972
753.616	5999
756.0366	5961
758.4584	5914
760.8776	5930
763.2982	5986
765.718	6007
768.1373	6032
770.5539	5989
772.9698	5969
775.3871	5987
777.8038	5973
780.2178	6044
782.6332	5948
785.0459	5982
787.458	6154
789.8714	6195
792.2842	6055
794.6943	6068
797.1038	6139
799.5127	6052
801.9209	6067
804.3324	6132
806.7393	6181
809.1456	6126
811.5513	6109
813.9562	6109
816.3625	6097
818.7663	6084
821.1693	6045
823.5718	6119
825.9735	6166
828.3746	6128
830.7771	6140
833.177	6143
835.5762	6093
837.9747	6140
840.3727	6199
842.772	6141
845.1666	6351
847.5626	6188
849.958	6386
852.3527	6375
854.7488	6323
857.1403	6318
859.5331	6368
861.9253	6345
864.3168	6360
866.7057	6313
869.098	6371
871.4876	6264
873.8746	6193
876.263	6282
878.6487	6270
881.0378	6240
883.4243	6222
885.8081	6324
888.1933	6243
890.5759	6353
892.9598	6305
895.343	6169
897.7256	6449
900.1057	6213
902.4871	6185
904.8659	6422
907.246	6333
909.6254	6342
912.0023	6367
914.3786	6418
916.7562	6597
919.1331	6570
921.5074	6599
923.8831	6541
926.2562	6529
928.6287	6583
931.0005	6544
933.3757	6675
935.7462	6750
938.1162	6687
940.4855	6778
942.8542	6835
945.2242	6881
947.5916	6980
949.9584	7185
952.3266	7503
954.6921	7663
957.0571	7877
959.4233	8213
961.787	8354
964.15	8285
966.5125	8167
968.8742	7727
971.2354	7517
973.5959	7326
975.9559	6878
978.3151	6871
980.6738	6641
983.0338	6638
985.3912	6614
987.7461	6611
990.1022	6581
992.4578	6559
994.8127	6551
997.1689	6492
999.5207	6567
1001.874	6596
1004.226	6822
1006.576	6580
1008.929	6718
1011.28	6605
1013.628	6603
1015.977	6575
1018.324	6582
1020.674	6592
1023.019	6580
1025.366	6635
1027.713	6595
1030.056	6763
1032.399	6781
1034.746	6642
1037.087	6669
1039.431	6560
1041.771	6633
1044.113	6730
1046.454	6729
1048.793	6731
1051.133	6683
1053.471	6649
1055.807	6686
1058.146	6653
1060.483	6722
1062.818	6727
1065.153	6854
1067.489	6850
1069.822	6844
1072.156	6906
1074.488	6871
1076.82	6843
1079.15	6674
1081.48	6930
1083.814	6866
1086.143	6771
1088.471	6788
1090.799	6746
1093.126	6659
1095.452	6776
1097.78	6599
1100.105	6764
1102.43	6851
1104.754	6632
1107.077	6640
1109.4	6700
1111.722	6795
1114.044	6693
1116.365	6828
1118.685	6696
1121.005	6724
1123.324	6775
1125.643	6834
1127.961	6793
1130.278	6798
1132.595	6754
1134.911	6783
1137.226	6690
1139.541	6727
1141.854	6786
1144.167	6789
1146.482	6707
1148.793	6758
1151.105	6784
1153.414	6663
1155.725	6751
1158.033	6833
1160.344	6671
1162.651	6865
1164.959	6758
1167.265	6764
1169.572	6791
1171.878	6714
1174.184	6840
1176.488	6792
1178.79	6730
1181.094	6801
1183.396	6726
1185.699	6735
1188.001	6765
1190.301	6751
1192.6	6788
1194.9	6866
1197.2	6752
1199.497	6801
1201.794	6781
1204.09	6679
1206.387	6808
1208.684	6736
1210.978	6760
1213.272	6867
1215.565	6816
1217.858	6978
1220.15	6905
1222.443	6878
1224.734	6906
1227.024	6947
1229.313	6868
1231.602	6996
1233.892	6990
1236.18	7141
1238.467	7115
1240.754	7037
1243.04	7059
1245.325	7071
1247.612	6971
1249.896	7147
1252.178	7153
1254.461	7078
1256.743	7223
1259.027	7098
1261.308	7176
1263.587	7075
1265.867	7108
1268.146	7066
1270.425	7224
1272.703	7088
1274.981	7058
1277.256	7215
1279.532	7100
1281.808	7047
1284.083	7077
1286.358	7034
1288.63	6954
1290.904	6999
1293.175	7044
1295.449	7092
1297.719	6960
1299.99	6886
1302.259	6984
1304.529	6899
1306.798	6901
1309.065	7019
1311.333	6993
1313.599	6945
1315.866	6917
1318.131	6978
1320.396	7080
1322.66	7035
1324.925	7093
1327.187	7132
1329.448	7014
1331.711	6987
1333.974	7037
1336.234	7038
1338.493	6944
1340.752	7071
1343.01	6931
1345.269	7033
1347.526	6978
1349.784	6973
1352.04	6963
1354.295	6940
1356.552	7032
1358.806	7008
1361.059	7042
1363.312	7098
1365.564	6997
1367.818	6969
1370.069	7065
1372.318	6932
1374.568	7035
1376.817	7214
1379.066	6975
1381.316	7107
1383.564	7089
1385.809	7253
1388.056	7126
1390.301	7092
1392.549	7274
1394.793	7225
1397.036	7244
1399.279	7219
1401.522	7263
1403.763	7196
1406.007	7265
1408.248	7375
1410.487	7180
1412.727	7404
1414.965	7201
1417.205	7351
1419.442	7289
1421.68	7302
1423.915	7297
1426.152	7230
1428.388	7295
1430.623	7252
1432.857	7297
1435.091	7438
1437.323	7314
1439.556	7363
1441.789	7395
1444.019	7434
1446.25	7406
1448.48	7421
1450.708	7497
1452.938	7545
1455.167	7442
1457.394	7441
1459.62	7395
1461.846	7335
1464.073	7401
1466.299	7394
1468.523	7400
1470.746	7314
1472.969	7211
1475.191	7240
1477.415	7227
1479.636	7169
1481.858	7220
1484.078	7105
1486.298	7250
1488.518	7188
1490.736	7212
1492.954	7027
1495.169	7069
1497.386	7032
1499.602	7156
1501.819	7000
1504.034	7061
1506.248	7100
1508.462	6949
1510.675	7096
1512.888	7057
1515.1	7020
1517.311	7063
1519.522	7079
1521.732	7109
1523.942	7038
1526.151	7152
1528.36	6917
1530.566	6930
1532.773	7020
1534.98	6995
1537.187	7120
1539.392	7077
1541.596	7088
1543.801	7110
1546.005	7128
1548.208	7106
1550.411	7105
1552.612	7127
1554.814	7050
1557.013	7067
1559.212	7224
1561.414	7234
1563.612	7184
1565.811	7127
1568.007	7255
1570.203	7244
1572.403	7202
1574.598	7344
1576.792	7304
1578.988	7227
1581.181	7260
1583.376	7408
1585.568	7294
1587.761	7340
1589.952	7244
1592.143	7341
1594.333	7297
1596.524	7402
1598.715	7239
1600.903	7207
1603.091	7396
1605.278	7303
1607.466	7317
1609.652	7396
1611.838	7344
1614.023	7451
1616.207	7371
1618.391	7325
1620.576	7308
1622.759	7257
1624.941	7374
1627.123	7329
1629.304	7435
1631.484	7410
1633.664	7434
1635.844	7562
1638.022	7408
1640.201	7467
1642.38	7453
1644.556	7499
1646.732	7508
1648.908	7335
1651.084	7445
1653.257	7349
1655.433	7534
1657.607	7462
1659.779	7495
1661.951	7413
1664.122	7426
1666.295	7544
1668.467	7469
1670.635	7536
1672.805	7604
1674.973	7597
1677.142	7514
1679.31	7547
1681.478	7494
1683.644	7482
1685.81	7453
1687.975	7440
1690.142	7539
1692.305	7415
1694.468	7515
1696.632	7369
1698.794	7493
1700.957	7382
1703.119	7380
1705.279	7443
1707.439	7304
1709.598	7451
1711.758	7281
1713.917	7430
1716.075	7291
1718.231	7363
1720.388	7236
1722.543	7292
1724.702	7250
1726.856	7230
1729.01	7329
1731.164	7372
1733.317	7329
1735.471	7252
1737.623	7265
1739.774	7428
1741.925	7356
1744.075	7089
1746.225	7335
1748.376	7348
1750.524	7380
1752.672	7280
1754.82	7426
1756.965	7252
1759.113	7376
1761.259	7311
1763.405	7373
1765.549	7481
1767.694	7380
1769.836	7362
1771.981	7442
1774.123	7383
1776.264	7356
1778.405	7423
1780.546	7335
1782.687	7354
1784.827	7350
1786.966	7471
1789.103	7424
1791.242	7314
1793.381	7386
1795.517	7479
1797.653	7311
1799.788	7440
1801.923	7388
1804.057	7451
1806.193	7393
1808.326	7411
1810.457	7238
1812.59	7355
1814.721	7358
1816.855	7463
1818.984	7396
1821.113	7318
1823.244	7287
1825.372	7462
1827.499	7498
1829.63	7334
1831.756	7461
1833.882	7366
1836.007	7352
1838.132	7361
1840.26	7337
1842.384	7275
1844.507	7390
1846.63	7333
1848.752	7187
1850.875	7274
1852.996	7385
1855.118	7202
1857.238	7238
1859.358	7186
1861.477	7360
1863.597	7465
1865.715	7378
1867.832	7295
1869.948	7290
1872.064	7200
1874.181	7352
1876.297	7344
1878.411	7397
1880.526	7250
1882.639	7323
1884.752	7317
1886.865	7322
1888.977	7400
1891.089	7359
1893.2	7298
1895.308	7315
1897.42	7369
1899.53	7381
1901.639	7474
1903.745	7320
1905.853	7459
1907.962	7345
1910.067	7537
1912.174	7442
1914.278	7470
1916.383	7372
1918.486	7634
1920.592	7540
1922.694	7504
1924.797	7500
1926.898	7381
1929	7598
1931.102	7523
1933.203	7354
1935.301	7507
1937.401	7532
1939.499	7460
1941.598	7509
1943.697	7542
1945.793	7529
1947.888	7381
1949.985	7507
1952.08	7462
1954.176	7576
1956.269	7600
1958.364	7473
1960.457	7345
1962.549	7475
1964.642	7499
1966.733	7509
1968.823	7483
1970.913	7477
1973.005	7437
1975.093	7454
1977.184	7484
1979.271	7448
1981.359	7399
1983.446	7380
1985.532	7493
1987.619	7481
1989.705	7433
1991.789	7501
1993.874	7419
1995.956	7349
1998.041	7339
2000.123	7482
2002.206	7453
2004.287	7414
2006.368	7446
2008.449	7452
2010.529	7402
2012.609	7398
2014.688	7243
2016.766	7464
2018.843	7456
2020.922	7393
2022.999	7439
2025.074	7398
2027.15	7473
2029.225	7342
2031.299	7475
2033.375	7361
2035.447	7507
2037.52	7345
2039.592	7442
2041.664	7335
2043.736	7375
2045.807	7467
2047.876	7341
2049.947	7377
2052.015	7398
2054.086	7269
2056.153	7395
2058.221	7383
2060.288	7441
2062.353	7411
2064.42	7379
2066.486	7386
2068.55	7506
2070.614	7437
2072.678	7435
2074.741	7510
2076.805	7365
2078.866	7452
2080.929	7486
2082.99	7444
2085.049	7384
2087.109	7482
2089.17	7450
2091.228	7386
2093.286	7389
2095.344	7468
2097.4	7391
2099.46	7362
2101.516	7406
2103.572	7446
2105.626	7412
2107.679	7445
2109.735	7457
2111.788	7456
2113.841	7377
2115.894	7528
2117.945	7397
2119.997	7501
2122.049	7388
2124.1	7414
2126.148	7424
2128.197	7453
2130.246	7478
2132.296	7360
2134.342	7457
2136.39	7424
2138.437	7449
2140.483	7414
2142.527	7310
2144.574	7461
2146.619	7371
2148.661	7396
2150.705	7293
2152.747	7375
2154.792	7327
2156.832	7380
2158.874	7490
2160.915	7408
2162.954	7304
2164.995	7443
2167.034	7437
2169.072	7447
2171.111	7305
2173.148	7316
2175.186	7391
2177.223	7275
2179.258	7427
2181.294	7289
2183.328	7348
2185.362	7293
2187.398	7232
2189.431	7364
2191.463	7339
2193.495	7439
2195.528	7305
2197.56	7256
2199.59	7263
2201.62	7416
2203.649	7220
2205.678	7315
2207.708	7328
2209.737	7315
2211.764	7347
2213.791	7265
2215.817	7283
2217.843	7310
2219.87	7291
2221.895	7199
2223.919	7297
2225.942	7361
2227.966	7288
2229.988	7196
2232.012	7311
2234.032	7151
2236.054	7262
2238.074	7112
2240.095	7200
2242.116	7201
2244.135	7414
2246.153	7219
2248.171	7093
2250.188	7226
2252.208	7108
2254.223	7242
2256.239	7256
2258.255	7257
2260.269	7260
2262.283	7313
2264.3	7237
2266.312	7326
2268.325	7273
2270.336	7274
2272.349	7278
2274.362	7184
2276.372	7238
2278.383	7212
2280.392	7295
2282.402	7183
2284.409	7247
2286.418	7145
2288.427	7265
2290.433	7289
2292.441	7276
2294.446	7238
2296.453	7363
2298.459	7197
2300.463	7187
2302.466	7345
2304.471	7108
2306.475	7310
2308.477	7272
2310.478	7248
2312.481	7220
2314.481	7160
2316.481	7290
2318.482	7249
2320.482	7195
2322.48	7249
2324.48	7162
2326.478	7108
2328.476	7233
2330.473	7161
2332.469	7048
2334.465	7209
2336.46	7130
2338.454	7185
2340.45	7285
2342.444	7082
2344.437	7123
2346.43	7162
2348.421	7006
2350.414	7157
2352.405	7214
2354.396	7067
2356.386	7044
2358.376	7020
2360.366	7175
2362.355	7055
2364.343	7246
2366.331	7128
2368.317	7024
2370.304	7078
2372.292	7093
2374.278	7069
2376.262	7004
2378.247	7073
2380.23	7079
2382.216	7158
2384.199	6972
2386.181	7176
2388.163	6959
2390.144	7101
2392.127	6983
2394.107	7051
2396.087	7142
2398.066	7063
2400.046	7009
2402.023	7051
2404.004	7060
2405.981	7022
2407.957	6956
2409.934	6988
2411.91	7036
2413.886	7130
2415.862	7003
2417.836	6934
2419.809	7065
2421.784	7022
2423.756	7009
2425.73	7039
2427.701	6915
2429.672	7022
2431.644	7047
2433.615	6957
2435.586	6933
2437.555	7170
2439.523	6973
2441.491	7087
2443.459	7018
2445.428	7012
2447.395	6859
2449.361	6984
2451.327	6951
2453.292	6916
2455.257	6970
2457.223	7035
2459.187	6951
2461.15	6956
2463.113	6957
2465.076	6935
2467.039	7002
2468.999	7074
2470.96	6906
2472.921	6873
2474.881	6940
2476.841	6938
2478.8	6901
2480.759	6898
2482.717	6889
2484.675	6969
2486.63	6912
2488.589	6940
2490.545	6910
2492.5	6990
2494.455	6889
2496.408	6800
2498.364	6938
2500.318	6952
2502.27	6824
2504.223	6881
2506.174	6842
2508.126	6885
2510.078	6830
2512.03	6878
2513.979	6897
2515.927	6758
2517.877	7083
2519.826	6918
2521.775	6820
2523.722	6812
2525.668	6956
2527.616	6860
2529.561	6920
2531.508	6856
2533.452	6977
2535.398	6853
2537.342	6906
2539.284	6920
2541.229	6947
2543.173	6851
2545.114	6838
2547.055	6809
2548.996	6801
2550.938	6995
2552.878	6852
2554.817	6835
2556.756	6782
2558.695	6988
2560.633	6834
2562.572	6931
2564.509	6905
2566.445	6875
2568.382	6860
2570.317	6848
2572.254	6876
2574.189	6994
2576.123	6904
2578.057	6876
2579.99	6850
2581.923	6860
2583.855	6885
2585.788	6891
2587.719	6741
2589.65	6926
2591.579	6755
2593.511	6892
2595.44	6918
2597.37	6938
2599.297	6891
2601.225	6940
2603.153	6896
2605.08	6846
2607.007	6906
2608.932	6844
2610.858	6986
2612.782	6865
2614.709	6958
2616.632	6756
2618.556	6813
2620.478	6902
2622.401	6877
2624.324	6985
2626.247	6817
2628.167	6942
2630.088	6954
2632.008	6879
2633.928	6987
2635.848	6984
2637.766	6890
2639.684	6842
2641.603	6946
2643.519	6934
2645.437	6845
2647.353	6866
2649.27	6869
2651.184	6849
2653.099	6899
2655.014	6850
2656.928	6994
2658.842	6893
2660.755	6960
2662.667	6923
2664.579	6907
2666.491	7000
2668.402	6813
2670.312	6832
2672.222	6845
2674.132	6958
2676.042	6842
2677.951	6915
2679.859	6918
2681.766	6833
2683.674	6802
2685.582	6849
2687.488	6794
2689.392	6793
2691.298	6869
2693.202	6860
2695.107	6813
2697.012	6746
2698.914	6740
2700.817	6818
2702.72	6809
2704.622	6742
2706.524	6820
2708.425	6747
2710.326	6797
2712.225	6771
2714.125	6697
2716.024	6700
2717.923	6820
2719.822	6677
2721.719	6659
2723.616	6747
2725.512	6803
2727.41	6700
2729.305	6761
2731.201	6686
2733.095	6801
2734.99	6832
2736.884	6706
2738.778	6825
2740.67	6688
2742.562	6713
2744.455	6758
2746.346	6730
2748.238	6655
2750.129	6758
2752.018	6735
2753.907	6720
2755.797	6787
2757.687	6687
2759.575	6777
2761.462	6728
2763.349	6811
2765.237	6674
2767.124	6777
2769.009	6811
2770.894	6758
2772.779	6635
2774.663	6663
2776.547	6701
2778.431	6711
2780.314	6771
2782.197	6727
2784.078	6619
2785.96	6770
2787.842	6651
2789.723	6676
2791.603	6703
2793.483	6722
2795.362	6720
2797.241	6741
2799.121	6556
2800.997	6637
2802.874	6775
2804.751	6639
2806.628	6654
2808.506	6728
2810.38	6691
2812.255	6709
2814.13	6771
2816.003	6652
2817.878	6592
2819.752	6663
2821.623	6721
2823.496	6733
2825.368	6590
2827.238	6628
2829.111	6572
2830.98	6722
2832.851	6708
2834.719	6751
2836.589	6691
2838.458	6656
2840.327	6651
2842.193	6694
2844.061	6726
2845.927	6756
2847.794	6683
2849.66	6737
2851.525	6685
2853.39	6752
2855.254	6847
2857.117	6793
2858.983	6831
2860.845	6843
2862.707	6870
2864.569	6923
2866.431	6854
2868.293	6974
2870.154	6923
2872.013	6915
2873.873	7129
2875.733	7143
2877.592	7093
2879.451	7242
2881.309	7290
2883.166	7288
2885.022	7373
2886.879	7328
2888.736	7153
2890.591	7297
2892.446	7206
2894.301	7334
2896.155	7472
2898.009	7386
2899.863	7363
2901.716	7230
2903.568	7129
2905.419	7150
2907.27	7193
2909.123	7354
2910.973	7301
2912.824	7383
2914.673	7537
2916.521	7382
2918.372	7559
2920.22	7521
2922.067	7589
2923.914	7607
2925.761	7777
2927.607	7678
2929.455	7814
2931.301	7949
2933.144	7918
2934.99	7994
2936.833	8062
2938.678	7929
2940.522	8028
2942.364	8302
2944.207	8389
2946.048	8277
2947.891	8319
2949.731	8293
2951.571	8335
2953.412	8210
2955.25	8202
2957.09	8056
2958.93	8164
2960.767	7949
2962.606	7805
2964.443	7853
2966.279	7847
2968.116	7659
2969.953	7562
2971.788	7583
2973.623	7450
2975.457	7570
2977.292	7432
2979.127	7500
2980.959	7409
2982.792	7306
2984.624	7305
2986.455	7432
2988.288	7224
2990.119	7256
2991.949	7252
2993.779	7259
2995.608	7246
2997.439	7162
2999.268	7122
3001.096	7018
3002.923	6959
3004.751	6889
3006.578	6819
3008.406	6757
3010.232	6681
3012.057	6700
3013.883	6648
3015.706	6732
3017.532	6489
3019.356	6618
3021.179	6510
3023.002	6619
3024.823	6513
3026.646	6487
3028.469	6404
3030.289	6410
3032.11	6355
3033.93	6454
3035.749	6423
3037.57	6372
3039.39	6418
3041.207	6413
3043.026	6449
3044.842	6433
3046.661	6271
3048.477	6418
3050.294	6222
3052.109	6279
3053.925	6366
3055.739	6361
3057.555	6431
3059.368	6357
3061.181	6333
3062.995	6422
3064.807	6478
3066.62	6368
3068.433	6341
3070.243	6274
3072.054	6402
3073.865	6333
3075.675	6331
3077.485	6274
3079.293	6223
3081.102	6291
3082.911	6361
3084.719	6268
3086.527	6269
3088.333	6269
3090.139	6101
3091.945	6228
3093.75	6285
3095.557	6206
3097.361	6155
3099.165	6291
3100.969	6217
3102.772	6183
3104.575	6117
3106.379	6144
3108.181	6190
3109.982	6187
3111.783	6070
3113.584	6172
3115.386	6109
3117.186	6083
3118.985	6119
3120.783	6238
3122.582	6114
3124.381	6110
3126.179	6184
3127.975	6108
3129.772	6005
3131.569	6005
3133.365	5979
3135.161	6154
3136.956	6049
3138.751	6180
3140.544	6018
3142.338	6112
3144.132	5998
3145.925	6107
3147.717	6005
3149.509	6105
3151.301	6046
3153.091	6000
3154.884	6046
3156.673	6022
3158.462	5976
3160.252	6088
3162.041	6090
3163.831	5946
3165.618	5913
3167.405	6022
3169.193	6013
3170.979	5910
3172.767	5811
3174.553	5887
3176.338	5979
3178.123	6042
3179.907	6022
3181.692	6007
3183.477	5921
3185.259	5955
3187.042	5943
3188.824	5928
3190.607	5985
3192.389	5877
3194.17	5974
3195.951	6035
3197.73	6037
3199.51	5955
3201.289	5930
3203.07	5957
3204.848	5849
3206.626	5925
3208.403	5934
3210.18	5914
3211.959	5954
3213.735	5939
3215.511	5868
3217.285	5920
3219.06	5909
3220.836	5958
3222.611	5922
3224.384	6001
3226.158	5897
3227.929	5890
3229.702	5992
3231.476	5923
3233.248	5837
3235.018	5804
3236.789	5926
3238.56	5900
3240.33	5765
3242.1	5869
3243.869	5946
3245.637	5845
3247.405	5875
3249.172	5880
3250.941	5918
3252.707	5920
3254.474	5969
3256.24	5888
3258.006	5929
3259.772	5942
3261.537	5880
3263.301	5834
3265.065	5973
3266.828	5894
3268.592	5945
3270.355	6032
3272.117	6031
3273.878	5910
3275.64	5856
3277.401	5849
3279.162	5829
3280.922	5845
3282.682	5861
3284.441	5884
3286.199	5977
3287.959	5928
3289.716	5991
3291.475	5801
3293.232	5917
3294.988	5881
3296.744	5927
3298.501	5893
3300.256	5998
3302.011	5872
3303.766	5911
3305.52	5975
3307.275	5828
3309.028	5886
3310.781	5930
3312.533	5883
3314.285	5896
3316.038	6026
3317.789	5932
3319.54	5883
3321.289	5897
3323.039	5853
3324.789	5829
3326.539	5877
3328.288	5817
3330.035	5839
3331.783	5833
3333.531	5925
3335.28	5882
3337.025	5908
3338.771	5868
3340.518	5936
3342.262	5824
3344.009	5772
3345.753	5919
3347.497	5754
3349.24	5810
3350.983	5786
3352.726	5808
3354.469	5755
3356.212	5732
3357.952	5839
3359.694	5812
3361.434	5727
3363.176	5819
3364.916	5794
3366.654	5672
3368.394	5865
3370.132	5788
3371.871	5684
3373.61	5794
3375.346	5772
3377.083	5799
3378.82	5666
3380.556	5810
3382.292	5642
3384.027	5654
3385.763	5705
3387.497	5709
3389.231	5704
3390.965	5799
3392.698	5826
3394.431	5681
3396.164	5682
3397.896	5670
3399.627	5627
3401.36	5662
3403.09	5715
3404.82	5599
3406.55	5685
3408.279	5518
3410.01	5677
3411.738	5619
3413.467	5675
3415.194	5693
3416.92	5674
3418.647	5728
3420.375	5685
3422.102	5568
3423.827	5682
3425.553	5650
3427.277	5631
3429.003	5571
3430.727	5632
3432.451	5576
3434.173	5560
3435.896	5616
3437.62	5653
3439.343	5660
3441.063	5579
3442.785	5555
3444.505	5544
3446.226	5496
3447.948	5466
3449.666	5542
3451.386	5527
3453.104	5474
3454.823	5452
3456.541	5477
3458.259	5484
3459.976	5482
3461.693	5421
3463.408	5429
3465.125	5559
3466.841	5410
3468.556	5485
3470.271	5399
3471.985	5519
3473.698	5394
3475.414	5396
3477.126	5403
3478.838	5422
3480.55	5406
3482.263	5397
3483.975	5448
3485.686	5392
3487.396	5413
3489.106	5374
3490.817	5353
3492.526	5369
3494.236	5315
3495.944	5381
3497.652	5394
3499.359	5361
3501.066	5233
3502.775	5241
3504.481	5262
3506.187	5253
3507.893	5286
3509.598	5274
3511.304	5358
3513.009	5259
3514.713	5339
3516.417	5297
3518.12	5216
3519.821	5152
3521.525	5246
3523.228	5307
3524.929	5297
3526.631	5197
3528.33	5168
3530.032	5217
3531.733	5208
3533.433	5229
3535.131	5200
3536.83	5214
3538.529	5247
3540.227	5201
3541.925	5200
3543.623	5177
3545.319	5187
3547.016	5153
3548.712	5089
3550.408	5097
3552.103	5232
3553.798	5284
3555.491	5140
3557.188	5157
3558.88	5178
3560.574	5040
3562.266	5242
3563.959	5051
3565.651	5092
3567.343	5115
3569.035	5046
3570.725	5074
3572.415	5067
3574.106	5044
3575.797	5089
3577.485	5096
3579.174	5214
3580.863	5134
3582.551	5139
3584.238	4996
3585.926	5078
3587.613	5072
3589.3	5001
3590.986	5163
3592.671	5050
3594.357	5017
3596.042	4969
3597.726	4988
3599.41	5157
3601.094	4942
3602.778	5030
3604.461	5062
3606.143	4983
3607.825	4981
3609.507	4907
3611.188	4991
3612.87	4898
3614.551	4905
3616.229	4992
3617.909	4855
3619.589	4965
3621.269	4956
3622.948	4886
3624.625	4879
3626.302	4915
3627.98	4878
3629.657	4863
3631.334	4881
3633.01	4880
3634.686	4891
3636.361	4869
3638.036	4862
3639.712	4840
3641.385	4826
3643.06	4875
3644.732	4817
3646.405	4804
3648.08	4819
3649.751	4850
3651.424	4835
3653.094	4768
3654.766	4825
3656.436	4712
3658.106	4836
3659.777	4752
3661.446	4845
3663.115	4774
3664.783	4688
3666.452	4869
3668.121	4733
3669.788	4648
3671.454	4865
3673.121	4738
3674.789	4679
3676.455	4782
3678.12	4759
3679.784	4655
3681.45	4697
3683.114	4696
3684.779	4742
3686.442	4732
3688.105	4702
3689.768	4601
3691.43	4698
3693.093	4574
3694.754	4713
3696.415	4646
3698.076	4648
3699.736	4671
3701.396	4718
3703.057	4636
3704.716	4615
3706.375	4641
3708.034	4680
3709.692	4687
3711.351	4697
3713.008	4705
3714.665	4673
3716.321	4699
3717.977	4722
3719.634	4668
3721.29	4732
3722.945	4600
3724.598	4555
3726.253	4568
3727.907	4573
3729.561	4723
3731.214	4587
3732.867	4656
3734.518	4715
3736.171	4598
3737.824	4652
3739.474	4584
3741.125	4543
3742.775	4596
3744.425	4607
3746.074	4484
3747.725	4600
3749.373	4566
3751.022	4544
3752.669	4562
3754.318	4570
3755.966	4549
3757.612	4566
3759.259	4554
3760.905	4606
3762.55	4551
3764.197	4493
3765.842	4483
3767.486	4550
3769.131	4548
3770.774	4539
3772.417	4484
3774.061	4479
3775.705	4578
3777.347	4502
3778.988	4514
3780.629	4444
3782.271	4532
3783.912	4537
3785.552	4562
3787.192	4405
3788.831	4556
3790.472	4443
3792.112	4471
3793.75	4494
3795.388	4456
3797.024	4502
3798.661	4387
3800.3	4412
3801.936	4449
3803.572	4477
3805.208	4465
3806.844	4404
3808.48	4452
3810.115	4405
3811.748	4324
3813.382	4431
3815.016	4358
3816.649	4379
3818.283	4466
3819.914	4422
3821.547	4392
3823.178	4425
3824.809	4385
3826.441	4318
3828.072	4348
3829.701	4330
3831.331	4358
3832.96	4381
3834.591	4398
3836.219	4295
3837.847	4403
3839.475	4261
3841.102	4373
3842.729	4373
3844.357	4368
3845.984	4328
3847.609	4359
3849.234	4298
3850.86	4334
3852.485	4277
3854.11	4339
3855.734	4327
3857.357	4262
3858.981	4355
3860.603	4341
3862.227	4296
3863.848	4281
3865.471	4382
3867.092	4230
3868.713	4239
3870.334	4267
3871.954	4324
3873.575	4291
3875.194	4244
3876.813	4241
3878.433	4282
3880.051	4248
3881.669	4325
3883.286	4259
3884.904	4284
3886.52	4313
3888.138	4178
3889.754	4249
3891.37	4335
3892.985	4196
3894.6	4382
3896.216	4224
3897.831	4228
3899.444	4293
3901.058	4279
3902.67	4269
3904.283	4245
3905.897	4315
3907.509	4262
3909.121	4196
3910.731	4239
3912.342	4245
3913.954	4201
3915.563	4168
3917.174	4290
3918.783	4138
3920.391	4245
3922.002	4231
3923.611	4179
3925.218	4179
3926.826	4288
3928.432	4201
3930.039	4274
3931.647	4155
3933.253	4198
3934.859	4129
3936.464	4284
3938.068	4186
3939.675	4192
3941.278	4211
3942.883	4220
3944.486	4142
3946.089	4134
3947.692	4168
3949.295	4153
3950.898	4104
3952.499	4238
3954.1	4203
3955.7	4198
3957.303	4185
3958.903	4163
3960.502	4120
3962.101	4180
3963.7	4100
3965.301	4099
3966.899	4086
3968.497	4026
3970.094	4131
3971.691	4128
3973.288	4101
3974.885	4045
3976.481	4104
3978.077	4092
3979.672	4057
3981.267	4149
3982.863	4033
3984.457	4076
3986.051	4048
3987.645	4071
3989.238	4012
3990.831	4017
3992.425	4116
3994.017	4053
3995.607	4102
3997.199	3971
3998.79	3948
4000.382	3975
4001.973	4034
4003.561	4005
4005.151	4002
4006.741	3946
4008.331	4025
4009.918	3921
4011.507	3971
4013.095	3974
4014.681	3996
4016.269	3975
4017.856	3947
4019.443	3998
4021.028	3898
4022.614	3811
4024.199	3887
4025.785	3933
4027.37	3983
4028.953	3870
4030.536	3912
4032.12	3936
4033.704	3947
4035.287	3934
4036.869	3824
4038.45	4000
4040.032	3832
4041.613	3956
4043.195	3886
4044.776	3945
4046.356	3841
4047.935	3942
4049.515	3909
4051.095	3861
4052.674	3921
4054.251	3901
4055.829	3801
4057.406	3914
4058.985	3814
4060.562	3849
4062.139	3833
4063.715	3829
4065.29	3838
4066.865	3884
4068.442	3839
4070.016	3813
4071.59	3814
4073.164	3821
4074.738	3873
4076.312	3906
4077.885	3842
4079.458	3844
4081.03	3849
4082.602	3782
4084.173	3763
4085.745	3811
4087.315	3806
4088.886	3779
4090.456	3842
4092.026	3762
4093.596	3770
4095.165	3803
4096.734	3762
4098.301	3831
4099.869	3759
4101.437	3812
4103.006	3879
4104.572	3704
4106.139	3742
4107.704	3794
4109.27	3798
4110.837	3740
4112.401	3732
4113.966	3804
4115.53	3652
4117.094	3807
4118.659	3756
4120.223	3816
4121.785	3808
4123.347	3802
4124.909	3787
4126.471	3722
4128.034	3704
4129.595	3747
4131.155	3586
4132.716	3703
4134.275	3757
4135.836	3717
4137.395	3690
4138.955	3745
4140.513	3635
4142.071	3685
4143.628	3703
4145.188	3659
4146.745	3627
4148.302	3702
4149.858	3642
4151.414	3608
4152.971	3697
4154.526	3624
4156.081	3652
4157.635	3601
4159.189	3667
4160.745	3627
4162.298	3627
4163.852	3702
4165.405	3642
4166.957	3606
4168.51	3660
4170.063	3624
4171.614	3579
4173.166	3615
4174.717	3550
4176.267	3592
4177.817	3648
4179.368	3568
4180.917	3598
4182.466	3582
4184.016	3602
4185.564	3564
4187.112	3606
4188.66	3533
4190.207	3586
4191.754	3493
4193.301	3439
4194.848	3590
4196.394	3540
4197.94	3551
4199.484	3595
4201.03	3545
4202.575	3579
4204.12	3557
4205.663	3511
4207.207	3500
4208.75	3457
4210.292	3475
4211.836	3473
4213.378	3501
4214.92	3456
4216.46	3471
4218.002	3474
4219.544	3537
4221.083	3508
4222.625	3534
4224.164	3484
4225.703	3528
4227.244	3474
4228.782	3542
4230.32	3445
4231.857	3402
4233.395	3444
4234.933	3443
4236.471	3513
4238.007	3414
4239.542	3506
4241.078	3423
4242.614	3464
4244.15	3367
4245.685	3348
4247.219	3435
4248.753	3599
4250.287	3449
4251.82	3422
4253.354	3440
4254.887	3450
4256.419	3422
4257.951	3495
4259.483	3485
4261.016	3442
4262.547	3441
4264.078	3436
4265.608	3492
4267.137	3419
4268.668	3470
4270.197	3454
4271.727	3419
4273.254	3400
4274.783	3497
4276.311	3355
4277.84	3420
4279.366	3441
4280.894	3402
4282.42	3443
4283.946	3335
4285.473	3341
4286.998	3416
4288.523	3366
4290.047	3342
4291.572	3388
4293.096	3409
4294.622	3339
4296.144	3300
4297.668	3345
4299.19	3289
4300.713	3386
4302.236	3410
4303.758	3325
4305.279	3387
4306.799	3355
4308.321	3325
4309.842	3290
4311.361	3317
4312.882	3386
4314.401	3249
