400.0961	4813
402.6185	4765
405.1424	4725
407.6635	4769
410.1838	4745
412.7035	4688
415.2225	4705
417.7388	4763
420.2585	4846
422.7754	4806
425.2917	4959
427.8072	4897
430.3221	5018
432.8363	4988
435.3498	4907
437.8626	4956
440.3727	4955
442.8841	5008
445.3969	5053
447.907	4972
450.4142	4997
452.9229	4884
455.4289	5046
457.9362	4948
460.4449	4998
462.9488	4967
465.454	4952
467.9566	5008
470.4604	4965
472.9637	4981
475.4662	5020
477.966	5017
480.4671	5045
482.9656	5007
485.4633	5090
487.9645	5169
490.4608	5038
492.9566	5058
495.4536	5130
497.948	5015
500.4437	5118
502.9387	5122
505.431	5228
507.9226	5189
510.4136	5058
512.9079	5162
515.3975	5212
517.8864	5169
520.3746	5141
522.8622	5138
525.3491	5158
527.8394	5232
530.3249	5126
532.8098	5301
535.2939	5122
537.7774	5216
540.2623	5139
542.7444	5290
545.2259	5309
547.7067	5242
550.1868	5151
552.6683	5168
555.147	5298
557.6231	5312
560.1005	5341
562.5773	5232
565.0534	5257
567.5308	5298
570.0056	5349
572.4776	5378
574.951	5380
577.4237	5376
579.8978	5445
582.3671	5432
584.8378	5428
587.3079	5374
589.7773	5377
592.244	5474
594.714	5470
597.1793	5415
599.6461	5359
602.1121	5423
604.5754	5492
607.0421	5413
609.5042	5424
611.9675	5418
614.4282	5364
616.8902	5374
619.3515	5309
621.8122	5357
624.2702	5427
626.7296	5385
629.1863	5364
631.6423	5269
634.1017	5315
636.5563	5285
639.0104	5359
641.4658	5294
643.9185	5401
646.3725	5380
648.8239	5484
651.2766	5456
653.7266	5386
656.176	5414
658.6247	5467
661.0748	5410
663.5242	5486
665.9709	5431
668.417	5578
670.8624	5490
673.3092	5409
675.7533	5575
678.1968	5388
680.6395	5534
683.0817	5523
685.5251	5650
687.9659	5528
690.4061	5503
692.8456	5546
695.2844	5559
697.7226	5744
700.1621	5643
702.599	5633
705.0332	5673
707.4688	5743
709.9036	5644
712.3399	5808
714.7735	5730
717.2044	5683
719.6367	5763
722.0683	5719
724.4993	5749
726.9296	5739
729.3593	5775
731.7883	5802
734.2147	5760
736.6423	5819
739.0714	5909
741.4958	5681
743.9216	5861
746.3447	5869
748.7691	5900
751.1929	5883
753.616	5844
756.0366	5955
758.4584	5962
760.8776	5874
763.2982	5945
765.718	6032
768.1373	5989
770.5539	5990
772.9698	6019
775.3871	5960
777.8038	5976
780.2178	6064
782.6332	5995
785.0459	5935
787.458	6045
789.8714	6044
792.2842	5973
794.6943	6107
797.1038	5986
799.5127	6030
801.9209	5990
804.3324	6033
806.7393	6002
809.1456	6009
811.5513	6003
813.9562	6017
816.3625	6020
818.7663	6038
821.1693	6066
823.5718	6137
825.9735	6119
828.3746	6086
830.7771	6143
833.177	6067
835.5762	6000
837.9747	6091
840.3727	6178
842.772	6020
845.1666	6207
847.5626	6142
849.958	6185
852.3527	6338
854.7488	6269
857.1403	6360
859.5331	6230
861.9253	6211
864.3168	6283
866.7057	6221
869.098	6258
871.4876	6120
873.8746	6255
876.263	6327
878.6487	6228
881.0378	6169
883.4243	6045
885.8081	6211
888.1933	6296
890.5759	6180
892.9598	6150
895.343	6113
897.7256	6287
900.1057	6207
902.4871	6250
904.8659	6212
907.246	6277
909.6254	6313
912.0023	6307
914.3786	6586
916.7562	6649
919.1331	6724
921.5074	6836
923.8831	6870
926.2562	6796
928.6287	6769
931.0005	6727
933.3757	6709
935.7462	6630
938.1162	6532
940.4855	6723
942.8542	6617
945.2242	6838
947.5916	6839
949.9584	6874
952.3266	7046
954.6921	7146
957.0571	7409
959.4233	7538
961.787	7684
964.15	7674
966.5125	7584
968.8742	7294
971.2354	7133
973.5959	7076
975.9559	6861
978.3151	6796
980.6738	6743
983.0338	6633
985.3912	6688
987.7461	6519
990.1022	6491
992.4578	6503
994.8127	6374
997.1689	6516
999.5207	6532
1001.874	6748
1004.226	6488
1006.576	6519
1008.929	6500
1011.28	6384
1013.628	6423
1015.977	6466
1018.324	6468
1020.674	6404
1023.019	6477
1025.366	6489
1027.713	6492
1030.056	6532
1032.399	6577
1034.746	6528
1037.087	6626
1039.431	6571
1041.771	6515
1044.113	6493
1046.454	6531
1048.793	6589
1051.133	6551
1053.471	6574
1055.807	6720
1058.146	6516
1060.483	6532
1062.818	6674
1065.153	6715
1067.489	6678
1069.822	6703
1072.156	6650
1074.488	6796
1076.82	6653
1079.15	6671
1081.48	6676
1083.814	6687
1086.143	6667
1088.471	6579
1090.799	6605
1093.126	6575
1095.452	6634
1097.78	6503
1100.105	6653
1102.43	6700
1104.754	6560
1107.077	6683
1109.4	6590
1111.722	6642
1114.044	6604
1116.365	6665
1118.685	6625
1121.005	6617
1123.324	6717
1125.643	6656
1127.961	6632
1130.278	6716
1132.595	6626
1134.911	6702
1137.226	6684
1139.541	6627
1141.854	6609
1144.167	6617
1146.482	6693
1148.793	6568
1151.105	6642
1153.414	6693
1155.725	6531
1158.033	6599
1160.344	6702
1162.651	6712
1164.959	6734
1167.265	6824
1169.572	6652
1171.878	6754
1174.184	6679
1176.488	6721
1178.79	6844
1181.094	6751
1183.396	6797
1185.699	6704
1188.001	6712
1190.301	6710
1192.6	6761
1194.9	6664
1197.2	6754
1199.497	6569
1201.794	6679
1204.09	6800
1206.387	6604
1208.684	6677
1210.978	6779
1213.272	6681
1215.565	6786
1217.858	6605
1220.15	6726
1222.443	6665
1224.734	6718
1227.024	6661
1229.313	6792
1231.602	6937
1233.892	6756
1236.18	6784
1238.467	6827
1240.754	6918
1243.04	6897
1245.325	6836
1247.612	6926
1249.896	7045
1252.178	7012
1254.461	6903
1256.743	6989
1259.027	6988
1261.308	7003
1263.587	6949
1265.867	7030
1268.146	6971
1270.425	7086
1272.703	7057
1274.981	7071
1277.256	6987
1279.532	7018
1281.808	6908
1284.083	7096
1286.358	6827
1288.63	6912
1290.904	6845
1293.175	6949
1295.449	6928
1297.719	6914
1299.99	6852
1302.259	6878
1304.529	6848
1306.798	6910
1309.065	6885
1311.333	6910
1313.599	6953
1315.866	6794
1318.131	6846
1320.396	6848
1322.66	6809
1324.925	6968
1327.187	7004
1329.448	7075
1331.711	7215
1333.974	7132
1336.234	7125
1338.493	6953
1340.752	6896
1343.01	6902
1345.269	6948
1347.526	6939
1349.784	6876
1352.04	6955
1354.295	6859
1356.552	6852
1358.806	6881
1361.059	6948
1363.312	6880
1365.564	6806
1367.818	6885
1370.069	6925
1372.318	6913
1374.568	7030
1376.817	6840
1379.066	6860
1381.316	6976
1383.564	7060
1385.809	7021
1388.056	7199
1390.301	7149
1392.549	7245
1394.793	7292
1397.036	7364
1399.279	7526
1401.522	7390
1403.763	7429
1406.007	7407
1408.248	7445
1410.487	7390
1412.727	7366
1414.965	7434
1417.205	7349
1419.442	7318
1421.68	7188
1423.915	7300
1426.152	7088
1428.388	7305
1430.623	7291
1432.857	7328
1435.091	7223
1437.323	7354
1439.556	7322
1441.789	7349
1444.019	7323
1446.25	7337
1448.48	7319
1450.708	7324
1452.938	7376
1455.167	7353
1457.394	7414
1459.62	7386
1461.846	7300
1464.073	7303
1466.299	7273
1468.523	7145
1470.746	7266
1472.969	7145
1475.191	6994
1477.415	7140
1479.636	7031
1481.858	6940
1484.078	6909
1486.298	6975
1488.518	6944
1490.736	6870
1492.954	6964
1495.169	6931
1497.386	6827
1499.602	6910
1501.819	6835
1504.034	6978
1506.248	6937
1508.462	6886
1510.675	6891
1512.888	6847
1515.1	6801
1517.311	6934
1519.522	6901
1521.732	6794
1523.942	6980
1526.151	6861
1528.36	6746
1530.566	7014
1532.773	6984
1534.98	6956
1537.187	7039
1539.392	6789
1541.596	6903
1543.801	6832
1546.005	7040
1548.208	7061
1550.411	6969
1552.612	6939
1554.814	7003
1557.013	7129
1559.212	7113
1561.414	7033
1563.612	7011
1565.811	7081
1568.007	7038
1570.203	7052
1572.403	7108
1574.598	7051
1576.792	7101
1578.988	7125
1581.181	7167
1583.376	7008
1585.568	7134
1587.761	7100
1589.952	7047
1592.143	7107
1594.333	7075
1596.524	7041
1598.715	7087
1600.903	7106
1603.091	7083
1605.278	7070
1607.466	7133
1609.652	7175
1611.838	7239
1614.023	7171
1616.207	7171
1618.391	7225
1620.576	7068
1622.759	7198
1624.941	7109
1627.123	7071
1629.304	7254
1631.484	7233
1633.664	7182
1635.844	7225
1638.022	7274
1640.201	7167
1642.38	7337
1644.556	7233
1646.732	7135
1648.908	7244
1651.084	7322
1653.257	7179
1655.433	7336
1657.607	7226
1659.779	7282
1661.951	7191
1664.122	7438
1666.295	7306
1668.467	7416
1670.635	7290
1672.805	7273
1674.973	7338
1677.142	7326
1679.31	7395
1681.478	7274
1683.644	7187
1685.81	7371
1687.975	7180
1690.142	7285
1692.305	7281
1694.468	7194
1696.632	7139
1698.794	7280
1700.957	7292
1703.119	7071
1705.279	7155
1707.439	7140
1709.598	7115
1711.758	7051
1713.917	7139
1716.075	7036
1718.231	7195
1720.388	7216
1722.543	7064
1724.702	7193
1726.856	7074
1729.01	6907
1731.164	7038
1733.317	6972
1735.471	7079
1737.623	7009
1739.774	7106
1741.925	7190
1744.075	7148
1746.225	7093
1748.376	7020
1750.524	7130
1752.672	7098
1754.82	7186
1756.965	7195
1759.113	7073
1761.259	7033
1763.405	7223
1765.549	7130
1767.694	7079
1769.836	7051
1771.981	7184
1774.123	7172
1776.264	7231
1778.405	7122
1780.546	7030
1782.687	7153
1784.827	7096
1786.966	7143
1789.103	7268
1791.242	7151
1793.381	7171
1795.517	7116
1797.653	7189
1799.788	7105
1801.923	7192
1804.057	7119
1806.193	7178
1808.326	7110
1810.457	7263
1812.59	7124
1814.721	7268
1816.855	7161
1818.984	7168
1821.113	7125
1823.244	7092
1825.372	7294
1827.499	7084
1829.63	7179
1831.756	7064
1833.882	7164
1836.007	7145
1838.132	7086
1840.26	7151
1842.384	7092
1844.507	7097
1846.63	7024
1848.752	7061
1850.875	7176
1852.996	7064
1855.118	7140
1857.238	7017
1859.358	7038
1861.477	7036
1863.597	7095
1865.715	7092
1867.832	7136
1869.948	7062
1872.064	7152
1874.181	7085
1876.297	6935
1878.411	7110
1880.526	7009
1882.639	7070
1884.752	7217
1886.865	7150
1888.977	7081
1891.089	7132
1893.2	7278
1895.308	7144
1897.42	7138
1899.53	7170
1901.639	7172
1903.745	7125
1905.853	7205
1907.962	7107
1910.067	7156
1912.174	7196
1914.278	7076
1916.383	7107
1918.486	7191
1920.592	7233
1922.694	7167
1924.797	7178
1926.898	7160
1929	7197
1931.102	7102
1933.203	7104
1935.301	7279
1937.401	7274
1939.499	7269
1941.598	7107
1943.697	7381
1945.793	7153
1947.888	7134
1949.985	7189
1952.08	7151
1954.176	7244
1956.269	7155
1958.364	7192
1960.457	7288
1962.549	7182
1964.642	7218
1966.733	7237
1968.823	7263
1970.913	7067
1973.005	7171
1975.093	7390
1977.184	7249
1979.271	7164
1981.359	7201
1983.446	7134
1985.532	7190
1987.619	7127
1989.705	7128
1991.789	7151
1993.874	7148
1995.956	7154
1998.041	7142
2000.123	7043
2002.206	7100
2004.287	7051
2006.368	7089
2008.449	7164
2010.529	7064
2012.609	7148
2014.688	7139
2016.766	7068
2018.843	7135
2020.922	6994
2022.999	7155
2025.074	7076
2027.15	7117
2029.225	7128
2031.299	7207
2033.375	7103
2035.447	7070
2037.52	7179
2039.592	7113
2041.664	7117
2043.736	7199
2045.807	7139
2047.876	7180
2049.947	7024
2052.015	7144
2054.086	7116
2056.153	7178
2058.221	7100
2060.288	7117
2062.353	7146
2064.42	7164
2066.486	7189
2068.55	7037
2070.614	7201
2072.678	7133
2074.741	7099
2076.805	7134
2078.866	7111
2080.929	7034
2082.99	7180
2085.049	7100
2087.109	7096
2089.17	7126
2091.228	7240
2093.286	7026
2095.344	7072
2097.4	7030
2099.46	7203
2101.516	7178
2103.572	7159
2105.626	7173
2107.679	7065
2109.735	7121
2111.788	6966
2113.841	7172
2115.894	7108
2117.945	7102
2119.997	7185
2122.049	7027
2124.1	7141
2126.148	7005
2128.197	7009
2130.246	7104
2132.296	7226
2134.342	7144
2136.39	7045
2138.437	7106
2140.483	7075
2142.527	7132
2144.574	7014
2146.619	7101
2148.661	7162
2150.705	7104
2152.747	7082
2154.792	7096
2156.832	7147
2158.874	7046
2160.915	7019
2162.954	7015
2164.995	7139
2167.034	7139
2169.072	6991
2171.111	7090
2173.148	7100
2175.186	7049
2177.223	7144
2179.258	7057
2181.294	7004
2183.328	7018
2185.362	6992
2187.398	6939
2189.431	6895
2191.463	6924
2193.495	6973
2195.528	6994
2197.56	6888
2199.59	7000
2201.62	6877
2203.649	7022
2205.678	7008
2207.708	6953
2209.737	6952
2211.764	7024
2213.791	7055
2215.817	6912
2217.843	6895
2219.87	6926
2221.895	6927
2223.919	6907
2225.942	6955
2227.966	6898
2229.988	6918
2232.012	6824
2234.032	6857
2236.054	7068
2238.074	6952
2240.095	6887
2242.116	6908
2244.135	6898
2246.153	6908
2248.171	6914
2250.188	6966
2252.208	6943
2254.223	6973
2256.239	6977
2258.255	6943
2260.269	6815
2262.283	6872
2264.3	6906
2266.312	6839
2268.325	6855
2270.336	6948
2272.349	6997
2274.362	6790
2276.372	6876
2278.383	6962
2280.392	6872
2282.402	6955
2284.409	6876
2286.418	6992
2288.427	6850
2290.433	6901
2292.441	6910
2294.446	7006
2296.453	6931
2298.459	6852
2300.463	6826
2302.466	6876
2304.471	6826
2306.475	6881
2308.477	6891
2310.478	6895
2312.481	6874
2314.481	6872
2316.481	6879
2318.482	6688
2320.482	6772
2322.48	6870
2324.48	6948
2326.478	6820
2328.476	6789
2330.473	6744
2332.469	6761
2334.465	6800
2336.46	6801
2338.454	6801
2340.45	6780
2342.444	6836
2344.437	6670
2346.43	6754
2348.421	6759
2350.414	6668
2352.405	6698
2354.396	6769
2356.386	6719
2358.376	6798
2360.366	6775
2362.355	6672
2364.343	6760
2366.331	6716
2368.317	6679
2370.304	6716
2372.292	6736
2374.278	6567
2376.262	6787
2378.247	6766
2380.23	6673
2382.216	6770
2384.199	6621
2386.181	6651
2388.163	6630
2390.144	6625
2392.127	6630
2394.107	6599
2396.087	6664
2398.066	6700
2400.046	6782
2402.023	6635
2404.004	6701
2405.981	6529
2407.957	6661
2409.934	6672
2411.91	6599
2413.886	6627
2415.862	6640
2417.836	6633
2419.809	6614
2421.784	6623
2423.756	6660
2425.73	6585
2427.701	6592
2429.672	6677
2431.644	6656
2433.615	6694
2435.586	6697
2437.555	6731
2439.523	6639
2441.491	6708
2443.459	6731
2445.428	6697
2447.395	6521
2449.361	6591
2451.327	6521
2453.292	6591
2455.257	6649
2457.223	6520
2459.187	6468
2461.15	6626
2463.113	6589
2465.076	6608
2467.039	6481
2468.999	6597
2470.96	6590
2472.921	6499
2474.881	6610
2476.841	6434
2478.8	6539
2480.759	6603
2482.717	6490
2484.675	6466
2486.63	6468
2488.589	6549
2490.545	6606
2492.5	6592
2494.455	6508
2496.408	6533
2498.364	6524
2500.318	6342
2502.27	6387
2504.223	6452
2506.174	6546
2508.126	6551
2510.078	6513
2512.03	6591
2513.979	6527
2515.927	6503
2517.877	6475
2519.826	6426
2521.775	6454
2523.722	6560
2525.668	6406
2527.616	6423
2529.561	6396
2531.508	6500
2533.452	6559
2535.398	6498
2537.342	6412
2539.284	6299
2541.229	6500
2543.173	6455
2545.114	6432
2547.055	6490
2548.996	6550
2550.938	6460
2552.878	6397
2554.817	6591
2556.756	6490
2558.695	6549
2560.633	6509
2562.572	6529
2564.509	6308
2566.445	6526
2568.382	6455
2570.317	6400
2572.254	6394
2574.189	6477
2576.123	6474
2578.057	6310
2579.99	6469
2581.923	6540
2583.855	6553
2585.788	6400
2587.719	6416
2589.65	6458
2591.579	6468
2593.511	6391
2595.44	6411
2597.37	6493
2599.297	6482
2601.225	6537
2603.153	6439
2605.08	6401
2607.007	6449
2608.932	6477
2610.858	6452
2612.782	6394
2614.709	6586
2616.632	6593
2618.556	6467
2620.478	6512
2622.401	6449
2624.324	6438
2626.247	6464
2628.167	6401
2630.088	6378
2632.008	6529
2633.928	6410
2635.848	6515
2637.766	6377
2639.684	6540
2641.603	6474
2643.519	6545
2645.437	6404
2647.353	6459
2649.27	6445
2651.184	6449
2653.099	6482
2655.014	6444
2656.928	6457
2658.842	6461
2660.755	6466
2662.667	6340
2664.579	6479
2666.491	6555
2668.402	6462
2670.312	6496
2672.222	6422
2674.132	6291
2676.042	6341
2677.951	6460
2679.859	6391
2681.766	6457
2683.674	6367
2685.582	6415
2687.488	6454
2689.392	6456
2691.298	6465
2693.202	6399
2695.107	6467
2697.012	6367
2698.914	6358
2700.817	6320
2702.72	6435
2704.622	6368
2706.524	6305
2708.425	6237
2710.326	6372
2712.225	6297
2714.125	6246
2716.024	6363
2717.923	6264
2719.822	6298
2721.719	6366
2723.616	6307
2725.512	6418
2727.41	6388
2729.305	6410
2731.201	6206
2733.095	6464
2734.99	6233
2736.884	6265
2738.778	6280
2740.67	6243
2742.562	6364
2744.455	6310
2746.346	6319
2748.238	6173
2750.129	6419
2752.018	6375
2753.907	6193
2755.797	6340
2757.687	6342
2759.575	6255
2761.462	6287
2763.349	6439
2765.237	6328
2767.124	6231
2769.009	6235
2770.894	6337
2772.779	6291
2774.663	6276
2776.547	6255
2778.431	6237
2780.314	6182
2782.197	6310
2784.078	6228
2785.96	6254
2787.842	6258
2789.723	6340
2791.603	6266
2793.483	6216
2795.362	6271
2797.241	6240
2799.121	6306
2800.997	6328
2802.874	6266
2804.751	6193
2806.628	6178
2808.506	6226
2810.38	6295
2812.255	6226
2814.13	6229
2816.003	6241
2817.878	6251
2819.752	6205
2821.623	6260
2823.496	6209
2825.368	6309
2827.238	6188
2829.111	6254
2830.98	6331
2832.851	6327
2834.719	6324
2836.589	6248
2838.458	6408
2840.327	6213
2842.193	6308
2844.061	6351
2845.927	6286
2847.794	6272
2849.66	6326
2851.525	6389
2853.39	6442
2855.254	6474
2857.117	6364
2858.983	6364
2860.845	6404
2862.707	6524
2864.569	6503
2866.431	6528
2868.293	6584
2870.154	6627
2872.013	6734
2873.873	6733
2875.733	6785
2877.592	6793
2879.451	6784
2881.309	6872
2883.166	6926
2885.022	7062
2886.879	6951
2888.736	7151
2890.591	7113
2892.446	7244
2894.301	7170
2896.155	7213
2898.009	7225
2899.863	7237
2901.716	7180
2903.568	7052
2905.419	7051
2907.27	7079
2909.123	7184
2910.973	7100
2912.824	7304
2914.673	7166
2916.521	7306
2918.372	7370
2920.22	7316
2922.067	7431
2923.914	7364
2925.761	7473
2927.607	7516
2929.455	7501
2931.301	7462
2933.144	7577
2934.99	7413
2936.833	7608
2938.678	7707
2940.522	7774
2942.364	7955
2944.207	8007
2946.048	8196
2947.891	8462
2949.731	8399
2951.571	8446
2953.412	8440
2955.25	8324
2957.09	8055
2958.93	8081
2960.767	8126
2962.606	8018
2964.443	8104
2966.279	7720
2968.116	7702
2969.953	7648
2971.788	7415
2973.623	7371
2975.457	7325
2977.292	7142
2979.127	7189
2980.959	6976
2982.792	6810
2984.624	6793
2986.455	6910
2988.288	6859
2990.119	6815
2991.949	6804
2993.779	6781
2995.608	6676
2997.439	6573
2999.268	6649
3001.096	6571
3002.923	6625
3004.751	6427
3006.578	6290
3008.406	6520
3010.232	6324
3012.057	6313
3013.883	6258
3015.706	6206
3017.532	6283
3019.356	6141
3021.179	6074
3023.002	5967
3024.823	6036
3026.646	6079
3028.469	6102
3030.289	6154
3032.11	5919
3033.93	6065
3035.749	6043
3037.57	5985
3039.39	5928
3041.207	5952
3043.026	6069
3044.842	5939
3046.661	5979
3048.477	5981
3050.294	6056
3052.109	6057
3053.925	6044
3055.739	5918
3057.555	5933
3059.368	5948
3061.181	5894
3062.995	5975
3064.807	5991
3066.62	5924
3068.433	5975
3070.243	5786
3072.054	5964
3073.865	5865
3075.675	5903
3077.485	5941
3079.293	5859
3081.102	5918
3082.911	5795
3084.719	5815
3086.527	5834
3088.333	5900
3090.139	5865
3091.945	5757
3093.75	5847
3095.557	5704
3097.361	5806
3099.165	5750
3100.969	5740
3102.772	5730
3104.575	5691
3106.379	5541
3108.181	5677
3109.982	5722
3111.783	5704
3113.584	5741
3115.386	5670
3117.186	5636
3118.985	5663
3120.783	5676
3122.582	5602
3124.381	5642
3126.179	5593
3127.975	5679
3129.772	5539
3131.569	5600
3133.365	5671
3135.161	5648
3136.956	5553
3138.751	5481
3140.544	5558
3142.338	5557
3144.132	5599
3145.925	5570
3147.717	5609
3149.509	5603
3151.301	5540
3153.091	5598
3154.884	5513
3156.673	5553
3158.462	5621
3160.252	5537
3162.041	5518
3163.831	5579
3165.618	5676
3167.405	5600
3169.193	5542
3170.979	5526
3172.767	5527
3174.553	5583
3176.338	5509
3178.123	5547
3179.907	5533
3181.692	5437
3183.477	5519
3185.259	5639
3187.042	5508
3188.824	5554
3190.607	5489
3192.389	5504
3194.17	5484
3195.951	5531
3197.73	5456
3199.51	5482
3201.289	5547
3203.07	5572
3204.848	5541
3206.626	5372
3208.403	5454
3210.18	5545
3211.959	5556
3213.735	5482
3215.511	5535
3217.285	5576
3219.06	5515
3220.836	5440
3222.611	5446
3224.384	5526
3226.158	5429
3227.929	5445
3229.702	5524
3231.476	5430
3233.248	5498
3235.018	5514
3236.789	5524
3238.56	5496
3240.33	5481
3242.1	5462
3243.869	5470
3245.637	5436
3247.405	5503
3249.172	5514
3250.941	5518
3252.707	5481
3254.474	5477
3256.24	5478
3258.006	5386
3259.772	5533
3261.537	5372
3263.301	5527
3265.065	5348
3266.828	5467
3268.592	5551
3270.355	5443
3272.117	5543
3273.878	5408
3275.64	5428
3277.401	5593
3279.162	5543
3280.922	5502
3282.682	5490
3284.441	5542
3286.199	5433
3287.959	5407
3289.716	5444
3291.475	5509
3293.232	5478
3294.988	5412
3296.744	5500
3298.501	5413
3300.256	5387
3302.011	5377
3303.766	5390
3305.52	5389
3307.275	5430
3309.028	5475
3310.781	5413
3312.533	5508
3314.285	5333
3316.038	5424
3317.789	5465
3319.54	5348
3321.289	5458
3323.039	5371
3324.789	5444
3326.539	5355
3328.288	5492
3330.035	5328
3331.783	5356
3333.531	5399
3335.28	5323
3337.025	5342
3338.771	5290
3340.518	5330
3342.262	5490
3344.009	5447
3345.753	5275
3347.497	5360
3349.24	5396
3350.983	5321
3352.726	5276
3354.469	5323
3356.212	5231
3357.952	5222
3359.694	5335
3361.434	5255
3363.176	5169
3364.916	5266
3366.654	5205
3368.394	5319
3370.132	5314
3371.871	5302
3373.61	5242
3375.346	5201
3377.083	5279
3378.82	5183
3380.556	5202
3382.292	5257
3384.027	5150
3385.763	5221
3387.497	5182
3389.231	5206
3390.965	5122
3392.698	5211
3394.431	5171
3396.164	5189
3397.896	5146
3399.627	5235
3401.36	5192
3403.09	5194
3404.82	5179
3406.55	5066
3408.279	5060
3410.01	5166
3411.738	5187
3413.467	5141
3415.194	5035
3416.92	5176
3418.647	5144
3420.375	5114
3422.102	5049
3423.827	5110
3425.553	5113
3427.277	5137
3429.003	5138
3430.727	5092
3432.451	5070
3434.173	5067
3435.896	5070
3437.62	5081
3439.343	5034
3441.063	5005
3442.785	5113
3444.505	5080
3446.226	4997
3447.948	5012
3449.666	5083
3451.386	4965
3453.104	5026
3454.823	5064
3456.541	4971
3458.259	4941
3459.976	4950
3461.693	4947
3463.408	4896
3465.125	4998
3466.841	4984
3468.556	4825
3470.271	4973
3471.985	4897
3473.698	4847
3475.414	4859
3477.126	4834
3478.838	4908
3480.55	4879
3482.263	4851
3483.975	4820
3485.686	4924
3487.396	4842
3489.106	4880
3490.817	4815
3492.526	4831
3494.236	4912
3495.944	4846
3497.652	4761
3499.359	4787
3501.066	4766
3502.775	4697
3504.481	4775
3506.187	4738
3507.893	4793
3509.598	4742
3511.304	4741
3513.009	4720
3514.713	4645
3516.417	4624
3518.12	4730
3519.821	4659
3521.525	4616
3523.228	4687
3524.929	4631
3526.631	4688
3528.33	4675
3530.032	4637
3531.733	4716
3533.433	4657
3535.131	4617
3536.83	4608
3538.529	4715
3540.227	4643
3541.925	4599
3543.623	4625
3545.319	4631
3547.016	4614
3548.712	4575
3550.408	4633
3552.103	4513
3553.798	4577
3555.491	4636
3557.188	4583
3558.88	4510
3560.574	4539
3562.266	4537
3563.959	4505
3565.651	4549
3567.343	4562
3569.035	4564
3570.725	4424
3572.415	4508
3574.106	4581
3575.797	4548
3577.485	4455
3579.174	4404
3580.863	4553
3582.551	4511
3584.238	4447
3585.926	4548
3587.613	4534
3589.3	4388
3590.986	4449
3592.671	4452
3594.357	4537
3596.042	4390
3597.726	4367
3599.41	4539
3601.094	4417
3602.778	4367
3604.461	4319
3606.143	4495
3607.825	4497
3609.507	4395
3611.188	4398
3612.87	4282
3614.551	4391
3616.229	4309
3617.909	4285
3619.589	4345
3621.269	4293
3622.948	4266
3624.625	4344
3626.302	4312
3627.98	4318
3629.657	4265
3631.334	4227
3633.01	4343
3634.686	4262
3636.361	4229
3638.036	4265
3639.712	4308
3641.385	4247
3643.06	4253
3644.732	4211
3646.405	4220
3648.08	4259
3649.751	4165
3651.424	4220
3653.094	4194
3654.766	4194
3656.436	4072
3658.106	4228
3659.777	4140
3661.446	4159
3663.115	4179
3664.783	4228
3666.452	4161
3668.121	4087
3669.788	4179
3671.454	4103
3673.121	4102
3674.789	4174
3676.455	4151
3678.12	4154
3679.784	4133
3681.45	4166
3683.114	4112
3684.779	4145
3686.442	4157
3688.105	4093
3689.768	4124
3691.43	4036
3693.093	4095
3694.754	4135
3696.415	4108
3698.076	4156
3699.736	4121
3701.396	4145
3703.057	4073
3704.716	4054
3706.375	4069
3708.034	4095
3709.692	4148
3711.351	4097
3713.008	4092
3714.665	4167
3716.321	4055
3717.977	4034
3719.634	3981
3721.29	4040
3722.945	4057
3724.598	4059
3726.253	4040
3727.907	3938
3729.561	4049
3731.214	4060
3732.867	4033
3734.518	3983
3736.171	3996
3737.824	4072
3739.474	4049
3741.125	4001
3742.775	3973
3744.425	3999
3746.074	3964
3747.725	3971
3749.373	3945
3751.022	3986
3752.669	3952
3754.318	3966
3755.966	3965
3757.612	4056
3759.259	3953
3760.905	3948
3762.55	3979
3764.197	3958
3765.842	3958
3767.486	3968
3769.131	3929
3770.774	3920
3772.417	3853
3774.061	3899
3775.705	3840
3777.347	3893
3778.988	3911
3780.629	3892
3782.271	3854
3783.912	3940
3785.552	3919
3787.192	3890
3788.831	3884
3790.472	3992
3792.112	3834
3793.75	3858
3795.388	3894
3797.024	3830
3798.661	3807
3800.3	3866
3801.936	3801
3803.572	3838
3805.208	3715
3806.844	3876
3808.48	3829
3810.115	3826
3811.748	3874
3813.382	3775
3815.016	3856
3816.649	3727
3818.283	3783
3819.914	3874
3821.547	3767
3823.178	3846
3824.809	3734
3826.441	3804
3828.072	3750
3829.701	3696
3831.331	3769
3832.96	3791
3834.591	3808
3836.219	3687
3837.847	3814
3839.475	3719
3841.102	3729
3842.729	3685
3844.357	3880
3845.984	3730
3847.609	3731
3849.234	3687
3850.86	3722
3852.485	3730
3854.11	3750
3855.734	3817
3857.357	3669
3858.981	3780
3860.603	3705
3862.227	3720
3863.848	3694
3865.471	3758
3867.092	3744
3868.713	3737
3870.334	3619
3871.954	3701
3873.575	3627
3875.194	3701
3876.813	3615
3878.433	3653
3880.051	3725
3881.669	3629
3883.286	3667
3884.904	3802
3886.52	3603
3888.138	3760
3889.754	3642
3891.37	3635
3892.985	3669
3894.6	3686
3896.216	3665
3897.831	3657
3899.444	3628
3901.058	3701
3902.67	3670
3904.283	3635
3905.897	3599
3907.509	3616
3909.121	3614
3910.731	3631
3912.342	3623
3913.954	3659
3915.563	3733
3917.174	3573
3918.783	3616
3920.391	3699
3922.002	3593
3923.611	3547
3925.218	3507
3926.826	3563
3928.432	3574
3930.039	3609
3931.647	3583
3933.253	3478
3934.859	3615
3936.464	3576
3938.068	3550
3939.675	3593
3941.278	3514
3942.883	3528
3944.486	3529
3946.089	3575
3947.692	3482
3949.295	3547
3950.898	3551
3952.499	3616
3954.1	3484
3955.7	3589
3957.303	3573
3958.903	3465
3960.502	3541
3962.101	3497
3963.7	3540
3965.301	3503
3966.899	3570
3968.497	3509
3970.094	3459
3971.691	3515
3973.288	3469
3974.885	3565
3976.481	3441
3978.077	3460
3979.672	3482
3981.267	3521
3982.863	3470
3984.457	3465
3986.051	3343
3987.645	3450
3989.238	3445
3990.831	3441
3992.425	3455
3994.017	3387
3995.607	3426
3997.199	3414
3998.79	3432
4000.382	3452
4001.973	3329
4003.561	3482
4005.151	3381
4006.741	3357
4008.331	3412
4009.918	3366
4011.507	3353
4013.095	3347
4014.681	3339
4016.269	3395
4017.856	3218
4019.443	3386
4021.028	3405
4022.614	3278
4024.199	3301
4025.785	3406
4027.37	3333
4028.953	3372
4030.536	3348
4032.12	3341
4033.704	3293
4035.287	3329
4036.869	3361
4038.45	3309
4040.032	3328
4041.613	3287
4043.195	3291
4044.776	3228
4046.356	3340
4047.935	3307
4049.515	3276
4051.095	3260
4052.674	3293
4054.251	3272
4055.829	3313
4057.406	3280
4058.985	3215
4060.562	3279
4062.139	3302
4063.715	3309
4065.29	3205
4066.865	3233
4068.442	3242
4070.016	3258
4071.59	3291
4073.164	3154
4074.738	3234
4076.312	3183
4077.885	3337
4079.458	3220
4081.03	3211
4082.602	3204
4084.173	3225
4085.745	3171
4087.315	3187
4088.886	3235
4090.456	3240
4092.026	3124
4093.596	3209
4095.165	3175
4096.734	3206
4098.301	3173
4099.869	3179
4101.437	3196
4103.006	3176
4104.572	3252
4106.139	3121
4107.704	3078
4109.27	3215
4110.837	3180
4112.401	3113
4113.966	3116
4115.53	3074
4117.094	3149
4118.659	3169
4120.223	3120
4121.785	3165
4123.347	3143
4124.909	3114
4126.471	3048
4128.034	3087
4129.595	3121
4131.155	3110
4132.716	3102
4134.275	3122
4135.836	3022
4137.395	3095
4138.955	3060
4140.513	3059
4142.071	3081
4143.628	3084
4145.188	3069
4146.745	3092
4148.302	3099
4149.858	3139
4151.414	3052
4152.971	2976
4154.526	3067
4156.081	2939
4157.635	3052
4159.189	3052
4160.745	3086
4162.298	3038
4163.852	3064
4165.405	2985
4166.957	3097
4168.51	3029
4170.063	2982
4171.614	2989
4173.166	3053
4174.717	3025
4176.267	2975
4177.817	2955
4179.368	3003
4180.917	3016
4182.466	2896
4184.016	2986
4185.564	3090
4187.112	2932
4188.66	3015
4190.207	2979
4191.754	3006
4193.301	2964
4194.848	2887
4196.394	3011
4197.94	2965
4199.484	2957
4201.03	2935
4202.575	2938
4204.12	2983
4205.663	2943
4207.207	2862
4208.75	2905
4210.292	2891
4211.836	2913
4213.378	2923
4214.92	2883
4216.46	2861
4218.002	2911
4219.544	2849
4221.083	2900
4222.625	2931
4224.164	2845
4225.703	2919
4227.244	2938
4228.782	2922
4230.32	2914
4231.857	2921
4233.395	2858
4234.933	2903
4236.471	2907
4238.007	2926
4239.542	2845
4241.078	2878
4242.614	2900
4244.15	2866
4245.685	2854
4247.219	2825
4248.753	2780
4250.287	2859
4251.82	2927
4253.354	2830
4254.887	2846
4256.419	2838
4257.951	2978
4259.483	2864
4261.016	2842
4262.547	2884
4264.078	2824
4265.608	2854
4267.137	2876
4268.668	2848
4270.197	2869
4271.727	2789
4273.254	2803
4274.783	2792
4276.311	2711
4277.84	2838
4279.366	2866
4280.894	2829
4282.42	2803
4283.946	2781
4285.473	2806
4286.998	2788
4288.523	2729
4290.047	2815
4291.572	2824
4293.096	2738
4294.622	2812
4296.144	2758
4297.668	2814
4299.19	2783
4300.713	2699
4302.236	2750
4303.758	2692
4305.279	2681
4306.799	2769
4308.321	2783
4309.842	2763
4311.361	2796
4312.882	2715
4314.401	2687
