400.0961	4973
402.6185	5036
405.1424	4921
407.6635	4987
410.1838	5060
412.7035	5126
415.2225	5118
417.7388	5017
420.2585	5052
422.7754	5199
425.2917	5211
427.8072	5335
430.3221	5362
432.8363	5309
435.3498	5357
437.8626	5368
440.3727	5388
442.8841	5374
445.3969	5413
447.907	5340
450.4142	5368
452.9229	5436
455.4289	5356
457.9362	5338
460.4449	5362
462.9488	5347
465.454	5291
467.9566	5343
470.4604	5360
472.9637	5346
475.4662	5456
477.966	5406
480.4671	5350
482.9656	5373
485.4633	5435
487.9645	5472
490.4608	5407
492.9566	5361
495.4536	5462
497.948	5379
500.4437	5445
502.9387	5460
505.431	5589
507.9226	5502
510.4136	5515
512.9079	5615
515.3975	5570
517.8864	5467
520.3746	5497
522.8622	5515
525.3491	5548
527.8394	5561
530.3249	5565
532.8098	5635
535.2939	5539
537.7774	5643
540.2623	5532
542.7444	5651
545.2259	5579
547.7067	5580
550.1868	5579
552.6683	5512
555.147	5557
557.6231	5641
560.1005	5544
562.5773	5646
565.0534	5617
567.5308	5648
570.0056	5724
572.4776	5721
574.951	5775
577.4237	5836
579.8978	5754
582.3671	5844
584.8378	5829
587.3079	5848
589.7773	5898
592.244	5951
594.714	5852
597.1793	5847
599.6461	5823
602.1121	5765
604.5754	5839
607.0421	5739
609.5042	5861
611.9675	5805
614.4282	5798
616.8902	5845
619.3515	5821
621.8122	5734
624.2702	5786
626.7296	5827
629.1863	5803
631.6423	5720
634.1017	5752
636.5563	5863
639.0104	5881
641.4658	5700
643.9185	5770
646.3725	5886
648.8239	5773
651.2766	6009
653.7266	5823
656.176	5843
658.6247	6047
661.0748	5868
663.5242	5821
665.9709	5929
668.417	5964
670.8624	5968
673.3092	5975
675.7533	5916
678.1968	6004
680.6395	5882
683.0817	5953
685.5251	6046
687.9659	5967
690.4061	6057
692.8456	5950
695.2844	6056
697.7226	5963
700.1621	6046
702.599	6069
705.0332	6060
707.4688	6084
709.9036	6048
712.3399	6157
714.7735	6066
717.2044	6097
719.6367	6128
722.0683	6088
724.4993	6228
726.9296	6271
729.3593	6111
731.7883	6096
734.2147	6236
736.6423	6215
739.0714	6152
741.4958	6225
743.9216	6241
746.3447	6331
748.7691	6285
751.1929	6384
753.616	6265
756.0366	6537
758.4584	6405
760.8776	6393
763.2982	6461
765.718	6493
768.1373	6390
770.5539	6543
772.9698	6409
775.3871	6541
777.8038	6501
780.2178	6371
782.6332	6437
785.0459	6507
787.458	6556
789.8714	6586
792.2842	6431
794.6943	6526
797.1038	6424
799.5127	6368
801.9209	6513
804.3324	6483
806.7393	6527
809.1456	6402
811.5513	6576
813.9562	6634
816.3625	6590
818.7663	6667
821.1693	6627
823.5718	6667
825.9735	6582
828.3746	6470
830.7771	6655
833.177	6427
835.5762	6460
837.9747	6644
840.3727	6608
842.772	6579
845.1666	6683
847.5626	6528
849.958	6715
852.3527	6654
854.7488	6682
857.1403	6699
859.5331	6747
861.9253	6736
864.3168	6750
866.7057	6553
869.098	6570
871.4876	6606
873.8746	6676
876.263	6748
878.6487	6644
881.0378	6695
883.4243	6697
885.8081	6597
888.1933	6762
890.5759	6647
892.9598	6667
895.343	6684
897.7256	6660
900.1057	6679
902.4871	6591
904.8659	6796
907.246	6839
909.6254	6836
912.0023	6872
914.3786	6869
916.7562	6934
919.1331	6981
921.5074	7038
923.8831	7094
926.2562	7068
928.6287	7015
931.0005	7000
933.3757	7021
935.7462	7293
938.1162	6990
940.4855	7270
942.8542	7153
945.2242	7294
947.5916	7450
949.9584	7613
952.3266	7690
954.6921	7862
957.0571	8109
959.4233	8511
961.787	8752
964.15	8572
966.5125	8348
968.8742	8061
971.2354	7771
973.5959	7463
975.9559	7327
978.3151	7309
980.6738	7151
983.0338	7106
985.3912	7146
987.7461	7003
990.1022	7042
992.4578	6934
994.8127	6845
997.1689	6943
999.5207	6969
1001.874	6930
1004.226	6999
1006.576	7042
1008.929	6977
1011.28	6945
1013.628	7051
1015.977	7010
1018.324	7098
1020.674	6998
1023.019	6974
1025.366	7073
1027.713	7089
1030.056	6984
1032.399	7075
1034.746	7033
1037.087	7055
1039.431	7179
1041.771	7169
1044.113	6995
1046.454	7158
1048.793	7245
1051.133	7100
1053.471	6947
1055.807	7125
1058.146	7136
1060.483	7221
1062.818	7276
1065.153	7119
1067.489	7242
1069.822	7201
1072.156	7241
1074.488	7135
1076.82	7176
1079.15	7317
1081.48	7228
1083.814	7174
1086.143	7146
1088.471	7194
1090.799	7143
1093.126	7151
1095.452	7044
1097.78	7155
1100.105	7167
1102.43	7036
1104.754	7067
1107.077	6979
1109.4	7203
1111.722	7065
1114.044	7107
1116.365	7170
1118.685	7064
1121.005	7119
1123.324	7165
1125.643	7237
1127.961	7164
1130.278	7019
1132.595	7095
1134.911	7080
1137.226	7287
1139.541	7036
1141.854	7113
1144.167	7115
1146.482	7115
1148.793	7081
1151.105	7101
1153.414	7215
1155.725	7021
1158.033	7114
1160.344	7253
1162.651	7171
1164.959	7161
1167.265	7065
1169.572	7131
1171.878	7147
1174.184	7260
1176.488	7049
1178.79	7237
1181.094	7270
1183.396	7153
1185.699	7117
1188.001	7128
1190.301	7167
1192.6	7120
1194.9	7217
1197.2	7132
1199.497	7368
1201.794	7076
1204.09	7115
1206.387	7185
1208.684	7243
1210.978	7199
1213.272	7100
1215.565	7166
1217.858	7147
1220.15	7224
1222.443	7224
1224.734	7124
1227.024	7186
1229.313	7339
1231.602	7238
1233.892	7391
1236.18	7410
1238.467	7391
1240.754	7360
1243.04	7444
1245.325	7536
1247.612	7495
1249.896	7465
1252.178	7518
1254.461	7510
1256.743	7436
1259.027	7516
1261.308	7463
1263.587	7483
1265.867	7409
1268.146	7514
1270.425	7399
1272.703	7312
1274.981	7418
1277.256	7429
1279.532	7420
1281.808	7508
1284.083	7363
1286.358	7384
1288.63	7452
1290.904	7221
1293.175	7366
1295.449	7340
1297.719	7325
1299.99	7311
1302.259	7286
1304.529	7504
1306.798	7271
1309.065	7290
1311.333	7375
1313.599	7345
1315.866	7371
1318.131	7454
1320.396	7427
1322.66	7389
1324.925	7318
1327.187	7377
1329.448	7400
1331.711	7530
1333.974	7490
1336.234	7371
1338.493	7405
1340.752	7411
1343.01	7236
1345.269	7412
1347.526	7421
1349.784	7348
1352.04	7332
1354.295	7243
1356.552	7337
1358.806	7305
1361.059	7383
1363.312	7430
1365.564	7503
1367.818	7299
1370.069	7355
1372.318	7456
1374.568	7411
1376.817	7438
1379.066	7478
1381.316	7425
1383.564	7540
1385.809	7395
1388.056	7489
1390.301	7510
1392.549	7588
1394.793	7618
1397.036	7556
1399.279	7552
1401.522	7557
1403.763	7630
1406.007	7634
1408.248	7590
1410.487	7598
1412.727	7591
1414.965	7606
1417.205	7615
1419.442	7687
1421.68	7429
1423.915	7542
1426.152	7620
1428.388	7506
1430.623	7590
1432.857	7624
1435.091	7676
1437.323	7668
1439.556	7714
1441.789	7773
1444.019	7773
1446.25	7730
1448.48	7821
1450.708	7811
1452.938	7866
1455.167	7783
1457.394	7807
1459.62	7821
1461.846	7757
1464.073	7772
1466.299	7689
1468.523	7765
1470.746	7677
1472.969	7615
1475.191	7574
1477.415	7525
1479.636	7591
1481.858	7543
1484.078	7482
1486.298	7525
1488.518	7427
1490.736	7556
1492.954	7442
1495.169	7431
1497.386	7489
1499.602	7396
1501.819	7461
1504.034	7440
1506.248	7318
1508.462	7319
1510.675	7353
1512.888	7389
1515.1	7411
1517.311	7440
1519.522	7288
1521.732	7467
1523.942	7411
1526.151	7525
1528.36	7295
1530.566	7554
1532.773	7398
1534.98	7343
1537.187	7429
1539.392	7306
1541.596	7428
1543.801	7553
1546.005	7474
1548.208	7550
1550.411	7399
1552.612	7501
1554.814	7582
1557.013	7469
1559.212	7416
1561.414	7537
1563.612	7526
1565.811	7616
1568.007	7427
1570.203	7547
1572.403	7626
1574.598	7464
1576.792	7468
1578.988	7491
1581.181	7630
1583.376	7757
1585.568	7583
1587.761	7548
1589.952	7662
1592.143	7709
1594.333	7584
1596.524	7649
1598.715	7762
1600.903	7625
1603.091	7600
1605.278	7594
1607.466	7702
1609.652	7689
1611.838	7673
1614.023	7707
1616.207	7752
1618.391	7568
1620.576	7547
1622.759	7661
1624.941	7673
1627.123	7665
1629.304	7755
1631.484	7719
1633.664	7750
1635.844	7719
1638.022	7719
1640.201	7648
1642.38	7648
1644.556	7790
1646.732	7765
1648.908	7794
1651.084	7785
1653.257	7835
1655.433	7804
1657.607	7780
1659.779	7904
1661.951	7708
1664.122	7796
1666.295	7895
1668.467	7889
1670.635	7783
1672.805	7923
1674.973	7735
1677.142	7767
1679.31	7825
1681.478	7736
1683.644	7639
1685.81	7807
1687.975	7803
1690.142	7839
1692.305	7687
1694.468	7797
1696.632	7699
1698.794	7680
1700.957	7634
1703.119	7746
1705.279	7512
1707.439	7630
1709.598	7645
1711.758	7574
1713.917	7632
1716.075	7623
1718.231	7666
1720.388	7507
1722.543	7579
1724.702	7565
1726.856	7594
1729.01	7677
1731.164	7600
1733.317	7539
1735.471	7575
1737.623	7626
1739.774	7597
1741.925	7486
1744.075	7687
1746.225	7470
1748.376	7652
1750.524	7694
1752.672	7682
1754.82	7636
1756.965	7621
1759.113	7664
1761.259	7556
1763.405	7850
1765.549	7600
1767.694	7666
1769.836	7720
1771.981	7709
1774.123	7576
1776.264	7695
1778.405	7556
1780.546	7634
1782.687	7645
1784.827	7663
1786.966	7688
1789.103	7672
1791.242	7655
1793.381	7738
1795.517	7616
1797.653	7625
1799.788	7732
1801.923	7618
1804.057	7581
1806.193	7647
1808.326	7689
1810.457	7724
1812.59	7859
1814.721	7777
1816.855	7638
1818.984	7718
1821.113	7676
1823.244	7747
1825.372	7641
1827.499	7640
1829.63	7759
1831.756	7624
1833.882	7592
1836.007	7633
1838.132	7643
1840.26	7631
1842.384	7557
1844.507	7612
1846.63	7518
1848.752	7615
1850.875	7550
1852.996	7661
1855.118	7686
1857.238	7503
1859.358	7517
1861.477	7653
1863.597	7528
1865.715	7734
1867.832	7592
1869.948	7770
1872.064	7503
1874.181	7665
1876.297	7576
1878.411	7560
1880.526	7458
1882.639	7582
1884.752	7652
1886.865	7651
1888.977	7570
1891.089	7712
1893.2	7587
1895.308	7712
1897.42	7685
1899.53	7667
1901.639	7670
1903.745	7777
1905.853	7683
1907.962	7742
1910.067	7546
1912.174	7732
1914.278	7734
1916.383	7683
1918.486	7717
1920.592	7887
1922.694	7713
1924.797	7744
1926.898	7626
1929	7811
1931.102	7720
1933.203	7812
1935.301	7796
1937.401	7824
1939.499	7609
1941.598	7621
1943.697	7855
1945.793	7784
1947.888	7689
1949.985	7789
1952.08	7613
1954.176	7749
1956.269	7765
1958.364	7722
1960.457	7716
1962.549	7653
1964.642	7670
1966.733	7723
1968.823	7723
1970.913	7803
1973.005	7638
1975.093	7802
1977.184	7705
1979.271	7677
1981.359	7600
1983.446	7603
1985.532	7705
1987.619	7702
1989.705	7715
1991.789	7733
1993.874	7629
1995.956	7634
1998.041	7777
2000.123	7705
2002.206	7671
2004.287	7704
2006.368	7671
2008.449	7590
2010.529	7649
2012.609	7603
2014.688	7626
2016.766	7542
2018.843	7628
2020.922	7694
2022.999	7744
2025.074	7586
2027.15	7790
2029.225	7691
2031.299	7501
2033.375	7704
2035.447	7619
2037.52	7723
2039.592	7582
2041.664	7589
2043.736	7656
2045.807	7667
2047.876	7643
2049.947	7572
2052.015	7530
2054.086	7663
2056.153	7624
2058.221	7700
2060.288	7714
2062.353	7684
2064.42	7606
2066.486	7594
2068.55	7648
2070.614	7483
2072.678	7689
2074.741	7575
2076.805	7691
2078.866	7632
2080.929	7628
2082.99	7472
2085.049	7573
2087.109	7654
2089.17	7590
2091.228	7745
2093.286	7566
2095.344	7668
2097.4	7724
2099.46	7469
2101.516	7681
2103.572	7662
2105.626	7732
2107.679	7494
2109.735	7723
2111.788	7482
2113.841	7545
2115.894	7660
2117.945	7705
2119.997	7582
2122.049	7514
2124.1	7562
2126.148	7640
2128.197	7598
2130.246	7689
2132.296	7619
2134.342	7590
2136.39	7545
2138.437	7601
2140.483	7528
2142.527	7534
2144.574	7569
2146.619	7707
2148.661	7569
2150.705	7552
2152.747	7576
2154.792	7567
2156.832	7519
2158.874	7565
2160.915	7528
2162.954	7580
2164.995	7506
2167.034	7513
2169.072	7531
2171.111	7516
2173.148	7536
2175.186	7527
2177.223	7352
2179.258	7524
2181.294	7533
2183.328	7528
2185.362	7520
2187.398	7488
2189.431	7554
2191.463	7406
2193.495	7504
2195.528	7474
2197.56	7501
2199.59	7418
2201.62	7459
2203.649	7518
2205.678	7544
2207.708	7446
2209.737	7414
2211.764	7399
2213.791	7333
2215.817	7371
2217.843	7493
2219.87	7423
2221.895	7315
2223.919	7314
2225.942	7510
2227.966	7340
2229.988	7397
2232.012	7272
2234.032	7456
2236.054	7381
2238.074	7253
2240.095	7501
2242.116	7475
2244.135	7435
2246.153	7234
2248.171	7349
2250.188	7415
2252.208	7442
2254.223	7325
2256.239	7377
2258.255	7362
2260.269	7353
2262.283	7273
2264.3	7430
2266.312	7460
2268.325	7430
2270.336	7364
2272.349	7431
2274.362	7379
2276.372	7406
2278.383	7481
2280.392	7392
2282.402	7441
2284.409	7379
2286.418	7377
2288.427	7302
2290.433	7289
2292.441	7374
2294.446	7410
2296.453	7366
2298.459	7289
2300.463	7436
2302.466	7288
2304.471	7321
2306.475	7419
2308.477	7365
2310.478	7287
2312.481	7271
2314.481	7342
2316.481	7354
2318.482	7214
2320.482	7284
2322.48	7277
2324.48	7395
2326.478	7259
2328.476	7316
2330.473	7143
2332.469	7263
2334.465	7191
2336.46	7233
2338.454	7244
2340.45	7301
2342.444	7252
2344.437	7210
2346.43	7237
2348.421	7222
2350.414	7217
2352.405	7221
2354.396	7307
2356.386	7260
2358.376	7247
2360.366	7190
2362.355	7272
2364.343	7185
2366.331	7168
2368.317	7184
2370.304	7257
2372.292	7236
2374.278	7204
2376.262	7253
2378.247	7252
2380.23	7200
2382.216	7210
2384.199	7060
2386.181	7160
2388.163	7095
2390.144	7068
2392.127	7095
2394.107	7113
2396.087	7136
2398.066	7104
2400.046	7110
2402.023	7081
2404.004	7149
2405.981	7094
2407.957	7149
2409.934	6992
2411.91	7119
2413.886	7027
2415.862	7202
2417.836	7104
2419.809	7152
2421.784	6985
2423.756	7139
2425.73	7040
2427.701	7098
2429.672	7082
2431.644	7039
2433.615	7042
2435.586	7059
2437.555	7022
2439.523	7075
2441.491	7150
2443.459	7078
2445.428	7044
2447.395	7113
2449.361	7104
2451.327	7075
2453.292	6983
2455.257	7112
2457.223	6939
2459.187	6968
2461.15	7153
2463.113	7078
2465.076	7059
2467.039	7080
2468.999	6978
2470.96	7057
2472.921	6957
2474.881	6995
2476.841	6879
2478.8	6942
2480.759	7033
2482.717	6982
2484.675	6980
2486.63	6910
2488.589	6928
2490.545	6887
2492.5	6977
2494.455	6987
2496.408	6878
2498.364	6898
2500.318	6926
2502.27	6892
2504.223	6852
2506.174	6929
2508.126	6872
2510.078	6884
2512.03	6933
2513.979	6946
2515.927	6948
2517.877	6995
2519.826	6875
2521.775	6917
2523.722	6959
2525.668	6877
2527.616	6825
2529.561	6881
2531.508	6900
2533.452	6932
2535.398	6880
2537.342	6862
2539.284	6984
2541.229	7009
2543.173	6941
2545.114	6829
2547.055	6885
2548.996	6841
2550.938	6794
2552.878	6858
2554.817	6929
2556.756	6869
2558.695	6892
2560.633	6845
2562.572	6796
2564.509	6945
2566.445	6781
2568.382	6873
2570.317	6849
2572.254	6811
2574.189	6932
2576.123	6832
2578.057	6821
2579.99	6862
2581.923	6808
2583.855	6984
2585.788	6863
2587.719	6808
2589.65	7018
2591.579	6907
2593.511	6869
2595.44	6830
2597.37	6957
2599.297	6975
2601.225	6983
2603.153	6772
2605.08	6956
2607.007	6813
2608.932	6931
2610.858	6952
2612.782	6884
2614.709	6843
2616.632	6905
2618.556	6801
2620.478	6985
2622.401	6954
2624.324	6843
2626.247	6902
2628.167	6887
2630.088	7037
2632.008	6789
2633.928	6874
2635.848	6779
2637.766	6885
2639.684	6946
2641.603	6978
2643.519	6861
2645.437	6954
2647.353	6878
2649.27	6858
2651.184	6847
2653.099	6855
2655.014	6833
2656.928	6757
2658.842	6870
2660.755	6871
2662.667	6811
2664.579	6805
2666.491	6845
2668.402	6770
2670.312	6882
2672.222	6863
2674.132	6906
2676.042	6809
2677.951	6813
2679.859	6817
2681.766	6723
2683.674	6871
2685.582	6845
2687.488	6850
2689.392	6808
2691.298	6850
2693.202	6759
2695.107	6737
2697.012	6728
2698.914	6795
2700.817	6700
2702.72	6744
2704.622	6665
2706.524	6848
2708.425	6665
2710.326	6761
2712.225	6789
2714.125	6631
2716.024	6867
2717.923	6838
2719.822	6788
2721.719	6614
2723.616	6576
2725.512	6776
2727.41	6616
2729.305	6730
2731.201	6765
2733.095	6677
2734.99	6793
2736.884	6698
2738.778	6727
2740.67	6744
2742.562	6717
2744.455	6647
2746.346	6605
2748.238	6574
2750.129	6764
2752.018	6568
2753.907	6743
2755.797	6654
2757.687	6617
2759.575	6667
2761.462	6510
2763.349	6512
2765.237	6724
2767.124	6615
2769.009	6701
2770.894	6581
2772.779	6718
2774.663	6683
2776.547	6642
2778.431	6600
2780.314	6580
2782.197	6661
2784.078	6647
2785.96	6590
2787.842	6709
2789.723	6697
2791.603	6591
2793.483	6575
2795.362	6655
2797.241	6566
2799.121	6565
2800.997	6620
2802.874	6654
2804.751	6561
2806.628	6420
2808.506	6592
2810.38	6530
2812.255	6515
2814.13	6540
2816.003	6502
2817.878	6604
2819.752	6547
2821.623	6575
2823.496	6565
2825.368	6611
2827.238	6538
2829.111	6602
2830.98	6554
2832.851	6461
2834.719	6473
2836.589	6591
2838.458	6619
2840.327	6566
2842.193	6665
2844.061	6600
2845.927	6647
2847.794	6574
2849.66	6562
2851.525	6675
2853.39	6678
2855.254	6678
2857.117	6695
2858.983	6696
2860.845	6696
2862.707	6621
2864.569	6805
2866.431	6764
2868.293	6780
2870.154	6773
2872.013	6797
2873.873	6876
2875.733	7032
2877.592	6938
2879.451	7121
2881.309	6903
2883.166	7067
2885.022	7169
2886.879	7145
2888.736	7112
2890.591	7187
2892.446	7193
2894.301	7248
2896.155	7109
2898.009	7152
2899.863	7150
2901.716	7059
2903.568	7138
2905.419	7111
2907.27	7208
2909.123	7254
2910.973	7155
2912.824	7301
2914.673	7312
2916.521	7340
2918.372	7431
2920.22	7451
2922.067	7423
2923.914	7532
2925.761	7465
2927.607	7613
2929.455	7710
2931.301	7728
2933.144	7725
2934.99	7825
2936.833	7947
2938.678	7982
2940.522	7954
2942.364	7992
2944.207	8102
2946.048	8056
2947.891	8198
2949.731	8168
2951.571	8044
2953.412	8090
2955.25	7961
2957.09	8067
2958.93	7883
2960.767	7920
2962.606	7713
2964.443	7914
2966.279	7713
2968.116	7641
2969.953	7477
2971.788	7513
2973.623	7422
2975.457	7297
2977.292	7316
2979.127	7245
2980.959	7290
2982.792	7152
2984.624	7148
2986.455	7172
2988.288	7156
2990.119	7130
2991.949	7006
2993.779	7121
2995.608	6862
2997.439	6849
2999.268	6928
3001.096	6821
3002.923	6760
3004.751	6808
3006.578	6649
3008.406	6620
3010.232	6580
3012.057	6641
3013.883	6597
3015.706	6397
3017.532	6459
3019.356	6441
3021.179	6381
3023.002	6411
3024.823	6370
3026.646	6389
3028.469	6285
3030.289	6309
3032.11	6343
3033.93	6321
3035.749	6199
3037.57	6174
3039.39	6359
3041.207	6271
3043.026	6301
3044.842	6205
3046.661	6201
3048.477	6330
3050.294	6108
3052.109	6163
3053.925	6227
3055.739	6120
3057.555	6174
3059.368	6071
3061.181	6253
3062.995	6229
3064.807	6190
3066.62	6155
3068.433	6176
3070.243	6152
3072.054	6092
3073.865	6121
3075.675	6159
3077.485	6106
3079.293	6136
3081.102	6055
3082.911	6006
3084.719	6115
3086.527	6160
3088.333	6091
3090.139	6050
3091.945	6111
3093.75	6089
3095.557	5892
3097.361	6051
3099.165	5952
3100.969	5922
3102.772	5983
3104.575	5960
3106.379	6073
3108.181	5876
3109.982	5917
3111.783	5844
3113.584	5957
3115.386	5847
3117.186	5887
3118.985	5957
3120.783	5817
3122.582	5944
3124.381	5908
3126.179	5728
3127.975	5918
3129.772	5930
3131.569	5929
3133.365	5746
3135.161	5872
3136.956	5954
3138.751	6003
3140.544	5780
3142.338	5882
3144.132	5773
3145.925	5898
3147.717	5773
3149.509	5768
3151.301	5817
3153.091	5750
3154.884	5792
3156.673	5775
3158.462	5905
3160.252	5898
3162.041	5807
3163.831	5722
3165.618	5805
3167.405	5887
3169.193	5741
3170.979	5751
3172.767	5787
3174.553	5893
3176.338	5899
3178.123	5671
3179.907	5711
3181.692	5693
3183.477	5776
3185.259	5813
3187.042	5709
3188.824	5691
3190.607	5725
3192.389	5841
3194.17	5745
3195.951	5724
3197.73	5757
3199.51	5660
3201.289	5781
3203.07	5725
3204.848	5764
3206.626	5827
3208.403	5737
3210.18	5621
3211.959	5641
3213.735	5796
3215.511	5665
3217.285	5664
3219.06	5765
3220.836	5718
3222.611	5660
3224.384	5671
3226.158	5667
3227.929	5616
3229.702	5848
3231.476	5679
3233.248	5699
3235.018	5736
3236.789	5712
3238.56	5670
3240.33	5821
3242.1	5668
3243.869	5557
3245.637	5704
3247.405	5735
3249.172	5704
3250.941	5759
3252.707	5777
3254.474	5682
3256.24	5768
3258.006	5709
3259.772	5787
3261.537	5654
3263.301	5712
3265.065	5757
3266.828	5769
3268.592	5696
3270.355	5628
3272.117	5603
3273.878	5569
3275.64	5656
3277.401	5642
3279.162	5701
3280.922	5654
3282.682	5643
3284.441	5700
3286.199	5744
3287.959	5731
3289.716	5656
3291.475	5712
3293.232	5697
3294.988	5743
3296.744	5661
3298.501	5533
3300.256	5737
3302.011	5778
3303.766	5644
3305.52	5747
3307.275	5654
3309.028	5639
3310.781	5579
3312.533	5659
3314.285	5743
3316.038	5612
3317.789	5676
3319.54	5708
3321.289	5675
3323.039	5573
3324.789	5595
3326.539	5547
3328.288	5673
3330.035	5668
3331.783	5547
3333.531	5705
3335.28	5524
3337.025	5592
3338.771	5710
3340.518	5445
3342.262	5584
3344.009	5574
3345.753	5573
3347.497	5539
3349.24	5660
3350.983	5507
3352.726	5561
3354.469	5477
3356.212	5486
3357.952	5527
3359.694	5617
3361.434	5471
3363.176	5510
3364.916	5570
3366.654	5555
3368.394	5517
3370.132	5424
3371.871	5552
3373.61	5338
3375.346	5412
3377.083	5471
3378.82	5501
3380.556	5411
3382.292	5461
3384.027	5467
3385.763	5441
3387.497	5451
3389.231	5517
3390.965	5470
3392.698	5343
3394.431	5394
3396.164	5362
3397.896	5492
3399.627	5405
3401.36	5414
3403.09	5324
3404.82	5369
3406.55	5364
3408.279	5389
3410.01	5443
3411.738	5486
3413.467	5293
3415.194	5375
3416.92	5276
3418.647	5394
3420.375	5228
3422.102	5252
3423.827	5277
3425.553	5411
3427.277	5334
3429.003	5260
3430.727	5396
3432.451	5263
3434.173	5198
3435.896	5341
3437.62	5342
3439.343	5267
3441.063	5251
3442.785	5229
3444.505	5264
3446.226	5365
3447.948	5304
3449.666	5154
3451.386	5205
3453.104	5161
3454.823	5168
3456.541	5158
3458.259	5197
3459.976	5260
3461.693	5154
3463.408	5222
3465.125	5120
3466.841	5232
3468.556	5107
3470.271	5104
3471.985	5076
3473.698	5112
3475.414	5177
3477.126	5101
3478.838	5160
3480.55	5120
3482.263	4995
3483.975	5047
3485.686	5064
3487.396	4919
3489.106	4977
3490.817	5011
3492.526	5049
3494.236	4969
3495.944	4955
3497.652	4981
3499.359	5016
3501.066	4963
3502.775	4987
3504.481	4994
3506.187	4941
3507.893	5014
3509.598	4989
3511.304	4957
3513.009	5010
3514.713	5039
3516.417	4943
3518.12	4815
3519.821	4955
3521.525	4892
3523.228	5002
3524.929	4969
3526.631	4953
3528.33	4931
3530.032	4826
3531.733	4866
3533.433	4938
3535.131	4851
3536.83	4892
3538.529	4829
3540.227	4866
3541.925	4936
3543.623	4888
3545.319	4953
3547.016	4891
3548.712	4731
3550.408	4738
3552.103	4805
3553.798	4858
3555.491	4790
3557.188	4740
3558.88	4782
3560.574	4754
3562.266	4801
3563.959	4865
3565.651	4844
3567.343	4822
3569.035	4855
3570.725	4738
3572.415	4741
3574.106	4724
3575.797	4806
3577.485	4679
3579.174	4738
3580.863	4682
3582.551	4672
3584.238	4791
3585.926	4802
3587.613	4718
3589.3	4722
3590.986	4674
3592.671	4644
3594.357	4702
3596.042	4706
3597.726	4636
3599.41	4667
3601.094	4569
3602.778	4669
3604.461	4655
3606.143	4558
3607.825	4636
3609.507	4596
3611.188	4479
3612.87	4636
3614.551	4533
3616.229	4541
3617.909	4598
3619.589	4593
3621.269	4520
3622.948	4518
3624.625	4554
3626.302	4576
3627.98	4601
3629.657	4594
3631.334	4404
3633.01	4395
3634.686	4503
3636.361	4484
3638.036	4479
3639.712	4525
3641.385	4399
3643.06	4470
3644.732	4454
3646.405	4387
3648.08	4450
3649.751	4449
3651.424	4513
3653.094	4508
3654.766	4420
3656.436	4448
3658.106	4381
3659.777	4407
3661.446	4370
3663.115	4387
3664.783	4396
3666.452	4389
3668.121	4410
3669.788	4446
3671.454	4378
3673.121	4349
3674.789	4402
3676.455	4383
3678.12	4386
3679.784	4365
3681.45	4351
3683.114	4307
3684.779	4319
3686.442	4233
3688.105	4265
3689.768	4327
3691.43	4382
3693.093	4375
3694.754	4414
3696.415	4318
3698.076	4228
3699.736	4271
3701.396	4277
3703.057	4209
3704.716	4296
3706.375	4320
3708.034	4248
3709.692	4266
3711.351	4244
3713.008	4245
3714.665	4247
3716.321	4228
3717.977	4244
3719.634	4180
3721.29	4282
3722.945	4313
3724.598	4280
3726.253	4334
3727.907	4259
3729.561	4222
3731.214	4360
3732.867	4195
3734.518	4248
3736.171	4301
3737.824	4264
3739.474	4203
3741.125	4140
3742.775	4244
3744.425	4210
3746.074	4260
3747.725	4215
3749.373	4235
3751.022	4214
3752.669	4163
3754.318	4211
3755.966	4242
3757.612	4160
3759.259	4187
3760.905	4140
3762.55	4081
3764.197	4089
3765.842	4177
3767.486	4130
3769.131	4178
3770.774	4098
3772.417	4172
3774.061	4117
3775.705	4090
3777.347	4128
3778.988	4061
3780.629	4109
3782.271	4147
3783.912	4189
3785.552	4072
3787.192	4205
3788.831	4087
3790.472	4085
3792.112	4033
3793.75	4039
3795.388	4118
3797.024	4050
3798.661	4005
3800.3	4117
3801.936	4009
3803.572	4087
3805.208	4041
3806.844	4050
3808.48	4022
3810.115	3994
3811.748	3950
3813.382	4002
3815.016	4086
3816.649	3985
3818.283	4059
3819.914	4022
3821.547	3962
3823.178	4048
3824.809	3970
3826.441	4058
3828.072	4041
3829.701	4072
3831.331	3947
3832.96	4013
3834.591	3907
3836.219	3925
3837.847	4060
3839.475	3837
3841.102	3952
3842.729	3962
3844.357	3906
3845.984	3942
3847.609	4062
3849.234	3810
3850.86	3809
3852.485	3919
3854.11	3950
3855.734	3905
3857.357	3947
3858.981	3934
3860.603	3926
3862.227	3890
3863.848	3917
3865.471	3923
3867.092	3867
3868.713	3855
3870.334	3870
3871.954	3899
3873.575	3894
3875.194	3852
3876.813	3938
3878.433	3924
3880.051	3903
3881.669	3816
3883.286	3772
3884.904	3810
3886.52	3837
3888.138	3770
3889.754	3791
3891.37	3902
3892.985	3747
3894.6	3790
3896.216	3809
3897.831	3803
3899.444	3765
3901.058	3871
3902.67	3810
3904.283	3856
3905.897	3831
3907.509	3828
3909.121	3827
3910.731	3867
3912.342	3801
3913.954	3759
3915.563	3762
3917.174	3770
3918.783	3864
3920.391	3772
3922.002	3810
3923.611	3782
3925.218	3856
3926.826	3815
3928.432	3744
3930.039	3703
3931.647	3722
3933.253	3811
3934.859	3729
3936.464	3774
3938.068	3749
3939.675	3731
3941.278	3722
3942.883	3771
3944.486	3778
3946.089	3812
3947.692	3831
3949.295	3723
3950.898	3753
3952.499	3702
3954.1	3777
3955.7	3757
3957.303	3640
3958.903	3704
3960.502	3707
3962.101	3697
3963.7	3711
3965.301	3669
3966.899	3637
3968.497	3688
3970.094	3663
3971.691	3632
3973.288	3615
3974.885	3663
3976.481	3683
3978.077	3611
3979.672	3666
3981.267	3581
3982.863	3699
3984.457	3624
3986.051	3646
3987.645	3582
3989.238	3590
3990.831	3578
3992.425	3576
3994.017	3617
3995.607	3568
3997.199	3589
3998.79	3559
4000.382	3639
4001.973	3634
4003.561	3504
4005.151	3509
4006.741	3631
4008.331	3591
4009.918	3607
4011.507	3577
4013.095	3517
4014.681	3493
4016.269	3605
4017.856	3524
4019.443	3556
4021.028	3515
4022.614	3545
4024.199	3496
4025.785	3520
4027.37	3470
4028.953	3480
4030.536	3480
4032.12	3480
4033.704	3486
4035.287	3480
4036.869	3570
4038.45	3517
4040.032	3471
4041.613	3511
4043.195	3520
4044.776	3514
4046.356	3509
4047.935	3424
4049.515	3416
4051.095	3481
4052.674	3447
4054.251	3407
4055.829	3469
4057.406	3466
4058.985	3483
4060.562	3469
4062.139	3444
4063.715	3420
4065.29	3379
4066.865	3323
4068.442	3348
4070.016	3446
4071.59	3414
4073.164	3373
4074.738	3447
4076.312	3341
4077.885	3399
4079.458	3462
4081.03	3448
4082.602	3301
4084.173	3416
4085.745	3389
4087.315	3410
4088.886	3427
4090.456	3367
4092.026	3363
4093.596	3437
4095.165	3307
4096.734	3304
4098.301	3329
4099.869	3376
4101.437	3357
4103.006	3324
4104.572	3357
4106.139	3354
4107.704	3325
4109.27	3360
4110.837	3310
4112.401	3348
4113.966	3271
4115.53	3318
4117.094	3226
4118.659	3342
4120.223	3272
4121.785	3358
4123.347	3347
4124.909	3218
4126.471	3325
4128.034	3284
4129.595	3280
4131.155	3296
4132.716	3204
4134.275	3298
4135.836	3212
4137.395	3319
4138.955	3193
4140.513	3186
4142.071	3268
4143.628	3218
4145.188	3190
4146.745	3195
4148.302	3241
4149.858	3176
4151.414	3203
4152.971	3153
4154.526	3155
4156.081	3150
4157.635	3174
4159.189	3226
4160.745	3168
4162.298	3247
4163.852	3161
4165.405	3259
4166.957	3185
4168.51	3222
4170.063	3109
4171.614	3165
4173.166	3148
4174.717	3212
4176.267	3095
4177.817	3158
4179.368	3139
4180.917	3170
4182.466	3097
4184.016	3133
4185.564	3143
4187.112	3074
4188.66	3082
4190.207	3122
4191.754	3065
4193.301	3077
4194.848	3134
4196.394	3099
4197.94	3114
4199.484	3056
4201.03	3056
4202.575	3116
4204.12	3113
4205.663	3181
4207.207	3133
4208.75	3063
4210.292	3009
4211.836	3125
4213.378	3086
4214.92	3080
4216.46	3018
4218.002	3071
4219.544	3035
4221.083	3013
4222.625	3058
4224.164	3094
4225.703	3035
4227.244	3087
4228.782	3044
4230.32	3067
4231.857	3037
4233.395	2973
4234.933	3066
4236.471	3072
4238.007	3062
4239.542	3010
4241.078	3013
4242.614	2968
4244.15	3032
4245.685	2999
4247.219	3009
4248.753	3046
4250.287	3016
4251.82	3009
4253.354	2969
4254.887	3023
4256.419	3058
4257.951	2998
4259.483	2913
4261.016	3045
4262.547	2985
4264.078	2928
4265.608	2945
4267.137	3045
4268.668	2922
4270.197	2978
4271.727	2949
4273.254	3025
4274.783	3053
4276.311	2965
4277.84	2916
4279.366	2971
4280.894	2954
4282.42	2945
4283.946	2965
4285.473	2904
4286.998	2926
4288.523	2893
4290.047	2955
4291.572	2935
4293.096	2896
4294.622	2951
4296.144	2872
4297.668	2903
4299.19	2868
4300.713	2909
4302.236	2937
4303.758	2876
4305.279	2928
4306.799	2898
4308.321	2942
4309.842	2781
4311.361	2895
4312.882	2857
4314.401	2853
