400.0961	5147
402.6185	5000
405.1424	5152
407.6635	5083
410.1838	5083
412.7035	5110
415.2225	5185
417.7388	5196
420.2585	5257
422.7754	5272
425.2917	5380
427.8072	5398
430.3221	5438
432.8363	5462
435.3498	5481
437.8626	5435
440.3727	5487
442.8841	5462
445.3969	5500
447.907	5402
450.4142	5505
452.9229	5356
455.4289	5495
457.9362	5544
460.4449	5388
462.9488	5377
465.454	5428
467.9566	5373
470.4604	5394
472.9637	5382
475.4662	5408
477.966	5406
480.4671	5471
482.9656	5389
485.4633	5439
487.9645	5481
490.4608	5399
492.9566	5423
495.4536	5569
497.948	5520
500.4437	5411
502.9387	5480
505.431	5536
507.9226	5581
510.4136	5623
512.9079	5548
515.3975	5556
517.8864	5584
520.3746	5585
522.8622	5549
525.3491	5519
527.8394	5584
530.3249	5587
532.8098	5638
535.2939	5594
537.7774	5689
540.2623	5697
542.7444	5566
545.2259	5657
547.7067	5682
550.1868	5637
552.6683	5718
555.147	5661
557.6231	5568
560.1005	5650
562.5773	5725
565.0534	5765
567.5308	5725
570.0056	5795
572.4776	5856
574.951	5780
577.4237	5972
579.8978	5947
582.3671	5969
584.8378	5924
587.3079	6007
589.7773	5833
592.244	5814
594.714	6008
597.1793	5868
599.6461	5859
602.1121	5917
604.5754	5850
607.0421	5857
609.5042	5909
611.9675	5850
614.4282	5799
616.8902	5848
619.3515	5815
621.8122	5729
624.2702	5805
626.7296	5695
629.1863	5797
631.6423	5745
634.1017	5896
636.5563	5762
639.0104	5820
641.4658	5847
643.9185	5826
646.3725	5765
648.8239	5848
651.2766	5992
653.7266	5870
656.176	5894
658.6247	5947
661.0748	5940
663.5242	5866
665.9709	5912
668.417	5838
670.8624	5958
673.3092	5864
675.7533	5996
678.1968	5956
680.6395	6055
683.0817	6096
685.5251	5998
687.9659	6078
690.4061	6073
692.8456	6042
695.2844	5994
697.7226	6082
700.1621	6104
702.599	5993
705.0332	6049
707.4688	6099
709.9036	6099
712.3399	6096
714.7735	6138
717.2044	6083
719.6367	6158
722.0683	6146
724.4993	6233
726.9296	6202
729.3593	6138
731.7883	6217
734.2147	6214
736.6423	6198
739.0714	6344
741.4958	6214
743.9216	6313
746.3447	6356
748.7691	6363
751.1929	6367
753.616	6338
756.0366	6494
758.4584	6476
760.8776	6537
763.2982	6493
765.718	6403
768.1373	6410
770.5539	6458
772.9698	6501
775.3871	6374
777.8038	6526
780.2178	6458
782.6332	6484
785.0459	6493
787.458	6314
789.8714	6553
792.2842	6446
794.6943	6466
797.1038	6559
799.5127	6483
801.9209	6405
804.3324	6549
806.7393	6438
809.1456	6520
811.5513	6586
813.9562	6560
816.3625	6635
818.7663	6526
821.1693	6647
823.5718	6515
825.9735	6511
828.3746	6505
830.7771	6619
833.177	6560
835.5762	6583
837.9747	6539
840.3727	6484
842.772	6643
845.1666	6616
847.5626	6736
849.958	6774
852.3527	6745
854.7488	6819
857.1403	6830
859.5331	6726
861.9253	6696
864.3168	6730
866.7057	6698
869.098	6710
871.4876	6736
873.8746	6820
876.263	6755
878.6487	6672
881.0378	6752
883.4243	6782
885.8081	6689
888.1933	6834
890.5759	6756
892.9598	6714
895.343	6703
897.7256	6730
900.1057	6676
902.4871	6751
904.8659	6683
907.246	6774
909.6254	6751
912.0023	6892
914.3786	6976
916.7562	7078
919.1331	7022
921.5074	7111
923.8831	7051
926.2562	7028
928.6287	7117
931.0005	7090
933.3757	7231
935.7462	7269
938.1162	7094
940.4855	7294
942.8542	7267
945.2242	7536
947.5916	7493
949.9584	7970
952.3266	8072
954.6921	8322
957.0571	8651
959.4233	9109
961.787	9149
964.15	8996
966.5125	8818
968.8742	8386
971.2354	8041
973.5959	7703
975.9559	7501
978.3151	7369
980.6738	7159
983.0338	7123
985.3912	7167
987.7461	7014
990.1022	6984
992.4578	6956
994.8127	7008
997.1689	7106
999.5207	7055
1001.874	7007
1004.226	7141
1006.576	7049
1008.929	7027
1011.28	6973
1013.628	6942
1015.977	7034
1018.324	7053
1020.674	7098
1023.019	7109
1025.366	7061
1027.713	7160
1030.056	7087
1032.399	7221
1034.746	7164
1037.087	7193
1039.431	7114
1041.771	7147
1044.113	7229
1046.454	7184
1048.793	7197
1051.133	7191
1053.471	7129
1055.807	7239
1058.146	7312
1060.483	7229
1062.818	7224
1065.153	7287
1067.489	7268
1069.822	7321
1072.156	7247
1074.488	7297
1076.82	7289
1079.15	7234
1081.48	7261
1083.814	7239
1086.143	7263
1088.471	7165
1090.799	7073
1093.126	7096
1095.452	7256
1097.78	7122
1100.105	7237
1102.43	7056
1104.754	7214
1107.077	7076
1109.4	7241
1111.722	7134
1114.044	7215
1116.365	7175
1118.685	7129
1121.005	7268
1123.324	7239
1125.643	7185
1127.961	7280
1130.278	7152
1132.595	7176
1134.911	7171
1137.226	7271
1139.541	7040
1141.854	7283
1144.167	7099
1146.482	7112
1148.793	7208
1151.105	7177
1153.414	7126
1155.725	7169
1158.033	7102
1160.344	7167
1162.651	7247
1164.959	7083
1167.265	7094
1169.572	7109
1171.878	7208
1174.184	7034
1176.488	7229
1178.79	7242
1181.094	7185
1183.396	7245
1185.699	7187
1188.001	7143
1190.301	7143
1192.6	7174
1194.9	7263
1197.2	7180
1199.497	7165
1201.794	7268
1204.09	7173
1206.387	7189
1208.684	7241
1210.978	7180
1213.272	7169
1215.565	7302
1217.858	7252
1220.15	7236
1222.443	7134
1224.734	7242
1227.024	7297
1229.313	7368
1231.602	7486
1233.892	7319
1236.18	7426
1238.467	7330
1240.754	7517
1243.04	7485
1245.325	7472
1247.612	7503
1249.896	7539
1252.178	7545
1254.461	7471
1256.743	7513
1259.027	7412
1261.308	7613
1263.587	7564
1265.867	7460
1268.146	7493
1270.425	7571
1272.703	7413
1274.981	7483
1277.256	7535
1279.532	7526
1281.808	7520
1284.083	7414
1286.358	7471
1288.63	7561
1290.904	7484
1293.175	7364
1295.449	7348
1297.719	7302
1299.99	7327
1302.259	7335
1304.529	7328
1306.798	7349
1309.065	7354
1311.333	7462
1313.599	7357
1315.866	7281
1318.131	7420
1320.396	7362
1322.66	7320
1324.925	7450
1327.187	7402
1329.448	7466
1331.711	7494
1333.974	7488
1336.234	7388
1338.493	7462
1340.752	7406
1343.01	7375
1345.269	7413
1347.526	7380
1349.784	7486
1352.04	7386
1354.295	7354
1356.552	7429
1358.806	7413
1361.059	7348
1363.312	7378
1365.564	7388
1367.818	7498
1370.069	7467
1372.318	7378
1374.568	7458
1376.817	7516
1379.066	7584
1381.316	7486
1383.564	7521
1385.809	7425
1388.056	7493
1390.301	7504
1392.549	7496
1394.793	7608
1397.036	7573
1399.279	7632
1401.522	7639
1403.763	7729
1406.007	7654
1408.248	7577
1410.487	7537
1412.727	7838
1414.965	7796
1417.205	7632
1419.442	7686
1421.68	7680
1423.915	7632
1426.152	7701
1428.388	7716
1430.623	7620
1432.857	7695
1435.091	7699
1437.323	7784
1439.556	7709
1441.789	7712
1444.019	7806
1446.25	7782
1448.48	7751
1450.708	7952
1452.938	7838
1455.167	7936
1457.394	7736
1459.62	7937
1461.846	7875
1464.073	7775
1466.299	7707
1468.523	7753
1470.746	7738
1472.969	7679
1475.191	7575
1477.415	7566
1479.636	7476
1481.858	7606
1484.078	7450
1486.298	7557
1488.518	7570
1490.736	7497
1492.954	7383
1495.169	7454
1497.386	7495
1499.602	7456
1501.819	7468
1504.034	7408
1506.248	7412
1508.462	7351
1510.675	7387
1512.888	7384
1515.1	7300
1517.311	7455
1519.522	7337
1521.732	7416
1523.942	7475
1526.151	7442
1528.36	7372
1530.566	7434
1532.773	7452
1534.98	7409
1537.187	7313
1539.392	7391
1541.596	7362
1543.801	7542
1546.005	7543
1548.208	7447
1550.411	7516
1552.612	7409
1554.814	7388
1557.013	7444
1559.212	7464
1561.414	7550
1563.612	7449
1565.811	7615
1568.007	7609
1570.203	7544
1572.403	7582
1574.598	7630
1576.792	7636
1578.988	7623
1581.181	7629
1583.376	7637
1585.568	7674
1587.761	7560
1589.952	7598
1592.143	7540
1594.333	7642
1596.524	7637
1598.715	7636
1600.903	7583
1603.091	7679
1605.278	7613
1607.466	7610
1609.652	7685
1611.838	7626
1614.023	7592
1616.207	7568
1618.391	7669
1620.576	7729
1622.759	7675
1624.941	7727
1627.123	7690
1629.304	7789
1631.484	7744
1633.664	7708
1635.844	7756
1638.022	7868
1640.201	7898
1642.38	7776
1644.556	7776
1646.732	7779
1648.908	7827
1651.084	7709
1653.257	7825
1655.433	7761
1657.607	7776
1659.779	7978
1661.951	7799
1664.122	7884
1666.295	7940
1668.467	7913
1670.635	7852
1672.805	7903
1674.973	7849
1677.142	7916
1679.31	7889
1681.478	7810
1683.644	7785
1685.81	7910
1687.975	7816
1690.142	7961
1692.305	7850
1694.468	7806
1696.632	7784
1698.794	7650
1700.957	7637
1703.119	7706
1705.279	7737
1707.439	7711
1709.598	7649
1711.758	7481
1713.917	7620
1716.075	7460
1718.231	7580
1720.388	7607
1722.543	7665
1724.702	7647
1726.856	7493
1729.01	7616
1731.164	7568
1733.317	7653
1735.471	7583
1737.623	7653
1739.774	7727
1741.925	7574
1744.075	7720
1746.225	7644
1748.376	7576
1750.524	7661
1752.672	7705
1754.82	7628
1756.965	7750
1759.113	7600
1761.259	7688
1763.405	7678
1765.549	7662
1767.694	7735
1769.836	7665
1771.981	7728
1774.123	7756
1776.264	7606
1778.405	7829
1780.546	7745
1782.687	7664
1784.827	7631
1786.966	7744
1789.103	7853
1791.242	7688
1793.381	7719
1795.517	7674
1797.653	7751
1799.788	7707
1801.923	7735
1804.057	7656
1806.193	7805
1808.326	7598
1810.457	7622
1812.59	7704
1814.721	7738
1816.855	7676
1818.984	7699
1821.113	7646
1823.244	7549
1825.372	7774
1827.499	7789
1829.63	7654
1831.756	7689
1833.882	7619
1836.007	7655
1838.132	7525
1840.26	7588
1842.384	7690
1844.507	7608
1846.63	7690
1848.752	7737
1850.875	7561
1852.996	7803
1855.118	7528
1857.238	7668
1859.358	7615
1861.477	7758
1863.597	7666
1865.715	7520
1867.832	7661
1869.948	7668
1872.064	7686
1874.181	7668
1876.297	7620
1878.411	7462
1880.526	7528
1882.639	7585
1884.752	7654
1886.865	7596
1888.977	7702
1891.089	7764
1893.2	7643
1895.308	7542
1897.42	7571
1899.53	7664
1901.639	7748
1903.745	7541
1905.853	7859
1907.962	7707
1910.067	7658
1912.174	7707
1914.278	7800
1916.383	7758
1918.486	7804
1920.592	7771
1922.694	7702
1924.797	7650
1926.898	7738
1929	7829
1931.102	7647
1933.203	7779
1935.301	7763
1937.401	7657
1939.499	7876
1941.598	7642
1943.697	7713
1945.793	7673
1947.888	7701
1949.985	7816
1952.08	7841
1954.176	7721
1956.269	7877
1958.364	7785
1960.457	7769
1962.549	7681
1964.642	7738
1966.733	7643
1968.823	7610
1970.913	7671
1973.005	7695
1975.093	7832
1977.184	7591
1979.271	7628
1981.359	7692
1983.446	7600
1985.532	7835
1987.619	7603
1989.705	7668
1991.789	7656
1993.874	7659
1995.956	7727
1998.041	7630
2000.123	7651
2002.206	7764
2004.287	7639
2006.368	7619
2008.449	7598
2010.529	7639
2012.609	7707
2014.688	7594
2016.766	7530
2018.843	7518
2020.922	7699
2022.999	7657
2025.074	7645
2027.15	7665
2029.225	7460
2031.299	7554
2033.375	7644
2035.447	7672
2037.52	7521
2039.592	7566
2041.664	7680
2043.736	7596
2045.807	7791
2047.876	7689
2049.947	7623
2052.015	7684
2054.086	7682
2056.153	7557
2058.221	7685
2060.288	7552
2062.353	7671
2064.42	7583
2066.486	7604
2068.55	7702
2070.614	7621
2072.678	7772
2074.741	7608
2076.805	7723
2078.866	7533
2080.929	7527
2082.99	7725
2085.049	7737
2087.109	7611
2089.17	7638
2091.228	7601
2093.286	7641
2095.344	7722
2097.4	7616
2099.46	7492
2101.516	7788
2103.572	7704
2105.626	7532
2107.679	7619
2109.735	7565
2111.788	7600
2113.841	7734
2115.894	7580
2117.945	7607
2119.997	7515
2122.049	7626
2124.1	7589
2126.148	7649
2128.197	7595
2130.246	7641
2132.296	7508
2134.342	7563
2136.39	7658
2138.437	7646
2140.483	7674
2142.527	7533
2144.574	7712
2146.619	7647
2148.661	7623
2150.705	7598
2152.747	7603
2154.792	7542
2156.832	7507
2158.874	7526
2160.915	7580
2162.954	7594
2164.995	7601
2167.034	7598
2169.072	7492
2171.111	7457
2173.148	7573
2175.186	7529
2177.223	7469
2179.258	7534
2181.294	7463
2183.328	7411
2185.362	7602
2187.398	7449
2189.431	7485
2191.463	7401
2193.495	7448
2195.528	7561
2197.56	7380
2199.59	7422
2201.62	7337
2203.649	7414
2205.678	7441
2207.708	7342
2209.737	7420
2211.764	7471
2213.791	7407
2215.817	7460
2217.843	7442
2219.87	7434
2221.895	7403
2223.919	7403
2225.942	7388
2227.966	7418
2229.988	7552
2232.012	7253
2234.032	7590
2236.054	7340
2238.074	7457
2240.095	7420
2242.116	7326
2244.135	7479
2246.153	7357
2248.171	7373
2250.188	7376
2252.208	7442
2254.223	7414
2256.239	7482
2258.255	7418
2260.269	7368
2262.283	7480
2264.3	7394
2266.312	7475
2268.325	7423
2270.336	7442
2272.349	7348
2274.362	7388
2276.372	7415
2278.383	7491
2280.392	7353
2282.402	7414
2284.409	7342
2286.418	7308
2288.427	7495
2290.433	7416
2292.441	7400
2294.446	7302
2296.453	7349
2298.459	7353
2300.463	7501
2302.466	7412
2304.471	7324
2306.475	7496
2308.477	7524
2310.478	7411
2312.481	7394
2314.481	7441
2316.481	7350
2318.482	7236
2320.482	7260
2322.48	7320
2324.48	7427
2326.478	7429
2328.476	7372
2330.473	7265
2332.469	7251
2334.465	7281
2336.46	7302
2338.454	7209
2340.45	7239
2342.444	7313
2344.437	7203
2346.43	7181
2348.421	7251
2350.414	7336
2352.405	7303
2354.396	7218
2356.386	7115
2358.376	7275
2360.366	7269
2362.355	7303
2364.343	7263
2366.331	7249
2368.317	7270
2370.304	7201
2372.292	7180
2374.278	7118
2376.262	7315
2378.247	7180
2380.23	7253
2382.216	7246
2384.199	7209
2386.181	7195
2388.163	7034
2390.144	7012
2392.127	7140
2394.107	7221
2396.087	7204
2398.066	7150
2400.046	7241
2402.023	7112
2404.004	7125
2405.981	7060
2407.957	7142
2409.934	7086
2411.91	7155
2413.886	7214
2415.862	7170
2417.836	7215
2419.809	7176
2421.784	7132
2423.756	7021
2425.73	7058
2427.701	7147
2429.672	7188
2431.644	7254
2433.615	7112
2435.586	7069
2437.555	6947
2439.523	7218
2441.491	7115
2443.459	7015
2445.428	7111
2447.395	7130
2449.361	7101
2451.327	7099
2453.292	7040
2455.257	7028
2457.223	7083
2459.187	6997
2461.15	7078
2463.113	7134
2465.076	7053
2467.039	7019
2468.999	7139
2470.96	7017
2472.921	7135
2474.881	6970
2476.841	7037
2478.8	7001
2480.759	7039
2482.717	7024
2484.675	7068
2486.63	6963
2488.589	7054
2490.545	7035
2492.5	6965
2494.455	7029
2496.408	6943
2498.364	6845
2500.318	6916
2502.27	6991
2504.223	6945
2506.174	7004
2508.126	7073
2510.078	6843
2512.03	6873
2513.979	7001
2515.927	6969
2517.877	7037
2519.826	6917
2521.775	6896
2523.722	6920
2525.668	6958
2527.616	6943
2529.561	6997
2531.508	6952
2533.452	6938
2535.398	6821
2537.342	6840
2539.284	6991
2541.229	6879
2543.173	6993
2545.114	6818
2547.055	6822
2548.996	6856
2550.938	6812
2552.878	6902
2554.817	6924
2556.756	6976
2558.695	6744
2560.633	6866
2562.572	6986
2564.509	7037
2566.445	6845
2568.382	6960
2570.317	6973
2572.254	7029
2574.189	6931
2576.123	6894
2578.057	6891
2579.99	6815
2581.923	6788
2583.855	6946
2585.788	6883
2587.719	6807
2589.65	6971
2591.579	6800
2593.511	6832
2595.44	6909
2597.37	6859
2599.297	6896
2601.225	6890
2603.153	6867
2605.08	6813
2607.007	6831
2608.932	6933
2610.858	6834
2612.782	6941
2614.709	6942
2616.632	6930
2618.556	7041
2620.478	7011
2622.401	6894
2624.324	6945
2626.247	6944
2628.167	7091
2630.088	6913
2632.008	6978
2633.928	6834
2635.848	6906
2637.766	6860
2639.684	6995
2641.603	6813
2643.519	6889
2645.437	6857
2647.353	7003
2649.27	6944
2651.184	6932
2653.099	6958
2655.014	6802
2656.928	6893
2658.842	6841
2660.755	6887
2662.667	6871
2664.579	6807
2666.491	6881
2668.402	6882
2670.312	6907
2672.222	6762
2674.132	6885
2676.042	6810
2677.951	6786
2679.859	6791
2681.766	6826
2683.674	6824
2685.582	6798
2687.488	6790
2689.392	6835
2691.298	6872
2693.202	6902
2695.107	6873
2697.012	6803
2698.914	6751
2700.817	6852
2702.72	6830
2704.622	6669
2706.524	6818
2708.425	6752
2710.326	6772
2712.225	6802
2714.125	6656
2716.024	6769
2717.923	6775
2719.822	6657
2721.719	6691
2723.616	6700
2725.512	6771
2727.41	6853
2729.305	6761
2731.201	6840
2733.095	6683
2734.99	6831
2736.884	6767
2738.778	6685
2740.67	6777
2742.562	6638
2744.455	6774
2746.346	6695
2748.238	6793
2750.129	6691
2752.018	6626
2753.907	6670
2755.797	6759
2757.687	6707
2759.575	6619
2761.462	6681
2763.349	6679
2765.237	6670
2767.124	6635
2769.009	6731
2770.894	6616
2772.779	6692
2774.663	6812
2776.547	6839
2778.431	6731
2780.314	6715
2782.197	6664
2784.078	6693
2785.96	6752
2787.842	6645
2789.723	6711
2791.603	6618
2793.483	6671
2795.362	6678
2797.241	6707
2799.121	6560
2800.997	6545
2802.874	6673
2804.751	6649
2806.628	6647
2808.506	6616
2810.38	6510
2812.255	6595
2814.13	6565
2816.003	6595
2817.878	6556
2819.752	6564
2821.623	6737
2823.496	6552
2825.368	6704
2827.238	6646
2829.111	6662
2830.98	6529
2832.851	6578
2834.719	6688
2836.589	6553
2838.458	6709
2840.327	6637
2842.193	6668
2844.061	6611
2845.927	6556
2847.794	6617
2849.66	6636
2851.525	6652
2853.39	6818
2855.254	6722
2857.117	6762
2858.983	6720
2860.845	6732
2862.707	6704
2864.569	6775
2866.431	6857
2868.293	6906
2870.154	6839
2872.013	7049
2873.873	7058
2875.733	7048
2877.592	7128
2879.451	7194
2881.309	7239
2883.166	7131
2885.022	7400
2886.879	7213
2888.736	7200
2890.591	7411
2892.446	7428
2894.301	7229
2896.155	7301
2898.009	7397
2899.863	7177
2901.716	7318
2903.568	7345
2905.419	7253
2907.27	7280
2909.123	7261
2910.973	7426
2912.824	7420
2914.673	7378
2916.521	7386
2918.372	7462
2920.22	7583
2922.067	7645
2923.914	7756
2925.761	7758
2927.607	7770
2929.455	7827
2931.301	7972
2933.144	7933
2934.99	8059
2936.833	8073
2938.678	8140
2940.522	8155
2942.364	8223
2944.207	8421
2946.048	8381
2947.891	8463
2949.731	8490
2951.571	8438
2953.412	8365
2955.25	8310
2957.09	8148
2958.93	8014
2960.767	8168
2962.606	7968
2964.443	7981
2966.279	7965
2968.116	7729
2969.953	7749
2971.788	7552
2973.623	7603
2975.457	7515
2977.292	7462
2979.127	7447
2980.959	7471
2982.792	7284
2984.624	7425
2986.455	7379
2988.288	7383
2990.119	7255
2991.949	7237
2993.779	7134
2995.608	7129
2997.439	7152
2999.268	7010
3001.096	6974
3002.923	6865
3004.751	6957
3006.578	6758
3008.406	6715
3010.232	6806
3012.057	6695
3013.883	6612
3015.706	6585
3017.532	6524
3019.356	6467
3021.179	6571
3023.002	6388
3024.823	6308
3026.646	6508
3028.469	6383
3030.289	6370
3032.11	6319
3033.93	6390
3035.749	6333
3037.57	6264
3039.39	6253
3041.207	6252
3043.026	6314
3044.842	6249
3046.661	6231
3048.477	6258
3050.294	6259
3052.109	6251
3053.925	6299
3055.739	6198
3057.555	6254
3059.368	6276
3061.181	6286
3062.995	6271
3064.807	6226
3066.62	6301
3068.433	6165
3070.243	6221
3072.054	6238
3073.865	6177
3075.675	6085
3077.485	6196
3079.293	6144
3081.102	6138
3082.911	6049
3084.719	6116
3086.527	6117
3088.333	6099
3090.139	6049
3091.945	6026
3093.75	6046
3095.557	6109
3097.361	6048
3099.165	6075
3100.969	5978
3102.772	6019
3104.575	6007
3106.379	6196
3108.181	6025
3109.982	6019
3111.783	6061
3113.584	6081
3115.386	5932
3117.186	5948
3118.985	5883
3120.783	6065
3122.582	5944
3124.381	5828
3126.179	6015
3127.975	5858
3129.772	6002
3131.569	6007
3133.365	5984
3135.161	5993
3136.956	5976
3138.751	5894
3140.544	5874
3142.338	5995
3144.132	5966
3145.925	5878
3147.717	5881
3149.509	5871
3151.301	5874
3153.091	5865
3154.884	5943
3156.673	5898
3158.462	5805
3160.252	5818
3162.041	5837
3163.831	5836
3165.618	5859
3167.405	5944
3169.193	5965
3170.979	5876
3172.767	5797
3174.553	5785
3176.338	5814
3178.123	5802
3179.907	5922
3181.692	5762
3183.477	5945
3185.259	5813
3187.042	5869
3188.824	5848
3190.607	5819
3192.389	5806
3194.17	5812
3195.951	5878
3197.73	5809
3199.51	5905
3201.289	5833
3203.07	5656
3204.848	5894
3206.626	5788
3208.403	5736
3210.18	5798
3211.959	5749
3213.735	5686
3215.511	5803
3217.285	5880
3219.06	5805
3220.836	5707
3222.611	5755
3224.384	5781
3226.158	5904
3227.929	5820
3229.702	5804
3231.476	5686
3233.248	5878
3235.018	5761
3236.789	5862
3238.56	5705
3240.33	5787
3242.1	5805
3243.869	5709
3245.637	5804
3247.405	5812
3249.172	5805
3250.941	5767
3252.707	5730
3254.474	5752
3256.24	5870
3258.006	5787
3259.772	5810
3261.537	5622
3263.301	5875
3265.065	5823
3266.828	5638
3268.592	5791
3270.355	5784
3272.117	5785
3273.878	5885
3275.64	5796
3277.401	5795
3279.162	5815
3280.922	5731
3282.682	5760
3284.441	5702
3286.199	5834
3287.959	5825
3289.716	5690
3291.475	5858
3293.232	5758
3294.988	5712
3296.744	5735
3298.501	5773
3300.256	5807
3302.011	5749
3303.766	5776
3305.52	5826
3307.275	5727
3309.028	5789
3310.781	5684
3312.533	5777
3314.285	5721
3316.038	5691
3317.789	5859
3319.54	5724
3321.289	5774
3323.039	5829
3324.789	5745
3326.539	5680
3328.288	5689
3330.035	5646
3331.783	5750
3333.531	5759
3335.28	5778
3337.025	5787
3338.771	5694
3340.518	5811
3342.262	5648
3344.009	5746
3345.753	5591
3347.497	5659
3349.24	5628
3350.983	5648
3352.726	5623
3354.469	5587
3356.212	5779
3357.952	5616
3359.694	5614
3361.434	5569
3363.176	5619
3364.916	5667
3366.654	5558
3368.394	5594
3370.132	5642
3371.871	5599
3373.61	5705
3375.346	5631
3377.083	5646
3378.82	5632
3380.556	5567
3382.292	5549
3384.027	5635
3385.763	5544
3387.497	5530
3389.231	5509
3390.965	5507
3392.698	5545
3394.431	5488
3396.164	5476
3397.896	5510
3399.627	5515
3401.36	5500
3403.09	5493
3404.82	5504
3406.55	5478
3408.279	5478
3410.01	5556
3411.738	5488
3413.467	5478
3415.194	5441
3416.92	5513
3418.647	5438
3420.375	5428
3422.102	5463
3423.827	5496
3425.553	5407
3427.277	5486
3429.003	5490
3430.727	5415
3432.451	5355
3434.173	5410
3435.896	5415
3437.62	5309
3439.343	5406
3441.063	5446
3442.785	5441
3444.505	5446
3446.226	5374
3447.948	5407
3449.666	5278
3451.386	5384
3453.104	5324
3454.823	5408
3456.541	5439
3458.259	5316
3459.976	5166
3461.693	5352
3463.408	5307
3465.125	5230
3466.841	5272
3468.556	5299
3470.271	5326
3471.985	5239
3473.698	5225
3475.414	5266
3477.126	5247
3478.838	5237
3480.55	5202
3482.263	5268
3483.975	5152
3485.686	5152
3487.396	5197
3489.106	5146
3490.817	5174
3492.526	5157
3494.236	5095
3495.944	5048
3497.652	5123
3499.359	5105
3501.066	5147
3502.775	5081
3504.481	5006
3506.187	5107
3507.893	5119
3509.598	5000
3511.304	5061
3513.009	5063
3514.713	5059
3516.417	5010
3518.12	5015
3519.821	4990
3521.525	5052
3523.228	4955
3524.929	4948
3526.631	5061
3528.33	4954
3530.032	4929
3531.733	5046
3533.433	4946
3535.131	4973
3536.83	5021
3538.529	5058
3540.227	4895
3541.925	4964
3543.623	4990
3545.319	4904
3547.016	4935
3548.712	5002
3550.408	4955
3552.103	4859
3553.798	4907
3555.491	4832
3557.188	4800
3558.88	4909
3560.574	4861
3562.266	4814
3563.959	4846
3565.651	4735
3567.343	4862
3569.035	4945
3570.725	4879
3572.415	4856
3574.106	4810
3575.797	4842
3577.485	4838
3579.174	4755
3580.863	4806
3582.551	4870
3584.238	4801
3585.926	4796
3587.613	4799
3589.3	4712
3590.986	4796
3592.671	4683
3594.357	4699
3596.042	4745
3597.726	4718
3599.41	4641
3601.094	4664
3602.778	4730
3604.461	4720
3606.143	4679
3607.825	4694
3609.507	4599
3611.188	4624
3612.87	4604
3614.551	4624
3616.229	4590
3617.909	4664
3619.589	4600
3621.269	4643
3622.948	4627
3624.625	4525
3626.302	4496
3627.98	4488
3629.657	4576
3631.334	4583
3633.01	4515
3634.686	4609
3636.361	4501
3638.036	4598
3639.712	4583
3641.385	4474
3643.06	4594
3644.732	4446
3646.405	4435
3648.08	4484
3649.751	4547
3651.424	4563
3653.094	4488
3654.766	4415
3656.436	4408
3658.106	4495
3659.777	4458
3661.446	4508
3663.115	4443
3664.783	4341
3666.452	4431
3668.121	4515
3669.788	4448
3671.454	4425
3673.121	4455
3674.789	4535
3676.455	4495
3678.12	4403
3679.784	4400
3681.45	4310
3683.114	4356
3684.779	4435
3686.442	4364
3688.105	4371
3689.768	4368
3691.43	4389
3693.093	4286
3694.754	4392
3696.415	4308
3698.076	4377
3699.736	4299
3701.396	4373
3703.057	4308
3704.716	4300
3706.375	4342
3708.034	4343
3709.692	4307
3711.351	4317
3713.008	4286
3714.665	4341
3716.321	4255
3717.977	4290
3719.634	4307
3721.29	4358
3722.945	4363
3724.598	4285
3726.253	4332
3727.907	4283
3729.561	4354
3731.214	4227
3732.867	4368
3734.518	4302
3736.171	4258
3737.824	4339
3739.474	4209
3741.125	4266
3742.775	4288
3744.425	4214
3746.074	4164
3747.725	4306
3749.373	4265
3751.022	4329
3752.669	4163
3754.318	4145
3755.966	4178
3757.612	4250
3759.259	4122
3760.905	4256
3762.55	4168
3764.197	4062
3765.842	4298
3767.486	4235
3769.131	4209
3770.774	4199
3772.417	4151
3774.061	4162
3775.705	4068
3777.347	4220
3778.988	4119
3780.629	4187
3782.271	4232
3783.912	4121
3785.552	4127
3787.192	4161
3788.831	4162
3790.472	4175
3792.112	4169
3793.75	4055
3795.388	4061
3797.024	4077
3798.661	4059
3800.3	4117
3801.936	4120
3803.572	4049
3805.208	4038
3806.844	4095
3808.48	4131
3810.115	3993
3811.748	3999
3813.382	4074
3815.016	4057
3816.649	4070
3818.283	4039
3819.914	4043
3821.547	4055
3823.178	4051
3824.809	4056
3826.441	3915
3828.072	3995
3829.701	3994
3831.331	4025
3832.96	4020
3834.591	3986
3836.219	3976
3837.847	3918
3839.475	3938
3841.102	3990
3842.729	4039
3844.357	3975
3845.984	3969
3847.609	3989
3849.234	3904
3850.86	3940
3852.485	3967
3854.11	3924
3855.734	3944
3857.357	4076
3858.981	3923
3860.603	3960
3862.227	3865
3863.848	3957
3865.471	3854
3867.092	3938
3868.713	3939
3870.334	3959
3871.954	4007
3873.575	3958
3875.194	3873
3876.813	3931
3878.433	3917
3880.051	3896
3881.669	3927
3883.286	3904
3884.904	3869
3886.52	3888
3888.138	3868
3889.754	3938
3891.37	3922
3892.985	3927
3894.6	3910
3896.216	3880
3897.831	3809
3899.444	3885
3901.058	3905
3902.67	3887
3904.283	3785
3905.897	3922
3907.509	3793
3909.121	3817
3910.731	3857
3912.342	3822
3913.954	3784
3915.563	3847
3917.174	3844
3918.783	3854
3920.391	3863
3922.002	3779
3923.611	3769
3925.218	3829
3926.826	3748
3928.432	3800
3930.039	3831
3931.647	3791
3933.253	3825
3934.859	3702
3936.464	3768
3938.068	3735
3939.675	3811
3941.278	3714
3942.883	3834
3944.486	3815
3946.089	3784
3947.692	3774
3949.295	3819
3950.898	3803
3952.499	3767
3954.1	3757
3955.7	3760
3957.303	3746
3958.903	3828
3960.502	3685
3962.101	3748
3963.7	3698
3965.301	3791
3966.899	3647
3968.497	3699
3970.094	3639
3971.691	3691
3973.288	3626
3974.885	3676
3976.481	3665
3978.077	3730
3979.672	3676
3981.267	3678
3982.863	3737
3984.457	3614
3986.051	3755
3987.645	3585
3989.238	3624
3990.831	3776
3992.425	3600
3994.017	3640
3995.607	3742
3997.199	3596
3998.79	3614
4000.382	3685
4001.973	3654
4003.561	3582
4005.151	3605
4006.741	3652
4008.331	3546
4009.918	3553
4011.507	3655
4013.095	3615
4014.681	3614
4016.269	3578
4017.856	3511
4019.443	3551
4021.028	3504
4022.614	3568
4024.199	3516
4025.785	3475
4027.37	3496
4028.953	3573
4030.536	3574
4032.12	3556
4033.704	3536
4035.287	3489
4036.869	3553
4038.45	3531
4040.032	3453
4041.613	3563
4043.195	3499
4044.776	3474
4046.356	3495
4047.935	3461
4049.515	3447
4051.095	3384
4052.674	3506
4054.251	3499
4055.829	3450
4057.406	3467
4058.985	3451
4060.562	3477
4062.139	3462
4063.715	3402
4065.29	3418
4066.865	3516
4068.442	3430
4070.016	3424
4071.59	3412
4073.164	3410
4074.738	3437
4076.312	3414
4077.885	3424
4079.458	3434
4081.03	3424
4082.602	3466
4084.173	3376
4085.745	3380
4087.315	3363
4088.886	3422
4090.456	3416
4092.026	3330
4093.596	3342
4095.165	3347
4096.734	3356
4098.301	3349
4099.869	3456
4101.437	3413
4103.006	3284
4104.572	3414
4106.139	3322
4107.704	3332
4109.27	3351
4110.837	3309
4112.401	3333
4113.966	3320
4115.53	3349
4117.094	3267
4118.659	3304
4120.223	3350
4121.785	3355
4123.347	3399
4124.909	3235
4126.471	3320
4128.034	3279
4129.595	3294
4131.155	3318
4132.716	3362
4134.275	3248
4135.836	3293
4137.395	3216
4138.955	3297
4140.513	3294
4142.071	3236
4143.628	3215
4145.188	3286
4146.745	3205
4148.302	3249
4149.858	3246
4151.414	3196
4152.971	3192
4154.526	3133
4156.081	3245
4157.635	3284
4159.189	3188
4160.745	3240
4162.298	3128
4163.852	3127
4165.405	3222
4166.957	3170
4168.51	3129
4170.063	3203
4171.614	3138
4173.166	3145
4174.717	3235
4176.267	3177
4177.817	3198
4179.368	3140
4180.917	3214
4182.466	3167
4184.016	3093
4185.564	3151
4187.112	3211
4188.66	3156
4190.207	3146
4191.754	3086
4193.301	3132
4194.848	3144
4196.394	3113
4197.94	3182
4199.484	3158
4201.03	3114
4202.575	3188
4204.12	3087
4205.663	3143
4207.207	3146
4208.75	3157
4210.292	3168
4211.836	3165
4213.378	3094
4214.92	3079
4216.46	3059
4218.002	3087
4219.544	3142
4221.083	3109
4222.625	3110
4224.164	3131
4225.703	3146
4227.244	3132
4228.782	3159
4230.32	3071
4231.857	3114
4233.395	3033
4234.933	3052
4236.471	3064
4238.007	3033
4239.542	3078
4241.078	3164
4242.614	3023
4244.15	2998
4245.685	3019
4247.219	3009
4248.753	3101
4250.287	3013
4251.82	3069
4253.354	3095
4254.887	3021
4256.419	3075
4257.951	2977
4259.483	3004
4261.016	3005
4262.547	3096
4264.078	2986
4265.608	2979
4267.137	3021
4268.668	2946
4270.197	2949
4271.727	3022
4273.254	2968
4274.783	3002
4276.311	2995
4277.84	2927
4279.366	2999
4280.894	3011
4282.42	2915
4283.946	2957
4285.473	2959
4286.998	2964
4288.523	3020
4290.047	3017
4291.572	2916
4293.096	2938
4294.622	2817
4296.144	2867
4297.668	2954
4299.19	2947
4300.713	2972
4302.236	2959
4303.758	2933
4305.279	2925
4306.799	2834
4308.321	2931
4309.842	2954
4311.361	2876
4312.882	2900
4314.401	2874
