400.0961	3818
402.6185	3795
405.1424	3809
407.6635	3850
410.1838	3995
412.7035	3908
415.2225	3919
417.7388	3973
420.2585	3983
422.7754	4021
425.2917	4018
427.8072	4037
430.3221	4090
432.8363	4152
435.3498	4050
437.8626	4099
440.3727	4093
442.8841	3939
445.3969	4076
447.907	4143
450.4142	4163
452.9229	4132
455.4289	4137
457.9362	4133
460.4449	4182
462.9488	4154
465.454	4190
467.9566	4155
470.4604	4194
472.9637	4208
475.4662	4188
477.966	4147
480.4671	4145
482.9656	4154
485.4633	4262
487.9645	4161
490.4608	4234
492.9566	4268
495.4536	4196
497.948	4336
500.4437	4280
502.9387	4255
505.431	4195
507.9226	4284
510.4136	4333
512.9079	4291
515.3975	4360
517.8864	4247
520.3746	4371
522.8622	4326
525.3491	4340
527.8394	4349
530.3249	4352
532.8098	4322
535.2939	4341
537.7774	4348
540.2623	4400
542.7444	4326
545.2259	4318
547.7067	4361
550.1868	4403
552.6683	4312
555.147	4383
557.6231	4370
560.1005	4395
562.5773	4368
565.0534	4498
567.5308	4430
570.0056	4509
572.4776	4441
574.951	4483
577.4237	4508
579.8978	4440
582.3671	4546
584.8378	4513
587.3079	4507
589.7773	4609
592.244	4513
594.714	4532
597.1793	4530
599.6461	4565
602.1121	4458
604.5754	4580
607.0421	4507
609.5042	4495
611.9675	4467
614.4282	4541
616.8902	4503
619.3515	4564
621.8122	4492
624.2702	4376
626.7296	4521
629.1863	4554
631.6423	4497
634.1017	4630
636.5563	4498
639.0104	4491
641.4658	4483
643.9185	4542
646.3725	4506
648.8239	4491
651.2766	4630
653.7266	4538
656.176	4534
658.6247	4584
661.0748	4637
663.5242	4612
665.9709	4633
668.417	4706
670.8624	4691
673.3092	4665
675.7533	4601
678.1968	4663
680.6395	4619
683.0817	4599
685.5251	4668
687.9659	4618
690.4061	4781
692.8456	4632
695.2844	4651
697.7226	4653
700.1621	4755
702.599	4770
705.0332	4683
707.4688	4744
709.9036	4680
712.3399	4749
714.7735	4723
717.2044	4691
719.6367	4749
722.0683	4726
724.4993	4809
726.9296	4905
729.3593	4745
731.7883	4880
734.2147	4803
736.6423	4796
739.0714	4857
741.4958	4828
743.9216	4906
746.3447	4956
748.7691	4921
751.1929	4831
753.616	4887
756.0366	4968
758.4584	4947
760.8776	4945
763.2982	4997
765.718	5004
768.1373	5052
770.5539	5016
772.9698	4893
775.3871	5099
777.8038	4962
780.2178	5132
782.6332	5112
785.0459	5033
787.458	5011
789.8714	5085
792.2842	4990
794.6943	5060
797.1038	5093
799.5127	5013
801.9209	5084
804.3324	4989
806.7393	5054
809.1456	5080
811.5513	5103
813.9562	5052
816.3625	5049
818.7663	4986
821.1693	5091
823.5718	5089
825.9735	5054
828.3746	5109
830.7771	5093
833.177	4998
835.5762	5085
837.9747	5103
840.3727	5138
842.772	5042
845.1666	5137
847.5626	5281
849.958	5127
852.3527	5124
854.7488	5174
857.1403	5249
859.5331	5143
861.9253	5101
864.3168	5114
866.7057	5104
869.098	5201
871.4876	5120
873.8746	5200
876.263	5222
878.6487	5177
881.0378	5128
883.4243	5199
885.8081	5136
888.1933	5172
890.5759	5139
892.9598	5153
895.343	5142
897.7256	5119
900.1057	5191
902.4871	5180
904.8659	5149
907.246	5169
909.6254	5187
912.0023	5181
914.3786	5220
916.7562	5224
919.1331	5308
921.5074	5353
923.8831	5246
926.2562	5246
928.6287	5311
931.0005	5339
933.3757	5319
935.7462	5352
938.1162	5321
940.4855	5431
942.8542	5401
945.2242	5441
947.5916	5486
949.9584	5552
952.3266	5663
954.6921	5793
957.0571	5968
959.4233	6024
961.787	6058
964.15	6022
966.5125	6114
968.8742	5766
971.2354	5851
973.5959	5569
975.9559	5489
978.3151	5432
980.6738	5469
983.0338	5417
985.3912	5376
987.7461	5427
990.1022	5255
992.4578	5274
994.8127	5340
997.1689	5381
999.5207	5378
1001.874	5351
1004.226	5392
1006.576	5452
1008.929	5404
1011.28	5406
1013.628	5383
1015.977	5351
1018.324	5321
1020.674	5332
1023.019	5520
1025.366	5380
1027.713	5440
1030.056	5530
1032.399	5406
1034.746	5452
1037.087	5467
1039.431	5465
1041.771	5386
1044.113	5427
1046.454	5466
1048.793	5386
1051.133	5451
1053.471	5416
1055.807	5414
1058.146	5477
1060.483	5425
1062.818	5504
1065.153	5508
1067.489	5543
1069.822	5580
1072.156	5647
1074.488	5573
1076.82	5578
1079.15	5514
1081.48	5469
1083.814	5595
1086.143	5513
1088.471	5678
1090.799	5521
1093.126	5433
1095.452	5609
1097.78	5521
1100.105	5522
1102.43	5541
1104.754	5514
1107.077	5592
1109.4	5582
1111.722	5569
1114.044	5562
1116.365	5572
1118.685	5554
1121.005	5496
1123.324	5601
1125.643	5603
1127.961	5585
1130.278	5599
1132.595	5630
1134.911	5553
1137.226	5598
1139.541	5526
1141.854	5589
1144.167	5545
1146.482	5575
1148.793	5472
1151.105	5551
1153.414	5590
1155.725	5592
1158.033	5558
1160.344	5484
1162.651	5568
1164.959	5550
1167.265	5543
1169.572	5613
1171.878	5586
1174.184	5640
1176.488	5575
1178.79	5535
1181.094	5583
1183.396	5481
1185.699	5529
1188.001	5553
1190.301	5517
1192.6	5456
1194.9	5594
1197.2	5587
1199.497	5622
1201.794	5598
1204.09	5597
1206.387	5551
1208.684	5630
1210.978	5501
1213.272	5573
1215.565	5600
1217.858	5566
1220.15	5629
1222.443	5706
1224.734	5642
1227.024	5669
1229.313	5643
1231.602	5681
1233.892	5776
1236.18	5620
1238.467	5752
1240.754	5694
1243.04	5652
1245.325	5671
1247.612	5756
1249.896	5738
1252.178	5722
1254.461	5719
1256.743	5660
1259.027	5795
1261.308	5811
1263.587	5855
1265.867	5722
1268.146	5829
1270.425	5811
1272.703	5704
1274.981	5774
1277.256	5717
1279.532	5767
1281.808	5728
1284.083	5720
1286.358	5732
1288.63	5771
1290.904	5650
1293.175	5663
1295.449	5687
1297.719	5756
1299.99	5656
1302.259	5660
1304.529	5719
1306.798	5708
1309.065	5666
1311.333	5733
1313.599	5605
1315.866	5724
1318.131	5740
1320.396	5768
1322.66	5728
1324.925	5715
1327.187	5673
1329.448	5739
1331.711	5683
1333.974	5730
1336.234	5620
1338.493	5690
1340.752	5696
1343.01	5688
1345.269	5837
1347.526	5746
1349.784	5769
1352.04	5665
1354.295	5776
1356.552	5776
1358.806	5813
1361.059	5800
1363.312	5825
1365.564	5788
1367.818	5793
1370.069	5741
1372.318	5766
1374.568	5767
1376.817	5684
1379.066	5727
1381.316	5849
1383.564	5712
1385.809	5807
1388.056	5834
1390.301	5808
1392.549	5764
1394.793	5832
1397.036	5751
1399.279	5852
1401.522	5830
1403.763	5943
1406.007	5835
1408.248	5872
1410.487	5842
1412.727	5786
1414.965	5824
1417.205	5833
1419.442	5869
1421.68	5853
1423.915	5844
1426.152	5952
1428.388	5868
1430.623	5934
1432.857	5878
1435.091	5915
1437.323	5874
1439.556	5917
1441.789	5937
1444.019	5887
1446.25	5826
1448.48	6004
1450.708	5990
1452.938	5863
1455.167	5900
1457.394	5875
1459.62	5888
1461.846	5917
1464.073	5973
1466.299	5906
1468.523	5879
1470.746	5895
1472.969	5933
1475.191	5999
1477.415	5924
1479.636	5862
1481.858	5977
1484.078	5819
1486.298	5895
1488.518	5806
1490.736	5977
1492.954	5769
1495.169	5874
1497.386	5832
1499.602	5909
1501.819	5896
1504.034	5793
1506.248	5849
1508.462	5870
1510.675	5791
1512.888	5797
1515.1	5804
1517.311	5818
1519.522	5845
1521.732	5806
1523.942	5906
1526.151	5718
1528.36	5877
1530.566	5894
1532.773	5855
1534.98	5734
1537.187	5790
1539.392	5795
1541.596	5819
1543.801	5763
1546.005	5819
1548.208	5913
1550.411	5843
1552.612	5891
1554.814	5926
1557.013	5870
1559.212	5900
1561.414	5919
1563.612	5964
1565.811	5910
1568.007	5866
1570.203	5929
1572.403	5883
1574.598	5981
1576.792	6003
1578.988	6010
1581.181	5988
1583.376	5910
1585.568	5876
1587.761	5945
1589.952	6018
1592.143	6041
1594.333	6023
1596.524	6015
1598.715	5951
1600.903	6028
1603.091	6018
1605.278	6037
1607.466	5939
1609.652	5894
1611.838	5985
1614.023	6020
1616.207	5978
1618.391	5904
1620.576	5990
1622.759	5993
1624.941	6045
1627.123	5892
1629.304	5948
1631.484	6011
1633.664	6030
1635.844	6062
1638.022	6040
1640.201	5966
1642.38	6121
1644.556	6039
1646.732	6043
1648.908	6064
1651.084	6052
1653.257	6059
1655.433	6039
1657.607	6151
1659.779	6016
1661.951	5961
1664.122	6142
1666.295	6019
1668.467	6113
1670.635	6041
1672.805	6160
1674.973	6005
1677.142	6081
1679.31	6022
1681.478	6023
1683.644	6143
1685.81	6014
1687.975	6108
1690.142	6067
1692.305	5990
1694.468	5992
1696.632	5978
1698.794	6012
1700.957	6045
1703.119	6043
1705.279	6016
1707.439	6045
1709.598	6136
1711.758	5980
1713.917	6101
1716.075	5985
1718.231	6016
1720.388	6051
1722.543	6012
1724.702	5953
1726.856	5995
1729.01	5935
1731.164	5994
1733.317	5907
1735.471	5995
1737.623	5954
1739.774	5929
1741.925	5989
1744.075	6038
1746.225	5979
1748.376	6002
1750.524	6133
1752.672	5995
1754.82	6127
1756.965	5926
1759.113	6005
1761.259	6002
1763.405	6084
1765.549	6003
1767.694	6040
1769.836	6068
1771.981	5969
1774.123	5983
1776.264	5986
1778.405	6144
1780.546	6099
1782.687	6021
1784.827	6063
1786.966	6097
1789.103	5997
1791.242	6023
1793.381	6128
1795.517	6060
1797.653	6039
1799.788	6076
1801.923	6022
1804.057	6067
1806.193	6080
1808.326	6040
1810.457	6113
1812.59	6065
1814.721	6125
1816.855	6039
1818.984	6023
1821.113	6041
1823.244	5925
1825.372	6073
1827.499	6028
1829.63	6044
1831.756	6082
1833.882	6037
1836.007	5966
1838.132	6085
1840.26	6035
1842.384	6016
1844.507	6033
1846.63	6037
1848.752	6039
1850.875	6103
1852.996	6023
1855.118	5984
1857.238	6044
1859.358	6016
1861.477	5956
1863.597	5990
1865.715	5968
1867.832	5972
1869.948	6055
1872.064	5895
1874.181	6056
1876.297	5944
1878.411	5993
1880.526	5936
1882.639	5959
1884.752	5880
1886.865	6050
1888.977	6018
1891.089	6075
1893.2	5964
1895.308	6043
1897.42	6087
1899.53	6084
1901.639	6047
1903.745	6071
1905.853	6153
1907.962	6086
1910.067	6009
1912.174	6075
1914.278	6030
1916.383	6047
1918.486	6107
1920.592	6024
1922.694	6100
1924.797	6108
1926.898	6173
1929	6123
1931.102	6147
1933.203	6122
1935.301	6137
1937.401	6112
1939.499	6106
1941.598	6222
1943.697	6153
1945.793	6188
1947.888	6022
1949.985	6178
1952.08	6121
1954.176	6093
1956.269	6096
1958.364	6147
1960.457	6141
1962.549	6119
1964.642	6097
1966.733	6176
1968.823	6094
1970.913	6052
1973.005	6088
1975.093	6045
1977.184	5974
1979.271	6116
1981.359	6028
1983.446	6015
1985.532	6110
1987.619	6105
1989.705	6172
1991.789	6021
1993.874	6120
1995.956	6034
1998.041	6042
2000.123	6085
2002.206	6071
2004.287	5997
2006.368	6020
2008.449	6009
2010.529	6056
2012.609	6113
2014.688	5999
2016.766	6024
2018.843	6094
2020.922	6047
2022.999	5961
2025.074	6085
2027.15	6096
2029.225	6068
2031.299	6118
2033.375	6076
2035.447	6003
2037.52	6000
2039.592	6026
2041.664	6004
2043.736	6027
2045.807	6079
2047.876	6067
2049.947	5956
2052.015	5998
2054.086	5964
2056.153	5989
2058.221	6058
2060.288	6079
2062.353	6042
2064.42	6041
2066.486	6006
2068.55	6058
2070.614	6054
2072.678	6107
2074.741	5991
2076.805	5994
2078.866	5959
2080.929	6125
2082.99	6156
2085.049	6133
2087.109	6216
2089.17	6138
2091.228	6036
2093.286	5989
2095.344	6054
2097.4	6023
2099.46	6026
2101.516	5910
2103.572	6126
2105.626	6011
2107.679	6074
2109.735	5974
2111.788	6035
2113.841	6027
2115.894	6118
2117.945	6065
2119.997	6015
2122.049	5999
2124.1	6047
2126.148	5973
2128.197	5902
2130.246	5985
2132.296	6080
2134.342	6027
2136.39	6002
2138.437	6013
2140.483	6047
2142.527	6069
2144.574	6006
2146.619	5939
2148.661	5923
2150.705	5995
2152.747	6010
2154.792	5857
2156.832	6024
2158.874	6005
2160.915	5953
2162.954	5916
2164.995	5986
2167.034	6039
2169.072	6031
2171.111	5932
2173.148	5917
2175.186	5991
2177.223	5914
2179.258	5906
2181.294	5878
2183.328	5963
2185.362	5897
2187.398	5908
2189.431	5923
2191.463	5833
2193.495	5789
2195.528	5821
2197.56	5942
2199.59	5922
2201.62	5888
2203.649	5765
2205.678	5851
2207.708	5829
2209.737	5892
2211.764	6006
2213.791	5803
2215.817	5867
2217.843	5887
2219.87	6002
2221.895	5892
2223.919	5853
2225.942	5927
2227.966	5815
2229.988	5724
2232.012	5899
2234.032	5811
2236.054	5888
2238.074	5937
2240.095	5882
2242.116	5975
2244.135	5866
2246.153	5893
2248.171	5793
2250.188	5878
2252.208	5804
2254.223	5844
2256.239	5801
2258.255	5879
2260.269	5779
2262.283	5836
2264.3	5878
2266.312	5775
2268.325	5797
2270.336	5752
2272.349	5789
2274.362	5819
2276.372	5864
2278.383	5839
2280.392	5805
2282.402	5836
2284.409	5811
2286.418	5871
2288.427	5782
2290.433	5814
2292.441	5796
2294.446	5819
2296.453	5784
2298.459	5864
2300.463	5721
2302.466	5817
2304.471	5790
2306.475	5876
2308.477	5745
2310.478	5732
2312.481	5809
2314.481	5807
2316.481	5809
2318.482	5830
2320.482	5779
2322.48	5705
2324.48	5720
2326.478	5644
2328.476	5839
2330.473	5801
2332.469	5724
2334.465	5820
2336.46	5719
2338.454	5725
2340.45	5899
2342.444	5770
2344.437	5603
2346.43	5753
2348.421	5618
2350.414	5702
2352.405	5679
2354.396	5721
2356.386	5713
2358.376	5728
2360.366	5758
2362.355	5709
2364.343	5673
2366.331	5682
2368.317	5747
2370.304	5732
2372.292	5659
2374.278	5620
2376.262	5695
2378.247	5665
2380.23	5716
2382.216	5715
2384.199	5673
2386.181	5706
2388.163	5626
2390.144	5531
2392.127	5630
2394.107	5706
2396.087	5626
2398.066	5603
2400.046	5645
2402.023	5594
2404.004	5622
2405.981	5688
2407.957	5736
2409.934	5563
2411.91	5587
2413.886	5622
2415.862	5602
2417.836	5609
2419.809	5609
2421.784	5563
2423.756	5674
2425.73	5543
2427.701	5614
2429.672	5702
2431.644	5619
2433.615	5512
2435.586	5562
2437.555	5654
2439.523	5522
2441.491	5621
2443.459	5670
2445.428	5503
2447.395	5607
2449.361	5714
2451.327	5521
2453.292	5573
2455.257	5421
2457.223	5639
2459.187	5514
2461.15	5620
2463.113	5544
2465.076	5550
2467.039	5530
2468.999	5605
2470.96	5654
2472.921	5578
2474.881	5520
2476.841	5608
2478.8	5626
2480.759	5474
2482.717	5461
2484.675	5577
2486.63	5537
2488.589	5502
2490.545	5499
2492.5	5505
2494.455	5550
2496.408	5606
2498.364	5612
2500.318	5512
2502.27	5498
2504.223	5446
2506.174	5662
2508.126	5595
2510.078	5450
2512.03	5453
2513.979	5465
2515.927	5369
2517.877	5478
2519.826	5383
2521.775	5447
2523.722	5504
2525.668	5569
2527.616	5530
2529.561	5446
2531.508	5441
2533.452	5440
2535.398	5466
2537.342	5498
2539.284	5430
2541.229	5428
2543.173	5483
2545.114	5476
2547.055	5441
2548.996	5471
2550.938	5458
2552.878	5388
2554.817	5444
2556.756	5482
2558.695	5478
2560.633	5528
2562.572	5432
2564.509	5414
2566.445	5450
2568.382	5459
2570.317	5383
2572.254	5432
2574.189	5508
2576.123	5454
2578.057	5376
2579.99	5375
2581.923	5499
2583.855	5552
2585.788	5398
2587.719	5409
2589.65	5606
2591.579	5421
2593.511	5446
2595.44	5474
2597.37	5447
2599.297	5390
2601.225	5459
2603.153	5462
2605.08	5487
2607.007	5498
2608.932	5406
2610.858	5510
2612.782	5355
2614.709	5435
2616.632	5469
2618.556	5497
2620.478	5324
2622.401	5491
2624.324	5461
2626.247	5345
2628.167	5370
2630.088	5520
2632.008	5443
2633.928	5445
2635.848	5432
2637.766	5402
2639.684	5463
2641.603	5472
2643.519	5485
2645.437	5418
2647.353	5546
2649.27	5435
2651.184	5487
2653.099	5402
2655.014	5476
2656.928	5381
2658.842	5472
2660.755	5474
2662.667	5451
2664.579	5343
2666.491	5410
2668.402	5463
2670.312	5376
2672.222	5375
2674.132	5340
2676.042	5398
2677.951	5387
2679.859	5378
2681.766	5412
2683.674	5372
2685.582	5427
2687.488	5315
2689.392	5353
2691.298	5280
2693.202	5359
2695.107	5212
2697.012	5418
2698.914	5427
2700.817	5421
2702.72	5318
2704.622	5362
2706.524	5218
2708.425	5266
2710.326	5328
2712.225	5235
2714.125	5311
2716.024	5310
2717.923	5266
2719.822	5373
2721.719	5351
2723.616	5293
2725.512	5369
2727.41	5352
2729.305	5332
2731.201	5234
2733.095	5286
2734.99	5379
2736.884	5268
2738.778	5246
2740.67	5287
2742.562	5264
2744.455	5256
2746.346	5209
2748.238	5218
2750.129	5321
2752.018	5330
2753.907	5240
2755.797	5320
2757.687	5256
2759.575	5251
2761.462	5261
2763.349	5267
2765.237	5239
2767.124	5357
2769.009	5228
2770.894	5278
2772.779	5257
2774.663	5238
2776.547	5220
2778.431	5249
2780.314	5197
2782.197	5188
2784.078	5272
2785.96	5212
2787.842	5230
2789.723	5265
2791.603	5150
2793.483	5070
2795.362	5207
2797.241	5253
2799.121	5194
2800.997	5162
2802.874	5186
2804.751	5152
2806.628	5201
2808.506	5200
2810.38	5218
2812.255	5263
2814.13	5183
2816.003	5180
2817.878	5178
2819.752	5181
2821.623	5201
2823.496	5208
2825.368	5187
2827.238	5210
2829.111	5198
2830.98	5133
2832.851	5088
2834.719	5171
2836.589	5123
2838.458	5175
2840.327	5114
2842.193	5123
2844.061	5170
2845.927	5143
2847.794	5088
2849.66	5161
2851.525	5092
2853.39	5196
2855.254	5243
2857.117	5146
2858.983	5091
2860.845	5107
2862.707	5046
2864.569	5198
2866.431	5218
2868.293	5170
2870.154	5175
2872.013	5111
2873.873	5098
2875.733	5222
2877.592	5199
2879.451	5298
2881.309	5352
2883.166	5287
2885.022	5309
2886.879	5341
2888.736	5289
2890.591	5315
2892.446	5300
2894.301	5211
2896.155	5210
2898.009	5211
2899.863	5308
2901.716	5193
2903.568	5192
2905.419	5193
2907.27	5317
2909.123	5167
2910.973	5200
2912.824	5249
2914.673	5323
2916.521	5255
2918.372	5169
2920.22	5346
2922.067	5240
2923.914	5232
2925.761	5315
2927.607	5337
2929.455	5314
2931.301	5417
2933.144	5422
2934.99	5435
2936.833	5399
2938.678	5362
2940.522	5435
2942.364	5503
2944.207	5438
2946.048	5442
2947.891	5493
2949.731	5395
2951.571	5420
2953.412	5426
2955.25	5433
2957.09	5293
2958.93	5364
2960.767	5404
2962.606	5337
2964.443	5219
2966.279	5279
2968.116	5176
2969.953	5268
2971.788	5204
2973.623	5257
2975.457	5105
2977.292	5132
2979.127	5207
2980.959	5196
2982.792	5148
2984.624	5142
2986.455	5192
2988.288	5191
2990.119	5099
2991.949	5095
2993.779	5098
2995.608	5140
2997.439	5109
2999.268	5138
3001.096	4994
3002.923	5002
3004.751	5018
3006.578	5008
3008.406	5003
3010.232	4904
3012.057	5050
3013.883	5015
3015.706	4913
3017.532	4830
3019.356	4867
3021.179	4878
3023.002	4915
3024.823	4821
3026.646	4981
3028.469	4895
3030.289	4901
3032.11	4785
3033.93	4929
3035.749	4813
3037.57	4773
3039.39	4852
3041.207	4842
3043.026	4914
3044.842	4781
3046.661	4800
3048.477	4788
3050.294	4903
3052.109	4737
3053.925	4817
3055.739	4751
3057.555	4769
3059.368	4784
3061.181	4798
3062.995	4779
3064.807	4769
3066.62	4732
3068.433	4665
3070.243	4791
3072.054	4783
3073.865	4766
3075.675	4754
3077.485	4763
3079.293	4752
3081.102	4672
3082.911	4728
3084.719	4711
3086.527	4702
3088.333	4652
3090.139	4614
3091.945	4698
3093.75	4815
3095.557	4591
3097.361	4683
3099.165	4689
3100.969	4729
3102.772	4664
3104.575	4724
3106.379	4611
3108.181	4632
3109.982	4613
3111.783	4577
3113.584	4618
3115.386	4566
3117.186	4618
3118.985	4565
3120.783	4626
3122.582	4482
3124.381	4622
3126.179	4632
3127.975	4654
3129.772	4647
3131.569	4555
3133.365	4629
3135.161	4604
3136.956	4626
3138.751	4639
3140.544	4581
3142.338	4544
3144.132	4554
3145.925	4543
3147.717	4440
3149.509	4551
3151.301	4572
3153.091	4534
3154.884	4548
3156.673	4560
3158.462	4497
3160.252	4467
3162.041	4479
3163.831	4500
3165.618	4487
3167.405	4482
3169.193	4509
3170.979	4418
3172.767	4480
3174.553	4508
3176.338	4454
3178.123	4489
3179.907	4553
3181.692	4476
3183.477	4374
3185.259	4470
3187.042	4478
3188.824	4518
3190.607	4474
3192.389	4475
3194.17	4473
3195.951	4514
3197.73	4422
3199.51	4445
3201.289	4346
3203.07	4448
3204.848	4402
3206.626	4392
3208.403	4458
3210.18	4379
3211.959	4475
3213.735	4439
3215.511	4441
3217.285	4386
3219.06	4390
3220.836	4420
3222.611	4344
3224.384	4368
3226.158	4369
3227.929	4354
3229.702	4420
3231.476	4374
3233.248	4453
3235.018	4319
3236.789	4301
3238.56	4367
3240.33	4369
3242.1	4328
3243.869	4329
3245.637	4484
3247.405	4384
3249.172	4394
3250.941	4316
3252.707	4385
3254.474	4345
3256.24	4376
3258.006	4427
3259.772	4303
3261.537	4345
3263.301	4382
3265.065	4400
3266.828	4387
3268.592	4331
3270.355	4369
3272.117	4388
3273.878	4290
3275.64	4274
3277.401	4388
3279.162	4353
3280.922	4366
3282.682	4258
3284.441	4399
3286.199	4321
3287.959	4359
3289.716	4350
3291.475	4339
3293.232	4398
3294.988	4326
3296.744	4287
3298.501	4413
3300.256	4303
3302.011	4376
3303.766	4304
3305.52	4351
3307.275	4302
3309.028	4304
3310.781	4318
3312.533	4349
3314.285	4245
3316.038	4273
3317.789	4308
3319.54	4276
3321.289	4326
3323.039	4331
3324.789	4246
3326.539	4283
3328.288	4301
3330.035	4336
3331.783	4292
3333.531	4260
3335.28	4287
3337.025	4306
3338.771	4283
3340.518	4275
3342.262	4198
3344.009	4254
3345.753	4327
3347.497	4365
3349.24	4255
3350.983	4229
3352.726	4234
3354.469	4209
3356.212	4259
3357.952	4162
3359.694	4212
3361.434	4206
3363.176	4227
3364.916	4200
3366.654	4199
3368.394	4158
3370.132	4208
3371.871	4253
3373.61	4164
3375.346	4112
3377.083	4256
3378.82	4235
3380.556	4171
3382.292	4210
3384.027	4196
3385.763	4129
3387.497	4164
3389.231	4209
3390.965	4133
3392.698	4202
3394.431	4077
3396.164	4183
3397.896	4199
3399.627	4239
3401.36	4149
3403.09	4184
3404.82	4121
3406.55	4166
3408.279	4103
3410.01	4209
3411.738	4143
3413.467	4047
3415.194	4168
3416.92	4095
3418.647	4190
3420.375	4126
3422.102	4083
3423.827	4091
3425.553	4221
3427.277	4037
3429.003	4127
3430.727	4011
3432.451	4161
3434.173	4150
3435.896	3996
3437.62	4043
3439.343	4105
3441.063	4084
3442.785	4111
3444.505	4018
3446.226	4028
3447.948	4055
3449.666	4011
3451.386	4041
3453.104	3988
3454.823	4104
3456.541	3973
3458.259	4003
3459.976	4016
3461.693	4077
3463.408	3920
3465.125	3990
3466.841	3967
3468.556	3969
3470.271	3918
3471.985	3949
3473.698	3961
3475.414	3934
3477.126	3949
3478.838	3927
3480.55	3960
3482.263	3957
3483.975	3950
3485.686	3991
3487.396	3937
3489.106	3894
3490.817	3863
3492.526	3940
3494.236	3879
3495.944	3970
3497.652	3882
3499.359	3977
3501.066	3870
3502.775	3854
3504.481	3917
3506.187	3873
3507.893	3913
3509.598	3895
3511.304	3903
3513.009	3856
3514.713	3897
3516.417	3856
3518.12	3874
3519.821	3874
3521.525	3853
3523.228	3783
3524.929	3842
3526.631	3834
3528.33	3849
3530.032	3804
3531.733	3826
3533.433	3850
3535.131	3784
3536.83	3828
3538.529	3868
3540.227	3868
3541.925	3852
3543.623	3892
3545.319	3820
3547.016	3760
3548.712	3795
3550.408	3765
3552.103	3785
3553.798	3755
3555.491	3797
3557.188	3814
3558.88	3770
3560.574	3752
3562.266	3749
3563.959	3744
3565.651	3820
3567.343	3742
3569.035	3828
3570.725	3758
3572.415	3805
3574.106	3818
3575.797	3710
3577.485	3819
3579.174	3789
3580.863	3710
3582.551	3799
3584.238	3762
3585.926	3771
3587.613	3628
3589.3	3734
3590.986	3732
3592.671	3704
3594.357	3759
3596.042	3788
3597.726	3672
3599.41	3677
3601.094	3698
3602.778	3647
3604.461	3596
3606.143	3607
3607.825	3638
3609.507	3655
3611.188	3586
3612.87	3601
3614.551	3690
3616.229	3691
3617.909	3634
3619.589	3629
3621.269	3620
3622.948	3600
3624.625	3659
3626.302	3561
3627.98	3591
3629.657	3690
3631.334	3609
3633.01	3619
3634.686	3592
3636.361	3505
3638.036	3485
3639.712	3591
3641.385	3623
3643.06	3559
3644.732	3536
3646.405	3564
3648.08	3545
3649.751	3585
3651.424	3544
3653.094	3525
3654.766	3566
3656.436	3490
3658.106	3645
3659.777	3590
3661.446	3506
3663.115	3453
3664.783	3528
3666.452	3511
3668.121	3467
3669.788	3525
3671.454	3441
3673.121	3461
3674.789	3533
3676.455	3450
3678.12	3538
3679.784	3498
3681.45	3492
3683.114	3514
3684.779	3515
3686.442	3499
3688.105	3528
3689.768	3496
3691.43	3416
3693.093	3439
3694.754	3415
3696.415	3541
3698.076	3394
3699.736	3509
3701.396	3440
3703.057	3425
3704.716	3416
3706.375	3422
3708.034	3437
3709.692	3460
3711.351	3473
3713.008	3329
3714.665	3460
3716.321	3428
3717.977	3447
3719.634	3347
3721.29	3427
3722.945	3399
3724.598	3356
3726.253	3422
3727.907	3299
3729.561	3412
3731.214	3404
3732.867	3451
3734.518	3454
3736.171	3433
3737.824	3397
3739.474	3370
3741.125	3413
3742.775	3369
3744.425	3391
3746.074	3326
3747.725	3358
3749.373	3431
3751.022	3326
3752.669	3341
3754.318	3344
3755.966	3366
3757.612	3453
3759.259	3322
3760.905	3284
3762.55	3384
3764.197	3268
3765.842	3330
3767.486	3352
3769.131	3306
3770.774	3377
3772.417	3299
3774.061	3365
3775.705	3273
3777.347	3323
3778.988	3327
3780.629	3302
3782.271	3275
3783.912	3179
3785.552	3359
3787.192	3281
3788.831	3280
3790.472	3334
3792.112	3350
3793.75	3235
3795.388	3310
3797.024	3310
3798.661	3259
3800.3	3276
3801.936	3213
3803.572	3258
3805.208	3281
3806.844	3207
3808.48	3250
3810.115	3277
3811.748	3249
3813.382	3233
3815.016	3172
3816.649	3222
3818.283	3224
3819.914	3188
3821.547	3217
3823.178	3275
3824.809	3212
3826.441	3190
3828.072	3174
3829.701	3293
3831.331	3186
3832.96	3233
3834.591	3229
3836.219	3213
3837.847	3230
3839.475	3170
3841.102	3195
3842.729	3186
3844.357	3130
3845.984	3160
3847.609	3179
3849.234	3152
3850.86	3176
3852.485	3155
3854.11	3112
3855.734	3150
3857.357	3181
3858.981	3149
3860.603	3198
3862.227	3184
3863.848	3132
3865.471	3150
3867.092	3123
3868.713	3143
3870.334	3082
3871.954	3158
3873.575	3153
3875.194	3139
3876.813	3135
3878.433	3136
3880.051	3079
3881.669	3069
3883.286	3141
3884.904	3147
3886.52	3059
3888.138	3115
3889.754	3110
3891.37	3090
3892.985	3152
3894.6	3163
3896.216	3074
3897.831	3163
3899.444	3186
3901.058	3068
3902.67	3156
3904.283	3079
3905.897	3094
3907.509	3052
3909.121	3073
3910.731	3006
3912.342	3113
3913.954	3018
3915.563	3025
3917.174	3027
3918.783	3067
3920.391	3056
3922.002	3065
3923.611	3075
3925.218	3008
3926.826	2996
3928.432	3108
3930.039	3069
3931.647	3072
3933.253	3011
3934.859	3026
3936.464	3101
3938.068	3030
3939.675	3028
3941.278	3016
3942.883	3002
3944.486	3010
3946.089	3037
3947.692	2952
3949.295	2959
3950.898	2969
3952.499	2957
3954.1	3062
3955.7	3004
3957.303	3033
3958.903	2962
3960.502	3009
3962.101	2971
3963.7	2943
3965.301	2940
3966.899	2980
3968.497	2970
3970.094	2921
3971.691	2956
3973.288	2934
3974.885	2987
3976.481	2902
3978.077	2934
3979.672	2963
3981.267	2937
3982.863	3000
3984.457	2890
3986.051	2919
3987.645	2887
3989.238	2986
3990.831	2942
3992.425	2942
3994.017	2895
3995.607	2957
3997.199	2868
3998.79	2882
4000.382	2920
4001.973	2911
4003.561	2890
4005.151	2906
4006.741	2914
4008.331	2845
4009.918	2846
4011.507	2821
4013.095	2830
4014.681	2873
4016.269	2854
4017.856	2841
4019.443	2863
4021.028	2850
4022.614	2788
4024.199	2826
4025.785	2842
4027.37	2845
4028.953	2823
4030.536	2831
4032.12	2775
4033.704	2814
4035.287	2808
4036.869	2822
4038.45	2813
4040.032	2836
4041.613	2836
4043.195	2796
4044.776	2799
4046.356	2755
4047.935	2799
4049.515	2806
4051.095	2803
4052.674	2817
4054.251	2784
4055.829	2770
4057.406	2757
4058.985	2754
4060.562	2780
4062.139	2847
4063.715	2717
4065.29	2712
4066.865	2728
4068.442	2714
4070.016	2772
4071.59	2768
4073.164	2723
4074.738	2695
4076.312	2763
4077.885	2685
4079.458	2732
4081.03	2769
4082.602	2756
4084.173	2777
4085.745	2768
4087.315	2681
4088.886	2755
4090.456	2836
4092.026	2777
4093.596	2711
4095.165	2660
4096.734	2692
4098.301	2708
4099.869	2680
4101.437	2698
4103.006	2762
4104.572	2759
4106.139	2682
4107.704	2714
4109.27	2633
4110.837	2731
4112.401	2755
4113.966	2618
4115.53	2669
4117.094	2631
4118.659	2719
4120.223	2687
4121.785	2642
4123.347	2618
4124.909	2648
4126.471	2696
4128.034	2622
4129.595	2638
4131.155	2663
4132.716	2670
4134.275	2671
4135.836	2701
4137.395	2658
4138.955	2660
4140.513	2613
4142.071	2614
4143.628	2625
4145.188	2590
4146.745	2551
4148.302	2611
4149.858	2623
4151.414	2674
4152.971	2555
4154.526	2649
4156.081	2570
4157.635	2576
4159.189	2588
4160.745	2584
4162.298	2562
4163.852	2582
4165.405	2580
4166.957	2597
4168.51	2583
4170.063	2512
4171.614	2512
4173.166	2516
4174.717	2593
4176.267	2482
4177.817	2560
4179.368	2561
4180.917	2558
4182.466	2503
4184.016	2516
4185.564	2501
4187.112	2496
4188.66	2555
4190.207	2518
4191.754	2470
4193.301	2542
4194.848	2489
4196.394	2488
4197.94	2574
4199.484	2446
4201.03	2487
4202.575	2530
4204.12	2440
4205.663	2465
4207.207	2457
4208.75	2499
4210.292	2496
4211.836	2507
4213.378	2498
4214.92	2490
4216.46	2527
4218.002	2485
4219.544	2451
4221.083	2494
4222.625	2509
4224.164	2481
4225.703	2445
4227.244	2400
4228.782	2428
4230.32	2444
4231.857	2449
4233.395	2485
4234.933	2479
4236.471	2450
4238.007	2500
4239.542	2440
4241.078	2452
4242.614	2500
4244.15	2427
4245.685	2469
4247.219	2411
4248.753	2355
4250.287	2405
4251.82	2480
4253.354	2447
4254.887	2410
4256.419	2444
4257.951	2496
4259.483	2470
4261.016	2427
4262.547	2374
4264.078	2369
4265.608	2436
4267.137	2400
4268.668	2393
4270.197	2397
4271.727	2402
4273.254	2397
4274.783	2385
4276.311	2381
4277.84	2442
4279.366	2347
4280.894	2380
4282.42	2421
4283.946	2358
4285.473	2404
4286.998	2392
4288.523	2351
4290.047	2447
4291.572	2322
4293.096	2387
4294.622	2385
4296.144	2311
4297.668	2370
4299.19	2366
4300.713	2382
4302.236	2342
4303.758	2359
4305.279	2352
4306.799	2384
4308.321	2359
4309.842	2363
4311.361	2346
4312.882	2346
4314.401	2329
