400.0961	8790
402.6185	8835
405.1424	8863
407.6635	8710
410.1838	8995
412.7035	8799
415.2225	8913
417.7388	8909
420.2585	8936
422.7754	8978
425.2917	9125
427.8072	9113
430.3221	9054
432.8363	9266
435.3498	9253
437.8626	9197
440.3727	9131
442.8841	9273
445.3969	9268
447.907	9342
450.4142	9248
452.9229	9301
455.4289	9329
457.9362	9470
460.4449	9436
462.9488	9436
465.454	9276
467.9566	9327
470.4604	9599
472.9637	9528
475.4662	9534
477.966	9562
480.4671	9502
482.9656	9510
485.4633	9732
487.9645	9742
490.4608	9714
492.9566	9782
495.4536	9797
497.948	9908
500.4437	9709
502.9387	9678
505.431	9860
507.9226	9940
510.4136	9950
512.9079	9939
515.3975	9804
517.8864	9869
520.3746	9827
522.8622	9869
525.3491	9978
527.8394	9951
530.3249	9964
532.8098	9835
535.2939	9935
537.7774	9991
540.2623	10074
542.7444	9908
545.2259	9828
547.7067	10019
550.1868	10012
552.6683	9843
555.147	9864
557.6231	9965
560.1005	9997
562.5773	9990
565.0534	10000
567.5308	10181
570.0056	10021
572.4776	10178
574.951	9984
577.4237	10295
579.8978	10185
582.3671	10212
584.8378	10175
587.3079	10216
589.7773	10335
592.244	10425
594.714	10161
597.1793	10272
599.6461	10340
602.1121	10226
604.5754	10208
607.0421	10244
609.5042	10257
611.9675	10283
614.4282	10141
616.8902	10227
619.3515	10286
621.8122	10280
624.2702	10249
626.7296	10383
629.1863	10217
631.6423	10426
634.1017	10432
636.5563	10295
639.0104	10460
641.4658	10354
643.9185	10375
646.3725	10343
648.8239	10528
651.2766	10559
653.7266	10494
656.176	10577
658.6247	10407
661.0748	10507
663.5242	10503
665.9709	10590
668.417	10645
670.8624	10575
673.3092	10603
675.7533	10676
678.1968	10687
680.6395	10632
683.0817	10624
685.5251	10611
687.9659	10722
690.4061	10837
692.8456	10632
695.2844	10808
697.7226	10773
700.1621	10846
702.599	10867
705.0332	11024
707.4688	10774
709.9036	10863
712.3399	10953
714.7735	10916
717.2044	10944
719.6367	10916
722.0683	11083
724.4993	11110
726.9296	11091
729.3593	11173
731.7883	11096
734.2147	11061
736.6423	11073
739.0714	11333
741.4958	11305
743.9216	11385
746.3447	11308
748.7691	11470
751.1929	11347
753.616	11379
756.0366	11606
758.4584	11604
760.8776	11485
763.2982	11428
765.718	11463
768.1373	11577
770.5539	11604
772.9698	11418
775.3871	11550
777.8038	11550
780.2178	11679
782.6332	11724
785.0459	11638
787.458	11514
789.8714	11499
792.2842	11557
794.6943	11498
797.1038	11621
799.5127	11474
801.9209	11486
804.3324	11723
806.7393	11603
809.1456	11683
811.5513	11657
813.9562	11658
816.3625	11498
818.7663	11790
821.1693	11805
823.5718	11655
825.9735	11781
828.3746	11633
830.7771	11586
833.177	11752
835.5762	11754
837.9747	11797
840.3727	11768
842.772	11823
845.1666	11801
847.5626	11902
849.958	11820
852.3527	11821
854.7488	11971
857.1403	11815
859.5331	11883
861.9253	11848
864.3168	11746
866.7057	11819
869.098	11828
871.4876	11829
873.8746	11778
876.263	11790
878.6487	11855
881.0378	11740
883.4243	11693
885.8081	11637
888.1933	11798
890.5759	11681
892.9598	11818
895.343	11913
897.7256	11740
900.1057	11797
902.4871	11909
904.8659	11904
907.246	11937
909.6254	12033
912.0023	12025
914.3786	12034
916.7562	12139
919.1331	12014
921.5074	12322
923.8831	12225
926.2562	12152
928.6287	12184
931.0005	12285
933.3757	12278
935.7462	12270
938.1162	12121
940.4855	12378
942.8542	12233
945.2242	12251
947.5916	12392
949.9584	12217
952.3266	12294
954.6921	12676
957.0571	12718
959.4233	12604
961.787	12734
964.15	12587
966.5125	12581
968.8742	12572
971.2354	12322
973.5959	12455
975.9559	12304
978.3151	12264
980.6738	12481
983.0338	12266
985.3912	12308
987.7461	12212
990.1022	12176
992.4578	12104
994.8127	12248
997.1689	12078
999.5207	12173
1001.874	12337
1004.226	12304
1006.576	12219
1008.929	12265
1011.28	12216
1013.628	12271
1015.977	12211
1018.324	12217
1020.674	12108
1023.019	12310
1025.366	12236
1027.713	12367
1030.056	12390
1032.399	12175
1034.746	12241
1037.087	12409
1039.431	12511
1041.771	12404
1044.113	12289
1046.454	12426
1048.793	12437
1051.133	12162
1053.471	12356
1055.807	12412
1058.146	12233
1060.483	12355
1062.818	12478
1065.153	12665
1067.489	12418
1069.822	12551
1072.156	12550
1074.488	12535
1076.82	12369
1079.15	12460
1081.48	12511
1083.814	12601
1086.143	12323
1088.471	12526
1090.799	12338
1093.126	12448
1095.452	12473
1097.78	12382
1100.105	12683
1102.43	12473
1104.754	12694
1107.077	12494
1109.4	12609
1111.722	12479
1114.044	12725
1116.365	12714
1118.685	12729
1121.005	12557
1123.324	12718
1125.643	12616
1127.961	12803
1130.278	12814
1132.595	12588
1134.911	12636
1137.226	12668
1139.541	12681
1141.854	12735
1144.167	12664
1146.482	12690
1148.793	12650
1151.105	12606
1153.414	12800
1155.725	12670
1158.033	12708
1160.344	12600
1162.651	12737
1164.959	12675
1167.265	12698
1169.572	12843
1171.878	12746
1174.184	12723
1176.488	12684
1178.79	12751
1181.094	12656
1183.396	12819
1185.699	12649
1188.001	12742
1190.301	12732
1192.6	12774
1194.9	12621
1197.2	12679
1199.497	12741
1201.794	12702
1204.09	12722
1206.387	12702
1208.684	12708
1210.978	12725
1213.272	12806
1215.565	12732
1217.858	12795
1220.15	12909
1222.443	12634
1224.734	12678
1227.024	12761
1229.313	12850
1231.602	12802
1233.892	12902
1236.18	12906
1238.467	12940
1240.754	12995
1243.04	12876
1245.325	13171
1247.612	13056
1249.896	13060
1252.178	13156
1254.461	13099
1256.743	13020
1259.027	13042
1261.308	13209
1263.587	13077
1265.867	12971
1268.146	13182
1270.425	12929
1272.703	13111
1274.981	13020
1277.256	13130
1279.532	13098
1281.808	12933
1284.083	13069
1286.358	12993
1288.63	13037
1290.904	12776
1293.175	12894
1295.449	12878
1297.719	12955
1299.99	13084
1302.259	12931
1304.529	12885
1306.798	13028
1309.065	12885
1311.333	12947
1313.599	12866
1315.866	12975
1318.131	13011
1320.396	12830
1322.66	12852
1324.925	12998
1327.187	13027
1329.448	12997
1331.711	13028
1333.974	13094
1336.234	12912
1338.493	13163
1340.752	13045
1343.01	12967
1345.269	12900
1347.526	13042
1349.784	12919
1352.04	12957
1354.295	12989
1356.552	13063
1358.806	12834
1361.059	12932
1363.312	13100
1365.564	13069
1367.818	13177
1370.069	13055
1372.318	13027
1374.568	13109
1376.817	13094
1379.066	13114
1381.316	12982
1383.564	13068
1385.809	13157
1388.056	13012
1390.301	13245
1392.549	13059
1394.793	13110
1397.036	13259
1399.279	13214
1401.522	13258
1403.763	13413
1406.007	13177
1408.248	13265
1410.487	13138
1412.727	13370
1414.965	13310
1417.205	13185
1419.442	13355
1421.68	13233
1423.915	13263
1426.152	13148
1428.388	13238
1430.623	13339
1432.857	13509
1435.091	13328
1437.323	13411
1439.556	13510
1441.789	13339
1444.019	13515
1446.25	13575
1448.48	13307
1450.708	13396
1452.938	13484
1455.167	13459
1457.394	13306
1459.62	13376
1461.846	13289
1464.073	13330
1466.299	13501
1468.523	13236
1470.746	13346
1472.969	13342
1475.191	13190
1477.415	13483
1479.636	13041
1481.858	13233
1484.078	13235
1486.298	13231
1488.518	13183
1490.736	13187
1492.954	13062
1495.169	13052
1497.386	13091
1499.602	13130
1501.819	13134
1504.034	13044
1506.248	13083
1508.462	13168
1510.675	13009
1512.888	12913
1515.1	13066
1517.311	13056
1519.522	12927
1521.732	12917
1523.942	13020
1526.151	13108
1528.36	13040
1530.566	13112
1532.773	12916
1534.98	13111
1537.187	13153
1539.392	13133
1541.596	13078
1543.801	12993
1546.005	13196
1548.208	13205
1550.411	13058
1552.612	13301
1554.814	13264
1557.013	13107
1559.212	13283
1561.414	13255
1563.612	13276
1565.811	13149
1568.007	13330
1570.203	13395
1572.403	13152
1574.598	13195
1576.792	13265
1578.988	13236
1581.181	13395
1583.376	13447
1585.568	13243
1587.761	13436
1589.952	13550
1592.143	13489
1594.333	13256
1596.524	13332
1598.715	13373
1600.903	13332
1603.091	13328
1605.278	13536
1607.466	13420
1609.652	13333
1611.838	13478
1614.023	13545
1616.207	13434
1618.391	13396
1620.576	13351
1622.759	13524
1624.941	13553
1627.123	13440
1629.304	13591
1631.484	13458
1633.664	13368
1635.844	13369
1638.022	13426
1640.201	13420
1642.38	13601
1644.556	13429
1646.732	13485
1648.908	13334
1651.084	13494
1653.257	13362
1655.433	13356
1657.607	13535
1659.779	13544
1661.951	13547
1664.122	13418
1666.295	13598
1668.467	13451
1670.635	13669
1672.805	13413
1674.973	13481
1677.142	13506
1679.31	13418
1681.478	13547
1683.644	13537
1685.81	13575
1687.975	13462
1690.142	13476
1692.305	13507
1694.468	13415
1696.632	13449
1698.794	13468
1700.957	13319
1703.119	13422
1705.279	13519
1707.439	13438
1709.598	13456
1711.758	13354
1713.917	13533
1716.075	13483
1718.231	13390
1720.388	13302
1722.543	13325
1724.702	13157
1726.856	13400
1729.01	13339
1731.164	13407
1733.317	13372
1735.471	13598
1737.623	13209
1739.774	13328
1741.925	13247
1744.075	13525
1746.225	13575
1748.376	13257
1750.524	13429
1752.672	13468
1754.82	13271
1756.965	13438
1759.113	13399
1761.259	13374
1763.405	13448
1765.549	13468
1767.694	13363
1769.836	13371
1771.981	13485
1774.123	13255
1776.264	13535
1778.405	13562
1780.546	13576
1782.687	13544
1784.827	13551
1786.966	13635
1789.103	13581
1791.242	13548
1793.381	13513
1795.517	13369
1797.653	13569
1799.788	13430
1801.923	13539
1804.057	13485
1806.193	13603
1808.326	13544
1810.457	13423
1812.59	13641
1814.721	13489
1816.855	13399
1818.984	13517
1821.113	13471
1823.244	13371
1825.372	13350
1827.499	13431
1829.63	13410
1831.756	13420
1833.882	13385
1836.007	13302
1838.132	13428
1840.26	13402
1842.384	13322
1844.507	13441
1846.63	13324
1848.752	13481
1850.875	13291
1852.996	13280
1855.118	13144
1857.238	13256
1859.358	13441
1861.477	13309
1863.597	13261
1865.715	13196
1867.832	13377
1869.948	13197
1872.064	13149
1874.181	13266
1876.297	13340
1878.411	13253
1880.526	13365
1882.639	13255
1884.752	13362
1886.865	13489
1888.977	13477
1891.089	13266
1893.2	13385
1895.308	13357
1897.42	13315
1899.53	13278
1901.639	13321
1903.745	13371
1905.853	13583
1907.962	13421
1910.067	13507
1912.174	13282
1914.278	13532
1916.383	13471
1918.486	13479
1920.592	13563
1922.694	13517
1924.797	13525
1926.898	13613
1929	13496
1931.102	13435
1933.203	13482
1935.301	13554
1937.401	13491
1939.499	13499
1941.598	13521
1943.697	13585
1945.793	13527
1947.888	13468
1949.985	13685
1952.08	13527
1954.176	13379
1956.269	13359
1958.364	13463
1960.457	13419
1962.549	13448
1964.642	13371
1966.733	13404
1968.823	13363
1970.913	13327
1973.005	13323
1975.093	13364
1977.184	13395
1979.271	13424
1981.359	13439
1983.446	13415
1985.532	13381
1987.619	13524
1989.705	13444
1991.789	13230
1993.874	13407
1995.956	13297
1998.041	13408
2000.123	13297
2002.206	13452
2004.287	13212
2006.368	13239
2008.449	13217
2010.529	13433
2012.609	13309
2014.688	13185
2016.766	13236
2018.843	13152
2020.922	13203
2022.999	13267
2025.074	13175
2027.15	13240
2029.225	13448
2031.299	13174
2033.375	13266
2035.447	13296
2037.52	13119
2039.592	13277
2041.664	13138
2043.736	13313
2045.807	13231
2047.876	13406
2049.947	13387
2052.015	13350
2054.086	13382
2056.153	13162
2058.221	13309
2060.288	13223
2062.353	13367
2064.42	13127
2066.486	13085
2068.55	13301
2070.614	13347
2072.678	13140
2074.741	13223
2076.805	13291
2078.866	13350
2080.929	13087
2082.99	13195
2085.049	13159
2087.109	13219
2089.17	13137
2091.228	13288
2093.286	13259
2095.344	13213
2097.4	13320
2099.46	13309
2101.516	13253
2103.572	13195
2105.626	13063
2107.679	13209
2109.735	13141
2111.788	13060
2113.841	13047
2115.894	13276
2117.945	13271
2119.997	13103
2122.049	13186
2124.1	13245
2126.148	13183
2128.197	13141
2130.246	13204
2132.296	13323
2134.342	13077
2136.39	13052
2138.437	13248
2140.483	13122
2142.527	13142
2144.574	13051
2146.619	13136
2148.661	13061
2150.705	12941
2152.747	13192
2154.792	12945
2156.832	13141
2158.874	13023
2160.915	13064
2162.954	13092
2164.995	12946
2167.034	12987
2169.072	13127
2171.111	13117
2173.148	13036
2175.186	13126
2177.223	12866
2179.258	12912
2181.294	12944
2183.328	12939
2185.362	12950
2187.398	12812
2189.431	12808
2191.463	12772
2193.495	12795
2195.528	12897
2197.56	12864
2199.59	12839
2201.62	12732
2203.649	12746
2205.678	12693
2207.708	12735
2209.737	12864
2211.764	12837
2213.791	12776
2215.817	12757
2217.843	12746
2219.87	12877
2221.895	12799
2223.919	12700
2225.942	12523
2227.966	12856
2229.988	12699
2232.012	12603
2234.032	12679
2236.054	12551
2238.074	12738
2240.095	12664
2242.116	12641
2244.135	12720
2246.153	12645
2248.171	12591
2250.188	12519
2252.208	12678
2254.223	12518
2256.239	12689
2258.255	12627
2260.269	12716
2262.283	12631
2264.3	12659
2266.312	12688
2268.325	12615
2270.336	12505
2272.349	12621
2274.362	12645
2276.372	12766
2278.383	12618
2280.392	12679
2282.402	12567
2284.409	12618
2286.418	12697
2288.427	12654
2290.433	12638
2292.441	12483
2294.446	12612
2296.453	12677
2298.459	12585
2300.463	12531
2302.466	12624
2304.471	12554
2306.475	12552
2308.477	12674
2310.478	12493
2312.481	12548
2314.481	12439
2316.481	12566
2318.482	12619
2320.482	12625
2322.48	12613
2324.48	12515
2326.478	12417
2328.476	12355
2330.473	12583
2332.469	12361
2334.465	12372
2336.46	12411
2338.454	12425
2340.45	12448
2342.444	12368
2344.437	12461
2346.43	12418
2348.421	12388
2350.414	12266
2352.405	12511
2354.396	12374
2356.386	12210
2358.376	12342
2360.366	12327
2362.355	12257
2364.343	12170
2366.331	12245
2368.317	12330
2370.304	12099
2372.292	12310
2374.278	12150
2376.262	12272
2378.247	12283
2380.23	12181
2382.216	12408
2384.199	12023
2386.181	12175
2388.163	11898
2390.144	12122
2392.127	12193
2394.107	12115
2396.087	12085
2398.066	12130
2400.046	12096
2402.023	12068
2404.004	12065
2405.981	12094
2407.957	12172
2409.934	11975
2411.91	12054
2413.886	12081
2415.862	11979
2417.836	12047
2419.809	12048
2421.784	12049
2423.756	11985
2425.73	12032
2427.701	12087
2429.672	11904
2431.644	12057
2433.615	12150
2435.586	11940
2437.555	11982
2439.523	12073
2441.491	12071
2443.459	12083
2445.428	11958
2447.395	11917
2449.361	11944
2451.327	11952
2453.292	11964
2455.257	12009
2457.223	12132
2459.187	12007
2461.15	12112
2463.113	11961
2465.076	11906
2467.039	11925
2468.999	12153
2470.96	11792
2472.921	11812
2474.881	11885
2476.841	11856
2478.8	11901
2480.759	11746
2482.717	11723
2484.675	11870
2486.63	11720
2488.589	11773
2490.545	11695
2492.5	11697
2494.455	11829
2496.408	11850
2498.364	11655
2500.318	11665
2502.27	11766
2504.223	11721
2506.174	11788
2508.126	11727
2510.078	11695
2512.03	11698
2513.979	11693
2515.927	11822
2517.877	11700
2519.826	11782
2521.775	11618
2523.722	11606
2525.668	11630
2527.616	11625
2529.561	11694
2531.508	11746
2533.452	11672
2535.398	11628
2537.342	11630
2539.284	11650
2541.229	11751
2543.173	11785
2545.114	11524
2547.055	11772
2548.996	11634
2550.938	11533
2552.878	11738
2554.817	11656
2556.756	11652
2558.695	11454
2560.633	11603
2562.572	11529
2564.509	11443
2566.445	11551
2568.382	11527
2570.317	11449
2572.254	11592
2574.189	11650
2576.123	11524
2578.057	11519
2579.99	11615
2581.923	11730
2583.855	11688
2585.788	11570
2587.719	11565
2589.65	11613
2591.579	11661
2593.511	11464
2595.44	11569
2597.37	11410
2599.297	11705
2601.225	11616
2603.153	11460
2605.08	11665
2607.007	11560
2608.932	11564
2610.858	11614
2612.782	11550
2614.709	11587
2616.632	11373
2618.556	11530
2620.478	11598
2622.401	11613
2624.324	11614
2626.247	11576
2628.167	11604
2630.088	11565
2632.008	11585
2633.928	11456
2635.848	11573
2637.766	11590
2639.684	11533
2641.603	11407
2643.519	11524
2645.437	11484
2647.353	11629
2649.27	11598
2651.184	11493
2653.099	11480
2655.014	11451
2656.928	11503
2658.842	11577
2660.755	11587
2662.667	11415
2664.579	11481
2666.491	11407
2668.402	11268
2670.312	11426
2672.222	11412
2674.132	11387
2676.042	11455
2677.951	11510
2679.859	11554
2681.766	11306
2683.674	11405
2685.582	11218
2687.488	11384
2689.392	11285
2691.298	11227
2693.202	11293
2695.107	11376
2697.012	11203
2698.914	11451
2700.817	11261
2702.72	11349
2704.622	11183
2706.524	11475
2708.425	11217
2710.326	11366
2712.225	11256
2714.125	11162
2716.024	11351
2717.923	11323
2719.822	11090
2721.719	11112
2723.616	11200
2725.512	11179
2727.41	11174
2729.305	11204
2731.201	11147
2733.095	11261
2734.99	11183
2736.884	11032
2738.778	11153
2740.67	11061
2742.562	11251
2744.455	11007
2746.346	11023
2748.238	10992
2750.129	11057
2752.018	11072
2753.907	10886
2755.797	11168
2757.687	11166
2759.575	10915
2761.462	11039
2763.349	10859
2765.237	11042
2767.124	11049
2769.009	11177
2770.894	11120
2772.779	10963
2774.663	10909
2776.547	11023
2778.431	10986
2780.314	10920
2782.197	10933
2784.078	10964
2785.96	10899
2787.842	11011
2789.723	10943
2791.603	11102
2793.483	10932
2795.362	10916
2797.241	10925
2799.121	10905
2800.997	11038
2802.874	11040
2804.751	10780
2806.628	10884
2808.506	10958
2810.38	10835
2812.255	10922
2814.13	10789
2816.003	10944
2817.878	10891
2819.752	10879
2821.623	10861
2823.496	10865
2825.368	10801
2827.238	10815
2829.111	11076
2830.98	10851
2832.851	10724
2834.719	10963
2836.589	10774
2838.458	10784
2840.327	10831
2842.193	10836
2844.061	10697
2845.927	10770
2847.794	10790
2849.66	10896
2851.525	10875
2853.39	10904
2855.254	11010
2857.117	10645
2858.983	10788
2860.845	10721
2862.707	10936
2864.569	10820
2866.431	10910
2868.293	10773
2870.154	10979
2872.013	10881
2873.873	10863
2875.733	10832
2877.592	10933
2879.451	10924
2881.309	10931
2883.166	10815
2885.022	11070
2886.879	11220
2888.736	11149
2890.591	10998
2892.446	11133
2894.301	11176
2896.155	11070
2898.009	10903
2899.863	11211
2901.716	11020
2903.568	11061
2905.419	11044
2907.27	10969
2909.123	10946
2910.973	10914
2912.824	11149
2914.673	10949
2916.521	11024
2918.372	10952
2920.22	11072
2922.067	11134
2923.914	11113
2925.761	11258
2927.607	11137
2929.455	11255
2931.301	10945
2933.144	11067
2934.99	11055
2936.833	11353
2938.678	11062
2940.522	11210
2942.364	11085
2944.207	11323
2946.048	11362
2947.891	11546
2949.731	11445
2951.571	11296
2953.412	11479
2955.25	11428
2957.09	11298
2958.93	11141
2960.767	11414
2962.606	11216
2964.443	11273
2966.279	11210
2968.116	11095
2969.953	11095
2971.788	10908
2973.623	10949
2975.457	10816
2977.292	10742
2979.127	10837
2980.959	10646
2982.792	10510
2984.624	10558
2986.455	10631
2988.288	10684
2990.119	10637
2991.949	10541
2993.779	10439
2995.608	10443
2997.439	10432
2999.268	10426
3001.096	10265
3002.923	10412
3004.751	10415
3006.578	10299
3008.406	10067
3010.232	10316
3012.057	10058
3013.883	10262
3015.706	10351
3017.532	10246
3019.356	10068
3021.179	9969
3023.002	10193
3024.823	10219
3026.646	10312
3028.469	10047
3030.289	10044
3032.11	10095
3033.93	10100
3035.749	10021
3037.57	9923
3039.39	10071
3041.207	9859
3043.026	9979
3044.842	9950
3046.661	10019
3048.477	10025
3050.294	9889
3052.109	9964
3053.925	9981
3055.739	9802
3057.555	9990
3059.368	9808
3061.181	9933
3062.995	9842
3064.807	9910
3066.62	9721
3068.433	9937
3070.243	9741
3072.054	9753
3073.865	9602
3075.675	9702
3077.485	9752
3079.293	9745
3081.102	9813
3082.911	9729
3084.719	9724
3086.527	9772
3088.333	9837
3090.139	9866
3091.945	9549
3093.75	9677
3095.557	9510
3097.361	9613
3099.165	9548
3100.969	9531
3102.772	9649
3104.575	9707
3106.379	9553
3108.181	9524
3109.982	9611
3111.783	9447
3113.584	9543
3115.386	9458
3117.186	9470
3118.985	9492
3120.783	9389
3122.582	9607
3124.381	9386
3126.179	9432
3127.975	9429
3129.772	9370
3131.569	9338
3133.365	9442
3135.161	9468
3136.956	9352
3138.751	9378
3140.544	9212
3142.338	9374
3144.132	9419
3145.925	9349
3147.717	9393
3149.509	9303
3151.301	9380
3153.091	9294
3154.884	9247
3156.673	9179
3158.462	9325
3160.252	9323
3162.041	9112
3163.831	9276
3165.618	9159
3167.405	9027
3169.193	9249
3170.979	9179
3172.767	9115
3174.553	9129
3176.338	9082
3178.123	9263
3179.907	9166
3181.692	9060
3183.477	9025
3185.259	9194
3187.042	9149
3188.824	9227
3190.607	9106
3192.389	9018
3194.17	9027
3195.951	9012
3197.73	8961
3199.51	9050
3201.289	8966
3203.07	9119
3204.848	9056
3206.626	9102
3208.403	9208
3210.18	8997
3211.959	9032
3213.735	8910
3215.511	8950
3217.285	8880
3219.06	8923
3220.836	8842
3222.611	9087
3224.384	9048
3226.158	9054
3227.929	8873
3229.702	8817
3231.476	8865
3233.248	8917
3235.018	8947
3236.789	8926
3238.56	8865
3240.33	8894
3242.1	8991
3243.869	8926
3245.637	8842
3247.405	8772
3249.172	8817
3250.941	8971
3252.707	8748
3254.474	8791
3256.24	8852
3258.006	8839
3259.772	8745
3261.537	8774
3263.301	8881
3265.065	8827
3266.828	8876
3268.592	8835
3270.355	8851
3272.117	8833
3273.878	8720
3275.64	8827
3277.401	8921
3279.162	8697
3280.922	8623
3282.682	8775
3284.441	8954
3286.199	8757
3287.959	8695
3289.716	8683
3291.475	8693
3293.232	8678
3294.988	8796
3296.744	8836
3298.501	8681
3300.256	8652
3302.011	8792
3303.766	8634
3305.52	8683
3307.275	8611
3309.028	8696
3310.781	8638
3312.533	8636
3314.285	8713
3316.038	8679
3317.789	8599
3319.54	8727
3321.289	8561
3323.039	8549
3324.789	8606
3326.539	8662
3328.288	8526
3330.035	8663
3331.783	8423
3333.531	8677
3335.28	8589
3337.025	8654
3338.771	8553
3340.518	8611
3342.262	8484
3344.009	8413
3345.753	8468
3347.497	8578
3349.24	8492
3350.983	8562
3352.726	8524
3354.469	8415
3356.212	8462
3357.952	8476
3359.694	8435
3361.434	8493
3363.176	8406
3364.916	8556
3366.654	8411
3368.394	8445
3370.132	8396
3371.871	8457
3373.61	8467
3375.346	8261
3377.083	8277
3378.82	8348
3380.556	8338
3382.292	8394
3384.027	8365
3385.763	8313
3387.497	8356
3389.231	8391
3390.965	8360
3392.698	8285
3394.431	8109
3396.164	8335
3397.896	8372
3399.627	8256
3401.36	8286
3403.09	8255
3404.82	8213
3406.55	8349
3408.279	8209
3410.01	8203
3411.738	8264
3413.467	8231
3415.194	8177
3416.92	8331
3418.647	8189
3420.375	8194
3422.102	8316
3423.827	8151
3425.553	8213
3427.277	8195
3429.003	8101
3430.727	8120
3432.451	8147
3434.173	8189
3435.896	8193
3437.62	8141
3439.343	8112
3441.063	8083
3442.785	8113
3444.505	8103
3446.226	8004
3447.948	8112
3449.666	7954
3451.386	8006
3453.104	7979
3454.823	8048
3456.541	7925
3458.259	7948
3459.976	8018
3461.693	7944
3463.408	7952
3465.125	7999
3466.841	7908
3468.556	7991
3470.271	7924
3471.985	7788
3473.698	7810
3475.414	7971
3477.126	7898
3478.838	7897
3480.55	7908
3482.263	7696
3483.975	7784
3485.686	7839
3487.396	7999
3489.106	7709
3490.817	7672
3492.526	7745
3494.236	7830
3495.944	7657
3497.652	7862
3499.359	7739
3501.066	7692
3502.775	7766
3504.481	7782
3506.187	7730
3507.893	7689
3509.598	7630
3511.304	7741
3513.009	7746
3514.713	7737
3516.417	7607
3518.12	7702
3519.821	7785
3521.525	7679
3523.228	7649
3524.929	7634
3526.631	7489
3528.33	7594
3530.032	7712
3531.733	7655
3533.433	7562
3535.131	7527
3536.83	7552
3538.529	7515
3540.227	7514
3541.925	7439
3543.623	7514
3545.319	7646
3547.016	7522
3548.712	7534
3550.408	7575
3552.103	7497
3553.798	7427
3555.491	7516
3557.188	7552
3558.88	7608
3560.574	7394
3562.266	7546
3563.959	7446
3565.651	7530
3567.343	7407
3569.035	7470
3570.725	7432
3572.415	7365
3574.106	7356
3575.797	7385
3577.485	7500
3579.174	7400
3580.863	7236
3582.551	7296
3584.238	7512
3585.926	7366
3587.613	7363
3589.3	7392
3590.986	7286
3592.671	7304
3594.357	7294
3596.042	7352
3597.726	7272
3599.41	7249
3601.094	7234
3602.778	7261
3604.461	7191
3606.143	7169
3607.825	7246
3609.507	7078
3611.188	7143
3612.87	7147
3614.551	7151
3616.229	7197
3617.909	7160
3619.589	7134
3621.269	7149
3622.948	7143
3624.625	7142
3626.302	7085
3627.98	7010
3629.657	7091
3631.334	7067
3633.01	7128
3634.686	7183
3636.361	7086
3638.036	7145
3639.712	6966
3641.385	7106
3643.06	7000
3644.732	6888
3646.405	6990
3648.08	7079
3649.751	7082
3651.424	6964
3653.094	7105
3654.766	7021
3656.436	7042
3658.106	6959
3659.777	7001
3661.446	6918
3663.115	6892
3664.783	7005
3666.452	6886
3668.121	7018
3669.788	6882
3671.454	6920
3673.121	6851
3674.789	6858
3676.455	6902
3678.12	6894
3679.784	6894
3681.45	6880
3683.114	6834
3684.779	6843
3686.442	6875
3688.105	6869
3689.768	6879
3691.43	6782
3693.093	6858
3694.754	6890
3696.415	6825
3698.076	6825
3699.736	6817
3701.396	6812
3703.057	6828
3704.716	6788
3706.375	6830
3708.034	6778
3709.692	6683
3711.351	6690
3713.008	6896
3714.665	6687
3716.321	6786
3717.977	6783
3719.634	6758
3721.29	6816
3722.945	6831
3724.598	6681
3726.253	6806
3727.907	6798
3729.561	6749
3731.214	6730
3732.867	6673
3734.518	6595
3736.171	6784
3737.824	6619
3739.474	6698
3741.125	6785
3742.775	6708
3744.425	6758
3746.074	6670
3747.725	6700
3749.373	6663
3751.022	6735
3752.669	6547
3754.318	6567
3755.966	6588
3757.612	6676
3759.259	6612
3760.905	6526
3762.55	6647
3764.197	6588
3765.842	6550
3767.486	6454
3769.131	6689
3770.774	6614
3772.417	6496
3774.061	6573
3775.705	6517
3777.347	6544
3778.988	6437
3780.629	6595
3782.271	6452
3783.912	6582
3785.552	6519
3787.192	6529
3788.831	6483
3790.472	6553
3792.112	6480
3793.75	6433
3795.388	6477
3797.024	6404
3798.661	6546
3800.3	6491
3801.936	6362
3803.572	6431
3805.208	6510
3806.844	6410
3808.48	6381
3810.115	6314
3811.748	6390
3813.382	6378
3815.016	6318
3816.649	6307
3818.283	6377
3819.914	6424
3821.547	6298
3823.178	6368
3824.809	6306
3826.441	6209
3828.072	6337
3829.701	6223
3831.331	6302
3832.96	6398
3834.591	6280
3836.219	6242
3837.847	6259
3839.475	6300
3841.102	6268
3842.729	6256
3844.357	6215
3845.984	6151
3847.609	6198
3849.234	6127
3850.86	6210
3852.485	6155
3854.11	6148
3855.734	6209
3857.357	6209
3858.981	6126
3860.603	6110
3862.227	6071
3863.848	6079
3865.471	6187
3867.092	6147
3868.713	6149
3870.334	6036
3871.954	6092
3873.575	6047
3875.194	6140
3876.813	6174
3878.433	5976
3880.051	6119
3881.669	6022
3883.286	6043
3884.904	6123
3886.52	6105
3888.138	6035
3889.754	6168
3891.37	6066
3892.985	5998
3894.6	5979
3896.216	5971
3897.831	6008
3899.444	5946
3901.058	5940
3902.67	6077
3904.283	6028
3905.897	5997
3907.509	6087
3909.121	6075
3910.731	6000
3912.342	5975
3913.954	5902
3915.563	5963
3917.174	6049
3918.783	5880
3920.391	5950
3922.002	5997
3923.611	5912
3925.218	6007
3926.826	6027
3928.432	5856
3930.039	5964
3931.647	5929
3933.253	5841
3934.859	5932
3936.464	5882
3938.068	5728
3939.675	5950
3941.278	5896
3942.883	5931
3944.486	5848
3946.089	5889
3947.692	5869
3949.295	5907
3950.898	5860
3952.499	5828
3954.1	5855
3955.7	5916
3957.303	5853
3958.903	5716
3960.502	5832
3962.101	5854
3963.7	5876
3965.301	5800
3966.899	5691
3968.497	5882
3970.094	5851
3971.691	5788
3973.288	5739
3974.885	5729
3976.481	5728
3978.077	5639
3979.672	5749
3981.267	5699
3982.863	5693
3984.457	5817
3986.051	5647
3987.645	5666
3989.238	5647
3990.831	5664
3992.425	5626
3994.017	5610
3995.607	5561
3997.199	5662
3998.79	5540
4000.382	5648
4001.973	5698
4003.561	5661
4005.151	5612
4006.741	5589
4008.331	5521
4009.918	5556
4011.507	5536
4013.095	5522
4014.681	5471
4016.269	5507
4017.856	5447
4019.443	5545
4021.028	5552
4022.614	5442
4024.199	5391
4025.785	5491
4027.37	5407
4028.953	5548
4030.536	5413
4032.12	5334
4033.704	5459
4035.287	5461
4036.869	5390
4038.45	5466
4040.032	5379
4041.613	5444
4043.195	5352
4044.776	5410
4046.356	5443
4047.935	5358
4049.515	5524
4051.095	5367
4052.674	5457
4054.251	5398
4055.829	5349
4057.406	5309
4058.985	5272
4060.562	5325
4062.139	5348
4063.715	5334
4065.29	5462
4066.865	5330
4068.442	5360
4070.016	5253
4071.59	5307
4073.164	5264
4074.738	5279
4076.312	5330
4077.885	5252
4079.458	5355
4081.03	5297
4082.602	5286
4084.173	5206
4085.745	5306
4087.315	5200
4088.886	5230
4090.456	5279
4092.026	5190
4093.596	5272
4095.165	5313
4096.734	5127
4098.301	5262
4099.869	5182
4101.437	5259
4103.006	5148
4104.572	5087
4106.139	5093
4107.704	5193
4109.27	5083
4110.837	5146
4112.401	5156
4113.966	5192
4115.53	5093
4117.094	5170
4118.659	5041
4120.223	5165
4121.785	5072
4123.347	5157
4124.909	5106
4126.471	5109
4128.034	5090
4129.595	4968
4131.155	5009
4132.716	5019
4134.275	5052
4135.836	4995
4137.395	5035
4138.955	5025
4140.513	4980
4142.071	4980
4143.628	4975
4145.188	4971
4146.745	4928
4148.302	4917
4149.858	4983
4151.414	4988
4152.971	4966
4154.526	4945
4156.081	4870
4157.635	4990
4159.189	4944
4160.745	4913
4162.298	4969
4163.852	4862
4165.405	4906
4166.957	4947
4168.51	4847
4170.063	4936
4171.614	4874
4173.166	4904
4174.717	4862
4176.267	4742
4177.817	4782
4179.368	4844
4180.917	4891
4182.466	4909
4184.016	4814
4185.564	4850
4187.112	4811
4188.66	4873
4190.207	4731
4191.754	4750
4193.301	4783
4194.848	4803
4196.394	4815
4197.94	4871
4199.484	4836
4201.03	4775
4202.575	4786
4204.12	4758
4205.663	4780
4207.207	4685
4208.75	4790
4210.292	4660
4211.836	4685
4213.378	4703
4214.92	4742
4216.46	4710
4218.002	4800
4219.544	4602
4221.083	4757
4222.625	4755
4224.164	4727
4225.703	4691
4227.244	4745
4228.782	4708
4230.32	4778
4231.857	4499
4233.395	4625
4234.933	4721
4236.471	4618
4238.007	4713
4239.542	4586
4241.078	4645
4242.614	4638
4244.15	4653
4245.685	4709
4247.219	4592
4248.753	4577
4250.287	4647
4251.82	4563
4253.354	4607
4254.887	4595
4256.419	4665
4257.951	4590
4259.483	4622
4261.016	4562
4262.547	4523
4264.078	4601
4265.608	4571
4267.137	4567
4268.668	4580
4270.197	4535
4271.727	4596
4273.254	4618
4274.783	4588
4276.311	4562
4277.84	4607
4279.366	4455
4280.894	4531
4282.42	4609
4283.946	4482
4285.473	4464
4286.998	4489
4288.523	4451
4290.047	4555
4291.572	4455
4293.096	4505
4294.622	4475
4296.144	4508
4297.668	4599
4299.19	4460
4300.713	4571
4302.236	4547
4303.758	4475
4305.279	4393
4306.799	4433
4308.321	4495
4309.842	4395
4311.361	4419
4312.882	4523
4314.401	4422
