400.0961	5901
402.6185	5844
405.1424	5817
407.6635	5843
410.1838	5944
412.7035	5922
415.2225	5856
417.7388	5855
420.2585	5989
422.7754	5991
425.2917	6163
427.8072	6139
430.3221	6150
432.8363	6181
435.3498	6225
437.8626	6245
440.3727	6208
442.8841	6199
445.3969	6192
447.907	6225
450.4142	6204
452.9229	6215
455.4289	6152
457.9362	6125
460.4449	6210
462.9488	6258
465.454	6268
467.9566	6267
470.4604	6255
472.9637	6175
475.4662	6327
477.966	6143
480.4671	6260
482.9656	6213
485.4633	6364
487.9645	6430
490.4608	6384
492.9566	6351
495.4536	6420
497.948	6398
500.4437	6361
502.9387	6375
505.431	6417
507.9226	6483
510.4136	6570
512.9079	6445
515.3975	6489
517.8864	6418
520.3746	6500
522.8622	6510
525.3491	6538
527.8394	6563
530.3249	6525
532.8098	6579
535.2939	6536
537.7774	6615
540.2623	6603
542.7444	6548
545.2259	6526
547.7067	6524
550.1868	6626
552.6683	6493
555.147	6633
557.6231	6476
560.1005	6542
562.5773	6654
565.0534	6578
567.5308	6607
570.0056	6712
572.4776	6607
574.951	6778
577.4237	6769
579.8978	6735
582.3671	6732
584.8378	6850
587.3079	6804
589.7773	6874
592.244	6835
594.714	6776
597.1793	6742
599.6461	6741
602.1121	6780
604.5754	6682
607.0421	6759
609.5042	6709
611.9675	6759
614.4282	6800
616.8902	6798
619.3515	6799
621.8122	6771
624.2702	6703
626.7296	6873
629.1863	6760
631.6423	6771
634.1017	6699
636.5563	6757
639.0104	6847
641.4658	6863
643.9185	6868
646.3725	6783
648.8239	6917
651.2766	6775
653.7266	6840
656.176	6919
658.6247	6959
661.0748	6855
663.5242	7045
665.9709	6860
668.417	6977
670.8624	6878
673.3092	7094
675.7533	6966
678.1968	6881
680.6395	7029
683.0817	6981
685.5251	7052
687.9659	6939
690.4061	7060
692.8456	7051
695.2844	7104
697.7226	6953
700.1621	7198
702.599	7115
705.0332	7081
707.4688	7059
709.9036	7149
712.3399	7047
714.7735	7149
717.2044	7177
719.6367	7339
722.0683	7231
724.4993	7294
726.9296	7250
729.3593	7244
731.7883	7214
734.2147	7309
736.6423	7364
739.0714	7327
741.4958	7336
743.9216	7319
746.3447	7431
748.7691	7359
751.1929	7383
753.616	7527
756.0366	7530
758.4584	7506
760.8776	7567
763.2982	7520
765.718	7450
768.1373	7665
770.5539	7669
772.9698	7437
775.3871	7624
777.8038	7580
780.2178	7571
782.6332	7497
785.0459	7570
787.458	7628
789.8714	7547
792.2842	7539
794.6943	7639
797.1038	7661
799.5127	7658
801.9209	7638
804.3324	7583
806.7393	7562
809.1456	7689
811.5513	7819
813.9562	7634
816.3625	7686
818.7663	7611
821.1693	7682
823.5718	7810
825.9735	7736
828.3746	7619
830.7771	7704
833.177	7724
835.5762	7664
837.9747	7744
840.3727	7720
842.772	7695
845.1666	7783
847.5626	7740
849.958	7814
852.3527	7950
854.7488	7795
857.1403	8010
859.5331	7841
861.9253	7857
864.3168	7831
866.7057	7646
869.098	7795
871.4876	7697
873.8746	7790
876.263	7890
878.6487	7782
881.0378	7702
883.4243	7777
885.8081	7825
888.1933	7741
890.5759	7602
892.9598	7739
895.343	7842
897.7256	7844
900.1057	7975
902.4871	7803
904.8659	7893
907.246	8087
909.6254	7932
912.0023	7947
914.3786	8037
916.7562	8217
919.1331	8244
921.5074	8206
923.8831	8458
926.2562	8410
928.6287	8355
931.0005	8426
933.3757	8210
935.7462	8312
938.1162	8237
940.4855	8392
942.8542	8285
945.2242	8338
947.5916	8526
949.9584	8600
952.3266	8762
954.6921	8875
957.0571	9111
959.4233	9375
961.787	9365
964.15	9473
966.5125	9236
968.8742	9101
971.2354	8646
973.5959	8568
975.9559	8461
978.3151	8302
980.6738	8301
983.0338	8313
985.3912	8092
987.7461	8207
990.1022	8089
992.4578	8113
994.8127	8111
997.1689	8086
999.5207	8152
1001.874	8238
1004.226	8117
1006.576	8093
1008.929	8303
1011.28	8133
1013.628	8074
1015.977	8090
1018.324	8148
1020.674	8152
1023.019	8077
1025.366	8198
1027.713	8219
1030.056	8219
1032.399	8178
1034.746	8374
1037.087	8211
1039.431	8246
1041.771	8283
1044.113	8209
1046.454	8178
1048.793	8232
1051.133	8268
1053.471	8330
1055.807	8272
1058.146	8174
1060.483	8257
1062.818	8363
1065.153	8353
1067.489	8346
1069.822	8276
1072.156	8359
1074.488	8399
1076.82	8431
1079.15	8518
1081.48	8314
1083.814	8248
1086.143	8394
1088.471	8401
1090.799	8365
1093.126	8181
1095.452	8383
1097.78	8341
1100.105	8354
1102.43	8237
1104.754	8262
1107.077	8333
1109.4	8316
1111.722	8369
1114.044	8267
1116.365	8300
1118.685	8398
1121.005	8412
1123.324	8351
1125.643	8422
1127.961	8422
1130.278	8316
1132.595	8319
1134.911	8410
1137.226	8252
1139.541	8418
1141.854	8420
1144.167	8340
1146.482	8409
1148.793	8302
1151.105	8365
1153.414	8376
1155.725	8563
1158.033	8447
1160.344	8362
1162.651	8511
1164.959	8419
1167.265	8502
1169.572	8437
1171.878	8366
1174.184	8471
1176.488	8402
1178.79	8466
1181.094	8454
1183.396	8456
1185.699	8345
1188.001	8367
1190.301	8447
1192.6	8426
1194.9	8342
1197.2	8435
1199.497	8248
1201.794	8447
1204.09	8492
1206.387	8355
1208.684	8462
1210.978	8335
1213.272	8443
1215.565	8330
1217.858	8460
1220.15	8514
1222.443	8477
1224.734	8415
1227.024	8589
1229.313	8569
1231.602	8499
1233.892	8519
1236.18	8586
1238.467	8730
1240.754	8548
1243.04	8683
1245.325	8785
1247.612	8693
1249.896	8776
1252.178	8676
1254.461	8861
1256.743	8841
1259.027	8728
1261.308	8715
1263.587	8686
1265.867	8650
1268.146	8741
1270.425	8792
1272.703	8608
1274.981	8924
1277.256	8594
1279.532	8729
1281.808	8598
1284.083	8668
1286.358	8627
1288.63	8638
1290.904	8601
1293.175	8661
1295.449	8577
1297.719	8673
1299.99	8650
1302.259	8419
1304.529	8623
1306.798	8688
1309.065	8581
1311.333	8626
1313.599	8660
1315.866	8712
1318.131	8510
1320.396	8657
1322.66	8535
1324.925	8628
1327.187	8593
1329.448	8661
1331.711	8684
1333.974	8706
1336.234	8679
1338.493	8569
1340.752	8661
1343.01	8675
1345.269	8673
1347.526	8685
1349.784	8672
1352.04	8578
1354.295	8556
1356.552	8554
1358.806	8608
1361.059	8570
1363.312	8653
1365.564	8509
1367.818	8689
1370.069	8651
1372.318	8700
1374.568	8673
1376.817	8680
1379.066	8647
1381.316	8593
1383.564	8687
1385.809	8713
1388.056	8784
1390.301	8825
1392.549	8834
1394.793	8931
1397.036	9062
1399.279	9122
1401.522	9020
1403.763	8970
1406.007	9065
1408.248	9026
1410.487	8916
1412.727	8899
1414.965	8964
1417.205	9022
1419.442	8906
1421.68	9001
1423.915	8862
1426.152	8885
1428.388	8903
1430.623	8934
1432.857	8901
1435.091	9048
1437.323	9053
1439.556	9016
1441.789	9002
1444.019	8982
1446.25	9137
1448.48	9181
1450.708	9092
1452.938	9022
1455.167	9086
1457.394	9110
1459.62	9146
1461.846	9316
1464.073	9091
1466.299	9092
1468.523	9130
1470.746	8959
1472.969	8817
1475.191	8823
1477.415	8794
1479.636	8739
1481.858	8803
1484.078	8714
1486.298	8711
1488.518	8770
1490.736	8728
1492.954	8685
1495.169	8671
1497.386	8618
1499.602	8672
1501.819	8673
1504.034	8694
1506.248	8618
1508.462	8749
1510.675	8599
1512.888	8730
1515.1	8626
1517.311	8612
1519.522	8644
1521.732	8580
1523.942	8543
1526.151	8577
1528.36	8720
1530.566	8588
1532.773	8575
1534.98	8755
1537.187	8669
1539.392	8640
1541.596	8668
1543.801	8623
1546.005	8624
1548.208	8671
1550.411	8574
1552.612	8854
1554.814	8647
1557.013	8638
1559.212	8810
1561.414	8803
1563.612	8897
1565.811	8881
1568.007	8873
1570.203	8847
1572.403	8799
1574.598	8893
1576.792	8772
1578.988	8841
1581.181	8791
1583.376	8959
1585.568	8820
1587.761	8867
1589.952	8876
1592.143	8853
1594.333	8862
1596.524	8761
1598.715	9027
1600.903	9004
1603.091	9109
1605.278	8985
1607.466	8916
1609.652	9039
1611.838	9009
1614.023	8968
1616.207	8736
1618.391	8854
1620.576	8917
1622.759	9021
1624.941	8975
1627.123	8959
1629.304	9119
1631.484	8990
1633.664	9105
1635.844	9028
1638.022	9019
1640.201	9075
1642.38	8929
1644.556	9094
1646.732	9106
1648.908	9016
1651.084	8993
1653.257	9063
1655.433	9063
1657.607	9051
1659.779	9225
1661.951	8940
1664.122	9160
1666.295	9117
1668.467	9149
1670.635	9157
1672.805	9181
1674.973	9210
1677.142	9084
1679.31	9051
1681.478	9103
1683.644	8941
1685.81	9100
1687.975	8980
1690.142	9047
1692.305	9092
1694.468	8983
1696.632	8995
1698.794	8963
1700.957	8749
1703.119	9062
1705.279	8826
1707.439	8932
1709.598	8930
1711.758	8859
1713.917	8870
1716.075	8695
1718.231	8818
1720.388	8819
1722.543	8970
1724.702	8929
1726.856	8827
1729.01	8878
1731.164	8842
1733.317	8827
1735.471	8889
1737.623	8896
1739.774	8863
1741.925	8838
1744.075	8823
1746.225	8876
1748.376	8867
1750.524	8844
1752.672	8956
1754.82	8863
1756.965	9022
1759.113	8751
1761.259	8963
1763.405	9068
1765.549	9012
1767.694	8955
1769.836	9049
1771.981	8970
1774.123	8890
1776.264	8887
1778.405	9007
1780.546	9017
1782.687	8910
1784.827	8901
1786.966	9120
1789.103	9041
1791.242	8947
1793.381	8851
1795.517	9093
1797.653	8962
1799.788	8959
1801.923	8979
1804.057	9046
1806.193	9107
1808.326	8913
1810.457	9033
1812.59	8838
1814.721	9110
1816.855	8985
1818.984	9069
1821.113	8978
1823.244	8862
1825.372	9002
1827.499	8860
1829.63	9009
1831.756	8981
1833.882	8992
1836.007	8875
1838.132	8996
1840.26	8913
1842.384	8845
1844.507	8847
1846.63	9013
1848.752	8861
1850.875	8814
1852.996	8807
1855.118	8810
1857.238	8904
1859.358	8823
1861.477	8867
1863.597	8861
1865.715	8840
1867.832	8801
1869.948	8911
1872.064	8794
1874.181	8747
1876.297	8883
1878.411	8808
1880.526	8953
1882.639	8895
1884.752	8844
1886.865	9016
1888.977	8913
1891.089	8922
1893.2	8966
1895.308	8815
1897.42	9006
1899.53	8976
1901.639	8919
1903.745	8903
1905.853	8964
1907.962	8961
1910.067	8948
1912.174	8900
1914.278	8955
1916.383	8847
1918.486	8874
1920.592	9122
1922.694	8943
1924.797	8987
1926.898	9003
1929	9061
1931.102	9089
1933.203	8986
1935.301	8945
1937.401	8968
1939.499	8980
1941.598	8961
1943.697	9141
1945.793	8921
1947.888	9165
1949.985	9025
1952.08	9034
1954.176	9005
1956.269	9118
1958.364	8911
1960.457	8981
1962.549	9032
1964.642	8985
1966.733	9045
1968.823	8981
1970.913	8881
1973.005	8894
1975.093	8883
1977.184	8930
1979.271	8932
1981.359	9026
1983.446	8950
1985.532	8890
1987.619	8857
1989.705	8997
1991.789	8914
1993.874	9010
1995.956	8799
1998.041	9048
2000.123	8864
2002.206	8901
2004.287	8897
2006.368	8704
2008.449	9009
2010.529	8822
2012.609	8942
2014.688	8751
2016.766	8857
2018.843	8824
2020.922	8868
2022.999	8917
2025.074	8892
2027.15	8740
2029.225	8955
2031.299	8993
2033.375	8868
2035.447	8852
2037.52	8817
2039.592	8858
2041.664	8951
2043.736	8907
2045.807	8876
2047.876	8796
2049.947	8949
2052.015	8912
2054.086	8968
2056.153	8730
2058.221	8718
2060.288	8748
2062.353	8838
2064.42	9013
2066.486	8858
2068.55	8846
2070.614	8919
2072.678	8897
2074.741	8900
2076.805	8996
2078.866	8919
2080.929	9016
2082.99	8837
2085.049	8852
2087.109	8988
2089.17	8870
2091.228	8832
2093.286	8823
2095.344	8847
2097.4	8830
2099.46	8871
2101.516	8811
2103.572	8880
2105.626	8818
2107.679	8938
2109.735	8850
2111.788	8789
2113.841	8870
2115.894	8884
2117.945	8824
2119.997	9035
2122.049	8936
2124.1	8931
2126.148	8709
2128.197	8840
2130.246	8832
2132.296	8765
2134.342	8910
2136.39	8870
2138.437	9023
2140.483	8852
2142.527	8823
2144.574	8669
2146.619	8893
2148.661	8753
2150.705	8758
2152.747	8858
2154.792	8795
2156.832	8728
2158.874	8919
2160.915	8704
2162.954	8719
2164.995	8637
2167.034	8773
2169.072	8796
2171.111	8743
2173.148	8691
2175.186	8804
2177.223	8789
2179.258	8715
2181.294	8820
2183.328	8739
2185.362	8702
2187.398	8617
2189.431	8630
2191.463	8640
2193.495	8674
2195.528	8750
2197.56	8676
2199.59	8726
2201.62	8571
2203.649	8670
2205.678	8590
2207.708	8677
2209.737	8653
2211.764	8542
2213.791	8643
2215.817	8588
2217.843	8590
2219.87	8567
2221.895	8663
2223.919	8465
2225.942	8556
2227.966	8593
2229.988	8590
2232.012	8475
2234.032	8574
2236.054	8452
2238.074	8573
2240.095	8578
2242.116	8645
2244.135	8538
2246.153	8524
2248.171	8513
2250.188	8617
2252.208	8525
2254.223	8617
2256.239	8568
2258.255	8564
2260.269	8637
2262.283	8566
2264.3	8469
2266.312	8654
2268.325	8515
2270.336	8550
2272.349	8399
2274.362	8467
2276.372	8491
2278.383	8486
2280.392	8467
2282.402	8591
2284.409	8561
2286.418	8571
2288.427	8482
2290.433	8475
2292.441	8592
2294.446	8441
2296.453	8564
2298.459	8516
2300.463	8583
2302.466	8524
2304.471	8466
2306.475	8466
2308.477	8610
2310.478	8603
2312.481	8519
2314.481	8435
2316.481	8463
2318.482	8335
2320.482	8523
2322.48	8532
2324.48	8408
2326.478	8410
2328.476	8383
2330.473	8307
2332.469	8426
2334.465	8546
2336.46	8422
2338.454	8373
2340.45	8544
2342.444	8492
2344.437	8362
2346.43	8434
2348.421	8362
2350.414	8347
2352.405	8243
2354.396	8259
2356.386	8401
2358.376	8407
2360.366	8203
2362.355	8324
2364.343	8317
2366.331	8258
2368.317	8281
2370.304	8317
2372.292	8487
2374.278	8253
2376.262	8367
2378.247	8273
2380.23	8250
2382.216	8243
2384.199	8199
2386.181	8245
2388.163	8195
2390.144	8181
2392.127	8181
2394.107	8132
2396.087	8077
2398.066	8243
2400.046	8251
2402.023	8207
2404.004	8167
2405.981	8214
2407.957	8277
2409.934	8304
2411.91	8050
2413.886	8140
2415.862	8144
2417.836	8077
2419.809	8166
2421.784	8212
2423.756	8141
2425.73	8040
2427.701	8214
2429.672	8158
2431.644	8141
2433.615	8226
2435.586	8104
2437.555	8215
2439.523	8127
2441.491	8044
2443.459	8163
2445.428	8207
2447.395	8173
2449.361	8197
2451.327	8131
2453.292	8004
2455.257	8179
2457.223	8072
2459.187	8091
2461.15	8230
2463.113	8095
2465.076	8078
2467.039	8032
2468.999	8201
2470.96	7953
2472.921	8095
2474.881	8100
2476.841	8116
2478.8	8037
2480.759	8086
2482.717	8097
2484.675	8157
2486.63	8046
2488.589	8094
2490.545	8106
2492.5	7991
2494.455	7972
2496.408	7914
2498.364	7941
2500.318	7980
2502.27	7953
2504.223	7985
2506.174	8084
2508.126	8152
2510.078	7844
2512.03	7907
2513.979	7992
2515.927	8078
2517.877	8003
2519.826	7986
2521.775	7994
2523.722	7972
2525.668	8016
2527.616	8029
2529.561	7997
2531.508	7868
2533.452	8030
2535.398	7853
2537.342	7867
2539.284	7925
2541.229	7937
2543.173	7921
2545.114	7927
2547.055	7939
2548.996	7907
2550.938	7976
2552.878	7983
2554.817	7964
2556.756	8034
2558.695	7752
2560.633	7930
2562.572	7841
2564.509	7986
2566.445	7907
2568.382	7977
2570.317	7899
2572.254	8035
2574.189	8025
2576.123	7971
2578.057	7921
2579.99	7796
2581.923	7919
2583.855	7782
2585.788	7855
2587.719	7770
2589.65	7995
2591.579	7876
2593.511	7867
2595.44	8002
2597.37	8027
2599.297	7856
2601.225	7994
2603.153	7912
2605.08	7988
2607.007	7941
2608.932	7856
2610.858	7920
2612.782	7935
2614.709	7917
2616.632	7991
2618.556	8043
2620.478	7956
2622.401	7966
2624.324	8011
2626.247	7906
2628.167	8019
2630.088	8039
2632.008	7884
2633.928	7985
2635.848	7983
2637.766	7993
2639.684	7941
2641.603	7859
2643.519	7750
2645.437	7907
2647.353	7838
2649.27	7884
2651.184	7972
2653.099	7864
2655.014	7760
2656.928	7926
2658.842	7909
2660.755	7836
2662.667	7967
2664.579	7991
2666.491	7682
2668.402	7896
2670.312	7808
2672.222	7909
2674.132	7908
2676.042	7763
2677.951	7870
2679.859	7833
2681.766	7902
2683.674	7736
2685.582	7845
2687.488	7770
2689.392	7850
2691.298	7803
2693.202	7770
2695.107	7793
2697.012	7767
2698.914	7923
2700.817	7738
2702.72	7795
2704.622	7781
2706.524	7749
2708.425	7797
2710.326	7815
2712.225	7690
2714.125	7817
2716.024	7708
2717.923	7710
2719.822	7694
2721.719	7621
2723.616	7682
2725.512	7749
2727.41	7778
2729.305	7774
2731.201	7640
2733.095	7615
2734.99	7688
2736.884	7582
2738.778	7656
2740.67	7631
2742.562	7795
2744.455	7734
2746.346	7578
2748.238	7740
2750.129	7688
2752.018	7739
2753.907	7560
2755.797	7649
2757.687	7787
2759.575	7581
2761.462	7551
2763.349	7661
2765.237	7607
2767.124	7659
2769.009	7715
2770.894	7713
2772.779	7684
2774.663	7628
2776.547	7680
2778.431	7641
2780.314	7622
2782.197	7596
2784.078	7738
2785.96	7579
2787.842	7667
2789.723	7545
2791.603	7590
2793.483	7595
2795.362	7468
2797.241	7594
2799.121	7560
2800.997	7597
2802.874	7592
2804.751	7563
2806.628	7617
2808.506	7671
2810.38	7491
2812.255	7641
2814.13	7528
2816.003	7501
2817.878	7519
2819.752	7542
2821.623	7519
2823.496	7543
2825.368	7658
2827.238	7527
2829.111	7587
2830.98	7526
2832.851	7573
2834.719	7442
2836.589	7536
2838.458	7611
2840.327	7553
2842.193	7530
2844.061	7595
2845.927	7566
2847.794	7627
2849.66	7662
2851.525	7580
2853.39	7607
2855.254	7809
2857.117	7629
2858.983	7633
2860.845	7738
2862.707	7774
2864.569	7786
2866.431	7813
2868.293	7820
2870.154	7870
2872.013	7969
2873.873	8055
2875.733	7989
2877.592	8067
2879.451	7899
2881.309	8150
2883.166	8123
2885.022	8231
2886.879	8219
2888.736	8370
2890.591	8316
2892.446	8439
2894.301	8409
2896.155	8281
2898.009	8375
2899.863	8433
2901.716	8243
2903.568	8263
2905.419	8262
2907.27	8291
2909.123	8367
2910.973	8237
2912.824	8333
2914.673	8410
2916.521	8281
2918.372	8309
2920.22	8443
2922.067	8659
2923.914	8680
2925.761	8663
2927.607	8701
2929.455	8803
2931.301	8633
2933.144	8756
2934.99	8617
2936.833	8923
2938.678	8823
2940.522	9014
2942.364	9190
2944.207	9269
2946.048	9317
2947.891	9376
2949.731	9471
2951.571	9492
2953.412	9401
2955.25	9240
2957.09	9210
2958.93	9232
2960.767	9094
2962.606	9126
2964.443	9048
2966.279	8950
2968.116	8615
2969.953	8635
2971.788	8553
2973.623	8509
2975.457	8355
2977.292	8381
2979.127	8189
2980.959	8215
2982.792	8121
2984.624	8160
2986.455	8069
2988.288	8091
2990.119	7995
2991.949	7857
2993.779	7871
2995.608	7959
2997.439	7801
2999.268	7841
3001.096	7720
3002.923	7656
3004.751	7754
3006.578	7507
3008.406	7420
3010.232	7552
3012.057	7595
3013.883	7375
3015.706	7304
3017.532	7355
3019.356	7315
3021.179	7284
3023.002	7298
3024.823	7256
3026.646	7195
3028.469	7275
3030.289	7193
3032.11	7135
3033.93	7258
3035.749	7184
3037.57	7214
3039.39	7156
3041.207	7074
3043.026	7052
3044.842	7048
3046.661	7067
3048.477	7040
3050.294	7102
3052.109	7118
3053.925	6972
3055.739	6975
3057.555	7138
3059.368	7135
3061.181	6949
3062.995	7068
3064.807	7059
3066.62	7078
3068.433	7042
3070.243	6987
3072.054	6985
3073.865	7004
3075.675	6920
3077.485	7044
3079.293	7028
3081.102	6949
3082.911	6967
3084.719	6915
3086.527	6966
3088.333	6827
3090.139	6896
3091.945	6866
3093.75	6917
3095.557	6910
3097.361	6937
3099.165	6922
3100.969	6930
3102.772	6912
3104.575	6856
3106.379	6926
3108.181	6863
3109.982	6970
3111.783	6794
3113.584	6970
3115.386	6858
3117.186	6802
3118.985	6828
3120.783	6739
3122.582	6751
3124.381	6686
3126.179	6768
3127.975	6794
3129.772	6783
3131.569	6780
3133.365	6687
3135.161	6739
3136.956	6718
3138.751	6677
3140.544	6798
3142.338	6752
3144.132	6670
3145.925	6709
3147.717	6713
3149.509	6546
3151.301	6579
3153.091	6686
3154.884	6634
3156.673	6588
3158.462	6709
3160.252	6625
3162.041	6519
3163.831	6595
3165.618	6460
3167.405	6573
3169.193	6566
3170.979	6479
3172.767	6693
3174.553	6639
3176.338	6638
3178.123	6575
3179.907	6474
3181.692	6549
3183.477	6478
3185.259	6572
3187.042	6482
3188.824	6499
3190.607	6573
3192.389	6520
3194.17	6469
3195.951	6586
3197.73	6567
3199.51	6447
3201.289	6520
3203.07	6426
3204.848	6433
3206.626	6490
3208.403	6556
3210.18	6505
3211.959	6464
3213.735	6558
3215.511	6470
3217.285	6468
3219.06	6430
3220.836	6473
3222.611	6447
3224.384	6506
3226.158	6521
3227.929	6356
3229.702	6481
3231.476	6417
3233.248	6416
3235.018	6397
3236.789	6477
3238.56	6377
3240.33	6497
3242.1	6417
3243.869	6514
3245.637	6551
3247.405	6440
3249.172	6555
3250.941	6442
3252.707	6489
3254.474	6423
3256.24	6516
3258.006	6558
3259.772	6411
3261.537	6405
3263.301	6472
3265.065	6541
3266.828	6410
3268.592	6330
3270.355	6467
3272.117	6407
3273.878	6453
3275.64	6471
3277.401	6408
3279.162	6496
3280.922	6515
3282.682	6491
3284.441	6530
3286.199	6456
3287.959	6389
3289.716	6459
3291.475	6261
3293.232	6519
3294.988	6408
3296.744	6392
3298.501	6336
3300.256	6348
3302.011	6411
3303.766	6393
3305.52	6337
3307.275	6416
3309.028	6455
3310.781	6358
3312.533	6326
3314.285	6475
3316.038	6405
3317.789	6464
3319.54	6391
3321.289	6378
3323.039	6351
3324.789	6411
3326.539	6334
3328.288	6282
3330.035	6430
3331.783	6290
3333.531	6301
3335.28	6316
3337.025	6351
3338.771	6246
3340.518	6261
3342.262	6380
3344.009	6362
3345.753	6328
3347.497	6213
3349.24	6295
3350.983	6250
3352.726	6322
3354.469	6270
3356.212	6303
3357.952	6227
3359.694	6220
3361.434	6165
3363.176	6219
3364.916	6216
3366.654	6191
3368.394	6189
3370.132	6281
3371.871	6271
3373.61	6282
3375.346	6224
3377.083	6262
3378.82	6209
3380.556	6255
3382.292	6093
3384.027	6132
3385.763	6189
3387.497	6081
3389.231	6153
3390.965	6145
3392.698	6110
3394.431	6042
3396.164	6221
3397.896	6003
3399.627	6090
3401.36	6120
3403.09	6006
3404.82	6071
3406.55	6153
3408.279	6152
3410.01	6035
3411.738	6124
3413.467	5999
3415.194	6056
3416.92	6102
3418.647	6037
3420.375	6037
3422.102	5991
3423.827	5959
3425.553	6038
3427.277	6105
3429.003	6027
3430.727	6003
3432.451	5933
3434.173	6049
3435.896	5969
3437.62	5971
3439.343	5934
3441.063	5961
3442.785	5923
3444.505	5920
3446.226	5907
3447.948	5867
3449.666	5887
3451.386	5933
3453.104	5797
3454.823	5863
3456.541	5836
3458.259	5898
3459.976	5936
3461.693	5835
3463.408	5752
3465.125	5730
3466.841	5744
3468.556	5849
3470.271	5710
3471.985	5788
3473.698	5810
3475.414	5755
3477.126	5772
3478.838	5752
3480.55	5704
3482.263	5777
3483.975	5681
3485.686	5726
3487.396	5723
3489.106	5648
3490.817	5800
3492.526	5666
3494.236	5724
3495.944	5717
3497.652	5644
3499.359	5654
3501.066	5687
3502.775	5560
3504.481	5627
3506.187	5543
3507.893	5589
3509.598	5534
3511.304	5552
3513.009	5579
3514.713	5541
3516.417	5643
3518.12	5517
3519.821	5641
3521.525	5517
3523.228	5615
3524.929	5464
3526.631	5530
3528.33	5501
3530.032	5461
3531.733	5609
3533.433	5487
3535.131	5420
3536.83	5417
3538.529	5582
3540.227	5374
3541.925	5453
3543.623	5305
3545.319	5444
3547.016	5464
3548.712	5491
3550.408	5343
3552.103	5459
3553.798	5487
3555.491	5389
3557.188	5503
3558.88	5514
3560.574	5347
3562.266	5372
3563.959	5375
3565.651	5355
3567.343	5389
3569.035	5339
3570.725	5412
3572.415	5419
3574.106	5465
3575.797	5353
3577.485	5362
3579.174	5388
3580.863	5279
3582.551	5322
3584.238	5269
3585.926	5371
3587.613	5243
3589.3	5328
3590.986	5244
3592.671	5171
3594.357	5369
3596.042	5355
3597.726	5163
3599.41	5289
3601.094	5218
3602.778	5173
3604.461	5255
3606.143	5184
3607.825	5255
3609.507	5133
3611.188	5177
3612.87	5156
3614.551	5276
3616.229	5199
3617.909	5079
3619.589	5124
3621.269	5196
3622.948	5143
3624.625	5166
3626.302	5212
3627.98	4922
3629.657	5185
3631.334	5079
3633.01	5041
3634.686	5161
3636.361	5051
3638.036	4941
3639.712	5090
3641.385	5016
3643.06	4960
3644.732	5013
3646.405	4987
3648.08	5042
3649.751	5066
3651.424	5078
3653.094	4993
3654.766	4959
3656.436	4972
3658.106	4874
3659.777	5045
3661.446	4981
3663.115	4958
3664.783	4978
3666.452	5019
3668.121	4957
3669.788	4920
3671.454	5017
3673.121	4917
3674.789	4814
3676.455	4848
3678.12	4930
3679.784	4827
3681.45	4876
3683.114	4823
3684.779	4970
3686.442	4889
3688.105	4961
3689.768	4900
3691.43	4812
3693.093	4889
3694.754	4904
3696.415	4864
3698.076	4905
3699.736	4855
3701.396	4813
3703.057	4819
3704.716	4877
3706.375	4819
3708.034	4871
3709.692	4818
3711.351	4811
3713.008	4861
3714.665	4805
3716.321	4763
3717.977	4813
3719.634	4851
3721.29	4888
3722.945	4854
3724.598	4730
3726.253	4763
3727.907	4844
3729.561	4848
3731.214	4884
3732.867	4763
3734.518	4758
3736.171	4655
3737.824	4766
3739.474	4746
3741.125	4736
3742.775	4746
3744.425	4702
3746.074	4732
3747.725	4677
3749.373	4766
3751.022	4697
3752.669	4652
3754.318	4756
3755.966	4754
3757.612	4735
3759.259	4710
3760.905	4733
3762.55	4713
3764.197	4709
3765.842	4639
3767.486	4685
3769.131	4623
3770.774	4590
3772.417	4688
3774.061	4540
3775.705	4687
3777.347	4717
3778.988	4560
3780.629	4640
3782.271	4622
3783.912	4527
3785.552	4531
3787.192	4656
3788.831	4552
3790.472	4602
3792.112	4622
3793.75	4620
3795.388	4601
3797.024	4544
3798.661	4630
3800.3	4534
3801.936	4543
3803.572	4564
3805.208	4519
3806.844	4507
3808.48	4581
3810.115	4669
3811.748	4382
3813.382	4602
3815.016	4458
3816.649	4528
3818.283	4556
3819.914	4483
3821.547	4525
3823.178	4498
3824.809	4528
3826.441	4495
3828.072	4481
3829.701	4551
3831.331	4435
3832.96	4514
3834.591	4494
3836.219	4402
3837.847	4408
3839.475	4382
3841.102	4430
3842.729	4362
3844.357	4578
3845.984	4446
3847.609	4367
3849.234	4427
3850.86	4424
3852.485	4391
3854.11	4365
3855.734	4479
3857.357	4362
3858.981	4382
3860.603	4461
3862.227	4408
3863.848	4421
3865.471	4319
3867.092	4358
3868.713	4381
3870.334	4329
3871.954	4420
3873.575	4408
3875.194	4304
3876.813	4296
3878.433	4338
3880.051	4276
3881.669	4302
3883.286	4380
3884.904	4293
3886.52	4310
3888.138	4320
3889.754	4358
3891.37	4296
3892.985	4321
3894.6	4406
3896.216	4259
3897.831	4279
3899.444	4292
3901.058	4364
3902.67	4269
3904.283	4247
3905.897	4213
3907.509	4316
3909.121	4179
3910.731	4337
3912.342	4276
3913.954	4236
3915.563	4213
3917.174	4217
3918.783	4193
3920.391	4283
3922.002	4236
3923.611	4192
3925.218	4276
3926.826	4220
3928.432	4219
3930.039	4215
3931.647	4285
3933.253	4154
3934.859	4224
3936.464	4264
3938.068	4233
3939.675	4255
3941.278	4257
3942.883	4254
3944.486	4184
3946.089	4165
3947.692	4230
3949.295	4172
3950.898	4241
3952.499	4330
3954.1	4188
3955.7	4122
3957.303	4205
3958.903	4242
3960.502	4160
3962.101	4146
3963.7	4156
3965.301	4139
3966.899	4121
3968.497	4151
3970.094	4253
3971.691	4124
3973.288	4180
3974.885	4117
3976.481	4077
3978.077	4063
3979.672	4036
3981.267	4030
3982.863	4188
3984.457	4117
3986.051	4051
3987.645	4071
3989.238	3994
3990.831	4068
3992.425	4030
3994.017	4016
3995.607	4096
3997.199	4021
3998.79	3986
4000.382	4033
4001.973	3956
4003.561	4027
4005.151	4015
4006.741	3947
4008.331	3930
4009.918	4019
4011.507	4048
4013.095	3994
4014.681	3959
4016.269	3971
4017.856	3914
4019.443	3918
4021.028	3955
4022.614	4004
4024.199	3945
4025.785	3905
4027.37	3933
4028.953	3923
4030.536	3945
4032.12	3898
4033.704	3965
4035.287	3850
4036.869	3891
4038.45	4000
4040.032	3856
4041.613	3920
4043.195	3936
4044.776	3859
4046.356	3920
4047.935	3859
4049.515	3957
4051.095	3933
4052.674	3949
4054.251	3786
4055.829	3867
4057.406	3838
4058.985	3824
4060.562	3802
4062.139	3779
4063.715	3756
4065.29	3748
4066.865	3844
4068.442	3844
4070.016	3946
4071.59	3810
4073.164	3803
4074.738	3785
4076.312	3836
4077.885	3761
4079.458	3802
4081.03	3760
4082.602	3804
4084.173	3724
4085.745	3788
4087.315	3717
4088.886	3808
4090.456	3768
4092.026	3769
4093.596	3833
4095.165	3755
4096.734	3815
4098.301	3696
4099.869	3687
4101.437	3657
4103.006	3681
4104.572	3715
4106.139	3700
4107.704	3784
4109.27	3711
4110.837	3701
4112.401	3673
4113.966	3713
4115.53	3737
4117.094	3678
4118.659	3694
4120.223	3626
4121.785	3588
4123.347	3752
4124.909	3682
4126.471	3642
4128.034	3664
4129.595	3603
4131.155	3627
4132.716	3671
4134.275	3691
4135.836	3640
4137.395	3632
4138.955	3651
4140.513	3620
4142.071	3634
4143.628	3626
4145.188	3593
4146.745	3547
4148.302	3572
4149.858	3533
4151.414	3625
4152.971	3597
4154.526	3594
4156.081	3587
4157.635	3568
4159.189	3531
4160.745	3526
4162.298	3575
4163.852	3592
4165.405	3600
4166.957	3566
4168.51	3541
4170.063	3386
4171.614	3520
4173.166	3481
4174.717	3577
4176.267	3480
4177.817	3536
4179.368	3458
4180.917	3547
4182.466	3459
4184.016	3456
4185.564	3430
4187.112	3496
4188.66	3415
4190.207	3448
4191.754	3470
4193.301	3511
4194.848	3526
4196.394	3358
4197.94	3486
4199.484	3436
4201.03	3455
4202.575	3459
4204.12	3311
4205.663	3438
4207.207	3395
4208.75	3404
4210.292	3380
4211.836	3490
4213.378	3403
4214.92	3424
4216.46	3344
4218.002	3418
4219.544	3301
4221.083	3447
4222.625	3400
4224.164	3399
4225.703	3360
4227.244	3501
4228.782	3518
4230.32	3427
4231.857	3409
4233.395	3379
4234.933	3393
4236.471	3328
4238.007	3238
4239.542	3406
4241.078	3314
4242.614	3344
4244.15	3380
4245.685	3362
4247.219	3319
4248.753	3287
4250.287	3351
4251.82	3341
4253.354	3402
4254.887	3292
4256.419	3315
4257.951	3313
4259.483	3335
4261.016	3270
4262.547	3291
4264.078	3342
4265.608	3266
4267.137	3290
4268.668	3344
4270.197	3324
4271.727	3312
4273.254	3235
4274.783	3338
4276.311	3251
4277.84	3323
4279.366	3279
4280.894	3286
4282.42	3300
4283.946	3276
4285.473	3248
4286.998	3244
4288.523	3215
4290.047	3271
4291.572	3302
4293.096	3269
4294.622	3248
4296.144	3162
4297.668	3241
4299.19	3233
4300.713	3176
4302.236	3256
4303.758	3244
4305.279	3184
4306.799	3145
4308.321	3178
4309.842	3199
4311.361	3217
4312.882	3237
4314.401	3184
