400.0961	4141
402.6185	4208
405.1424	4185
407.6635	4079
410.1838	4116
412.7035	4071
415.2225	4174
417.7388	4186
420.2585	4141
422.7754	4174
425.2917	4274
427.8072	4248
430.3221	4298
432.8363	4323
435.3498	4388
437.8626	4432
440.3727	4416
442.8841	4435
445.3969	4423
447.907	4469
450.4142	4441
452.9229	4368
455.4289	4375
457.9362	4343
460.4449	4249
462.9488	4307
465.454	4357
467.9566	4427
470.4604	4424
472.9637	4410
475.4662	4406
477.966	4431
480.4671	4507
482.9656	4410
485.4633	4497
487.9645	4500
490.4608	4458
492.9566	4548
495.4536	4541
497.948	4541
500.4437	4547
502.9387	4521
505.431	4547
507.9226	4508
510.4136	4521
512.9079	4512
515.3975	4519
517.8864	4651
520.3746	4642
522.8622	4580
525.3491	4468
527.8394	4645
530.3249	4502
532.8098	4654
535.2939	4581
537.7774	4618
540.2623	4651
542.7444	4620
545.2259	4641
547.7067	4691
550.1868	4512
552.6683	4590
555.147	4580
557.6231	4675
560.1005	4633
562.5773	4668
565.0534	4661
567.5308	4599
570.0056	4658
572.4776	4628
574.951	4712
577.4237	4720
579.8978	4654
582.3671	4748
584.8378	4707
587.3079	4714
589.7773	4677
592.244	4780
594.714	4813
597.1793	4811
599.6461	4709
602.1121	4723
604.5754	4786
607.0421	4718
609.5042	4711
611.9675	4812
614.4282	4778
616.8902	4816
619.3515	4723
621.8122	4731
624.2702	4693
626.7296	4776
629.1863	4778
631.6423	4606
634.1017	4692
636.5563	4747
639.0104	4686
641.4658	4785
643.9185	4857
646.3725	4729
648.8239	4643
651.2766	4764
653.7266	4776
656.176	4856
658.6247	4873
661.0748	4859
663.5242	4942
665.9709	4762
668.417	4959
670.8624	4842
673.3092	4897
675.7533	4867
678.1968	4835
680.6395	4831
683.0817	4971
685.5251	4912
687.9659	4852
690.4061	5006
692.8456	4860
695.2844	4949
697.7226	4934
700.1621	4993
702.599	4976
705.0332	4941
707.4688	5041
709.9036	4941
712.3399	4969
714.7735	5039
717.2044	4943
719.6367	5125
722.0683	5075
724.4993	5202
726.9296	5081
729.3593	5109
731.7883	5052
734.2147	5145
736.6423	5061
739.0714	5083
741.4958	5157
743.9216	5177
746.3447	5152
748.7691	5166
751.1929	5301
753.616	5192
756.0366	5300
758.4584	5204
760.8776	5294
763.2982	5330
765.718	5303
768.1373	5256
770.5539	5241
772.9698	5358
775.3871	5208
777.8038	5293
780.2178	5213
782.6332	5393
785.0459	5216
787.458	5370
789.8714	5301
792.2842	5327
794.6943	5216
797.1038	5219
799.5127	5249
801.9209	5304
804.3324	5307
806.7393	5293
809.1456	5170
811.5513	5358
813.9562	5253
816.3625	5388
818.7663	5295
821.1693	5487
823.5718	5297
825.9735	5374
828.3746	5361
830.7771	5415
833.177	5345
835.5762	5456
837.9747	5452
840.3727	5443
842.772	5389
845.1666	5433
847.5626	5510
849.958	5427
852.3527	5441
854.7488	5404
857.1403	5464
859.5331	5508
861.9253	5627
864.3168	5505
866.7057	5360
869.098	5490
871.4876	5427
873.8746	5476
876.263	5422
878.6487	5416
881.0378	5469
883.4243	5365
885.8081	5440
888.1933	5438
890.5759	5440
892.9598	5504
895.343	5499
897.7256	5452
900.1057	5457
902.4871	5412
904.8659	5464
907.246	5503
909.6254	5574
912.0023	5596
914.3786	5659
916.7562	5758
919.1331	5786
921.5074	5850
923.8831	5882
926.2562	5935
928.6287	5857
931.0005	5794
933.3757	5830
935.7462	5839
938.1162	5721
940.4855	5742
942.8542	5710
945.2242	5872
947.5916	5737
949.9584	5764
952.3266	5792
954.6921	5950
957.0571	5923
959.4233	6075
961.787	6007
964.15	6000
966.5125	5961
968.8742	5987
971.2354	5754
973.5959	5800
975.9559	5720
978.3151	5805
980.6738	5713
983.0338	5715
985.3912	5657
987.7461	5622
990.1022	5619
992.4578	5681
994.8127	5593
997.1689	5643
999.5207	5514
1001.874	5681
1004.226	5721
1006.576	5631
1008.929	5648
1011.28	5584
1013.628	5569
1015.977	5622
1018.324	5642
1020.674	5564
1023.019	5604
1025.366	5686
1027.713	5641
1030.056	5686
1032.399	5703
1034.746	5687
1037.087	5724
1039.431	5589
1041.771	5682
1044.113	5761
1046.454	5776
1048.793	5750
1051.133	5691
1053.471	5855
1055.807	5770
1058.146	5793
1060.483	5752
1062.818	5793
1065.153	5824
1067.489	5778
1069.822	5751
1072.156	5786
1074.488	5743
1076.82	5801
1079.15	5796
1081.48	5838
1083.814	5671
1086.143	5804
1088.471	5704
1090.799	5649
1093.126	5736
1095.452	5849
1097.78	5780
1100.105	5734
1102.43	5796
1104.754	5834
1107.077	5830
1109.4	5836
1111.722	5826
1114.044	5931
1116.365	5823
1118.685	5879
1121.005	5828
1123.324	5852
1125.643	5830
1127.961	5956
1130.278	5861
1132.595	5863
1134.911	5854
1137.226	5810
1139.541	5812
1141.854	5774
1144.167	5773
1146.482	5712
1148.793	5759
1151.105	5811
1153.414	5813
1155.725	5761
1158.033	5929
1160.344	5921
1162.651	5810
1164.959	5857
1167.265	5935
1169.572	5854
1171.878	5818
1174.184	5992
1176.488	5991
1178.79	5894
1181.094	5956
1183.396	5864
1185.699	5881
1188.001	5904
1190.301	5852
1192.6	5733
1194.9	5890
1197.2	5786
1199.497	5788
1201.794	5797
1204.09	5932
1206.387	5941
1208.684	5881
1210.978	5974
1213.272	5948
1215.565	5772
1217.858	5881
1220.15	5937
1222.443	5812
1224.734	5906
1227.024	5947
1229.313	5953
1231.602	5986
1233.892	6006
1236.18	5952
1238.467	6175
1240.754	6102
1243.04	6085
1245.325	6108
1247.612	5976
1249.896	6136
1252.178	6102
1254.461	6183
1256.743	6181
1259.027	6179
1261.308	6202
1263.587	6149
1265.867	6086
1268.146	6171
1270.425	6282
1272.703	6197
1274.981	6260
1277.256	6204
1279.532	6168
1281.808	6056
1284.083	5966
1286.358	6113
1288.63	6128
1290.904	6085
1293.175	5990
1295.449	6020
1297.719	6120
1299.99	5992
1302.259	6007
1304.529	6059
1306.798	6092
1309.065	6035
1311.333	6079
1313.599	6241
1315.866	6122
1318.131	6040
1320.396	6112
1322.66	6109
1324.925	6032
1327.187	6063
1329.448	6117
1331.711	6087
1333.974	6203
1336.234	6192
1338.493	6115
1340.752	6111
1343.01	5971
1345.269	6000
1347.526	6121
1349.784	6129
1352.04	5929
1354.295	5949
1356.552	6030
1358.806	6013
1361.059	5932
1363.312	6030
1365.564	5990
1367.818	6137
1370.069	6108
1372.318	6141
1374.568	6146
1376.817	6117
1379.066	6204
1381.316	6132
1383.564	6036
1385.809	6068
1388.056	6187
1390.301	6233
1392.549	6265
1394.793	6363
1397.036	6478
1399.279	6509
1401.522	6445
1403.763	6627
1406.007	6520
1408.248	6392
1410.487	6435
1412.727	6345
1414.965	6450
1417.205	6361
1419.442	6247
1421.68	6302
1423.915	6320
1426.152	6437
1428.388	6246
1430.623	6375
1432.857	6483
1435.091	6507
1437.323	6428
1439.556	6407
1441.789	6430
1444.019	6486
1446.25	6578
1448.48	6381
1450.708	6510
1452.938	6447
1455.167	6546
1457.394	6524
1459.62	6575
1461.846	6496
1464.073	6437
1466.299	6414
1468.523	6388
1470.746	6243
1472.969	6221
1475.191	6174
1477.415	6234
1479.636	6195
1481.858	6108
1484.078	6167
1486.298	6146
1488.518	6057
1490.736	6165
1492.954	6180
1495.169	6126
1497.386	6088
1499.602	6132
1501.819	5990
1504.034	6070
1506.248	5976
1508.462	6086
1510.675	6018
1512.888	5988
1515.1	6032
1517.311	6199
1519.522	6045
1521.732	6041
1523.942	5996
1526.151	6020
1528.36	6037
1530.566	5996
1532.773	6131
1534.98	6108
1537.187	6071
1539.392	6115
1541.596	5978
1543.801	6120
1546.005	6069
1548.208	5992
1550.411	6023
1552.612	6184
1554.814	6236
1557.013	6125
1559.212	6071
1561.414	6209
1563.612	6182
1565.811	6085
1568.007	6231
1570.203	6244
1572.403	6296
1574.598	6293
1576.792	6201
1578.988	6123
1581.181	6269
1583.376	6228
1585.568	6186
1587.761	6205
1589.952	6313
1592.143	6208
1594.333	6301
1596.524	6305
1598.715	6307
1600.903	6284
1603.091	6304
1605.278	6353
1607.466	6336
1609.652	6231
1611.838	6271
1614.023	6303
1616.207	6271
1618.391	6353
1620.576	6277
1622.759	6310
1624.941	6344
1627.123	6243
1629.304	6385
1631.484	6438
1633.664	6375
1635.844	6434
1638.022	6391
1640.201	6376
1642.38	6292
1644.556	6352
1646.732	6371
1648.908	6324
1651.084	6480
1653.257	6417
1655.433	6332
1657.607	6343
1659.779	6448
1661.951	6485
1664.122	6432
1666.295	6366
1668.467	6467
1670.635	6409
1672.805	6415
1674.973	6464
1677.142	6445
1679.31	6483
1681.478	6361
1683.644	6489
1685.81	6435
1687.975	6437
1690.142	6386
1692.305	6361
1694.468	6364
1696.632	6359
1698.794	6262
1700.957	6151
1703.119	6293
1705.279	6221
1707.439	6287
1709.598	6215
1711.758	6170
1713.917	6298
1716.075	6310
1718.231	6214
1720.388	6208
1722.543	6318
1724.702	6258
1726.856	6207
1729.01	6336
1731.164	6319
1733.317	6229
1735.471	6197
1737.623	6199
1739.774	6279
1741.925	6245
1744.075	6305
1746.225	6229
1748.376	6196
1750.524	6358
1752.672	6245
1754.82	6204
1756.965	6301
1759.113	6289
1761.259	6257
1763.405	6287
1765.549	6350
1767.694	6240
1769.836	6221
1771.981	6365
1774.123	6313
1776.264	6148
1778.405	6276
1780.546	6343
1782.687	6442
1784.827	6289
1786.966	6375
1789.103	6302
1791.242	6227
1793.381	6361
1795.517	6284
1797.653	6385
1799.788	6287
1801.923	6374
1804.057	6274
1806.193	6135
1808.326	6287
1810.457	6258
1812.59	6216
1814.721	6335
1816.855	6366
1818.984	6312
1821.113	6267
1823.244	6293
1825.372	6256
1827.499	6348
1829.63	6403
1831.756	6170
1833.882	6246
1836.007	6266
1838.132	6292
1840.26	6306
1842.384	6292
1844.507	6330
1846.63	6304
1848.752	6234
1850.875	6238
1852.996	6244
1855.118	6314
1857.238	6347
1859.358	6195
1861.477	6145
1863.597	6316
1865.715	6205
1867.832	6283
1869.948	6179
1872.064	6207
1874.181	6292
1876.297	6216
1878.411	6270
1880.526	6339
1882.639	6302
1884.752	6214
1886.865	6295
1888.977	6260
1891.089	6283
1893.2	6293
1895.308	6302
1897.42	6336
1899.53	6317
1901.639	6287
1903.745	6341
1905.853	6342
1907.962	6200
1910.067	6320
1912.174	6401
1914.278	6431
1916.383	6275
1918.486	6379
1920.592	6443
1922.694	6320
1924.797	6245
1926.898	6237
1929	6457
1931.102	6335
1933.203	6284
1935.301	6509
1937.401	6232
1939.499	6293
1941.598	6316
1943.697	6353
1945.793	6218
1947.888	6322
1949.985	6238
1952.08	6194
1954.176	6272
1956.269	6417
1958.364	6501
1960.457	6341
1962.549	6329
1964.642	6274
1966.733	6392
1968.823	6255
1970.913	6319
1973.005	6277
1975.093	6284
1977.184	6283
1979.271	6239
1981.359	6285
1983.446	6293
1985.532	6279
1987.619	6285
1989.705	6309
1991.789	6312
1993.874	6319
1995.956	6225
1998.041	6202
2000.123	6230
2002.206	6274
2004.287	6310
2006.368	6244
2008.449	6319
2010.529	6201
2012.609	6308
2014.688	6234
2016.766	6143
2018.843	6333
2020.922	6178
2022.999	6270
2025.074	6176
2027.15	6293
2029.225	6359
2031.299	6223
2033.375	6236
2035.447	6271
2037.52	6378
2039.592	6299
2041.664	6343
2043.736	6223
2045.807	6170
2047.876	6239
2049.947	6281
2052.015	6323
2054.086	6258
2056.153	6286
2058.221	6350
2060.288	6190
2062.353	6218
2064.42	6255
2066.486	6166
2068.55	6319
2070.614	6192
2072.678	6374
2074.741	6299
2076.805	6240
2078.866	6154
2080.929	6222
2082.99	6181
2085.049	6264
2087.109	6252
2089.17	6197
2091.228	6263
2093.286	6195
2095.344	6128
2097.4	6284
2099.46	6355
2101.516	6207
2103.572	6202
2105.626	6260
2107.679	6282
2109.735	6304
2111.788	6315
2113.841	6225
2115.894	6211
2117.945	6208
2119.997	6282
2122.049	6214
2124.1	6223
2126.148	6233
2128.197	6242
2130.246	6277
2132.296	6256
2134.342	6201
2136.39	6188
2138.437	6194
2140.483	6293
2142.527	6200
2144.574	6407
2146.619	6253
2148.661	6265
2150.705	6341
2152.747	6179
2154.792	6217
2156.832	6139
2158.874	6281
2160.915	6217
2162.954	6063
2164.995	6138
2167.034	6224
2169.072	6201
2171.111	6245
2173.148	6201
2175.186	6265
2177.223	6059
2179.258	6093
2181.294	6244
2183.328	6125
2185.362	6270
2187.398	6156
2189.431	6202
2191.463	6082
2193.495	6266
2195.528	6223
2197.56	6172
2199.59	6097
2201.62	6112
2203.649	6116
2205.678	6034
2207.708	6184
2209.737	6090
2211.764	6154
2213.791	6088
2215.817	6047
2217.843	6057
2219.87	6121
2221.895	6095
2223.919	5971
2225.942	6029
2227.966	6063
2229.988	6130
2232.012	5985
2234.032	6099
2236.054	6074
2238.074	5958
2240.095	6120
2242.116	6075
2244.135	6043
2246.153	5987
2248.171	5985
2250.188	6045
2252.208	5941
2254.223	6023
2256.239	6140
2258.255	5944
2260.269	6063
2262.283	6086
2264.3	6047
2266.312	6018
2268.325	6130
2270.336	6004
2272.349	5996
2274.362	6024
2276.372	5964
2278.383	5957
2280.392	5963
2282.402	6076
2284.409	6004
2286.418	6076
2288.427	6024
2290.433	6081
2292.441	5997
2294.446	6058
2296.453	5930
2298.459	6050
2300.463	6040
2302.466	5978
2304.471	5973
2306.475	6067
2308.477	6037
2310.478	5993
2312.481	6039
2314.481	5977
2316.481	6028
2318.482	6046
2320.482	6064
2322.48	5876
2324.48	5975
2326.478	5955
2328.476	6001
2330.473	6032
2332.469	6050
2334.465	6052
2336.46	6001
2338.454	5989
2340.45	5948
2342.444	5952
2344.437	5935
2346.43	6011
2348.421	5962
2350.414	5941
2352.405	5905
2354.396	5993
2356.386	5894
2358.376	5869
2360.366	5911
2362.355	5922
2364.343	5893
2366.331	5927
2368.317	5920
2370.304	5781
2372.292	5894
2374.278	5843
2376.262	5863
2378.247	5865
2380.23	5960
2382.216	5937
2384.199	5855
2386.181	5913
2388.163	5843
2390.144	5860
2392.127	5930
2394.107	5916
2396.087	5762
2398.066	5890
2400.046	5911
2402.023	5851
2404.004	5890
2405.981	6003
2407.957	5802
2409.934	5945
2411.91	5851
2413.886	5835
2415.862	5912
2417.836	5720
2419.809	5876
2421.784	5811
2423.756	5837
2425.73	5788
2427.701	5803
2429.672	5806
2431.644	5796
2433.615	5878
2435.586	5733
2437.555	5761
2439.523	5924
2441.491	5842
2443.459	5951
2445.428	5810
2447.395	5669
2449.361	5724
2451.327	5763
2453.292	5667
2455.257	5796
2457.223	5850
2459.187	5717
2461.15	5790
2463.113	5750
2465.076	5790
2467.039	5833
2468.999	5800
2470.96	5677
2472.921	5816
2474.881	5777
2476.841	5732
2478.8	5680
2480.759	5805
2482.717	5684
2484.675	5825
2486.63	5773
2488.589	5731
2490.545	5770
2492.5	5643
2494.455	5761
2496.408	5711
2498.364	5716
2500.318	5786
2502.27	5702
2504.223	5702
2506.174	5844
2508.126	5736
2510.078	5651
2512.03	5782
2513.979	5751
2515.927	5675
2517.877	5744
2519.826	5695
2521.775	5720
2523.722	5660
2525.668	5799
2527.616	5778
2529.561	5673
2531.508	5673
2533.452	5725
2535.398	5836
2537.342	5634
2539.284	5625
2541.229	5733
2543.173	5671
2545.114	5626
2547.055	5694
2548.996	5657
2550.938	5689
2552.878	5577
2554.817	5553
2556.756	5768
2558.695	5660
2560.633	5694
2562.572	5753
2564.509	5630
2566.445	5671
2568.382	5646
2570.317	5744
2572.254	5610
2574.189	5691
2576.123	5651
2578.057	5718
2579.99	5705
2581.923	5764
2583.855	5646
2585.788	5658
2587.719	5586
2589.65	5761
2591.579	5672
2593.511	5725
2595.44	5557
2597.37	5663
2599.297	5701
2601.225	5594
2603.153	5682
2605.08	5667
2607.007	5671
2608.932	5706
2610.858	5650
2612.782	5617
2614.709	5717
2616.632	5721
2618.556	5739
2620.478	5669
2622.401	5670
2624.324	5868
2626.247	5705
2628.167	5673
2630.088	5638
2632.008	5750
2633.928	5707
2635.848	5654
2637.766	5766
2639.684	5628
2641.603	5693
2643.519	5720
2645.437	5719
2647.353	5620
2649.27	5640
2651.184	5666
2653.099	5645
2655.014	5635
2656.928	5626
2658.842	5621
2660.755	5595
2662.667	5711
2664.579	5705
2666.491	5793
2668.402	5705
2670.312	5609
2672.222	5554
2674.132	5684
2676.042	5730
2677.951	5551
2679.859	5613
2681.766	5592
2683.674	5655
2685.582	5653
2687.488	5535
2689.392	5586
2691.298	5550
2693.202	5538
2695.107	5549
2697.012	5598
2698.914	5560
2700.817	5483
2702.72	5562
2704.622	5561
2706.524	5611
2708.425	5599
2710.326	5496
2712.225	5542
2714.125	5589
2716.024	5570
2717.923	5573
2719.822	5471
2721.719	5554
2723.616	5435
2725.512	5642
2727.41	5513
2729.305	5524
2731.201	5542
2733.095	5608
2734.99	5578
2736.884	5545
2738.778	5630
2740.67	5606
2742.562	5462
2744.455	5535
2746.346	5529
2748.238	5514
2750.129	5505
2752.018	5525
2753.907	5573
2755.797	5619
2757.687	5536
2759.575	5490
2761.462	5462
2763.349	5506
2765.237	5579
2767.124	5585
2769.009	5567
2770.894	5520
2772.779	5416
2774.663	5400
2776.547	5438
2778.431	5390
2780.314	5514
2782.197	5509
2784.078	5484
2785.96	5518
2787.842	5482
2789.723	5522
2791.603	5515
2793.483	5462
2795.362	5379
2797.241	5566
2799.121	5504
2800.997	5479
2802.874	5460
2804.751	5464
2806.628	5433
2808.506	5465
2810.38	5395
2812.255	5422
2814.13	5405
2816.003	5565
2817.878	5468
2819.752	5480
2821.623	5364
2823.496	5502
2825.368	5394
2827.238	5469
2829.111	5466
2830.98	5516
2832.851	5561
2834.719	5500
2836.589	5420
2838.458	5452
2840.327	5435
2842.193	5384
2844.061	5529
2845.927	5462
2847.794	5489
2849.66	5611
2851.525	5490
2853.39	5521
2855.254	5557
2857.117	5603
2858.983	5659
2860.845	5683
2862.707	5495
2864.569	5738
2866.431	5656
2868.293	5726
2870.154	5665
2872.013	5783
2873.873	5878
2875.733	5763
2877.592	5956
2879.451	5881
2881.309	5881
2883.166	5962
2885.022	6092
2886.879	6037
2888.736	6115
2890.591	6251
2892.446	6147
2894.301	6155
2896.155	6145
2898.009	6063
2899.863	6277
2901.716	6090
2903.568	6070
2905.419	6084
2907.27	6113
2909.123	6106
2910.973	6150
2912.824	6154
2914.673	6132
2916.521	6191
2918.372	6319
2920.22	6272
2922.067	6155
2923.914	6405
2925.761	6458
2927.607	6318
2929.455	6330
2931.301	6474
2933.144	6421
2934.99	6432
2936.833	6426
2938.678	6517
2940.522	6618
2942.364	6697
2944.207	6704
2946.048	6840
2947.891	7014
2949.731	7106
2951.571	7029
2953.412	7071
2955.25	6984
2957.09	6828
2958.93	6820
2960.767	6875
2962.606	6925
2964.443	6774
2966.279	6662
2968.116	6545
2969.953	6552
2971.788	6383
2973.623	6351
2975.457	6184
2977.292	6156
2979.127	5983
2980.959	6050
2982.792	6019
2984.624	5961
2986.455	5993
2988.288	5943
2990.119	5794
2991.949	5780
2993.779	5630
2995.608	5869
2997.439	5686
2999.268	5661
3001.096	5626
3002.923	5644
3004.751	5488
3006.578	5526
3008.406	5424
3010.232	5453
3012.057	5365
3013.883	5347
3015.706	5375
3017.532	5370
3019.356	5297
3021.179	5275
3023.002	5245
3024.823	5275
3026.646	5152
3028.469	5221
3030.289	5225
3032.11	5161
3033.93	5161
3035.749	5234
3037.57	5132
3039.39	5298
3041.207	5216
3043.026	5110
3044.842	5117
3046.661	5117
3048.477	5109
3050.294	5090
3052.109	5121
3053.925	5105
3055.739	5014
3057.555	5175
3059.368	5065
3061.181	5188
3062.995	5060
3064.807	5291
3066.62	5229
3068.433	5172
3070.243	5110
3072.054	5117
3073.865	5056
3075.675	5068
3077.485	5096
3079.293	5027
3081.102	5022
3082.911	5032
3084.719	5032
3086.527	5009
3088.333	4991
3090.139	5022
3091.945	5055
3093.75	4983
3095.557	5004
3097.361	5096
3099.165	4974
3100.969	5002
3102.772	4903
3104.575	4983
3106.379	4876
3108.181	5021
3109.982	4992
3111.783	4964
3113.584	4921
3115.386	4919
3117.186	4942
3118.985	4937
3120.783	4832
3122.582	4855
3124.381	4896
3126.179	4924
3127.975	4780
3129.772	4909
3131.569	4967
3133.365	4836
3135.161	4964
3136.956	4907
3138.751	4872
3140.544	4902
3142.338	4845
3144.132	4847
3145.925	4864
3147.717	4866
3149.509	4844
3151.301	4823
3153.091	4857
3154.884	4808
3156.673	4862
3158.462	4801
3160.252	4791
3162.041	4792
3163.831	4882
3165.618	4858
3167.405	4839
3169.193	4850
3170.979	4807
3172.767	4853
3174.553	4790
3176.338	4846
3178.123	4730
3179.907	4698
3181.692	4828
3183.477	4848
3185.259	4819
3187.042	4858
3188.824	4910
3190.607	4790
3192.389	4776
3194.17	4759
3195.951	4752
3197.73	4632
3199.51	4762
3201.289	4642
3203.07	4779
3204.848	4819
3206.626	4740
3208.403	4824
3210.18	4723
3211.959	4701
3213.735	4695
3215.511	4658
3217.285	4675
3219.06	4744
3220.836	4769
3222.611	4725
3224.384	4701
3226.158	4704
3227.929	4722
3229.702	4747
3231.476	4688
3233.248	4744
3235.018	4810
3236.789	4685
3238.56	4750
3240.33	4682
3242.1	4705
3243.869	4647
3245.637	4705
3247.405	4679
3249.172	4707
3250.941	4773
3252.707	4791
3254.474	4712
3256.24	4664
3258.006	4631
3259.772	4738
3261.537	4703
3263.301	4674
3265.065	4657
3266.828	4663
3268.592	4746
3270.355	4641
3272.117	4631
3273.878	4677
3275.64	4668
3277.401	4731
3279.162	4695
3280.922	4673
3282.682	4721
3284.441	4726
3286.199	4660
3287.959	4703
3289.716	4666
3291.475	4733
3293.232	4675
3294.988	4695
3296.744	4634
3298.501	4624
3300.256	4697
3302.011	4691
3303.766	4601
3305.52	4590
3307.275	4717
3309.028	4569
3310.781	4745
3312.533	4743
3314.285	4668
3316.038	4635
3317.789	4642
3319.54	4616
3321.289	4670
3323.039	4619
3324.789	4583
3326.539	4585
3328.288	4712
3330.035	4675
3331.783	4621
3333.531	4630
3335.28	4621
3337.025	4535
3338.771	4617
3340.518	4568
3342.262	4603
3344.009	4624
3345.753	4582
3347.497	4598
3349.24	4557
3350.983	4530
3352.726	4518
3354.469	4582
3356.212	4587
3357.952	4536
3359.694	4545
3361.434	4505
3363.176	4484
3364.916	4564
3366.654	4529
3368.394	4467
3370.132	4570
3371.871	4489
3373.61	4482
3375.346	4596
3377.083	4484
3378.82	4469
3380.556	4472
3382.292	4390
3384.027	4473
3385.763	4473
3387.497	4482
3389.231	4484
3390.965	4443
3392.698	4485
3394.431	4356
3396.164	4461
3397.896	4480
3399.627	4334
3401.36	4446
3403.09	4493
3404.82	4379
3406.55	4345
3408.279	4348
3410.01	4422
3411.738	4440
3413.467	4383
3415.194	4415
3416.92	4420
3418.647	4410
3420.375	4323
3422.102	4416
3423.827	4353
3425.553	4367
3427.277	4288
3429.003	4383
3430.727	4328
3432.451	4280
3434.173	4277
3435.896	4396
3437.62	4278
3439.343	4241
3441.063	4343
3442.785	4340
3444.505	4312
3446.226	4278
3447.948	4350
3449.666	4255
3451.386	4393
3453.104	4293
3454.823	4311
3456.541	4207
3458.259	4225
3459.976	4174
3461.693	4213
3463.408	4250
3465.125	4257
3466.841	4262
3468.556	4288
3470.271	4176
3471.985	4223
3473.698	4227
3475.414	4206
3477.126	4170
3478.838	4262
3480.55	4173
3482.263	4130
3483.975	4238
3485.686	4222
3487.396	4161
3489.106	4138
3490.817	4122
3492.526	4234
3494.236	4111
3495.944	4110
3497.652	4113
3499.359	4145
3501.066	4256
3502.775	4183
3504.481	4128
3506.187	4135
3507.893	4053
3509.598	4042
3511.304	4162
3513.009	4088
3514.713	4048
3516.417	4064
3518.12	4019
3519.821	4093
3521.525	4130
3523.228	4078
3524.929	4096
3526.631	4108
3528.33	3985
3530.032	4079
3531.733	4091
3533.433	4010
3535.131	4038
3536.83	4089
3538.529	4026
3540.227	3966
3541.925	4022
3543.623	4042
3545.319	3988
3547.016	3995
3548.712	3959
3550.408	4000
3552.103	4062
3553.798	3949
3555.491	3969
3557.188	3926
3558.88	4020
3560.574	4034
3562.266	3949
3563.959	3973
3565.651	3956
3567.343	3979
3569.035	3967
3570.725	3913
3572.415	3951
3574.106	3930
3575.797	3927
3577.485	3896
3579.174	3893
3580.863	3938
3582.551	3960
3584.238	3902
3585.926	3874
3587.613	3924
3589.3	3904
3590.986	3899
3592.671	3903
3594.357	3881
3596.042	3839
3597.726	3801
3599.41	3797
3601.094	3892
3602.778	3813
3604.461	3876
3606.143	3851
3607.825	3878
3609.507	3850
3611.188	3751
3612.87	3819
3614.551	3743
3616.229	3837
3617.909	3712
3619.589	3710
3621.269	3727
3622.948	3723
3624.625	3753
3626.302	3741
3627.98	3821
3629.657	3751
3631.334	3672
3633.01	3743
3634.686	3698
3636.361	3660
3638.036	3660
3639.712	3771
3641.385	3736
3643.06	3739
3644.732	3696
3646.405	3596
3648.08	3759
3649.751	3677
3651.424	3705
3653.094	3644
3654.766	3708
3656.436	3700
3658.106	3671
3659.777	3688
3661.446	3642
3663.115	3688
3664.783	3680
3666.452	3640
3668.121	3678
3669.788	3630
3671.454	3617
3673.121	3695
3674.789	3604
3676.455	3560
3678.12	3653
3679.784	3641
3681.45	3515
3683.114	3660
3684.779	3647
3686.442	3577
3688.105	3516
3689.768	3609
3691.43	3597
3693.093	3582
3694.754	3560
3696.415	3644
3698.076	3589
3699.736	3632
3701.396	3588
3703.057	3567
3704.716	3565
3706.375	3548
3708.034	3537
3709.692	3538
3711.351	3562
3713.008	3529
3714.665	3584
3716.321	3615
3717.977	3557
3719.634	3501
3721.29	3532
3722.945	3559
3724.598	3545
3726.253	3606
3727.907	3574
3729.561	3622
3731.214	3528
3732.867	3568
3734.518	3536
3736.171	3579
3737.824	3529
3739.474	3449
3741.125	3580
3742.775	3579
3744.425	3559
3746.074	3486
3747.725	3523
3749.373	3520
3751.022	3487
3752.669	3514
3754.318	3478
3755.966	3512
3757.612	3426
3759.259	3460
3760.905	3502
3762.55	3487
3764.197	3391
3765.842	3495
3767.486	3457
3769.131	3463
3770.774	3428
3772.417	3430
3774.061	3490
3775.705	3451
3777.347	3459
3778.988	3408
3780.629	3472
3782.271	3403
3783.912	3437
3785.552	3405
3787.192	3492
3788.831	3436
3790.472	3453
3792.112	3335
3793.75	3377
3795.388	3361
3797.024	3402
3798.661	3378
3800.3	3383
3801.936	3365
3803.572	3326
3805.208	3338
3806.844	3376
3808.48	3319
3810.115	3351
3811.748	3375
3813.382	3445
3815.016	3450
3816.649	3343
3818.283	3315
3819.914	3303
3821.547	3296
3823.178	3372
3824.809	3238
3826.441	3341
3828.072	3306
3829.701	3394
3831.331	3346
3832.96	3329
3834.591	3321
3836.219	3252
3837.847	3324
3839.475	3296
3841.102	3328
3842.729	3233
3844.357	3276
3845.984	3287
3847.609	3269
3849.234	3320
3850.86	3264
3852.485	3309
3854.11	3235
3855.734	3230
3857.357	3241
3858.981	3294
3860.603	3202
3862.227	3280
3863.848	3258
3865.471	3223
3867.092	3243
3868.713	3205
3870.334	3235
3871.954	3275
3873.575	3262
3875.194	3232
3876.813	3132
3878.433	3232
3880.051	3237
3881.669	3203
3883.286	3239
3884.904	3213
3886.52	3262
3888.138	3239
3889.754	3189
3891.37	3232
3892.985	3230
3894.6	3175
3896.216	3250
3897.831	3197
3899.444	3163
3901.058	3212
3902.67	3175
3904.283	3163
3905.897	3197
3907.509	3195
3909.121	3102
3910.731	3147
3912.342	3153
3913.954	3194
3915.563	3206
3917.174	3160
3918.783	3108
3920.391	3051
3922.002	3143
3923.611	3206
3925.218	3180
3926.826	3174
3928.432	3141
3930.039	3165
3931.647	3190
3933.253	3140
3934.859	3146
3936.464	3195
3938.068	3115
3939.675	3225
3941.278	3125
3942.883	3154
3944.486	3136
3946.089	3183
3947.692	3137
3949.295	3120
3950.898	3141
3952.499	3051
3954.1	3036
3955.7	3090
3957.303	3087
3958.903	3160
3960.502	3113
3962.101	3079
3963.7	3044
3965.301	3082
3966.899	3088
3968.497	3107
3970.094	3085
3971.691	3078
3973.288	3089
3974.885	3096
3976.481	3001
3978.077	3041
3979.672	3070
3981.267	3006
3982.863	3102
3984.457	3077
3986.051	3045
3987.645	3090
3989.238	3040
3990.831	3039
3992.425	3040
3994.017	2951
3995.607	3015
3997.199	2975
3998.79	2991
4000.382	3030
4001.973	3123
4003.561	2987
4005.151	2983
4006.741	2967
4008.331	3058
4009.918	3037
4011.507	2990
4013.095	2935
4014.681	2988
4016.269	3037
4017.856	3046
4019.443	2961
4021.028	2995
4022.614	2941
4024.199	2905
4025.785	2994
4027.37	2908
4028.953	2925
4030.536	2854
4032.12	2878
4033.704	2905
4035.287	2945
4036.869	2942
4038.45	2951
4040.032	2943
4041.613	2941
4043.195	2933
4044.776	2909
4046.356	2888
4047.935	2897
4049.515	2855
4051.095	2856
4052.674	2867
4054.251	2940
4055.829	2846
4057.406	2951
4058.985	2954
4060.562	2906
4062.139	2797
4063.715	2844
4065.29	2898
4066.865	2866
4068.442	2831
4070.016	2908
4071.59	2817
4073.164	2800
4074.738	2868
4076.312	2856
4077.885	2787
4079.458	2783
4081.03	2822
4082.602	2934
4084.173	2850
4085.745	2878
4087.315	2762
4088.886	2837
4090.456	2784
4092.026	2832
4093.596	2798
4095.165	2830
4096.734	2799
4098.301	2832
4099.869	2844
4101.437	2856
4103.006	2795
4104.572	2825
4106.139	2748
4107.704	2815
4109.27	2790
4110.837	2782
4112.401	2758
4113.966	2769
4115.53	2777
4117.094	2801
4118.659	2830
4120.223	2721
4121.785	2764
4123.347	2765
4124.909	2830
4126.471	2799
4128.034	2761
4129.595	2660
4131.155	2746
4132.716	2681
4134.275	2645
4135.836	2760
4137.395	2775
4138.955	2704
4140.513	2693
4142.071	2773
4143.628	2700
4145.188	2703
4146.745	2724
4148.302	2702
4149.858	2660
4151.414	2673
4152.971	2609
4154.526	2678
4156.081	2722
4157.635	2741
4159.189	2740
4160.745	2667
4162.298	2596
4163.852	2635
4165.405	2653
4166.957	2684
4168.51	2683
4170.063	2570
4171.614	2691
4173.166	2632
4174.717	2609
4176.267	2638
4177.817	2708
4179.368	2700
4180.917	2642
4182.466	2660
4184.016	2700
4185.564	2618
4187.112	2609
4188.66	2555
4190.207	2669
4191.754	2660
4193.301	2698
4194.848	2608
4196.394	2572
4197.94	2693
4199.484	2583
4201.03	2644
4202.575	2637
4204.12	2614
4205.663	2653
4207.207	2576
4208.75	2584
4210.292	2583
4211.836	2668
4213.378	2540
4214.92	2611
4216.46	2580
4218.002	2572
4219.544	2629
4221.083	2537
4222.625	2619
4224.164	2564
4225.703	2586
4227.244	2551
4228.782	2531
4230.32	2565
4231.857	2508
4233.395	2522
4234.933	2547
4236.471	2525
4238.007	2599
4239.542	2586
4241.078	2581
4242.614	2583
4244.15	2558
4245.685	2602
4247.219	2496
4248.753	2550
4250.287	2537
4251.82	2590
4253.354	2553
4254.887	2459
4256.419	2540
4257.951	2528
4259.483	2510
4261.016	2477
4262.547	2496
4264.078	2560
4265.608	2537
4267.137	2488
4268.668	2506
4270.197	2495
4271.727	2493
4273.254	2482
4274.783	2519
4276.311	2460
4277.84	2486
4279.366	2497
4280.894	2466
4282.42	2515
4283.946	2512
4285.473	2485
4286.998	2495
4288.523	2411
4290.047	2451
4291.572	2528
4293.096	2430
4294.622	2488
4296.144	2432
4297.668	2466
4299.19	2416
4300.713	2448
4302.236	2401
4303.758	2411
4305.279	2495
4306.799	2444
4308.321	2403
4309.842	2440
4311.361	2491
4312.882	2383
4314.401	2418
