400.0961	3748
402.6185	3759
405.1424	3783
407.6635	3798
410.1838	3808
412.7035	3781
415.2225	3771
417.7388	3845
420.2585	3852
422.7754	3903
425.2917	3883
427.8072	3976
430.3221	4003
432.8363	3954
435.3498	4148
437.8626	4054
440.3727	3961
442.8841	3977
445.3969	3998
447.907	4016
450.4142	4030
452.9229	4040
455.4289	4034
457.9362	4051
460.4449	4040
462.9488	4114
465.454	4001
467.9566	4042
470.4604	3895
472.9637	4030
475.4662	4001
477.966	4060
480.4671	4026
482.9656	4014
485.4633	4054
487.9645	4174
490.4608	4122
492.9566	4104
495.4536	4054
497.948	4160
500.4437	4078
502.9387	4189
505.431	4321
507.9226	4161
510.4136	4135
512.9079	4270
515.3975	4162
517.8864	4228
520.3746	4168
522.8622	4145
525.3491	4188
527.8394	4251
530.3249	4224
532.8098	4274
535.2939	4236
537.7774	4239
540.2623	4249
542.7444	4131
545.2259	4230
547.7067	4285
550.1868	4173
552.6683	4228
555.147	4281
557.6231	4267
560.1005	4188
562.5773	4281
565.0534	4261
567.5308	4371
570.0056	4357
572.4776	4324
574.951	4255
577.4237	4354
579.8978	4504
582.3671	4438
584.8378	4379
587.3079	4475
589.7773	4464
592.244	4370
594.714	4414
597.1793	4495
599.6461	4394
602.1121	4420
604.5754	4429
607.0421	4415
609.5042	4322
611.9675	4383
614.4282	4382
616.8902	4360
619.3515	4475
621.8122	4427
624.2702	4365
626.7296	4394
629.1863	4358
631.6423	4352
634.1017	4388
636.5563	4335
639.0104	4385
641.4658	4393
643.9185	4393
646.3725	4414
648.8239	4410
651.2766	4439
653.7266	4418
656.176	4415
658.6247	4388
661.0748	4430
663.5242	4556
665.9709	4545
668.417	4492
670.8624	4467
673.3092	4536
675.7533	4501
678.1968	4461
680.6395	4518
683.0817	4435
685.5251	4548
687.9659	4577
690.4061	4518
692.8456	4570
695.2844	4531
697.7226	4571
700.1621	4501
702.599	4487
705.0332	4577
707.4688	4575
709.9036	4571
712.3399	4455
714.7735	4452
717.2044	4538
719.6367	4705
722.0683	4599
724.4993	4631
726.9296	4685
729.3593	4609
731.7883	4681
734.2147	4766
736.6423	4601
739.0714	4665
741.4958	4734
743.9216	4836
746.3447	4705
748.7691	4725
751.1929	4738
753.616	4838
756.0366	4796
758.4584	4793
760.8776	4766
763.2982	4797
765.718	4782
768.1373	4867
770.5539	4861
772.9698	4849
775.3871	4863
777.8038	4865
780.2178	4966
782.6332	4735
785.0459	4831
787.458	4860
789.8714	4915
792.2842	4890
794.6943	4917
797.1038	4889
799.5127	4914
801.9209	4861
804.3324	4973
806.7393	4858
809.1456	4807
811.5513	4898
813.9562	4973
816.3625	4855
818.7663	5038
821.1693	5008
823.5718	4915
825.9735	4980
828.3746	4929
830.7771	4893
833.177	4923
835.5762	4945
837.9747	4984
840.3727	5026
842.772	4979
845.1666	5150
847.5626	4995
849.958	4971
852.3527	4970
854.7488	5064
857.1403	5006
859.5331	5138
861.9253	5021
864.3168	5008
866.7057	5084
869.098	5081
871.4876	4980
873.8746	5100
876.263	5000
878.6487	5083
881.0378	5080
883.4243	5003
885.8081	4967
888.1933	5039
890.5759	4956
892.9598	4995
895.343	5039
897.7256	5061
900.1057	5005
902.4871	5036
904.8659	5013
907.246	5080
909.6254	5090
912.0023	5140
914.3786	5054
916.7562	5180
919.1331	5168
921.5074	5199
923.8831	5178
926.2562	5140
928.6287	5334
931.0005	5163
933.3757	5351
935.7462	5389
938.1162	5270
940.4855	5273
942.8542	5406
945.2242	5495
947.5916	5506
949.9584	5555
952.3266	5673
954.6921	5896
957.0571	6069
959.4233	6261
961.787	6477
964.15	6448
966.5125	6330
968.8742	6041
971.2354	5991
973.5959	5661
975.9559	5464
978.3151	5462
980.6738	5264
983.0338	5292
985.3912	5284
987.7461	5238
990.1022	5151
992.4578	5254
994.8127	5157
997.1689	5194
999.5207	5299
1001.874	5254
1004.226	5274
1006.576	5276
1008.929	5244
1011.28	5243
1013.628	5240
1015.977	5256
1018.324	5315
1020.674	5193
1023.019	5214
1025.366	5289
1027.713	5358
1030.056	5253
1032.399	5237
1034.746	5332
1037.087	5183
1039.431	5361
1041.771	5349
1044.113	5388
1046.454	5324
1048.793	5254
1051.133	5381
1053.471	5350
1055.807	5333
1058.146	5388
1060.483	5291
1062.818	5384
1065.153	5426
1067.489	5401
1069.822	5474
1072.156	5558
1074.488	5446
1076.82	5451
1079.15	5283
1081.48	5437
1083.814	5393
1086.143	5342
1088.471	5415
1090.799	5272
1093.126	5300
1095.452	5298
1097.78	5456
1100.105	5354
1102.43	5317
1104.754	5278
1107.077	5323
1109.4	5374
1111.722	5388
1114.044	5389
1116.365	5435
1118.685	5309
1121.005	5421
1123.324	5416
1125.643	5470
1127.961	5413
1130.278	5369
1132.595	5449
1134.911	5423
1137.226	5297
1139.541	5325
1141.854	5433
1144.167	5309
1146.482	5341
1148.793	5431
1151.105	5410
1153.414	5369
1155.725	5352
1158.033	5384
1160.344	5369
1162.651	5322
1164.959	5351
1167.265	5391
1169.572	5390
1171.878	5438
1174.184	5328
1176.488	5388
1178.79	5355
1181.094	5278
1183.396	5429
1185.699	5355
1188.001	5392
1190.301	5353
1192.6	5392
1194.9	5400
1197.2	5415
1199.497	5475
1201.794	5382
1204.09	5335
1206.387	5437
1208.684	5477
1210.978	5474
1213.272	5425
1215.565	5480
1217.858	5415
1220.15	5431
1222.443	5349
1224.734	5442
1227.024	5438
1229.313	5472
1231.602	5470
1233.892	5465
1236.18	5579
1238.467	5608
1240.754	5579
1243.04	5581
1245.325	5582
1247.612	5596
1249.896	5570
1252.178	5624
1254.461	5668
1256.743	5587
1259.027	5591
1261.308	5639
1263.587	5533
1265.867	5699
1268.146	5514
1270.425	5633
1272.703	5520
1274.981	5601
1277.256	5601
1279.532	5547
1281.808	5540
1284.083	5584
1286.358	5597
1288.63	5542
1290.904	5513
1293.175	5593
1295.449	5543
1297.719	5572
1299.99	5615
1302.259	5459
1304.529	5578
1306.798	5538
1309.065	5483
1311.333	5552
1313.599	5572
1315.866	5594
1318.131	5411
1320.396	5527
1322.66	5500
1324.925	5567
1327.187	5558
1329.448	5606
1331.711	5522
1333.974	5621
1336.234	5503
1338.493	5524
1340.752	5609
1343.01	5574
1345.269	5619
1347.526	5526
1349.784	5575
1352.04	5460
1354.295	5578
1356.552	5631
1358.806	5674
1361.059	5631
1363.312	5565
1365.564	5452
1367.818	5532
1370.069	5596
1372.318	5602
1374.568	5526
1376.817	5633
1379.066	5569
1381.316	5611
1383.564	5631
1385.809	5596
1388.056	5656
1390.301	5674
1392.549	5588
1394.793	5730
1397.036	5653
1399.279	5486
1401.522	5571
1403.763	5798
1406.007	5679
1408.248	5695
1410.487	5748
1412.727	5643
1414.965	5674
1417.205	5576
1419.442	5775
1421.68	5588
1423.915	5746
1426.152	5715
1428.388	5688
1430.623	5738
1432.857	5737
1435.091	5834
1437.323	5727
1439.556	5885
1441.789	5725
1444.019	5741
1446.25	5797
1448.48	5883
1450.708	5682
1452.938	5842
1455.167	5872
1457.394	5830
1459.62	5696
1461.846	5715
1464.073	5865
1466.299	5830
1468.523	5853
1470.746	5758
1472.969	5647
1475.191	5688
1477.415	5705
1479.636	5649
1481.858	5591
1484.078	5653
1486.298	5688
1488.518	5587
1490.736	5640
1492.954	5542
1495.169	5609
1497.386	5637
1499.602	5655
1501.819	5754
1504.034	5660
1506.248	5660
1508.462	5646
1510.675	5572
1512.888	5632
1515.1	5552
1517.311	5642
1519.522	5603
1521.732	5549
1523.942	5623
1526.151	5655
1528.36	5535
1530.566	5534
1532.773	5591
1534.98	5592
1537.187	5628
1539.392	5745
1541.596	5582
1543.801	5546
1546.005	5614
1548.208	5627
1550.411	5684
1552.612	5525
1554.814	5661
1557.013	5612
1559.212	5615
1561.414	5675
1563.612	5618
1565.811	5714
1568.007	5699
1570.203	5525
1572.403	5705
1574.598	5755
1576.792	5773
1578.988	5830
1581.181	5791
1583.376	5776
1585.568	5707
1587.761	5687
1589.952	5808
1592.143	5580
1594.333	5801
1596.524	5799
1598.715	5841
1600.903	5715
1603.091	5854
1605.278	5800
1607.466	5710
1609.652	5720
1611.838	5699
1614.023	5699
1616.207	5800
1618.391	5716
1620.576	5806
1622.759	5897
1624.941	5787
1627.123	5745
1629.304	5912
1631.484	5866
1633.664	5850
1635.844	5885
1638.022	5798
1640.201	5685
1642.38	5833
1644.556	5796
1646.732	5830
1648.908	5862
1651.084	5884
1653.257	5901
1655.433	5898
1657.607	5785
1659.779	5933
1661.951	5934
1664.122	5821
1666.295	5884
1668.467	5847
1670.635	5831
1672.805	5919
1674.973	5904
1677.142	5931
1679.31	5848
1681.478	5840
1683.644	5828
1685.81	5890
1687.975	5844
1690.142	5954
1692.305	5935
1694.468	5997
1696.632	5790
1698.794	5884
1700.957	5732
1703.119	5773
1705.279	5756
1707.439	5796
1709.598	5813
1711.758	5815
1713.917	5818
1716.075	5822
1718.231	5730
1720.388	5749
1722.543	5745
1724.702	5764
1726.856	5832
1729.01	5750
1731.164	5804
1733.317	5823
1735.471	5789
1737.623	5732
1739.774	5766
1741.925	5834
1744.075	5797
1746.225	5766
1748.376	5748
1750.524	5823
1752.672	5819
1754.82	5869
1756.965	5790
1759.113	5754
1761.259	5792
1763.405	5913
1765.549	5890
1767.694	5825
1769.836	5830
1771.981	5838
1774.123	5884
1776.264	5860
1778.405	5792
1780.546	5908
1782.687	5870
1784.827	5807
1786.966	5801
1789.103	5775
1791.242	5898
1793.381	5831
1795.517	5871
1797.653	5867
1799.788	5808
1801.923	5893
1804.057	5820
1806.193	5821
1808.326	5865
1810.457	5863
1812.59	5831
1814.721	5944
1816.855	5720
1818.984	5861
1821.113	5817
1823.244	5792
1825.372	5807
1827.499	5976
1829.63	5709
1831.756	5761
1833.882	5862
1836.007	5791
1838.132	5819
1840.26	5796
1842.384	5761
1844.507	5791
1846.63	5791
1848.752	5780
1850.875	5774
1852.996	5763
1855.118	5680
1857.238	5777
1859.358	5792
1861.477	5856
1863.597	5766
1865.715	5773
1867.832	5736
1869.948	5866
1872.064	5695
1874.181	5817
1876.297	5710
1878.411	5774
1880.526	5785
1882.639	5765
1884.752	5785
1886.865	5814
1888.977	5790
1891.089	5798
1893.2	5868
1895.308	5844
1897.42	5713
1899.53	5778
1901.639	5827
1903.745	5819
1905.853	5838
1907.962	5822
1910.067	5897
1912.174	5851
1914.278	5870
1916.383	5906
1918.486	5812
1920.592	5999
1922.694	5895
1924.797	5906
1926.898	5937
1929	5898
1931.102	5844
1933.203	5921
1935.301	5909
1937.401	5906
1939.499	5941
1941.598	5948
1943.697	5824
1945.793	5853
1947.888	5795
1949.985	5866
1952.08	5759
1954.176	5913
1956.269	6011
1958.364	5737
1960.457	5985
1962.549	5917
1964.642	5786
1966.733	5778
1968.823	5818
1970.913	5844
1973.005	5796
1975.093	5847
1977.184	5774
1979.271	5785
1981.359	5825
1983.446	5728
1985.532	5867
1987.619	5881
1989.705	5855
1991.789	5919
1993.874	5738
1995.956	5749
1998.041	5800
2000.123	5768
2002.206	5777
2004.287	5818
2006.368	5862
2008.449	5842
2010.529	5792
2012.609	5666
2014.688	5731
2016.766	5807
2018.843	5815
2020.922	5765
2022.999	5774
2025.074	5836
2027.15	6015
2029.225	5790
2031.299	5753
2033.375	5678
2035.447	5833
2037.52	5790
2039.592	5663
2041.664	5795
2043.736	5781
2045.807	5790
2047.876	5806
2049.947	5779
2052.015	5796
2054.086	5673
2056.153	5852
2058.221	5822
2060.288	5886
2062.353	5802
2064.42	5835
2066.486	5812
2068.55	5810
2070.614	5852
2072.678	5724
2074.741	5845
2076.805	5826
2078.866	5759
2080.929	5828
2082.99	5777
2085.049	5748
2087.109	5866
2089.17	5765
2091.228	5874
2093.286	5875
2095.344	5774
2097.4	5898
2099.46	5852
2101.516	5814
2103.572	5830
2105.626	5773
2107.679	5791
2109.735	5728
2111.788	5765
2113.841	5836
2115.894	5915
2117.945	5744
2119.997	5733
2122.049	5786
2124.1	5809
2126.148	5787
2128.197	5820
2130.246	5834
2132.296	5788
2134.342	5721
2136.39	5748
2138.437	5756
2140.483	5669
2142.527	5763
2144.574	5721
2146.619	5760
2148.661	5782
2150.705	5844
2152.747	5739
2154.792	5726
2156.832	5829
2158.874	5693
2160.915	5858
2162.954	5625
2164.995	5759
2167.034	5708
2169.072	5725
2171.111	5791
2173.148	5682
2175.186	5680
2177.223	5777
2179.258	5756
2181.294	5774
2183.328	5802
2185.362	5709
2187.398	5684
2189.431	5629
2191.463	5673
2193.495	5742
2195.528	5643
2197.56	5711
2199.59	5636
2201.62	5588
2203.649	5669
2205.678	5651
2207.708	5664
2209.737	5641
2211.764	5513
2213.791	5617
2215.817	5669
2217.843	5660
2219.87	5621
2221.895	5679
2223.919	5519
2225.942	5556
2227.966	5642
2229.988	5637
2232.012	5623
2234.032	5627
2236.054	5692
2238.074	5546
2240.095	5608
2242.116	5591
2244.135	5642
2246.153	5726
2248.171	5662
2250.188	5601
2252.208	5585
2254.223	5583
2256.239	5734
2258.255	5676
2260.269	5670
2262.283	5560
2264.3	5595
2266.312	5664
2268.325	5562
2270.336	5592
2272.349	5652
2274.362	5607
2276.372	5579
2278.383	5565
2280.392	5581
2282.402	5651
2284.409	5662
2286.418	5585
2288.427	5635
2290.433	5498
2292.441	5619
2294.446	5632
2296.453	5638
2298.459	5626
2300.463	5596
2302.466	5517
2304.471	5590
2306.475	5549
2308.477	5642
2310.478	5545
2312.481	5551
2314.481	5466
2316.481	5565
2318.482	5460
2320.482	5525
2322.48	5499
2324.48	5685
2326.478	5560
2328.476	5633
2330.473	5524
2332.469	5409
2334.465	5585
2336.46	5488
2338.454	5591
2340.45	5475
2342.444	5492
2344.437	5569
2346.43	5423
2348.421	5524
2350.414	5579
2352.405	5481
2354.396	5468
2356.386	5661
2358.376	5470
2360.366	5529
2362.355	5435
2364.343	5462
2366.331	5562
2368.317	5568
2370.304	5522
2372.292	5428
2374.278	5459
2376.262	5499
2378.247	5409
2380.23	5526
2382.216	5461
2384.199	5344
2386.181	5543
2388.163	5442
2390.144	5450
2392.127	5401
2394.107	5467
2396.087	5360
2398.066	5392
2400.046	5435
2402.023	5375
2404.004	5409
2405.981	5410
2407.957	5496
2409.934	5392
2411.91	5365
2413.886	5449
2415.862	5370
2417.836	5347
2419.809	5357
2421.784	5390
2423.756	5262
2425.73	5407
2427.701	5387
2429.672	5358
2431.644	5456
2433.615	5387
2435.586	5328
2437.555	5446
2439.523	5365
2441.491	5413
2443.459	5387
2445.428	5442
2447.395	5382
2449.361	5356
2451.327	5369
2453.292	5217
2455.257	5367
2457.223	5444
2459.187	5416
2461.15	5363
2463.113	5367
2465.076	5328
2467.039	5275
2468.999	5310
2470.96	5299
2472.921	5384
2474.881	5278
2476.841	5199
2478.8	5392
2480.759	5303
2482.717	5424
2484.675	5415
2486.63	5208
2488.589	5362
2490.545	5371
2492.5	5343
2494.455	5355
2496.408	5312
2498.364	5302
2500.318	5308
2502.27	5323
2504.223	5293
2506.174	5300
2508.126	5311
2510.078	5310
2512.03	5319
2513.979	5325
2515.927	5236
2517.877	5270
2519.826	5243
2521.775	5269
2523.722	5308
2525.668	5244
2527.616	5317
2529.561	5199
2531.508	5286
2533.452	5270
2535.398	5256
2537.342	5231
2539.284	5372
2541.229	5370
2543.173	5236
2545.114	5211
2547.055	5157
2548.996	5232
2550.938	5192
2552.878	5284
2554.817	5293
2556.756	5256
2558.695	5269
2560.633	5166
2562.572	5197
2564.509	5292
2566.445	5236
2568.382	5306
2570.317	5272
2572.254	5247
2574.189	5222
2576.123	5152
2578.057	5247
2579.99	5265
2581.923	5135
2583.855	5197
2585.788	5303
2587.719	5214
2589.65	5202
2591.579	5181
2593.511	5191
2595.44	5271
2597.37	5230
2599.297	5187
2601.225	5299
2603.153	5391
2605.08	5327
2607.007	5277
2608.932	5189
2610.858	5183
2612.782	5251
2614.709	5271
2616.632	5201
2618.556	5273
2620.478	5274
2622.401	5287
2624.324	5295
2626.247	5249
2628.167	5219
2630.088	5306
2632.008	5236
2633.928	5217
2635.848	5151
2637.766	5209
2639.684	5252
2641.603	5175
2643.519	5248
2645.437	5209
2647.353	5269
2649.27	5231
2651.184	5206
2653.099	5293
2655.014	5321
2656.928	5226
2658.842	5359
2660.755	5267
2662.667	5226
2664.579	5335
2666.491	5189
2668.402	5213
2670.312	5085
2672.222	5175
2674.132	5204
2676.042	5241
2677.951	5206
2679.859	5231
2681.766	5117
2683.674	5190
2685.582	5214
2687.488	5141
2689.392	5223
2691.298	5186
2693.202	5263
2695.107	5087
2697.012	5169
2698.914	5019
2700.817	5116
2702.72	5055
2704.622	5127
2706.524	5172
2708.425	5254
2710.326	5257
2712.225	5115
2714.125	5117
2716.024	5105
2717.923	5112
2719.822	5105
2721.719	5034
2723.616	5108
2725.512	5074
2727.41	5071
2729.305	5159
2731.201	5137
2733.095	5116
2734.99	5130
2736.884	5067
2738.778	5029
2740.67	5116
2742.562	5068
2744.455	5053
2746.346	5038
2748.238	5013
2750.129	5171
2752.018	5101
2753.907	4999
2755.797	5113
2757.687	5057
2759.575	5142
2761.462	4990
2763.349	5024
2765.237	5016
2767.124	5032
2769.009	5029
2770.894	5181
2772.779	4999
2774.663	5042
2776.547	5029
2778.431	5038
2780.314	5071
2782.197	4994
2784.078	5058
2785.96	4935
2787.842	5049
2789.723	4969
2791.603	5122
2793.483	4961
2795.362	5045
2797.241	5044
2799.121	5052
2800.997	5003
2802.874	4933
2804.751	5061
2806.628	4931
2808.506	5142
2810.38	4958
2812.255	5027
2814.13	4973
2816.003	4940
2817.878	5059
2819.752	5078
2821.623	5020
2823.496	5003
2825.368	4987
2827.238	4953
2829.111	4936
2830.98	4946
2832.851	5062
2834.719	4964
2836.589	4895
2838.458	4899
2840.327	4960
2842.193	5040
2844.061	5006
2845.927	4987
2847.794	5075
2849.66	4922
2851.525	5051
2853.39	5019
2855.254	5025
2857.117	5059
2858.983	4986
2860.845	5016
2862.707	4976
2864.569	5100
2866.431	4982
2868.293	5072
2870.154	5115
2872.013	5105
2873.873	5038
2875.733	5105
2877.592	5168
2879.451	5150
2881.309	5183
2883.166	5307
2885.022	5263
2886.879	5241
2888.736	5319
2890.591	5204
2892.446	5267
2894.301	5257
2896.155	5209
2898.009	5219
2899.863	5177
2901.716	5227
2903.568	5154
2905.419	5200
2907.27	5318
2909.123	5225
2910.973	5143
2912.824	5305
2914.673	5308
2916.521	5153
2918.372	5383
2920.22	5286
2922.067	5359
2923.914	5479
2925.761	5479
2927.607	5465
2929.455	5454
2931.301	5497
2933.144	5453
2934.99	5486
2936.833	5537
2938.678	5609
2940.522	5673
2942.364	5650
2944.207	5690
2946.048	5818
2947.891	5679
2949.731	5617
2951.571	5615
2953.412	5611
2955.25	5558
2957.09	5584
2958.93	5409
2960.767	5507
2962.606	5499
2964.443	5384
2966.279	5439
2968.116	5355
2969.953	5369
2971.788	5350
2973.623	5314
2975.457	5290
2977.292	5207
2979.127	5323
2980.959	5264
2982.792	5144
2984.624	5191
2986.455	5249
2988.288	5278
2990.119	5235
2991.949	5203
2993.779	5103
2995.608	5044
2997.439	5150
2999.268	5100
3001.096	5043
3002.923	4975
3004.751	4978
3006.578	4890
3008.406	4913
3010.232	4888
3012.057	4849
3013.883	4795
3015.706	4926
3017.532	4748
3019.356	4784
3021.179	4745
3023.002	4784
3024.823	4688
3026.646	4814
3028.469	4695
3030.289	4717
3032.11	4715
3033.93	4802
3035.749	4710
3037.57	4768
3039.39	4644
3041.207	4764
3043.026	4736
3044.842	4607
3046.661	4670
3048.477	4591
3050.294	4708
3052.109	4760
3053.925	4736
3055.739	4673
3057.555	4705
3059.368	4790
3061.181	4668
3062.995	4698
3064.807	4659
3066.62	4634
3068.433	4677
3070.243	4666
3072.054	4647
3073.865	4663
3075.675	4656
3077.485	4562
3079.293	4546
3081.102	4574
3082.911	4576
3084.719	4590
3086.527	4584
3088.333	4585
3090.139	4553
3091.945	4575
3093.75	4568
3095.557	4558
3097.361	4555
3099.165	4505
3100.969	4550
3102.772	4544
3104.575	4491
3106.379	4529
3108.181	4523
3109.982	4436
3111.783	4425
3113.584	4591
3115.386	4457
3117.186	4464
3118.985	4538
3120.783	4486
3122.582	4340
3124.381	4471
3126.179	4520
3127.975	4420
3129.772	4440
3131.569	4449
3133.365	4416
3135.161	4406
3136.956	4474
3138.751	4399
3140.544	4411
3142.338	4349
3144.132	4430
3145.925	4453
3147.717	4425
3149.509	4410
3151.301	4442
3153.091	4354
3154.884	4497
3156.673	4431
3158.462	4451
3160.252	4423
3162.041	4345
3163.831	4406
3165.618	4433
3167.405	4434
3169.193	4405
3170.979	4285
3172.767	4410
3174.553	4412
3176.338	4369
3178.123	4438
3179.907	4365
3181.692	4395
3183.477	4397
3185.259	4396
3187.042	4312
3188.824	4309
3190.607	4289
3192.389	4347
3194.17	4370
3195.951	4349
3197.73	4405
3199.51	4338
3201.289	4291
3203.07	4322
3204.848	4325
3206.626	4330
3208.403	4372
3210.18	4337
3211.959	4412
3213.735	4367
3215.511	4315
3217.285	4241
3219.06	4272
3220.836	4364
3222.611	4342
3224.384	4339
3226.158	4321
3227.929	4275
3229.702	4312
3231.476	4262
3233.248	4227
3235.018	4352
3236.789	4227
3238.56	4279
3240.33	4320
3242.1	4291
3243.869	4289
3245.637	4272
3247.405	4258
3249.172	4348
3250.941	4284
3252.707	4187
3254.474	4258
3256.24	4243
3258.006	4246
3259.772	4263
3261.537	4322
3263.301	4264
3265.065	4224
3266.828	4298
3268.592	4241
3270.355	4243
3272.117	4156
3273.878	4323
3275.64	4309
3277.401	4219
3279.162	4307
3280.922	4233
3282.682	4359
3284.441	4190
3286.199	4284
3287.959	4148
3289.716	4209
3291.475	4275
3293.232	4316
3294.988	4263
3296.744	4283
3298.501	4337
3300.256	4198
3302.011	4200
3303.766	4281
3305.52	4276
3307.275	4266
3309.028	4245
3310.781	4169
3312.533	4277
3314.285	4147
3316.038	4329
3317.789	4258
3319.54	4252
3321.289	4281
3323.039	4241
3324.789	4314
3326.539	4250
3328.288	4207
3330.035	4252
3331.783	4186
3333.531	4187
3335.28	4187
3337.025	4160
3338.771	4148
3340.518	4211
3342.262	4169
3344.009	4161
3345.753	4188
3347.497	4255
3349.24	4203
3350.983	4272
3352.726	4181
3354.469	4221
3356.212	4162
3357.952	4101
3359.694	4184
3361.434	4103
3363.176	4127
3364.916	4157
3366.654	4108
3368.394	4185
3370.132	4047
3371.871	4185
3373.61	4192
3375.346	4191
3377.083	4157
3378.82	4151
3380.556	4128
3382.292	4089
3384.027	4074
3385.763	4068
3387.497	4057
3389.231	4155
3390.965	4095
3392.698	4090
3394.431	4114
3396.164	4109
3397.896	4051
3399.627	4101
3401.36	3974
3403.09	4064
3404.82	4119
3406.55	4037
3408.279	3969
3410.01	4032
3411.738	4075
3413.467	4058
3415.194	4073
3416.92	4004
3418.647	4099
3420.375	4056
3422.102	4027
3423.827	4042
3425.553	4050
3427.277	4115
3429.003	4072
3430.727	4042
3432.451	4115
3434.173	3973
3435.896	3986
3437.62	4061
3439.343	4024
3441.063	4036
3442.785	4015
3444.505	3966
3446.226	3996
3447.948	3964
3449.666	3927
3451.386	3916
3453.104	3962
3454.823	3911
3456.541	3922
3458.259	3898
3459.976	3935
3461.693	3932
3463.408	3960
3465.125	3923
3466.841	3855
3468.556	3889
3470.271	3950
3471.985	3850
3473.698	3822
3475.414	3891
3477.126	3788
3478.838	3930
3480.55	3875
3482.263	3921
3483.975	3788
3485.686	3858
3487.396	3836
3489.106	3824
3490.817	3813
3492.526	3883
3494.236	3821
3495.944	3820
3497.652	3846
3499.359	3869
3501.066	3783
3502.775	3806
3504.481	3771
3506.187	3843
3507.893	3756
3509.598	3836
3511.304	3853
3513.009	3719
3514.713	3799
3516.417	3769
3518.12	3882
3519.821	3835
3521.525	3723
3523.228	3781
3524.929	3830
3526.631	3776
3528.33	3693
3530.032	3763
3531.733	3676
3533.433	3742
3535.131	3702
3536.83	3781
3538.529	3682
3540.227	3642
3541.925	3667
3543.623	3754
3545.319	3843
3547.016	3705
3548.712	3662
3550.408	3656
3552.103	3661
3553.798	3702
3555.491	3622
3557.188	3665
3558.88	3653
3560.574	3678
3562.266	3667
3563.959	3694
3565.651	3579
3567.343	3681
3569.035	3645
3570.725	3618
3572.415	3653
3574.106	3727
3575.797	3661
3577.485	3665
3579.174	3618
3580.863	3618
3582.551	3632
3584.238	3623
3585.926	3629
3587.613	3548
3589.3	3610
3590.986	3642
3592.671	3618
3594.357	3622
3596.042	3629
3597.726	3542
3599.41	3543
3601.094	3580
3602.778	3475
3604.461	3575
3606.143	3543
3607.825	3656
3609.507	3463
3611.188	3587
3612.87	3496
3614.551	3481
3616.229	3500
3617.909	3525
3619.589	3462
3621.269	3498
3622.948	3458
3624.625	3538
3626.302	3525
3627.98	3482
3629.657	3388
3631.334	3495
3633.01	3453
3634.686	3471
3636.361	3490
3638.036	3428
3639.712	3398
3641.385	3422
3643.06	3393
3644.732	3453
3646.405	3477
3648.08	3423
3649.751	3501
3651.424	3388
3653.094	3389
3654.766	3344
3656.436	3389
3658.106	3368
3659.777	3426
3661.446	3379
3663.115	3374
3664.783	3369
3666.452	3366
3668.121	3391
3669.788	3353
3671.454	3361
3673.121	3375
3674.789	3341
3676.455	3447
3678.12	3305
3679.784	3379
3681.45	3346
3683.114	3353
3684.779	3312
3686.442	3331
3688.105	3314
3689.768	3424
3691.43	3352
3693.093	3381
3694.754	3330
3696.415	3323
3698.076	3393
3699.736	3358
3701.396	3357
3703.057	3249
3704.716	3278
3706.375	3351
3708.034	3313
3709.692	3350
3711.351	3370
3713.008	3380
3714.665	3291
3716.321	3319
3717.977	3277
3719.634	3308
3721.29	3350
3722.945	3293
3724.598	3281
3726.253	3275
3727.907	3319
3729.561	3203
3731.214	3333
3732.867	3217
3734.518	3242
3736.171	3254
3737.824	3207
3739.474	3268
3741.125	3253
3742.775	3271
3744.425	3203
3746.074	3302
3747.725	3256
3749.373	3237
3751.022	3213
3752.669	3275
3754.318	3268
3755.966	3173
3757.612	3207
3759.259	3218
3760.905	3229
3762.55	3195
3764.197	3167
3765.842	3180
3767.486	3179
3769.131	3301
3770.774	3228
3772.417	3207
3774.061	3193
3775.705	3182
3777.347	3266
3778.988	3206
3780.629	3212
3782.271	3171
3783.912	3266
3785.552	3166
3787.192	3208
3788.831	3149
3790.472	3161
3792.112	3119
3793.75	3123
3795.388	3108
3797.024	3123
3798.661	3254
3800.3	3119
3801.936	3133
3803.572	3114
3805.208	3109
3806.844	3198
3808.48	3141
3810.115	3080
3811.748	3073
3813.382	3150
3815.016	3101
3816.649	3106
3818.283	3095
3819.914	3073
3821.547	3091
3823.178	3121
3824.809	3075
3826.441	3102
3828.072	3100
3829.701	3147
3831.331	3033
3832.96	3058
3834.591	3071
3836.219	3066
3837.847	3114
3839.475	3068
3841.102	3105
3842.729	3085
3844.357	3151
3845.984	3037
3847.609	3014
3849.234	3091
3850.86	3000
3852.485	3061
3854.11	3035
3855.734	3018
3857.357	3012
3858.981	3058
3860.603	2994
3862.227	2966
3863.848	3027
3865.471	2996
3867.092	3084
3868.713	3006
3870.334	3040
3871.954	3047
3873.575	3018
3875.194	2954
3876.813	2989
3878.433	3012
3880.051	3013
3881.669	2935
3883.286	3030
3884.904	2930
3886.52	2921
3888.138	2904
3889.754	2982
3891.37	3062
3892.985	2974
3894.6	2957
3896.216	2948
3897.831	2931
3899.444	2975
3901.058	2978
3902.67	2945
3904.283	2958
3905.897	2968
3907.509	3003
3909.121	2928
3910.731	2971
3912.342	2898
3913.954	2925
3915.563	2902
3917.174	3030
3918.783	2957
3920.391	2972
3922.002	2854
3923.611	2914
3925.218	2911
3926.826	2969
3928.432	2874
3930.039	2948
3931.647	2932
3933.253	2927
3934.859	2946
3936.464	2877
3938.068	2867
3939.675	2867
3941.278	2948
3942.883	2916
3944.486	2906
3946.089	2920
3947.692	2915
3949.295	2859
3950.898	2873
3952.499	2917
3954.1	2920
3955.7	2863
3957.303	2873
3958.903	2882
3960.502	2880
3962.101	2909
3963.7	2903
3965.301	2861
3966.899	2913
3968.497	2918
3970.094	2822
3971.691	2910
3973.288	2866
3974.885	2820
3976.481	2856
3978.077	2837
3979.672	2820
3981.267	2825
3982.863	2798
3984.457	2824
3986.051	2749
3987.645	2802
3989.238	2777
3990.831	2883
3992.425	2867
3994.017	2829
3995.607	2785
3997.199	2825
3998.79	2798
4000.382	2803
4001.973	2788
4003.561	2803
4005.151	2786
4006.741	2727
4008.331	2803
4009.918	2738
4011.507	2777
4013.095	2786
4014.681	2694
4016.269	2809
4017.856	2742
4019.443	2756
4021.028	2752
4022.614	2733
4024.199	2633
4025.785	2765
4027.37	2723
4028.953	2769
4030.536	2679
4032.12	2715
4033.704	2707
4035.287	2718
4036.869	2726
4038.45	2588
4040.032	2618
4041.613	2657
4043.195	2669
4044.776	2744
4046.356	2666
4047.935	2650
4049.515	2602
4051.095	2670
4052.674	2716
4054.251	2675
4055.829	2702
4057.406	2686
4058.985	2645
4060.562	2700
4062.139	2627
4063.715	2693
4065.29	2627
4066.865	2701
4068.442	2652
4070.016	2554
4071.59	2604
4073.164	2771
4074.738	2702
4076.312	2675
4077.885	2639
4079.458	2649
4081.03	2637
4082.602	2657
4084.173	2631
4085.745	2611
4087.315	2635
4088.886	2633
4090.456	2642
4092.026	2516
4093.596	2570
4095.165	2630
4096.734	2585
4098.301	2582
4099.869	2640
4101.437	2492
4103.006	2559
4104.572	2618
4106.139	2564
4107.704	2594
4109.27	2571
4110.837	2614
4112.401	2576
4113.966	2568
4115.53	2569
4117.094	2573
4118.659	2591
4120.223	2555
4121.785	2557
4123.347	2556
4124.909	2535
4126.471	2596
4128.034	2590
4129.595	2562
4131.155	2534
4132.716	2535
4134.275	2552
4135.836	2527
4137.395	2543
4138.955	2542
4140.513	2550
4142.071	2535
4143.628	2480
4145.188	2549
4146.745	2503
4148.302	2505
4149.858	2531
4151.414	2503
4152.971	2504
4154.526	2502
4156.081	2502
4157.635	2501
4159.189	2588
4160.745	2438
4162.298	2472
4163.852	2467
4165.405	2449
4166.957	2422
4168.51	2482
4170.063	2527
4171.614	2541
4173.166	2455
4174.717	2352
4176.267	2449
4177.817	2395
4179.368	2454
4180.917	2375
4182.466	2458
4184.016	2397
4185.564	2441
4187.112	2506
4188.66	2436
4190.207	2451
4191.754	2409
4193.301	2433
4194.848	2427
4196.394	2453
4197.94	2446
4199.484	2392
4201.03	2400
4202.575	2414
4204.12	2397
4205.663	2406
4207.207	2352
4208.75	2386
4210.292	2389
4211.836	2370
4213.378	2389
4214.92	2396
4216.46	2358
4218.002	2409
4219.544	2448
4221.083	2397
4222.625	2378
4224.164	2374
4225.703	2413
4227.244	2389
4228.782	2327
4230.32	2382
4231.857	2339
4233.395	2364
4234.933	2357
4236.471	2384
4238.007	2376
4239.542	2340
4241.078	2331
4242.614	2353
4244.15	2349
4245.685	2341
4247.219	2342
4248.753	2335
4250.287	2387
4251.82	2378
4253.354	2353
4254.887	2292
4256.419	2303
4257.951	2367
4259.483	2340
4261.016	2390
4262.547	2340
4264.078	2317
4265.608	2345
4267.137	2284
4268.668	2319
4270.197	2286
4271.727	2333
4273.254	2341
4274.783	2288
4276.311	2289
4277.84	2260
4279.366	2326
4280.894	2310
4282.42	2278
4283.946	2328
4285.473	2310
4286.998	2273
4288.523	2347
4290.047	2333
4291.572	2272
4293.096	2221
4294.622	2281
4296.144	2312
4297.668	2248
4299.19	2265
4300.713	2266
4302.236	2240
4303.758	2232
4305.279	2293
4306.799	2303
4308.321	2309
4309.842	2224
4311.361	2225
4312.882	2232
4314.401	2231
