400.0961	4262
402.6185	4288
405.1424	4320
407.6635	4331
410.1838	4278
412.7035	4297
415.2225	4275
417.7388	4410
420.2585	4363
422.7754	4461
425.2917	4572
427.8072	4521
430.3221	4555
432.8363	4539
435.3498	4581
437.8626	4611
440.3727	4600
442.8841	4531
445.3969	4622
447.907	4530
450.4142	4552
452.9229	4491
455.4289	4466
457.9362	4588
460.4449	4512
462.9488	4549
465.454	4456
467.9566	4566
470.4604	4475
472.9637	4506
475.4662	4492
477.966	4624
480.4671	4498
482.9656	4599
485.4633	4477
487.9645	4516
490.4608	4503
492.9566	4655
495.4536	4616
497.948	4644
500.4437	4548
502.9387	4611
505.431	4700
507.9226	4665
510.4136	4598
512.9079	4618
515.3975	4648
517.8864	4713
520.3746	4649
522.8622	4634
525.3491	4700
527.8394	4627
530.3249	4696
532.8098	4712
535.2939	4688
537.7774	4725
540.2623	4779
542.7444	4721
545.2259	4703
547.7067	4783
550.1868	4686
552.6683	4721
555.147	4673
557.6231	4783
560.1005	4803
562.5773	4686
565.0534	4721
567.5308	4819
570.0056	4789
572.4776	4814
574.951	4852
577.4237	4830
579.8978	4754
582.3671	4921
584.8378	4837
587.3079	4796
589.7773	4967
592.244	4998
594.714	4999
597.1793	5049
599.6461	4818
602.1121	4908
604.5754	4928
607.0421	4879
609.5042	4852
611.9675	4831
614.4282	4804
616.8902	4925
619.3515	4967
621.8122	4847
624.2702	4791
626.7296	4863
629.1863	4891
631.6423	4789
634.1017	4773
636.5563	4815
639.0104	4833
641.4658	4915
643.9185	4908
646.3725	4811
648.8239	4826
651.2766	4898
653.7266	4893
656.176	4920
658.6247	4989
661.0748	4990
663.5242	5021
665.9709	4985
668.417	4925
670.8624	4929
673.3092	4966
675.7533	5048
678.1968	5049
680.6395	4911
683.0817	5045
685.5251	5004
687.9659	5009
690.4061	5020
692.8456	4952
695.2844	5040
697.7226	5021
700.1621	4975
702.599	5119
705.0332	5111
707.4688	5068
709.9036	5103
712.3399	5161
714.7735	5189
717.2044	5148
719.6367	5026
722.0683	5156
724.4993	5112
726.9296	5103
729.3593	5254
731.7883	5201
734.2147	5189
736.6423	5253
739.0714	5285
741.4958	5301
743.9216	5245
746.3447	5306
748.7691	5352
751.1929	5364
753.616	5366
756.0366	5379
758.4584	5438
760.8776	5395
763.2982	5313
765.718	5374
768.1373	5532
770.5539	5471
772.9698	5366
775.3871	5363
777.8038	5443
780.2178	5316
782.6332	5392
785.0459	5318
787.458	5484
789.8714	5359
792.2842	5386
794.6943	5479
797.1038	5397
799.5127	5342
801.9209	5462
804.3324	5374
806.7393	5349
809.1456	5463
811.5513	5391
813.9562	5525
816.3625	5481
818.7663	5484
821.1693	5582
823.5718	5465
825.9735	5463
828.3746	5413
830.7771	5383
833.177	5534
835.5762	5536
837.9747	5426
840.3727	5400
842.772	5603
845.1666	5586
847.5626	5615
849.958	5601
852.3527	5705
854.7488	5710
857.1403	5684
859.5331	5819
861.9253	5600
864.3168	5713
866.7057	5638
869.098	5590
871.4876	5603
873.8746	5633
876.263	5627
878.6487	5688
881.0378	5592
883.4243	5658
885.8081	5684
888.1933	5598
890.5759	5621
892.9598	5579
895.343	5599
897.7256	5610
900.1057	5605
902.4871	5639
904.8659	5641
907.246	5592
909.6254	5801
912.0023	5713
914.3786	5815
916.7562	5968
919.1331	6064
921.5074	6128
923.8831	6152
926.2562	6018
928.6287	6062
931.0005	6076
933.3757	6037
935.7462	6109
938.1162	6022
940.4855	6069
942.8542	6143
945.2242	6195
947.5916	6163
949.9584	6364
952.3266	6594
954.6921	6800
957.0571	7058
959.4233	7284
961.787	7303
964.15	7217
966.5125	7149
968.8742	6864
971.2354	6585
973.5959	6441
975.9559	6253
978.3151	6040
980.6738	6077
983.0338	6090
985.3912	6028
987.7461	5873
990.1022	5832
992.4578	5864
994.8127	5781
997.1689	5943
999.5207	5893
1001.874	5873
1004.226	5900
1006.576	5882
1008.929	5859
1011.28	5933
1013.628	5875
1015.977	5924
1018.324	5839
1020.674	5844
1023.019	5826
1025.366	5950
1027.713	5850
1030.056	5881
1032.399	6003
1034.746	5944
1037.087	5904
1039.431	5924
1041.771	6007
1044.113	6011
1046.454	5886
1048.793	5970
1051.133	6055
1053.471	5880
1055.807	6028
1058.146	5947
1060.483	6047
1062.818	5969
1065.153	6084
1067.489	6094
1069.822	6150
1072.156	6066
1074.488	6039
1076.82	6086
1079.15	6027
1081.48	6030
1083.814	5958
1086.143	6020
1088.471	6002
1090.799	5961
1093.126	5872
1095.452	5976
1097.78	5991
1100.105	5942
1102.43	5887
1104.754	6016
1107.077	5903
1109.4	6043
1111.722	6027
1114.044	6017
1116.365	5985
1118.685	5984
1121.005	5940
1123.324	5894
1125.643	6061
1127.961	6150
1130.278	6023
1132.595	5922
1134.911	6025
1137.226	6002
1139.541	5927
1141.854	5913
1144.167	5936
1146.482	5996
1148.793	5943
1151.105	6010
1153.414	5961
1155.725	5906
1158.033	5902
1160.344	5904
1162.651	6030
1164.959	5971
1167.265	6064
1169.572	6063
1171.878	6086
1174.184	5971
1176.488	6154
1178.79	6080
1181.094	6092
1183.396	6148
1185.699	6032
1188.001	6054
1190.301	5963
1192.6	5985
1194.9	6002
1197.2	6011
1199.497	6107
1201.794	6065
1204.09	5868
1206.387	6047
1208.684	6042
1210.978	5971
1213.272	6042
1215.565	5971
1217.858	5978
1220.15	5946
1222.443	6096
1224.734	6056
1227.024	6098
1229.313	6109
1231.602	6210
1233.892	6209
1236.18	6139
1238.467	6198
1240.754	6219
1243.04	6319
1245.325	6354
1247.612	6346
1249.896	6313
1252.178	6264
1254.461	6425
1256.743	6262
1259.027	6385
1261.308	6215
1263.587	6336
1265.867	6415
1268.146	6405
1270.425	6443
1272.703	6396
1274.981	6335
1277.256	6344
1279.532	6248
1281.808	6142
1284.083	6206
1286.358	6105
1288.63	6240
1290.904	6269
1293.175	6145
1295.449	6229
1297.719	6266
1299.99	6234
1302.259	6116
1304.529	6138
1306.798	6192
1309.065	6239
1311.333	6226
1313.599	6294
1315.866	6267
1318.131	6181
1320.396	6171
1322.66	6235
1324.925	6228
1327.187	6296
1329.448	6250
1331.711	6266
1333.974	6286
1336.234	6287
1338.493	6228
1340.752	6292
1343.01	6231
1345.269	6245
1347.526	6276
1349.784	6185
1352.04	6063
1354.295	6270
1356.552	6307
1358.806	6229
1361.059	6308
1363.312	6127
1365.564	6210
1367.818	6227
1370.069	6335
1372.318	6261
1374.568	6088
1376.817	6313
1379.066	6165
1381.316	6295
1383.564	6299
1385.809	6401
1388.056	6460
1390.301	6305
1392.549	6338
1394.793	6596
1397.036	6373
1399.279	6583
1401.522	6638
1403.763	6592
1406.007	6651
1408.248	6563
1410.487	6612
1412.727	6650
1414.965	6465
1417.205	6657
1419.442	6413
1421.68	6568
1423.915	6553
1426.152	6469
1428.388	6576
1430.623	6483
1432.857	6442
1435.091	6497
1437.323	6394
1439.556	6553
1441.789	6604
1444.019	6528
1446.25	6687
1448.48	6633
1450.708	6550
1452.938	6659
1455.167	6698
1457.394	6759
1459.62	6681
1461.846	6697
1464.073	6612
1466.299	6534
1468.523	6422
1470.746	6480
1472.969	6417
1475.191	6551
1477.415	6446
1479.636	6363
1481.858	6473
1484.078	6309
1486.298	6277
1488.518	6373
1490.736	6239
1492.954	6149
1495.169	6244
1497.386	6184
1499.602	6164
1501.819	6182
1504.034	6181
1506.248	6294
1508.462	6087
1510.675	6260
1512.888	6150
1515.1	6270
1517.311	6241
1519.522	6257
1521.732	6123
1523.942	6234
1526.151	6199
1528.36	6095
1530.566	6169
1532.773	6128
1534.98	6117
1537.187	6224
1539.392	6242
1541.596	6160
1543.801	6294
1546.005	6220
1548.208	6269
1550.411	6248
1552.612	6393
1554.814	6248
1557.013	6275
1559.212	6236
1561.414	6437
1563.612	6371
1565.811	6389
1568.007	6298
1570.203	6565
1572.403	6444
1574.598	6278
1576.792	6351
1578.988	6295
1581.181	6381
1583.376	6424
1585.568	6290
1587.761	6303
1589.952	6450
1592.143	6371
1594.333	6342
1596.524	6361
1598.715	6404
1600.903	6367
1603.091	6248
1605.278	6412
1607.466	6457
1609.652	6310
1611.838	6474
1614.023	6473
1616.207	6426
1618.391	6314
1620.576	6390
1622.759	6499
1624.941	6442
1627.123	6417
1629.304	6438
1631.484	6562
1633.664	6568
1635.844	6502
1638.022	6511
1640.201	6490
1642.38	6614
1644.556	6545
1646.732	6470
1648.908	6496
1651.084	6533
1653.257	6527
1655.433	6610
1657.607	6708
1659.779	6673
1661.951	6685
1664.122	6565
1666.295	6637
1668.467	6572
1670.635	6546
1672.805	6625
1674.973	6532
1677.142	6486
1679.31	6524
1681.478	6690
1683.644	6504
1685.81	6623
1687.975	6550
1690.142	6523
1692.305	6598
1694.468	6605
1696.632	6540
1698.794	6469
1700.957	6496
1703.119	6389
1705.279	6359
1707.439	6444
1709.598	6361
1711.758	6363
1713.917	6354
1716.075	6326
1718.231	6384
1720.388	6300
1722.543	6372
1724.702	6443
1726.856	6308
1729.01	6409
1731.164	6314
1733.317	6448
1735.471	6291
1737.623	6417
1739.774	6285
1741.925	6436
1744.075	6359
1746.225	6351
1748.376	6383
1750.524	6371
1752.672	6426
1754.82	6359
1756.965	6410
1759.113	6251
1761.259	6367
1763.405	6485
1765.549	6364
1767.694	6370
1769.836	6474
1771.981	6389
1774.123	6456
1776.264	6457
1778.405	6400
1780.546	6396
1782.687	6327
1784.827	6382
1786.966	6441
1789.103	6368
1791.242	6326
1793.381	6464
1795.517	6411
1797.653	6450
1799.788	6351
1801.923	6430
1804.057	6433
1806.193	6427
1808.326	6307
1810.457	6504
1812.59	6402
1814.721	6518
1816.855	6395
1818.984	6449
1821.113	6403
1823.244	6447
1825.372	6457
1827.499	6397
1829.63	6441
1831.756	6318
1833.882	6470
1836.007	6443
1838.132	6467
1840.26	6323
1842.384	6344
1844.507	6429
1846.63	6396
1848.752	6391
1850.875	6437
1852.996	6322
1855.118	6363
1857.238	6464
1859.358	6330
1861.477	6424
1863.597	6305
1865.715	6297
1867.832	6389
1869.948	6423
1872.064	6249
1874.181	6461
1876.297	6397
1878.411	6374
1880.526	6316
1882.639	6392
1884.752	6505
1886.865	6325
1888.977	6325
1891.089	6491
1893.2	6426
1895.308	6367
1897.42	6544
1899.53	6416
1901.639	6349
1903.745	6500
1905.853	6542
1907.962	6422
1910.067	6501
1912.174	6493
1914.278	6534
1916.383	6446
1918.486	6488
1920.592	6517
1922.694	6376
1924.797	6476
1926.898	6580
1929	6480
1931.102	6477
1933.203	6479
1935.301	6505
1937.401	6464
1939.499	6564
1941.598	6456
1943.697	6433
1945.793	6419
1947.888	6471
1949.985	6523
1952.08	6495
1954.176	6465
1956.269	6472
1958.364	6358
1960.457	6571
1962.549	6498
1964.642	6439
1966.733	6544
1968.823	6320
1970.913	6496
1973.005	6405
1975.093	6384
1977.184	6518
1979.271	6427
1981.359	6428
1983.446	6399
1985.532	6408
1987.619	6453
1989.705	6541
1991.789	6408
1993.874	6471
1995.956	6438
1998.041	6414
2000.123	6394
2002.206	6410
2004.287	6439
2006.368	6363
2008.449	6465
2010.529	6510
2012.609	6384
2014.688	6437
2016.766	6431
2018.843	6388
2020.922	6339
2022.999	6342
2025.074	6453
2027.15	6420
2029.225	6323
2031.299	6318
2033.375	6339
2035.447	6322
2037.52	6390
2039.592	6346
2041.664	6423
2043.736	6467
2045.807	6425
2047.876	6448
2049.947	6450
2052.015	6271
2054.086	6445
2056.153	6346
2058.221	6432
2060.288	6396
2062.353	6339
2064.42	6334
2066.486	6470
2068.55	6466
2070.614	6374
2072.678	6497
2074.741	6325
2076.805	6374
2078.866	6463
2080.929	6333
2082.99	6473
2085.049	6473
2087.109	6471
2089.17	6398
2091.228	6364
2093.286	6357
2095.344	6413
2097.4	6402
2099.46	6385
2101.516	6471
2103.572	6463
2105.626	6513
2107.679	6390
2109.735	6419
2111.788	6467
2113.841	6359
2115.894	6419
2117.945	6470
2119.997	6388
2122.049	6460
2124.1	6397
2126.148	6256
2128.197	6389
2130.246	6372
2132.296	6163
2134.342	6440
2136.39	6403
2138.437	6445
2140.483	6279
2142.527	6311
2144.574	6400
2146.619	6371
2148.661	6239
2150.705	6333
2152.747	6482
2154.792	6407
2156.832	6445
2158.874	6217
2160.915	6392
2162.954	6290
2164.995	6315
2167.034	6273
2169.072	6294
2171.111	6320
2173.148	6282
2175.186	6390
2177.223	6334
2179.258	6238
2181.294	6351
2183.328	6376
2185.362	6459
2187.398	6280
2189.431	6301
2191.463	6294
2193.495	6290
2195.528	6351
2197.56	6251
2199.59	6272
2201.62	6193
2203.649	6236
2205.678	6235
2207.708	6281
2209.737	6241
2211.764	6197
2213.791	6210
2215.817	6241
2217.843	6020
2219.87	6183
2221.895	6164
2223.919	6086
2225.942	6212
2227.966	6292
2229.988	6143
2232.012	6170
2234.032	6375
2236.054	6257
2238.074	6109
2240.095	6299
2242.116	6183
2244.135	6318
2246.153	6207
2248.171	6273
2250.188	6279
2252.208	6164
2254.223	6248
2256.239	6179
2258.255	6371
2260.269	6324
2262.283	6226
2264.3	6232
2266.312	6239
2268.325	6247
2270.336	6196
2272.349	6173
2274.362	6289
2276.372	6286
2278.383	6238
2280.392	6100
2282.402	6120
2284.409	6148
2286.418	6198
2288.427	6307
2290.433	6296
2292.441	6227
2294.446	6137
2296.453	6300
2298.459	6220
2300.463	6270
2302.466	6147
2304.471	6238
2306.475	6303
2308.477	6135
2310.478	6133
2312.481	6138
2314.481	6291
2316.481	6192
2318.482	6166
2320.482	6143
2322.48	6095
2324.48	6048
2326.478	6207
2328.476	6079
2330.473	6195
2332.469	6102
2334.465	6191
2336.46	6054
2338.454	6119
2340.45	6089
2342.444	6132
2344.437	6081
2346.43	6115
2348.421	6135
2350.414	6096
2352.405	6080
2354.396	6124
2356.386	6147
2358.376	6038
2360.366	6155
2362.355	6022
2364.343	6040
2366.331	6078
2368.317	6112
2370.304	6040
2372.292	6170
2374.278	6126
2376.262	6089
2378.247	6177
2380.23	6112
2382.216	5994
2384.199	6073
2386.181	6011
2388.163	6027
2390.144	5965
2392.127	6072
2394.107	6033
2396.087	6029
2398.066	6075
2400.046	5982
2402.023	6048
2404.004	5881
2405.981	6108
2407.957	6018
2409.934	5935
2411.91	5953
2413.886	6050
2415.862	6084
2417.836	5987
2419.809	6029
2421.784	5943
2423.756	5960
2425.73	5981
2427.701	5919
2429.672	5932
2431.644	6010
2433.615	6019
2435.586	6111
2437.555	6028
2439.523	5961
2441.491	6042
2443.459	5952
2445.428	5963
2447.395	5883
2449.361	6030
2451.327	5796
2453.292	5925
2455.257	5885
2457.223	5936
2459.187	5940
2461.15	5936
2463.113	5907
2465.076	6006
2467.039	5952
2468.999	6003
2470.96	5790
2472.921	5926
2474.881	6018
2476.841	5972
2478.8	5899
2480.759	5984
2482.717	5844
2484.675	5944
2486.63	5895
2488.589	5833
2490.545	5855
2492.5	5864
2494.455	5983
2496.408	5793
2498.364	5965
2500.318	5932
2502.27	5972
2504.223	5874
2506.174	5928
2508.126	5855
2510.078	5844
2512.03	5794
2513.979	5855
2515.927	5867
2517.877	5828
2519.826	5769
2521.775	5904
2523.722	5887
2525.668	5926
2527.616	5802
2529.561	5822
2531.508	5891
2533.452	5826
2535.398	5855
2537.342	5802
2539.284	5800
2541.229	5907
2543.173	5840
2545.114	5708
2547.055	5923
2548.996	5852
2550.938	5827
2552.878	5811
2554.817	5770
2556.756	5817
2558.695	5789
2560.633	5853
2562.572	5806
2564.509	5739
2566.445	5846
2568.382	5789
2570.317	5832
2572.254	5824
2574.189	5807
2576.123	5718
2578.057	5864
2579.99	5827
2581.923	5833
2583.855	5814
2585.788	5903
2587.719	5856
2589.65	5909
2591.579	5786
2593.511	5759
2595.44	5891
2597.37	5850
2599.297	5943
2601.225	5768
2603.153	5856
2605.08	5824
2607.007	5875
2608.932	5888
2610.858	5853
2612.782	5691
2614.709	5835
2616.632	5842
2618.556	5727
2620.478	5816
2622.401	5883
2624.324	5857
2626.247	5806
2628.167	5835
2630.088	5818
2632.008	5888
2633.928	5839
2635.848	5909
2637.766	5708
2639.684	5905
2641.603	5778
2643.519	5909
2645.437	5753
2647.353	5813
2649.27	5812
2651.184	5834
2653.099	5950
2655.014	5787
2656.928	5875
2658.842	5806
2660.755	5706
2662.667	5702
2664.579	5830
2666.491	5844
2668.402	5840
2670.312	5723
2672.222	5759
2674.132	5810
2676.042	5800
2677.951	5809
2679.859	5724
2681.766	5794
2683.674	5707
2685.582	5617
2687.488	5756
2689.392	5802
2691.298	5717
2693.202	5780
2695.107	5746
2697.012	5693
2698.914	5916
2700.817	5710
2702.72	5791
2704.622	5649
2706.524	5741
2708.425	5748
2710.326	5687
2712.225	5862
2714.125	5758
2716.024	5774
2717.923	5719
2719.822	5666
2721.719	5792
2723.616	5614
2725.512	5659
2727.41	5760
2729.305	5735
2731.201	5695
2733.095	5689
2734.99	5662
2736.884	5612
2738.778	5589
2740.67	5763
2742.562	5768
2744.455	5767
2746.346	5680
2748.238	5682
2750.129	5738
2752.018	5785
2753.907	5667
2755.797	5638
2757.687	5749
2759.575	5648
2761.462	5588
2763.349	5574
2765.237	5592
2767.124	5667
2769.009	5705
2770.894	5752
2772.779	5621
2774.663	5571
2776.547	5718
2778.431	5594
2780.314	5592
2782.197	5632
2784.078	5772
2785.96	5605
2787.842	5700
2789.723	5647
2791.603	5697
2793.483	5577
2795.362	5628
2797.241	5654
2799.121	5560
2800.997	5609
2802.874	5561
2804.751	5519
2806.628	5616
2808.506	5635
2810.38	5636
2812.255	5583
2814.13	5660
2816.003	5557
2817.878	5637
2819.752	5568
2821.623	5588
2823.496	5565
2825.368	5650
2827.238	5581
2829.111	5547
2830.98	5635
2832.851	5623
2834.719	5616
2836.589	5689
2838.458	5681
2840.327	5616
2842.193	5590
2844.061	5688
2845.927	5702
2847.794	5602
2849.66	5704
2851.525	5695
2853.39	5700
2855.254	5732
2857.117	5782
2858.983	5803
2860.845	5843
2862.707	5730
2864.569	5912
2866.431	5931
2868.293	5928
2870.154	6067
2872.013	6011
2873.873	5990
2875.733	6136
2877.592	6204
2879.451	6227
2881.309	6256
2883.166	6300
2885.022	6407
2886.879	6276
2888.736	6449
2890.591	6394
2892.446	6521
2894.301	6588
2896.155	6421
2898.009	6438
2899.863	6479
2901.716	6472
2903.568	6387
2905.419	6312
2907.27	6427
2909.123	6368
2910.973	6476
2912.824	6467
2914.673	6345
2916.521	6593
2918.372	6649
2920.22	6562
2922.067	6654
2923.914	6686
2925.761	6791
2927.607	6839
2929.455	6918
2931.301	6885
2933.144	7087
2934.99	7015
2936.833	7159
2938.678	7052
2940.522	7163
2942.364	7287
2944.207	7288
2946.048	7514
2947.891	7551
2949.731	7652
2951.571	7529
2953.412	7484
2955.25	7452
2957.09	7421
2958.93	7202
2960.767	7320
2962.606	7119
2964.443	6983
2966.279	7091
2968.116	6950
2969.953	6881
2971.788	6668
2973.623	6588
2975.457	6639
2977.292	6441
2979.127	6504
2980.959	6478
2982.792	6422
2984.624	6448
2986.455	6373
2988.288	6368
2990.119	6289
2991.949	6244
2993.779	6227
2995.608	6123
2997.439	6071
2999.268	5995
3001.096	6054
3002.923	5955
3004.751	5872
3006.578	5861
3008.406	5733
3010.232	5723
3012.057	5726
3013.883	5697
3015.706	5619
3017.532	5635
3019.356	5506
3021.179	5576
3023.002	5545
3024.823	5498
3026.646	5497
3028.469	5420
3030.289	5463
3032.11	5483
3033.93	5480
3035.749	5445
3037.57	5341
3039.39	5502
3041.207	5453
3043.026	5347
3044.842	5450
3046.661	5382
3048.477	5455
3050.294	5271
3052.109	5353
3053.925	5409
3055.739	5271
3057.555	5325
3059.368	5321
3061.181	5341
3062.995	5323
3064.807	5309
3066.62	5389
3068.433	5436
3070.243	5294
3072.054	5348
3073.865	5453
3075.675	5328
3077.485	5263
3079.293	5227
3081.102	5355
3082.911	5239
3084.719	5189
3086.527	5256
3088.333	5159
3090.139	5304
3091.945	5203
3093.75	5219
3095.557	5163
3097.361	5270
3099.165	5102
3100.969	5231
3102.772	5188
3104.575	5178
3106.379	5211
3108.181	5163
3109.982	5215
3111.783	5170
3113.584	5085
3115.386	5028
3117.186	5055
3118.985	5192
3120.783	4968
3122.582	5100
3124.381	5070
3126.179	5063
3127.975	5154
3129.772	5014
3131.569	5126
3133.365	5061
3135.161	5100
3136.956	5116
3138.751	5062
3140.544	4990
3142.338	5033
3144.132	4979
3145.925	5118
3147.717	5110
3149.509	5100
3151.301	5017
3153.091	5013
3154.884	4975
3156.673	4992
3158.462	4999
3160.252	4999
3162.041	5041
3163.831	4957
3165.618	4984
3167.405	4985
3169.193	4967
3170.979	5100
3172.767	4978
3174.553	4942
3176.338	5071
3178.123	4962
3179.907	4971
3181.692	4977
3183.477	5043
3185.259	4961
3187.042	5101
3188.824	4961
3190.607	5078
3192.389	4939
3194.17	4958
3195.951	5075
3197.73	5029
3199.51	4922
3201.289	5024
3203.07	5006
3204.848	5058
3206.626	4882
3208.403	5011
3210.18	4978
3211.959	4935
3213.735	4966
3215.511	5060
3217.285	4897
3219.06	4909
3220.836	4983
3222.611	4945
3224.384	5013
3226.158	4966
3227.929	5026
3229.702	4958
3231.476	4940
3233.248	4888
3235.018	4972
3236.789	4904
3238.56	4923
3240.33	4952
3242.1	5040
3243.869	4875
3245.637	4949
3247.405	4942
3249.172	4946
3250.941	4898
3252.707	4975
3254.474	4939
3256.24	5056
3258.006	4849
3259.772	4926
3261.537	4974
3263.301	4986
3265.065	4997
3266.828	4999
3268.592	4900
3270.355	4964
3272.117	4987
3273.878	4963
3275.64	4935
3277.401	4979
3279.162	4868
3280.922	5035
3282.682	4999
3284.441	4927
3286.199	4913
3287.959	5010
3289.716	4881
3291.475	4976
3293.232	5008
3294.988	4960
3296.744	4943
3298.501	4981
3300.256	5031
3302.011	4939
3303.766	4958
3305.52	4995
3307.275	4888
3309.028	4940
3310.781	4987
3312.533	4960
3314.285	4870
3316.038	4812
3317.789	4917
3319.54	4876
3321.289	4931
3323.039	4911
3324.789	4896
3326.539	4961
3328.288	4921
3330.035	4955
3331.783	4983
3333.531	4905
3335.28	4802
3337.025	4866
3338.771	4894
3340.518	4900
3342.262	4920
3344.009	4918
3345.753	4874
3347.497	4869
3349.24	4823
3350.983	4801
3352.726	4875
3354.469	4808
3356.212	4810
3357.952	4876
3359.694	4836
3361.434	4786
3363.176	4834
3364.916	4797
3366.654	4807
3368.394	4849
3370.132	4770
3371.871	4736
3373.61	4845
3375.346	4742
3377.083	4796
3378.82	4773
3380.556	4768
3382.292	4774
3384.027	4773
3385.763	4722
3387.497	4805
3389.231	4691
3390.965	4791
3392.698	4729
3394.431	4754
3396.164	4734
3397.896	4761
3399.627	4724
3401.36	4636
3403.09	4685
3404.82	4650
3406.55	4649
3408.279	4754
3410.01	4728
3411.738	4678
3413.467	4675
3415.194	4677
3416.92	4729
3418.647	4659
3420.375	4717
3422.102	4694
3423.827	4661
3425.553	4650
3427.277	4614
3429.003	4659
3430.727	4684
3432.451	4678
3434.173	4596
3435.896	4642
3437.62	4477
3439.343	4616
3441.063	4538
3442.785	4571
3444.505	4625
3446.226	4533
3447.948	4493
3449.666	4591
3451.386	4567
3453.104	4603
3454.823	4634
3456.541	4542
3458.259	4476
3459.976	4505
3461.693	4453
3463.408	4605
3465.125	4576
3466.841	4415
3468.556	4466
3470.271	4432
3471.985	4384
3473.698	4516
3475.414	4461
3477.126	4454
3478.838	4405
3480.55	4432
3482.263	4405
3483.975	4396
3485.686	4532
3487.396	4261
3489.106	4341
3490.817	4388
3492.526	4402
3494.236	4277
3495.944	4361
3497.652	4446
3499.359	4367
3501.066	4394
3502.775	4378
3504.481	4336
3506.187	4389
3507.893	4282
3509.598	4261
3511.304	4316
3513.009	4216
3514.713	4242
3516.417	4257
3518.12	4381
3519.821	4308
3521.525	4330
3523.228	4215
3524.929	4323
3526.631	4267
3528.33	4278
3530.032	4312
3531.733	4265
3533.433	4282
3535.131	4326
3536.83	4141
3538.529	4259
3540.227	4243
3541.925	4225
3543.623	4199
3545.319	4200
3547.016	4138
3548.712	4138
3550.408	4233
3552.103	4211
3553.798	4175
3555.491	4243
3557.188	4113
3558.88	4213
3560.574	4081
3562.266	4258
3563.959	4155
3565.651	4096
3567.343	4090
3569.035	4164
3570.725	4051
3572.415	4191
3574.106	4182
3575.797	4086
3577.485	4116
3579.174	4098
3580.863	4112
3582.551	4126
3584.238	4088
3585.926	4096
3587.613	4011
3589.3	4030
3590.986	4074
3592.671	3955
3594.357	4062
3596.042	4029
3597.726	3986
3599.41	4032
3601.094	4124
3602.778	3974
3604.461	3975
3606.143	4017
3607.825	3895
3609.507	4004
3611.188	3993
3612.87	3987
3614.551	4011
3616.229	3982
3617.909	3901
3619.589	3966
3621.269	3882
3622.948	3931
3624.625	3980
3626.302	3966
3627.98	3955
3629.657	3853
3631.334	3930
3633.01	3869
3634.686	3898
3636.361	3806
3638.036	3864
3639.712	3825
3641.385	3914
3643.06	3869
3644.732	3762
3646.405	3874
3648.08	3905
3649.751	3785
3651.424	3762
3653.094	3801
3654.766	3824
3656.436	3834
3658.106	3762
3659.777	3780
3661.446	3856
3663.115	3771
3664.783	3799
3666.452	3773
3668.121	3774
3669.788	3788
3671.454	3758
3673.121	3766
3674.789	3831
3676.455	3776
3678.12	3756
3679.784	3766
3681.45	3763
3683.114	3706
3684.779	3764
3686.442	3742
3688.105	3719
3689.768	3816
3691.43	3736
3693.093	3718
3694.754	3767
3696.415	3726
3698.076	3749
3699.736	3766
3701.396	3695
3703.057	3668
3704.716	3701
3706.375	3738
3708.034	3720
3709.692	3623
3711.351	3701
3713.008	3766
3714.665	3721
3716.321	3641
3717.977	3697
3719.634	3660
3721.29	3768
3722.945	3679
3724.598	3632
3726.253	3638
3727.907	3632
3729.561	3697
3731.214	3693
3732.867	3682
3734.518	3639
3736.171	3664
3737.824	3673
3739.474	3618
3741.125	3684
3742.775	3627
3744.425	3550
3746.074	3571
3747.725	3587
3749.373	3599
3751.022	3640
3752.669	3528
3754.318	3585
3755.966	3572
3757.612	3627
3759.259	3609
3760.905	3541
3762.55	3587
3764.197	3542
3765.842	3556
3767.486	3490
3769.131	3586
3770.774	3599
3772.417	3503
3774.061	3535
3775.705	3553
3777.347	3478
3778.988	3519
3780.629	3555
3782.271	3576
3783.912	3534
3785.552	3498
3787.192	3555
3788.831	3567
3790.472	3520
3792.112	3475
3793.75	3455
3795.388	3527
3797.024	3504
3798.661	3617
3800.3	3454
3801.936	3453
3803.572	3485
3805.208	3450
3806.844	3442
3808.48	3414
3810.115	3520
3811.748	3492
3813.382	3570
3815.016	3473
3816.649	3462
3818.283	3467
3819.914	3452
3821.547	3511
3823.178	3456
3824.809	3406
3826.441	3385
3828.072	3469
3829.701	3438
3831.331	3405
3832.96	3388
3834.591	3485
3836.219	3391
3837.847	3410
3839.475	3490
3841.102	3348
3842.729	3407
3844.357	3337
3845.984	3382
3847.609	3425
3849.234	3337
3850.86	3378
3852.485	3436
3854.11	3416
3855.734	3367
3857.357	3428
3858.981	3460
3860.603	3343
3862.227	3357
3863.848	3356
3865.471	3349
3867.092	3409
3868.713	3311
3870.334	3380
3871.954	3367
3873.575	3362
3875.194	3295
3876.813	3330
3878.433	3269
3880.051	3252
3881.669	3366
3883.286	3433
3884.904	3337
3886.52	3361
3888.138	3350
3889.754	3343
3891.37	3278
3892.985	3251
3894.6	3320
3896.216	3280
3897.831	3327
3899.444	3327
3901.058	3359
3902.67	3309
3904.283	3320
3905.897	3309
3907.509	3305
3909.121	3288
3910.731	3200
3912.342	3374
3913.954	3259
3915.563	3268
3917.174	3237
3918.783	3349
3920.391	3375
3922.002	3280
3923.611	3272
3925.218	3263
3926.826	3267
3928.432	3275
3930.039	3268
3931.647	3281
3933.253	3315
3934.859	3218
3936.464	3234
3938.068	3145
3939.675	3270
3941.278	3268
3942.883	3250
3944.486	3127
3946.089	3264
3947.692	3265
3949.295	3148
3950.898	3243
3952.499	3191
3954.1	3175
3955.7	3178
3957.303	3244
3958.903	3254
3960.502	3213
3962.101	3195
3963.7	3210
3965.301	3322
3966.899	3163
3968.497	3238
3970.094	3172
3971.691	3204
3973.288	3131
3974.885	3247
3976.481	3211
3978.077	3212
3979.672	3177
3981.267	3213
3982.863	3149
3984.457	3094
3986.051	3145
3987.645	3136
3989.238	3180
3990.831	3079
3992.425	3143
3994.017	3113
3995.607	3098
3997.199	3062
3998.79	3092
4000.382	3090
4001.973	3093
4003.561	3118
4005.151	3062
4006.741	3036
4008.331	3069
4009.918	3067
4011.507	3098
4013.095	3049
4014.681	3045
4016.269	2995
4017.856	3085
4019.443	3046
4021.028	3079
4022.614	3001
4024.199	3044
4025.785	3122
4027.37	3024
4028.953	3128
4030.536	3061
4032.12	3052
4033.704	3072
4035.287	2941
4036.869	2941
4038.45	3093
4040.032	3040
4041.613	3020
4043.195	3057
4044.776	3109
4046.356	2995
4047.935	3034
4049.515	3023
4051.095	2983
4052.674	2936
4054.251	3015
4055.829	2992
4057.406	2982
4058.985	2948
4060.562	2978
4062.139	2968
4063.715	2993
4065.29	2948
4066.865	2969
4068.442	2948
4070.016	2947
4071.59	2927
4073.164	2936
4074.738	2941
4076.312	2868
4077.885	3017
4079.458	2932
4081.03	2931
4082.602	2955
4084.173	2954
4085.745	2914
4087.315	2926
4088.886	2932
4090.456	2886
4092.026	2924
4093.596	2855
4095.165	2923
4096.734	2907
4098.301	2949
4099.869	2972
4101.437	2887
4103.006	2932
4104.572	2945
4106.139	2952
4107.704	2883
4109.27	2853
4110.837	2902
4112.401	2887
4113.966	2890
4115.53	2831
4117.094	2797
4118.659	2877
4120.223	2832
4121.785	2883
4123.347	2894
4124.909	2874
4126.471	2833
4128.034	2887
4129.595	2824
4131.155	2845
4132.716	2796
4134.275	2779
4135.836	2832
4137.395	2764
4138.955	2786
4140.513	2836
4142.071	2813
4143.628	2756
4145.188	2806
4146.745	2776
4148.302	2842
4149.858	2815
4151.414	2830
4152.971	2758
4154.526	2772
4156.081	2803
4157.635	2695
4159.189	2768
4160.745	2771
4162.298	2749
4163.852	2759
4165.405	2771
4166.957	2791
4168.51	2730
4170.063	2769
4171.614	2728
4173.166	2674
4174.717	2835
4176.267	2691
4177.817	2714
4179.368	2646
4180.917	2754
4182.466	2724
4184.016	2703
4185.564	2703
4187.112	2703
4188.66	2706
4190.207	2737
4191.754	2647
4193.301	2724
4194.848	2778
4196.394	2696
4197.94	2711
4199.484	2701
4201.03	2680
4202.575	2654
4204.12	2650
4205.663	2655
4207.207	2649
4208.75	2726
4210.292	2646
4211.836	2717
4213.378	2703
4214.92	2631
4216.46	2651
4218.002	2669
4219.544	2715
4221.083	2663
4222.625	2683
4224.164	2695
4225.703	2649
4227.244	2659
4228.782	2632
4230.32	2586
4231.857	2678
4233.395	2565
4234.933	2619
4236.471	2680
4238.007	2656
4239.542	2644
4241.078	2667
4242.614	2655
4244.15	2657
4245.685	2619
4247.219	2636
4248.753	2628
4250.287	2587
4251.82	2617
4253.354	2594
4254.887	2602
4256.419	2632
4257.951	2596
4259.483	2631
4261.016	2575
4262.547	2615
4264.078	2571
4265.608	2570
4267.137	2570
4268.668	2562
4270.197	2560
4271.727	2564
4273.254	2581
4274.783	2627
4276.311	2553
4277.84	2572
4279.366	2602
4280.894	2592
4282.42	2566
4283.946	2623
4285.473	2546
4286.998	2582
4288.523	2524
4290.047	2569
4291.572	2611
4293.096	2596
4294.622	2567
4296.144	2532
4297.668	2470
4299.19	2549
4300.713	2514
4302.236	2500
4303.758	2548
4305.279	2503
4306.799	2541
4308.321	2512
4309.842	2496
4311.361	2521
4312.882	2507
4314.401	2462
