400.0961	7065
402.6185	7101
405.1424	7071
407.6635	7144
410.1838	7179
412.7035	7148
415.2225	7179
417.7388	7404
420.2585	7247
422.7754	7451
425.2917	7399
427.8072	7614
430.3221	7430
432.8363	7530
435.3498	7626
437.8626	7452
440.3727	7627
442.8841	7620
445.3969	7575
447.907	7636
450.4142	7464
452.9229	7627
455.4289	7558
457.9362	7548
460.4449	7648
462.9488	7572
465.454	7594
467.9566	7588
470.4604	7631
472.9637	7671
475.4662	7591
477.966	7785
480.4671	7784
482.9656	7754
485.4633	7770
487.9645	7836
490.4608	7859
492.9566	7765
495.4536	8002
497.948	7841
500.4437	7908
502.9387	7839
505.431	7866
507.9226	7906
510.4136	7954
512.9079	7964
515.3975	8121
517.8864	7957
520.3746	7961
522.8622	7902
525.3491	7932
527.8394	7978
530.3249	7951
532.8098	7985
535.2939	7987
537.7774	8066
540.2623	8006
542.7444	8065
545.2259	7987
547.7067	8140
550.1868	8110
552.6683	8148
555.147	7976
557.6231	7961
560.1005	8095
562.5773	8111
565.0534	8032
567.5308	8264
570.0056	8196
572.4776	8302
574.951	8243
577.4237	8336
579.8978	8235
582.3671	8372
584.8378	8305
587.3079	8280
589.7773	8364
592.244	8414
594.714	8434
597.1793	8338
599.6461	8453
602.1121	8435
604.5754	8331
607.0421	8242
609.5042	8361
611.9675	8363
614.4282	8250
616.8902	8521
619.3515	8374
621.8122	8365
624.2702	8273
626.7296	8346
629.1863	8389
631.6423	8264
634.1017	8439
636.5563	8294
639.0104	8403
641.4658	8411
643.9185	8316
646.3725	8410
648.8239	8362
651.2766	8449
653.7266	8430
656.176	8564
658.6247	8408
661.0748	8464
663.5242	8593
665.9709	8504
668.417	8664
670.8624	8485
673.3092	8457
675.7533	8568
678.1968	8540
680.6395	8656
683.0817	8798
685.5251	8689
687.9659	8644
690.4061	8695
692.8456	8629
695.2844	8718
697.7226	8622
700.1621	8714
702.599	8762
705.0332	8775
707.4688	8616
709.9036	8755
712.3399	8857
714.7735	8827
717.2044	8740
719.6367	8861
722.0683	8940
724.4993	8793
726.9296	8924
729.3593	8905
731.7883	8810
734.2147	8897
736.6423	8938
739.0714	9041
741.4958	9009
743.9216	9032
746.3447	9087
748.7691	9093
751.1929	9159
753.616	9217
756.0366	9264
758.4584	9228
760.8776	9145
763.2982	9296
765.718	9358
768.1373	9398
770.5539	9161
772.9698	9287
775.3871	9427
777.8038	9294
780.2178	9336
782.6332	9327
785.0459	9225
787.458	9440
789.8714	9374
792.2842	9239
794.6943	9396
797.1038	9353
799.5127	9312
801.9209	9352
804.3324	9411
806.7393	9359
809.1456	9368
811.5513	9398
813.9562	9375
816.3625	9455
818.7663	9317
821.1693	9651
823.5718	9379
825.9735	9435
828.3746	9419
830.7771	9410
833.177	9533
835.5762	9499
837.9747	9523
840.3727	9394
842.772	9484
845.1666	9623
847.5626	9432
849.958	9560
852.3527	9593
854.7488	9687
857.1403	9541
859.5331	9612
861.9253	9654
864.3168	9521
866.7057	9441
869.098	9672
871.4876	9654
873.8746	9396
876.263	9591
878.6487	9599
881.0378	9516
883.4243	9657
885.8081	9426
888.1933	9578
890.5759	9588
892.9598	9532
895.343	9650
897.7256	9544
900.1057	9553
902.4871	9612
904.8659	9754
907.246	9665
909.6254	9631
912.0023	9590
914.3786	9815
916.7562	9886
919.1331	9872
921.5074	9874
923.8831	9953
926.2562	10101
928.6287	9999
931.0005	10050
933.3757	9968
935.7462	10079
938.1162	10122
940.4855	10051
942.8542	10280
945.2242	10409
947.5916	10323
949.9584	10526
952.3266	10801
954.6921	11012
957.0571	11167
959.4233	11602
961.787	11712
964.15	11695
966.5125	11627
968.8742	11192
971.2354	10770
973.5959	10546
975.9559	10419
978.3151	10316
980.6738	10229
983.0338	10069
985.3912	9995
987.7461	9979
990.1022	10117
992.4578	9916
994.8127	9910
997.1689	9884
999.5207	10008
1001.874	10054
1004.226	9890
1006.576	9914
1008.929	10092
1011.28	9833
1013.628	9897
1015.977	9975
1018.324	10043
1020.674	9866
1023.019	9850
1025.366	9834
1027.713	10010
1030.056	10062
1032.399	10012
1034.746	10052
1037.087	10114
1039.431	10196
1041.771	10017
1044.113	10055
1046.454	10172
1048.793	10149
1051.133	10145
1053.471	10102
1055.807	10094
1058.146	10296
1060.483	10069
1062.818	10190
1065.153	10238
1067.489	10252
1069.822	10342
1072.156	10304
1074.488	10342
1076.82	10277
1079.15	10354
1081.48	10298
1083.814	10248
1086.143	10263
1088.471	10070
1090.799	10108
1093.126	10336
1095.452	10288
1097.78	10237
1100.105	10191
1102.43	10138
1104.754	10141
1107.077	10273
1109.4	10341
1111.722	10302
1114.044	10157
1116.365	10259
1118.685	10156
1121.005	10457
1123.324	10359
1125.643	10304
1127.961	10384
1130.278	10340
1132.595	10292
1134.911	10181
1137.226	10251
1139.541	10132
1141.854	10248
1144.167	10245
1146.482	10404
1148.793	10173
1151.105	10199
1153.414	10195
1155.725	10113
1158.033	10276
1160.344	10322
1162.651	10341
1164.959	10289
1167.265	10325
1169.572	10367
1171.878	10293
1174.184	10246
1176.488	10371
1178.79	10111
1181.094	10334
1183.396	10363
1185.699	10273
1188.001	10342
1190.301	10199
1192.6	10246
1194.9	10228
1197.2	10128
1199.497	10278
1201.794	10379
1204.09	10218
1206.387	10299
1208.684	10353
1210.978	10489
1213.272	10255
1215.565	10275
1217.858	10272
1220.15	10370
1222.443	10279
1224.734	10358
1227.024	10543
1229.313	10335
1231.602	10595
1233.892	10568
1236.18	10600
1238.467	10607
1240.754	10601
1243.04	10634
1245.325	10639
1247.612	10701
1249.896	10692
1252.178	10602
1254.461	10710
1256.743	10630
1259.027	10726
1261.308	10717
1263.587	10614
1265.867	10881
1268.146	10609
1270.425	10597
1272.703	10507
1274.981	10713
1277.256	10767
1279.532	10601
1281.808	10637
1284.083	10527
1286.358	10440
1288.63	10558
1290.904	10570
1293.175	10608
1295.449	10538
1297.719	10519
1299.99	10358
1302.259	10451
1304.529	10494
1306.798	10505
1309.065	10395
1311.333	10328
1313.599	10586
1315.866	10560
1318.131	10381
1320.396	10502
1322.66	10490
1324.925	10609
1327.187	10315
1329.448	10544
1331.711	10534
1333.974	10489
1336.234	10409
1338.493	10488
1340.752	10607
1343.01	10616
1345.269	10377
1347.526	10551
1349.784	10452
1352.04	10527
1354.295	10533
1356.552	10596
1358.806	10426
1361.059	10533
1363.312	10593
1365.564	10437
1367.818	10469
1370.069	10557
1372.318	10539
1374.568	10563
1376.817	10622
1379.066	10648
1381.316	10502
1383.564	10539
1385.809	10574
1388.056	10563
1390.301	10819
1392.549	10655
1394.793	10643
1397.036	10664
1399.279	10792
1401.522	10703
1403.763	10755
1406.007	10787
1408.248	10835
1410.487	10828
1412.727	10799
1414.965	10736
1417.205	10825
1419.442	10816
1421.68	10854
1423.915	10944
1426.152	10761
1428.388	10955
1430.623	10914
1432.857	10994
1435.091	11000
1437.323	10942
1439.556	10910
1441.789	10966
1444.019	10765
1446.25	10970
1448.48	10879
1450.708	11044
1452.938	11015
1455.167	11042
1457.394	10992
1459.62	10949
1461.846	10900
1464.073	11009
1466.299	10968
1468.523	10930
1470.746	10932
1472.969	10800
1475.191	10816
1477.415	10772
1479.636	10729
1481.858	10877
1484.078	10618
1486.298	10634
1488.518	10603
1490.736	10613
1492.954	10504
1495.169	10531
1497.386	10600
1499.602	10655
1501.819	10558
1504.034	10513
1506.248	10632
1508.462	10612
1510.675	10531
1512.888	10586
1515.1	10486
1517.311	10502
1519.522	10535
1521.732	10518
1523.942	10504
1526.151	10629
1528.36	10408
1530.566	10603
1532.773	10553
1534.98	10610
1537.187	10527
1539.392	10538
1541.596	10608
1543.801	10597
1546.005	10660
1548.208	10415
1550.411	10748
1552.612	10771
1554.814	10681
1557.013	10600
1559.212	10585
1561.414	10722
1563.612	10679
1565.811	10872
1568.007	10713
1570.203	10965
1572.403	10680
1574.598	10991
1576.792	10822
1578.988	10775
1581.181	10791
1583.376	10919
1585.568	10949
1587.761	10951
1589.952	10783
1592.143	10778
1594.333	10910
1596.524	10849
1598.715	10869
1600.903	10879
1603.091	10971
1605.278	11151
1607.466	10924
1609.652	10890
1611.838	10861
1614.023	10955
1616.207	10946
1618.391	10911
1620.576	10777
1622.759	10979
1624.941	10890
1627.123	10976
1629.304	10966
1631.484	10919
1633.664	11028
1635.844	11012
1638.022	11020
1640.201	10926
1642.38	11051
1644.556	11071
1646.732	11138
1648.908	10993
1651.084	10847
1653.257	10943
1655.433	11082
1657.607	11024
1659.779	11002
1661.951	10996
1664.122	11063
1666.295	11131
1668.467	10953
1670.635	11162
1672.805	11064
1674.973	11078
1677.142	11116
1679.31	11282
1681.478	11087
1683.644	10923
1685.81	10962
1687.975	11007
1690.142	11104
1692.305	11087
1694.468	11007
1696.632	10976
1698.794	11070
1700.957	10948
1703.119	11086
1705.279	10888
1707.439	11022
1709.598	10806
1711.758	10824
1713.917	10992
1716.075	10993
1718.231	10860
1720.388	10869
1722.543	10825
1724.702	11028
1726.856	10815
1729.01	10884
1731.164	10914
1733.317	11092
1735.471	10805
1737.623	11002
1739.774	11010
1741.925	11031
1744.075	10973
1746.225	10809
1748.376	11067
1750.524	10901
1752.672	10830
1754.82	10803
1756.965	10943
1759.113	10814
1761.259	11017
1763.405	11052
1765.549	10949
1767.694	10623
1769.836	11017
1771.981	10956
1774.123	10890
1776.264	10915
1778.405	11045
1780.546	11147
1782.687	10867
1784.827	11182
1786.966	11017
1789.103	10951
1791.242	10934
1793.381	11024
1795.517	11058
1797.653	11071
1799.788	10935
1801.923	10882
1804.057	11035
1806.193	10981
1808.326	10891
1810.457	10887
1812.59	10997
1814.721	11138
1816.855	10993
1818.984	10999
1821.113	11064
1823.244	10923
1825.372	11099
1827.499	10949
1829.63	10899
1831.756	10904
1833.882	10934
1836.007	10866
1838.132	10910
1840.26	10953
1842.384	10810
1844.507	10878
1846.63	10898
1848.752	10924
1850.875	10922
1852.996	10927
1855.118	10925
1857.238	10807
1859.358	10849
1861.477	10966
1863.597	10819
1865.715	10798
1867.832	10883
1869.948	10870
1872.064	10849
1874.181	10917
1876.297	10901
1878.411	10819
1880.526	11007
1882.639	10885
1884.752	10825
1886.865	10983
1888.977	10946
1891.089	10876
1893.2	10740
1895.308	10787
1897.42	10988
1899.53	10989
1901.639	10921
1903.745	10740
1905.853	11011
1907.962	10952
1910.067	11004
1912.174	10861
1914.278	10964
1916.383	11150
1918.486	10894
1920.592	11097
1922.694	11037
1924.797	10979
1926.898	10999
1929	11028
1931.102	10964
1933.203	10851
1935.301	11079
1937.401	10997
1939.499	10958
1941.598	11010
1943.697	11002
1945.793	10996
1947.888	11003
1949.985	11035
1952.08	11075
1954.176	11021
1956.269	11117
1958.364	11010
1960.457	11015
1962.549	11013
1964.642	11005
1966.733	11015
1968.823	11110
1970.913	11009
1973.005	10904
1975.093	10919
1977.184	10950
1979.271	10963
1981.359	10937
1983.446	10865
1985.532	10979
1987.619	10995
1989.705	10866
1991.789	10880
1993.874	10909
1995.956	10891
1998.041	10926
2000.123	10846
2002.206	10898
2004.287	10874
2006.368	10785
2008.449	10924
2010.529	10853
2012.609	10909
2014.688	10813
2016.766	10831
2018.843	10975
2020.922	10774
2022.999	10794
2025.074	10696
2027.15	10940
2029.225	10878
2031.299	10940
2033.375	10772
2035.447	10991
2037.52	10837
2039.592	10697
2041.664	10702
2043.736	11066
2045.807	10807
2047.876	10911
2049.947	10907
2052.015	10856
2054.086	10864
2056.153	10898
2058.221	10836
2060.288	10855
2062.353	10797
2064.42	10933
2066.486	10872
2068.55	10914
2070.614	10837
2072.678	11043
2074.741	10955
2076.805	10766
2078.866	10839
2080.929	10990
2082.99	10866
2085.049	10764
2087.109	10796
2089.17	10763
2091.228	10754
2093.286	10932
2095.344	10983
2097.4	10815
2099.46	10912
2101.516	11003
2103.572	10803
2105.626	10849
2107.679	10890
2109.735	10802
2111.788	10747
2113.841	10700
2115.894	10887
2117.945	10775
2119.997	10776
2122.049	10783
2124.1	10980
2126.148	10661
2128.197	10914
2130.246	10728
2132.296	10908
2134.342	10779
2136.39	10954
2138.437	10764
2140.483	10894
2142.527	10674
2144.574	10674
2146.619	10905
2148.661	10814
2150.705	10849
2152.747	10794
2154.792	10789
2156.832	10722
2158.874	10759
2160.915	10727
2162.954	10679
2164.995	10649
2167.034	10712
2169.072	10560
2171.111	10803
2173.148	10668
2175.186	10727
2177.223	10532
2179.258	10690
2181.294	10626
2183.328	10691
2185.362	10542
2187.398	10636
2189.431	10550
2191.463	10620
2193.495	10596
2195.528	10517
2197.56	10672
2199.59	10575
2201.62	10625
2203.649	10487
2205.678	10549
2207.708	10513
2209.737	10440
2211.764	10429
2213.791	10399
2215.817	10446
2217.843	10471
2219.87	10610
2221.895	10452
2223.919	10487
2225.942	10607
2227.966	10397
2229.988	10272
2232.012	10430
2234.032	10496
2236.054	10420
2238.074	10563
2240.095	10681
2242.116	10413
2244.135	10346
2246.153	10508
2248.171	10429
2250.188	10453
2252.208	10600
2254.223	10384
2256.239	10467
2258.255	10530
2260.269	10318
2262.283	10486
2264.3	10546
2266.312	10307
2268.325	10528
2270.336	10372
2272.349	10526
2274.362	10572
2276.372	10327
2278.383	10511
2280.392	10349
2282.402	10460
2284.409	10424
2286.418	10453
2288.427	10549
2290.433	10508
2292.441	10329
2294.446	10386
2296.453	10418
2298.459	10439
2300.463	10419
2302.466	10515
2304.471	10367
2306.475	10371
2308.477	10348
2310.478	10466
2312.481	10396
2314.481	10417
2316.481	10350
2318.482	10295
2320.482	10307
2322.48	10376
2324.48	10448
2326.478	10248
2328.476	10310
2330.473	10247
2332.469	10098
2334.465	10306
2336.46	10286
2338.454	10223
2340.45	10426
2342.444	10252
2344.437	10181
2346.43	10361
2348.421	10216
2350.414	10236
2352.405	10129
2354.396	10173
2356.386	10236
2358.376	10128
2360.366	10121
2362.355	10272
2364.343	10323
2366.331	10080
2368.317	10114
2370.304	10298
2372.292	10187
2374.278	10104
2376.262	10258
2378.247	10221
2380.23	10215
2382.216	10136
2384.199	9871
2386.181	10172
2388.163	9995
2390.144	9966
2392.127	10176
2394.107	9964
2396.087	10178
2398.066	10063
2400.046	10129
2402.023	10025
2404.004	10065
2405.981	10123
2407.957	10005
2409.934	10006
2411.91	9971
2413.886	9964
2415.862	9998
2417.836	9920
2419.809	9960
2421.784	10011
2423.756	10172
2425.73	9962
2427.701	10136
2429.672	9905
2431.644	10044
2433.615	10074
2435.586	10104
2437.555	10004
2439.523	10014
2441.491	9923
2443.459	9944
2445.428	9958
2447.395	10038
2449.361	10083
2451.327	9979
2453.292	10009
2455.257	9899
2457.223	9916
2459.187	9962
2461.15	9959
2463.113	9905
2465.076	9836
2467.039	9841
2468.999	9961
2470.96	9905
2472.921	9932
2474.881	9842
2476.841	9953
2478.8	9894
2480.759	9851
2482.717	9816
2484.675	10026
2486.63	9798
2488.589	9833
2490.545	9811
2492.5	9766
2494.455	9931
2496.408	9858
2498.364	9922
2500.318	9758
2502.27	9794
2504.223	9704
2506.174	9862
2508.126	9803
2510.078	9759
2512.03	9835
2513.979	9788
2515.927	9746
2517.877	9762
2519.826	9871
2521.775	9668
2523.722	9748
2525.668	9751
2527.616	9815
2529.561	9912
2531.508	9696
2533.452	9614
2535.398	9553
2537.342	9678
2539.284	9673
2541.229	9686
2543.173	9890
2545.114	9851
2547.055	9762
2548.996	9736
2550.938	9678
2552.878	9779
2554.817	9692
2556.756	9732
2558.695	9747
2560.633	9652
2562.572	9673
2564.509	9644
2566.445	9675
2568.382	9512
2570.317	9629
2572.254	9748
2574.189	9720
2576.123	9479
2578.057	9666
2579.99	9706
2581.923	9631
2583.855	9584
2585.788	9681
2587.719	9606
2589.65	9943
2591.579	9605
2593.511	9676
2595.44	9752
2597.37	9557
2599.297	9681
2601.225	9774
2603.153	9721
2605.08	9613
2607.007	9645
2608.932	9612
2610.858	9658
2612.782	9612
2614.709	9628
2616.632	9633
2618.556	9619
2620.478	9695
2622.401	9613
2624.324	9732
2626.247	9671
2628.167	9675
2630.088	9762
2632.008	9561
2633.928	9504
2635.848	9639
2637.766	9664
2639.684	9675
2641.603	9610
2643.519	9665
2645.437	9752
2647.353	9751
2649.27	9547
2651.184	9762
2653.099	9484
2655.014	9602
2656.928	9641
2658.842	9609
2660.755	9634
2662.667	9678
2664.579	9595
2666.491	9606
2668.402	9636
2670.312	9523
2672.222	9660
2674.132	9578
2676.042	9594
2677.951	9388
2679.859	9524
2681.766	9514
2683.674	9615
2685.582	9502
2687.488	9547
2689.392	9563
2691.298	9458
2693.202	9446
2695.107	9467
2697.012	9442
2698.914	9503
2700.817	9540
2702.72	9485
2704.622	9543
2706.524	9525
2708.425	9466
2710.326	9451
2712.225	9433
2714.125	9413
2716.024	9518
2717.923	9438
2719.822	9397
2721.719	9382
2723.616	9369
2725.512	9524
2727.41	9272
2729.305	9297
2731.201	9439
2733.095	9357
2734.99	9431
2736.884	9421
2738.778	9419
2740.67	9441
2742.562	9457
2744.455	9311
2746.346	9389
2748.238	9423
2750.129	9339
2752.018	9376
2753.907	9404
2755.797	9312
2757.687	9406
2759.575	9299
2761.462	9346
2763.349	9349
2765.237	9435
2767.124	9310
2769.009	9232
2770.894	9332
2772.779	9243
2774.663	9384
2776.547	9202
2778.431	9284
2780.314	9322
2782.197	9354
2784.078	9172
2785.96	9170
2787.842	9212
2789.723	9207
2791.603	9347
2793.483	9330
2795.362	9175
2797.241	9107
2799.121	9163
2800.997	9078
2802.874	9227
2804.751	9210
2806.628	9213
2808.506	9186
2810.38	9152
2812.255	9165
2814.13	9235
2816.003	9174
2817.878	9154
2819.752	9108
2821.623	9187
2823.496	9015
2825.368	9118
2827.238	9245
2829.111	9097
2830.98	9045
2832.851	9184
2834.719	9155
2836.589	9148
2838.458	9244
2840.327	9125
2842.193	9334
2844.061	9091
2845.927	9090
2847.794	9106
2849.66	9215
2851.525	9115
2853.39	9189
2855.254	9123
2857.117	9202
2858.983	9152
2860.845	9220
2862.707	9180
2864.569	9242
2866.431	9215
2868.293	9398
2870.154	9434
2872.013	9411
2873.873	9300
2875.733	9538
2877.592	9603
2879.451	9532
2881.309	9535
2883.166	9517
2885.022	9693
2886.879	9821
2888.736	9550
2890.591	9550
2892.446	9732
2894.301	9473
2896.155	9580
2898.009	9523
2899.863	9662
2901.716	9694
2903.568	9604
2905.419	9672
2907.27	9688
2909.123	9557
2910.973	9707
2912.824	9576
2914.673	9724
2916.521	9686
2918.372	9663
2920.22	9830
2922.067	9956
2923.914	9931
2925.761	10036
2927.607	9970
2929.455	10053
2931.301	10228
2933.144	10050
2934.99	10030
2936.833	10274
2938.678	10234
2940.522	10402
2942.364	10391
2944.207	10285
2946.048	10380
2947.891	10499
2949.731	10466
2951.571	10481
2953.412	10425
2955.25	10345
2957.09	10140
2958.93	10335
2960.767	10218
2962.606	10093
2964.443	10130
2966.279	10045
2968.116	9822
2969.953	10047
2971.788	9809
2973.623	9837
2975.457	9670
2977.292	9677
2979.127	9728
2980.959	9645
2982.792	9637
2984.624	9441
2986.455	9515
2988.288	9463
2990.119	9410
2991.949	9317
2993.779	9533
2995.608	9332
2997.439	9186
2999.268	9283
3001.096	9261
3002.923	9053
3004.751	9199
3006.578	9022
3008.406	9020
3010.232	9059
3012.057	8860
3013.883	8742
3015.706	8742
3017.532	8880
3019.356	8824
3021.179	8704
3023.002	8662
3024.823	8698
3026.646	8753
3028.469	8634
3030.289	8642
3032.11	8598
3033.93	8514
3035.749	8615
3037.57	8695
3039.39	8489
3041.207	8521
3043.026	8634
3044.842	8602
3046.661	8483
3048.477	8576
3050.294	8593
3052.109	8533
3053.925	8572
3055.739	8442
3057.555	8420
3059.368	8574
3061.181	8446
3062.995	8443
3064.807	8604
3066.62	8378
3068.433	8318
3070.243	8458
3072.054	8374
3073.865	8332
3075.675	8454
3077.485	8347
3079.293	8489
3081.102	8445
3082.911	8298
3084.719	8335
3086.527	8359
3088.333	8285
3090.139	8289
3091.945	8310
3093.75	8248
3095.557	8302
3097.361	8266
3099.165	8205
3100.969	8208
3102.772	8387
3104.575	8195
3106.379	8135
3108.181	8031
3109.982	8225
3111.783	8062
3113.584	8186
3115.386	8296
3117.186	8050
3118.985	8065
3120.783	8086
3122.582	8066
3124.381	8198
3126.179	8025
3127.975	8007
3129.772	8142
3131.569	8143
3133.365	8012
3135.161	8109
3136.956	8043
3138.751	8169
3140.544	7984
3142.338	8065
3144.132	8071
3145.925	8118
3147.717	7966
3149.509	8004
3151.301	8083
3153.091	8095
3154.884	7989
3156.673	7989
3158.462	7942
3160.252	8043
3162.041	7873
3163.831	8005
3165.618	7866
3167.405	7934
3169.193	7866
3170.979	7972
3172.767	7815
3174.553	7858
3176.338	7963
3178.123	7883
3179.907	7726
3181.692	7784
3183.477	7939
3185.259	7909
3187.042	7842
3188.824	7788
3190.607	7864
3192.389	7790
3194.17	7967
3195.951	7886
3197.73	7837
3199.51	7806
3201.289	7741
3203.07	7784
3204.848	7908
3206.626	7856
3208.403	7871
3210.18	7731
3211.959	7822
3213.735	7837
3215.511	7821
3217.285	7736
3219.06	7896
3220.836	7787
3222.611	7837
3224.384	7764
3226.158	7769
3227.929	7802
3229.702	7681
3231.476	7939
3233.248	7745
3235.018	7840
3236.789	7534
3238.56	7865
3240.33	7811
3242.1	7773
3243.869	7742
3245.637	7862
3247.405	7790
3249.172	7678
3250.941	7735
3252.707	7768
3254.474	7709
3256.24	7713
3258.006	7587
3259.772	7741
3261.537	7609
3263.301	7758
3265.065	7628
3266.828	7789
3268.592	7702
3270.355	7728
3272.117	7697
3273.878	7607
3275.64	7754
3277.401	7658
3279.162	7630
3280.922	7715
3282.682	7669
3284.441	7835
3286.199	7719
3287.959	7758
3289.716	7664
3291.475	7739
3293.232	7689
3294.988	7767
3296.744	7611
3298.501	7702
3300.256	7657
3302.011	7748
3303.766	7712
3305.52	7642
3307.275	7808
3309.028	7742
3310.781	7612
3312.533	7615
3314.285	7531
3316.038	7652
3317.789	7699
3319.54	7712
3321.289	7469
3323.039	7691
3324.789	7780
3326.539	7659
3328.288	7504
3330.035	7633
3331.783	7511
3333.531	7704
3335.28	7624
3337.025	7506
3338.771	7555
3340.518	7575
3342.262	7451
3344.009	7650
3345.753	7460
3347.497	7522
3349.24	7448
3350.983	7407
3352.726	7548
3354.469	7432
3356.212	7502
3357.952	7501
3359.694	7469
3361.434	7483
3363.176	7455
3364.916	7521
3366.654	7486
3368.394	7485
3370.132	7509
3371.871	7370
3373.61	7382
3375.346	7406
3377.083	7338
3378.82	7396
3380.556	7395
3382.292	7290
3384.027	7386
3385.763	7338
3387.497	7328
3389.231	7390
3390.965	7372
3392.698	7288
3394.431	7249
3396.164	7250
3397.896	7427
3399.627	7423
3401.36	7359
3403.09	7245
3404.82	7256
3406.55	7344
3408.279	7224
3410.01	7223
3411.738	7282
3413.467	7234
3415.194	7236
3416.92	7230
3418.647	7299
3420.375	7073
3422.102	7112
3423.827	7362
3425.553	7118
3427.277	7225
3429.003	7183
3430.727	7063
3432.451	7207
3434.173	7135
3435.896	7122
3437.62	7155
3439.343	7051
3441.063	7136
3442.785	7129
3444.505	7097
3446.226	7129
3447.948	7074
3449.666	7005
3451.386	7116
3453.104	7022
3454.823	7104
3456.541	7127
3458.259	6953
3459.976	7071
3461.693	6875
3463.408	7006
3465.125	7053
3466.841	6918
3468.556	6854
3470.271	6935
3471.985	6960
3473.698	6902
3475.414	6902
3477.126	6935
3478.838	6957
3480.55	6884
3482.263	6904
3483.975	6770
3485.686	6901
3487.396	6852
3489.106	6884
3490.817	6879
3492.526	6750
3494.236	6861
3495.944	6885
3497.652	6803
3499.359	6807
3501.066	6863
3502.775	6734
3504.481	6775
3506.187	6746
3507.893	6672
3509.598	6739
3511.304	6734
3513.009	6708
3514.713	6722
3516.417	6759
3518.12	6804
3519.821	6781
3521.525	6513
3523.228	6754
3524.929	6751
3526.631	6658
3528.33	6731
3530.032	6680
3531.733	6617
3533.433	6808
3535.131	6556
3536.83	6646
3538.529	6637
3540.227	6799
3541.925	6656
3543.623	6496
3545.319	6484
3547.016	6623
3548.712	6598
3550.408	6536
3552.103	6600
3553.798	6571
3555.491	6538
3557.188	6543
3558.88	6409
3560.574	6483
3562.266	6543
3563.959	6608
3565.651	6460
3567.343	6590
3569.035	6457
3570.725	6555
3572.415	6410
3574.106	6435
3575.797	6601
3577.485	6383
3579.174	6434
3580.863	6422
3582.551	6404
3584.238	6409
3585.926	6450
3587.613	6499
3589.3	6508
3590.986	6352
3592.671	6300
3594.357	6487
3596.042	6476
3597.726	6304
3599.41	6467
3601.094	6245
3602.778	6350
3604.461	6271
3606.143	6416
3607.825	6315
3609.507	6291
3611.188	6235
3612.87	6263
3614.551	6277
3616.229	6289
3617.909	6344
3619.589	6257
3621.269	6219
3622.948	6173
3624.625	6270
3626.302	6207
3627.98	6128
3629.657	6148
3631.334	6214
3633.01	6061
3634.686	6105
3636.361	5968
3638.036	6121
3639.712	6103
3641.385	6173
3643.06	6191
3644.732	6059
3646.405	6105
3648.08	6126
3649.751	6082
3651.424	6006
3653.094	6107
3654.766	6082
3656.436	5997
3658.106	5995
3659.777	6064
3661.446	6080
3663.115	6021
3664.783	5965
3666.452	5990
3668.121	6056
3669.788	6053
3671.454	6009
3673.121	6026
3674.789	5958
3676.455	6078
3678.12	5929
3679.784	5962
3681.45	5902
3683.114	5954
3684.779	5927
3686.442	5950
3688.105	6006
3689.768	5897
3691.43	5991
3693.093	5906
3694.754	5886
3696.415	5860
3698.076	5950
3699.736	5951
3701.396	5843
3703.057	5920
3704.716	5840
3706.375	5853
3708.034	5902
3709.692	5869
3711.351	5817
3713.008	5948
3714.665	5886
3716.321	5809
3717.977	5901
3719.634	5824
3721.29	5715
3722.945	5914
3724.598	5653
3726.253	5904
3727.907	5865
3729.561	5750
3731.214	5838
3732.867	5731
3734.518	5790
3736.171	5814
3737.824	5799
3739.474	5779
3741.125	5729
3742.775	5722
3744.425	5836
3746.074	5742
3747.725	5655
3749.373	5760
3751.022	5674
3752.669	5761
3754.318	5739
3755.966	5769
3757.612	5764
3759.259	5728
3760.905	5784
3762.55	5605
3764.197	5657
3765.842	5696
3767.486	5561
3769.131	5714
3770.774	5646
3772.417	5631
3774.061	5646
3775.705	5585
3777.347	5514
3778.988	5549
3780.629	5691
3782.271	5572
3783.912	5655
3785.552	5559
3787.192	5532
3788.831	5555
3790.472	5603
3792.112	5696
3793.75	5602
3795.388	5643
3797.024	5543
3798.661	5606
3800.3	5526
3801.936	5475
3803.572	5474
3805.208	5521
3806.844	5514
3808.48	5439
3810.115	5374
3811.748	5451
3813.382	5529
3815.016	5458
3816.649	5478
3818.283	5519
3819.914	5398
3821.547	5468
3823.178	5437
3824.809	5415
3826.441	5436
3828.072	5350
3829.701	5432
3831.331	5391
3832.96	5356
3834.591	5497
3836.219	5345
3837.847	5437
3839.475	5351
3841.102	5404
3842.729	5383
3844.357	5428
3845.984	5404
3847.609	5450
3849.234	5334
3850.86	5405
3852.485	5254
3854.11	5304
3855.734	5284
3857.357	5306
3858.981	5319
3860.603	5367
3862.227	5364
3863.848	5205
3865.471	5385
3867.092	5332
3868.713	5335
3870.334	5220
3871.954	5320
3873.575	5379
3875.194	5171
3876.813	5233
3878.433	5240
3880.051	5354
3881.669	5202
3883.286	5312
3884.904	5237
3886.52	5259
3888.138	5304
3889.754	5171
3891.37	5231
3892.985	5138
3894.6	5189
3896.216	5284
3897.831	5264
3899.444	5239
3901.058	5179
3902.67	5174
3904.283	5155
3905.897	5323
3907.509	5213
3909.121	5151
3910.731	5109
3912.342	5210
3913.954	5175
3915.563	5083
3917.174	5154
3918.783	5213
3920.391	5191
3922.002	5222
3923.611	5121
3925.218	5124
3926.826	5184
3928.432	5091
3930.039	5193
3931.647	5135
3933.253	5098
3934.859	5098
3936.464	5213
3938.068	5142
3939.675	5137
3941.278	5077
3942.883	5030
3944.486	5034
3946.089	5126
3947.692	5108
3949.295	5034
3950.898	5071
3952.499	5049
3954.1	5109
3955.7	5049
3957.303	5030
3958.903	5031
3960.502	5145
3962.101	4929
3963.7	5065
3965.301	5021
3966.899	5073
3968.497	4971
3970.094	4975
3971.691	4996
3973.288	5053
3974.885	5056
3976.481	4967
3978.077	4962
3979.672	4933
3981.267	4901
3982.863	4780
3984.457	4904
3986.051	4889
3987.645	4931
3989.238	4884
3990.831	5019
3992.425	4907
3994.017	4895
3995.607	4900
3997.199	4839
3998.79	4917
4000.382	4909
4001.973	4799
4003.561	4797
4005.151	4860
4006.741	4845
4008.331	4855
4009.918	4805
4011.507	4971
4013.095	4854
4014.681	4804
4016.269	4732
4017.856	4787
4019.443	4830
4021.028	4670
4022.614	4813
4024.199	4744
4025.785	4788
4027.37	4746
4028.953	4812
4030.536	4712
4032.12	4722
4033.704	4675
4035.287	4748
4036.869	4799
4038.45	4726
4040.032	4674
4041.613	4701
4043.195	4747
4044.776	4699
4046.356	4702
4047.935	4720
4049.515	4662
4051.095	4637
4052.674	4672
4054.251	4627
4055.829	4590
4057.406	4617
4058.985	4649
4060.562	4707
4062.139	4687
4063.715	4612
4065.29	4695
4066.865	4651
4068.442	4577
4070.016	4581
4071.59	4584
4073.164	4693
4074.738	4542
4076.312	4552
4077.885	4544
4079.458	4577
4081.03	4628
4082.602	4609
4084.173	4558
4085.745	4596
4087.315	4504
4088.886	4499
4090.456	4533
4092.026	4483
4093.596	4402
4095.165	4635
4096.734	4561
4098.301	4543
4099.869	4442
4101.437	4462
4103.006	4585
4104.572	4483
4106.139	4555
4107.704	4474
4109.27	4543
4110.837	4482
4112.401	4463
4113.966	4432
4115.53	4534
4117.094	4469
4118.659	4511
4120.223	4439
4121.785	4464
4123.347	4382
4124.909	4398
4126.471	4408
4128.034	4463
4129.595	4404
4131.155	4471
4132.716	4394
4134.275	4411
4135.836	4394
4137.395	4364
4138.955	4378
4140.513	4402
4142.071	4449
4143.628	4274
4145.188	4416
4146.745	4325
4148.302	4341
4149.858	4307
4151.414	4292
4152.971	4379
4154.526	4341
4156.081	4343
4157.635	4234
4159.189	4304
4160.745	4242
4162.298	4270
4163.852	4209
4165.405	4311
4166.957	4221
4168.51	4339
4170.063	4260
4171.614	4291
4173.166	4191
4174.717	4265
4176.267	4263
4177.817	4253
4179.368	4259
4180.917	4240
4182.466	4178
4184.016	4247
4185.564	4249
4187.112	4225
4188.66	4234
4190.207	4195
4191.754	4208
4193.301	4072
4194.848	4196
4196.394	4186
4197.94	4245
4199.484	4085
4201.03	4119
4202.575	4162
4204.12	4110
4205.663	4044
4207.207	4124
4208.75	4058
4210.292	4212
4211.836	4087
4213.378	4085
4214.92	4173
4216.46	4099
4218.002	4101
4219.544	4011
4221.083	4098
4222.625	4142
4224.164	4170
4225.703	4103
4227.244	4109
4228.782	4191
4230.32	4076
4231.857	4020
4233.395	4052
4234.933	4085
4236.471	4019
4238.007	4067
4239.542	4058
4241.078	4068
4242.614	4114
4244.15	4033
4245.685	4006
4247.219	4054
4248.753	4093
4250.287	4010
4251.82	4070
4253.354	4024
4254.887	3967
4256.419	3952
4257.951	4092
4259.483	4025
4261.016	3981
4262.547	3956
4264.078	4044
4265.608	4012
4267.137	3981
4268.668	4077
4270.197	3929
4271.727	3978
4273.254	4004
4274.783	3926
4276.311	3961
4277.84	4031
4279.366	3935
4280.894	3965
4282.42	4011
4283.946	3967
4285.473	3964
4286.998	3922
4288.523	3970
4290.047	3896
4291.572	3871
4293.096	3887
4294.622	3926
4296.144	3888
4297.668	3938
4299.19	3904
4300.713	3868
4302.236	3830
4303.758	3895
4305.279	3857
4306.799	3913
4308.321	3898
4309.842	3913
4311.361	3887
4312.882	3898
4314.401	3929
