400.0961	4924
402.6185	4918
405.1424	4995
407.6635	4904
410.1838	5003
412.7035	4966
415.2225	5075
417.7388	5051
420.2585	5147
422.7754	5201
425.2917	5228
427.8072	5292
430.3221	5365
432.8363	5281
435.3498	5313
437.8626	5331
440.3727	5474
442.8841	5315
445.3969	5446
447.907	5313
450.4142	5287
452.9229	5280
455.4289	5290
457.9362	5272
460.4449	5338
462.9488	5297
465.454	5216
467.9566	5234
470.4604	5183
472.9637	5203
475.4662	5313
477.966	5276
480.4671	5182
482.9656	5266
485.4633	5291
487.9645	5334
490.4608	5311
492.9566	5402
495.4536	5282
497.948	5492
500.4437	5377
502.9387	5353
505.431	5396
507.9226	5405
510.4136	5391
512.9079	5463
515.3975	5423
517.8864	5452
520.3746	5433
522.8622	5390
525.3491	5412
527.8394	5495
530.3249	5389
532.8098	5483
535.2939	5501
537.7774	5482
540.2623	5525
542.7444	5534
545.2259	5479
547.7067	5483
550.1868	5589
552.6683	5383
555.147	5576
557.6231	5479
560.1005	5581
562.5773	5496
565.0534	5529
567.5308	5653
570.0056	5516
572.4776	5618
574.951	5727
577.4237	5583
579.8978	5635
582.3671	5676
584.8378	5723
587.3079	5851
589.7773	5873
592.244	5802
594.714	5706
597.1793	5702
599.6461	5722
602.1121	5661
604.5754	5636
607.0421	5599
609.5042	5651
611.9675	5691
614.4282	5739
616.8902	5710
619.3515	5687
621.8122	5687
624.2702	5616
626.7296	5628
629.1863	5596
631.6423	5664
634.1017	5585
636.5563	5558
639.0104	5645
641.4658	5655
643.9185	5663
646.3725	5680
648.8239	5815
651.2766	5579
653.7266	5666
656.176	5722
658.6247	5717
661.0748	5663
663.5242	5718
665.9709	5735
668.417	5915
670.8624	5882
673.3092	5824
675.7533	5897
678.1968	5813
680.6395	5829
683.0817	5923
685.5251	5775
687.9659	5818
690.4061	5799
692.8456	5803
695.2844	5887
697.7226	5853
700.1621	5914
702.599	5976
705.0332	5769
707.4688	5730
709.9036	6027
712.3399	5863
714.7735	5909
717.2044	5988
719.6367	6031
722.0683	6032
724.4993	5967
726.9296	6044
729.3593	6124
731.7883	6005
734.2147	6106
736.6423	6091
739.0714	6211
741.4958	6056
743.9216	6123
746.3447	6141
748.7691	6318
751.1929	6249
753.616	6363
756.0366	6276
758.4584	6217
760.8776	6228
763.2982	6193
765.718	6290
768.1373	6296
770.5539	6297
772.9698	6309
775.3871	6329
777.8038	6340
780.2178	6358
782.6332	6385
785.0459	6353
787.458	6369
789.8714	6323
792.2842	6352
794.6943	6341
797.1038	6333
799.5127	6252
801.9209	6241
804.3324	6301
806.7393	6376
809.1456	6330
811.5513	6410
813.9562	6380
816.3625	6375
818.7663	6313
821.1693	6500
823.5718	6385
825.9735	6496
828.3746	6370
830.7771	6359
833.177	6363
835.5762	6418
837.9747	6505
840.3727	6429
842.772	6524
845.1666	6540
847.5626	6551
849.958	6616
852.3527	6566
854.7488	6722
857.1403	6708
859.5331	6684
861.9253	6682
864.3168	6480
866.7057	6537
869.098	6548
871.4876	6567
873.8746	6537
876.263	6680
878.6487	6603
881.0378	6481
883.4243	6657
885.8081	6609
888.1933	6591
890.5759	6456
892.9598	6567
895.343	6587
897.7256	6597
900.1057	6540
902.4871	6615
904.8659	6611
907.246	6473
909.6254	6657
912.0023	6678
914.3786	6634
916.7562	6904
919.1331	6909
921.5074	7061
923.8831	7097
926.2562	6931
928.6287	7080
931.0005	6922
933.3757	7012
935.7462	6983
938.1162	7058
940.4855	7143
942.8542	7157
945.2242	7286
947.5916	7428
949.9584	7551
952.3266	7813
954.6921	8069
957.0571	8293
959.4233	8673
961.787	8815
964.15	8607
966.5125	8477
968.8742	7968
971.2354	7667
973.5959	7558
975.9559	7275
978.3151	7125
980.6738	6999
983.0338	6926
985.3912	6959
987.7461	6879
990.1022	6846
992.4578	6774
994.8127	6804
997.1689	6864
999.5207	6857
1001.874	7060
1004.226	6855
1006.576	6772
1008.929	6839
1011.28	6796
1013.628	6810
1015.977	6770
1018.324	6900
1020.674	6818
1023.019	6852
1025.366	6820
1027.713	6926
1030.056	6798
1032.399	6828
1034.746	6995
1037.087	6957
1039.431	6924
1041.771	6884
1044.113	6991
1046.454	6917
1048.793	6981
1051.133	6959
1053.471	6966
1055.807	7048
1058.146	7036
1060.483	7071
1062.818	7094
1065.153	7109
1067.489	7203
1069.822	7214
1072.156	7122
1074.488	7146
1076.82	7100
1079.15	7106
1081.48	7185
1083.814	7044
1086.143	7055
1088.471	7055
1090.799	7025
1093.126	6946
1095.452	6998
1097.78	6957
1100.105	7011
1102.43	7106
1104.754	6987
1107.077	7062
1109.4	6990
1111.722	7042
1114.044	6963
1116.365	7015
1118.685	6883
1121.005	7004
1123.324	7039
1125.643	7069
1127.961	6992
1130.278	6981
1132.595	6921
1134.911	6921
1137.226	6968
1139.541	6971
1141.854	6948
1144.167	6876
1146.482	6980
1148.793	6912
1151.105	6969
1153.414	6999
1155.725	6958
1158.033	7022
1160.344	7013
1162.651	6952
1164.959	6981
1167.265	6960
1169.572	7018
1171.878	6968
1174.184	7155
1176.488	6839
1178.79	7031
1181.094	7005
1183.396	6997
1185.699	6996
1188.001	7050
1190.301	6914
1192.6	6968
1194.9	7015
1197.2	6969
1199.497	6998
1201.794	7018
1204.09	7051
1206.387	7073
1208.684	6970
1210.978	7004
1213.272	7011
1215.565	7035
1217.858	7041
1220.15	7039
1222.443	7147
1224.734	7068
1227.024	7081
1229.313	7092
1231.602	7305
1233.892	7137
1236.18	7158
1238.467	7275
1240.754	7317
1243.04	7291
1245.325	7331
1247.612	7446
1249.896	7297
1252.178	7470
1254.461	7426
1256.743	7353
1259.027	7351
1261.308	7350
1263.587	7375
1265.867	7349
1268.146	7353
1270.425	7407
1272.703	7371
1274.981	7480
1277.256	7486
1279.532	7333
1281.808	7267
1284.083	7239
1286.358	7279
1288.63	7309
1290.904	7295
1293.175	7106
1295.449	7249
1297.719	7159
1299.99	7363
1302.259	7124
1304.529	7191
1306.798	7378
1309.065	7165
1311.333	7265
1313.599	7237
1315.866	7107
1318.131	7061
1320.396	7233
1322.66	7327
1324.925	7245
1327.187	7290
1329.448	7323
1331.711	7305
1333.974	7396
1336.234	7253
1338.493	7290
1340.752	7239
1343.01	7248
1345.269	7228
1347.526	7247
1349.784	7248
1352.04	7029
1354.295	7093
1356.552	7149
1358.806	7161
1361.059	7192
1363.312	7188
1365.564	7128
1367.818	7168
1370.069	7253
1372.318	7252
1374.568	7208
1376.817	7281
1379.066	7238
1381.316	7326
1383.564	7346
1385.809	7255
1388.056	7271
1390.301	7341
1392.549	7368
1394.793	7406
1397.036	7540
1399.279	7585
1401.522	7543
1403.763	7526
1406.007	7516
1408.248	7408
1410.487	7541
1412.727	7427
1414.965	7568
1417.205	7468
1419.442	7599
1421.68	7534
1423.915	7536
1426.152	7461
1428.388	7477
1430.623	7485
1432.857	7602
1435.091	7629
1437.323	7589
1439.556	7571
1441.789	7680
1444.019	7569
1446.25	7657
1448.48	7726
1450.708	7765
1452.938	7734
1455.167	7686
1457.394	7681
1459.62	7749
1461.846	7540
1464.073	7667
1466.299	7521
1468.523	7484
1470.746	7567
1472.969	7537
1475.191	7266
1477.415	7508
1479.636	7362
1481.858	7280
1484.078	7406
1486.298	7319
1488.518	7259
1490.736	7340
1492.954	7220
1495.169	7221
1497.386	7194
1499.602	7275
1501.819	7247
1504.034	7200
1506.248	7167
1508.462	7222
1510.675	7203
1512.888	7181
1515.1	7223
1517.311	7303
1519.522	7280
1521.732	7200
1523.942	7175
1526.151	7187
1528.36	7102
1530.566	7204
1532.773	7068
1534.98	7182
1537.187	7284
1539.392	7186
1541.596	7206
1543.801	7272
1546.005	7320
1548.208	7267
1550.411	7358
1552.612	7230
1554.814	7336
1557.013	7452
1559.212	7218
1561.414	7230
1563.612	7357
1565.811	7325
1568.007	7342
1570.203	7284
1572.403	7316
1574.598	7511
1576.792	7391
1578.988	7400
1581.181	7395
1583.376	7443
1585.568	7400
1587.761	7418
1589.952	7474
1592.143	7509
1594.333	7524
1596.524	7542
1598.715	7438
1600.903	7606
1603.091	7455
1605.278	7468
1607.466	7334
1609.652	7538
1611.838	7475
1614.023	7406
1616.207	7387
1618.391	7482
1620.576	7448
1622.759	7502
1624.941	7392
1627.123	7537
1629.304	7564
1631.484	7580
1633.664	7574
1635.844	7675
1638.022	7786
1640.201	7517
1642.38	7473
1644.556	7584
1646.732	7657
1648.908	7661
1651.084	7608
1653.257	7621
1655.433	7620
1657.607	7460
1659.779	7618
1661.951	7629
1664.122	7649
1666.295	7644
1668.467	7655
1670.635	7749
1672.805	7664
1674.973	7717
1677.142	7682
1679.31	7610
1681.478	7582
1683.644	7785
1685.81	7590
1687.975	7592
1690.142	7607
1692.305	7581
1694.468	7581
1696.632	7464
1698.794	7543
1700.957	7525
1703.119	7542
1705.279	7482
1707.439	7460
1709.598	7537
1711.758	7472
1713.917	7301
1716.075	7460
1718.231	7467
1720.388	7481
1722.543	7481
1724.702	7316
1726.856	7385
1729.01	7451
1731.164	7415
1733.317	7351
1735.471	7407
1737.623	7537
1739.774	7434
1741.925	7453
1744.075	7453
1746.225	7421
1748.376	7367
1750.524	7446
1752.672	7421
1754.82	7356
1756.965	7390
1759.113	7463
1761.259	7457
1763.405	7526
1765.549	7492
1767.694	7446
1769.836	7529
1771.981	7509
1774.123	7337
1776.264	7476
1778.405	7533
1780.546	7536
1782.687	7524
1784.827	7540
1786.966	7495
1789.103	7433
1791.242	7490
1793.381	7345
1795.517	7533
1797.653	7550
1799.788	7417
1801.923	7491
1804.057	7493
1806.193	7469
1808.326	7632
1810.457	7473
1812.59	7465
1814.721	7484
1816.855	7578
1818.984	7488
1821.113	7521
1823.244	7407
1825.372	7498
1827.499	7531
1829.63	7413
1831.756	7318
1833.882	7439
1836.007	7345
1838.132	7422
1840.26	7406
1842.384	7352
1844.507	7510
1846.63	7405
1848.752	7541
1850.875	7362
1852.996	7627
1855.118	7339
1857.238	7425
1859.358	7449
1861.477	7346
1863.597	7312
1865.715	7395
1867.832	7381
1869.948	7376
1872.064	7332
1874.181	7349
1876.297	7404
1878.411	7535
1880.526	7460
1882.639	7387
1884.752	7403
1886.865	7401
1888.977	7371
1891.089	7423
1893.2	7443
1895.308	7392
1897.42	7509
1899.53	7503
1901.639	7482
1903.745	7481
1905.853	7502
1907.962	7496
1910.067	7342
1912.174	7515
1914.278	7534
1916.383	7499
1918.486	7479
1920.592	7424
1922.694	7488
1924.797	7541
1926.898	7587
1929	7556
1931.102	7476
1933.203	7577
1935.301	7499
1937.401	7502
1939.499	7561
1941.598	7625
1943.697	7527
1945.793	7526
1947.888	7609
1949.985	7505
1952.08	7476
1954.176	7550
1956.269	7577
1958.364	7521
1960.457	7531
1962.549	7425
1964.642	7435
1966.733	7564
1968.823	7503
1970.913	7490
1973.005	7476
1975.093	7489
1977.184	7505
1979.271	7543
1981.359	7541
1983.446	7405
1985.532	7516
1987.619	7470
1989.705	7673
1991.789	7397
1993.874	7490
1995.956	7464
1998.041	7458
2000.123	7328
2002.206	7481
2004.287	7412
2006.368	7424
2008.449	7337
2010.529	7458
2012.609	7400
2014.688	7492
2016.766	7458
2018.843	7423
2020.922	7439
2022.999	7438
2025.074	7372
2027.15	7532
2029.225	7297
2031.299	7426
2033.375	7473
2035.447	7388
2037.52	7437
2039.592	7370
2041.664	7395
2043.736	7379
2045.807	7386
2047.876	7403
2049.947	7423
2052.015	7384
2054.086	7316
2056.153	7486
2058.221	7446
2060.288	7430
2062.353	7315
2064.42	7301
2066.486	7444
2068.55	7489
2070.614	7450
2072.678	7409
2074.741	7492
2076.805	7467
2078.866	7410
2080.929	7377
2082.99	7447
2085.049	7531
2087.109	7442
2089.17	7471
2091.228	7420
2093.286	7430
2095.344	7479
2097.4	7418
2099.46	7438
2101.516	7424
2103.572	7494
2105.626	7295
2107.679	7420
2109.735	7500
2111.788	7407
2113.841	7347
2115.894	7428
2117.945	7366
2119.997	7472
2122.049	7389
2124.1	7391
2126.148	7418
2128.197	7298
2130.246	7453
2132.296	7305
2134.342	7388
2136.39	7367
2138.437	7438
2140.483	7338
2142.527	7333
2144.574	7456
2146.619	7329
2148.661	7370
2150.705	7263
2152.747	7375
2154.792	7358
2156.832	7401
2158.874	7380
2160.915	7344
2162.954	7275
2164.995	7309
2167.034	7425
2169.072	7349
2171.111	7471
2173.148	7425
2175.186	7426
2177.223	7347
2179.258	7248
2181.294	7372
2183.328	7253
2185.362	7325
2187.398	7245
2189.431	7279
2191.463	7377
2193.495	7308
2195.528	7240
2197.56	7364
2199.59	7292
2201.62	7231
2203.649	7246
2205.678	7137
2207.708	7192
2209.737	7210
2211.764	7340
2213.791	7196
2215.817	7277
2217.843	7163
2219.87	7226
2221.895	7196
2223.919	7151
2225.942	7160
2227.966	7223
2229.988	7146
2232.012	7246
2234.032	7317
2236.054	7174
2238.074	7200
2240.095	7161
2242.116	7100
2244.135	7262
2246.153	7292
2248.171	7218
2250.188	7211
2252.208	7187
2254.223	7181
2256.239	7138
2258.255	7183
2260.269	7102
2262.283	7278
2264.3	7107
2266.312	7246
2268.325	7234
2270.336	7172
2272.349	7281
2274.362	7062
2276.372	7269
2278.383	7104
2280.392	7061
2282.402	7246
2284.409	7133
2286.418	7108
2288.427	7255
2290.433	7128
2292.441	7100
2294.446	7108
2296.453	7059
2298.459	7137
2300.463	7093
2302.466	7059
2304.471	7109
2306.475	7232
2308.477	7095
2310.478	7059
2312.481	7289
2314.481	7138
2316.481	7229
2318.482	7065
2320.482	7192
2322.48	7167
2324.48	7164
2326.478	7091
2328.476	7123
2330.473	7023
2332.469	7013
2334.465	7161
2336.46	7232
2338.454	7046
2340.45	7022
2342.444	7010
2344.437	6866
2346.43	7067
2348.421	7152
2350.414	7012
2352.405	7083
2354.396	7038
2356.386	6985
2358.376	7003
2360.366	6948
2362.355	7010
2364.343	7137
2366.331	6989
2368.317	7057
2370.304	6893
2372.292	7016
2374.278	7026
2376.262	7016
2378.247	6888
2380.23	6887
2382.216	6964
2384.199	6950
2386.181	7077
2388.163	6967
2390.144	6864
2392.127	6913
2394.107	6908
2396.087	6914
2398.066	6842
2400.046	6896
2402.023	6870
2404.004	6859
2405.981	6870
2407.957	6876
2409.934	6836
2411.91	6812
2413.886	6842
2415.862	6856
2417.836	6847
2419.809	6852
2421.784	6875
2423.756	6865
2425.73	6851
2427.701	6842
2429.672	6990
2431.644	6963
2433.615	6893
2435.586	6752
2437.555	6916
2439.523	6931
2441.491	6879
2443.459	6938
2445.428	6839
2447.395	6837
2449.361	6890
2451.327	6887
2453.292	6814
2455.257	6873
2457.223	6838
2459.187	6870
2461.15	6925
2463.113	6883
2465.076	6822
2467.039	6837
2468.999	6818
2470.96	6806
2472.921	6810
2474.881	6875
2476.841	6794
2478.8	6818
2480.759	6752
2482.717	6638
2484.675	6664
2486.63	6709
2488.589	6798
2490.545	6798
2492.5	6789
2494.455	6816
2496.408	6662
2498.364	6767
2500.318	6679
2502.27	6817
2504.223	6770
2506.174	6854
2508.126	6754
2510.078	6793
2512.03	6783
2513.979	6852
2515.927	6708
2517.877	6780
2519.826	6805
2521.775	6798
2523.722	6690
2525.668	6772
2527.616	6715
2529.561	6683
2531.508	6695
2533.452	6829
2535.398	6685
2537.342	6816
2539.284	6703
2541.229	6681
2543.173	6783
2545.114	6704
2547.055	6790
2548.996	6719
2550.938	6629
2552.878	6683
2554.817	6807
2556.756	6793
2558.695	6667
2560.633	6694
2562.572	6793
2564.509	6749
2566.445	6742
2568.382	6636
2570.317	6756
2572.254	6647
2574.189	6772
2576.123	6596
2578.057	6694
2579.99	6748
2581.923	6772
2583.855	6733
2585.788	6805
2587.719	6671
2589.65	6704
2591.579	6778
2593.511	6655
2595.44	6616
2597.37	6583
2599.297	6747
2601.225	6670
2603.153	6605
2605.08	6529
2607.007	6714
2608.932	6750
2610.858	6730
2612.782	6754
2614.709	6776
2616.632	6746
2618.556	6686
2620.478	6854
2622.401	6730
2624.324	6695
2626.247	6658
2628.167	6748
2630.088	6644
2632.008	6692
2633.928	6663
2635.848	6619
2637.766	6749
2639.684	6663
2641.603	6599
2643.519	6585
2645.437	6713
2647.353	6621
2649.27	6629
2651.184	6615
2653.099	6685
2655.014	6688
2656.928	6665
2658.842	6628
2660.755	6650
2662.667	6732
2664.579	6641
2666.491	6821
2668.402	6747
2670.312	6591
2672.222	6659
2674.132	6731
2676.042	6630
2677.951	6591
2679.859	6738
2681.766	6643
2683.674	6630
2685.582	6620
2687.488	6627
2689.392	6749
2691.298	6744
2693.202	6579
2695.107	6581
2697.012	6592
2698.914	6536
2700.817	6702
2702.72	6554
2704.622	6572
2706.524	6548
2708.425	6571
2710.326	6708
2712.225	6628
2714.125	6579
2716.024	6557
2717.923	6551
2719.822	6589
2721.719	6459
2723.616	6645
2725.512	6482
2727.41	6383
2729.305	6577
2731.201	6573
2733.095	6553
2734.99	6604
2736.884	6484
2738.778	6577
2740.67	6592
2742.562	6534
2744.455	6470
2746.346	6529
2748.238	6497
2750.129	6482
2752.018	6450
2753.907	6447
2755.797	6350
2757.687	6668
2759.575	6479
2761.462	6490
2763.349	6435
2765.237	6399
2767.124	6477
2769.009	6369
2770.894	6605
2772.779	6608
2774.663	6580
2776.547	6552
2778.431	6451
2780.314	6654
2782.197	6435
2784.078	6577
2785.96	6514
2787.842	6551
2789.723	6424
2791.603	6561
2793.483	6462
2795.362	6420
2797.241	6456
2799.121	6378
2800.997	6388
2802.874	6495
2804.751	6479
2806.628	6463
2808.506	6498
2810.38	6502
2812.255	6524
2814.13	6494
2816.003	6327
2817.878	6493
2819.752	6414
2821.623	6598
2823.496	6367
2825.368	6375
2827.238	6515
2829.111	6427
2830.98	6448
2832.851	6507
2834.719	6452
2836.589	6428
2838.458	6455
2840.327	6529
2842.193	6531
2844.061	6565
2845.927	6491
2847.794	6441
2849.66	6527
2851.525	6562
2853.39	6712
2855.254	6685
2857.117	6582
2858.983	6662
2860.845	6574
2862.707	6709
2864.569	6735
2866.431	6847
2868.293	6741
2870.154	6861
2872.013	6929
2873.873	6861
2875.733	6903
2877.592	7036
2879.451	7158
2881.309	7220
2883.166	7192
2885.022	7254
2886.879	7334
2888.736	7240
2890.591	7306
2892.446	7492
2894.301	7316
2896.155	7407
2898.009	7369
2899.863	7311
2901.716	7180
2903.568	7280
2905.419	7183
2907.27	7246
2909.123	7329
2910.973	7234
2912.824	7457
2914.673	7344
2916.521	7434
2918.372	7474
2920.22	7741
2922.067	7610
2923.914	7780
2925.761	7917
2927.607	7807
2929.455	7853
2931.301	7961
2933.144	7969
2934.99	8020
2936.833	8103
2938.678	8283
2940.522	8240
2942.364	8404
2944.207	8415
2946.048	8457
2947.891	8562
2949.731	8635
2951.571	8614
2953.412	8692
2955.25	8370
2957.09	8363
2958.93	8342
2960.767	8332
2962.606	8217
2964.443	8065
2966.279	8051
2968.116	7847
2969.953	7907
2971.788	7763
2973.623	7641
2975.457	7745
2977.292	7389
2979.127	7505
2980.959	7490
2982.792	7421
2984.624	7266
2986.455	7194
2988.288	7238
2990.119	7125
2991.949	7093
2993.779	6938
2995.608	6952
2997.439	7050
2999.268	6865
3001.096	6868
3002.923	6845
3004.751	6770
3006.578	6750
3008.406	6587
3010.232	6622
3012.057	6421
3013.883	6446
3015.706	6437
3017.532	6362
3019.356	6329
3021.179	6334
3023.002	6323
3024.823	6184
3026.646	6268
3028.469	6176
3030.289	6221
3032.11	6228
3033.93	6215
3035.749	6220
3037.57	6183
3039.39	6188
3041.207	6087
3043.026	6199
3044.842	6231
3046.661	6165
3048.477	6150
3050.294	6159
3052.109	6152
3053.925	6079
3055.739	6073
3057.555	5997
3059.368	6179
3061.181	6113
3062.995	6103
3064.807	6082
3066.62	6193
3068.433	6013
3070.243	6092
3072.054	6090
3073.865	6011
3075.675	6079
3077.485	6070
3079.293	6003
3081.102	6077
3082.911	6031
3084.719	6016
3086.527	5928
3088.333	6027
3090.139	5959
3091.945	5925
3093.75	5956
3095.557	5872
3097.361	5839
3099.165	5955
3100.969	5764
3102.772	5874
3104.575	5908
3106.379	5902
3108.181	5920
3109.982	5905
3111.783	5751
3113.584	5994
3115.386	5772
3117.186	5780
3118.985	5797
3120.783	5911
3122.582	5759
3124.381	5732
3126.179	5723
3127.975	5755
3129.772	5741
3131.569	5796
3133.365	5696
3135.161	5878
3136.956	5769
3138.751	5762
3140.544	5673
3142.338	5759
3144.132	5794
3145.925	5844
3147.717	5728
3149.509	5759
3151.301	5778
3153.091	5706
3154.884	5709
3156.673	5757
3158.462	5605
3160.252	5763
3162.041	5689
3163.831	5706
3165.618	5707
3167.405	5807
3169.193	5766
3170.979	5632
3172.767	5556
3174.553	5681
3176.338	5669
3178.123	5662
3179.907	5593
3181.692	5656
3183.477	5675
3185.259	5664
3187.042	5794
3188.824	5644
3190.607	5625
3192.389	5670
3194.17	5634
3195.951	5645
3197.73	5640
3199.51	5664
3201.289	5718
3203.07	5704
3204.848	5672
3206.626	5664
3208.403	5642
3210.18	5686
3211.959	5645
3213.735	5696
3215.511	5711
3217.285	5651
3219.06	5615
3220.836	5740
3222.611	5577
3224.384	5504
3226.158	5634
3227.929	5614
3229.702	5683
3231.476	5579
3233.248	5584
3235.018	5619
3236.789	5817
3238.56	5668
3240.33	5724
3242.1	5635
3243.869	5611
3245.637	5655
3247.405	5587
3249.172	5709
3250.941	5659
3252.707	5629
3254.474	5650
3256.24	5554
3258.006	5624
3259.772	5622
3261.537	5546
3263.301	5741
3265.065	5624
3266.828	5598
3268.592	5710
3270.355	5652
3272.117	5651
3273.878	5617
3275.64	5680
3277.401	5653
3279.162	5599
3280.922	5770
3282.682	5676
3284.441	5644
3286.199	5735
3287.959	5632
3289.716	5533
3291.475	5642
3293.232	5590
3294.988	5701
3296.744	5586
3298.501	5647
3300.256	5622
3302.011	5623
3303.766	5746
3305.52	5521
3307.275	5574
3309.028	5559
3310.781	5643
3312.533	5618
3314.285	5604
3316.038	5561
3317.789	5678
3319.54	5555
3321.289	5647
3323.039	5593
3324.789	5559
3326.539	5653
3328.288	5562
3330.035	5644
3331.783	5583
3333.531	5524
3335.28	5604
3337.025	5534
3338.771	5609
3340.518	5652
3342.262	5607
3344.009	5549
3345.753	5548
3347.497	5491
3349.24	5538
3350.983	5497
3352.726	5592
3354.469	5565
3356.212	5594
3357.952	5512
3359.694	5478
3361.434	5368
3363.176	5391
3364.916	5545
3366.654	5466
3368.394	5433
3370.132	5576
3371.871	5438
3373.61	5422
3375.346	5359
3377.083	5565
3378.82	5355
3380.556	5406
3382.292	5433
3384.027	5421
3385.763	5428
3387.497	5403
3389.231	5424
3390.965	5495
3392.698	5309
3394.431	5392
3396.164	5428
3397.896	5379
3399.627	5404
3401.36	5397
3403.09	5440
3404.82	5279
3406.55	5317
3408.279	5354
3410.01	5345
3411.738	5333
3413.467	5217
3415.194	5273
3416.92	5417
3418.647	5295
3420.375	5326
3422.102	5306
3423.827	5335
3425.553	5290
3427.277	5426
3429.003	5282
3430.727	5238
3432.451	5270
3434.173	5382
3435.896	5275
3437.62	5188
3439.343	5240
3441.063	5222
3442.785	5080
3444.505	5259
3446.226	5087
3447.948	5235
3449.666	5211
3451.386	5198
3453.104	5117
3454.823	5151
3456.541	5059
3458.259	5138
3459.976	5041
3461.693	5123
3463.408	5151
3465.125	4978
3466.841	5027
3468.556	5089
3470.271	5120
3471.985	5120
3473.698	5007
3475.414	5037
3477.126	4922
3478.838	5060
3480.55	4990
3482.263	5039
3483.975	5074
3485.686	5048
3487.396	4992
3489.106	4976
3490.817	5018
3492.526	4989
3494.236	4940
3495.944	4994
3497.652	5027
3499.359	4968
3501.066	4945
3502.775	4894
3504.481	4906
3506.187	4911
3507.893	5030
3509.598	4894
3511.304	4881
3513.009	4773
3514.713	4848
3516.417	4815
3518.12	4800
3519.821	4854
3521.525	4861
3523.228	4955
3524.929	4871
3526.631	4878
3528.33	4829
3530.032	4830
3531.733	4847
3533.433	4797
3535.131	4792
3536.83	4828
3538.529	4863
3540.227	4866
3541.925	4794
3543.623	4718
3545.319	4810
3547.016	4793
3548.712	4719
3550.408	4748
3552.103	4796
3553.798	4851
3555.491	4834
3557.188	4719
3558.88	4763
3560.574	4679
3562.266	4731
3563.959	4685
3565.651	4697
3567.343	4700
3569.035	4688
3570.725	4789
3572.415	4624
3574.106	4696
3575.797	4665
3577.485	4753
3579.174	4607
3580.863	4603
3582.551	4705
3584.238	4636
3585.926	4677
3587.613	4726
3589.3	4618
3590.986	4689
3592.671	4635
3594.357	4579
3596.042	4594
3597.726	4563
3599.41	4632
3601.094	4491
3602.778	4587
3604.461	4682
3606.143	4587
3607.825	4530
3609.507	4542
3611.188	4529
3612.87	4477
3614.551	4416
3616.229	4519
3617.909	4493
3619.589	4465
3621.269	4481
3622.948	4430
3624.625	4491
3626.302	4497
3627.98	4456
3629.657	4407
3631.334	4406
3633.01	4335
3634.686	4480
3636.361	4425
3638.036	4420
3639.712	4425
3641.385	4339
3643.06	4325
3644.732	4371
3646.405	4300
3648.08	4343
3649.751	4330
3651.424	4340
3653.094	4368
3654.766	4407
3656.436	4323
3658.106	4316
3659.777	4317
3661.446	4378
3663.115	4336
3664.783	4200
3666.452	4294
3668.121	4305
3669.788	4370
3671.454	4240
3673.121	4279
3674.789	4232
3676.455	4228
3678.12	4292
3679.784	4204
3681.45	4175
3683.114	4336
3684.779	4146
3686.442	4240
3688.105	4163
3689.768	4258
3691.43	4261
3693.093	4158
3694.754	4194
3696.415	4186
3698.076	4173
3699.736	4195
3701.396	4173
3703.057	4272
3704.716	4170
3706.375	4174
3708.034	4140
3709.692	4148
3711.351	4207
3713.008	4194
3714.665	4174
3716.321	4193
3717.977	4142
3719.634	4211
3721.29	4073
3722.945	4125
3724.598	4141
3726.253	4192
3727.907	4143
3729.561	4136
3731.214	4108
3732.867	4005
3734.518	4115
3736.171	4079
3737.824	4149
3739.474	4122
3741.125	4120
3742.775	4122
3744.425	4101
3746.074	4077
3747.725	4148
3749.373	4146
3751.022	4093
3752.669	4108
3754.318	4069
3755.966	4038
3757.612	4070
3759.259	4045
3760.905	4038
3762.55	4023
3764.197	4101
3765.842	4042
3767.486	3996
3769.131	3976
3770.774	4063
3772.417	4016
3774.061	3939
3775.705	4019
3777.347	4001
3778.988	3986
3780.629	3991
3782.271	3991
3783.912	3941
3785.552	3972
3787.192	4049
3788.831	3975
3790.472	3916
3792.112	3980
3793.75	3962
3795.388	3906
3797.024	3964
3798.661	3967
3800.3	3939
3801.936	3953
3803.572	3944
3805.208	3901
3806.844	3968
3808.48	3949
3810.115	3950
3811.748	3855
3813.382	3970
3815.016	3906
3816.649	3908
3818.283	3941
3819.914	3800
3821.547	3838
3823.178	3900
3824.809	3944
3826.441	3923
3828.072	3834
3829.701	3890
3831.331	3909
3832.96	3912
3834.591	3807
3836.219	3857
3837.847	3820
3839.475	3908
3841.102	3770
3842.729	3929
3844.357	3888
3845.984	3873
3847.609	3896
3849.234	3845
3850.86	3821
3852.485	3834
3854.11	3836
3855.734	3841
3857.357	3764
3858.981	3812
3860.603	3733
3862.227	3841
3863.848	3809
3865.471	3825
3867.092	3796
3868.713	3767
3870.334	3828
3871.954	3833
3873.575	3821
3875.194	3791
3876.813	3723
3878.433	3794
3880.051	3726
3881.669	3762
3883.286	3802
3884.904	3782
3886.52	3799
3888.138	3749
3889.754	3766
3891.37	3757
3892.985	3761
3894.6	3705
3896.216	3697
3897.831	3643
3899.444	3694
3901.058	3726
3902.67	3717
3904.283	3755
3905.897	3652
3907.509	3733
3909.121	3689
3910.731	3696
3912.342	3711
3913.954	3699
3915.563	3670
3917.174	3676
3918.783	3705
3920.391	3655
3922.002	3725
3923.611	3752
3925.218	3714
3926.826	3671
3928.432	3666
3930.039	3694
3931.647	3680
3933.253	3659
3934.859	3689
3936.464	3664
3938.068	3699
3939.675	3715
3941.278	3555
3942.883	3667
3944.486	3668
3946.089	3655
3947.692	3636
3949.295	3611
3950.898	3670
3952.499	3626
3954.1	3584
3955.7	3657
3957.303	3589
3958.903	3527
3960.502	3650
3962.101	3598
3963.7	3482
3965.301	3604
3966.899	3537
3968.497	3672
3970.094	3571
3971.691	3526
3973.288	3587
3974.885	3598
3976.481	3496
3978.077	3546
3979.672	3566
3981.267	3479
3982.863	3568
3984.457	3483
3986.051	3483
3987.645	3513
3989.238	3542
3990.831	3508
3992.425	3520
3994.017	3472
3995.607	3477
3997.199	3534
3998.79	3513
4000.382	3492
4001.973	3411
4003.561	3373
4005.151	3394
4006.741	3471
4008.331	3505
4009.918	3421
4011.507	3427
4013.095	3502
4014.681	3411
4016.269	3448
4017.856	3435
4019.443	3405
4021.028	3338
4022.614	3482
4024.199	3483
4025.785	3381
4027.37	3420
4028.953	3471
4030.536	3392
4032.12	3340
4033.704	3397
4035.287	3372
4036.869	3455
4038.45	3365
4040.032	3372
4041.613	3359
4043.195	3405
4044.776	3358
4046.356	3338
4047.935	3332
4049.515	3352
4051.095	3311
4052.674	3336
4054.251	3416
4055.829	3370
4057.406	3402
4058.985	3353
4060.562	3278
4062.139	3308
4063.715	3326
4065.29	3264
4066.865	3324
4068.442	3277
4070.016	3351
4071.59	3352
4073.164	3279
4074.738	3334
4076.312	3318
4077.885	3304
4079.458	3325
4081.03	3281
4082.602	3293
4084.173	3343
4085.745	3308
4087.315	3266
4088.886	3332
4090.456	3299
4092.026	3280
4093.596	3280
4095.165	3270
4096.734	3307
4098.301	3303
4099.869	3286
4101.437	3198
4103.006	3253
4104.572	3248
4106.139	3242
4107.704	3268
4109.27	3205
4110.837	3245
4112.401	3261
4113.966	3223
4115.53	3189
4117.094	3191
4118.659	3219
4120.223	3182
4121.785	3227
4123.347	3163
4124.909	3259
4126.471	3242
4128.034	3156
4129.595	3132
4131.155	3224
4132.716	3135
4134.275	3084
4135.836	3184
4137.395	3225
4138.955	3117
4140.513	3125
4142.071	3158
4143.628	3070
4145.188	3206
4146.745	3141
4148.302	3145
4149.858	3157
4151.414	3122
4152.971	3161
4154.526	3041
4156.081	3138
4157.635	3106
4159.189	3073
4160.745	3088
4162.298	3044
4163.852	3131
4165.405	3145
4166.957	3094
4168.51	3143
4170.063	2991
4171.614	3079
4173.166	3108
4174.717	3074
4176.267	3043
4177.817	3034
4179.368	2985
4180.917	3039
4182.466	3017
4184.016	3019
4185.564	3069
4187.112	3044
4188.66	3001
4190.207	3081
4191.754	2967
4193.301	3080
4194.848	2996
4196.394	2991
4197.94	3033
4199.484	3039
4201.03	3053
4202.575	3068
4204.12	3027
4205.663	3014
4207.207	2938
4208.75	2987
4210.292	3023
4211.836	2976
4213.378	3015
4214.92	3007
4216.46	2959
4218.002	2977
4219.544	3003
4221.083	2997
4222.625	2985
4224.164	3049
4225.703	3036
4227.244	3030
4228.782	2951
4230.32	2934
4231.857	2945
4233.395	2841
4234.933	3036
4236.471	2987
4238.007	2989
4239.542	2976
4241.078	2888
4242.614	2947
4244.15	2916
4245.685	2921
4247.219	2918
4248.753	2878
4250.287	2870
4251.82	2967
4253.354	2982
4254.887	2935
4256.419	2955
4257.951	2915
4259.483	2961
4261.016	2892
4262.547	2898
4264.078	2860
4265.608	2902
4267.137	2907
4268.668	2791
4270.197	2927
4271.727	2859
4273.254	2899
4274.783	2878
4276.311	2870
4277.84	2844
4279.366	2824
4280.894	2930
4282.42	2900
4283.946	2789
4285.473	2865
4286.998	2878
4288.523	2862
4290.047	2811
4291.572	2870
4293.096	2793
4294.622	2830
4296.144	2806
4297.668	2803
4299.19	2859
4300.713	2806
4302.236	2776
4303.758	2782
4305.279	2800
4306.799	2757
4308.321	2869
4309.842	2819
4311.361	2904
4312.882	2772
4314.401	2777
