400.0961	4886
402.6185	5000
405.1424	4973
407.6635	4976
410.1838	5012
412.7035	4982
415.2225	4993
417.7388	5104
420.2585	5198
422.7754	5197
425.2917	5123
427.8072	5286
430.3221	5201
432.8363	5219
435.3498	5343
437.8626	5303
440.3727	5294
442.8841	5316
445.3969	5237
447.907	5309
450.4142	5251
452.9229	5358
455.4289	5252
457.9362	5258
460.4449	5359
462.9488	5303
465.454	5391
467.9566	5262
470.4604	5239
472.9637	5279
475.4662	5375
477.966	5363
480.4671	5291
482.9656	5336
485.4633	5277
487.9645	5481
490.4608	5320
492.9566	5373
495.4536	5428
497.948	5377
500.4437	5499
502.9387	5417
505.431	5535
507.9226	5446
510.4136	5587
512.9079	5499
515.3975	5420
517.8864	5616
520.3746	5457
522.8622	5454
525.3491	5468
527.8394	5558
530.3249	5476
532.8098	5477
535.2939	5601
537.7774	5557
540.2623	5551
542.7444	5608
545.2259	5576
547.7067	5560
550.1868	5607
552.6683	5469
555.147	5476
557.6231	5595
560.1005	5608
562.5773	5669
565.0534	5614
567.5308	5748
570.0056	5732
572.4776	5626
574.951	5761
577.4237	5765
579.8978	5756
582.3671	5844
584.8378	5751
587.3079	5757
589.7773	5776
592.244	5792
594.714	5692
597.1793	5779
599.6461	5771
602.1121	5756
604.5754	5797
607.0421	5750
609.5042	5742
611.9675	5722
614.4282	5750
616.8902	5746
619.3515	5725
621.8122	5745
624.2702	5740
626.7296	5640
629.1863	5697
631.6423	5696
634.1017	5673
636.5563	5662
639.0104	5698
641.4658	5727
643.9185	5803
646.3725	5786
648.8239	5793
651.2766	5860
653.7266	5759
656.176	5813
658.6247	5763
661.0748	5706
663.5242	5909
665.9709	5720
668.417	5953
670.8624	5879
673.3092	5897
675.7533	5971
678.1968	5905
680.6395	5814
683.0817	5911
685.5251	5963
687.9659	6084
690.4061	5958
692.8456	6016
695.2844	5919
697.7226	6034
700.1621	6002
702.599	5895
705.0332	5988
707.4688	5932
709.9036	6023
712.3399	6071
714.7735	6003
717.2044	6131
719.6367	6133
722.0683	6102
724.4993	6109
726.9296	6184
729.3593	6119
731.7883	6139
734.2147	6129
736.6423	6191
739.0714	6238
741.4958	6240
743.9216	6294
746.3447	6289
748.7691	6217
751.1929	6349
753.616	6319
756.0366	6347
758.4584	6369
760.8776	6303
763.2982	6424
765.718	6372
768.1373	6344
770.5539	6353
772.9698	6504
775.3871	6326
777.8038	6375
780.2178	6385
782.6332	6342
785.0459	6416
787.458	6431
789.8714	6329
792.2842	6282
794.6943	6410
797.1038	6387
799.5127	6358
801.9209	6331
804.3324	6484
806.7393	6361
809.1456	6365
811.5513	6442
813.9562	6437
816.3625	6504
818.7663	6492
821.1693	6514
823.5718	6467
825.9735	6521
828.3746	6462
830.7771	6476
833.177	6618
835.5762	6563
837.9747	6604
840.3727	6638
842.772	6622
845.1666	6589
847.5626	6582
849.958	6593
852.3527	6791
854.7488	6672
857.1403	6735
859.5331	6676
861.9253	6705
864.3168	6551
866.7057	6633
869.098	6738
871.4876	6738
873.8746	6490
876.263	6698
878.6487	6622
881.0378	6555
883.4243	6621
885.8081	6700
888.1933	6662
890.5759	6539
892.9598	6657
895.343	6572
897.7256	6638
900.1057	6642
902.4871	6624
904.8659	6764
907.246	6603
909.6254	6733
912.0023	6681
914.3786	6729
916.7562	6992
919.1331	6796
921.5074	6992
923.8831	6950
926.2562	6979
928.6287	6866
931.0005	7056
933.3757	7008
935.7462	7134
938.1162	6932
940.4855	7150
942.8542	7151
945.2242	7275
947.5916	7241
949.9584	7301
952.3266	7539
954.6921	7765
957.0571	8054
959.4233	8251
961.787	8465
964.15	8431
966.5125	8303
968.8742	7906
971.2354	7723
973.5959	7469
975.9559	7274
978.3151	6903
980.6738	7046
983.0338	7046
985.3912	6936
987.7461	6985
990.1022	6860
992.4578	6913
994.8127	6937
997.1689	6812
999.5207	7037
1001.874	6996
1004.226	6886
1006.576	6925
1008.929	6871
1011.28	6981
1013.628	6882
1015.977	6933
1018.324	7025
1020.674	6838
1023.019	6982
1025.366	6988
1027.713	6953
1030.056	7022
1032.399	6975
1034.746	7073
1037.087	7044
1039.431	6976
1041.771	6892
1044.113	7010
1046.454	6967
1048.793	7042
1051.133	6967
1053.471	7093
1055.807	7133
1058.146	6996
1060.483	7060
1062.818	7042
1065.153	7089
1067.489	7119
1069.822	7258
1072.156	7182
1074.488	7178
1076.82	7080
1079.15	7114
1081.48	7134
1083.814	7124
1086.143	7180
1088.471	7171
1090.799	7126
1093.126	7065
1095.452	7115
1097.78	6978
1100.105	7150
1102.43	7052
1104.754	7044
1107.077	7140
1109.4	7036
1111.722	7026
1114.044	7053
1116.365	7129
1118.685	7110
1121.005	7112
1123.324	7178
1125.643	7220
1127.961	7305
1130.278	7151
1132.595	7147
1134.911	7074
1137.226	7164
1139.541	7225
1141.854	7168
1144.167	7108
1146.482	7171
1148.793	7138
1151.105	7006
1153.414	7063
1155.725	7209
1158.033	7157
1160.344	7152
1162.651	7151
1164.959	7161
1167.265	7243
1169.572	7239
1171.878	7156
1174.184	7165
1176.488	7214
1178.79	7230
1181.094	7140
1183.396	7242
1185.699	7292
1188.001	7168
1190.301	7040
1192.6	7100
1194.9	7224
1197.2	7254
1199.497	7232
1201.794	7208
1204.09	7118
1206.387	7197
1208.684	7125
1210.978	7161
1213.272	7215
1215.565	7168
1217.858	7235
1220.15	7230
1222.443	7258
1224.734	7154
1227.024	7237
1229.313	7324
1231.602	7331
1233.892	7322
1236.18	7413
1238.467	7450
1240.754	7402
1243.04	7311
1245.325	7426
1247.612	7325
1249.896	7459
1252.178	7524
1254.461	7489
1256.743	7482
1259.027	7564
1261.308	7545
1263.587	7528
1265.867	7542
1268.146	7524
1270.425	7606
1272.703	7459
1274.981	7449
1277.256	7464
1279.532	7536
1281.808	7491
1284.083	7449
1286.358	7520
1288.63	7343
1290.904	7357
1293.175	7497
1295.449	7456
1297.719	7513
1299.99	7500
1302.259	7480
1304.529	7352
1306.798	7507
1309.065	7398
1311.333	7373
1313.599	7479
1315.866	7458
1318.131	7463
1320.396	7390
1322.66	7347
1324.925	7423
1327.187	7442
1329.448	7510
1331.711	7501
1333.974	7529
1336.234	7352
1338.493	7627
1340.752	7355
1343.01	7466
1345.269	7424
1347.526	7479
1349.784	7630
1352.04	7581
1354.295	7430
1356.552	7473
1358.806	7411
1361.059	7424
1363.312	7357
1365.564	7369
1367.818	7494
1370.069	7505
1372.318	7500
1374.568	7489
1376.817	7574
1379.066	7619
1381.316	7604
1383.564	7608
1385.809	7522
1388.056	7620
1390.301	7563
1392.549	7622
1394.793	7795
1397.036	7838
1399.279	7435
1401.522	7710
1403.763	7673
1406.007	7707
1408.248	7811
1410.487	7666
1412.727	7673
1414.965	7740
1417.205	7728
1419.442	7751
1421.68	7720
1423.915	7723
1426.152	7693
1428.388	7728
1430.623	7650
1432.857	7913
1435.091	7857
1437.323	7908
1439.556	7788
1441.789	7891
1444.019	7851
1446.25	7842
1448.48	7910
1450.708	7840
1452.938	7967
1455.167	7976
1457.394	7957
1459.62	7893
1461.846	7761
1464.073	7703
1466.299	7785
1468.523	7834
1470.746	7776
1472.969	7698
1475.191	7719
1477.415	7716
1479.636	7700
1481.858	7570
1484.078	7626
1486.298	7536
1488.518	7562
1490.736	7525
1492.954	7425
1495.169	7509
1497.386	7450
1499.602	7509
1501.819	7477
1504.034	7580
1506.248	7419
1508.462	7659
1510.675	7398
1512.888	7394
1515.1	7537
1517.311	7520
1519.522	7489
1521.732	7356
1523.942	7645
1526.151	7553
1528.36	7582
1530.566	7466
1532.773	7579
1534.98	7579
1537.187	7454
1539.392	7503
1541.596	7512
1543.801	7608
1546.005	7612
1548.208	7442
1550.411	7631
1552.612	7682
1554.814	7572
1557.013	7694
1559.212	7538
1561.414	7629
1563.612	7649
1565.811	7685
1568.007	7716
1570.203	7735
1572.403	7736
1574.598	7802
1576.792	7664
1578.988	7670
1581.181	7701
1583.376	7775
1585.568	7732
1587.761	7654
1589.952	7697
1592.143	7811
1594.333	7802
1596.524	7665
1598.715	7719
1600.903	7740
1603.091	7725
1605.278	7863
1607.466	7702
1609.652	7826
1611.838	7760
1614.023	7844
1616.207	7852
1618.391	7880
1620.576	7660
1622.759	7730
1624.941	7786
1627.123	7855
1629.304	7858
1631.484	7747
1633.664	7800
1635.844	7871
1638.022	7875
1640.201	7934
1642.38	7776
1644.556	7837
1646.732	7811
1648.908	7845
1651.084	7828
1653.257	7785
1655.433	7803
1657.607	7859
1659.779	7887
1661.951	7997
1664.122	7906
1666.295	7864
1668.467	7922
1670.635	7889
1672.805	7919
1674.973	7859
1677.142	7908
1679.31	7869
1681.478	7790
1683.644	7839
1685.81	7824
1687.975	7793
1690.142	7897
1692.305	7793
1694.468	7892
1696.632	7762
1698.794	7752
1700.957	7823
1703.119	7747
1705.279	7780
1707.439	7682
1709.598	7834
1711.758	7655
1713.917	7692
1716.075	7861
1718.231	7787
1720.388	7662
1722.543	7677
1724.702	7831
1726.856	7718
1729.01	7715
1731.164	7786
1733.317	7886
1735.471	7749
1737.623	7776
1739.774	7699
1741.925	7680
1744.075	7779
1746.225	7732
1748.376	7705
1750.524	7683
1752.672	7722
1754.82	7766
1756.965	7794
1759.113	7742
1761.259	7776
1763.405	7875
1765.549	7804
1767.694	7745
1769.836	7816
1771.981	7768
1774.123	7568
1776.264	7713
1778.405	7913
1780.546	7777
1782.687	7841
1784.827	7807
1786.966	7835
1789.103	7740
1791.242	7855
1793.381	7853
1795.517	7773
1797.653	7743
1799.788	7739
1801.923	7886
1804.057	7869
1806.193	7800
1808.326	7859
1810.457	7815
1812.59	7843
1814.721	7863
1816.855	7666
1818.984	7866
1821.113	7875
1823.244	7719
1825.372	7942
1827.499	7824
1829.63	7722
1831.756	7817
1833.882	7773
1836.007	7688
1838.132	7861
1840.26	7817
1842.384	7832
1844.507	7703
1846.63	7755
1848.752	7656
1850.875	7838
1852.996	7874
1855.118	7702
1857.238	7856
1859.358	7797
1861.477	7680
1863.597	7725
1865.715	7736
1867.832	7676
1869.948	7701
1872.064	7670
1874.181	7814
1876.297	7685
1878.411	7690
1880.526	7814
1882.639	7660
1884.752	7882
1886.865	7834
1888.977	7729
1891.089	7871
1893.2	7768
1895.308	7700
1897.42	7765
1899.53	7858
1901.639	7772
1903.745	7806
1905.853	7859
1907.962	7813
1910.067	7870
1912.174	7816
1914.278	7882
1916.383	7755
1918.486	7736
1920.592	7774
1922.694	7873
1924.797	7794
1926.898	7992
1929	7871
1931.102	7866
1933.203	7811
1935.301	7837
1937.401	7838
1939.499	7944
1941.598	7904
1943.697	7913
1945.793	7872
1947.888	7807
1949.985	7838
1952.08	7948
1954.176	7844
1956.269	7798
1958.364	7947
1960.457	7781
1962.549	7927
1964.642	7943
1966.733	7832
1968.823	7763
1970.913	7721
1973.005	7823
1975.093	7856
1977.184	7835
1979.271	7856
1981.359	7807
1983.446	7708
1985.532	7815
1987.619	7860
1989.705	7886
1991.789	7804
1993.874	7862
1995.956	7866
1998.041	7771
2000.123	7824
2002.206	7730
2004.287	7850
2006.368	7854
2008.449	7835
2010.529	7803
2012.609	7669
2014.688	7697
2016.766	7662
2018.843	7732
2020.922	7793
2022.999	7828
2025.074	7698
2027.15	7875
2029.225	7649
2031.299	7732
2033.375	7870
2035.447	7837
2037.52	7875
2039.592	7857
2041.664	7746
2043.736	7685
2045.807	7808
2047.876	7792
2049.947	7672
2052.015	7900
2054.086	8000
2056.153	7795
2058.221	7870
2060.288	7786
2062.353	7779
2064.42	7812
2066.486	7715
2068.55	7936
2070.614	7859
2072.678	7887
2074.741	7787
2076.805	7715
2078.866	7995
2080.929	7760
2082.99	7888
2085.049	7875
2087.109	7815
2089.17	7761
2091.228	7852
2093.286	7786
2095.344	7734
2097.4	7773
2099.46	7795
2101.516	7716
2103.572	7776
2105.626	7762
2107.679	7702
2109.735	7757
2111.788	7729
2113.841	7743
2115.894	7942
2117.945	7764
2119.997	7903
2122.049	7847
2124.1	7863
2126.148	7796
2128.197	7829
2130.246	7802
2132.296	7676
2134.342	7696
2136.39	7680
2138.437	7729
2140.483	7800
2142.527	7719
2144.574	7736
2146.619	7763
2148.661	7672
2150.705	7790
2152.747	7817
2154.792	7763
2156.832	7682
2158.874	7853
2160.915	7742
2162.954	7768
2164.995	7699
2167.034	7652
2169.072	7654
2171.111	7802
2173.148	7637
2175.186	7779
2177.223	7583
2179.258	7749
2181.294	7749
2183.328	7630
2185.362	7646
2187.398	7539
2189.431	7532
2191.463	7672
2193.495	7621
2195.528	7660
2197.56	7548
2199.59	7583
2201.62	7722
2203.649	7657
2205.678	7679
2207.708	7519
2209.737	7625
2211.764	7524
2213.791	7569
2215.817	7543
2217.843	7635
2219.87	7502
2221.895	7673
2223.919	7431
2225.942	7477
2227.966	7643
2229.988	7686
2232.012	7603
2234.032	7597
2236.054	7604
2238.074	7576
2240.095	7538
2242.116	7539
2244.135	7650
2246.153	7581
2248.171	7680
2250.188	7658
2252.208	7517
2254.223	7619
2256.239	7584
2258.255	7548
2260.269	7650
2262.283	7628
2264.3	7581
2266.312	7503
2268.325	7541
2270.336	7523
2272.349	7619
2274.362	7500
2276.372	7475
2278.383	7610
2280.392	7562
2282.402	7585
2284.409	7572
2286.418	7654
2288.427	7692
2290.433	7433
2292.441	7516
2294.446	7566
2296.453	7514
2298.459	7649
2300.463	7624
2302.466	7599
2304.471	7641
2306.475	7518
2308.477	7540
2310.478	7412
2312.481	7558
2314.481	7602
2316.481	7452
2318.482	7533
2320.482	7552
2322.48	7630
2324.48	7414
2326.478	7428
2328.476	7526
2330.473	7556
2332.469	7498
2334.465	7496
2336.46	7542
2338.454	7553
2340.45	7474
2342.444	7535
2344.437	7451
2346.43	7530
2348.421	7396
2350.414	7454
2352.405	7360
2354.396	7365
2356.386	7364
2358.376	7415
2360.366	7475
2362.355	7525
2364.343	7397
2366.331	7366
2368.317	7487
2370.304	7333
2372.292	7382
2374.278	7382
2376.262	7418
2378.247	7476
2380.23	7461
2382.216	7593
2384.199	7337
2386.181	7336
2388.163	7394
2390.144	7381
2392.127	7282
2394.107	7392
2396.087	7242
2398.066	7424
2400.046	7341
2402.023	7371
2404.004	7262
2405.981	7230
2407.957	7263
2409.934	7366
2411.91	7322
2413.886	7244
2415.862	7357
2417.836	7385
2419.809	7413
2421.784	7267
2423.756	7304
2425.73	7306
2427.701	7307
2429.672	7408
2431.644	7212
2433.615	7308
2435.586	7273
2437.555	7349
2439.523	7303
2441.491	7360
2443.459	7376
2445.428	7413
2447.395	7255
2449.361	7371
2451.327	7252
2453.292	7275
2455.257	7280
2457.223	7315
2459.187	7150
2461.15	7237
2463.113	7243
2465.076	7281
2467.039	7220
2468.999	7258
2470.96	7246
2472.921	7143
2474.881	7373
2476.841	7147
2478.8	7208
2480.759	7271
2482.717	7160
2484.675	7252
2486.63	7215
2488.589	7260
2490.545	7159
2492.5	7112
2494.455	7180
2496.408	7320
2498.364	7085
2500.318	7274
2502.27	7299
2504.223	7220
2506.174	7310
2508.126	7246
2510.078	7177
2512.03	7151
2513.979	7336
2515.927	7202
2517.877	7293
2519.826	7250
2521.775	7117
2523.722	7114
2525.668	7225
2527.616	7230
2529.561	7223
2531.508	7288
2533.452	7304
2535.398	7108
2537.342	7150
2539.284	7175
2541.229	7156
2543.173	7189
2545.114	7090
2547.055	7323
2548.996	7031
2550.938	7060
2552.878	7260
2554.817	7131
2556.756	7146
2558.695	7289
2560.633	7251
2562.572	7200
2564.509	7143
2566.445	7207
2568.382	7098
2570.317	7080
2572.254	7198
2574.189	7230
2576.123	7054
2578.057	7125
2579.99	7148
2581.923	7246
2583.855	7180
2585.788	7216
2587.719	7097
2589.65	7172
2591.579	7179
2593.511	7099
2595.44	7211
2597.37	7190
2599.297	7212
2601.225	7230
2603.153	7147
2605.08	7288
2607.007	7316
2608.932	7144
2610.858	7179
2612.782	7122
2614.709	7307
2616.632	7218
2618.556	7164
2620.478	7149
2622.401	7218
2624.324	7264
2626.247	7082
2628.167	7162
2630.088	7177
2632.008	7245
2633.928	7245
2635.848	7153
2637.766	7206
2639.684	7232
2641.603	7235
2643.519	7231
2645.437	7121
2647.353	7166
2649.27	7294
2651.184	7234
2653.099	7196
2655.014	7232
2656.928	7220
2658.842	7196
2660.755	7241
2662.667	7180
2664.579	7195
2666.491	7260
2668.402	7185
2670.312	7192
2672.222	7144
2674.132	7167
2676.042	7171
2677.951	7176
2679.859	7239
2681.766	7146
2683.674	7316
2685.582	7145
2687.488	7141
2689.392	7103
2691.298	7118
2693.202	7005
2695.107	7132
2697.012	7091
2698.914	7117
2700.817	7085
2702.72	7243
2704.622	7099
2706.524	7089
2708.425	7115
2710.326	6993
2712.225	6995
2714.125	7058
2716.024	7001
2717.923	7036
2719.822	7210
2721.719	7043
2723.616	7058
2725.512	7080
2727.41	6965
2729.305	7075
2731.201	7086
2733.095	7153
2734.99	7034
2736.884	6939
2738.778	7049
2740.67	7037
2742.562	7012
2744.455	7138
2746.346	6995
2748.238	7057
2750.129	7015
2752.018	7047
2753.907	6956
2755.797	6863
2757.687	7188
2759.575	7060
2761.462	7062
2763.349	7006
2765.237	6992
2767.124	6969
2769.009	6961
2770.894	7022
2772.779	6935
2774.663	7124
2776.547	7019
2778.431	7014
2780.314	6942
2782.197	7117
2784.078	7086
2785.96	7068
2787.842	6973
2789.723	7089
2791.603	7043
2793.483	6946
2795.362	7014
2797.241	6980
2799.121	7099
2800.997	7060
2802.874	6957
2804.751	6969
2806.628	7067
2808.506	6928
2810.38	6943
2812.255	7071
2814.13	6984
2816.003	7071
2817.878	6872
2819.752	6959
2821.623	7063
2823.496	6938
2825.368	6993
2827.238	7063
2829.111	6909
2830.98	6949
2832.851	7045
2834.719	6950
2836.589	7081
2838.458	6958
2840.327	6983
2842.193	7010
2844.061	6918
2845.927	6959
2847.794	7006
2849.66	6989
2851.525	7150
2853.39	7010
2855.254	7137
2857.117	7078
2858.983	7122
2860.845	7195
2862.707	7088
2864.569	7092
2866.431	7258
2868.293	7125
2870.154	7148
2872.013	7234
2873.873	7215
2875.733	7379
2877.592	7334
2879.451	7402
2881.309	7555
2883.166	7252
2885.022	7685
2886.879	7695
2888.736	7543
2890.591	7543
2892.446	7522
2894.301	7531
2896.155	7500
2898.009	7577
2899.863	7587
2901.716	7522
2903.568	7462
2905.419	7645
2907.27	7487
2909.123	7666
2910.973	7490
2912.824	7549
2914.673	7670
2916.521	7578
2918.372	7758
2920.22	7830
2922.067	7836
2923.914	7866
2925.761	7885
2927.607	7952
2929.455	8059
2931.301	8193
2933.144	8178
2934.99	8129
2936.833	8156
2938.678	8025
2940.522	8239
2942.364	8347
2944.207	8464
2946.048	8528
2947.891	8499
2949.731	8478
2951.571	8502
2953.412	8475
2955.25	8267
2957.09	8373
2958.93	8428
2960.767	8342
2962.606	8137
2964.443	8054
2966.279	8132
2968.116	7991
2969.953	7821
2971.788	7832
2973.623	7766
2975.457	7751
2977.292	7628
2979.127	7720
2980.959	7730
2982.792	7687
2984.624	7523
2986.455	7559
2988.288	7494
2990.119	7439
2991.949	7342
2993.779	7405
2995.608	7349
2997.439	7350
2999.268	7305
3001.096	7318
3002.923	7177
3004.751	7091
3006.578	7011
3008.406	7001
3010.232	6945
3012.057	6902
3013.883	6908
3015.706	6894
3017.532	6955
3019.356	6867
3021.179	6835
3023.002	6799
3024.823	6803
3026.646	6767
3028.469	6767
3030.289	6642
3032.11	6718
3033.93	6635
3035.749	6633
3037.57	6713
3039.39	6710
3041.207	6699
3043.026	6666
3044.842	6784
3046.661	6565
3048.477	6652
3050.294	6791
3052.109	6637
3053.925	6630
3055.739	6527
3057.555	6734
3059.368	6634
3061.181	6680
3062.995	6582
3064.807	6624
3066.62	6502
3068.433	6655
3070.243	6631
3072.054	6504
3073.865	6554
3075.675	6516
3077.485	6531
3079.293	6627
3081.102	6635
3082.911	6452
3084.719	6541
3086.527	6384
3088.333	6455
3090.139	6565
3091.945	6505
3093.75	6468
3095.557	6481
3097.361	6468
3099.165	6516
3100.969	6345
3102.772	6511
3104.575	6449
3106.379	6280
3108.181	6354
3109.982	6461
3111.783	6388
3113.584	6499
3115.386	6347
3117.186	6362
3118.985	6414
3120.783	6392
3122.582	6308
3124.381	6319
3126.179	6238
3127.975	6252
3129.772	6309
3131.569	6334
3133.365	6262
3135.161	6255
3136.956	6256
3138.751	6320
3140.544	6216
3142.338	6360
3144.132	6256
3145.925	6305
3147.717	6207
3149.509	6333
3151.301	6315
3153.091	6252
3154.884	6198
3156.673	6199
3158.462	6236
3160.252	6286
3162.041	6263
3163.831	6330
3165.618	6183
3167.405	6262
3169.193	6253
3170.979	6265
3172.767	6214
3174.553	6235
3176.338	6171
3178.123	6214
3179.907	6102
3181.692	6268
3183.477	6232
3185.259	6123
3187.042	6258
3188.824	6124
3190.607	6232
3192.389	6238
3194.17	6025
3195.951	6195
3197.73	6165
3199.51	6242
3201.289	6112
3203.07	6152
3204.848	6156
3206.626	6218
3208.403	6182
3210.18	6254
3211.959	6110
3213.735	6048
3215.511	6135
3217.285	6086
3219.06	6246
3220.836	6185
3222.611	6073
3224.384	6226
3226.158	6178
3227.929	6094
3229.702	6065
3231.476	6103
3233.248	6115
3235.018	6084
3236.789	6112
3238.56	6270
3240.33	6091
3242.1	6028
3243.869	6063
3245.637	6099
3247.405	6088
3249.172	6141
3250.941	6104
3252.707	6159
3254.474	6128
3256.24	6136
3258.006	6039
3259.772	6247
3261.537	6081
3263.301	6102
3265.065	6192
3266.828	6039
3268.592	6113
3270.355	6091
3272.117	6119
3273.878	6032
3275.64	6133
3277.401	6087
3279.162	6139
3280.922	6125
3282.682	6038
3284.441	6176
3286.199	6128
3287.959	6050
3289.716	6193
3291.475	6143
3293.232	6133
3294.988	6160
3296.744	6229
3298.501	6134
3300.256	6053
3302.011	6102
3303.766	6028
3305.52	6157
3307.275	6123
3309.028	6051
3310.781	6057
3312.533	6086
3314.285	6084
3316.038	6105
3317.789	5990
3319.54	6157
3321.289	6026
3323.039	6020
3324.789	6010
3326.539	6055
3328.288	6160
3330.035	6100
3331.783	6002
3333.531	6008
3335.28	6116
3337.025	6056
3338.771	6035
3340.518	6021
3342.262	5978
3344.009	6137
3345.753	6082
3347.497	6091
3349.24	6069
3350.983	6007
3352.726	6050
3354.469	5908
3356.212	5985
3357.952	6026
3359.694	6006
3361.434	6000
3363.176	6011
3364.916	6039
3366.654	5948
3368.394	5987
3370.132	6032
3371.871	5837
3373.61	5932
3375.346	6006
3377.083	5962
3378.82	5832
3380.556	6015
3382.292	5870
3384.027	6036
3385.763	5963
3387.497	5904
3389.231	5866
3390.965	5938
3392.698	5848
3394.431	5869
3396.164	5978
3397.896	5784
3399.627	5901
3401.36	5893
3403.09	5916
3404.82	5913
3406.55	5880
3408.279	5807
3410.01	5826
3411.738	5850
3413.467	5777
3415.194	5848
3416.92	5849
3418.647	5830
3420.375	5698
3422.102	5806
3423.827	5784
3425.553	5855
3427.277	5796
3429.003	5792
3430.727	5720
3432.451	5767
3434.173	5810
3435.896	5745
3437.62	5755
3439.343	5736
3441.063	5860
3442.785	5673
3444.505	5697
3446.226	5710
3447.948	5782
3449.666	5569
3451.386	5653
3453.104	5611
3454.823	5800
3456.541	5695
3458.259	5623
3459.976	5729
3461.693	5626
3463.408	5640
3465.125	5627
3466.841	5639
3468.556	5637
3470.271	5569
3471.985	5540
3473.698	5577
3475.414	5661
3477.126	5663
3478.838	5558
3480.55	5551
3482.263	5521
3483.975	5627
3485.686	5531
3487.396	5502
3489.106	5655
3490.817	5464
3492.526	5511
3494.236	5526
3495.944	5548
3497.652	5529
3499.359	5518
3501.066	5454
3502.775	5548
3504.481	5398
3506.187	5480
3507.893	5527
3509.598	5461
3511.304	5464
3513.009	5480
3514.713	5461
3516.417	5439
3518.12	5474
3519.821	5470
3521.525	5457
3523.228	5400
3524.929	5484
3526.631	5463
3528.33	5401
3530.032	5461
3531.733	5392
3533.433	5390
3535.131	5257
3536.83	5253
3538.529	5489
3540.227	5400
3541.925	5382
3543.623	5351
3545.319	5328
3547.016	5399
3548.712	5396
3550.408	5341
3552.103	5331
3553.798	5469
3555.491	5242
3557.188	5342
3558.88	5323
3560.574	5244
3562.266	5316
3563.959	5310
3565.651	5265
3567.343	5306
3569.035	5283
3570.725	5296
3572.415	5242
3574.106	5225
3575.797	5331
3577.485	5422
3579.174	5174
3580.863	5240
3582.551	5231
3584.238	5100
3585.926	5278
3587.613	5274
3589.3	5242
3590.986	5199
3592.671	5168
3594.357	5167
3596.042	5135
3597.726	5077
3599.41	5150
3601.094	5185
3602.778	5123
3604.461	5179
3606.143	5140
3607.825	5115
3609.507	5055
3611.188	5126
3612.87	5091
3614.551	5047
3616.229	5024
3617.909	5033
3619.589	5048
3621.269	5164
3622.948	4966
3624.625	5078
3626.302	5028
3627.98	5054
3629.657	4969
3631.334	5033
3633.01	4970
3634.686	4995
3636.361	4922
3638.036	5004
3639.712	4956
3641.385	5012
3643.06	4997
3644.732	4917
3646.405	5016
3648.08	5024
3649.751	4981
3651.424	4867
3653.094	5063
3654.766	4928
3656.436	4919
3658.106	5065
3659.777	4946
3661.446	4941
3663.115	4914
3664.783	4876
3666.452	4955
3668.121	4963
3669.788	4896
3671.454	4901
3673.121	4888
3674.789	4940
3676.455	4787
3678.12	4948
3679.784	4813
3681.45	4849
3683.114	4863
3684.779	4879
3686.442	4792
3688.105	4777
3689.768	4809
3691.43	4809
3693.093	4827
3694.754	4803
3696.415	4783
3698.076	4901
3699.736	4834
3701.396	4934
3703.057	4817
3704.716	4823
3706.375	4771
3708.034	4728
3709.692	4776
3711.351	4747
3713.008	4795
3714.665	4776
3716.321	4671
3717.977	4850
3719.634	4745
3721.29	4892
3722.945	4760
3724.598	4776
3726.253	4784
3727.907	4755
3729.561	4832
3731.214	4795
3732.867	4797
3734.518	4780
3736.171	4737
3737.824	4861
3739.474	4834
3741.125	4714
3742.775	4676
3744.425	4816
3746.074	4713
3747.725	4767
3749.373	4728
3751.022	4737
3752.669	4671
3754.318	4736
3755.966	4727
3757.612	4713
3759.259	4700
3760.905	4724
3762.55	4737
3764.197	4677
3765.842	4670
3767.486	4744
3769.131	4624
3770.774	4725
3772.417	4713
3774.061	4639
3775.705	4658
3777.347	4634
3778.988	4583
3780.629	4582
3782.271	4613
3783.912	4573
3785.552	4729
3787.192	4613
3788.831	4645
3790.472	4666
3792.112	4701
3793.75	4630
3795.388	4648
3797.024	4620
3798.661	4635
3800.3	4560
3801.936	4647
3803.572	4653
3805.208	4629
3806.844	4561
3808.48	4541
3810.115	4541
3811.748	4535
3813.382	4550
3815.016	4566
3816.649	4482
3818.283	4540
3819.914	4549
3821.547	4568
3823.178	4541
3824.809	4518
3826.441	4510
3828.072	4543
3829.701	4514
3831.331	4544
3832.96	4520
3834.591	4501
3836.219	4570
3837.847	4526
3839.475	4381
3841.102	4396
3842.729	4430
3844.357	4491
3845.984	4452
3847.609	4442
3849.234	4479
3850.86	4464
3852.485	4488
3854.11	4378
3855.734	4366
3857.357	4405
3858.981	4478
3860.603	4483
3862.227	4442
3863.848	4427
3865.471	4409
3867.092	4428
3868.713	4384
3870.334	4420
3871.954	4404
3873.575	4409
3875.194	4455
3876.813	4383
3878.433	4439
3880.051	4409
3881.669	4413
3883.286	4443
3884.904	4410
3886.52	4401
3888.138	4333
3889.754	4376
3891.37	4413
3892.985	4319
3894.6	4405
3896.216	4394
3897.831	4355
3899.444	4293
3901.058	4417
3902.67	4269
3904.283	4461
3905.897	4498
3907.509	4390
3909.121	4371
3910.731	4365
3912.342	4411
3913.954	4339
3915.563	4361
3917.174	4343
3918.783	4295
3920.391	4322
3922.002	4273
3923.611	4372
3925.218	4352
3926.826	4324
3928.432	4318
3930.039	4353
3931.647	4351
3933.253	4291
3934.859	4313
3936.464	4281
3938.068	4325
3939.675	4323
3941.278	4375
3942.883	4240
3944.486	4327
3946.089	4380
3947.692	4367
3949.295	4255
3950.898	4337
3952.499	4272
3954.1	4243
3955.7	4294
3957.303	4308
3958.903	4299
3960.502	4326
3962.101	4180
3963.7	4250
3965.301	4281
3966.899	4189
3968.497	4357
3970.094	4195
3971.691	4223
3973.288	4197
3974.885	4291
3976.481	4230
3978.077	4161
3979.672	4204
3981.267	4242
3982.863	4181
3984.457	4210
3986.051	4043
3987.645	4266
3989.238	4230
3990.831	4134
3992.425	4114
3994.017	4184
3995.607	4162
3997.199	4107
3998.79	4248
4000.382	4106
4001.973	4115
4003.561	4105
4005.151	4129
4006.741	4151
4008.331	4148
4009.918	4165
4011.507	4090
4013.095	4111
4014.681	4062
4016.269	4052
4017.856	4039
4019.443	4166
4021.028	4102
4022.614	4020
4024.199	4041
4025.785	4140
4027.37	4076
4028.953	4034
4030.536	4048
4032.12	4013
4033.704	4014
4035.287	4014
4036.869	4078
4038.45	4013
4040.032	4034
4041.613	3977
4043.195	4008
4044.776	4091
4046.356	4047
4047.935	4040
4049.515	3977
4051.095	3928
4052.674	4075
4054.251	4020
4055.829	3950
4057.406	3934
4058.985	4016
4060.562	3956
4062.139	3997
4063.715	3972
4065.29	3943
4066.865	3985
4068.442	3884
4070.016	3828
4071.59	3946
4073.164	4015
4074.738	3848
4076.312	4004
4077.885	3956
4079.458	3952
4081.03	3961
4082.602	3867
4084.173	3915
4085.745	3891
4087.315	3957
4088.886	3899
4090.456	3952
4092.026	4024
4093.596	3836
4095.165	3923
4096.734	3942
4098.301	3906
4099.869	3901
4101.437	3918
4103.006	3870
4104.572	3807
4106.139	3859
4107.704	3939
4109.27	3902
4110.837	3913
4112.401	3966
4113.966	3805
4115.53	3922
4117.094	3854
4118.659	3849
4120.223	3899
4121.785	3822
4123.347	3874
4124.909	3909
4126.471	3880
4128.034	3918
4129.595	3856
4131.155	3883
4132.716	3857
4134.275	3787
4135.836	3822
4137.395	3822
4138.955	3764
4140.513	3834
4142.071	3806
4143.628	3745
4145.188	3732
4146.745	3721
4148.302	3809
4149.858	3744
4151.414	3792
4152.971	3753
4154.526	3731
4156.081	3801
4157.635	3732
4159.189	3689
4160.745	3640
4162.298	3793
4163.852	3725
4165.405	3768
4166.957	3749
4168.51	3676
4170.063	3695
4171.614	3688
4173.166	3657
4174.717	3724
4176.267	3704
4177.817	3690
4179.368	3637
4180.917	3741
4182.466	3722
4184.016	3661
4185.564	3737
4187.112	3659
4188.66	3692
4190.207	3636
4191.754	3643
4193.301	3651
4194.848	3645
4196.394	3674
4197.94	3672
4199.484	3606
4201.03	3608
4202.575	3696
4204.12	3644
4205.663	3577
4207.207	3623
4208.75	3679
4210.292	3570
4211.836	3602
4213.378	3516
4214.92	3720
4216.46	3631
4218.002	3642
4219.544	3583
4221.083	3634
4222.625	3598
4224.164	3620
4225.703	3527
4227.244	3599
4228.782	3604
4230.32	3636
4231.857	3480
4233.395	3506
4234.933	3561
4236.471	3654
4238.007	3641
4239.542	3500
4241.078	3539
4242.614	3621
4244.15	3574
4245.685	3517
4247.219	3588
4248.753	3556
4250.287	3528
4251.82	3577
4253.354	3558
4254.887	3476
4256.419	3546
4257.951	3582
4259.483	3637
4261.016	3522
4262.547	3509
4264.078	3553
4265.608	3496
4267.137	3435
4268.668	3490
4270.197	3438
4271.727	3454
4273.254	3537
4274.783	3504
4276.311	3500
4277.84	3516
4279.366	3508
4280.894	3538
4282.42	3446
4283.946	3491
4285.473	3546
4286.998	3458
4288.523	3490
4290.047	3558
4291.572	3460
4293.096	3544
4294.622	3524
4296.144	3578
4297.668	3453
4299.19	3485
4300.713	3441
4302.236	3390
4303.758	3458
4305.279	3425
4306.799	3385
4308.321	3524
4309.842	3509
4311.361	3416
4312.882	3381
4314.401	3407
