400.0961	4513
402.6185	4468
405.1424	4514
407.6635	4570
410.1838	4689
412.7035	4622
415.2225	4561
417.7388	4633
420.2585	4749
422.7754	4734
425.2917	4808
427.8072	4849
430.3221	4817
432.8363	4872
435.3498	4814
437.8626	4973
440.3727	4872
442.8841	4848
445.3969	4907
447.907	4850
450.4142	4876
452.9229	4812
455.4289	4865
457.9362	4786
460.4449	4863
462.9488	4745
465.454	4748
467.9566	4788
470.4604	4831
472.9637	4851
475.4662	4809
477.966	4908
480.4671	4847
482.9656	4882
485.4633	4777
487.9645	4764
490.4608	4942
492.9566	4845
495.4536	4946
497.948	4867
500.4437	4828
502.9387	4931
505.431	4856
507.9226	4950
510.4136	5014
512.9079	4959
515.3975	4958
517.8864	4900
520.3746	4982
522.8622	5113
525.3491	5013
527.8394	4945
530.3249	5031
532.8098	4947
535.2939	4981
537.7774	5081
540.2623	5058
542.7444	4955
545.2259	4966
547.7067	5048
550.1868	5080
552.6683	5028
555.147	5024
557.6231	5056
560.1005	5187
562.5773	5032
565.0534	5039
567.5308	5141
570.0056	5057
572.4776	5170
574.951	5173
577.4237	5195
579.8978	5276
582.3671	5243
584.8378	5218
587.3079	5274
589.7773	5281
592.244	5306
594.714	5307
597.1793	5316
599.6461	5292
602.1121	5285
604.5754	5217
607.0421	5223
609.5042	5160
611.9675	5355
614.4282	5209
616.8902	5254
619.3515	5272
621.8122	5238
624.2702	5126
626.7296	5120
629.1863	5163
631.6423	5084
634.1017	5150
636.5563	5075
639.0104	5187
641.4658	5161
643.9185	5170
646.3725	5267
648.8239	5321
651.2766	5193
653.7266	5205
656.176	5169
658.6247	5225
661.0748	5312
663.5242	5214
665.9709	5400
668.417	5250
670.8624	5249
673.3092	5231
675.7533	5363
678.1968	5362
680.6395	5280
683.0817	5327
685.5251	5395
687.9659	5390
690.4061	5496
692.8456	5331
695.2844	5326
697.7226	5423
700.1621	5491
702.599	5423
705.0332	5421
707.4688	5431
709.9036	5315
712.3399	5458
714.7735	5434
717.2044	5436
719.6367	5534
722.0683	5367
724.4993	5431
726.9296	5530
729.3593	5638
731.7883	5626
734.2147	5590
736.6423	5563
739.0714	5589
741.4958	5543
743.9216	5622
746.3447	5608
748.7691	5636
751.1929	5569
753.616	5646
756.0366	5721
758.4584	5688
760.8776	5683
763.2982	5659
765.718	5653
768.1373	5763
770.5539	5740
772.9698	5701
775.3871	5864
777.8038	5756
780.2178	5668
782.6332	5812
785.0459	5830
787.458	5762
789.8714	5738
792.2842	5685
794.6943	5705
797.1038	5863
799.5127	5710
801.9209	5717
804.3324	5755
806.7393	5783
809.1456	5962
811.5513	5810
813.9562	5767
816.3625	5857
818.7663	5825
821.1693	5880
823.5718	5797
825.9735	5882
828.3746	5867
830.7771	5955
833.177	5881
835.5762	5798
837.9747	5805
840.3727	5826
842.772	5945
845.1666	5907
847.5626	5912
849.958	6055
852.3527	5985
854.7488	5999
857.1403	6088
859.5331	6028
861.9253	6126
864.3168	6092
866.7057	5974
869.098	5971
871.4876	5938
873.8746	6049
876.263	5972
878.6487	5999
881.0378	5893
883.4243	5957
885.8081	5945
888.1933	5995
890.5759	6003
892.9598	5995
895.343	6015
897.7256	6066
900.1057	5932
902.4871	6041
904.8659	6119
907.246	6070
909.6254	6082
912.0023	6107
914.3786	6182
916.7562	6318
919.1331	6387
921.5074	6539
923.8831	6365
926.2562	6540
928.6287	6485
931.0005	6376
933.3757	6354
935.7462	6529
938.1162	6420
940.4855	6504
942.8542	6492
945.2242	6521
947.5916	6594
949.9584	6750
952.3266	6988
954.6921	7152
957.0571	7606
959.4233	7687
961.787	7929
964.15	7955
966.5125	7686
968.8742	7389
971.2354	7059
973.5959	6793
975.9559	6646
978.3151	6595
980.6738	6468
983.0338	6399
985.3912	6423
987.7461	6348
990.1022	6223
992.4578	6115
994.8127	6218
997.1689	6301
999.5207	6284
1001.874	6345
1004.226	6243
1006.576	6401
1008.929	6237
1011.28	6204
1013.628	6203
1015.977	6342
1018.324	6283
1020.674	6122
1023.019	6307
1025.366	6300
1027.713	6356
1030.056	6274
1032.399	6284
1034.746	6319
1037.087	6429
1039.431	6414
1041.771	6294
1044.113	6488
1046.454	6376
1048.793	6349
1051.133	6364
1053.471	6345
1055.807	6300
1058.146	6347
1060.483	6487
1062.818	6426
1065.153	6540
1067.489	6421
1069.822	6391
1072.156	6448
1074.488	6411
1076.82	6544
1079.15	6567
1081.48	6403
1083.814	6420
1086.143	6454
1088.471	6295
1090.799	6334
1093.126	6508
1095.452	6390
1097.78	6302
1100.105	6369
1102.43	6349
1104.754	6442
1107.077	6462
1109.4	6383
1111.722	6286
1114.044	6317
1116.365	6367
1118.685	6355
1121.005	6546
1123.324	6348
1125.643	6470
1127.961	6437
1130.278	6466
1132.595	6412
1134.911	6430
1137.226	6423
1139.541	6464
1141.854	6454
1144.167	6305
1146.482	6488
1148.793	6451
1151.105	6452
1153.414	6361
1155.725	6363
1158.033	6306
1160.344	6374
1162.651	6410
1164.959	6312
1167.265	6483
1169.572	6428
1171.878	6455
1174.184	6507
1176.488	6340
1178.79	6422
1181.094	6428
1183.396	6417
1185.699	6463
1188.001	6424
1190.301	6351
1192.6	6429
1194.9	6393
1197.2	6422
1199.497	6500
1201.794	6482
1204.09	6450
1206.387	6378
1208.684	6395
1210.978	6414
1213.272	6501
1215.565	6403
1217.858	6341
1220.15	6536
1222.443	6488
1224.734	6400
1227.024	6551
1229.313	6493
1231.602	6518
1233.892	6549
1236.18	6573
1238.467	6742
1240.754	6570
1243.04	6576
1245.325	6712
1247.612	6737
1249.896	6745
1252.178	6638
1254.461	6765
1256.743	6704
1259.027	6658
1261.308	6709
1263.587	6828
1265.867	6796
1268.146	6776
1270.425	6693
1272.703	6780
1274.981	6807
1277.256	6738
1279.532	6700
1281.808	6707
1284.083	6723
1286.358	6676
1288.63	6680
1290.904	6667
1293.175	6554
1295.449	6567
1297.719	6715
1299.99	6634
1302.259	6557
1304.529	6482
1306.798	6588
1309.065	6540
1311.333	6665
1313.599	6599
1315.866	6634
1318.131	6560
1320.396	6618
1322.66	6571
1324.925	6486
1327.187	6723
1329.448	6627
1331.711	6682
1333.974	6735
1336.234	6759
1338.493	6671
1340.752	6649
1343.01	6567
1345.269	6643
1347.526	6516
1349.784	6573
1352.04	6554
1354.295	6519
1356.552	6507
1358.806	6732
1361.059	6579
1363.312	6518
1365.564	6525
1367.818	6492
1370.069	6624
1372.318	6742
1374.568	6622
1376.817	6632
1379.066	6612
1381.316	6625
1383.564	6693
1385.809	6672
1388.056	6774
1390.301	6618
1392.549	6866
1394.793	6826
1397.036	6937
1399.279	6939
1401.522	6958
1403.763	6886
1406.007	6861
1408.248	6857
1410.487	6825
1412.727	6927
1414.965	6927
1417.205	6863
1419.442	6800
1421.68	6945
1423.915	6814
1426.152	6918
1428.388	6846
1430.623	6764
1432.857	6945
1435.091	6898
1437.323	6823
1439.556	6987
1441.789	6964
1444.019	6950
1446.25	6992
1448.48	6870
1450.708	7069
1452.938	6989
1455.167	6941
1457.394	7083
1459.62	6906
1461.846	7023
1464.073	7084
1466.299	6953
1468.523	6974
1470.746	6894
1472.969	6853
1475.191	6868
1477.415	6854
1479.636	6694
1481.858	6662
1484.078	6770
1486.298	6732
1488.518	6663
1490.736	6655
1492.954	6597
1495.169	6683
1497.386	6687
1499.602	6561
1501.819	6566
1504.034	6496
1506.248	6649
1508.462	6619
1510.675	6674
1512.888	6656
1515.1	6565
1517.311	6607
1519.522	6561
1521.732	6581
1523.942	6460
1526.151	6568
1528.36	6661
1530.566	6564
1532.773	6527
1534.98	6567
1537.187	6545
1539.392	6601
1541.596	6560
1543.801	6612
1546.005	6614
1548.208	6632
1550.411	6653
1552.612	6615
1554.814	6636
1557.013	6731
1559.212	6745
1561.414	6689
1563.612	6689
1565.811	6710
1568.007	6719
1570.203	6746
1572.403	6650
1574.598	6799
1576.792	6870
1578.988	6638
1581.181	6827
1583.376	6748
1585.568	6761
1587.761	6739
1589.952	6902
1592.143	6906
1594.333	6828
1596.524	6782
1598.715	6799
1600.903	6769
1603.091	6870
1605.278	6822
1607.466	6885
1609.652	6863
1611.838	6925
1614.023	6813
1616.207	6945
1618.391	6905
1620.576	6850
1622.759	6868
1624.941	6852
1627.123	6882
1629.304	6915
1631.484	6830
1633.664	6976
1635.844	6844
1638.022	6941
1640.201	6972
1642.38	6943
1644.556	6973
1646.732	6991
1648.908	7006
1651.084	7069
1653.257	7065
1655.433	6980
1657.607	6962
1659.779	7091
1661.951	7047
1664.122	6920
1666.295	7075
1668.467	6943
1670.635	7046
1672.805	6978
1674.973	7131
1677.142	7095
1679.31	6975
1681.478	6953
1683.644	6883
1685.81	7033
1687.975	6997
1690.142	6940
1692.305	6978
1694.468	6877
1696.632	6888
1698.794	6867
1700.957	6906
1703.119	6792
1705.279	6929
1707.439	6867
1709.598	6801
1711.758	6989
1713.917	6771
1716.075	6798
1718.231	6822
1720.388	6861
1722.543	6852
1724.702	6845
1726.856	6719
1729.01	6709
1731.164	6855
1733.317	6836
1735.471	6803
1737.623	6783
1739.774	6760
1741.925	6883
1744.075	6778
1746.225	6732
1748.376	6746
1750.524	6863
1752.672	6783
1754.82	6776
1756.965	6904
1759.113	6756
1761.259	6730
1763.405	6723
1765.549	6752
1767.694	6907
1769.836	6870
1771.981	6837
1774.123	6792
1776.264	6837
1778.405	7000
1780.546	6885
1782.687	6818
1784.827	6870
1786.966	6746
1789.103	6876
1791.242	6955
1793.381	6886
1795.517	6809
1797.653	6820
1799.788	6797
1801.923	6935
1804.057	6994
1806.193	6874
1808.326	7010
1810.457	6865
1812.59	6861
1814.721	7091
1816.855	6796
1818.984	6898
1821.113	6798
1823.244	6771
1825.372	6840
1827.499	6783
1829.63	6780
1831.756	6821
1833.882	6925
1836.007	6870
1838.132	6783
1840.26	6850
1842.384	6757
1844.507	6833
1846.63	6821
1848.752	6770
1850.875	6732
1852.996	6759
1855.118	6800
1857.238	6748
1859.358	6846
1861.477	6894
1863.597	6784
1865.715	6738
1867.832	6788
1869.948	6817
1872.064	6791
1874.181	6842
1876.297	6726
1878.411	6820
1880.526	6780
1882.639	6745
1884.752	6719
1886.865	6767
1888.977	6778
1891.089	6799
1893.2	6796
1895.308	6742
1897.42	6764
1899.53	6805
1901.639	6805
1903.745	6805
1905.853	7079
1907.962	6858
1910.067	7026
1912.174	6850
1914.278	6931
1916.383	6977
1918.486	6870
1920.592	6874
1922.694	7009
1924.797	6873
1926.898	6818
1929	6830
1931.102	7003
1933.203	6879
1935.301	6944
1937.401	6955
1939.499	6902
1941.598	6961
1943.697	6957
1945.793	6964
1947.888	6989
1949.985	6909
1952.08	6972
1954.176	6834
1956.269	6946
1958.364	6828
1960.457	6926
1962.549	6969
1964.642	6878
1966.733	6876
1968.823	6877
1970.913	6906
1973.005	6876
1975.093	6918
1977.184	6808
1979.271	6807
1981.359	6934
1983.446	6814
1985.532	6884
1987.619	6882
1989.705	6766
1991.789	6807
1993.874	6847
1995.956	6807
1998.041	6795
2000.123	6829
2002.206	6836
2004.287	6790
2006.368	6907
2008.449	6823
2010.529	6837
2012.609	6854
2014.688	6838
2016.766	6881
2018.843	6782
2020.922	6828
2022.999	6788
2025.074	6737
2027.15	6841
2029.225	6899
2031.299	6754
2033.375	6815
2035.447	6733
2037.52	6703
2039.592	6833
2041.664	6798
2043.736	6736
2045.807	6875
2047.876	6747
2049.947	6829
2052.015	6784
2054.086	6896
2056.153	6782
2058.221	6813
2060.288	6714
2062.353	6844
2064.42	6838
2066.486	6880
2068.55	6862
2070.614	6805
2072.678	6858
2074.741	6840
2076.805	6846
2078.866	6710
2080.929	6874
2082.99	6813
2085.049	6856
2087.109	6785
2089.17	6770
2091.228	6824
2093.286	6825
2095.344	6838
2097.4	6907
2099.46	6822
2101.516	6780
2103.572	6814
2105.626	6861
2107.679	6803
2109.735	6851
2111.788	6874
2113.841	6845
2115.894	6968
2117.945	6745
2119.997	6851
2122.049	6788
2124.1	6778
2126.148	6886
2128.197	6902
2130.246	6915
2132.296	6754
2134.342	6839
2136.39	6749
2138.437	6847
2140.483	6801
2142.527	6748
2144.574	6756
2146.619	6876
2148.661	6739
2150.705	6776
2152.747	6811
2154.792	6765
2156.832	6804
2158.874	6815
2160.915	6648
2162.954	6755
2164.995	6699
2167.034	6814
2169.072	6697
2171.111	6834
2173.148	6608
2175.186	6766
2177.223	6716
2179.258	6660
2181.294	6809
2183.328	6721
2185.362	6727
2187.398	6610
2189.431	6626
2191.463	6757
2193.495	6770
2195.528	6646
2197.56	6663
2199.59	6719
2201.62	6700
2203.649	6763
2205.678	6649
2207.708	6668
2209.737	6812
2211.764	6629
2213.791	6573
2215.817	6610
2217.843	6521
2219.87	6635
2221.895	6638
2223.919	6610
2225.942	6677
2227.966	6669
2229.988	6582
2232.012	6687
2234.032	6570
2236.054	6573
2238.074	6419
2240.095	6706
2242.116	6666
2244.135	6576
2246.153	6580
2248.171	6627
2250.188	6640
2252.208	6601
2254.223	6630
2256.239	6693
2258.255	6639
2260.269	6639
2262.283	6666
2264.3	6620
2266.312	6475
2268.325	6560
2270.336	6705
2272.349	6535
2274.362	6696
2276.372	6634
2278.383	6577
2280.392	6605
2282.402	6583
2284.409	6571
2286.418	6642
2288.427	6586
2290.433	6626
2292.441	6617
2294.446	6540
2296.453	6674
2298.459	6715
2300.463	6602
2302.466	6560
2304.471	6576
2306.475	6616
2308.477	6571
2310.478	6447
2312.481	6622
2314.481	6588
2316.481	6657
2318.482	6529
2320.482	6532
2322.48	6531
2324.48	6585
2326.478	6504
2328.476	6602
2330.473	6572
2332.469	6586
2334.465	6585
2336.46	6400
2338.454	6555
2340.45	6436
2342.444	6370
2344.437	6606
2346.43	6520
2348.421	6400
2350.414	6586
2352.405	6495
2354.396	6424
2356.386	6470
2358.376	6439
2360.366	6510
2362.355	6521
2364.343	6330
2366.331	6413
2368.317	6483
2370.304	6608
2372.292	6382
2374.278	6552
2376.262	6431
2378.247	6495
2380.23	6493
2382.216	6370
2384.199	6447
2386.181	6466
2388.163	6385
2390.144	6292
2392.127	6360
2394.107	6432
2396.087	6448
2398.066	6327
2400.046	6481
2402.023	6371
2404.004	6453
2405.981	6450
2407.957	6299
2409.934	6320
2411.91	6427
2413.886	6426
2415.862	6365
2417.836	6382
2419.809	6450
2421.784	6326
2423.756	6346
2425.73	6336
2427.701	6342
2429.672	6433
2431.644	6356
2433.615	6358
2435.586	6324
2437.555	6324
2439.523	6408
2441.491	6171
2443.459	6352
2445.428	6248
2447.395	6374
2449.361	6402
2451.327	6305
2453.292	6317
2455.257	6359
2457.223	6383
2459.187	6466
2461.15	6284
2463.113	6272
2465.076	6293
2467.039	6288
2468.999	6269
2470.96	6291
2472.921	6270
2474.881	6310
2476.841	6229
2478.8	6306
2480.759	6178
2482.717	6287
2484.675	6292
2486.63	6210
2488.589	6268
2490.545	6138
2492.5	6133
2494.455	6275
2496.408	6203
2498.364	6198
2500.318	6250
2502.27	6151
2504.223	6238
2506.174	6185
2508.126	6317
2510.078	6297
2512.03	6213
2513.979	6280
2515.927	6167
2517.877	6269
2519.826	6198
2521.775	6144
2523.722	6159
2525.668	6224
2527.616	6198
2529.561	6170
2531.508	6232
2533.452	6190
2535.398	6104
2537.342	6062
2539.284	6107
2541.229	6275
2543.173	6250
2545.114	6238
2547.055	6191
2548.996	6311
2550.938	6222
2552.878	6104
2554.817	6199
2556.756	6245
2558.695	6229
2560.633	6100
2562.572	6154
2564.509	6231
2566.445	6107
2568.382	6223
2570.317	6149
2572.254	6274
2574.189	6110
2576.123	6054
2578.057	6207
2579.99	6161
2581.923	6129
2583.855	6259
2585.788	6106
2587.719	6082
2589.65	6152
2591.579	6153
2593.511	6307
2595.44	6170
2597.37	6197
2599.297	6179
2601.225	6175
2603.153	6153
2605.08	6239
2607.007	6160
2608.932	6161
2610.858	6200
2612.782	6258
2614.709	6267
2616.632	6087
2618.556	6213
2620.478	6225
2622.401	6134
2624.324	6207
2626.247	6213
2628.167	6271
2630.088	6143
2632.008	6179
2633.928	6264
2635.848	6110
2637.766	6264
2639.684	6133
2641.603	6186
2643.519	6175
2645.437	6175
2647.353	6187
2649.27	6151
2651.184	6255
2653.099	6316
2655.014	6155
2656.928	6196
2658.842	6215
2660.755	6212
2662.667	6233
2664.579	6204
2666.491	6138
2668.402	6181
2670.312	6148
2672.222	6082
2674.132	6195
2676.042	6137
2677.951	6107
2679.859	6210
2681.766	6230
2683.674	6100
2685.582	6133
2687.488	6048
2689.392	6119
2691.298	6182
2693.202	6144
2695.107	6114
2697.012	6101
2698.914	6200
2700.817	6091
2702.72	6186
2704.622	6087
2706.524	6081
2708.425	6030
2710.326	6053
2712.225	6057
2714.125	6097
2716.024	6080
2717.923	5986
2719.822	5965
2721.719	6028
2723.616	6000
2725.512	6139
2727.41	6055
2729.305	6137
2731.201	6108
2733.095	6045
2734.99	6062
2736.884	6084
2738.778	6038
2740.67	6041
2742.562	6058
2744.455	6006
2746.346	6028
2748.238	6041
2750.129	6047
2752.018	6003
2753.907	5961
2755.797	6051
2757.687	6096
2759.575	6009
2761.462	6026
2763.349	5992
2765.237	6065
2767.124	6022
2769.009	6002
2770.894	5986
2772.779	5919
2774.663	6068
2776.547	5955
2778.431	5986
2780.314	5988
2782.197	5976
2784.078	5975
2785.96	6018
2787.842	5989
2789.723	5997
2791.603	6072
2793.483	5920
2795.362	5825
2797.241	5914
2799.121	5887
2800.997	5987
2802.874	5965
2804.751	5950
2806.628	5976
2808.506	5953
2810.38	6002
2812.255	6015
2814.13	5961
2816.003	5979
2817.878	5958
2819.752	5966
2821.623	6007
2823.496	5872
2825.368	6028
2827.238	5902
2829.111	5998
2830.98	5995
2832.851	5949
2834.719	5966
2836.589	6072
2838.458	6093
2840.327	5928
2842.193	5969
2844.061	6079
2845.927	5997
2847.794	6056
2849.66	6009
2851.525	6066
2853.39	5986
2855.254	6055
2857.117	6099
2858.983	6164
2860.845	6149
2862.707	6122
2864.569	6244
2866.431	6256
2868.293	6306
2870.154	6269
2872.013	6346
2873.873	6317
2875.733	6434
2877.592	6422
2879.451	6565
2881.309	6526
2883.166	6554
2885.022	6810
2886.879	6725
2888.736	6633
2890.591	6681
2892.446	6803
2894.301	6754
2896.155	6726
2898.009	6759
2899.863	6643
2901.716	6718
2903.568	6618
2905.419	6641
2907.27	6600
2909.123	6679
2910.973	6797
2912.824	6736
2914.673	6842
2916.521	6732
2918.372	7020
2920.22	7053
2922.067	6947
2923.914	7167
2925.761	7010
2927.607	7125
2929.455	7275
2931.301	7257
2933.144	7082
2934.99	7367
2936.833	7406
2938.678	7378
2940.522	7364
2942.364	7549
2944.207	7625
2946.048	7658
2947.891	7754
2949.731	7731
2951.571	7824
2953.412	7852
2955.25	7737
2957.09	7615
2958.93	7699
2960.767	7533
2962.606	7471
2964.443	7412
2966.279	7416
2968.116	7259
2969.953	7163
2971.788	7046
2973.623	7014
2975.457	7081
2977.292	6857
2979.127	6854
2980.959	6712
2982.792	6739
2984.624	6742
2986.455	6707
2988.288	6606
2990.119	6627
2991.949	6580
2993.779	6577
2995.608	6426
2997.439	6479
2999.268	6349
3001.096	6338
3002.923	6241
3004.751	6224
3006.578	6127
3008.406	6088
3010.232	6099
3012.057	6069
3013.883	5899
3015.706	5991
3017.532	5858
3019.356	5830
3021.179	5928
3023.002	5795
3024.823	5845
3026.646	5774
3028.469	5612
3030.289	5739
3032.11	5703
3033.93	5639
3035.749	5748
3037.57	5637
3039.39	5759
3041.207	5727
3043.026	5618
3044.842	5632
3046.661	5663
3048.477	5575
3050.294	5659
3052.109	5661
3053.925	5735
3055.739	5579
3057.555	5617
3059.368	5562
3061.181	5601
3062.995	5567
3064.807	5644
3066.62	5644
3068.433	5659
3070.243	5597
3072.054	5536
3073.865	5612
3075.675	5567
3077.485	5694
3079.293	5596
3081.102	5623
3082.911	5489
3084.719	5607
3086.527	5513
3088.333	5598
3090.139	5526
3091.945	5541
3093.75	5507
3095.557	5546
3097.361	5544
3099.165	5471
3100.969	5485
3102.772	5474
3104.575	5477
3106.379	5418
3108.181	5508
3109.982	5491
3111.783	5413
3113.584	5465
3115.386	5429
3117.186	5284
3118.985	5410
3120.783	5363
3122.582	5444
3124.381	5396
3126.179	5444
3127.975	5371
3129.772	5358
3131.569	5311
3133.365	5344
3135.161	5450
3136.956	5406
3138.751	5437
3140.544	5307
3142.338	5364
3144.132	5355
3145.925	5330
3147.717	5358
3149.509	5256
3151.301	5364
3153.091	5377
3154.884	5320
3156.673	5202
3158.462	5285
3160.252	5319
3162.041	5253
3163.831	5308
3165.618	5286
3167.405	5332
3169.193	5281
3170.979	5166
3172.767	5306
3174.553	5253
3176.338	5339
3178.123	5295
3179.907	5223
3181.692	5345
3183.477	5324
3185.259	5248
3187.042	5250
3188.824	5270
3190.607	5235
3192.389	5224
3194.17	5205
3195.951	5304
3197.73	5275
3199.51	5292
3201.289	5180
3203.07	5230
3204.848	5184
3206.626	5303
3208.403	5232
3210.18	5236
3211.959	5252
3213.735	5240
3215.511	5206
3217.285	5146
3219.06	5260
3220.836	5206
3222.611	5196
3224.384	5278
3226.158	5309
3227.929	5158
3229.702	5212
3231.476	5246
3233.248	5256
3235.018	5295
3236.789	5165
3238.56	5203
3240.33	5223
3242.1	5285
3243.869	5231
3245.637	5098
3247.405	5135
3249.172	5221
3250.941	5249
3252.707	5265
3254.474	5225
3256.24	5195
3258.006	5241
3259.772	5227
3261.537	5175
3263.301	5196
3265.065	5195
3266.828	5265
3268.592	5319
3270.355	5291
3272.117	5258
3273.878	5231
3275.64	5183
3277.401	5203
3279.162	5250
3280.922	5211
3282.682	5263
3284.441	5246
3286.199	5304
3287.959	5149
3289.716	5226
3291.475	5240
3293.232	5351
3294.988	5149
3296.744	5176
3298.501	5210
3300.256	5234
3302.011	5166
3303.766	5242
3305.52	5329
3307.275	5221
3309.028	5147
3310.781	5168
3312.533	5252
3314.285	5180
3316.038	5193
3317.789	5155
3319.54	5141
3321.289	5190
3323.039	5208
3324.789	5237
3326.539	5170
3328.288	5220
3330.035	5094
3331.783	5170
3333.531	5200
3335.28	5129
3337.025	5216
3338.771	5053
3340.518	5094
3342.262	5178
3344.009	5155
3345.753	5134
3347.497	5165
3349.24	5154
3350.983	5072
3352.726	5186
3354.469	5097
3356.212	5115
3357.952	5039
3359.694	5114
3361.434	5172
3363.176	5014
3364.916	5045
3366.654	5057
3368.394	5068
3370.132	5094
3371.871	5009
3373.61	5094
3375.346	5042
3377.083	5096
3378.82	5026
3380.556	5034
3382.292	4960
3384.027	4960
3385.763	4929
3387.497	5014
3389.231	4992
3390.965	4984
3392.698	5063
3394.431	4914
3396.164	5005
3397.896	5068
3399.627	5098
3401.36	5072
3403.09	5002
3404.82	4878
3406.55	4986
3408.279	4818
3410.01	4868
3411.738	4940
3413.467	5000
3415.194	4864
3416.92	4994
3418.647	4858
3420.375	4900
3422.102	4905
3423.827	4865
3425.553	4949
3427.277	4848
3429.003	4872
3430.727	4857
3432.451	4958
3434.173	4955
3435.896	4955
3437.62	4884
3439.343	4811
3441.063	4832
3442.785	4880
3444.505	4774
3446.226	4841
3447.948	4903
3449.666	4801
3451.386	4712
3453.104	4843
3454.823	4810
3456.541	4896
3458.259	4755
3459.976	4879
3461.693	4746
3463.408	4701
3465.125	4582
3466.841	4787
3468.556	4634
3470.271	4831
3471.985	4711
3473.698	4738
3475.414	4613
3477.126	4685
3478.838	4681
3480.55	4696
3482.263	4709
3483.975	4763
3485.686	4695
3487.396	4648
3489.106	4637
3490.817	4559
3492.526	4679
3494.236	4617
3495.944	4623
3497.652	4688
3499.359	4656
3501.066	4515
3502.775	4679
3504.481	4630
3506.187	4570
3507.893	4582
3509.598	4553
3511.304	4571
3513.009	4561
3514.713	4599
3516.417	4534
3518.12	4600
3519.821	4520
3521.525	4539
3523.228	4533
3524.929	4554
3526.631	4467
3528.33	4550
3530.032	4498
3531.733	4541
3533.433	4512
3535.131	4512
3536.83	4519
3538.529	4466
3540.227	4418
3541.925	4473
3543.623	4472
3545.319	4501
3547.016	4402
3548.712	4431
3550.408	4429
3552.103	4539
3553.798	4388
3555.491	4447
3557.188	4386
3558.88	4432
3560.574	4328
3562.266	4455
3563.959	4370
3565.651	4394
3567.343	4392
3569.035	4433
3570.725	4489
3572.415	4348
3574.106	4421
3575.797	4343
3577.485	4295
3579.174	4388
3580.863	4272
3582.551	4337
3584.238	4390
3585.926	4365
3587.613	4323
3589.3	4291
3590.986	4210
3592.671	4272
3594.357	4277
3596.042	4259
3597.726	4270
3599.41	4222
3601.094	4268
3602.778	4263
3604.461	4133
3606.143	4279
3607.825	4276
3609.507	4231
3611.188	4123
3612.87	4152
3614.551	4215
3616.229	4205
3617.909	4133
3619.589	4217
3621.269	4071
3622.948	4225
3624.625	4153
3626.302	4224
3627.98	4092
3629.657	4076
3631.334	4086
3633.01	4125
3634.686	4055
3636.361	4026
3638.036	4176
3639.712	4135
3641.385	4098
3643.06	4064
3644.732	4111
3646.405	4036
3648.08	4109
3649.751	4009
3651.424	4078
3653.094	3864
3654.766	4051
3656.436	3943
3658.106	4009
3659.777	4007
3661.446	4036
3663.115	3978
3664.783	4027
3666.452	4066
3668.121	3893
3669.788	4037
3671.454	3966
3673.121	4010
3674.789	3962
3676.455	3957
3678.12	4105
3679.784	3977
3681.45	3992
3683.114	4020
3684.779	4002
3686.442	4027
3688.105	3935
3689.768	3922
3691.43	3943
3693.093	3970
3694.754	4003
3696.415	3850
3698.076	3966
3699.736	3973
3701.396	3916
3703.057	3891
3704.716	3878
3706.375	3941
3708.034	3962
3709.692	3850
3711.351	3928
3713.008	3889
3714.665	3850
3716.321	3917
3717.977	3913
3719.634	3901
3721.29	3843
3722.945	3932
3724.598	3949
3726.253	3907
3727.907	3854
3729.561	3834
3731.214	3830
3732.867	3805
3734.518	3866
3736.171	3836
3737.824	3826
3739.474	3888
3741.125	3838
3742.775	3827
3744.425	3868
3746.074	3904
3747.725	3766
3749.373	3876
3751.022	3869
3752.669	3809
3754.318	3786
3755.966	3810
3757.612	3867
3759.259	3785
3760.905	3772
3762.55	3853
3764.197	3834
3765.842	3767
3767.486	3799
3769.131	3730
3770.774	3759
3772.417	3754
3774.061	3812
3775.705	3754
3777.347	3755
3778.988	3761
3780.629	3824
3782.271	3785
3783.912	3773
3785.552	3818
3787.192	3720
3788.831	3754
3790.472	3759
3792.112	3671
3793.75	3747
3795.388	3711
3797.024	3744
3798.661	3753
3800.3	3741
3801.936	3719
3803.572	3732
3805.208	3606
3806.844	3651
3808.48	3732
3810.115	3616
3811.748	3766
3813.382	3668
3815.016	3655
3816.649	3621
3818.283	3682
3819.914	3709
3821.547	3616
3823.178	3667
3824.809	3656
3826.441	3659
3828.072	3560
3829.701	3595
3831.331	3675
3832.96	3581
3834.591	3730
3836.219	3667
3837.847	3656
3839.475	3601
3841.102	3675
3842.729	3612
3844.357	3616
3845.984	3565
3847.609	3643
3849.234	3696
3850.86	3676
3852.485	3635
3854.11	3494
3855.734	3584
3857.357	3559
3858.981	3548
3860.603	3489
3862.227	3572
3863.848	3631
3865.471	3681
3867.092	3555
3868.713	3554
3870.334	3557
3871.954	3541
3873.575	3541
3875.194	3544
3876.813	3538
3878.433	3508
3880.051	3546
3881.669	3471
3883.286	3489
3884.904	3536
3886.52	3508
3888.138	3620
3889.754	3498
3891.37	3517
3892.985	3478
3894.6	3495
3896.216	3548
3897.831	3533
3899.444	3483
3901.058	3536
3902.67	3486
3904.283	3522
3905.897	3475
3907.509	3534
3909.121	3519
3910.731	3455
3912.342	3454
3913.954	3493
3915.563	3473
3917.174	3514
3918.783	3441
3920.391	3440
3922.002	3462
3923.611	3475
3925.218	3471
3926.826	3377
3928.432	3443
3930.039	3431
3931.647	3453
3933.253	3361
3934.859	3466
3936.464	3413
3938.068	3449
3939.675	3441
3941.278	3393
3942.883	3335
3944.486	3459
3946.089	3364
3947.692	3461
3949.295	3453
3950.898	3393
3952.499	3419
3954.1	3393
3955.7	3383
3957.303	3358
3958.903	3388
3960.502	3426
3962.101	3439
3963.7	3442
3965.301	3372
3966.899	3393
3968.497	3402
3970.094	3389
3971.691	3384
3973.288	3333
3974.885	3379
3976.481	3407
3978.077	3302
3979.672	3349
3981.267	3367
3982.863	3302
3984.457	3369
3986.051	3291
3987.645	3266
3989.238	3387
3990.831	3296
3992.425	3324
3994.017	3276
3995.607	3333
3997.199	3285
3998.79	3241
4000.382	3236
4001.973	3264
4003.561	3300
4005.151	3360
4006.741	3306
4008.331	3315
4009.918	3292
4011.507	3266
4013.095	3231
4014.681	3277
4016.269	3244
4017.856	3234
4019.443	3241
4021.028	3256
4022.614	3160
4024.199	3258
4025.785	3225
4027.37	3197
4028.953	3178
4030.536	3209
4032.12	3136
4033.704	3157
4035.287	3292
4036.869	3222
4038.45	3200
4040.032	3152
4041.613	3234
4043.195	3204
4044.776	3175
4046.356	3171
4047.935	3242
4049.515	3173
4051.095	3125
4052.674	3087
4054.251	3155
4055.829	3144
4057.406	3056
4058.985	3143
4060.562	3246
4062.139	3111
4063.715	3141
4065.29	3109
4066.865	3173
4068.442	3112
4070.016	3153
4071.59	3104
4073.164	3098
4074.738	3075
4076.312	3210
4077.885	3124
4079.458	3075
4081.03	3078
4082.602	3091
4084.173	3113
4085.745	3082
4087.315	3072
4088.886	3104
4090.456	3082
4092.026	3151
4093.596	3019
4095.165	3041
4096.734	3116
4098.301	3063
4099.869	3087
4101.437	3035
4103.006	3107
4104.572	3070
4106.139	3119
4107.704	2996
4109.27	3004
4110.837	3048
4112.401	3122
4113.966	2979
4115.53	3032
4117.094	3054
4118.659	3057
4120.223	3019
4121.785	2971
4123.347	2992
4124.909	2975
4126.471	2966
4128.034	3069
4129.595	2988
4131.155	2932
4132.716	2999
4134.275	2990
4135.836	2961
4137.395	2909
4138.955	2977
4140.513	2991
4142.071	2974
4143.628	3026
4145.188	2967
4146.745	2878
4148.302	2963
4149.858	2931
4151.414	2897
4152.971	2974
4154.526	2958
4156.081	2927
4157.635	2961
4159.189	2979
4160.745	2930
4162.298	2949
4163.852	2901
4165.405	2914
4166.957	2906
4168.51	2851
4170.063	2896
4171.614	2873
4173.166	2876
4174.717	2870
4176.267	2851
4177.817	2837
4179.368	2773
4180.917	2861
4182.466	2846
4184.016	2893
4185.564	2907
4187.112	2878
4188.66	2840
4190.207	2813
4191.754	2824
4193.301	2857
4194.848	2842
4196.394	2809
4197.94	2872
4199.484	2862
4201.03	2840
4202.575	2814
4204.12	2798
4205.663	2777
4207.207	2800
4208.75	2819
4210.292	2795
4211.836	2819
4213.378	2777
4214.92	2825
4216.46	2838
4218.002	2833
4219.544	2719
4221.083	2868
4222.625	2824
4224.164	2797
4225.703	2845
4227.244	2797
4228.782	2776
4230.32	2808
4231.857	2790
4233.395	2856
4234.933	2755
4236.471	2776
4238.007	2813
4239.542	2796
4241.078	2709
4242.614	2738
4244.15	2771
4245.685	2786
4247.219	2807
4248.753	2799
4250.287	2675
4251.82	2724
4253.354	2768
4254.887	2814
4256.419	2782
4257.951	2744
4259.483	2721
4261.016	2820
4262.547	2752
4264.078	2725
4265.608	2757
4267.137	2763
4268.668	2748
4270.197	2745
4271.727	2751
4273.254	2702
4274.783	2670
4276.311	2673
4277.84	2772
4279.366	2717
4280.894	2716
4282.42	2694
4283.946	2711
4285.473	2744
4286.998	2670
4288.523	2685
4290.047	2715
4291.572	2733
4293.096	2679
4294.622	2682
4296.144	2681
4297.668	2699
4299.19	2730
4300.713	2678
4302.236	2674
4303.758	2643
4305.279	2674
4306.799	2607
4308.321	2660
4309.842	2676
4311.361	2591
4312.882	2621
4314.401	2613
