400.0961	4601
402.6185	4553
405.1424	4661
407.6635	4575
410.1838	4621
412.7035	4762
415.2225	4702
417.7388	4726
420.2585	4765
422.7754	4771
425.2917	4826
427.8072	4719
430.3221	4859
432.8363	4837
435.3498	4849
437.8626	5001
440.3727	4834
442.8841	4965
445.3969	4947
447.907	4932
450.4142	4790
452.9229	5027
455.4289	4899
457.9362	4804
460.4449	4906
462.9488	4889
465.454	4852
467.9566	4852
470.4604	4922
472.9637	5014
475.4662	4969
477.966	4987
480.4671	5008
482.9656	4988
485.4633	5076
487.9645	5010
490.4608	5124
492.9566	5071
495.4536	5015
497.948	5010
500.4437	5048
502.9387	5077
505.431	5103
507.9226	5096
510.4136	5157
512.9079	5165
515.3975	5142
517.8864	5056
520.3746	5065
522.8622	5128
525.3491	5151
527.8394	5228
530.3249	5151
532.8098	5159
535.2939	5201
537.7774	5157
540.2623	5106
542.7444	5230
545.2259	5148
547.7067	5213
550.1868	5158
552.6683	5176
555.147	5199
557.6231	5195
560.1005	5219
562.5773	5218
565.0534	5196
567.5308	5186
570.0056	5251
572.4776	5240
574.951	5287
577.4237	5331
579.8978	5268
582.3671	5313
584.8378	5301
587.3079	5338
589.7773	5390
592.244	5322
594.714	5310
597.1793	5253
599.6461	5268
602.1121	5228
604.5754	5325
607.0421	5248
609.5042	5337
611.9675	5366
614.4282	5333
616.8902	5468
619.3515	5370
621.8122	5361
624.2702	5259
626.7296	5275
629.1863	5233
631.6423	5362
634.1017	5296
636.5563	5338
639.0104	5368
641.4658	5348
643.9185	5297
646.3725	5355
648.8239	5404
651.2766	5380
653.7266	5374
656.176	5356
658.6247	5522
661.0748	5452
663.5242	5517
665.9709	5604
668.417	5501
670.8624	5444
673.3092	5474
675.7533	5525
678.1968	5484
680.6395	5534
683.0817	5567
685.5251	5604
687.9659	5544
690.4061	5601
692.8456	5593
695.2844	5465
697.7226	5613
700.1621	5569
702.599	5599
705.0332	5708
707.4688	5651
709.9036	5735
712.3399	5703
714.7735	5700
717.2044	5675
719.6367	5752
722.0683	5614
724.4993	5730
726.9296	5693
729.3593	5698
731.7883	5811
734.2147	5712
736.6423	5781
739.0714	5730
741.4958	5795
743.9216	5800
746.3447	5761
748.7691	5821
751.1929	5845
753.616	5959
756.0366	5898
758.4584	5981
760.8776	5822
763.2982	5940
765.718	5934
768.1373	6091
770.5539	6072
772.9698	5968
775.3871	5945
777.8038	5979
780.2178	5981
782.6332	6030
785.0459	5864
787.458	5984
789.8714	5958
792.2842	5985
794.6943	6034
797.1038	5982
799.5127	6027
801.9209	5993
804.3324	6018
806.7393	6021
809.1456	5915
811.5513	6140
813.9562	5996
816.3625	6109
818.7663	6136
821.1693	6047
823.5718	6175
825.9735	5994
828.3746	6078
830.7771	6028
833.177	6042
835.5762	6077
837.9747	6107
840.3727	6012
842.772	6099
845.1666	6226
847.5626	6163
849.958	6095
852.3527	6199
854.7488	6211
857.1403	6202
859.5331	6245
861.9253	6307
864.3168	6214
866.7057	6085
869.098	6186
871.4876	6146
873.8746	6090
876.263	6163
878.6487	6155
881.0378	6108
883.4243	6205
885.8081	6165
888.1933	6125
890.5759	6099
892.9598	6210
895.343	6048
897.7256	6147
900.1057	6162
902.4871	6084
904.8659	6141
907.246	6170
909.6254	6351
912.0023	6262
914.3786	6366
916.7562	6441
919.1331	6629
921.5074	6597
923.8831	6666
926.2562	6571
928.6287	6656
931.0005	6553
933.3757	6519
935.7462	6574
938.1162	6482
940.4855	6599
942.8542	6581
945.2242	6587
947.5916	6558
949.9584	6606
952.3266	6779
954.6921	6764
957.0571	6939
959.4233	6978
961.787	7061
964.15	7137
966.5125	6978
968.8742	6959
971.2354	6784
973.5959	6667
975.9559	6621
978.3151	6502
980.6738	6598
983.0338	6457
985.3912	6398
987.7461	6439
990.1022	6406
992.4578	6405
994.8127	6396
997.1689	6239
999.5207	6407
1001.874	6405
1004.226	6313
1006.576	6457
1008.929	6551
1011.28	6454
1013.628	6361
1015.977	6373
1018.324	6350
1020.674	6368
1023.019	6531
1025.366	6430
1027.713	6377
1030.056	6452
1032.399	6453
1034.746	6567
1037.087	6523
1039.431	6459
1041.771	6434
1044.113	6440
1046.454	6435
1048.793	6568
1051.133	6516
1053.471	6459
1055.807	6494
1058.146	6434
1060.483	6450
1062.818	6610
1065.153	6476
1067.489	6495
1069.822	6560
1072.156	6619
1074.488	6533
1076.82	6607
1079.15	6532
1081.48	6464
1083.814	6605
1086.143	6510
1088.471	6552
1090.799	6517
1093.126	6484
1095.452	6608
1097.78	6432
1100.105	6605
1102.43	6626
1104.754	6507
1107.077	6596
1109.4	6553
1111.722	6522
1114.044	6563
1116.365	6592
1118.685	6623
1121.005	6560
1123.324	6692
1125.643	6819
1127.961	6792
1130.278	6491
1132.595	6524
1134.911	6579
1137.226	6487
1139.541	6595
1141.854	6641
1144.167	6517
1146.482	6588
1148.793	6526
1151.105	6733
1153.414	6620
1155.725	6609
1158.033	6559
1160.344	6732
1162.651	6586
1164.959	6546
1167.265	6533
1169.572	6645
1171.878	6645
1174.184	6672
1176.488	6640
1178.79	6753
1181.094	6674
1183.396	6759
1185.699	6779
1188.001	6609
1190.301	6617
1192.6	6705
1194.9	6645
1197.2	6540
1199.497	6694
1201.794	6592
1204.09	6599
1206.387	6702
1208.684	6634
1210.978	6705
1213.272	6783
1215.565	6682
1217.858	6602
1220.15	6665
1222.443	6623
1224.734	6670
1227.024	6674
1229.313	6673
1231.602	6822
1233.892	6770
1236.18	6932
1238.467	6848
1240.754	6936
1243.04	6866
1245.325	6866
1247.612	6948
1249.896	6948
1252.178	6893
1254.461	7067
1256.743	6905
1259.027	6940
1261.308	6889
1263.587	6938
1265.867	6929
1268.146	6898
1270.425	6909
1272.703	6962
1274.981	6847
1277.256	7001
1279.532	6881
1281.808	6852
1284.083	6776
1286.358	6819
1288.63	6860
1290.904	6856
1293.175	6768
1295.449	6857
1297.719	6779
1299.99	6850
1302.259	6798
1304.529	6804
1306.798	6841
1309.065	6960
1311.333	6991
1313.599	6799
1315.866	6862
1318.131	6903
1320.396	6889
1322.66	6934
1324.925	6938
1327.187	6827
1329.448	6892
1331.711	6807
1333.974	7027
1336.234	6893
1338.493	6939
1340.752	6965
1343.01	6890
1345.269	6909
1347.526	6764
1349.784	6829
1352.04	6784
1354.295	6840
1356.552	6955
1358.806	6806
1361.059	6829
1363.312	6788
1365.564	6818
1367.818	6843
1370.069	6874
1372.318	6944
1374.568	6876
1376.817	6851
1379.066	6958
1381.316	6885
1383.564	6877
1385.809	6916
1388.056	7027
1390.301	7028
1392.549	7033
1394.793	7045
1397.036	7137
1399.279	7167
1401.522	7164
1403.763	7212
1406.007	7271
1408.248	7178
1410.487	7165
1412.727	7263
1414.965	7143
1417.205	7124
1419.442	7144
1421.68	7124
1423.915	7223
1426.152	7202
1428.388	7087
1430.623	7085
1432.857	7159
1435.091	7171
1437.323	7110
1439.556	7272
1441.789	7238
1444.019	7203
1446.25	7255
1448.48	7171
1450.708	7165
1452.938	7298
1455.167	7233
1457.394	7240
1459.62	7214
1461.846	7250
1464.073	7286
1466.299	7149
1468.523	7182
1470.746	7123
1472.969	7049
1475.191	7021
1477.415	6945
1479.636	7033
1481.858	6844
1484.078	6924
1486.298	6999
1488.518	6895
1490.736	7049
1492.954	6938
1495.169	6879
1497.386	6905
1499.602	6829
1501.819	6796
1504.034	6948
1506.248	6774
1508.462	6871
1510.675	6769
1512.888	6840
1515.1	6859
1517.311	6734
1519.522	6912
1521.732	6749
1523.942	6876
1526.151	6881
1528.36	6842
1530.566	6908
1532.773	6825
1534.98	6917
1537.187	6805
1539.392	6913
1541.596	6882
1543.801	6960
1546.005	6978
1548.208	6851
1550.411	6843
1552.612	6926
1554.814	7140
1557.013	7009
1559.212	7056
1561.414	7040
1563.612	6954
1565.811	6861
1568.007	7163
1570.203	7030
1572.403	7085
1574.598	6973
1576.792	7016
1578.988	7035
1581.181	6964
1583.376	7055
1585.568	6927
1587.761	7022
1589.952	7105
1592.143	7027
1594.333	7065
1596.524	7050
1598.715	7088
1600.903	6952
1603.091	7132
1605.278	7030
1607.466	7000
1609.652	7207
1611.838	7078
1614.023	7042
1616.207	7158
1618.391	7034
1620.576	7113
1622.759	7065
1624.941	7163
1627.123	7102
1629.304	7081
1631.484	7030
1633.664	7085
1635.844	7145
1638.022	7119
1640.201	7088
1642.38	7087
1644.556	7205
1646.732	7285
1648.908	7181
1651.084	7152
1653.257	7156
1655.433	7068
1657.607	7050
1659.779	7201
1661.951	7122
1664.122	7277
1666.295	7036
1668.467	7085
1670.635	7148
1672.805	7300
1674.973	7116
1677.142	7232
1679.31	7248
1681.478	7143
1683.644	7172
1685.81	7248
1687.975	7189
1690.142	7121
1692.305	7130
1694.468	7132
1696.632	7094
1698.794	7106
1700.957	6969
1703.119	7028
1705.279	7028
1707.439	7146
1709.598	7187
1711.758	7020
1713.917	7067
1716.075	6956
1718.231	7053
1720.388	7013
1722.543	6948
1724.702	7094
1726.856	7037
1729.01	7107
1731.164	7068
1733.317	7005
1735.471	7141
1737.623	7049
1739.774	6994
1741.925	6919
1744.075	7118
1746.225	7046
1748.376	7010
1750.524	7163
1752.672	7019
1754.82	7075
1756.965	7126
1759.113	7085
1761.259	7056
1763.405	7094
1765.549	7182
1767.694	6978
1769.836	7121
1771.981	7068
1774.123	7045
1776.264	7059
1778.405	6953
1780.546	6940
1782.687	7118
1784.827	7049
1786.966	7056
1789.103	7098
1791.242	7160
1793.381	7050
1795.517	7120
1797.653	7220
1799.788	7154
1801.923	7195
1804.057	7190
1806.193	7050
1808.326	7138
1810.457	7204
1812.59	7222
1814.721	7096
1816.855	7126
1818.984	7050
1821.113	7117
1823.244	7130
1825.372	7164
1827.499	7123
1829.63	7121
1831.756	7122
1833.882	7098
1836.007	6988
1838.132	7050
1840.26	7123
1842.384	7062
1844.507	7068
1846.63	7118
1848.752	7065
1850.875	7141
1852.996	7143
1855.118	6972
1857.238	7126
1859.358	7161
1861.477	7082
1863.597	6953
1865.715	6994
1867.832	6968
1869.948	6849
1872.064	7097
1874.181	7071
1876.297	6990
1878.411	7134
1880.526	7074
1882.639	7008
1884.752	7171
1886.865	7017
1888.977	7104
1891.089	6980
1893.2	7128
1895.308	7056
1897.42	7122
1899.53	7149
1901.639	7162
1903.745	7171
1905.853	7141
1907.962	6982
1910.067	7213
1912.174	7157
1914.278	7166
1916.383	7091
1918.486	7099
1920.592	7169
1922.694	7172
1924.797	7132
1926.898	7155
1929	7148
1931.102	7280
1933.203	7135
1935.301	7071
1937.401	7098
1939.499	7174
1941.598	7107
1943.697	7195
1945.793	7207
1947.888	7170
1949.985	7067
1952.08	7182
1954.176	7216
1956.269	7082
1958.364	7229
1960.457	7206
1962.549	7099
1964.642	7120
1966.733	7139
1968.823	7175
1970.913	7127
1973.005	7253
1975.093	7161
1977.184	7150
1979.271	7139
1981.359	7112
1983.446	7143
1985.532	7088
1987.619	7133
1989.705	7135
1991.789	7197
1993.874	7048
1995.956	7125
1998.041	7148
2000.123	7133
2002.206	7103
2004.287	6989
2006.368	7121
2008.449	6954
2010.529	7036
2012.609	7084
2014.688	7092
2016.766	7086
2018.843	7032
2020.922	6950
2022.999	7158
2025.074	7020
2027.15	7123
2029.225	7090
2031.299	7089
2033.375	7099
2035.447	6998
2037.52	7037
2039.592	6995
2041.664	7158
2043.736	7012
2045.807	7182
2047.876	7081
2049.947	6990
2052.015	7033
2054.086	6987
2056.153	7017
2058.221	7055
2060.288	7012
2062.353	7042
2064.42	7088
2066.486	6985
2068.55	7149
2070.614	7144
2072.678	7040
2074.741	6970
2076.805	7001
2078.866	7034
2080.929	7004
2082.99	7043
2085.049	7076
2087.109	7147
2089.17	6926
2091.228	6970
2093.286	7155
2095.344	7157
2097.4	7098
2099.46	7175
2101.516	6991
2103.572	6980
2105.626	7061
2107.679	7088
2109.735	7092
2111.788	7013
2113.841	7032
2115.894	7074
2117.945	7063
2119.997	6985
2122.049	6978
2124.1	7092
2126.148	6985
2128.197	6968
2130.246	7088
2132.296	7084
2134.342	7064
2136.39	7021
2138.437	6931
2140.483	7069
2142.527	6974
2144.574	6967
2146.619	6982
2148.661	7009
2150.705	7018
2152.747	7064
2154.792	7050
2156.832	6954
2158.874	6894
2160.915	7000
2162.954	6874
2164.995	6995
2167.034	7027
2169.072	7098
2171.111	6911
2173.148	6974
2175.186	6991
2177.223	6956
2179.258	7017
2181.294	6949
2183.328	6892
2185.362	6840
2187.398	6816
2189.431	6997
2191.463	6837
2193.495	6980
2195.528	6883
2197.56	6872
2199.59	6850
2201.62	6845
2203.649	7017
2205.678	6930
2207.708	6852
2209.737	6810
2211.764	6879
2213.791	6851
2215.817	6858
2217.843	6879
2219.87	6949
2221.895	6927
2223.919	6757
2225.942	6933
2227.966	6779
2229.988	6889
2232.012	6893
2234.032	6915
2236.054	6794
2238.074	6734
2240.095	6885
2242.116	6847
2244.135	6797
2246.153	6836
2248.171	6788
2250.188	6857
2252.208	6721
2254.223	6914
2256.239	6750
2258.255	6895
2260.269	6850
2262.283	6925
2264.3	6844
2266.312	6846
2268.325	6884
2270.336	6866
2272.349	6935
2274.362	6814
2276.372	6746
2278.383	6887
2280.392	6812
2282.402	6776
2284.409	6903
2286.418	6795
2288.427	6819
2290.433	6733
2292.441	6903
2294.446	6738
2296.453	6801
2298.459	6860
2300.463	6813
2302.466	6741
2304.471	6733
2306.475	6851
2308.477	6735
2310.478	6797
2312.481	6822
2314.481	6794
2316.481	6703
2318.482	6849
2320.482	6767
2322.48	6939
2324.48	6733
2326.478	6765
2328.476	6674
2330.473	6888
2332.469	6692
2334.465	6645
2336.46	6664
2338.454	6702
2340.45	6621
2342.444	6758
2344.437	6716
2346.43	6660
2348.421	6653
2350.414	6716
2352.405	6699
2354.396	6822
2356.386	6741
2358.376	6642
2360.366	6651
2362.355	6631
2364.343	6652
2366.331	6637
2368.317	6693
2370.304	6677
2372.292	6657
2374.278	6543
2376.262	6690
2378.247	6644
2380.23	6679
2382.216	6595
2384.199	6569
2386.181	6622
2388.163	6560
2390.144	6599
2392.127	6738
2394.107	6571
2396.087	6498
2398.066	6452
2400.046	6531
2402.023	6585
2404.004	6486
2405.981	6620
2407.957	6473
2409.934	6587
2411.91	6564
2413.886	6527
2415.862	6595
2417.836	6496
2419.809	6568
2421.784	6530
2423.756	6485
2425.73	6542
2427.701	6607
2429.672	6594
2431.644	6615
2433.615	6608
2435.586	6443
2437.555	6478
2439.523	6584
2441.491	6526
2443.459	6452
2445.428	6578
2447.395	6475
2449.361	6547
2451.327	6561
2453.292	6571
2455.257	6521
2457.223	6458
2459.187	6420
2461.15	6504
2463.113	6399
2465.076	6491
2467.039	6431
2468.999	6502
2470.96	6577
2472.921	6495
2474.881	6474
2476.841	6351
2478.8	6430
2480.759	6407
2482.717	6527
2484.675	6499
2486.63	6404
2488.589	6392
2490.545	6377
2492.5	6426
2494.455	6424
2496.408	6387
2498.364	6537
2500.318	6395
2502.27	6414
2504.223	6476
2506.174	6413
2508.126	6389
2510.078	6337
2512.03	6352
2513.979	6443
2515.927	6387
2517.877	6411
2519.826	6448
2521.775	6407
2523.722	6352
2525.668	6399
2527.616	6254
2529.561	6402
2531.508	6430
2533.452	6360
2535.398	6419
2537.342	6436
2539.284	6433
2541.229	6350
2543.173	6324
2545.114	6385
2547.055	6329
2548.996	6391
2550.938	6480
2552.878	6395
2554.817	6455
2556.756	6353
2558.695	6389
2560.633	6383
2562.572	6381
2564.509	6505
2566.445	6307
2568.382	6376
2570.317	6395
2572.254	6295
2574.189	6311
2576.123	6309
2578.057	6341
2579.99	6332
2581.923	6279
2583.855	6358
2585.788	6395
2587.719	6358
2589.65	6419
2591.579	6289
2593.511	6362
2595.44	6348
2597.37	6304
2599.297	6344
2601.225	6310
2603.153	6357
2605.08	6384
2607.007	6280
2608.932	6382
2610.858	6398
2612.782	6392
2614.709	6466
2616.632	6388
2618.556	6340
2620.478	6383
2622.401	6371
2624.324	6362
2626.247	6349
2628.167	6384
2630.088	6337
2632.008	6467
2633.928	6271
2635.848	6299
2637.766	6410
2639.684	6429
2641.603	6395
2643.519	6346
2645.437	6490
2647.353	6437
2649.27	6322
2651.184	6426
2653.099	6462
2655.014	6376
2656.928	6292
2658.842	6469
2660.755	6331
2662.667	6378
2664.579	6335
2666.491	6356
2668.402	6350
2670.312	6313
2672.222	6287
2674.132	6376
2676.042	6164
2677.951	6288
2679.859	6307
2681.766	6307
2683.674	6305
2685.582	6314
2687.488	6261
2689.392	6394
2691.298	6263
2693.202	6250
2695.107	6269
2697.012	6135
2698.914	6288
2700.817	6261
2702.72	6266
2704.622	6176
2706.524	6244
2708.425	6249
2710.326	6268
2712.225	6307
2714.125	6207
2716.024	6150
2717.923	6234
2719.822	6210
2721.719	6269
2723.616	6216
2725.512	6146
2727.41	6165
2729.305	6246
2731.201	6247
2733.095	6123
2734.99	6271
2736.884	6152
2738.778	6250
2740.67	6259
2742.562	6228
2744.455	6265
2746.346	6255
2748.238	6122
2750.129	6224
2752.018	6106
2753.907	6177
2755.797	6166
2757.687	6190
2759.575	6095
2761.462	6112
2763.349	6217
2765.237	6264
2767.124	6169
2769.009	6029
2770.894	6143
2772.779	6136
2774.663	6186
2776.547	6146
2778.431	6212
2780.314	6081
2782.197	6209
2784.078	6162
2785.96	6112
2787.842	6203
2789.723	6021
2791.603	6086
2793.483	6097
2795.362	6220
2797.241	6190
2799.121	6015
2800.997	6225
2802.874	6206
2804.751	6130
2806.628	5958
2808.506	6162
2810.38	5972
2812.255	6136
2814.13	6046
2816.003	6147
2817.878	6042
2819.752	6096
2821.623	6108
2823.496	6111
2825.368	6070
2827.238	6096
2829.111	6044
2830.98	6017
2832.851	6192
2834.719	6108
2836.589	6133
2838.458	6152
2840.327	6091
2842.193	6107
2844.061	6147
2845.927	6075
2847.794	6132
2849.66	6212
2851.525	6190
2853.39	6150
2855.254	6195
2857.117	6233
2858.983	6337
2860.845	6285
2862.707	6145
2864.569	6373
2866.431	6406
2868.293	6294
2870.154	6332
2872.013	6479
2873.873	6432
2875.733	6467
2877.592	6518
2879.451	6612
2881.309	6580
2883.166	6611
2885.022	6776
2886.879	6752
2888.736	6773
2890.591	6697
2892.446	6806
2894.301	6833
2896.155	6894
2898.009	6718
2899.863	6810
2901.716	6771
2903.568	6736
2905.419	6845
2907.27	6820
2909.123	6778
2910.973	6636
2912.824	6926
2914.673	6822
2916.521	6959
2918.372	6925
2920.22	6909
2922.067	6977
2923.914	7131
2925.761	7076
2927.607	7045
2929.455	7185
2931.301	7037
2933.144	7034
2934.99	7170
2936.833	7275
2938.678	7229
2940.522	7371
2942.364	7348
2944.207	7483
2946.048	7564
2947.891	7672
2949.731	7681
2951.571	7632
2953.412	7795
2955.25	7766
2957.09	7697
2958.93	7577
2960.767	7596
2962.606	7507
2964.443	7347
2966.279	7407
2968.116	7212
2969.953	7086
2971.788	7057
2973.623	6927
2975.457	6861
2977.292	6749
2979.127	6714
2980.959	6750
2982.792	6649
2984.624	6618
2986.455	6597
2988.288	6528
2990.119	6515
2991.949	6527
2993.779	6378
2995.608	6366
2997.439	6318
2999.268	6367
3001.096	6255
3002.923	6207
3004.751	6192
3006.578	6108
3008.406	6094
3010.232	6116
3012.057	6120
3013.883	6034
3015.706	5979
3017.532	5936
3019.356	5987
3021.179	6018
3023.002	5857
3024.823	5877
3026.646	5915
3028.469	5856
3030.289	5786
3032.11	5775
3033.93	5776
3035.749	5804
3037.57	5816
3039.39	5737
3041.207	5828
3043.026	5719
3044.842	5812
3046.661	5717
3048.477	5818
3050.294	5681
3052.109	5782
3053.925	5781
3055.739	5704
3057.555	5788
3059.368	5788
3061.181	5687
3062.995	5788
3064.807	5727
3066.62	5687
3068.433	5710
3070.243	5695
3072.054	5738
3073.865	5739
3075.675	5668
3077.485	5644
3079.293	5573
3081.102	5628
3082.911	5640
3084.719	5598
3086.527	5660
3088.333	5608
3090.139	5629
3091.945	5492
3093.75	5645
3095.557	5525
3097.361	5520
3099.165	5558
3100.969	5579
3102.772	5504
3104.575	5498
3106.379	5490
3108.181	5568
3109.982	5503
3111.783	5432
3113.584	5535
3115.386	5378
3117.186	5462
3118.985	5510
3120.783	5441
3122.582	5561
3124.381	5408
3126.179	5446
3127.975	5428
3129.772	5450
3131.569	5342
3133.365	5455
3135.161	5496
3136.956	5443
3138.751	5359
3140.544	5484
3142.338	5332
3144.132	5454
3145.925	5444
3147.717	5322
3149.509	5362
3151.301	5483
3153.091	5262
3154.884	5405
3156.673	5425
3158.462	5388
3160.252	5352
3162.041	5396
3163.831	5395
3165.618	5392
3167.405	5304
3169.193	5338
3170.979	5457
3172.767	5251
3174.553	5375
3176.338	5289
3178.123	5262
3179.907	5253
3181.692	5300
3183.477	5303
3185.259	5365
3187.042	5312
3188.824	5374
3190.607	5362
3192.389	5315
3194.17	5324
3195.951	5387
3197.73	5160
3199.51	5314
3201.289	5280
3203.07	5241
3204.848	5266
3206.626	5294
3208.403	5265
3210.18	5303
3211.959	5308
3213.735	5293
3215.511	5179
3217.285	5209
3219.06	5264
3220.836	5199
3222.611	5299
3224.384	5243
3226.158	5271
3227.929	5226
3229.702	5228
3231.476	5241
3233.248	5232
3235.018	5317
3236.789	5248
3238.56	5326
3240.33	5159
3242.1	5308
3243.869	5186
3245.637	5306
3247.405	5125
3249.172	5232
3250.941	5191
3252.707	5244
3254.474	5046
3256.24	5183
3258.006	5144
3259.772	5239
3261.537	5207
3263.301	5281
3265.065	5192
3266.828	5240
3268.592	5303
3270.355	5213
3272.117	5239
3273.878	5096
3275.64	5166
3277.401	5316
3279.162	5283
3280.922	5256
3282.682	5129
3284.441	5259
3286.199	5197
3287.959	5179
3289.716	5159
3291.475	5173
3293.232	5204
3294.988	5257
3296.744	5170
3298.501	5219
3300.256	5197
3302.011	5257
3303.766	5173
3305.52	5239
3307.275	5209
3309.028	5224
3310.781	5200
3312.533	5161
3314.285	5090
3316.038	5166
3317.789	5128
3319.54	5132
3321.289	5154
3323.039	5123
3324.789	5088
3326.539	5186
3328.288	4946
3330.035	5226
3331.783	5111
3333.531	5100
3335.28	5152
3337.025	5030
3338.771	5118
3340.518	5098
3342.262	5090
3344.009	5088
3345.753	5119
3347.497	4990
3349.24	5045
3350.983	5021
3352.726	5111
3354.469	5064
3356.212	4995
3357.952	5077
3359.694	5030
3361.434	5061
3363.176	4968
3364.916	4948
3366.654	5067
3368.394	5044
3370.132	4991
3371.871	4995
3373.61	5132
3375.346	4993
3377.083	4983
3378.82	5018
3380.556	4931
3382.292	5035
3384.027	4952
3385.763	4898
3387.497	5045
3389.231	4920
3390.965	5006
3392.698	4998
3394.431	4977
3396.164	4838
3397.896	4945
3399.627	4879
3401.36	5001
3403.09	4913
3404.82	4919
3406.55	4986
3408.279	4854
3410.01	4942
3411.738	4884
3413.467	4976
3415.194	4889
3416.92	4930
3418.647	4954
3420.375	4850
3422.102	4888
3423.827	4841
3425.553	4918
3427.277	4990
3429.003	4900
3430.727	4856
3432.451	4793
3434.173	4757
3435.896	4857
3437.62	4825
3439.343	4877
3441.063	4819
3442.785	4818
3444.505	4778
3446.226	4767
3447.948	4744
3449.666	4803
3451.386	4808
3453.104	4830
3454.823	4691
3456.541	4797
3458.259	4732
3459.976	4809
3461.693	4730
3463.408	4769
3465.125	4634
3466.841	4701
3468.556	4712
3470.271	4762
3471.985	4643
3473.698	4728
3475.414	4698
3477.126	4569
3478.838	4748
3480.55	4661
3482.263	4661
3483.975	4571
3485.686	4704
3487.396	4559
3489.106	4639
3490.817	4687
3492.526	4610
3494.236	4611
3495.944	4619
3497.652	4629
3499.359	4662
3501.066	4637
3502.775	4600
3504.481	4510
3506.187	4507
3507.893	4611
3509.598	4570
3511.304	4545
3513.009	4551
3514.713	4431
3516.417	4543
3518.12	4485
3519.821	4493
3521.525	4477
3523.228	4623
3524.929	4418
3526.631	4495
3528.33	4494
3530.032	4588
3531.733	4430
3533.433	4475
3535.131	4527
3536.83	4424
3538.529	4470
3540.227	4537
3541.925	4414
3543.623	4434
3545.319	4494
3547.016	4593
3548.712	4509
3550.408	4443
3552.103	4415
3553.798	4367
3555.491	4401
3557.188	4402
3558.88	4392
3560.574	4408
3562.266	4431
3563.959	4448
3565.651	4367
3567.343	4350
3569.035	4434
3570.725	4319
3572.415	4341
3574.106	4274
3575.797	4464
3577.485	4309
3579.174	4294
3580.863	4323
3582.551	4323
3584.238	4270
3585.926	4252
3587.613	4272
3589.3	4314
3590.986	4381
3592.671	4256
3594.357	4293
3596.042	4331
3597.726	4350
3599.41	4216
3601.094	4236
3602.778	4158
3604.461	4261
3606.143	4283
3607.825	4140
3609.507	4283
3611.188	4204
3612.87	4303
3614.551	4240
3616.229	4325
3617.909	4107
3619.589	4166
3621.269	4248
3622.948	4179
3624.625	4183
3626.302	4150
3627.98	4173
3629.657	4186
3631.334	4119
3633.01	4180
3634.686	4088
3636.361	4141
3638.036	4148
3639.712	4064
3641.385	4158
3643.06	4149
3644.732	4151
3646.405	4066
3648.08	4030
3649.751	4019
3651.424	4095
3653.094	4045
3654.766	4031
3656.436	4136
3658.106	4047
3659.777	4063
3661.446	4046
3663.115	3919
3664.783	3998
3666.452	4012
3668.121	4181
3669.788	3941
3671.454	4006
3673.121	4110
3674.789	4014
3676.455	4043
3678.12	4108
3679.784	3953
3681.45	3982
3683.114	3915
3684.779	4052
3686.442	3996
3688.105	4040
3689.768	3930
3691.43	3967
3693.093	3956
3694.754	3992
3696.415	4035
3698.076	3945
3699.736	3985
3701.396	3988
3703.057	3907
3704.716	3976
3706.375	3978
3708.034	3891
3709.692	3904
3711.351	3917
3713.008	3984
3714.665	3946
3716.321	3924
3717.977	3878
3719.634	3944
3721.29	3909
3722.945	3882
3724.598	3927
3726.253	3939
3727.907	3842
3729.561	3941
3731.214	3903
3732.867	3819
3734.518	3941
3736.171	3897
3737.824	3898
3739.474	3906
3741.125	3832
3742.775	3876
3744.425	3846
3746.074	3928
3747.725	3930
3749.373	3829
3751.022	3913
3752.669	3926
3754.318	3774
3755.966	3848
3757.612	3803
3759.259	3853
3760.905	3798
3762.55	3820
3764.197	3879
3765.842	3895
3767.486	3831
3769.131	3723
3770.774	3860
3772.417	3779
3774.061	3878
3775.705	3780
3777.347	3799
3778.988	3771
3780.629	3774
3782.271	3776
3783.912	3763
3785.552	3801
3787.192	3772
3788.831	3768
3790.472	3711
3792.112	3750
3793.75	3751
3795.388	3760
3797.024	3613
3798.661	3784
3800.3	3665
3801.936	3730
3803.572	3665
3805.208	3697
3806.844	3676
3808.48	3724
3810.115	3768
3811.748	3756
3813.382	3695
3815.016	3682
3816.649	3722
3818.283	3738
3819.914	3654
3821.547	3630
3823.178	3721
3824.809	3665
3826.441	3674
3828.072	3601
3829.701	3722
3831.331	3609
3832.96	3674
3834.591	3591
3836.219	3696
3837.847	3595
3839.475	3643
3841.102	3617
3842.729	3638
3844.357	3680
3845.984	3565
3847.609	3566
3849.234	3617
3850.86	3520
3852.485	3639
3854.11	3623
3855.734	3605
3857.357	3589
3858.981	3607
3860.603	3640
3862.227	3639
3863.848	3579
3865.471	3554
3867.092	3543
3868.713	3630
3870.334	3647
3871.954	3603
3873.575	3594
3875.194	3642
3876.813	3558
3878.433	3583
3880.051	3519
3881.669	3502
3883.286	3594
3884.904	3545
3886.52	3458
3888.138	3521
3889.754	3497
3891.37	3603
3892.985	3573
3894.6	3472
3896.216	3561
3897.831	3467
3899.444	3601
3901.058	3519
3902.67	3542
3904.283	3515
3905.897	3489
3907.509	3546
3909.121	3503
3910.731	3467
3912.342	3464
3913.954	3480
3915.563	3473
3917.174	3521
3918.783	3464
3920.391	3522
3922.002	3402
3923.611	3535
3925.218	3534
3926.826	3502
3928.432	3505
3930.039	3516
3931.647	3397
3933.253	3525
3934.859	3497
3936.464	3450
3938.068	3404
3939.675	3444
3941.278	3406
3942.883	3431
3944.486	3487
3946.089	3539
3947.692	3361
3949.295	3466
3950.898	3447
3952.499	3416
3954.1	3527
3955.7	3348
3957.303	3463
3958.903	3370
3960.502	3448
3962.101	3411
3963.7	3356
3965.301	3380
3966.899	3357
3968.497	3435
3970.094	3329
3971.691	3373
3973.288	3300
3974.885	3329
3976.481	3313
3978.077	3395
3979.672	3379
3981.267	3405
3982.863	3327
3984.457	3407
3986.051	3379
3987.645	3370
3989.238	3375
3990.831	3303
3992.425	3297
3994.017	3305
3995.607	3349
3997.199	3275
3998.79	3435
4000.382	3332
4001.973	3325
4003.561	3259
4005.151	3225
4006.741	3282
4008.331	3315
4009.918	3247
4011.507	3319
4013.095	3312
4014.681	3227
4016.269	3309
4017.856	3279
4019.443	3225
4021.028	3291
4022.614	3296
4024.199	3246
4025.785	3282
4027.37	3182
4028.953	3178
4030.536	3239
4032.12	3229
4033.704	3271
4035.287	3283
4036.869	3242
4038.45	3149
4040.032	3195
4041.613	3290
4043.195	3193
4044.776	3119
4046.356	3183
4047.935	3124
4049.515	3149
4051.095	3171
4052.674	3156
4054.251	3158
4055.829	3230
4057.406	3136
4058.985	3158
4060.562	3183
4062.139	3134
4063.715	3130
4065.29	3064
4066.865	3156
4068.442	3156
4070.016	3154
4071.59	3140
4073.164	3107
4074.738	3134
4076.312	3067
4077.885	3173
4079.458	3194
4081.03	3065
4082.602	3136
4084.173	3109
4085.745	3038
4087.315	3045
4088.886	3086
4090.456	3134
4092.026	3104
4093.596	3117
4095.165	3126
4096.734	3052
4098.301	3104
4099.869	3028
4101.437	3122
4103.006	3094
4104.572	3076
4106.139	3069
4107.704	3106
4109.27	3056
4110.837	3028
4112.401	3093
4113.966	3022
4115.53	3060
4117.094	3100
4118.659	3078
4120.223	2987
4121.785	3066
4123.347	2995
4124.909	3065
4126.471	3013
4128.034	3014
4129.595	3038
4131.155	3068
4132.716	2975
4134.275	2971
4135.836	2947
4137.395	3008
4138.955	2959
4140.513	2989
4142.071	3024
4143.628	2960
4145.188	2996
4146.745	2936
4148.302	3014
4149.858	2941
4151.414	2992
4152.971	2982
4154.526	2937
4156.081	2932
4157.635	2901
4159.189	2962
4160.745	2905
4162.298	2912
4163.852	2906
4165.405	2916
4166.957	2903
4168.51	2967
4170.063	2860
4171.614	2893
4173.166	2921
4174.717	2929
4176.267	2877
4177.817	2988
4179.368	2900
4180.917	2911
4182.466	2854
4184.016	2816
4185.564	2891
4187.112	2875
4188.66	2878
4190.207	2887
4191.754	2878
4193.301	2830
4194.848	2889
4196.394	2869
4197.94	2804
4199.484	2805
4201.03	2825
4202.575	2833
4204.12	2893
4205.663	2868
4207.207	2826
4208.75	2841
4210.292	2743
4211.836	2875
4213.378	2756
4214.92	2838
4216.46	2801
4218.002	2817
4219.544	2786
4221.083	2778
4222.625	2864
4224.164	2801
4225.703	2804
4227.244	2785
4228.782	2746
4230.32	2830
4231.857	2812
4233.395	2792
4234.933	2755
4236.471	2808
4238.007	2733
4239.542	2754
4241.078	2806
4242.614	2791
4244.15	2733
4245.685	2739
4247.219	2839
4248.753	2832
4250.287	2730
4251.82	2824
4253.354	2723
4254.887	2712
4256.419	2739
4257.951	2755
4259.483	2757
4261.016	2689
4262.547	2751
4264.078	2754
4265.608	2733
4267.137	2739
4268.668	2755
4270.197	2730
4271.727	2798
4273.254	2762
4274.783	2690
4276.311	2689
4277.84	2711
4279.366	2713
4280.894	2771
4282.42	2660
4283.946	2672
4285.473	2719
4286.998	2713
4288.523	2663
4290.047	2695
4291.572	2647
4293.096	2688
4294.622	2677
4296.144	2615
4297.668	2650
4299.19	2695
4300.713	2688
4302.236	2677
4303.758	2622
4305.279	2674
4306.799	2615
4308.321	2753
4309.842	2654
4311.361	2614
4312.882	2670
4314.401	2684
