400.0961	5562
402.6185	5615
405.1424	5557
407.6635	5537
410.1838	5608
412.7035	5652
415.2225	5678
417.7388	5705
420.2585	5825
422.7754	5759
425.2917	5818
427.8072	5731
430.3221	5898
432.8363	5900
435.3498	5881
437.8626	5914
440.3727	5872
442.8841	5953
445.3969	5838
447.907	5969
450.4142	5885
452.9229	5930
455.4289	5867
457.9362	5953
460.4449	5988
462.9488	5855
465.454	5878
467.9566	5916
470.4604	5870
472.9637	5889
475.4662	5930
477.966	5902
480.4671	5804
482.9656	6009
485.4633	6002
487.9645	5941
490.4608	5990
492.9566	6022
495.4536	6072
497.948	6223
500.4437	6130
502.9387	6125
505.431	6113
507.9226	6024
510.4136	6175
512.9079	6190
515.3975	6103
517.8864	6111
520.3746	6115
522.8622	6198
525.3491	6263
527.8394	6148
530.3249	6202
532.8098	6145
535.2939	6155
537.7774	6154
540.2623	6303
542.7444	6136
545.2259	6224
547.7067	6216
550.1868	6324
552.6683	6220
555.147	6220
557.6231	6290
560.1005	6199
562.5773	6146
565.0534	6247
567.5308	6382
570.0056	6286
572.4776	6366
574.951	6452
577.4237	6450
579.8978	6414
582.3671	6547
584.8378	6494
587.3079	6412
589.7773	6590
592.244	6564
594.714	6461
597.1793	6472
599.6461	6369
602.1121	6412
604.5754	6368
607.0421	6440
609.5042	6420
611.9675	6557
614.4282	6358
616.8902	6561
619.3515	6387
621.8122	6499
624.2702	6554
626.7296	6512
629.1863	6408
631.6423	6405
634.1017	6334
636.5563	6477
639.0104	6429
641.4658	6372
643.9185	6454
646.3725	6392
648.8239	6615
651.2766	6522
653.7266	6414
656.176	6542
658.6247	6586
661.0748	6534
663.5242	6592
665.9709	6630
668.417	6650
670.8624	6609
673.3092	6571
675.7533	6639
678.1968	6674
680.6395	6632
683.0817	6684
685.5251	6795
687.9659	6645
690.4061	6733
692.8456	6661
695.2844	6592
697.7226	6760
700.1621	6754
702.599	6705
705.0332	6659
707.4688	6739
709.9036	6770
712.3399	6730
714.7735	6901
717.2044	6775
719.6367	6744
722.0683	6804
724.4993	6855
726.9296	6905
729.3593	6796
731.7883	6951
734.2147	6923
736.6423	6942
739.0714	7091
741.4958	7051
743.9216	7004
746.3447	6991
748.7691	6866
751.1929	7029
753.616	7167
756.0366	7163
758.4584	7213
760.8776	7118
763.2982	7120
765.718	7148
768.1373	7137
770.5539	7253
772.9698	7128
775.3871	7208
777.8038	7139
780.2178	7250
782.6332	7157
785.0459	7172
787.458	7129
789.8714	7178
792.2842	7257
794.6943	7247
797.1038	7175
799.5127	7232
801.9209	7128
804.3324	7225
806.7393	7267
809.1456	7252
811.5513	7201
813.9562	7193
816.3625	7385
818.7663	7276
821.1693	7320
823.5718	7268
825.9735	7279
828.3746	7293
830.7771	7292
833.177	7465
835.5762	7355
837.9747	7350
840.3727	7327
842.772	7372
845.1666	7403
847.5626	7386
849.958	7458
852.3527	7454
854.7488	7494
857.1403	7479
859.5331	7512
861.9253	7525
864.3168	7502
866.7057	7480
869.098	7469
871.4876	7485
873.8746	7451
876.263	7611
878.6487	7444
881.0378	7421
883.4243	7457
885.8081	7402
888.1933	7425
890.5759	7414
892.9598	7319
895.343	7458
897.7256	7477
900.1057	7409
902.4871	7547
904.8659	7454
907.246	7523
909.6254	7508
912.0023	7489
914.3786	7558
916.7562	7667
919.1331	7887
921.5074	7871
923.8831	7965
926.2562	7862
928.6287	7997
931.0005	7783
933.3757	7799
935.7462	7943
938.1162	7870
940.4855	7945
942.8542	7813
945.2242	8098
947.5916	8126
949.9584	8136
952.3266	8408
954.6921	8674
957.0571	8731
959.4233	9104
961.787	9081
964.15	9071
966.5125	9136
968.8742	8775
971.2354	8559
973.5959	8285
975.9559	8083
978.3151	7967
980.6738	7777
983.0338	7816
985.3912	7828
987.7461	7756
990.1022	7664
992.4578	7786
994.8127	7777
997.1689	7661
999.5207	7732
1001.874	7896
1004.226	7710
1006.576	7819
1008.929	7700
1011.28	7708
1013.628	7636
1015.977	7875
1018.324	7878
1020.674	7743
1023.019	7808
1025.366	7833
1027.713	7766
1030.056	7698
1032.399	7830
1034.746	7908
1037.087	7879
1039.431	7894
1041.771	7780
1044.113	7883
1046.454	7886
1048.793	7752
1051.133	7870
1053.471	7716
1055.807	7786
1058.146	7858
1060.483	7849
1062.818	7884
1065.153	7959
1067.489	8019
1069.822	7880
1072.156	7942
1074.488	7949
1076.82	8126
1079.15	8009
1081.48	7906
1083.814	8063
1086.143	7956
1088.471	7959
1090.799	7994
1093.126	7897
1095.452	7972
1097.78	7978
1100.105	7893
1102.43	7881
1104.754	7918
1107.077	7915
1109.4	7903
1111.722	7943
1114.044	7937
1116.365	7975
1118.685	7958
1121.005	7950
1123.324	8114
1125.643	8073
1127.961	7973
1130.278	7977
1132.595	7880
1134.911	7851
1137.226	7964
1139.541	7831
1141.854	7916
1144.167	7980
1146.482	7906
1148.793	7945
1151.105	7901
1153.414	7962
1155.725	8008
1158.033	7969
1160.344	7978
1162.651	7904
1164.959	7932
1167.265	7911
1169.572	7870
1171.878	8087
1174.184	7954
1176.488	8057
1178.79	8087
1181.094	7999
1183.396	7934
1185.699	7909
1188.001	8005
1190.301	7928
1192.6	7960
1194.9	7894
1197.2	7944
1199.497	8024
1201.794	8001
1204.09	7990
1206.387	7895
1208.684	7947
1210.978	8065
1213.272	7930
1215.565	7971
1217.858	8120
1220.15	8123
1222.443	8074
1224.734	7964
1227.024	8097
1229.313	8153
1231.602	8127
1233.892	8142
1236.18	8215
1238.467	8220
1240.754	8288
1243.04	8250
1245.325	8241
1247.612	8271
1249.896	8373
1252.178	8256
1254.461	8268
1256.743	8305
1259.027	8303
1261.308	8363
1263.587	8273
1265.867	8202
1268.146	8457
1270.425	8325
1272.703	8212
1274.981	8302
1277.256	8381
1279.532	8276
1281.808	8196
1284.083	8177
1286.358	8228
1288.63	8207
1290.904	8182
1293.175	8234
1295.449	8290
1297.719	8277
1299.99	8182
1302.259	8013
1304.529	8260
1306.798	8215
1309.065	8129
1311.333	8193
1313.599	8224
1315.866	8226
1318.131	8253
1320.396	8182
1322.66	8310
1324.925	8295
1327.187	8179
1329.448	8224
1331.711	8286
1333.974	8331
1336.234	8345
1338.493	8236
1340.752	8226
1343.01	8158
1345.269	8128
1347.526	8225
1349.784	8239
1352.04	8204
1354.295	8086
1356.552	8261
1358.806	8097
1361.059	8168
1363.312	8288
1365.564	8140
1367.818	8203
1370.069	8314
1372.318	8204
1374.568	8212
1376.817	8307
1379.066	8282
1381.316	8350
1383.564	8270
1385.809	8293
1388.056	8280
1390.301	8349
1392.549	8446
1394.793	8489
1397.036	8505
1399.279	8499
1401.522	8579
1403.763	8519
1406.007	8550
1408.248	8489
1410.487	8436
1412.727	8540
1414.965	8447
1417.205	8553
1419.442	8512
1421.68	8474
1423.915	8472
1426.152	8517
1428.388	8430
1430.623	8413
1432.857	8505
1435.091	8527
1437.323	8577
1439.556	8599
1441.789	8551
1444.019	8576
1446.25	8544
1448.48	8568
1450.708	8651
1452.938	8626
1455.167	8631
1457.394	8535
1459.62	8732
1461.846	8542
1464.073	8443
1466.299	8542
1468.523	8613
1470.746	8586
1472.969	8519
1475.191	8371
1477.415	8336
1479.636	8358
1481.858	8337
1484.078	8452
1486.298	8312
1488.518	8220
1490.736	8357
1492.954	8293
1495.169	8242
1497.386	8318
1499.602	8320
1501.819	8215
1504.034	8149
1506.248	8328
1508.462	8209
1510.675	8189
1512.888	8245
1515.1	8213
1517.311	8251
1519.522	8114
1521.732	8116
1523.942	8326
1526.151	8233
1528.36	8039
1530.566	8204
1532.773	8201
1534.98	8152
1537.187	8195
1539.392	8264
1541.596	8318
1543.801	8249
1546.005	8389
1548.208	8270
1550.411	8251
1552.612	8269
1554.814	8353
1557.013	8326
1559.212	8224
1561.414	8318
1563.612	8464
1565.811	8243
1568.007	8358
1570.203	8421
1572.403	8410
1574.598	8399
1576.792	8304
1578.988	8334
1581.181	8470
1583.376	8452
1585.568	8423
1587.761	8540
1589.952	8540
1592.143	8498
1594.333	8412
1596.524	8479
1598.715	8545
1600.903	8419
1603.091	8454
1605.278	8604
1607.466	8563
1609.652	8490
1611.838	8545
1614.023	8558
1616.207	8560
1618.391	8589
1620.576	8526
1622.759	8584
1624.941	8514
1627.123	8533
1629.304	8648
1631.484	8510
1633.664	8603
1635.844	8531
1638.022	8669
1640.201	8597
1642.38	8487
1644.556	8705
1646.732	8683
1648.908	8541
1651.084	8678
1653.257	8661
1655.433	8598
1657.607	8743
1659.779	8868
1661.951	8562
1664.122	8926
1666.295	8566
1668.467	8716
1670.635	8644
1672.805	8742
1674.973	8660
1677.142	8506
1679.31	8766
1681.478	8583
1683.644	8705
1685.81	8715
1687.975	8517
1690.142	8587
1692.305	8459
1694.468	8568
1696.632	8564
1698.794	8578
1700.957	8517
1703.119	8626
1705.279	8478
1707.439	8502
1709.598	8667
1711.758	8565
1713.917	8325
1716.075	8421
1718.231	8439
1720.388	8521
1722.543	8377
1724.702	8400
1726.856	8394
1729.01	8452
1731.164	8391
1733.317	8548
1735.471	8484
1737.623	8437
1739.774	8415
1741.925	8564
1744.075	8411
1746.225	8466
1748.376	8321
1750.524	8633
1752.672	8435
1754.82	8449
1756.965	8406
1759.113	8474
1761.259	8490
1763.405	8456
1765.549	8495
1767.694	8508
1769.836	8619
1771.981	8477
1774.123	8614
1776.264	8518
1778.405	8641
1780.546	8548
1782.687	8563
1784.827	8550
1786.966	8575
1789.103	8409
1791.242	8606
1793.381	8616
1795.517	8436
1797.653	8465
1799.788	8597
1801.923	8591
1804.057	8541
1806.193	8409
1808.326	8515
1810.457	8481
1812.59	8466
1814.721	8592
1816.855	8504
1818.984	8572
1821.113	8595
1823.244	8624
1825.372	8454
1827.499	8538
1829.63	8456
1831.756	8357
1833.882	8441
1836.007	8454
1838.132	8530
1840.26	8617
1842.384	8408
1844.507	8448
1846.63	8445
1848.752	8339
1850.875	8443
1852.996	8479
1855.118	8524
1857.238	8405
1859.358	8430
1861.477	8542
1863.597	8427
1865.715	8429
1867.832	8484
1869.948	8512
1872.064	8448
1874.181	8468
1876.297	8518
1878.411	8399
1880.526	8488
1882.639	8389
1884.752	8412
1886.865	8430
1888.977	8422
1891.089	8482
1893.2	8387
1895.308	8515
1897.42	8517
1899.53	8414
1901.639	8570
1903.745	8443
1905.853	8583
1907.962	8510
1910.067	8452
1912.174	8619
1914.278	8587
1916.383	8504
1918.486	8593
1920.592	8535
1922.694	8511
1924.797	8521
1926.898	8491
1929	8636
1931.102	8529
1933.203	8577
1935.301	8506
1937.401	8610
1939.499	8524
1941.598	8712
1943.697	8567
1945.793	8600
1947.888	8598
1949.985	8581
1952.08	8668
1954.176	8536
1956.269	8704
1958.364	8478
1960.457	8569
1962.549	8588
1964.642	8628
1966.733	8572
1968.823	8638
1970.913	8490
1973.005	8528
1975.093	8626
1977.184	8558
1979.271	8477
1981.359	8483
1983.446	8623
1985.532	8460
1987.619	8548
1989.705	8365
1991.789	8625
1993.874	8545
1995.956	8447
1998.041	8404
2000.123	8439
2002.206	8584
2004.287	8379
2006.368	8464
2008.449	8324
2010.529	8557
2012.609	8625
2014.688	8531
2016.766	8518
2018.843	8449
2020.922	8336
2022.999	8449
2025.074	8515
2027.15	8480
2029.225	8486
2031.299	8490
2033.375	8490
2035.447	8323
2037.52	8554
2039.592	8335
2041.664	8421
2043.736	8536
2045.807	8403
2047.876	8612
2049.947	8557
2052.015	8472
2054.086	8380
2056.153	8475
2058.221	8306
2060.288	8339
2062.353	8476
2064.42	8396
2066.486	8478
2068.55	8558
2070.614	8335
2072.678	8500
2074.741	8300
2076.805	8550
2078.866	8467
2080.929	8473
2082.99	8500
2085.049	8422
2087.109	8513
2089.17	8536
2091.228	8426
2093.286	8543
2095.344	8523
2097.4	8444
2099.46	8553
2101.516	8350
2103.572	8474
2105.626	8535
2107.679	8425
2109.735	8395
2111.788	8430
2113.841	8591
2115.894	8545
2117.945	8503
2119.997	8422
2122.049	8417
2124.1	8545
2126.148	8453
2128.197	8408
2130.246	8385
2132.296	8481
2134.342	8338
2136.39	8408
2138.437	8408
2140.483	8379
2142.527	8408
2144.574	8448
2146.619	8368
2148.661	8352
2150.705	8395
2152.747	8354
2154.792	8346
2156.832	8407
2158.874	8390
2160.915	8393
2162.954	8293
2164.995	8316
2167.034	8280
2169.072	8325
2171.111	8353
2173.148	8443
2175.186	8262
2177.223	8275
2179.258	8294
2181.294	8346
2183.328	8229
2185.362	8325
2187.398	8296
2189.431	8248
2191.463	8181
2193.495	8329
2195.528	8071
2197.56	8302
2199.59	8209
2201.62	8143
2203.649	8226
2205.678	8319
2207.708	8301
2209.737	8304
2211.764	8210
2213.791	8272
2215.817	8172
2217.843	8286
2219.87	8200
2221.895	8199
2223.919	8000
2225.942	8163
2227.966	8215
2229.988	8018
2232.012	8167
2234.032	8251
2236.054	8137
2238.074	8173
2240.095	8196
2242.116	8042
2244.135	8245
2246.153	8177
2248.171	8243
2250.188	8097
2252.208	8141
2254.223	8244
2256.239	8208
2258.255	8135
2260.269	8154
2262.283	8224
2264.3	8176
2266.312	8245
2268.325	8053
2270.336	8074
2272.349	8306
2274.362	8115
2276.372	8131
2278.383	8111
2280.392	8234
2282.402	8134
2284.409	8228
2286.418	8110
2288.427	8212
2290.433	8237
2292.441	8137
2294.446	8121
2296.453	8132
2298.459	8198
2300.463	8148
2302.466	8112
2304.471	8173
2306.475	8175
2308.477	7995
2310.478	8216
2312.481	8227
2314.481	8004
2316.481	8103
2318.482	7984
2320.482	8051
2322.48	8082
2324.48	8217
2326.478	7983
2328.476	8101
2330.473	8098
2332.469	7954
2334.465	8087
2336.46	8018
2338.454	8042
2340.45	7971
2342.444	7960
2344.437	8090
2346.43	8031
2348.421	7901
2350.414	7959
2352.405	8031
2354.396	7901
2356.386	7882
2358.376	8081
2360.366	7924
2362.355	7899
2364.343	8055
2366.331	7960
2368.317	7854
2370.304	7957
2372.292	8008
2374.278	7931
2376.262	7935
2378.247	7878
2380.23	8011
2382.216	7886
2384.199	7769
2386.181	7944
2388.163	7865
2390.144	7754
2392.127	7820
2394.107	7864
2396.087	7855
2398.066	7773
2400.046	8026
2402.023	7866
2404.004	7826
2405.981	7813
2407.957	7812
2409.934	7756
2411.91	7841
2413.886	7862
2415.862	7973
2417.836	7854
2419.809	7776
2421.784	7699
2423.756	7823
2425.73	7838
2427.701	7796
2429.672	7930
2431.644	7813
2433.615	7871
2435.586	7720
2437.555	7869
2439.523	7832
2441.491	7719
2443.459	7834
2445.428	7919
2447.395	7680
2449.361	7816
2451.327	7924
2453.292	7753
2455.257	7907
2457.223	7772
2459.187	7818
2461.15	7697
2463.113	7692
2465.076	7747
2467.039	7765
2468.999	7722
2470.96	7634
2472.921	7730
2474.881	7704
2476.841	7705
2478.8	7669
2480.759	7867
2482.717	7658
2484.675	7817
2486.63	7768
2488.589	7799
2490.545	7745
2492.5	7732
2494.455	7709
2496.408	7752
2498.364	7713
2500.318	7569
2502.27	7595
2504.223	7643
2506.174	7656
2508.126	7723
2510.078	7651
2512.03	7752
2513.979	7699
2515.927	7547
2517.877	7578
2519.826	7575
2521.775	7666
2523.722	7667
2525.668	7782
2527.616	7701
2529.561	7590
2531.508	7642
2533.452	7673
2535.398	7549
2537.342	7693
2539.284	7791
2541.229	7730
2543.173	7722
2545.114	7597
2547.055	7661
2548.996	7584
2550.938	7685
2552.878	7650
2554.817	7588
2556.756	7756
2558.695	7564
2560.633	7650
2562.572	7563
2564.509	7648
2566.445	7678
2568.382	7632
2570.317	7618
2572.254	7570
2574.189	7642
2576.123	7540
2578.057	7539
2579.99	7642
2581.923	7566
2583.855	7634
2585.788	7558
2587.719	7551
2589.65	7614
2591.579	7577
2593.511	7633
2595.44	7644
2597.37	7553
2599.297	7695
2601.225	7631
2603.153	7564
2605.08	7611
2607.007	7563
2608.932	7539
2610.858	7644
2612.782	7628
2614.709	7680
2616.632	7645
2618.556	7505
2620.478	7680
2622.401	7577
2624.324	7659
2626.247	7557
2628.167	7663
2630.088	7517
2632.008	7525
2633.928	7643
2635.848	7510
2637.766	7559
2639.684	7677
2641.603	7580
2643.519	7664
2645.437	7730
2647.353	7480
2649.27	7706
2651.184	7707
2653.099	7634
2655.014	7706
2656.928	7486
2658.842	7617
2660.755	7760
2662.667	7536
2664.579	7547
2666.491	7664
2668.402	7531
2670.312	7588
2672.222	7465
2674.132	7511
2676.042	7618
2677.951	7684
2679.859	7530
2681.766	7502
2683.674	7468
2685.582	7526
2687.488	7508
2689.392	7440
2691.298	7567
2693.202	7495
2695.107	7515
2697.012	7540
2698.914	7545
2700.817	7431
2702.72	7491
2704.622	7363
2706.524	7411
2708.425	7447
2710.326	7459
2712.225	7490
2714.125	7385
2716.024	7454
2717.923	7385
2719.822	7342
2721.719	7339
2723.616	7456
2725.512	7430
2727.41	7555
2729.305	7367
2731.201	7502
2733.095	7310
2734.99	7378
2736.884	7386
2738.778	7369
2740.67	7402
2742.562	7295
2744.455	7445
2746.346	7344
2748.238	7484
2750.129	7347
2752.018	7394
2753.907	7428
2755.797	7355
2757.687	7337
2759.575	7422
2761.462	7322
2763.349	7282
2765.237	7379
2767.124	7270
2769.009	7278
2770.894	7331
2772.779	7305
2774.663	7437
2776.547	7395
2778.431	7311
2780.314	7291
2782.197	7353
2784.078	7382
2785.96	7396
2787.842	7331
2789.723	7317
2791.603	7417
2793.483	7192
2795.362	7379
2797.241	7380
2799.121	7167
2800.997	7276
2802.874	7355
2804.751	7277
2806.628	7227
2808.506	7148
2810.38	7303
2812.255	7385
2814.13	7206
2816.003	7258
2817.878	7363
2819.752	7355
2821.623	7286
2823.496	7397
2825.368	7320
2827.238	7234
2829.111	7368
2830.98	7144
2832.851	7285
2834.719	7259
2836.589	7328
2838.458	7376
2840.327	7345
2842.193	7214
2844.061	7290
2845.927	7443
2847.794	7277
2849.66	7276
2851.525	7383
2853.39	7382
2855.254	7411
2857.117	7212
2858.983	7513
2860.845	7512
2862.707	7341
2864.569	7455
2866.431	7424
2868.293	7542
2870.154	7541
2872.013	7670
2873.873	7501
2875.733	7779
2877.592	7781
2879.451	7824
2881.309	7819
2883.166	7830
2885.022	7924
2886.879	7869
2888.736	7885
2890.591	7968
2892.446	7974
2894.301	8098
2896.155	7965
2898.009	7876
2899.863	7977
2901.716	7779
2903.568	7959
2905.419	7914
2907.27	7867
2909.123	8068
2910.973	8091
2912.824	8134
2914.673	8022
2916.521	8129
2918.372	8179
2920.22	8240
2922.067	8247
2923.914	8246
2925.761	8336
2927.607	8389
2929.455	8379
2931.301	8480
2933.144	8522
2934.99	8612
2936.833	8465
2938.678	8736
2940.522	8687
2942.364	8859
2944.207	8971
2946.048	8953
2947.891	9045
2949.731	9106
2951.571	9109
2953.412	9039
2955.25	8887
2957.09	8864
2958.93	8853
2960.767	8773
2962.606	8754
2964.443	8709
2966.279	8513
2968.116	8367
2969.953	8367
2971.788	8334
2973.623	8264
2975.457	8173
2977.292	7976
2979.127	8036
2980.959	7903
2982.792	7948
2984.624	7685
2986.455	7943
2988.288	7898
2990.119	7756
2991.949	7754
2993.779	7594
2995.608	7595
2997.439	7563
2999.268	7580
3001.096	7498
3002.923	7416
3004.751	7442
3006.578	7411
3008.406	7338
3010.232	7259
3012.057	7210
3013.883	7238
3015.706	7071
3017.532	7140
3019.356	7165
3021.179	7084
3023.002	7037
3024.823	7028
3026.646	7077
3028.469	6993
3030.289	6961
3032.11	6952
3033.93	6987
3035.749	6863
3037.57	6981
3039.39	6876
3041.207	6809
3043.026	6884
3044.842	6855
3046.661	6846
3048.477	6891
3050.294	6930
3052.109	6787
3053.925	6854
3055.739	6805
3057.555	6856
3059.368	6658
3061.181	6787
3062.995	6812
3064.807	6802
3066.62	6834
3068.433	6942
3070.243	6704
3072.054	6842
3073.865	6812
3075.675	6786
3077.485	6609
3079.293	6813
3081.102	6681
3082.911	6742
3084.719	6806
3086.527	6679
3088.333	6699
3090.139	6761
3091.945	6585
3093.75	6724
3095.557	6631
3097.361	6716
3099.165	6560
3100.969	6604
3102.772	6587
3104.575	6631
3106.379	6542
3108.181	6661
3109.982	6584
3111.783	6494
3113.584	6579
3115.386	6491
3117.186	6536
3118.985	6587
3120.783	6453
3122.582	6567
3124.381	6431
3126.179	6487
3127.975	6545
3129.772	6458
3131.569	6598
3133.365	6472
3135.161	6466
3136.956	6554
3138.751	6539
3140.544	6418
3142.338	6524
3144.132	6450
3145.925	6426
3147.717	6421
3149.509	6454
3151.301	6465
3153.091	6418
3154.884	6304
3156.673	6412
3158.462	6416
3160.252	6345
3162.041	6417
3163.831	6459
3165.618	6426
3167.405	6390
3169.193	6454
3170.979	6344
3172.767	6428
3174.553	6445
3176.338	6420
3178.123	6351
3179.907	6345
3181.692	6316
3183.477	6347
3185.259	6410
3187.042	6318
3188.824	6386
3190.607	6379
3192.389	6343
3194.17	6369
3195.951	6291
3197.73	6372
3199.51	6279
3201.289	6343
3203.07	6324
3204.848	6321
3206.626	6277
3208.403	6289
3210.18	6235
3211.959	6337
3213.735	6375
3215.511	6244
3217.285	6294
3219.06	6344
3220.836	6300
3222.611	6311
3224.384	6301
3226.158	6287
3227.929	6256
3229.702	6272
3231.476	6215
3233.248	6327
3235.018	6332
3236.789	6314
3238.56	6302
3240.33	6238
3242.1	6121
3243.869	6309
3245.637	6394
3247.405	6245
3249.172	6270
3250.941	6316
3252.707	6296
3254.474	6248
3256.24	6285
3258.006	6239
3259.772	6125
3261.537	6194
3263.301	6186
3265.065	6236
3266.828	6244
3268.592	6199
3270.355	6259
3272.117	6235
3273.878	6245
3275.64	6208
3277.401	6249
3279.162	6238
3280.922	6258
3282.682	6306
3284.441	6206
3286.199	6251
3287.959	6264
3289.716	6122
3291.475	6320
3293.232	6238
3294.988	6171
3296.744	6167
3298.501	6145
3300.256	6163
3302.011	6227
3303.766	6193
3305.52	6199
3307.275	6232
3309.028	6238
3310.781	6200
3312.533	6124
3314.285	6222
3316.038	6183
3317.789	6240
3319.54	6098
3321.289	6154
3323.039	6260
3324.789	6161
3326.539	6141
3328.288	6084
3330.035	6131
3331.783	6160
3333.531	6223
3335.28	6139
3337.025	6115
3338.771	6220
3340.518	6193
3342.262	6054
3344.009	6132
3345.753	6123
3347.497	6092
3349.24	6092
3350.983	6137
3352.726	6101
3354.469	6142
3356.212	6042
3357.952	6050
3359.694	6066
3361.434	6068
3363.176	6010
3364.916	6085
3366.654	6146
3368.394	6087
3370.132	6044
3371.871	6128
3373.61	6023
3375.346	6045
3377.083	6041
3378.82	5978
3380.556	5972
3382.292	6020
3384.027	6002
3385.763	6018
3387.497	5948
3389.231	6074
3390.965	5952
3392.698	5950
3394.431	6014
3396.164	5837
3397.896	5938
3399.627	5893
3401.36	5842
3403.09	6030
3404.82	5995
3406.55	5903
3408.279	5796
3410.01	5881
3411.738	5881
3413.467	5885
3415.194	5845
3416.92	5931
3418.647	5828
3420.375	5850
3422.102	5984
3423.827	5817
3425.553	5889
3427.277	5841
3429.003	5856
3430.727	5732
3432.451	5803
3434.173	5760
3435.896	5815
3437.62	5847
3439.343	5665
3441.063	5858
3442.785	5727
3444.505	5720
3446.226	5733
3447.948	5730
3449.666	5688
3451.386	5719
3453.104	5711
3454.823	5789
3456.541	5634
3458.259	5625
3459.976	5682
3461.693	5810
3463.408	5754
3465.125	5671
3466.841	5625
3468.556	5642
3470.271	5636
3471.985	5593
3473.698	5630
3475.414	5656
3477.126	5653
3478.838	5653
3480.55	5566
3482.263	5527
3483.975	5587
3485.686	5667
3487.396	5665
3489.106	5686
3490.817	5629
3492.526	5557
3494.236	5512
3495.944	5539
3497.652	5609
3499.359	5471
3501.066	5490
3502.775	5591
3504.481	5465
3506.187	5550
3507.893	5602
3509.598	5361
3511.304	5486
3513.009	5337
3514.713	5365
3516.417	5430
3518.12	5357
3519.821	5424
3521.525	5409
3523.228	5426
3524.929	5343
3526.631	5462
3528.33	5377
3530.032	5457
3531.733	5390
3533.433	5431
3535.131	5359
3536.83	5387
3538.529	5363
3540.227	5441
3541.925	5416
3543.623	5310
3545.319	5392
3547.016	5322
3548.712	5357
3550.408	5313
3552.103	5327
3553.798	5355
3555.491	5220
3557.188	5358
3558.88	5246
3560.574	5277
3562.266	5280
3563.959	5206
3565.651	5294
3567.343	5248
3569.035	5256
3570.725	5287
3572.415	5180
3574.106	5186
3575.797	5157
3577.485	5210
3579.174	5191
3580.863	5241
3582.551	5156
3584.238	5208
3585.926	5288
3587.613	5160
3589.3	5129
3590.986	5232
3592.671	5196
3594.357	5257
3596.042	5145
3597.726	5083
3599.41	5100
3601.094	5104
3602.778	5080
3604.461	5141
3606.143	5044
3607.825	5096
3609.507	5086
3611.188	5073
3612.87	4995
3614.551	4963
3616.229	5009
3617.909	5031
3619.589	4947
3621.269	4965
3622.948	4935
3624.625	5005
3626.302	5015
3627.98	4912
3629.657	4987
3631.334	5044
3633.01	4926
3634.686	4970
3636.361	4854
3638.036	4932
3639.712	4920
3641.385	4909
3643.06	4853
3644.732	4896
3646.405	4983
3648.08	4887
3649.751	4810
3651.424	4949
3653.094	4787
3654.766	4786
3656.436	4863
3658.106	4808
3659.777	4761
3661.446	4968
3663.115	4880
3664.783	4906
3666.452	4894
3668.121	4767
3669.788	4786
3671.454	4890
3673.121	4719
3674.789	4691
3676.455	4771
3678.12	4798
3679.784	4740
3681.45	4823
3683.114	4778
3684.779	4711
3686.442	4850
3688.105	4703
3689.768	4756
3691.43	4714
3693.093	4732
3694.754	4735
3696.415	4762
3698.076	4697
3699.736	4724
3701.396	4733
3703.057	4738
3704.716	4733
3706.375	4670
3708.034	4649
3709.692	4640
3711.351	4671
3713.008	4727
3714.665	4670
3716.321	4744
3717.977	4700
3719.634	4705
3721.29	4639
3722.945	4653
3724.598	4602
3726.253	4736
3727.907	4801
3729.561	4764
3731.214	4586
3732.867	4676
3734.518	4704
3736.171	4616
3737.824	4654
3739.474	4644
3741.125	4585
3742.775	4606
3744.425	4614
3746.074	4536
3747.725	4557
3749.373	4550
3751.022	4562
3752.669	4647
3754.318	4600
3755.966	4611
3757.612	4619
3759.259	4537
3760.905	4538
3762.55	4630
3764.197	4515
3765.842	4623
3767.486	4537
3769.131	4524
3770.774	4539
3772.417	4446
3774.061	4530
3775.705	4518
3777.347	4489
3778.988	4549
3780.629	4490
3782.271	4449
3783.912	4559
3785.552	4535
3787.192	4483
3788.831	4488
3790.472	4456
3792.112	4496
3793.75	4426
3795.388	4379
3797.024	4481
3798.661	4507
3800.3	4402
3801.936	4408
3803.572	4443
3805.208	4328
3806.844	4391
3808.48	4456
3810.115	4430
3811.748	4421
3813.382	4398
3815.016	4338
3816.649	4412
3818.283	4445
3819.914	4425
3821.547	4396
3823.178	4412
3824.809	4455
3826.441	4416
3828.072	4446
3829.701	4436
3831.331	4357
3832.96	4380
3834.591	4355
3836.219	4323
3837.847	4356
3839.475	4378
3841.102	4300
3842.729	4301
3844.357	4303
3845.984	4350
3847.609	4262
3849.234	4267
3850.86	4270
3852.485	4353
3854.11	4299
3855.734	4260
3857.357	4280
3858.981	4296
3860.603	4247
3862.227	4291
3863.848	4274
3865.471	4298
3867.092	4236
3868.713	4206
3870.334	4273
3871.954	4285
3873.575	4315
3875.194	4296
3876.813	4167
3878.433	4159
3880.051	4211
3881.669	4249
3883.286	4288
3884.904	4216
3886.52	4260
3888.138	4252
3889.754	4231
3891.37	4155
3892.985	4204
3894.6	4160
3896.216	4210
3897.831	4275
3899.444	4126
3901.058	4213
3902.67	4113
3904.283	4161
3905.897	4096
3907.509	4230
3909.121	4156
3910.731	4197
3912.342	4109
3913.954	4215
3915.563	4247
3917.174	4147
3918.783	4176
3920.391	4082
3922.002	4156
3923.611	4157
3925.218	4187
3926.826	4208
3928.432	4135
3930.039	4182
3931.647	4138
3933.253	4088
3934.859	4095
3936.464	4113
3938.068	4092
3939.675	4157
3941.278	4060
3942.883	4196
3944.486	4093
3946.089	4047
3947.692	4146
3949.295	4101
3950.898	4081
3952.499	4197
3954.1	4112
3955.7	4141
3957.303	4042
3958.903	4044
3960.502	4127
3962.101	4026
3963.7	4132
3965.301	3971
3966.899	4066
3968.497	3969
3970.094	3985
3971.691	4055
3973.288	4028
3974.885	4002
3976.481	4018
3978.077	3970
3979.672	3997
3981.267	4026
3982.863	3968
3984.457	3954
3986.051	4002
3987.645	3963
3989.238	3960
3990.831	3948
3992.425	3914
3994.017	3961
3995.607	3910
3997.199	3870
3998.79	3938
4000.382	3899
4001.973	3898
4003.561	3876
4005.151	3875
4006.741	3922
4008.331	3936
4009.918	3975
4011.507	3916
4013.095	3877
4014.681	3830
4016.269	3850
4017.856	3940
4019.443	3788
4021.028	3808
4022.614	3849
4024.199	3819
4025.785	3807
4027.37	3725
4028.953	3879
4030.536	3791
4032.12	3847
4033.704	3776
4035.287	3832
4036.869	3797
4038.45	3860
4040.032	3801
4041.613	3826
4043.195	3784
4044.776	3930
4046.356	3803
4047.935	3802
4049.515	3797
4051.095	3748
4052.674	3727
4054.251	3700
4055.829	3750
4057.406	3741
4058.985	3834
4060.562	3709
4062.139	3793
4063.715	3818
4065.29	3754
4066.865	3770
4068.442	3721
4070.016	3703
4071.59	3713
4073.164	3693
4074.738	3743
4076.312	3735
4077.885	3635
4079.458	3791
4081.03	3737
4082.602	3710
4084.173	3735
4085.745	3782
4087.315	3678
4088.886	3661
4090.456	3679
4092.026	3630
4093.596	3648
4095.165	3634
4096.734	3706
4098.301	3571
4099.869	3693
4101.437	3604
4103.006	3691
4104.572	3640
4106.139	3655
4107.704	3630
4109.27	3743
4110.837	3634
4112.401	3662
4113.966	3600
4115.53	3637
4117.094	3550
4118.659	3649
4120.223	3602
4121.785	3507
4123.347	3557
4124.909	3527
4126.471	3586
4128.034	3587
4129.595	3518
4131.155	3583
4132.716	3570
4134.275	3551
4135.836	3514
4137.395	3438
4138.955	3563
4140.513	3607
4142.071	3534
4143.628	3535
4145.188	3520
4146.745	3634
4148.302	3535
4149.858	3506
4151.414	3470
4152.971	3493
4154.526	3506
4156.081	3505
4157.635	3507
4159.189	3506
4160.745	3463
4162.298	3441
4163.852	3429
4165.405	3512
4166.957	3470
4168.51	3380
4170.063	3438
4171.614	3464
4173.166	3410
4174.717	3498
4176.267	3461
4177.817	3499
4179.368	3358
4180.917	3474
4182.466	3429
4184.016	3434
4185.564	3393
4187.112	3368
4188.66	3418
4190.207	3401
4191.754	3418
4193.301	3353
4194.848	3387
4196.394	3406
4197.94	3393
4199.484	3387
4201.03	3318
4202.575	3391
4204.12	3410
4205.663	3423
4207.207	3330
4208.75	3398
4210.292	3386
4211.836	3330
4213.378	3367
4214.92	3328
4216.46	3295
4218.002	3352
4219.544	3340
4221.083	3331
4222.625	3381
4224.164	3369
4225.703	3339
4227.244	3276
4228.782	3352
4230.32	3334
4231.857	3348
4233.395	3291
4234.933	3312
4236.471	3306
4238.007	3314
4239.542	3250
4241.078	3329
4242.614	3313
4244.15	3243
4245.685	3328
4247.219	3385
4248.753	3231
4250.287	3332
4251.82	3286
4253.354	3284
4254.887	3212
4256.419	3304
4257.951	3215
4259.483	3280
4261.016	3292
4262.547	3188
4264.078	3324
4265.608	3206
4267.137	3200
4268.668	3245
4270.197	3218
4271.727	3180
4273.254	3255
4274.783	3263
4276.311	3337
4277.84	3123
4279.366	3230
4280.894	3194
4282.42	3148
4283.946	3188
4285.473	3193
4286.998	3175
4288.523	3057
4290.047	3176
4291.572	3184
4293.096	3210
4294.622	3200
4296.144	3138
4297.668	3149
4299.19	3096
4300.713	3124
4302.236	3174
4303.758	3135
4305.279	3227
4306.799	3132
4308.321	3162
4309.842	3197
4311.361	3152
4312.882	3110
4314.401	3112
