400.0961	12978
402.6185	13077
405.1424	12973
407.6635	13132
410.1838	13214
412.7035	13085
415.2225	13183
417.7388	13326
420.2585	13294
422.7754	13428
425.2917	13610
427.8072	13562
430.3221	13587
432.8363	13671
435.3498	13662
437.8626	13601
440.3727	13763
442.8841	13944
445.3969	13772
447.907	13855
450.4142	13836
452.9229	13858
455.4289	13788
457.9362	13948
460.4449	13898
462.9488	14077
465.454	14033
467.9566	14048
470.4604	13912
472.9637	14134
475.4662	14234
477.966	14148
480.4671	14289
482.9656	14315
485.4633	14373
487.9645	14453
490.4608	14501
492.9566	14406
495.4536	14490
497.948	14594
500.4437	14479
502.9387	14580
505.431	14841
507.9226	14739
510.4136	14765
512.9079	14624
515.3975	14709
517.8864	14892
520.3746	14838
522.8622	14819
525.3491	14740
527.8394	14977
530.3249	14682
532.8098	14794
535.2939	14740
537.7774	14933
540.2623	14849
542.7444	14819
545.2259	14853
547.7067	14841
550.1868	14859
552.6683	14851
555.147	14791
557.6231	14757
560.1005	14991
562.5773	14767
565.0534	14879
567.5308	14951
570.0056	15177
572.4776	15029
574.951	15166
577.4237	15119
579.8978	15214
582.3671	15223
584.8378	15249
587.3079	15176
589.7773	15248
592.244	15317
594.714	15258
597.1793	15312
599.6461	15201
602.1121	15193
604.5754	15314
607.0421	15436
609.5042	15376
611.9675	15264
614.4282	15237
616.8902	15168
619.3515	15152
621.8122	15307
624.2702	15354
626.7296	15306
629.1863	15286
631.6423	15335
634.1017	15157
636.5563	15294
639.0104	15528
641.4658	15326
643.9185	15374
646.3725	15634
648.8239	15567
651.2766	15546
653.7266	15589
656.176	15675
658.6247	15597
661.0748	15547
663.5242	15942
665.9709	15819
668.417	15844
670.8624	15751
673.3092	15910
675.7533	15745
678.1968	15856
680.6395	16035
683.0817	16027
685.5251	16078
687.9659	16002
690.4061	15907
692.8456	16123
695.2844	16063
697.7226	16072
700.1621	16028
702.599	16170
705.0332	16198
707.4688	16102
709.9036	16292
712.3399	16301
714.7735	16322
717.2044	16307
719.6367	16370
722.0683	16396
724.4993	16449
726.9296	16602
729.3593	16414
731.7883	16675
734.2147	16526
736.6423	16530
739.0714	16838
741.4958	16730
743.9216	16803
746.3447	16708
748.7691	17031
751.1929	16913
753.616	16948
756.0366	16883
758.4584	17119
760.8776	17104
763.2982	17221
765.718	17273
768.1373	17186
770.5539	17102
772.9698	17110
775.3871	17299
777.8038	17306
780.2178	17170
782.6332	17057
785.0459	17394
787.458	17213
789.8714	17172
792.2842	17271
794.6943	17169
797.1038	17255
799.5127	17235
801.9209	17190
804.3324	17265
806.7393	17321
809.1456	17358
811.5513	17355
813.9562	17395
816.3625	17400
818.7663	17448
821.1693	17394
823.5718	17536
825.9735	17493
828.3746	17457
830.7771	17414
833.177	17475
835.5762	17544
837.9747	17384
840.3727	17446
842.772	17568
845.1666	17579
847.5626	17488
849.958	17544
852.3527	17461
854.7488	17794
857.1403	17478
859.5331	17524
861.9253	17662
864.3168	17620
866.7057	17566
869.098	17592
871.4876	17672
873.8746	17472
876.263	17589
878.6487	17508
881.0378	17528
883.4243	17412
885.8081	17419
888.1933	17580
890.5759	17446
892.9598	17440
895.343	17435
897.7256	17710
900.1057	17671
902.4871	17714
904.8659	17731
907.246	17509
909.6254	17944
912.0023	17760
914.3786	17644
916.7562	17891
919.1331	17835
921.5074	17980
923.8831	18024
926.2562	18149
928.6287	18104
931.0005	18201
933.3757	17963
935.7462	18015
938.1162	18207
940.4855	18350
942.8542	18187
945.2242	18464
947.5916	18359
949.9584	18520
952.3266	18754
954.6921	19051
957.0571	18926
959.4233	19286
961.787	19052
964.15	19156
966.5125	18974
968.8742	18902
971.2354	18678
973.5959	18201
975.9559	18424
978.3151	18278
980.6738	18244
983.0338	18087
985.3912	18102
987.7461	18270
990.1022	18164
992.4578	17936
994.8127	18278
997.1689	18171
999.5207	18003
1001.874	18186
1004.226	18256
1006.576	17978
1008.929	18170
1011.28	18186
1013.628	18041
1015.977	17984
1018.324	18220
1020.674	18083
1023.019	18205
1025.366	18332
1027.713	18209
1030.056	18129
1032.399	18271
1034.746	18200
1037.087	18260
1039.431	18388
1041.771	18263
1044.113	18339
1046.454	18526
1048.793	18339
1051.133	18410
1053.471	18237
1055.807	18369
1058.146	18555
1060.483	18425
1062.818	18424
1065.153	18708
1067.489	18387
1069.822	18367
1072.156	18520
1074.488	18591
1076.82	18549
1079.15	18537
1081.48	18294
1083.814	18552
1086.143	18405
1088.471	18667
1090.799	18478
1093.126	18362
1095.452	18480
1097.78	18559
1100.105	18707
1102.43	18334
1104.754	18569
1107.077	18636
1109.4	18565
1111.722	18539
1114.044	18696
1116.365	18819
1118.685	18614
1121.005	18754
1123.324	18828
1125.643	18475
1127.961	18831
1130.278	18731
1132.595	18993
1134.911	18828
1137.226	18687
1139.541	18750
1141.854	18944
1144.167	18842
1146.482	19121
1148.793	18671
1151.105	18857
1153.414	18610
1155.725	18818
1158.033	18680
1160.344	18861
1162.651	18918
1164.959	18557
1167.265	18831
1169.572	18949
1171.878	18779
1174.184	18684
1176.488	18935
1178.79	18952
1181.094	18976
1183.396	18883
1185.699	18936
1188.001	18798
1190.301	18753
1192.6	18737
1194.9	18979
1197.2	18866
1199.497	18786
1201.794	18553
1204.09	18743
1206.387	18929
1208.684	19007
1210.978	18844
1213.272	18856
1215.565	18838
1217.858	18850
1220.15	18865
1222.443	18920
1224.734	18876
1227.024	18931
1229.313	18976
1231.602	19210
1233.892	19123
1236.18	18995
1238.467	19074
1240.754	19402
1243.04	19354
1245.325	19154
1247.612	19165
1249.896	19224
1252.178	19211
1254.461	19214
1256.743	19056
1259.027	19242
1261.308	19442
1263.587	19239
1265.867	19157
1268.146	19101
1270.425	19216
1272.703	19204
1274.981	19105
1277.256	19328
1279.532	19172
1281.808	19301
1284.083	19155
1286.358	19044
1288.63	19226
1290.904	18983
1293.175	19222
1295.449	19044
1297.719	19010
1299.99	19149
1302.259	18996
1304.529	19061
1306.798	19117
1309.065	19290
1311.333	19201
1313.599	19071
1315.866	19104
1318.131	19165
1320.396	19209
1322.66	19129
1324.925	19363
1327.187	19266
1329.448	19291
1331.711	19309
1333.974	19086
1336.234	19025
1338.493	19408
1340.752	19042
1343.01	19199
1345.269	19201
1347.526	19159
1349.784	19134
1352.04	19251
1354.295	19078
1356.552	19160
1358.806	19076
1361.059	19487
1363.312	19202
1365.564	19344
1367.818	19248
1370.069	19188
1372.318	19355
1374.568	19126
1376.817	19335
1379.066	19290
1381.316	19203
1383.564	19322
1385.809	19369
1388.056	19395
1390.301	19274
1392.549	19189
1394.793	19635
1397.036	19468
1399.279	19617
1401.522	19545
1403.763	19557
1406.007	19412
1408.248	19553
1410.487	19464
1412.727	19517
1414.965	19550
1417.205	19471
1419.442	19769
1421.68	19599
1423.915	19633
1426.152	19571
1428.388	19673
1430.623	19644
1432.857	19760
1435.091	19723
1437.323	19762
1439.556	19873
1441.789	19863
1444.019	19648
1446.25	19812
1448.48	19898
1450.708	19847
1452.938	19728
1455.167	19736
1457.394	19941
1459.62	19725
1461.846	19853
1464.073	19699
1466.299	19887
1468.523	19511
1470.746	19688
1472.969	19746
1475.191	19515
1477.415	19672
1479.636	19478
1481.858	19565
1484.078	19397
1486.298	19421
1488.518	19493
1490.736	19391
1492.954	19228
1495.169	19250
1497.386	19490
1499.602	19379
1501.819	19298
1504.034	19296
1506.248	19188
1508.462	19210
1510.675	19324
1512.888	19180
1515.1	19353
1517.311	19279
1519.522	19286
1521.732	19211
1523.942	19339
1526.151	19190
1528.36	19439
1530.566	19269
1532.773	19293
1534.98	19295
1537.187	19253
1539.392	19248
1541.596	19542
1543.801	19447
1546.005	19301
1548.208	19341
1550.411	19509
1552.612	19400
1554.814	19428
1557.013	19383
1559.212	19659
1561.414	19520
1563.612	19611
1565.811	19654
1568.007	19750
1570.203	19690
1572.403	19516
1574.598	19647
1576.792	19522
1578.988	19778
1581.181	19561
1583.376	19840
1585.568	19817
1587.761	19829
1589.952	19686
1592.143	20025
1594.333	19783
1596.524	19853
1598.715	19771
1600.903	19994
1603.091	19963
1605.278	20096
1607.466	19784
1609.652	19708
1611.838	19849
1614.023	19780
1616.207	19863
1618.391	19665
1620.576	19896
1622.759	20066
1624.941	19978
1627.123	19835
1629.304	19971
1631.484	19638
1633.664	19803
1635.844	20003
1638.022	19804
1640.201	19942
1642.38	19805
1644.556	19713
1646.732	20069
1648.908	19839
1651.084	19809
1653.257	19877
1655.433	19902
1657.607	19695
1659.779	20088
1661.951	19844
1664.122	20173
1666.295	20042
1668.467	19829
1670.635	19805
1672.805	20051
1674.973	19896
1677.142	19916
1679.31	19859
1681.478	19789
1683.644	20036
1685.81	20194
1687.975	19767
1690.142	19693
1692.305	19884
1694.468	19772
1696.632	19788
1698.794	20101
1700.957	19689
1703.119	19867
1705.279	19905
1707.439	19906
1709.598	19681
1711.758	19730
1713.917	19766
1716.075	19958
1718.231	19692
1720.388	19923
1722.543	19872
1724.702	19915
1726.856	19730
1729.01	19722
1731.164	19791
1733.317	19800
1735.471	19763
1737.623	19638
1739.774	19694
1741.925	19830
1744.075	19748
1746.225	19998
1748.376	19903
1750.524	19846
1752.672	19772
1754.82	19943
1756.965	20034
1759.113	19854
1761.259	19706
1763.405	20032
1765.549	19955
1767.694	20018
1769.836	19884
1771.981	20037
1774.123	20106
1776.264	19900
1778.405	20047
1780.546	20045
1782.687	19785
1784.827	20005
1786.966	20025
1789.103	20049
1791.242	19846
1793.381	19840
1795.517	19957
1797.653	19965
1799.788	19993
1801.923	20069
1804.057	20056
1806.193	19951
1808.326	19976
1810.457	20097
1812.59	20058
1814.721	20184
1816.855	19996
1818.984	20057
1821.113	19833
1823.244	19874
1825.372	20028
1827.499	19665
1829.63	19728
1831.756	19865
1833.882	19750
1836.007	19812
1838.132	19687
1840.26	19844
1842.384	19838
1844.507	19805
1846.63	19760
1848.752	19717
1850.875	19529
1852.996	19702
1855.118	19617
1857.238	19911
1859.358	19742
1861.477	19496
1863.597	19664
1865.715	19804
1867.832	19623
1869.948	19634
1872.064	19793
1874.181	19577
1876.297	19608
1878.411	19578
1880.526	19727
1882.639	19789
1884.752	19618
1886.865	19702
1888.977	19675
1891.089	19718
1893.2	19487
1895.308	19809
1897.42	19689
1899.53	19792
1901.639	19887
1903.745	19980
1905.853	19874
1907.962	19930
1910.067	19858
1912.174	20010
1914.278	19948
1916.383	20034
1918.486	19770
1920.592	19886
1922.694	19991
1924.797	20020
1926.898	19872
1929	19846
1931.102	19916
1933.203	19947
1935.301	19893
1937.401	19764
1939.499	20293
1941.598	19875
1943.697	19950
1945.793	19800
1947.888	20236
1949.985	20076
1952.08	19951
1954.176	19921
1956.269	20062
1958.364	19895
1960.457	19829
1962.549	20061
1964.642	19841
1966.733	19837
1968.823	19844
1970.913	19825
1973.005	19858
1975.093	19863
1977.184	19694
1979.271	19907
1981.359	19866
1983.446	19845
1985.532	19839
1987.619	19823
1989.705	19474
1991.789	19698
1993.874	19846
1995.956	19712
1998.041	19731
2000.123	19556
2002.206	19508
2004.287	19663
2006.368	19524
2008.449	19594
2010.529	19747
2012.609	19658
2014.688	19503
2016.766	19466
2018.843	19569
2020.922	19407
2022.999	19630
2025.074	19702
2027.15	19488
2029.225	19628
2031.299	19640
2033.375	19522
2035.447	19511
2037.52	19439
2039.592	19695
2041.664	19616
2043.736	19571
2045.807	19627
2047.876	19357
2049.947	19668
2052.015	19529
2054.086	19435
2056.153	19620
2058.221	19514
2060.288	19500
2062.353	19463
2064.42	19556
2066.486	19544
2068.55	19697
2070.614	19609
2072.678	19614
2074.741	19753
2076.805	19741
2078.866	19602
2080.929	19460
2082.99	19659
2085.049	19791
2087.109	19557
2089.17	19612
2091.228	19478
2093.286	19419
2095.344	19493
2097.4	19629
2099.46	19301
2101.516	19658
2103.572	19664
2105.626	19644
2107.679	19462
2109.735	19450
2111.788	19562
2113.841	19626
2115.894	19596
2117.945	19644
2119.997	19530
2122.049	19450
2124.1	19562
2126.148	19547
2128.197	19533
2130.246	19493
2132.296	19665
2134.342	19268
2136.39	19579
2138.437	19394
2140.483	19449
2142.527	19383
2144.574	19245
2146.619	19260
2148.661	19526
2150.705	19317
2152.747	19242
2154.792	19209
2156.832	19436
2158.874	19409
2160.915	19194
2162.954	19522
2164.995	19180
2167.034	19168
2169.072	19309
2171.111	19369
2173.148	19026
2175.186	19153
2177.223	19258
2179.258	19093
2181.294	19217
2183.328	19230
2185.362	18998
2187.398	18988
2189.431	18912
2191.463	19207
2193.495	19081
2195.528	18956
2197.56	18896
2199.59	18942
2201.62	18945
2203.649	18741
2205.678	19040
2207.708	18923
2209.737	18863
2211.764	19013
2213.791	18570
2215.817	18776
2217.843	18644
2219.87	18787
2221.895	18812
2223.919	18528
2225.942	18804
2227.966	18870
2229.988	18731
2232.012	18652
2234.032	18849
2236.054	18713
2238.074	18636
2240.095	18931
2242.116	18642
2244.135	18703
2246.153	18719
2248.171	18621
2250.188	18749
2252.208	18583
2254.223	18836
2256.239	18814
2258.255	18816
2260.269	18590
2262.283	18656
2264.3	18681
2266.312	18639
2268.325	18887
2270.336	18715
2272.349	18745
2274.362	18878
2276.372	18712
2278.383	18717
2280.392	18554
2282.402	18796
2284.409	18778
2286.418	18691
2288.427	18885
2290.433	18765
2292.441	18692
2294.446	18664
2296.453	18592
2298.459	18724
2300.463	18648
2302.466	18662
2304.471	18544
2306.475	18671
2308.477	18559
2310.478	18481
2312.481	18703
2314.481	18754
2316.481	18575
2318.482	18443
2320.482	18515
2322.48	18468
2324.48	18623
2326.478	18304
2328.476	18389
2330.473	18423
2332.469	18289
2334.465	18349
2336.46	18384
2338.454	18508
2340.45	18237
2342.444	18405
2344.437	18256
2346.43	18499
2348.421	18183
2350.414	18132
2352.405	18154
2354.396	18469
2356.386	18354
2358.376	18168
2360.366	18006
2362.355	18296
2364.343	18075
2366.331	18032
2368.317	18352
2370.304	17880
2372.292	18184
2374.278	17940
2376.262	18092
2378.247	17938
2380.23	18130
2382.216	18032
2384.199	18052
2386.181	18162
2388.163	18094
2390.144	17764
2392.127	18052
2394.107	17972
2396.087	17940
2398.066	17689
2400.046	17944
2402.023	17748
2404.004	17895
2405.981	17968
2407.957	17855
2409.934	17740
2411.91	17912
2413.886	18022
2415.862	17726
2417.836	17808
2419.809	17811
2421.784	17804
2423.756	17768
2425.73	17708
2427.701	17714
2429.672	17918
2431.644	17742
2433.615	17885
2435.586	17821
2437.555	17706
2439.523	17774
2441.491	17820
2443.459	17863
2445.428	17681
2447.395	17653
2449.361	17644
2451.327	17643
2453.292	17752
2455.257	17614
2457.223	17788
2459.187	17506
2461.15	17557
2463.113	17549
2465.076	17592
2467.039	17482
2468.999	17626
2470.96	17535
2472.921	17561
2474.881	17567
2476.841	17292
2478.8	17352
2480.759	17584
2482.717	17467
2484.675	17538
2486.63	17359
2488.589	17288
2490.545	17492
2492.5	17420
2494.455	17640
2496.408	17389
2498.364	17577
2500.318	17503
2502.27	17470
2504.223	17143
2506.174	17409
2508.126	17247
2510.078	17171
2512.03	17177
2513.979	17236
2515.927	17189
2517.877	17451
2519.826	17168
2521.775	17178
2523.722	17291
2525.668	17174
2527.616	17192
2529.561	17322
2531.508	17107
2533.452	17262
2535.398	17142
2537.342	17052
2539.284	17060
2541.229	17248
2543.173	17262
2545.114	17370
2547.055	17338
2548.996	17086
2550.938	17170
2552.878	17213
2554.817	17223
2556.756	17162
2558.695	16996
2560.633	17149
2562.572	17047
2564.509	17214
2566.445	17349
2568.382	17135
2570.317	17211
2572.254	17030
2574.189	17208
2576.123	17182
2578.057	17093
2579.99	17146
2581.923	16996
2583.855	17145
2585.788	17163
2587.719	17010
2589.65	17263
2591.579	17249
2593.511	17067
2595.44	17185
2597.37	17206
2599.297	17277
2601.225	17020
2603.153	17121
2605.08	17107
2607.007	17157
2608.932	17092
2610.858	17156
2612.782	17090
2614.709	17348
2616.632	16878
2618.556	17046
2620.478	17039
2622.401	17191
2624.324	17132
2626.247	17255
2628.167	17100
2630.088	17183
2632.008	17045
2633.928	17227
2635.848	17098
2637.766	16959
2639.684	17107
2641.603	17063
2643.519	17017
2645.437	17243
2647.353	17161
2649.27	17023
2651.184	17211
2653.099	17194
2655.014	16804
2656.928	17106
2658.842	16886
2660.755	17022
2662.667	16980
2664.579	16880
2666.491	16963
2668.402	16863
2670.312	17032
2672.222	16920
2674.132	16860
2676.042	17226
2677.951	16839
2679.859	16788
2681.766	16843
2683.674	16902
2685.582	16606
2687.488	16869
2689.392	16999
2691.298	16926
2693.202	16610
2695.107	16748
2697.012	16777
2698.914	16816
2700.817	16559
2702.72	16720
2704.622	16712
2706.524	16655
2708.425	16576
2710.326	16684
2712.225	16705
2714.125	16726
2716.024	16714
2717.923	16560
2719.822	16660
2721.719	16428
2723.616	16528
2725.512	16747
2727.41	16587
2729.305	16450
2731.201	16364
2733.095	16699
2734.99	16424
2736.884	16388
2738.778	16432
2740.67	16588
2742.562	16501
2744.455	16651
2746.346	16355
2748.238	16277
2750.129	16395
2752.018	16659
2753.907	16431
2755.797	16037
2757.687	16498
2759.575	16454
2761.462	16339
2763.349	16198
2765.237	16271
2767.124	16601
2769.009	16297
2770.894	16296
2772.779	16404
2774.663	16421
2776.547	16407
2778.431	16203
2780.314	16271
2782.197	16314
2784.078	16367
2785.96	16232
2787.842	16156
2789.723	16372
2791.603	16140
2793.483	16421
2795.362	16213
2797.241	16244
2799.121	16020
2800.997	16377
2802.874	16120
2804.751	16119
2806.628	16188
2808.506	16178
2810.38	15967
2812.255	16291
2814.13	16015
2816.003	16024
2817.878	16244
2819.752	15990
2821.623	16023
2823.496	16152
2825.368	16190
2827.238	16202
2829.111	16043
2830.98	15919
2832.851	15958
2834.719	15829
2836.589	16070
2838.458	16174
2840.327	15983
2842.193	16272
2844.061	15935
2845.927	15986
2847.794	15982
2849.66	16015
2851.525	15973
2853.39	16010
2855.254	16032
2857.117	15861
2858.983	15996
2860.845	16047
2862.707	16135
2864.569	16194
2866.431	15892
2868.293	16061
2870.154	16122
2872.013	16293
2873.873	16107
2875.733	16030
2877.592	16144
2879.451	16014
2881.309	16085
2883.166	16206
2885.022	16208
2886.879	16311
2888.736	16090
2890.591	16222
2892.446	16221
2894.301	16277
2896.155	16287
2898.009	16231
2899.863	16266
2901.716	16109
2903.568	16231
2905.419	16100
2907.27	16359
2909.123	16016
2910.973	15962
2912.824	16200
2914.673	16314
2916.521	16312
2918.372	16389
2920.22	16329
2922.067	16406
2923.914	16288
2925.761	16512
2927.607	16291
2929.455	16389
2931.301	16293
2933.144	16349
2934.99	16560
2936.833	16402
2938.678	16696
2940.522	16447
2942.364	16683
2944.207	16537
2946.048	16591
2947.891	16850
2949.731	16719
2951.571	16654
2953.412	16659
2955.25	16492
2957.09	16531
2958.93	16390
2960.767	16409
2962.606	16471
2964.443	16259
2966.279	16460
2968.116	16094
2969.953	16223
2971.788	16055
2973.623	15971
2975.457	15871
2977.292	16058
2979.127	16051
2980.959	15883
2982.792	15817
2984.624	15665
2986.455	15751
2988.288	15781
2990.119	15618
2991.949	15483
2993.779	15659
2995.608	15736
2997.439	15600
2999.268	15505
3001.096	15429
3002.923	15400
3004.751	15281
3006.578	15337
3008.406	15169
3010.232	15200
3012.057	15150
3013.883	15067
3015.706	15157
3017.532	15088
3019.356	14948
3021.179	15007
3023.002	15003
3024.823	14998
3026.646	14987
3028.469	14794
3030.289	15066
3032.11	14787
3033.93	14882
3035.749	15039
3037.57	14898
3039.39	14819
3041.207	14999
3043.026	14851
3044.842	14745
3046.661	15021
3048.477	14681
3050.294	14733
3052.109	14882
3053.925	14950
3055.739	14585
3057.555	14843
3059.368	14751
3061.181	14671
3062.995	14705
3064.807	14849
3066.62	14588
3068.433	14766
3070.243	14858
3072.054	14717
3073.865	14526
3075.675	14552
3077.485	14562
3079.293	14342
3081.102	14486
3082.911	14450
3084.719	14357
3086.527	14368
3088.333	14515
3090.139	14325
3091.945	14312
3093.75	14549
3095.557	14294
3097.361	14343
3099.165	14471
3100.969	14147
3102.772	14364
3104.575	14228
3106.379	14285
3108.181	14087
3109.982	14232
3111.783	14035
3113.584	14105
3115.386	14322
3117.186	13906
3118.985	14055
3120.783	14115
3122.582	14100
3124.381	13958
3126.179	14139
3127.975	14010
3129.772	13904
3131.569	14139
3133.365	13902
3135.161	13712
3136.956	13922
3138.751	13998
3140.544	13926
3142.338	13922
3144.132	13814
3145.925	13736
3147.717	13894
3149.509	13959
3151.301	13729
3153.091	13680
3154.884	13663
3156.673	13791
3158.462	13875
3160.252	13743
3162.041	13672
3163.831	13939
3165.618	13535
3167.405	13698
3169.193	13519
3170.979	13711
3172.767	13596
3174.553	13625
3176.338	13645
3178.123	13684
3179.907	13511
3181.692	13574
3183.477	13520
3185.259	13758
3187.042	13527
3188.824	13392
3190.607	13518
3192.389	13516
3194.17	13434
3195.951	13580
3197.73	13556
3199.51	13521
3201.289	13406
3203.07	13501
3204.848	13603
3206.626	13331
3208.403	13400
3210.18	13495
3211.959	13328
3213.735	13391
3215.511	13335
3217.285	13222
3219.06	13262
3220.836	13348
3222.611	13319
3224.384	13191
3226.158	13303
3227.929	13203
3229.702	13260
3231.476	13200
3233.248	13101
3235.018	13094
3236.789	13263
3238.56	13190
3240.33	13155
3242.1	13069
3243.869	13200
3245.637	13070
3247.405	13094
3249.172	13164
3250.941	13079
3252.707	13185
3254.474	13126
3256.24	13153
3258.006	13110
3259.772	12857
3261.537	13137
3263.301	13270
3265.065	13122
3266.828	13010
3268.592	13129
3270.355	13159
3272.117	13149
3273.878	13068
3275.64	13019
3277.401	12993
3279.162	13040
3280.922	13081
3282.682	12919
3284.441	13199
3286.199	13051
3287.959	13185
3289.716	13017
3291.475	13180
3293.232	13105
3294.988	13033
3296.744	12958
3298.501	12921
3300.256	13132
3302.011	12795
3303.766	13165
3305.52	12881
3307.275	12897
3309.028	12986
3310.781	12910
3312.533	12884
3314.285	13031
3316.038	12872
3317.789	12794
3319.54	12871
3321.289	12767
3323.039	12810
3324.789	12793
3326.539	12987
3328.288	12849
3330.035	12957
3331.783	12675
3333.531	12718
3335.28	12762
3337.025	12768
3338.771	12788
3340.518	12769
3342.262	12691
3344.009	12823
3345.753	12702
3347.497	12595
3349.24	12800
3350.983	12652
3352.726	12701
3354.469	12491
3356.212	12640
3357.952	12509
3359.694	12567
3361.434	12613
3363.176	12629
3364.916	12682
3366.654	12488
3368.394	12781
3370.132	12667
3371.871	12541
3373.61	12596
3375.346	12547
3377.083	12461
3378.82	12453
3380.556	12427
3382.292	12504
3384.027	12367
3385.763	12540
3387.497	12324
3389.231	12432
3390.965	12468
3392.698	12300
3394.431	12456
3396.164	12373
3397.896	12560
3399.627	12569
3401.36	12291
3403.09	12429
3404.82	12456
3406.55	12271
3408.279	12264
3410.01	12319
3411.738	12298
3413.467	12239
3415.194	12230
3416.92	12291
3418.647	12298
3420.375	12269
3422.102	12326
3423.827	12130
3425.553	12098
3427.277	12052
3429.003	12103
3430.727	12211
3432.451	12232
3434.173	12140
3435.896	12133
3437.62	12133
3439.343	12111
3441.063	12247
3442.785	12095
3444.505	11869
3446.226	12037
3447.948	12057
3449.666	11782
3451.386	12112
3453.104	11949
3454.823	11896
3456.541	11993
3458.259	11914
3459.976	11822
3461.693	11748
3463.408	11889
3465.125	11807
3466.841	11870
3468.556	11761
3470.271	11676
3471.985	11671
3473.698	11626
3475.414	11736
3477.126	11709
3478.838	11711
3480.55	11686
3482.263	11619
3483.975	11759
3485.686	11728
3487.396	11590
3489.106	11684
3490.817	11586
3492.526	11604
3494.236	11555
3495.944	11599
3497.652	11576
3499.359	11669
3501.066	11560
3502.775	11503
3504.481	11532
3506.187	11622
3507.893	11526
3509.598	11394
3511.304	11466
3513.009	11436
3514.713	11463
3516.417	11585
3518.12	11431
3519.821	11299
3521.525	11395
3523.228	11378
3524.929	11525
3526.631	11345
3528.33	11273
3530.032	11252
3531.733	11545
3533.433	11424
3535.131	11345
3536.83	11285
3538.529	11393
3540.227	11319
3541.925	11343
3543.623	11213
3545.319	11114
3547.016	11238
3548.712	11169
3550.408	11211
3552.103	11333
3553.798	11299
3555.491	11170
3557.188	11143
3558.88	11220
3560.574	11173
3562.266	11164
3563.959	11116
3565.651	11282
3567.343	11149
3569.035	11171
3570.725	11178
3572.415	11132
3574.106	11078
3575.797	11127
3577.485	11100
3579.174	11072
3580.863	11198
3582.551	11124
3584.238	11002
3585.926	10967
3587.613	10902
3589.3	10801
3590.986	10863
3592.671	11100
3594.357	10989
3596.042	10781
3597.726	10914
3599.41	10934
3601.094	10781
3602.778	10905
3604.461	10767
3606.143	10779
3607.825	10911
3609.507	10881
3611.188	10652
3612.87	10745
3614.551	10715
3616.229	10748
3617.909	10682
3619.589	10653
3621.269	10735
3622.948	10710
3624.625	10695
3626.302	10558
3627.98	10615
3629.657	10699
3631.334	10541
3633.01	10553
3634.686	10498
3636.361	10546
3638.036	10580
3639.712	10719
3641.385	10389
3643.06	10501
3644.732	10452
3646.405	10517
3648.08	10414
3649.751	10476
3651.424	10273
3653.094	10571
3654.766	10405
3656.436	10364
3658.106	10389
3659.777	10466
3661.446	10284
3663.115	10278
3664.783	10495
3666.452	10483
3668.121	10283
3669.788	10436
3671.454	10325
3673.121	10299
3674.789	10250
3676.455	10251
3678.12	10343
3679.784	10270
3681.45	10353
3683.114	10316
3684.779	10417
3686.442	10355
3688.105	10362
3689.768	10355
3691.43	10319
3693.093	10234
3694.754	10182
3696.415	10227
3698.076	10324
3699.736	10425
3701.396	10165
3703.057	10019
3704.716	10135
3706.375	10227
3708.034	10154
3709.692	10060
3711.351	10164
3713.008	10147
3714.665	10180
3716.321	10149
3717.977	10160
3719.634	10060
3721.29	10139
3722.945	10136
3724.598	10045
3726.253	9975
3727.907	10017
3729.561	10155
3731.214	10155
3732.867	10139
3734.518	10001
3736.171	9979
3737.824	9934
3739.474	9931
3741.125	9852
3742.775	9976
3744.425	9828
3746.074	9883
3747.725	10033
3749.373	9928
3751.022	9955
3752.669	9886
3754.318	9764
3755.966	9936
3757.612	9867
3759.259	9921
3760.905	9913
3762.55	10021
3764.197	9838
3765.842	9823
3767.486	9870
3769.131	9848
3770.774	9864
3772.417	9805
3774.061	9799
3775.705	9775
3777.347	9887
3778.988	9577
3780.629	9587
3782.271	9701
3783.912	9534
3785.552	9769
3787.192	9661
3788.831	9587
3790.472	9668
3792.112	9552
3793.75	9636
3795.388	9452
3797.024	9645
3798.661	9638
3800.3	9477
3801.936	9533
3803.572	9724
3805.208	9473
3806.844	9544
3808.48	9553
3810.115	9427
3811.748	9552
3813.382	9617
3815.016	9542
3816.649	9487
3818.283	9433
3819.914	9391
3821.547	9396
3823.178	9556
3824.809	9480
3826.441	9330
3828.072	9328
3829.701	9504
3831.331	9370
3832.96	9417
3834.591	9293
3836.219	9264
3837.847	9244
3839.475	9321
3841.102	9295
3842.729	9349
3844.357	9298
3845.984	9317
3847.609	9238
3849.234	9249
3850.86	9128
3852.485	9228
3854.11	9166
3855.734	9272
3857.357	9297
3858.981	9174
3860.603	9103
3862.227	9160
3863.848	9135
3865.471	9127
3867.092	9271
3868.713	9102
3870.334	9154
3871.954	9169
3873.575	9136
3875.194	9054
3876.813	8957
3878.433	9116
3880.051	9043
3881.669	9041
3883.286	9095
3884.904	9063
3886.52	9177
3888.138	9166
3889.754	8935
3891.37	9154
3892.985	9043
3894.6	9067
3896.216	9094
3897.831	8931
3899.444	9058
3901.058	8910
3902.67	8950
3904.283	8878
3905.897	8919
3907.509	8943
3909.121	9058
3910.731	8856
3912.342	8923
3913.954	8876
3915.563	8901
3917.174	8858
3918.783	8974
3920.391	8902
3922.002	8782
3923.611	8920
3925.218	8908
3926.826	8875
3928.432	8854
3930.039	8860
3931.647	8864
3933.253	8826
3934.859	8873
3936.464	8817
3938.068	9006
3939.675	8932
3941.278	8696
3942.883	8765
3944.486	8745
3946.089	8945
3947.692	8834
3949.295	8706
3950.898	8747
3952.499	8727
3954.1	8818
3955.7	8659
3957.303	8777
3958.903	8716
3960.502	8701
3962.101	8696
3963.7	8664
3965.301	8642
3966.899	8644
3968.497	8732
3970.094	8475
3971.691	8708
3973.288	8608
3974.885	8777
3976.481	8575
3978.077	8606
3979.672	8563
3981.267	8479
3982.863	8570
3984.457	8471
3986.051	8614
3987.645	8414
3989.238	8311
3990.831	8494
3992.425	8433
3994.017	8429
3995.607	8518
3997.199	8362
3998.79	8515
4000.382	8370
4001.973	8339
4003.561	8407
4005.151	8332
4006.741	8349
4008.331	8227
4009.918	8335
4011.507	8151
4013.095	8178
4014.681	8256
4016.269	8191
4017.856	8176
4019.443	8306
4021.028	8293
4022.614	8231
4024.199	8173
4025.785	8139
4027.37	8098
4028.953	8219
4030.536	8161
4032.12	8207
4033.704	8184
4035.287	8114
4036.869	8040
4038.45	7981
4040.032	8016
4041.613	8024
4043.195	8064
4044.776	8014
4046.356	7907
4047.935	8073
4049.515	8102
4051.095	7931
4052.674	7932
4054.251	8038
4055.829	7959
4057.406	8037
4058.985	8014
4060.562	7937
4062.139	7975
4063.715	7856
4065.29	7801
4066.865	7916
4068.442	7932
4070.016	7875
4071.59	7760
4073.164	7912
4074.738	8010
4076.312	7870
4077.885	7877
4079.458	7791
4081.03	7925
4082.602	7934
4084.173	7843
4085.745	7695
4087.315	7795
4088.886	7944
4090.456	7867
4092.026	7748
4093.596	7867
4095.165	7682
4096.734	7844
4098.301	7777
4099.869	7770
4101.437	7683
4103.006	7697
4104.572	7695
4106.139	7799
4107.704	7812
4109.27	7605
4110.837	7645
4112.401	7685
4113.966	7812
4115.53	7609
4117.094	7657
4118.659	7619
4120.223	7690
4121.785	7694
4123.347	7574
4124.909	7734
4126.471	7526
4128.034	7597
4129.595	7409
4131.155	7491
4132.716	7409
4134.275	7505
4135.836	7535
4137.395	7529
4138.955	7474
4140.513	7526
4142.071	7434
4143.628	7289
4145.188	7341
4146.745	7398
4148.302	7430
4149.858	7393
4151.414	7418
4152.971	7460
4154.526	7281
4156.081	7349
4157.635	7286
4159.189	7348
4160.745	7259
4162.298	7355
4163.852	7331
4165.405	7366
4166.957	7278
4168.51	7237
4170.063	7291
4171.614	7084
4173.166	7266
4174.717	7331
4176.267	7241
4177.817	7282
4179.368	7254
4180.917	7238
4182.466	7294
4184.016	7261
4185.564	7150
4187.112	7133
4188.66	7132
4190.207	7211
4191.754	6981
4193.301	7127
4194.848	7051
4196.394	7055
4197.94	7261
4199.484	7203
4201.03	7087
4202.575	7171
4204.12	7026
4205.663	6992
4207.207	7172
4208.75	7068
4210.292	7025
4211.836	7156
4213.378	7122
4214.92	7101
4216.46	7044
4218.002	7002
4219.544	6972
4221.083	7017
4222.625	7015
4224.164	7034
4225.703	7148
4227.244	6950
4228.782	7033
4230.32	6977
4231.857	7039
4233.395	6993
4234.933	6901
4236.471	6926
4238.007	6955
4239.542	7019
4241.078	6940
4242.614	6851
4244.15	6858
4245.685	6940
4247.219	6973
4248.753	6839
4250.287	6928
4251.82	6816
4253.354	6864
4254.887	6904
4256.419	6853
4257.951	6913
4259.483	6877
4261.016	6828
4262.547	6777
4264.078	6813
4265.608	6828
4267.137	6894
4268.668	6741
4270.197	6732
4271.727	6853
4273.254	6806
4274.783	6861
4276.311	6674
4277.84	6688
4279.366	6709
4280.894	6794
4282.42	6774
4283.946	6645
4285.473	6752
4286.998	6719
4288.523	6641
4290.047	6688
4291.572	6652
4293.096	6548
4294.622	6619
4296.144	6573
4297.668	6731
4299.19	6647
4300.713	6583
4302.236	6668
4303.758	6589
4305.279	6614
4306.799	6672
4308.321	6561
4309.842	6541
4311.361	6555
4312.882	6596
4314.401	6474
