400.0961	4353
402.6185	4367
405.1424	4311
407.6635	4315
410.1838	4433
412.7035	4373
415.2225	4338
417.7388	4499
420.2585	4489
422.7754	4485
425.2917	4652
427.8072	4616
430.3221	4618
432.8363	4632
435.3498	4581
437.8626	4661
440.3727	4633
442.8841	4606
445.3969	4701
447.907	4605
450.4142	4573
452.9229	4590
455.4289	4584
457.9362	4613
460.4449	4544
462.9488	4577
465.454	4647
467.9566	4435
470.4604	4516
472.9637	4526
475.4662	4584
477.966	4643
480.4671	4599
482.9656	4565
485.4633	4591
487.9645	4680
490.4608	4617
492.9566	4579
495.4536	4658
497.948	4700
500.4437	4674
502.9387	4652
505.431	4680
507.9226	4601
510.4136	4753
512.9079	4676
515.3975	4661
517.8864	4721
520.3746	4664
522.8622	4689
525.3491	4708
527.8394	4771
530.3249	4717
532.8098	4669
535.2939	4842
537.7774	4867
540.2623	4729
542.7444	4763
545.2259	4824
547.7067	4675
550.1868	4711
552.6683	4910
555.147	4855
557.6231	4762
560.1005	4734
562.5773	4810
565.0534	4919
567.5308	4987
570.0056	4838
572.4776	4929
574.951	4950
577.4237	4921
579.8978	5027
582.3671	4993
584.8378	4962
587.3079	5039
589.7773	5114
592.244	4995
594.714	4962
597.1793	5082
599.6461	4933
602.1121	4897
604.5754	4962
607.0421	4941
609.5042	4942
611.9675	4987
614.4282	4964
616.8902	4964
619.3515	4858
621.8122	5019
624.2702	4912
626.7296	4853
629.1863	4897
631.6423	4828
634.1017	4929
636.5563	4915
639.0104	4830
641.4658	4849
643.9185	4881
646.3725	4913
648.8239	4827
651.2766	4899
653.7266	4908
656.176	4989
658.6247	5028
661.0748	4985
663.5242	4943
665.9709	4978
668.417	4959
670.8624	4886
673.3092	5021
675.7533	5062
678.1968	5013
680.6395	5096
683.0817	4961
685.5251	5100
687.9659	5071
690.4061	5114
692.8456	4959
695.2844	5069
697.7226	5186
700.1621	5091
702.599	5096
705.0332	5129
707.4688	5159
709.9036	5128
712.3399	5167
714.7735	5113
717.2044	5192
719.6367	5154
722.0683	5086
724.4993	5190
726.9296	5315
729.3593	5162
731.7883	5256
734.2147	5293
736.6423	5223
739.0714	5296
741.4958	5220
743.9216	5407
746.3447	5286
748.7691	5382
751.1929	5395
753.616	5341
756.0366	5479
758.4584	5428
760.8776	5520
763.2982	5447
765.718	5363
768.1373	5364
770.5539	5419
772.9698	5485
775.3871	5481
777.8038	5390
780.2178	5473
782.6332	5440
785.0459	5442
787.458	5526
789.8714	5478
792.2842	5441
794.6943	5314
797.1038	5542
799.5127	5346
801.9209	5450
804.3324	5549
806.7393	5435
809.1456	5344
811.5513	5536
813.9562	5417
816.3625	5572
818.7663	5433
821.1693	5478
823.5718	5403
825.9735	5554
828.3746	5530
830.7771	5448
833.177	5580
835.5762	5531
837.9747	5615
840.3727	5548
842.772	5674
845.1666	5710
847.5626	5622
849.958	5634
852.3527	5818
854.7488	5716
857.1403	5738
859.5331	5758
861.9253	5746
864.3168	5652
866.7057	5677
869.098	5586
871.4876	5644
873.8746	5680
876.263	5791
878.6487	5586
881.0378	5686
883.4243	5736
885.8081	5682
888.1933	5622
890.5759	5637
892.9598	5663
895.343	5727
897.7256	5515
900.1057	5721
902.4871	5685
904.8659	5695
907.246	5747
909.6254	5731
912.0023	5642
914.3786	5938
916.7562	5966
919.1331	5923
921.5074	6129
923.8831	6150
926.2562	6144
928.6287	6167
931.0005	6161
933.3757	6145
935.7462	6125
938.1162	6079
940.4855	6273
942.8542	6200
945.2242	6198
947.5916	6448
949.9584	6577
952.3266	6852
954.6921	7035
957.0571	7280
959.4233	7697
961.787	7784
964.15	7714
966.5125	7598
968.8742	7248
971.2354	6845
973.5959	6648
975.9559	6291
978.3151	6230
980.6738	6085
983.0338	6101
985.3912	6107
987.7461	6037
990.1022	5933
992.4578	5964
994.8127	5889
997.1689	5949
999.5207	5940
1001.874	6061
1004.226	5867
1006.576	5945
1008.929	6066
1011.28	5996
1013.628	5970
1015.977	5902
1018.324	5977
1020.674	6033
1023.019	5919
1025.366	6029
1027.713	5940
1030.056	5962
1032.399	6058
1034.746	6060
1037.087	6023
1039.431	6025
1041.771	6145
1044.113	6030
1046.454	6093
1048.793	5927
1051.133	5957
1053.471	5974
1055.807	6084
1058.146	6166
1060.483	6062
1062.818	6089
1065.153	6227
1067.489	6305
1069.822	6215
1072.156	6205
1074.488	6247
1076.82	6118
1079.15	6183
1081.48	6246
1083.814	6115
1086.143	5952
1088.471	6158
1090.799	6011
1093.126	6196
1095.452	6145
1097.78	5997
1100.105	6091
1102.43	6048
1104.754	6094
1107.077	5887
1109.4	6054
1111.722	5994
1114.044	6050
1116.365	6102
1118.685	5992
1121.005	6194
1123.324	6043
1125.643	6060
1127.961	6097
1130.278	6081
1132.595	6055
1134.911	6128
1137.226	6016
1139.541	6000
1141.854	6052
1144.167	5996
1146.482	6014
1148.793	5964
1151.105	6024
1153.414	5970
1155.725	5986
1158.033	5996
1160.344	6113
1162.651	6076
1164.959	6005
1167.265	6065
1169.572	6094
1171.878	5982
1174.184	6123
1176.488	6098
1178.79	6043
1181.094	6135
1183.396	6112
1185.699	6029
1188.001	6091
1190.301	5937
1192.6	6014
1194.9	6028
1197.2	6141
1199.497	5991
1201.794	6099
1204.09	6029
1206.387	6081
1208.684	6130
1210.978	6085
1213.272	6086
1215.565	6001
1217.858	6026
1220.15	6129
1222.443	6047
1224.734	6183
1227.024	6229
1229.313	6160
1231.602	6208
1233.892	6184
1236.18	6351
1238.467	6335
1240.754	6291
1243.04	6294
1245.325	6358
1247.612	6330
1249.896	6432
1252.178	6450
1254.461	6466
1256.743	6333
1259.027	6237
1261.308	6319
1263.587	6369
1265.867	6338
1268.146	6417
1270.425	6445
1272.703	6378
1274.981	6385
1277.256	6329
1279.532	6321
1281.808	6355
1284.083	6245
1286.358	6386
1288.63	6290
1290.904	6209
1293.175	6313
1295.449	6227
1297.719	6238
1299.99	6253
1302.259	6198
1304.529	6220
1306.798	6196
1309.065	6243
1311.333	6296
1313.599	6299
1315.866	6280
1318.131	6290
1320.396	6393
1322.66	6226
1324.925	6232
1327.187	6203
1329.448	6360
1331.711	6395
1333.974	6295
1336.234	6287
1338.493	6289
1340.752	6389
1343.01	6265
1345.269	6290
1347.526	6247
1349.784	6192
1352.04	6243
1354.295	6310
1356.552	6297
1358.806	6321
1361.059	6160
1363.312	6157
1365.564	6220
1367.818	6376
1370.069	6242
1372.318	6155
1374.568	6232
1376.817	6326
1379.066	6292
1381.316	6273
1383.564	6292
1385.809	6293
1388.056	6387
1390.301	6536
1392.549	6580
1394.793	6562
1397.036	6539
1399.279	6675
1401.522	6653
1403.763	6527
1406.007	6629
1408.248	6504
1410.487	6538
1412.727	6486
1414.965	6441
1417.205	6639
1419.442	6493
1421.68	6591
1423.915	6487
1426.152	6617
1428.388	6658
1430.623	6650
1432.857	6635
1435.091	6451
1437.323	6570
1439.556	6526
1441.789	6730
1444.019	6601
1446.25	6599
1448.48	6702
1450.708	6736
1452.938	6687
1455.167	6672
1457.394	6803
1459.62	6703
1461.846	6754
1464.073	6678
1466.299	6634
1468.523	6663
1470.746	6532
1472.969	6566
1475.191	6437
1477.415	6497
1479.636	6353
1481.858	6437
1484.078	6392
1486.298	6295
1488.518	6325
1490.736	6283
1492.954	6306
1495.169	6394
1497.386	6333
1499.602	6308
1501.819	6237
1504.034	6217
1506.248	6264
1508.462	6233
1510.675	6262
1512.888	6253
1515.1	6156
1517.311	6254
1519.522	6276
1521.732	6238
1523.942	6149
1526.151	6246
1528.36	6189
1530.566	6255
1532.773	6344
1534.98	6201
1537.187	6178
1539.392	6176
1541.596	6278
1543.801	6251
1546.005	6347
1548.208	6220
1550.411	6273
1552.612	6352
1554.814	6320
1557.013	6264
1559.212	6422
1561.414	6434
1563.612	6334
1565.811	6384
1568.007	6432
1570.203	6375
1572.403	6448
1574.598	6467
1576.792	6382
1578.988	6426
1581.181	6380
1583.376	6299
1585.568	6406
1587.761	6407
1589.952	6287
1592.143	6499
1594.333	6367
1596.524	6483
1598.715	6406
1600.903	6407
1603.091	6434
1605.278	6360
1607.466	6498
1609.652	6456
1611.838	6579
1614.023	6517
1616.207	6554
1618.391	6466
1620.576	6554
1622.759	6515
1624.941	6529
1627.123	6441
1629.304	6542
1631.484	6539
1633.664	6629
1635.844	6681
1638.022	6673
1640.201	6606
1642.38	6555
1644.556	6616
1646.732	6671
1648.908	6662
1651.084	6606
1653.257	6698
1655.433	6556
1657.607	6730
1659.779	6629
1661.951	6634
1664.122	6740
1666.295	6766
1668.467	6724
1670.635	6642
1672.805	6720
1674.973	6732
1677.142	6742
1679.31	6711
1681.478	6639
1683.644	6649
1685.81	6672
1687.975	6634
1690.142	6643
1692.305	6574
1694.468	6555
1696.632	6588
1698.794	6591
1700.957	6395
1703.119	6496
1705.279	6565
1707.439	6477
1709.598	6386
1711.758	6378
1713.917	6470
1716.075	6364
1718.231	6452
1720.388	6454
1722.543	6429
1724.702	6455
1726.856	6329
1729.01	6421
1731.164	6445
1733.317	6451
1735.471	6500
1737.623	6342
1739.774	6464
1741.925	6521
1744.075	6468
1746.225	6359
1748.376	6350
1750.524	6456
1752.672	6514
1754.82	6419
1756.965	6337
1759.113	6426
1761.259	6588
1763.405	6422
1765.549	6485
1767.694	6346
1769.836	6516
1771.981	6461
1774.123	6565
1776.264	6481
1778.405	6590
1780.546	6594
1782.687	6462
1784.827	6535
1786.966	6459
1789.103	6461
1791.242	6449
1793.381	6445
1795.517	6520
1797.653	6452
1799.788	6586
1801.923	6552
1804.057	6391
1806.193	6398
1808.326	6568
1810.457	6435
1812.59	6532
1814.721	6621
1816.855	6639
1818.984	6484
1821.113	6534
1823.244	6369
1825.372	6489
1827.499	6568
1829.63	6539
1831.756	6397
1833.882	6470
1836.007	6580
1838.132	6514
1840.26	6389
1842.384	6374
1844.507	6484
1846.63	6530
1848.752	6511
1850.875	6442
1852.996	6521
1855.118	6341
1857.238	6346
1859.358	6356
1861.477	6448
1863.597	6446
1865.715	6379
1867.832	6369
1869.948	6540
1872.064	6458
1874.181	6502
1876.297	6439
1878.411	6532
1880.526	6453
1882.639	6393
1884.752	6446
1886.865	6512
1888.977	6400
1891.089	6446
1893.2	6428
1895.308	6400
1897.42	6522
1899.53	6502
1901.639	6470
1903.745	6362
1905.853	6473
1907.962	6519
1910.067	6518
1912.174	6370
1914.278	6515
1916.383	6551
1918.486	6523
1920.592	6473
1922.694	6508
1924.797	6547
1926.898	6549
1929	6503
1931.102	6412
1933.203	6519
1935.301	6518
1937.401	6516
1939.499	6598
1941.598	6532
1943.697	6552
1945.793	6479
1947.888	6528
1949.985	6456
1952.08	6522
1954.176	6536
1956.269	6615
1958.364	6488
1960.457	6650
1962.549	6567
1964.642	6437
1966.733	6555
1968.823	6560
1970.913	6490
1973.005	6520
1975.093	6528
1977.184	6540
1979.271	6561
1981.359	6607
1983.446	6478
1985.532	6505
1987.619	6548
1989.705	6494
1991.789	6475
1993.874	6584
1995.956	6451
1998.041	6411
2000.123	6403
2002.206	6469
2004.287	6566
2006.368	6413
2008.449	6404
2010.529	6393
2012.609	6415
2014.688	6426
2016.766	6346
2018.843	6464
2020.922	6485
2022.999	6435
2025.074	6447
2027.15	6487
2029.225	6344
2031.299	6579
2033.375	6461
2035.447	6447
2037.52	6403
2039.592	6390
2041.664	6436
2043.736	6440
2045.807	6363
2047.876	6594
2049.947	6362
2052.015	6466
2054.086	6456
2056.153	6439
2058.221	6393
2060.288	6489
2062.353	6434
2064.42	6507
2066.486	6435
2068.55	6400
2070.614	6491
2072.678	6416
2074.741	6426
2076.805	6355
2078.866	6463
2080.929	6456
2082.99	6457
2085.049	6457
2087.109	6465
2089.17	6452
2091.228	6395
2093.286	6472
2095.344	6551
2097.4	6462
2099.46	6497
2101.516	6459
2103.572	6433
2105.626	6498
2107.679	6478
2109.735	6403
2111.788	6419
2113.841	6593
2115.894	6486
2117.945	6431
2119.997	6518
2122.049	6493
2124.1	6395
2126.148	6428
2128.197	6438
2130.246	6460
2132.296	6419
2134.342	6547
2136.39	6372
2138.437	6486
2140.483	6504
2142.527	6508
2144.574	6399
2146.619	6458
2148.661	6434
2150.705	6442
2152.747	6443
2154.792	6423
2156.832	6399
2158.874	6474
2160.915	6410
2162.954	6476
2164.995	6432
2167.034	6422
2169.072	6456
2171.111	6442
2173.148	6374
2175.186	6420
2177.223	6362
2179.258	6322
2181.294	6333
2183.328	6287
2185.362	6418
2187.398	6351
2189.431	6366
2191.463	6391
2193.495	6359
2195.528	6440
2197.56	6375
2199.59	6259
2201.62	6294
2203.649	6190
2205.678	6358
2207.708	6362
2209.737	6312
2211.764	6406
2213.791	6251
2215.817	6269
2217.843	6281
2219.87	6298
2221.895	6291
2223.919	6220
2225.942	6264
2227.966	6262
2229.988	6274
2232.012	6321
2234.032	6367
2236.054	6220
2238.074	6285
2240.095	6204
2242.116	6265
2244.135	6350
2246.153	6242
2248.171	6256
2250.188	6383
2252.208	6332
2254.223	6281
2256.239	6246
2258.255	6286
2260.269	6221
2262.283	6211
2264.3	6305
2266.312	6339
2268.325	6275
2270.336	6298
2272.349	6267
2274.362	6328
2276.372	6294
2278.383	6238
2280.392	6163
2282.402	6334
2284.409	6217
2286.418	6219
2288.427	6397
2290.433	6326
2292.441	6245
2294.446	6356
2296.453	6272
2298.459	6242
2300.463	6223
2302.466	6298
2304.471	6139
2306.475	6275
2308.477	6175
2310.478	6167
2312.481	6281
2314.481	6155
2316.481	6213
2318.482	6319
2320.482	6275
2322.48	6202
2324.48	6270
2326.478	6163
2328.476	6207
2330.473	6316
2332.469	6192
2334.465	6184
2336.46	6069
2338.454	6152
2340.45	6166
2342.444	6106
2344.437	6219
2346.43	6100
2348.421	6128
2350.414	6143
2352.405	6156
2354.396	6125
2356.386	6165
2358.376	6182
2360.366	6110
2362.355	6145
2364.343	6133
2366.331	6025
2368.317	6092
2370.304	6142
2372.292	6053
2374.278	6220
2376.262	6153
2378.247	6084
2380.23	6171
2382.216	6084
2384.199	6107
2386.181	6060
2388.163	6136
2390.144	6199
2392.127	6282
2394.107	5982
2396.087	6020
2398.066	6049
2400.046	6145
2402.023	6106
2404.004	5988
2405.981	6046
2407.957	6031
2409.934	6000
2411.91	6037
2413.886	5942
2415.862	6064
2417.836	5965
2419.809	6079
2421.784	5955
2423.756	6088
2425.73	6174
2427.701	6102
2429.672	6017
2431.644	5911
2433.615	6159
2435.586	6036
2437.555	6072
2439.523	5977
2441.491	5978
2443.459	6024
2445.428	6152
2447.395	5919
2449.361	5990
2451.327	6009
2453.292	6047
2455.257	5959
2457.223	5927
2459.187	6016
2461.15	5956
2463.113	5993
2465.076	5995
2467.039	5972
2468.999	6057
2470.96	5970
2472.921	5939
2474.881	6007
2476.841	5998
2478.8	6015
2480.759	5966
2482.717	5927
2484.675	6111
2486.63	5918
2488.589	5950
2490.545	5938
2492.5	5821
2494.455	5930
2496.408	5959
2498.364	5992
2500.318	6014
2502.27	5915
2504.223	5959
2506.174	5914
2508.126	6009
2510.078	5862
2512.03	5819
2513.979	5865
2515.927	5856
2517.877	5920
2519.826	5798
2521.775	5889
2523.722	5829
2525.668	5881
2527.616	5948
2529.561	5906
2531.508	5940
2533.452	5930
2535.398	5919
2537.342	5767
2539.284	5821
2541.229	5794
2543.173	5983
2545.114	5895
2547.055	5782
2548.996	5880
2550.938	5911
2552.878	5846
2554.817	5807
2556.756	5746
2558.695	5952
2560.633	5922
2562.572	5791
2564.509	5985
2566.445	5998
2568.382	5793
2570.317	5893
2572.254	5845
2574.189	5961
2576.123	5983
2578.057	5893
2579.99	5967
2581.923	5898
2583.855	5898
2585.788	5817
2587.719	5922
2589.65	5942
2591.579	5869
2593.511	5842
2595.44	5863
2597.37	5892
2599.297	5991
2601.225	5881
2603.153	5840
2605.08	5877
2607.007	6003
2608.932	5800
2610.858	5956
2612.782	5900
2614.709	5851
2616.632	5941
2618.556	5895
2620.478	5980
2622.401	5826
2624.324	6006
2626.247	5814
2628.167	5892
2630.088	5881
2632.008	5922
2633.928	6002
2635.848	5973
2637.766	6010
2639.684	6037
2641.603	5915
2643.519	5841
2645.437	5866
2647.353	5803
2649.27	5916
2651.184	5898
2653.099	5960
2655.014	5934
2656.928	5978
2658.842	5929
2660.755	5867
2662.667	5893
2664.579	5811
2666.491	5904
2668.402	5875
2670.312	5768
2672.222	5812
2674.132	5784
2676.042	5835
2677.951	5906
2679.859	5788
2681.766	5891
2683.674	5799
2685.582	5831
2687.488	5866
2689.392	5859
2691.298	5852
2693.202	5745
2695.107	5759
2697.012	5836
2698.914	5912
2700.817	5821
2702.72	5772
2704.622	5743
2706.524	5790
2708.425	5665
2710.326	5875
2712.225	5800
2714.125	5674
2716.024	5751
2717.923	5860
2719.822	5796
2721.719	5849
2723.616	5773
2725.512	5726
2727.41	5824
2729.305	5776
2731.201	5741
2733.095	5738
2734.99	5786
2736.884	5717
2738.778	5754
2740.67	5801
2742.562	5762
2744.455	5785
2746.346	5735
2748.238	5756
2750.129	5732
2752.018	5718
2753.907	5681
2755.797	5722
2757.687	5875
2759.575	5786
2761.462	5682
2763.349	5781
2765.237	5752
2767.124	5708
2769.009	5706
2770.894	5802
2772.779	5723
2774.663	5692
2776.547	5766
2778.431	5713
2780.314	5714
2782.197	5748
2784.078	5826
2785.96	5659
2787.842	5649
2789.723	5785
2791.603	5763
2793.483	5646
2795.362	5765
2797.241	5605
2799.121	5660
2800.997	5590
2802.874	5709
2804.751	5744
2806.628	5707
2808.506	5730
2810.38	5670
2812.255	5738
2814.13	5639
2816.003	5676
2817.878	5730
2819.752	5622
2821.623	5688
2823.496	5710
2825.368	5701
2827.238	5643
2829.111	5795
2830.98	5721
2832.851	5570
2834.719	5665
2836.589	5767
2838.458	5665
2840.327	5719
2842.193	5732
2844.061	5753
2845.927	5605
2847.794	5703
2849.66	5775
2851.525	5790
2853.39	5773
2855.254	5901
2857.117	5782
2858.983	5871
2860.845	5932
2862.707	5914
2864.569	6066
2866.431	5909
2868.293	6038
2870.154	6167
2872.013	6123
2873.873	6180
2875.733	6299
2877.592	6253
2879.451	6289
2881.309	6509
2883.166	6314
2885.022	6502
2886.879	6498
2888.736	6466
2890.591	6493
2892.446	6570
2894.301	6596
2896.155	6645
2898.009	6524
2899.863	6495
2901.716	6523
2903.568	6508
2905.419	6436
2907.27	6479
2909.123	6623
2910.973	6484
2912.824	6552
2914.673	6691
2916.521	6633
2918.372	6804
2920.22	6813
2922.067	6970
2923.914	7032
2925.761	7004
2927.607	7117
2929.455	7089
2931.301	7221
2933.144	7232
2934.99	7304
2936.833	7437
2938.678	7440
2940.522	7339
2942.364	7690
2944.207	7671
2946.048	7742
2947.891	7918
2949.731	7731
2951.571	7882
2953.412	7787
2955.25	7704
2957.09	7517
2958.93	7562
2960.767	7511
2962.606	7348
2964.443	7458
2966.279	7232
2968.116	7190
2969.953	7039
2971.788	6888
2973.623	6812
2975.457	6879
2977.292	6777
2979.127	6779
2980.959	6652
2982.792	6740
2984.624	6598
2986.455	6597
2988.288	6535
2990.119	6406
2991.949	6428
2993.779	6430
2995.608	6372
2997.439	6377
2999.268	6217
3001.096	6223
3002.923	6031
3004.751	6075
3006.578	6010
3008.406	5910
3010.232	5904
3012.057	5921
3013.883	5798
3015.706	5875
3017.532	5809
3019.356	5593
3021.179	5658
3023.002	5658
3024.823	5596
3026.646	5586
3028.469	5502
3030.289	5526
3032.11	5586
3033.93	5527
3035.749	5531
3037.57	5472
3039.39	5490
3041.207	5501
3043.026	5493
3044.842	5515
3046.661	5438
3048.477	5526
3050.294	5402
3052.109	5516
3053.925	5387
3055.739	5439
3057.555	5396
3059.368	5411
3061.181	5492
3062.995	5369
3064.807	5475
3066.62	5497
3068.433	5479
3070.243	5318
3072.054	5502
3073.865	5369
3075.675	5382
3077.485	5417
3079.293	5441
3081.102	5375
3082.911	5355
3084.719	5318
3086.527	5341
3088.333	5349
3090.139	5358
3091.945	5243
3093.75	5240
3095.557	5210
3097.361	5213
3099.165	5297
3100.969	5231
3102.772	5237
3104.575	5231
3106.379	5238
3108.181	5135
3109.982	5289
3111.783	5187
3113.584	5319
3115.386	5218
3117.186	5275
3118.985	5249
3120.783	5126
3122.582	5261
3124.381	5314
3126.179	5193
3127.975	5181
3129.772	5182
3131.569	5186
3133.365	5159
3135.161	5195
3136.956	5140
3138.751	5143
3140.544	5108
3142.338	5157
3144.132	5133
3145.925	5132
3147.717	5170
3149.509	5096
3151.301	5202
3153.091	5054
3154.884	5123
3156.673	5131
3158.462	5140
3160.252	5100
3162.041	5024
3163.831	5098
3165.618	5042
3167.405	5136
3169.193	5097
3170.979	5084
3172.767	5096
3174.553	5164
3176.338	5043
3178.123	5110
3179.907	5109
3181.692	5053
3183.477	5103
3185.259	5108
3187.042	5094
3188.824	5060
3190.607	5009
3192.389	5094
3194.17	4980
3195.951	5096
3197.73	5188
3199.51	5046
3201.289	4997
3203.07	5121
3204.848	5169
3206.626	5174
3208.403	5015
3210.18	5044
3211.959	5074
3213.735	5087
3215.511	5053
3217.285	5095
3219.06	5077
3220.836	5082
3222.611	5077
3224.384	5202
3226.158	5009
3227.929	5156
3229.702	5121
3231.476	5160
3233.248	5036
3235.018	5138
3236.789	5059
3238.56	5033
3240.33	5017
3242.1	5070
3243.869	5115
3245.637	5151
3247.405	4987
3249.172	5065
3250.941	5146
3252.707	5056
3254.474	5041
3256.24	5062
3258.006	5159
3259.772	5011
3261.537	5020
3263.301	5127
3265.065	5136
3266.828	5076
3268.592	5069
3270.355	5175
3272.117	5041
3273.878	4941
3275.64	5112
3277.401	5113
3279.162	5120
3280.922	5067
3282.682	4980
3284.441	5185
3286.199	5108
3287.959	5092
3289.716	5036
3291.475	5057
3293.232	5148
3294.988	5110
3296.744	5168
3298.501	5134
3300.256	5110
3302.011	5091
3303.766	5043
3305.52	5182
3307.275	5043
3309.028	5078
3310.781	5113
3312.533	5152
3314.285	5024
3316.038	5155
3317.789	4991
3319.54	5158
3321.289	5001
3323.039	5152
3324.789	4992
3326.539	5140
3328.288	5131
3330.035	5189
3331.783	5013
3333.531	5101
3335.28	5020
3337.025	5007
3338.771	5021
3340.518	5032
3342.262	4989
3344.009	5123
3345.753	4996
3347.497	5026
3349.24	5047
3350.983	4923
3352.726	5009
3354.469	4943
3356.212	4991
3357.952	5010
3359.694	4826
3361.434	4912
3363.176	4860
3364.916	4900
3366.654	4910
3368.394	4864
3370.132	4852
3371.871	4916
3373.61	4874
3375.346	4876
3377.083	4930
3378.82	4798
3380.556	4902
3382.292	4833
3384.027	4822
3385.763	4885
3387.497	4760
3389.231	4826
3390.965	4876
3392.698	4781
3394.431	4930
3396.164	4877
3397.896	4791
3399.627	4816
3401.36	4772
3403.09	4751
3404.82	4768
3406.55	4879
3408.279	4833
3410.01	4834
3411.738	4800
3413.467	4748
3415.194	4804
3416.92	4790
3418.647	4772
3420.375	4752
3422.102	4818
3423.827	4733
3425.553	4851
3427.277	4830
3429.003	4773
3430.727	4708
3432.451	4670
3434.173	4817
3435.896	4738
3437.62	4745
3439.343	4711
3441.063	4728
3442.785	4681
3444.505	4665
3446.226	4738
3447.948	4794
3449.666	4665
3451.386	4693
3453.104	4664
3454.823	4673
3456.541	4670
3458.259	4571
3459.976	4643
3461.693	4634
3463.408	4647
3465.125	4652
3466.841	4585
3468.556	4662
3470.271	4500
3471.985	4535
3473.698	4602
3475.414	4563
3477.126	4524
3478.838	4646
3480.55	4557
3482.263	4413
3483.975	4625
3485.686	4572
3487.396	4494
3489.106	4579
3490.817	4449
3492.526	4524
3494.236	4427
3495.944	4489
3497.652	4467
3499.359	4549
3501.066	4414
3502.775	4506
3504.481	4496
3506.187	4436
3507.893	4450
3509.598	4434
3511.304	4563
3513.009	4367
3514.713	4398
3516.417	4319
3518.12	4372
3519.821	4418
3521.525	4395
3523.228	4400
3524.929	4283
3526.631	4350
3528.33	4433
3530.032	4441
3531.733	4281
3533.433	4351
3535.131	4413
3536.83	4283
3538.529	4313
3540.227	4386
3541.925	4264
3543.623	4329
3545.319	4301
3547.016	4338
3548.712	4305
3550.408	4287
3552.103	4271
3553.798	4249
3555.491	4312
3557.188	4295
3558.88	4202
3560.574	4306
3562.266	4231
3563.959	4196
3565.651	4293
3567.343	4299
3569.035	4274
3570.725	4257
3572.415	4172
3574.106	4235
3575.797	4158
3577.485	4233
3579.174	4283
3580.863	4234
3582.551	4171
3584.238	4236
3585.926	4205
3587.613	4156
3589.3	4178
3590.986	4155
3592.671	4101
3594.357	4117
3596.042	4204
3597.726	4060
3599.41	4134
3601.094	4157
3602.778	4082
3604.461	4053
3606.143	4122
3607.825	4083
3609.507	4047
3611.188	4057
3612.87	4074
3614.551	4045
3616.229	3982
3617.909	4050
3619.589	4062
3621.269	4021
3622.948	3950
3624.625	4088
3626.302	4060
3627.98	3911
3629.657	4012
3631.334	4116
3633.01	4004
3634.686	3957
3636.361	3877
3638.036	3983
3639.712	3926
3641.385	3946
3643.06	3831
3644.732	4014
3646.405	3919
3648.08	3968
3649.751	3819
3651.424	3943
3653.094	3837
3654.766	3901
3656.436	3887
3658.106	3912
3659.777	3836
3661.446	3945
3663.115	3804
3664.783	3846
3666.452	3859
3668.121	3821
3669.788	3882
3671.454	3836
3673.121	3841
3674.789	3852
3676.455	3776
3678.12	3853
3679.784	3881
3681.45	3775
3683.114	3823
3684.779	3878
3686.442	3790
3688.105	3746
3689.768	3871
3691.43	3863
3693.093	3787
3694.754	3898
3696.415	3773
3698.076	3785
3699.736	3771
3701.396	3835
3703.057	3750
3704.716	3758
3706.375	3851
3708.034	3862
3709.692	3680
3711.351	3774
3713.008	3741
3714.665	3792
3716.321	3741
3717.977	3766
3719.634	3761
3721.29	3720
3722.945	3783
3724.598	3767
3726.253	3744
3727.907	3780
3729.561	3728
3731.214	3721
3732.867	3761
3734.518	3696
3736.171	3727
3737.824	3710
3739.474	3682
3741.125	3638
3742.775	3706
3744.425	3753
3746.074	3631
3747.725	3691
3749.373	3625
3751.022	3731
3752.669	3704
3754.318	3708
3755.966	3669
3757.612	3653
3759.259	3581
3760.905	3606
3762.55	3624
3764.197	3641
3765.842	3757
3767.486	3705
3769.131	3659
3770.774	3638
3772.417	3636
3774.061	3660
3775.705	3651
3777.347	3651
3778.988	3656
3780.629	3627
3782.271	3573
3783.912	3576
3785.552	3661
3787.192	3628
3788.831	3547
3790.472	3654
3792.112	3595
3793.75	3542
3795.388	3593
3797.024	3660
3798.661	3500
3800.3	3616
3801.936	3548
3803.572	3549
3805.208	3503
3806.844	3527
3808.48	3447
3810.115	3500
3811.748	3535
3813.382	3590
3815.016	3561
3816.649	3536
3818.283	3525
3819.914	3513
3821.547	3478
3823.178	3517
3824.809	3457
3826.441	3539
3828.072	3508
3829.701	3441
3831.331	3450
3832.96	3521
3834.591	3494
3836.219	3458
3837.847	3425
3839.475	3395
3841.102	3383
3842.729	3467
3844.357	3463
3845.984	3497
3847.609	3452
3849.234	3563
3850.86	3369
3852.485	3528
3854.11	3496
3855.734	3376
3857.357	3465
3858.981	3466
3860.603	3485
3862.227	3442
3863.848	3368
3865.471	3435
3867.092	3490
3868.713	3473
3870.334	3434
3871.954	3418
3873.575	3407
3875.194	3393
3876.813	3396
3878.433	3387
3880.051	3306
3881.669	3498
3883.286	3362
3884.904	3328
3886.52	3376
3888.138	3463
3889.754	3374
3891.37	3423
3892.985	3397
3894.6	3457
3896.216	3407
3897.831	3434
3899.444	3395
3901.058	3325
3902.67	3353
3904.283	3349
3905.897	3409
3907.509	3302
3909.121	3380
3910.731	3333
3912.342	3345
3913.954	3351
3915.563	3324
3917.174	3415
3918.783	3402
3920.391	3350
3922.002	3268
3923.611	3297
3925.218	3414
3926.826	3353
3928.432	3332
3930.039	3385
3931.647	3372
3933.253	3345
3934.859	3285
3936.464	3317
3938.068	3330
3939.675	3275
3941.278	3336
3942.883	3321
3944.486	3272
3946.089	3219
3947.692	3337
3949.295	3335
3950.898	3263
3952.499	3270
3954.1	3262
3955.7	3222
3957.303	3272
3958.903	3274
3960.502	3262
3962.101	3286
3963.7	3243
3965.301	3253
3966.899	3297
3968.497	3309
3970.094	3273
3971.691	3235
3973.288	3210
3974.885	3261
3976.481	3227
3978.077	3184
3979.672	3196
3981.267	3215
3982.863	3219
3984.457	3169
3986.051	3203
3987.645	3186
3989.238	3226
3990.831	3158
3992.425	3181
3994.017	3186
3995.607	3220
3997.199	3176
3998.79	3167
4000.382	3143
4001.973	3194
4003.561	3174
4005.151	3174
4006.741	3182
4008.331	3216
4009.918	3117
4011.507	3090
4013.095	3123
4014.681	3111
4016.269	3157
4017.856	3055
4019.443	3122
4021.028	3109
4022.614	3099
4024.199	3125
4025.785	3102
4027.37	3066
4028.953	3120
4030.536	3069
4032.12	3055
4033.704	3050
4035.287	3124
4036.869	3038
4038.45	3137
4040.032	3010
4041.613	3093
4043.195	2973
4044.776	3088
4046.356	3009
4047.935	3076
4049.515	3098
4051.095	3067
4052.674	2980
4054.251	3072
4055.829	3071
4057.406	3024
4058.985	3036
4060.562	3055
4062.139	2988
4063.715	3072
4065.29	3067
4066.865	3018
4068.442	3026
4070.016	3016
4071.59	2943
4073.164	3058
4074.738	3013
4076.312	2998
4077.885	3046
4079.458	3054
4081.03	3046
4082.602	3012
4084.173	3042
4085.745	3064
4087.315	2973
4088.886	3001
4090.456	2957
4092.026	2964
4093.596	2986
4095.165	3015
4096.734	2981
4098.301	3036
4099.869	3007
4101.437	3009
4103.006	2975
4104.572	2986
4106.139	2928
4107.704	2950
4109.27	2913
4110.837	2934
4112.401	2939
4113.966	2883
4115.53	2982
4117.094	2964
4118.659	2966
4120.223	2994
4121.785	2872
4123.347	2960
4124.909	2946
4126.471	3008
4128.034	2928
4129.595	2863
4131.155	2939
4132.716	2880
4134.275	2836
4135.836	2947
4137.395	2876
4138.955	2862
4140.513	2871
4142.071	2868
4143.628	2887
4145.188	2857
4146.745	2830
4148.302	2817
4149.858	2856
4151.414	2886
4152.971	2816
4154.526	2819
4156.081	2887
4157.635	2798
4159.189	2859
4160.745	2798
4162.298	2774
4163.852	2804
4165.405	2795
4166.957	2882
4168.51	2774
4170.063	2853
4171.614	2839
4173.166	2766
4174.717	2758
4176.267	2786
4177.817	2764
4179.368	2801
4180.917	2792
4182.466	2715
4184.016	2764
4185.564	2760
4187.112	2740
4188.66	2775
4190.207	2782
4191.754	2779
4193.301	2780
4194.848	2758
4196.394	2692
4197.94	2664
4199.484	2750
4201.03	2766
4202.575	2798
4204.12	2716
4205.663	2727
4207.207	2681
4208.75	2777
4210.292	2739
4211.836	2725
4213.378	2754
4214.92	2725
4216.46	2745
4218.002	2735
4219.544	2717
4221.083	2678
4222.625	2687
4224.164	2785
4225.703	2781
4227.244	2697
4228.782	2709
4230.32	2725
4231.857	2656
4233.395	2713
4234.933	2767
4236.471	2669
4238.007	2748
4239.542	2679
4241.078	2651
4242.614	2740
4244.15	2720
4245.685	2702
4247.219	2673
4248.753	2697
4250.287	2649
4251.82	2664
4253.354	2682
4254.887	2677
4256.419	2630
4257.951	2638
4259.483	2714
4261.016	2675
4262.547	2697
4264.078	2660
4265.608	2643
4267.137	2636
4268.668	2651
4270.197	2632
4271.727	2655
4273.254	2676
4274.783	2667
4276.311	2643
4277.84	2630
4279.366	2602
4280.894	2654
4282.42	2666
4283.946	2580
4285.473	2624
4286.998	2567
4288.523	2634
4290.047	2672
4291.572	2634
4293.096	2586
4294.622	2642
4296.144	2552
4297.668	2681
4299.19	2580
4300.713	2555
4302.236	2626
4303.758	2634
4305.279	2553
4306.799	2520
4308.321	2594
4309.842	2624
4311.361	2561
4312.882	2530
4314.401	2607
