400.0961	6040
402.6185	6113
405.1424	6055
407.6635	6192
410.1838	6011
412.7035	6081
415.2225	6185
417.7388	6193
420.2585	6241
422.7754	6302
425.2917	6392
427.8072	6368
430.3221	6411
432.8363	6486
435.3498	6418
437.8626	6466
440.3727	6477
442.8841	6462
445.3969	6488
447.907	6444
450.4142	6463
452.9229	6454
455.4289	6581
457.9362	6549
460.4449	6574
462.9488	6491
465.454	6463
467.9566	6333
470.4604	6521
472.9637	6552
475.4662	6616
477.966	6563
480.4671	6559
482.9656	6656
485.4633	6657
487.9645	6578
490.4608	6721
492.9566	6640
495.4536	6630
497.948	6670
500.4437	6745
502.9387	6695
505.431	6686
507.9226	6771
510.4136	6840
512.9079	6806
515.3975	6835
517.8864	6784
520.3746	6831
522.8622	6740
525.3491	6812
527.8394	6760
530.3249	6879
532.8098	6783
535.2939	6877
537.7774	6885
540.2623	6809
542.7444	6971
545.2259	6781
547.7067	6889
550.1868	6871
552.6683	6720
555.147	6909
557.6231	6910
560.1005	6971
562.5773	6852
565.0534	6938
567.5308	6936
570.0056	6932
572.4776	7006
574.951	7092
577.4237	7065
579.8978	7112
582.3671	7146
584.8378	7049
587.3079	7141
589.7773	7035
592.244	7123
594.714	7080
597.1793	7139
599.6461	7034
602.1121	7142
604.5754	7103
607.0421	7066
609.5042	7023
611.9675	7086
614.4282	7113
616.8902	7046
619.3515	7035
621.8122	6996
624.2702	7060
626.7296	7175
629.1863	7055
631.6423	7115
634.1017	7115
636.5563	7090
639.0104	7061
641.4658	7014
643.9185	7135
646.3725	7209
648.8239	7207
651.2766	7186
653.7266	7151
656.176	7233
658.6247	7284
661.0748	7196
663.5242	7240
665.9709	7205
668.417	7391
670.8624	7415
673.3092	7310
675.7533	7234
678.1968	7351
680.6395	7393
683.0817	7276
685.5251	7281
687.9659	7423
690.4061	7402
692.8456	7484
695.2844	7262
697.7226	7422
700.1621	7486
702.599	7457
705.0332	7488
707.4688	7519
709.9036	7507
712.3399	7410
714.7735	7498
717.2044	7590
719.6367	7464
722.0683	7603
724.4993	7610
726.9296	7551
729.3593	7435
731.7883	7568
734.2147	7719
736.6423	7687
739.0714	7930
741.4958	7687
743.9216	7795
746.3447	7725
748.7691	7717
751.1929	7720
753.616	7876
756.0366	7840
758.4584	7825
760.8776	7849
763.2982	7828
765.718	7976
768.1373	7918
770.5539	7956
772.9698	7881
775.3871	7905
777.8038	7945
780.2178	8034
782.6332	7926
785.0459	7817
787.458	8049
789.8714	7935
792.2842	7825
794.6943	7988
797.1038	7927
799.5127	7910
801.9209	7960
804.3324	7899
806.7393	7998
809.1456	7978
811.5513	7932
813.9562	8030
816.3625	7967
818.7663	8004
821.1693	8035
823.5718	8121
825.9735	8131
828.3746	8036
830.7771	7983
833.177	7966
835.5762	8052
837.9747	8017
840.3727	8073
842.772	8081
845.1666	8122
847.5626	8164
849.958	8118
852.3527	8312
854.7488	8247
857.1403	8161
859.5331	8193
861.9253	8184
864.3168	8164
866.7057	8225
869.098	8188
871.4876	8113
873.8746	8145
876.263	8112
878.6487	8010
881.0378	8237
883.4243	8131
885.8081	8054
888.1933	8062
890.5759	8081
892.9598	8139
895.343	8308
897.7256	8250
900.1057	8207
902.4871	8223
904.8659	8282
907.246	8156
909.6254	8160
912.0023	8263
914.3786	8376
916.7562	8325
919.1331	8553
921.5074	8660
923.8831	8637
926.2562	8553
928.6287	8586
931.0005	8557
933.3757	8683
935.7462	8661
938.1162	8433
940.4855	8605
942.8542	8572
945.2242	8671
947.5916	8703
949.9584	8804
952.3266	8905
954.6921	9038
957.0571	9299
959.4233	9410
961.787	9453
964.15	9425
966.5125	9243
968.8742	9151
971.2354	8826
973.5959	8789
975.9559	8707
978.3151	8665
980.6738	8671
983.0338	8643
985.3912	8582
987.7461	8461
990.1022	8509
992.4578	8204
994.8127	8452
997.1689	8485
999.5207	8458
1001.874	8488
1004.226	8511
1006.576	8428
1008.929	8430
1011.28	8506
1013.628	8558
1015.977	8455
1018.324	8430
1020.674	8523
1023.019	8506
1025.366	8623
1027.713	8620
1030.056	8546
1032.399	8588
1034.746	8702
1037.087	8522
1039.431	8531
1041.771	8652
1044.113	8560
1046.454	8636
1048.793	8642
1051.133	8634
1053.471	8555
1055.807	8594
1058.146	8645
1060.483	8678
1062.818	8654
1065.153	8760
1067.489	8675
1069.822	8617
1072.156	8723
1074.488	8685
1076.82	8774
1079.15	8700
1081.48	8744
1083.814	8789
1086.143	8568
1088.471	8570
1090.799	8758
1093.126	8691
1095.452	8552
1097.78	8782
1100.105	8553
1102.43	8661
1104.754	8631
1107.077	8739
1109.4	8611
1111.722	8804
1114.044	8679
1116.365	8774
1118.685	8706
1121.005	8609
1123.324	8866
1125.643	8859
1127.961	8821
1130.278	8793
1132.595	8815
1134.911	8688
1137.226	8743
1139.541	8677
1141.854	8736
1144.167	8858
1146.482	8693
1148.793	8632
1151.105	8817
1153.414	8807
1155.725	8795
1158.033	8717
1160.344	8802
1162.651	8715
1164.959	8699
1167.265	8757
1169.572	8822
1171.878	8748
1174.184	8830
1176.488	8746
1178.79	8623
1181.094	8954
1183.396	9012
1185.699	8715
1188.001	8851
1190.301	8728
1192.6	8704
1194.9	8680
1197.2	8666
1199.497	8820
1201.794	8724
1204.09	8784
1206.387	8858
1208.684	8753
1210.978	8687
1213.272	8899
1215.565	8874
1217.858	8844
1220.15	8649
1222.443	8787
1224.734	8680
1227.024	8780
1229.313	9032
1231.602	9049
1233.892	9037
1236.18	8952
1238.467	9029
1240.754	8915
1243.04	9001
1245.325	9077
1247.612	9059
1249.896	8966
1252.178	9017
1254.461	9194
1256.743	9025
1259.027	9049
1261.308	9093
1263.587	9120
1265.867	9134
1268.146	9047
1270.425	9172
1272.703	9003
1274.981	9163
1277.256	9144
1279.532	9114
1281.808	8970
1284.083	9026
1286.358	9091
1288.63	9165
1290.904	8990
1293.175	8972
1295.449	9020
1297.719	9050
1299.99	8941
1302.259	8923
1304.529	9003
1306.798	9034
1309.065	8975
1311.333	9024
1313.599	8977
1315.866	8990
1318.131	9003
1320.396	8891
1322.66	8996
1324.925	9045
1327.187	8883
1329.448	9065
1331.711	9042
1333.974	9174
1336.234	8999
1338.493	8996
1340.752	9102
1343.01	8906
1345.269	9039
1347.526	9008
1349.784	9009
1352.04	8943
1354.295	8968
1356.552	8913
1358.806	8998
1361.059	9025
1363.312	8914
1365.564	9028
1367.818	9021
1370.069	9049
1372.318	8999
1374.568	9112
1376.817	9087
1379.066	8886
1381.316	9075
1383.564	9072
1385.809	9041
1388.056	9226
1390.301	9246
1392.549	9170
1394.793	9212
1397.036	9315
1399.279	9378
1401.522	9357
1403.763	9437
1406.007	9352
1408.248	9396
1410.487	9414
1412.727	9336
1414.965	9305
1417.205	9260
1419.442	9345
1421.68	9318
1423.915	9439
1426.152	9309
1428.388	9274
1430.623	9336
1432.857	9255
1435.091	9349
1437.323	9350
1439.556	9466
1441.789	9523
1444.019	9400
1446.25	9307
1448.48	9513
1450.708	9633
1452.938	9388
1455.167	9427
1457.394	9626
1459.62	9601
1461.846	9504
1464.073	9525
1466.299	9445
1468.523	9507
1470.746	9216
1472.969	9356
1475.191	9298
1477.415	9115
1479.636	9240
1481.858	9138
1484.078	9158
1486.298	9182
1488.518	9129
1490.736	9104
1492.954	9002
1495.169	9014
1497.386	9013
1499.602	8978
1501.819	9080
1504.034	8847
1506.248	8873
1508.462	8944
1510.675	9076
1512.888	8987
1515.1	9041
1517.311	9048
1519.522	8879
1521.732	8957
1523.942	8922
1526.151	9052
1528.36	9019
1530.566	9014
1532.773	9046
1534.98	9101
1537.187	8893
1539.392	9099
1541.596	9069
1543.801	9107
1546.005	9156
1548.208	8935
1550.411	9069
1552.612	9177
1554.814	9205
1557.013	9140
1559.212	9040
1561.414	9048
1563.612	9105
1565.811	9112
1568.007	9141
1570.203	9324
1572.403	9185
1574.598	9273
1576.792	9211
1578.988	9279
1581.181	9281
1583.376	9419
1585.568	9340
1587.761	9280
1589.952	9266
1592.143	9237
1594.333	9169
1596.524	9332
1598.715	9313
1600.903	9268
1603.091	9322
1605.278	9345
1607.466	9327
1609.652	9391
1611.838	9395
1614.023	9258
1616.207	9289
1618.391	9180
1620.576	9354
1622.759	9399
1624.941	9371
1627.123	9260
1629.304	9381
1631.484	9367
1633.664	9414
1635.844	9455
1638.022	9413
1640.201	9383
1642.38	9469
1644.556	9277
1646.732	9308
1648.908	9322
1651.084	9448
1653.257	9392
1655.433	9458
1657.607	9405
1659.779	9466
1661.951	9437
1664.122	9551
1666.295	9547
1668.467	9452
1670.635	9518
1672.805	9324
1674.973	9396
1677.142	9382
1679.31	9458
1681.478	9340
1683.644	9336
1685.81	9473
1687.975	9273
1690.142	9418
1692.305	9293
1694.468	9420
1696.632	9337
1698.794	9432
1700.957	9282
1703.119	9327
1705.279	9426
1707.439	9304
1709.598	9272
1711.758	9271
1713.917	9294
1716.075	9302
1718.231	9220
1720.388	9248
1722.543	9383
1724.702	9353
1726.856	9320
1729.01	9370
1731.164	9229
1733.317	9271
1735.471	9361
1737.623	9266
1739.774	9213
1741.925	9239
1744.075	9311
1746.225	9301
1748.376	9144
1750.524	9308
1752.672	9366
1754.82	9342
1756.965	9285
1759.113	9275
1761.259	9240
1763.405	9225
1765.549	9278
1767.694	9377
1769.836	9257
1771.981	9363
1774.123	9322
1776.264	9314
1778.405	9370
1780.546	9365
1782.687	9377
1784.827	9253
1786.966	9310
1789.103	9339
1791.242	9422
1793.381	9482
1795.517	9366
1797.653	9356
1799.788	9260
1801.923	9331
1804.057	9407
1806.193	9354
1808.326	9395
1810.457	9333
1812.59	9257
1814.721	9437
1816.855	9256
1818.984	9240
1821.113	9295
1823.244	9359
1825.372	9295
1827.499	9431
1829.63	9242
1831.756	9474
1833.882	9273
1836.007	9379
1838.132	9275
1840.26	9176
1842.384	9229
1844.507	9400
1846.63	9205
1848.752	9309
1850.875	9282
1852.996	9179
1855.118	9293
1857.238	9273
1859.358	9068
1861.477	9103
1863.597	9351
1865.715	9197
1867.832	9331
1869.948	9196
1872.064	9305
1874.181	9218
1876.297	9117
1878.411	9111
1880.526	9246
1882.639	9209
1884.752	9302
1886.865	9303
1888.977	9194
1891.089	9031
1893.2	9335
1895.308	9347
1897.42	9256
1899.53	9228
1901.639	9192
1903.745	9227
1905.853	9171
1907.962	9380
1910.067	9291
1912.174	9326
1914.278	9372
1916.383	9393
1918.486	9134
1920.592	9346
1922.694	9400
1924.797	9377
1926.898	9279
1929	9475
1931.102	9418
1933.203	9427
1935.301	9323
1937.401	9408
1939.499	9271
1941.598	9530
1943.697	9561
1945.793	9529
1947.888	9357
1949.985	9480
1952.08	9506
1954.176	9420
1956.269	9301
1958.364	9412
1960.457	9322
1962.549	9421
1964.642	9242
1966.733	9417
1968.823	9287
1970.913	9300
1973.005	9232
1975.093	9195
1977.184	9421
1979.271	9303
1981.359	9433
1983.446	9305
1985.532	9331
1987.619	9360
1989.705	9265
1991.789	9261
1993.874	9263
1995.956	9319
1998.041	9196
2000.123	9380
2002.206	9200
2004.287	9204
2006.368	9196
2008.449	9101
2010.529	9213
2012.609	9328
2014.688	9256
2016.766	9135
2018.843	9197
2020.922	9261
2022.999	9332
2025.074	9185
2027.15	9165
2029.225	9265
2031.299	9250
2033.375	9299
2035.447	9183
2037.52	9107
2039.592	9249
2041.664	9359
2043.736	9380
2045.807	9257
2047.876	9236
2049.947	9185
2052.015	9181
2054.086	9246
2056.153	9220
2058.221	9238
2060.288	9130
2062.353	9328
2064.42	9016
2066.486	9159
2068.55	9198
2070.614	9177
2072.678	9228
2074.741	9227
2076.805	9142
2078.866	9223
2080.929	9216
2082.99	9294
2085.049	9256
2087.109	9313
2089.17	9223
2091.228	9158
2093.286	9217
2095.344	9246
2097.4	9196
2099.46	9273
2101.516	9246
2103.572	9281
2105.626	9275
2107.679	9190
2109.735	9252
2111.788	9083
2113.841	9207
2115.894	9236
2117.945	9155
2119.997	9161
2122.049	9206
2124.1	9209
2126.148	9148
2128.197	9220
2130.246	9342
2132.296	9069
2134.342	9249
2136.39	9382
2138.437	9220
2140.483	9317
2142.527	9219
2144.574	9209
2146.619	9038
2148.661	9068
2150.705	9115
2152.747	9188
2154.792	9199
2156.832	9070
2158.874	9115
2160.915	9130
2162.954	9142
2164.995	9057
2167.034	9083
2169.072	9149
2171.111	9236
2173.148	9224
2175.186	9067
2177.223	9121
2179.258	9167
2181.294	9212
2183.328	8933
2185.362	9054
2187.398	9100
2189.431	8996
2191.463	9100
2193.495	9071
2195.528	8959
2197.56	8998
2199.59	9018
2201.62	8925
2203.649	9031
2205.678	9006
2207.708	8935
2209.737	9020
2211.764	8781
2213.791	8953
2215.817	8885
2217.843	8810
2219.87	8901
2221.895	8916
2223.919	8912
2225.942	8800
2227.966	8861
2229.988	9026
2232.012	8936
2234.032	8944
2236.054	8882
2238.074	9071
2240.095	8897
2242.116	8876
2244.135	8790
2246.153	8817
2248.171	8828
2250.188	8802
2252.208	8887
2254.223	8995
2256.239	8750
2258.255	8846
2260.269	8889
2262.283	8879
2264.3	8897
2266.312	8788
2268.325	8874
2270.336	8977
2272.349	8877
2274.362	8942
2276.372	8942
2278.383	8811
2280.392	8812
2282.402	8803
2284.409	8806
2286.418	8758
2288.427	8949
2290.433	8880
2292.441	8749
2294.446	8891
2296.453	8912
2298.459	8853
2300.463	8853
2302.466	8786
2304.471	8882
2306.475	8709
2308.477	8842
2310.478	8870
2312.481	8729
2314.481	8709
2316.481	8843
2318.482	8828
2320.482	8737
2322.48	8868
2324.48	8628
2326.478	8780
2328.476	8737
2330.473	8663
2332.469	8653
2334.465	8897
2336.46	8618
2338.454	8599
2340.45	8796
2342.444	8692
2344.437	8714
2346.43	8759
2348.421	8602
2350.414	8667
2352.405	8718
2354.396	8716
2356.386	8745
2358.376	8680
2360.366	8680
2362.355	8658
2364.343	8531
2366.331	8632
2368.317	8657
2370.304	8714
2372.292	8532
2374.278	8700
2376.262	8571
2378.247	8655
2380.23	8533
2382.216	8489
2384.199	8564
2386.181	8535
2388.163	8578
2390.144	8515
2392.127	8556
2394.107	8563
2396.087	8510
2398.066	8589
2400.046	8634
2402.023	8472
2404.004	8498
2405.981	8463
2407.957	8417
2409.934	8478
2411.91	8531
2413.886	8475
2415.862	8402
2417.836	8616
2419.809	8552
2421.784	8466
2423.756	8541
2425.73	8594
2427.701	8527
2429.672	8511
2431.644	8438
2433.615	8493
2435.586	8637
2437.555	8436
2439.523	8595
2441.491	8428
2443.459	8537
2445.428	8525
2447.395	8530
2449.361	8551
2451.327	8537
2453.292	8377
2455.257	8411
2457.223	8427
2459.187	8342
2461.15	8278
2463.113	8397
2465.076	8396
2467.039	8244
2468.999	8549
2470.96	8343
2472.921	8530
2474.881	8602
2476.841	8386
2478.8	8338
2480.759	8524
2482.717	8289
2484.675	8296
2486.63	8332
2488.589	8401
2490.545	8331
2492.5	8366
2494.455	8262
2496.408	8287
2498.364	8277
2500.318	8236
2502.27	8279
2504.223	8262
2506.174	8289
2508.126	8282
2510.078	8353
2512.03	8303
2513.979	8345
2515.927	8270
2517.877	8391
2519.826	8383
2521.775	8244
2523.722	8286
2525.668	8117
2527.616	8249
2529.561	8201
2531.508	8204
2533.452	8265
2535.398	8288
2537.342	8178
2539.284	8245
2541.229	8327
2543.173	8363
2545.114	8321
2547.055	8263
2548.996	8353
2550.938	8158
2552.878	8189
2554.817	8265
2556.756	8323
2558.695	8273
2560.633	8201
2562.572	8181
2564.509	8337
2566.445	8250
2568.382	8153
2570.317	8119
2572.254	8184
2574.189	8206
2576.123	8170
2578.057	8224
2579.99	8132
2581.923	8269
2583.855	8210
2585.788	8275
2587.719	8170
2589.65	8273
2591.579	8337
2593.511	8294
2595.44	8193
2597.37	8198
2599.297	8133
2601.225	8301
2603.153	8050
2605.08	8192
2607.007	8267
2608.932	8250
2610.858	8148
2612.782	8181
2614.709	8113
2616.632	8173
2618.556	8177
2620.478	8234
2622.401	8169
2624.324	8276
2626.247	8042
2628.167	8212
2630.088	8136
2632.008	8269
2633.928	8236
2635.848	8144
2637.766	8193
2639.684	8316
2641.603	8118
2643.519	8250
2645.437	8311
2647.353	8193
2649.27	8224
2651.184	8274
2653.099	8258
2655.014	8313
2656.928	8235
2658.842	8282
2660.755	8115
2662.667	8164
2664.579	8137
2666.491	8180
2668.402	8048
2670.312	8168
2672.222	8043
2674.132	8181
2676.042	8116
2677.951	8126
2679.859	7994
2681.766	7992
2683.674	8105
2685.582	8102
2687.488	7927
2689.392	8068
2691.298	8151
2693.202	8126
2695.107	8078
2697.012	8037
2698.914	8125
2700.817	7915
2702.72	8008
2704.622	8023
2706.524	8044
2708.425	7887
2710.326	8109
2712.225	8017
2714.125	7892
2716.024	7921
2717.923	7952
2719.822	7908
2721.719	8034
2723.616	7938
2725.512	7921
2727.41	7998
2729.305	7942
2731.201	7949
2733.095	7945
2734.99	8076
2736.884	7852
2738.778	8019
2740.67	7993
2742.562	7949
2744.455	7881
2746.346	7849
2748.238	7881
2750.129	8013
2752.018	7990
2753.907	7905
2755.797	7844
2757.687	7922
2759.575	7894
2761.462	7908
2763.349	7856
2765.237	7903
2767.124	7979
2769.009	7881
2770.894	7905
2772.779	7821
2774.663	7858
2776.547	7854
2778.431	7766
2780.314	7798
2782.197	7764
2784.078	7920
2785.96	7918
2787.842	7863
2789.723	7875
2791.603	7723
2793.483	7866
2795.362	7857
2797.241	7840
2799.121	7778
2800.997	7850
2802.874	7890
2804.751	7791
2806.628	7778
2808.506	7860
2810.38	7625
2812.255	7770
2814.13	7846
2816.003	7759
2817.878	7823
2819.752	7742
2821.623	7837
2823.496	7900
2825.368	7815
2827.238	7898
2829.111	7781
2830.98	7732
2832.851	7709
2834.719	7657
2836.589	7802
2838.458	7842
2840.327	7596
2842.193	7875
2844.061	7854
2845.927	7912
2847.794	7852
2849.66	7902
2851.525	7924
2853.39	7806
2855.254	8027
2857.117	7983
2858.983	7967
2860.845	7877
2862.707	7912
2864.569	8032
2866.431	8081
2868.293	7873
2870.154	8109
2872.013	8044
2873.873	8228
2875.733	8097
2877.592	8150
2879.451	8309
2881.309	8314
2883.166	8316
2885.022	8345
2886.879	8335
2888.736	8441
2890.591	8432
2892.446	8359
2894.301	8509
2896.155	8467
2898.009	8537
2899.863	8404
2901.716	8452
2903.568	8215
2905.419	8414
2907.27	8366
2909.123	8398
2910.973	8420
2912.824	8510
2914.673	8481
2916.521	8382
2918.372	8522
2920.22	8648
2922.067	8501
2923.914	8681
2925.761	8714
2927.607	8848
2929.455	8746
2931.301	8762
2933.144	8846
2934.99	8913
2936.833	8984
2938.678	8812
2940.522	8895
2942.364	9027
2944.207	9178
2946.048	9374
2947.891	9299
2949.731	9414
2951.571	9274
2953.412	9379
2955.25	9293
2957.09	9154
2958.93	9095
2960.767	9198
2962.606	9062
2964.443	9058
2966.279	9057
2968.116	8877
2969.953	8750
2971.788	8702
2973.623	8571
2975.457	8428
2977.292	8485
2979.127	8363
2980.959	8320
2982.792	8227
2984.624	8178
2986.455	8206
2988.288	8243
2990.119	8109
2991.949	8158
2993.779	7945
2995.608	8029
2997.439	7854
2999.268	7946
3001.096	7824
3002.923	7767
3004.751	7719
3006.578	7675
3008.406	7821
3010.232	7777
3012.057	7612
3013.883	7590
3015.706	7535
3017.532	7698
3019.356	7401
3021.179	7428
3023.002	7477
3024.823	7317
3026.646	7457
3028.469	7395
3030.289	7334
3032.11	7473
3033.93	7292
3035.749	7380
3037.57	7305
3039.39	7290
3041.207	7359
3043.026	7241
3044.842	7291
3046.661	7332
3048.477	7302
3050.294	7247
3052.109	7160
3053.925	7276
3055.739	7281
3057.555	7346
3059.368	7228
3061.181	7287
3062.995	7253
3064.807	7225
3066.62	7243
3068.433	7357
3070.243	7148
3072.054	7129
3073.865	7173
3075.675	7239
3077.485	7249
3079.293	7135
3081.102	7336
3082.911	7133
3084.719	7102
3086.527	7115
3088.333	7163
3090.139	7114
3091.945	7117
3093.75	7160
3095.557	7088
3097.361	7015
3099.165	7047
3100.969	7009
3102.772	7037
3104.575	6992
3106.379	6947
3108.181	6916
3109.982	7119
3111.783	6913
3113.584	7158
3115.386	7042
3117.186	7039
3118.985	6927
3120.783	6913
3122.582	6916
3124.381	6950
3126.179	6969
3127.975	6952
3129.772	6880
3131.569	6970
3133.365	6851
3135.161	6903
3136.956	6732
3138.751	6811
3140.544	6716
3142.338	6793
3144.132	6820
3145.925	6922
3147.717	6933
3149.509	6777
3151.301	6835
3153.091	6973
3154.884	6889
3156.673	6827
3158.462	6754
3160.252	6832
3162.041	6604
3163.831	6784
3165.618	6669
3167.405	6772
3169.193	6682
3170.979	6662
3172.767	6675
3174.553	6831
3176.338	6737
3178.123	6792
3179.907	6677
3181.692	6685
3183.477	6654
3185.259	6678
3187.042	6812
3188.824	6764
3190.607	6695
3192.389	6701
3194.17	6768
3195.951	6622
3197.73	6638
3199.51	6786
3201.289	6583
3203.07	6734
3204.848	6612
3206.626	6656
3208.403	6710
3210.18	6663
3211.959	6679
3213.735	6764
3215.511	6704
3217.285	6662
3219.06	6744
3220.836	6720
3222.611	6682
3224.384	6554
3226.158	6610
3227.929	6604
3229.702	6625
3231.476	6686
3233.248	6650
3235.018	6573
3236.789	6597
3238.56	6620
3240.33	6721
3242.1	6627
3243.869	6654
3245.637	6645
3247.405	6553
3249.172	6623
3250.941	6496
3252.707	6462
3254.474	6642
3256.24	6508
3258.006	6562
3259.772	6573
3261.537	6577
3263.301	6630
3265.065	6542
3266.828	6544
3268.592	6537
3270.355	6496
3272.117	6589
3273.878	6506
3275.64	6608
3277.401	6605
3279.162	6650
3280.922	6616
3282.682	6462
3284.441	6627
3286.199	6605
3287.959	6551
3289.716	6570
3291.475	6585
3293.232	6561
3294.988	6654
3296.744	6596
3298.501	6590
3300.256	6433
3302.011	6571
3303.766	6486
3305.52	6619
3307.275	6471
3309.028	6509
3310.781	6571
3312.533	6527
3314.285	6539
3316.038	6517
3317.789	6549
3319.54	6454
3321.289	6643
3323.039	6466
3324.789	6472
3326.539	6485
3328.288	6487
3330.035	6601
3331.783	6429
3333.531	6507
3335.28	6446
3337.025	6412
3338.771	6406
3340.518	6506
3342.262	6387
3344.009	6479
3345.753	6374
3347.497	6356
3349.24	6439
3350.983	6372
3352.726	6402
3354.469	6348
3356.212	6294
3357.952	6315
3359.694	6407
3361.434	6293
3363.176	6288
3364.916	6362
3366.654	6405
3368.394	6353
3370.132	6262
3371.871	6235
3373.61	6342
3375.346	6279
3377.083	6216
3378.82	6242
3380.556	6330
3382.292	6297
3384.027	6224
3385.763	6167
3387.497	6182
3389.231	6261
3390.965	6193
3392.698	6247
3394.431	6289
3396.164	6301
3397.896	6189
3399.627	6254
3401.36	6276
3403.09	6142
3404.82	6272
3406.55	6243
3408.279	6158
3410.01	6192
3411.738	6191
3413.467	6203
3415.194	6173
3416.92	6104
3418.647	6243
3420.375	6168
3422.102	6191
3423.827	6193
3425.553	6209
3427.277	6199
3429.003	6223
3430.727	6113
3432.451	6158
3434.173	6142
3435.896	6047
3437.62	6160
3439.343	6103
3441.063	6120
3442.785	5985
3444.505	6053
3446.226	6001
3447.948	6083
3449.666	5957
3451.386	6012
3453.104	6018
3454.823	6072
3456.541	5979
3458.259	5955
3459.976	5905
3461.693	5934
3463.408	5875
3465.125	6013
3466.841	5879
3468.556	5816
3470.271	6026
3471.985	5960
3473.698	5921
3475.414	5901
3477.126	5901
3478.838	5844
3480.55	5941
3482.263	5876
3483.975	5883
3485.686	5843
3487.396	5762
3489.106	5853
3490.817	5838
3492.526	5885
3494.236	5833
3495.944	5864
3497.652	5818
3499.359	5757
3501.066	5804
3502.775	5811
3504.481	5601
3506.187	5774
3507.893	5691
3509.598	5638
3511.304	5637
3513.009	5673
3514.713	5766
3516.417	5594
3518.12	5794
3519.821	5694
3521.525	5697
3523.228	5783
3524.929	5676
3526.631	5661
3528.33	5634
3530.032	5684
3531.733	5660
3533.433	5693
3535.131	5534
3536.83	5743
3538.529	5658
3540.227	5691
3541.925	5589
3543.623	5606
3545.319	5609
3547.016	5513
3548.712	5543
3550.408	5570
3552.103	5608
3553.798	5550
3555.491	5541
3557.188	5509
3558.88	5525
3560.574	5491
3562.266	5539
3563.959	5490
3565.651	5496
3567.343	5594
3569.035	5561
3570.725	5567
3572.415	5466
3574.106	5464
3575.797	5505
3577.485	5648
3579.174	5489
3580.863	5434
3582.551	5389
3584.238	5491
3585.926	5497
3587.613	5504
3589.3	5352
3590.986	5415
3592.671	5408
3594.357	5379
3596.042	5461
3597.726	5361
3599.41	5381
3601.094	5403
3602.778	5300
3604.461	5355
3606.143	5252
3607.825	5345
3609.507	5240
3611.188	5222
3612.87	5396
3614.551	5283
3616.229	5188
3617.909	5257
3619.589	5300
3621.269	5250
3622.948	5224
3624.625	5224
3626.302	5219
3627.98	5254
3629.657	5141
3631.334	5190
3633.01	5185
3634.686	5298
3636.361	5151
3638.036	5289
3639.712	5150
3641.385	5137
3643.06	5065
3644.732	5076
3646.405	5097
3648.08	5118
3649.751	5237
3651.424	5081
3653.094	5074
3654.766	5145
3656.436	5111
3658.106	5095
3659.777	5154
3661.446	5145
3663.115	5263
3664.783	5093
3666.452	5077
3668.121	5123
3669.788	5054
3671.454	4994
3673.121	5083
3674.789	5014
3676.455	5067
3678.12	5028
3679.784	5061
3681.45	5041
3683.114	5095
3684.779	4944
3686.442	5007
3688.105	5048
3689.768	5061
3691.43	5053
3693.093	5028
3694.754	4918
3696.415	5040
3698.076	5021
3699.736	5052
3701.396	5045
3703.057	4991
3704.716	4910
3706.375	4933
3708.034	4985
3709.692	4843
3711.351	4972
3713.008	4973
3714.665	5019
3716.321	4895
3717.977	4937
3719.634	4957
3721.29	4969
3722.945	4936
3724.598	4910
3726.253	4970
3727.907	5058
3729.561	4865
3731.214	4954
3732.867	4867
3734.518	4963
3736.171	4869
3737.824	4871
3739.474	4889
3741.125	4839
3742.775	4808
3744.425	4928
3746.074	4867
3747.725	4800
3749.373	4878
3751.022	4812
3752.669	4782
3754.318	4807
3755.966	4917
3757.612	4794
3759.259	4834
3760.905	4733
3762.55	4810
3764.197	4797
3765.842	4852
3767.486	4818
3769.131	4875
3770.774	4848
3772.417	4771
3774.061	4783
3775.705	4786
3777.347	4760
3778.988	4709
3780.629	4739
3782.271	4833
3783.912	4625
3785.552	4799
3787.192	4750
3788.831	4730
3790.472	4737
3792.112	4676
3793.75	4765
3795.388	4669
3797.024	4681
3798.661	4840
3800.3	4697
3801.936	4742
3803.572	4610
3805.208	4651
3806.844	4621
3808.48	4727
3810.115	4630
3811.748	4748
3813.382	4599
3815.016	4486
3816.649	4653
3818.283	4662
3819.914	4640
3821.547	4651
3823.178	4720
3824.809	4606
3826.441	4653
3828.072	4581
3829.701	4657
3831.331	4613
3832.96	4582
3834.591	4608
3836.219	4599
3837.847	4501
3839.475	4474
3841.102	4577
3842.729	4573
3844.357	4535
3845.984	4576
3847.609	4537
3849.234	4504
3850.86	4537
3852.485	4541
3854.11	4554
3855.734	4636
3857.357	4421
3858.981	4531
3860.603	4470
3862.227	4543
3863.848	4455
3865.471	4557
3867.092	4456
3868.713	4522
3870.334	4461
3871.954	4410
3873.575	4482
3875.194	4375
3876.813	4433
3878.433	4479
3880.051	4502
3881.669	4519
3883.286	4409
3884.904	4447
3886.52	4420
3888.138	4382
3889.754	4411
3891.37	4508
3892.985	4376
3894.6	4466
3896.216	4372
3897.831	4323
3899.444	4407
3901.058	4502
3902.67	4442
3904.283	4362
3905.897	4391
3907.509	4352
3909.121	4414
3910.731	4368
3912.342	4435
3913.954	4355
3915.563	4369
3917.174	4387
3918.783	4392
3920.391	4326
3922.002	4378
3923.611	4398
3925.218	4277
3926.826	4477
3928.432	4295
3930.039	4381
3931.647	4291
3933.253	4320
3934.859	4308
3936.464	4273
3938.068	4346
3939.675	4289
3941.278	4240
3942.883	4334
3944.486	4398
3946.089	4360
3947.692	4338
3949.295	4202
3950.898	4260
3952.499	4335
3954.1	4353
3955.7	4301
3957.303	4285
3958.903	4300
3960.502	4229
3962.101	4292
3963.7	4280
3965.301	4174
3966.899	4320
3968.497	4232
3970.094	4330
3971.691	4248
3973.288	4146
3974.885	4211
3976.481	4237
3978.077	4131
3979.672	4197
3981.267	4173
3982.863	4090
3984.457	4159
3986.051	4163
3987.645	4134
3989.238	4171
3990.831	4224
3992.425	4102
3994.017	4143
3995.607	4125
3997.199	4097
3998.79	4222
4000.382	4014
4001.973	4143
4003.561	4116
4005.151	4050
4006.741	4134
4008.331	4192
4009.918	4130
4011.507	4138
4013.095	3998
4014.681	3974
4016.269	4102
4017.856	3978
4019.443	4103
4021.028	4035
4022.614	4057
4024.199	3976
4025.785	3998
4027.37	4077
4028.953	4043
4030.536	3943
4032.12	3890
4033.704	3985
4035.287	3949
4036.869	4082
4038.45	3999
4040.032	3973
4041.613	3990
4043.195	3962
4044.776	3965
4046.356	3878
4047.935	3971
4049.515	4045
4051.095	3868
4052.674	3934
4054.251	3923
4055.829	3968
4057.406	3850
4058.985	3970
4060.562	3956
4062.139	3918
4063.715	3866
4065.29	3942
4066.865	3924
4068.442	3916
4070.016	3981
4071.59	3918
4073.164	3903
4074.738	3906
4076.312	3925
4077.885	3901
4079.458	3886
4081.03	3858
4082.602	3865
4084.173	3835
4085.745	3910
4087.315	3844
4088.886	3868
4090.456	3878
4092.026	3879
4093.596	3888
4095.165	3868
4096.734	3800
4098.301	3851
4099.869	3818
4101.437	3827
4103.006	3761
4104.572	3775
4106.139	3880
4107.704	3802
4109.27	3763
4110.837	3870
4112.401	3809
4113.966	3761
4115.53	3724
4117.094	3782
4118.659	3826
4120.223	3778
4121.785	3723
4123.347	3780
4124.909	3802
4126.471	3799
4128.034	3704
4129.595	3778
4131.155	3790
4132.716	3748
4134.275	3764
4135.836	3682
4137.395	3736
4138.955	3805
4140.513	3706
4142.071	3733
4143.628	3655
4145.188	3683
4146.745	3747
4148.302	3681
4149.858	3653
4151.414	3692
4152.971	3649
4154.526	3617
4156.081	3688
4157.635	3588
4159.189	3740
4160.745	3545
4162.298	3656
4163.852	3587
4165.405	3608
4166.957	3581
4168.51	3642
4170.063	3612
4171.614	3574
4173.166	3632
4174.717	3566
4176.267	3604
4177.817	3523
4179.368	3557
4180.917	3531
4182.466	3547
4184.016	3551
4185.564	3532
4187.112	3570
4188.66	3626
4190.207	3535
4191.754	3516
4193.301	3552
4194.848	3585
4196.394	3541
4197.94	3530
4199.484	3533
4201.03	3595
4202.575	3458
4204.12	3555
4205.663	3545
4207.207	3487
4208.75	3480
4210.292	3451
4211.836	3530
4213.378	3488
4214.92	3542
4216.46	3559
4218.002	3438
4219.544	3560
4221.083	3524
4222.625	3504
4224.164	3452
4225.703	3422
4227.244	3504
4228.782	3491
4230.32	3540
4231.857	3392
4233.395	3413
4234.933	3535
4236.471	3469
4238.007	3482
4239.542	3476
4241.078	3384
4242.614	3445
4244.15	3566
4245.685	3359
4247.219	3456
4248.753	3444
4250.287	3348
4251.82	3450
4253.354	3415
4254.887	3377
4256.419	3429
4257.951	3440
4259.483	3382
4261.016	3329
4262.547	3372
4264.078	3416
4265.608	3328
4267.137	3365
4268.668	3417
4270.197	3390
4271.727	3349
4273.254	3488
4274.783	3338
4276.311	3362
4277.84	3385
4279.366	3347
4280.894	3375
4282.42	3384
4283.946	3322
4285.473	3358
4286.998	3356
4288.523	3281
4290.047	3358
4291.572	3250
4293.096	3274
4294.622	3406
4296.144	3224
4297.668	3320
4299.19	3287
4300.713	3285
4302.236	3407
4303.758	3307
4305.279	3375
4306.799	3289
4308.321	3221
4309.842	3263
4311.361	3270
4312.882	3247
4314.401	3207
