400.0961	3984
402.6185	4090
405.1424	4055
407.6635	4038
410.1838	4016
412.7035	4054
415.2225	4080
417.7388	4038
420.2585	4103
422.7754	4178
425.2917	4189
427.8072	4204
430.3221	4238
432.8363	4249
435.3498	4239
437.8626	4281
440.3727	4241
442.8841	4270
445.3969	4285
447.907	4248
450.4142	4275
452.9229	4312
455.4289	4237
457.9362	4338
460.4449	4289
462.9488	4187
465.454	4368
467.9566	4257
470.4604	4277
472.9637	4401
475.4662	4312
477.966	4267
480.4671	4199
482.9656	4262
485.4633	4364
487.9645	4335
490.4608	4331
492.9566	4375
495.4536	4384
497.948	4301
500.4437	4459
502.9387	4382
505.431	4359
507.9226	4485
510.4136	4382
512.9079	4463
515.3975	4519
517.8864	4401
520.3746	4349
522.8622	4403
525.3491	4423
527.8394	4467
530.3249	4425
532.8098	4460
535.2939	4456
537.7774	4551
540.2623	4430
542.7444	4532
545.2259	4524
547.7067	4443
550.1868	4496
552.6683	4531
555.147	4393
557.6231	4595
560.1005	4467
562.5773	4549
565.0534	4494
567.5308	4492
570.0056	4587
572.4776	4596
574.951	4542
577.4237	4570
579.8978	4660
582.3671	4642
584.8378	4648
587.3079	4623
589.7773	4649
592.244	4645
594.714	4565
597.1793	4618
599.6461	4712
602.1121	4638
604.5754	4651
607.0421	4557
609.5042	4630
611.9675	4627
614.4282	4500
616.8902	4680
619.3515	4644
621.8122	4561
624.2702	4680
626.7296	4559
629.1863	4582
631.6423	4574
634.1017	4603
636.5563	4621
639.0104	4573
641.4658	4651
643.9185	4559
646.3725	4686
648.8239	4638
651.2766	4621
653.7266	4619
656.176	4657
658.6247	4736
661.0748	4776
663.5242	4809
665.9709	4665
668.417	4760
670.8624	4821
673.3092	4825
675.7533	4771
678.1968	4666
680.6395	4718
683.0817	4732
685.5251	4853
687.9659	4755
690.4061	4883
692.8456	4768
695.2844	4842
697.7226	4792
700.1621	4897
702.599	4907
705.0332	4888
707.4688	4898
709.9036	4829
712.3399	4941
714.7735	4927
717.2044	4863
719.6367	4960
722.0683	4931
724.4993	4975
726.9296	4988
729.3593	4946
731.7883	5076
734.2147	4997
736.6423	4954
739.0714	5049
741.4958	4984
743.9216	5011
746.3447	5018
748.7691	5031
751.1929	5154
753.616	5036
756.0366	5113
758.4584	5067
760.8776	5071
763.2982	5103
765.718	5136
768.1373	5211
770.5539	5236
772.9698	5177
775.3871	5050
777.8038	5130
780.2178	5147
782.6332	5113
785.0459	5106
787.458	5082
789.8714	5156
792.2842	5151
794.6943	5100
797.1038	5137
799.5127	5183
801.9209	5150
804.3324	5190
806.7393	5217
809.1456	5164
811.5513	5217
813.9562	5292
816.3625	5221
818.7663	5193
821.1693	5293
823.5718	5284
825.9735	5153
828.3746	5236
830.7771	5205
833.177	5248
835.5762	5281
837.9747	5156
840.3727	5352
842.772	5240
845.1666	5239
847.5626	5286
849.958	5353
852.3527	5272
854.7488	5390
857.1403	5259
859.5331	5479
861.9253	5438
864.3168	5353
866.7057	5201
869.098	5354
871.4876	5287
873.8746	5265
876.263	5277
878.6487	5359
881.0378	5250
883.4243	5248
885.8081	5264
888.1933	5283
890.5759	5346
892.9598	5368
895.343	5252
897.7256	5276
900.1057	5307
902.4871	5404
904.8659	5256
907.246	5394
909.6254	5383
912.0023	5512
914.3786	5459
916.7562	5621
919.1331	5633
921.5074	5664
923.8831	5660
926.2562	5704
928.6287	5657
931.0005	5620
933.3757	5625
935.7462	5682
938.1162	5551
940.4855	5680
942.8542	5587
945.2242	5752
947.5916	5738
949.9584	5930
952.3266	5929
954.6921	5983
957.0571	6176
959.4233	6446
961.787	6356
964.15	6512
966.5125	6186
968.8742	6055
971.2354	5932
973.5959	5802
975.9559	5675
978.3151	5643
980.6738	5621
983.0338	5545
985.3912	5560
987.7461	5614
990.1022	5543
992.4578	5591
994.8127	5448
997.1689	5637
999.5207	5541
1001.874	5537
1004.226	5588
1006.576	5489
1008.929	5573
1011.28	5580
1013.628	5482
1015.977	5599
1018.324	5567
1020.674	5497
1023.019	5491
1025.366	5494
1027.713	5520
1030.056	5629
1032.399	5552
1034.746	5562
1037.087	5672
1039.431	5653
1041.771	5599
1044.113	5623
1046.454	5659
1048.793	5622
1051.133	5572
1053.471	5684
1055.807	5616
1058.146	5580
1060.483	5640
1062.818	5716
1065.153	5670
1067.489	5639
1069.822	5570
1072.156	5752
1074.488	5647
1076.82	5681
1079.15	5646
1081.48	5755
1083.814	5712
1086.143	5549
1088.471	5708
1090.799	5669
1093.126	5614
1095.452	5589
1097.78	5754
1100.105	5662
1102.43	5709
1104.754	5643
1107.077	5670
1109.4	5641
1111.722	5565
1114.044	5756
1116.365	5763
1118.685	5722
1121.005	5688
1123.324	5617
1125.643	5777
1127.961	5820
1130.278	5770
1132.595	5665
1134.911	5716
1137.226	5737
1139.541	5637
1141.854	5602
1144.167	5593
1146.482	5658
1148.793	5697
1151.105	5577
1153.414	5680
1155.725	5710
1158.033	5652
1160.344	5644
1162.651	5746
1164.959	5691
1167.265	5728
1169.572	5784
1171.878	5769
1174.184	5820
1176.488	5630
1178.79	5784
1181.094	5662
1183.396	5825
1185.699	5802
1188.001	5633
1190.301	5747
1192.6	5748
1194.9	5655
1197.2	5724
1199.497	5671
1201.794	5639
1204.09	5712
1206.387	5672
1208.684	5646
1210.978	5725
1213.272	5824
1215.565	5764
1217.858	5682
1220.15	5789
1222.443	5766
1224.734	5679
1227.024	5803
1229.313	5876
1231.602	5838
1233.892	5788
1236.18	5922
1238.467	5829
1240.754	5824
1243.04	6006
1245.325	5904
1247.612	5899
1249.896	6058
1252.178	5961
1254.461	5896
1256.743	5943
1259.027	5958
1261.308	5909
1263.587	6028
1265.867	6074
1268.146	5963
1270.425	6025
1272.703	6073
1274.981	5985
1277.256	6076
1279.532	5953
1281.808	5868
1284.083	5981
1286.358	5931
1288.63	5839
1290.904	5880
1293.175	6034
1295.449	5919
1297.719	5978
1299.99	5802
1302.259	5900
1304.529	5864
1306.798	5852
1309.065	5890
1311.333	5984
1313.599	5836
1315.866	5933
1318.131	5971
1320.396	5846
1322.66	6009
1324.925	5976
1327.187	5845
1329.448	5959
1331.711	5912
1333.974	5998
1336.234	5911
1338.493	5998
1340.752	5838
1343.01	5928
1345.269	5929
1347.526	5919
1349.784	5927
1352.04	5823
1354.295	5867
1356.552	5815
1358.806	5990
1361.059	5965
1363.312	5916
1365.564	5856
1367.818	5858
1370.069	6012
1372.318	6003
1374.568	5945
1376.817	6009
1379.066	5928
1381.316	5915
1383.564	6065
1385.809	5921
1388.056	6049
1390.301	5968
1392.549	5972
1394.793	6078
1397.036	6158
1399.279	6161
1401.522	6155
1403.763	6185
1406.007	6205
1408.248	6206
1410.487	6152
1412.727	6176
1414.965	6252
1417.205	6247
1419.442	6169
1421.68	6160
1423.915	6194
1426.152	6127
1428.388	6136
1430.623	6071
1432.857	6103
1435.091	6230
1437.323	6235
1439.556	6161
1441.789	6280
1444.019	6286
1446.25	6304
1448.48	6170
1450.708	6235
1452.938	6237
1455.167	6170
1457.394	6402
1459.62	6335
1461.846	6163
1464.073	6209
1466.299	6233
1468.523	6076
1470.746	6154
1472.969	6033
1475.191	5990
1477.415	6075
1479.636	6042
1481.858	5953
1484.078	5919
1486.298	6055
1488.518	5979
1490.736	5989
1492.954	5956
1495.169	5838
1497.386	5960
1499.602	6067
1501.819	5965
1504.034	5924
1506.248	5843
1508.462	5771
1510.675	5970
1512.888	5946
1515.1	5927
1517.311	5946
1519.522	5935
1521.732	5978
1523.942	5932
1526.151	5911
1528.36	5838
1530.566	5843
1532.773	6009
1534.98	5948
1537.187	5836
1539.392	6042
1541.596	6024
1543.801	6040
1546.005	5882
1548.208	5977
1550.411	6045
1552.612	6084
1554.814	5999
1557.013	5906
1559.212	6072
1561.414	6144
1563.612	6136
1565.811	6084
1568.007	6003
1570.203	6049
1572.403	6127
1574.598	6028
1576.792	6050
1578.988	6004
1581.181	6117
1583.376	6101
1585.568	6071
1587.761	6080
1589.952	6102
1592.143	6061
1594.333	6149
1596.524	6163
1598.715	6008
1600.903	6133
1603.091	6128
1605.278	6189
1607.466	6111
1609.652	6124
1611.838	6022
1614.023	6047
1616.207	6226
1618.391	6283
1620.576	6165
1622.759	6199
1624.941	6165
1627.123	6173
1629.304	6175
1631.484	6127
1633.664	6241
1635.844	6314
1638.022	6228
1640.201	6231
1642.38	6233
1644.556	6250
1646.732	6267
1648.908	6244
1651.084	6193
1653.257	6167
1655.433	6234
1657.607	6217
1659.779	6200
1661.951	6257
1664.122	6320
1666.295	6177
1668.467	6229
1670.635	6353
1672.805	6428
1674.973	6178
1677.142	6188
1679.31	6339
1681.478	6227
1683.644	6238
1685.81	6165
1687.975	6220
1690.142	6128
1692.305	6153
1694.468	6324
1696.632	6204
1698.794	6153
1700.957	6065
1703.119	6116
1705.279	6141
1707.439	6112
1709.598	6196
1711.758	6065
1713.917	6239
1716.075	6067
1718.231	6058
1720.388	6102
1722.543	6011
1724.702	6145
1726.856	6151
1729.01	6168
1731.164	6054
1733.317	6069
1735.471	6075
1737.623	5959
1739.774	6121
1741.925	6095
1744.075	6139
1746.225	6047
1748.376	6081
1750.524	6183
1752.672	6046
1754.82	6150
1756.965	6226
1759.113	6201
1761.259	6089
1763.405	6163
1765.549	6207
1767.694	6161
1769.836	6147
1771.981	6067
1774.123	6130
1776.264	6120
1778.405	6070
1780.546	6264
1782.687	6188
1784.827	6182
1786.966	6226
1789.103	6158
1791.242	6170
1793.381	6212
1795.517	6056
1797.653	6152
1799.788	6168
1801.923	6242
1804.057	6158
1806.193	6125
1808.326	6203
1810.457	6165
1812.59	6116
1814.721	6161
1816.855	6182
1818.984	6151
1821.113	6126
1823.244	6182
1825.372	6191
1827.499	6173
1829.63	6150
1831.756	6238
1833.882	6138
1836.007	6060
1838.132	5998
1840.26	6242
1842.384	6167
1844.507	6097
1846.63	6108
1848.752	6164
1850.875	6188
1852.996	6116
1855.118	6039
1857.238	6113
1859.358	6123
1861.477	5993
1863.597	6082
1865.715	6086
1867.832	6117
1869.948	6052
1872.064	6105
1874.181	6130
1876.297	6044
1878.411	6126
1880.526	6154
1882.639	6155
1884.752	6129
1886.865	6137
1888.977	6179
1891.089	6078
1893.2	6182
1895.308	6061
1897.42	6173
1899.53	6196
1901.639	6263
1903.745	6145
1905.853	6168
1907.962	6141
1910.067	6145
1912.174	6127
1914.278	6137
1916.383	6311
1918.486	6182
1920.592	6211
1922.694	6283
1924.797	6335
1926.898	6180
1929	6212
1931.102	6141
1933.203	6223
1935.301	6191
1937.401	6157
1939.499	6199
1941.598	6298
1943.697	6193
1945.793	6187
1947.888	6210
1949.985	6215
1952.08	6133
1954.176	6381
1956.269	6075
1958.364	6188
1960.457	6154
1962.549	6249
1964.642	6149
1966.733	6237
1968.823	6302
1970.913	6154
1973.005	6276
1975.093	6184
1977.184	6125
1979.271	6190
1981.359	6218
1983.446	6023
1985.532	6192
1987.619	6242
1989.705	6185
1991.789	6176
1993.874	6211
1995.956	6227
1998.041	6130
2000.123	6068
2002.206	6120
2004.287	6192
2006.368	6100
2008.449	6118
2010.529	6156
2012.609	6095
2014.688	6124
2016.766	6230
2018.843	6158
2020.922	6127
2022.999	6144
2025.074	6217
2027.15	6183
2029.225	6113
2031.299	6110
2033.375	6118
2035.447	6144
2037.52	6233
2039.592	6222
2041.664	6106
2043.736	6225
2045.807	6144
2047.876	6129
2049.947	6190
2052.015	6218
2054.086	6101
2056.153	6046
2058.221	6216
2060.288	6185
2062.353	6244
2064.42	6140
2066.486	6174
2068.55	6126
2070.614	6122
2072.678	6183
2074.741	6197
2076.805	6190
2078.866	6264
2080.929	6106
2082.99	6102
2085.049	6140
2087.109	6168
2089.17	6142
2091.228	6059
2093.286	6093
2095.344	6236
2097.4	6260
2099.46	6183
2101.516	6150
2103.572	6141
2105.626	6134
2107.679	5953
2109.735	6184
2111.788	6069
2113.841	6161
2115.894	6139
2117.945	6152
2119.997	5955
2122.049	6067
2124.1	6256
2126.148	6165
2128.197	6164
2130.246	6085
2132.296	6135
2134.342	6136
2136.39	6103
2138.437	6134
2140.483	6048
2142.527	6055
2144.574	6112
2146.619	6168
2148.661	6171
2150.705	6034
2152.747	6106
2154.792	6082
2156.832	6140
2158.874	6101
2160.915	6070
2162.954	6087
2164.995	6072
2167.034	6144
2169.072	6104
2171.111	6031
2173.148	5953
2175.186	5986
2177.223	6118
2179.258	6027
2181.294	6124
2183.328	6091
2185.362	6000
2187.398	6092
2189.431	5943
2191.463	5942
2193.495	6108
2195.528	6017
2197.56	5958
2199.59	6081
2201.62	6014
2203.649	5978
2205.678	5969
2207.708	5884
2209.737	6070
2211.764	6008
2213.791	5932
2215.817	6016
2217.843	5950
2219.87	6069
2221.895	5988
2223.919	6005
2225.942	5972
2227.966	6019
2229.988	5885
2232.012	5881
2234.032	6059
2236.054	6085
2238.074	5870
2240.095	5967
2242.116	6089
2244.135	6008
2246.153	6023
2248.171	5887
2250.188	5996
2252.208	5995
2254.223	5966
2256.239	5970
2258.255	5947
2260.269	6030
2262.283	6079
2264.3	5918
2266.312	6020
2268.325	5940
2270.336	5919
2272.349	5973
2274.362	5936
2276.372	5980
2278.383	6012
2280.392	6048
2282.402	5942
2284.409	6099
2286.418	5937
2288.427	5951
2290.433	5916
2292.441	5976
2294.446	5875
2296.453	5801
2298.459	5884
2300.463	6002
2302.466	5992
2304.471	5988
2306.475	5907
2308.477	5908
2310.478	5903
2312.481	6088
2314.481	5893
2316.481	5963
2318.482	5925
2320.482	5949
2322.48	5905
2324.48	5893
2326.478	5822
2328.476	5963
2330.473	5843
2332.469	5858
2334.465	5974
2336.46	5923
2338.454	5870
2340.45	5824
2342.444	5792
2344.437	5890
2346.43	5856
2348.421	5910
2350.414	5802
2352.405	5858
2354.396	5819
2356.386	5883
2358.376	5813
2360.366	5864
2362.355	5918
2364.343	5862
2366.331	5830
2368.317	5811
2370.304	5729
2372.292	5784
2374.278	5751
2376.262	5901
2378.247	5710
2380.23	5848
2382.216	5764
2384.199	5841
2386.181	5773
2388.163	5799
2390.144	5691
2392.127	5786
2394.107	5757
2396.087	5795
2398.066	5850
2400.046	5800
2402.023	5757
2404.004	5710
2405.981	5645
2407.957	5778
2409.934	5742
2411.91	5681
2413.886	5676
2415.862	5780
2417.836	5804
2419.809	5751
2421.784	5772
2423.756	5718
2425.73	5655
2427.701	5681
2429.672	5715
2431.644	5688
2433.615	5741
2435.586	5796
2437.555	5653
2439.523	5713
2441.491	5641
2443.459	5729
2445.428	5686
2447.395	5773
2449.361	5669
2451.327	5738
2453.292	5694
2455.257	5781
2457.223	5811
2459.187	5589
2461.15	5692
2463.113	5710
2465.076	5679
2467.039	5639
2468.999	5618
2470.96	5726
2472.921	5634
2474.881	5643
2476.841	5666
2478.8	5721
2480.759	5630
2482.717	5675
2484.675	5693
2486.63	5576
2488.589	5637
2490.545	5709
2492.5	5600
2494.455	5667
2496.408	5629
2498.364	5642
2500.318	5684
2502.27	5615
2504.223	5692
2506.174	5613
2508.126	5523
2510.078	5566
2512.03	5601
2513.979	5659
2515.927	5673
2517.877	5623
2519.826	5763
2521.775	5554
2523.722	5538
2525.668	5623
2527.616	5618
2529.561	5596
2531.508	5565
2533.452	5647
2535.398	5659
2537.342	5651
2539.284	5536
2541.229	5667
2543.173	5604
2545.114	5593
2547.055	5653
2548.996	5565
2550.938	5552
2552.878	5623
2554.817	5593
2556.756	5471
2558.695	5559
2560.633	5569
2562.572	5567
2564.509	5650
2566.445	5612
2568.382	5514
2570.317	5625
2572.254	5526
2574.189	5721
2576.123	5559
2578.057	5600
2579.99	5565
2581.923	5558
2583.855	5558
2585.788	5740
2587.719	5609
2589.65	5619
2591.579	5466
2593.511	5654
2595.44	5551
2597.37	5506
2599.297	5630
2601.225	5589
2603.153	5526
2605.08	5658
2607.007	5515
2608.932	5584
2610.858	5566
2612.782	5562
2614.709	5627
2616.632	5570
2618.556	5614
2620.478	5610
2622.401	5515
2624.324	5653
2626.247	5566
2628.167	5527
2630.088	5493
2632.008	5575
2633.928	5521
2635.848	5645
2637.766	5628
2639.684	5631
2641.603	5496
2643.519	5608
2645.437	5576
2647.353	5563
2649.27	5550
2651.184	5562
2653.099	5556
2655.014	5576
2656.928	5662
2658.842	5612
2660.755	5458
2662.667	5646
2664.579	5491
2666.491	5582
2668.402	5538
2670.312	5499
2672.222	5488
2674.132	5614
2676.042	5484
2677.951	5524
2679.859	5588
2681.766	5570
2683.674	5583
2685.582	5413
2687.488	5536
2689.392	5545
2691.298	5442
2693.202	5385
2695.107	5490
2697.012	5432
2698.914	5544
2700.817	5391
2702.72	5492
2704.622	5450
2706.524	5403
2708.425	5428
2710.326	5518
2712.225	5529
2714.125	5488
2716.024	5355
2717.923	5493
2719.822	5431
2721.719	5354
2723.616	5541
2725.512	5505
2727.41	5449
2729.305	5469
2731.201	5527
2733.095	5458
2734.99	5488
2736.884	5448
2738.778	5507
2740.67	5338
2742.562	5414
2744.455	5424
2746.346	5430
2748.238	5281
2750.129	5469
2752.018	5374
2753.907	5410
2755.797	5379
2757.687	5546
2759.575	5370
2761.462	5467
2763.349	5420
2765.237	5411
2767.124	5341
2769.009	5295
2770.894	5453
2772.779	5403
2774.663	5405
2776.547	5445
2778.431	5367
2780.314	5304
2782.197	5308
2784.078	5357
2785.96	5473
2787.842	5373
2789.723	5345
2791.603	5450
2793.483	5352
2795.362	5417
2797.241	5289
2799.121	5352
2800.997	5285
2802.874	5391
2804.751	5454
2806.628	5459
2808.506	5381
2810.38	5378
2812.255	5418
2814.13	5307
2816.003	5452
2817.878	5420
2819.752	5226
2821.623	5475
2823.496	5367
2825.368	5402
2827.238	5356
2829.111	5321
2830.98	5493
2832.851	5307
2834.719	5395
2836.589	5438
2838.458	5391
2840.327	5355
2842.193	5436
2844.061	5388
2845.927	5312
2847.794	5327
2849.66	5408
2851.525	5401
2853.39	5408
2855.254	5385
2857.117	5459
2858.983	5488
2860.845	5491
2862.707	5505
2864.569	5498
2866.431	5580
2868.293	5539
2870.154	5663
2872.013	5647
2873.873	5594
2875.733	5639
2877.592	5671
2879.451	5618
2881.309	5702
2883.166	5687
2885.022	5755
2886.879	5827
2888.736	5794
2890.591	5800
2892.446	5774
2894.301	5883
2896.155	5853
2898.009	5928
2899.863	5841
2901.716	5963
2903.568	5849
2905.419	5864
2907.27	5888
2909.123	5812
2910.973	5863
2912.824	5873
2914.673	5870
2916.521	5971
2918.372	6009
2920.22	5971
2922.067	6130
2923.914	6142
2925.761	6171
2927.607	6013
2929.455	6186
2931.301	6138
2933.144	6169
2934.99	6270
2936.833	6230
2938.678	6369
2940.522	6320
2942.364	6496
2944.207	6410
2946.048	6609
2947.891	6541
2949.731	6609
2951.571	6644
2953.412	6497
2955.25	6479
2957.09	6427
2958.93	6493
2960.767	6546
2962.606	6416
2964.443	6312
2966.279	6370
2968.116	6202
2969.953	6146
2971.788	6126
2973.623	6024
2975.457	6091
2977.292	5898
2979.127	5894
2980.959	5842
2982.792	5724
2984.624	5807
2986.455	5752
2988.288	5737
2990.119	5617
2991.949	5716
2993.779	5621
2995.608	5649
2997.439	5595
2999.268	5561
3001.096	5473
3002.923	5482
3004.751	5425
3006.578	5253
3008.406	5352
3010.232	5329
3012.057	5243
3013.883	5308
3015.706	5316
3017.532	5362
3019.356	5147
3021.179	5264
3023.002	5167
3024.823	5150
3026.646	5075
3028.469	5204
3030.289	5153
3032.11	5046
3033.93	5148
3035.749	5102
3037.57	5059
3039.39	5050
3041.207	5091
3043.026	5000
3044.842	5126
3046.661	5004
3048.477	5071
3050.294	5043
3052.109	5064
3053.925	5079
3055.739	5151
3057.555	5113
3059.368	5066
3061.181	5028
3062.995	4967
3064.807	5074
3066.62	5059
3068.433	4997
3070.243	5141
3072.054	5033
3073.865	5115
3075.675	5037
3077.485	4968
3079.293	5013
3081.102	4944
3082.911	4932
3084.719	4923
3086.527	4955
3088.333	4881
3090.139	5015
3091.945	4918
3093.75	4974
3095.557	4922
3097.361	4908
3099.165	4900
3100.969	4924
3102.772	4890
3104.575	4936
3106.379	4930
3108.181	4841
3109.982	4773
3111.783	4941
3113.584	4868
3115.386	4872
3117.186	4857
3118.985	4787
3120.783	4883
3122.582	4906
3124.381	4751
3126.179	4796
3127.975	4876
3129.772	4801
3131.569	4759
3133.365	4803
3135.161	4709
3136.956	4731
3138.751	4902
3140.544	4745
3142.338	4838
3144.132	4901
3145.925	4675
3147.717	4801
3149.509	4748
3151.301	4722
3153.091	4745
3154.884	4694
3156.673	4791
3158.462	4696
3160.252	4675
3162.041	4764
3163.831	4705
3165.618	4745
3167.405	4721
3169.193	4723
3170.979	4785
3172.767	4769
3174.553	4814
3176.338	4794
3178.123	4747
3179.907	4745
3181.692	4668
3183.477	4645
3185.259	4750
3187.042	4771
3188.824	4733
3190.607	4732
3192.389	4675
3194.17	4736
3195.951	4643
3197.73	4637
3199.51	4782
3201.289	4701
3203.07	4675
3204.848	4665
3206.626	4638
3208.403	4700
3210.18	4613
3211.959	4700
3213.735	4619
3215.511	4609
3217.285	4680
3219.06	4756
3220.836	4618
3222.611	4673
3224.384	4588
3226.158	4694
3227.929	4663
3229.702	4710
3231.476	4648
3233.248	4559
3235.018	4751
3236.789	4595
3238.56	4638
3240.33	4643
3242.1	4663
3243.869	4605
3245.637	4626
3247.405	4647
3249.172	4749
3250.941	4687
3252.707	4666
3254.474	4682
3256.24	4669
3258.006	4656
3259.772	4583
3261.537	4663
3263.301	4691
3265.065	4653
3266.828	4665
3268.592	4684
3270.355	4691
3272.117	4663
3273.878	4653
3275.64	4664
3277.401	4596
3279.162	4586
3280.922	4530
3282.682	4515
3284.441	4561
3286.199	4640
3287.959	4628
3289.716	4500
3291.475	4603
3293.232	4656
3294.988	4654
3296.744	4607
3298.501	4608
3300.256	4646
3302.011	4613
3303.766	4580
3305.52	4560
3307.275	4553
3309.028	4601
3310.781	4631
3312.533	4541
3314.285	4640
3316.038	4641
3317.789	4622
3319.54	4583
3321.289	4596
3323.039	4591
3324.789	4560
3326.539	4581
3328.288	4538
3330.035	4545
3331.783	4506
3333.531	4546
3335.28	4521
3337.025	4517
3338.771	4502
3340.518	4496
3342.262	4457
3344.009	4593
3345.753	4555
3347.497	4648
3349.24	4591
3350.983	4569
3352.726	4423
3354.469	4586
3356.212	4482
3357.952	4500
3359.694	4535
3361.434	4432
3363.176	4422
3364.916	4402
3366.654	4511
3368.394	4412
3370.132	4382
3371.871	4515
3373.61	4486
3375.346	4358
3377.083	4495
3378.82	4446
3380.556	4471
3382.292	4513
3384.027	4366
3385.763	4377
3387.497	4469
3389.231	4458
3390.965	4514
3392.698	4513
3394.431	4349
3396.164	4399
3397.896	4406
3399.627	4435
3401.36	4348
3403.09	4443
3404.82	4381
3406.55	4448
3408.279	4368
3410.01	4346
3411.738	4386
3413.467	4432
3415.194	4384
3416.92	4429
3418.647	4345
3420.375	4403
3422.102	4339
3423.827	4345
3425.553	4383
3427.277	4417
3429.003	4356
3430.727	4391
3432.451	4338
3434.173	4451
3435.896	4391
3437.62	4343
3439.343	4280
3441.063	4340
3442.785	4292
3444.505	4236
3446.226	4313
3447.948	4322
3449.666	4258
3451.386	4222
3453.104	4178
3454.823	4247
3456.541	4293
3458.259	4115
3459.976	4232
3461.693	4281
3463.408	4278
3465.125	4208
3466.841	4168
3468.556	4204
3470.271	4163
3471.985	4169
3473.698	4175
3475.414	4233
3477.126	4252
3478.838	4136
3480.55	4126
3482.263	4166
3483.975	4163
3485.686	4186
3487.396	4167
3489.106	4134
3490.817	4108
3492.526	4174
3494.236	4104
3495.944	4148
3497.652	4099
3499.359	4096
3501.066	4081
3502.775	4084
3504.481	4130
3506.187	4022
3507.893	4172
3509.598	3963
3511.304	4101
3513.009	4080
3514.713	4075
3516.417	4043
3518.12	4036
3519.821	3991
3521.525	4027
3523.228	3964
3524.929	4106
3526.631	3988
3528.33	4013
3530.032	4051
3531.733	4080
3533.433	3960
3535.131	4039
3536.83	4018
3538.529	4034
3540.227	3985
3541.925	3983
3543.623	4003
3545.319	3981
3547.016	4027
3548.712	4040
3550.408	3998
3552.103	3959
3553.798	3945
3555.491	3913
3557.188	3970
3558.88	3975
3560.574	3987
3562.266	3939
3563.959	4011
3565.651	3922
3567.343	3936
3569.035	3939
3570.725	3975
3572.415	3956
3574.106	3918
3575.797	3849
3577.485	3889
3579.174	3927
3580.863	3916
3582.551	3879
3584.238	3864
3585.926	3846
3587.613	4021
3589.3	3902
3590.986	3875
3592.671	3877
3594.357	3864
3596.042	3871
3597.726	3945
3599.41	3807
3601.094	3834
3602.778	3835
3604.461	3835
3606.143	3770
3607.825	3797
3609.507	3682
3611.188	3749
3612.87	3804
3614.551	3701
3616.229	3750
3617.909	3818
3619.589	3792
3621.269	3747
3622.948	3746
3624.625	3734
3626.302	3696
3627.98	3730
3629.657	3692
3631.334	3710
3633.01	3746
3634.686	3677
3636.361	3701
3638.036	3676
3639.712	3665
3641.385	3823
3643.06	3621
3644.732	3740
3646.405	3739
3648.08	3750
3649.751	3701
3651.424	3651
3653.094	3730
3654.766	3706
3656.436	3574
3658.106	3659
3659.777	3641
3661.446	3628
3663.115	3663
3664.783	3597
3666.452	3590
3668.121	3611
3669.788	3679
3671.454	3669
3673.121	3553
3674.789	3608
3676.455	3636
3678.12	3566
3679.784	3561
3681.45	3664
3683.114	3613
3684.779	3651
3686.442	3598
3688.105	3515
3689.768	3544
3691.43	3538
3693.093	3623
3694.754	3569
3696.415	3560
3698.076	3583
3699.736	3546
3701.396	3621
3703.057	3557
3704.716	3569
3706.375	3603
3708.034	3537
3709.692	3579
3711.351	3445
3713.008	3577
3714.665	3573
3716.321	3602
3717.977	3576
3719.634	3505
3721.29	3551
3722.945	3556
3724.598	3549
3726.253	3502
3727.907	3476
3729.561	3521
3731.214	3620
3732.867	3516
3734.518	3508
3736.171	3533
3737.824	3523
3739.474	3496
3741.125	3508
3742.775	3481
3744.425	3555
3746.074	3506
3747.725	3574
3749.373	3476
3751.022	3437
3752.669	3516
3754.318	3591
3755.966	3433
3757.612	3469
3759.259	3435
3760.905	3522
3762.55	3478
3764.197	3450
3765.842	3444
3767.486	3465
3769.131	3426
3770.774	3409
3772.417	3458
3774.061	3390
3775.705	3518
3777.347	3398
3778.988	3387
3780.629	3435
3782.271	3351
3783.912	3397
3785.552	3411
3787.192	3411
3788.831	3324
3790.472	3391
3792.112	3348
3793.75	3436
3795.388	3413
3797.024	3410
3798.661	3377
3800.3	3385
3801.936	3350
3803.572	3412
3805.208	3330
3806.844	3443
3808.48	3423
3810.115	3373
3811.748	3335
3813.382	3354
3815.016	3348
3816.649	3341
3818.283	3329
3819.914	3321
3821.547	3371
3823.178	3334
3824.809	3252
3826.441	3292
3828.072	3288
3829.701	3341
3831.331	3370
3832.96	3279
3834.591	3367
3836.219	3351
3837.847	3302
3839.475	3281
3841.102	3306
3842.729	3296
3844.357	3256
3845.984	3317
3847.609	3330
3849.234	3221
3850.86	3304
3852.485	3244
3854.11	3289
3855.734	3307
3857.357	3329
3858.981	3293
3860.603	3263
3862.227	3308
3863.848	3243
3865.471	3258
3867.092	3173
3868.713	3325
3870.334	3289
3871.954	3217
3873.575	3294
3875.194	3273
3876.813	3187
3878.433	3245
3880.051	3248
3881.669	3227
3883.286	3235
3884.904	3189
3886.52	3188
3888.138	3280
3889.754	3167
3891.37	3252
3892.985	3127
3894.6	3218
3896.216	3209
3897.831	3166
3899.444	3287
3901.058	3190
3902.67	3129
3904.283	3222
3905.897	3109
3907.509	3200
3909.121	3110
3910.731	3246
3912.342	3183
3913.954	3171
3915.563	3119
3917.174	3188
3918.783	3147
3920.391	3147
3922.002	3146
3923.611	3174
3925.218	3195
3926.826	3183
3928.432	3129
3930.039	3137
3931.647	3177
3933.253	3068
3934.859	3070
3936.464	3121
3938.068	3139
3939.675	3106
3941.278	3155
3942.883	3128
3944.486	3114
3946.089	3182
3947.692	3097
3949.295	3011
3950.898	3161
3952.499	3085
3954.1	3084
3955.7	3148
3957.303	3141
3958.903	3119
3960.502	3067
3962.101	3052
3963.7	3093
3965.301	3090
3966.899	3017
3968.497	3111
3970.094	3047
3971.691	3110
3973.288	3098
3974.885	3106
3976.481	3075
3978.077	3031
3979.672	2964
3981.267	3035
3982.863	3103
3984.457	3072
3986.051	3066
3987.645	3078
3989.238	3019
3990.831	3047
3992.425	3101
3994.017	2990
3995.607	3026
3997.199	2989
3998.79	3009
4000.382	2996
4001.973	3030
4003.561	3085
4005.151	2975
4006.741	2945
4008.331	2966
4009.918	3026
4011.507	2956
4013.095	2944
4014.681	2971
4016.269	2962
4017.856	2954
4019.443	2996
4021.028	2930
4022.614	2959
4024.199	2928
4025.785	2905
4027.37	2985
4028.953	2941
4030.536	2891
4032.12	2946
4033.704	2948
4035.287	2906
4036.869	2910
4038.45	2921
4040.032	2965
4041.613	2838
4043.195	2911
4044.776	2948
4046.356	2973
4047.935	2938
4049.515	2853
4051.095	2887
4052.674	2835
4054.251	2810
4055.829	2957
4057.406	2822
4058.985	2851
4060.562	2917
4062.139	2908
4063.715	2874
4065.29	2854
4066.865	2910
4068.442	2794
4070.016	2843
4071.59	2869
4073.164	2785
4074.738	2914
4076.312	2865
4077.885	2833
4079.458	2892
4081.03	2873
4082.602	2867
4084.173	2875
4085.745	2881
4087.315	2869
4088.886	2869
4090.456	2751
4092.026	2808
4093.596	2814
4095.165	2870
4096.734	2809
4098.301	2868
4099.869	2807
4101.437	2821
4103.006	2786
4104.572	2736
4106.139	2759
4107.704	2808
4109.27	2754
4110.837	2783
4112.401	2753
4113.966	2766
4115.53	2765
4117.094	2801
4118.659	2759
4120.223	2766
4121.785	2765
4123.347	2788
4124.909	2755
4126.471	2757
4128.034	2759
4129.595	2749
4131.155	2804
4132.716	2750
4134.275	2809
4135.836	2761
4137.395	2726
4138.955	2764
4140.513	2720
4142.071	2793
4143.628	2658
4145.188	2720
4146.745	2751
4148.302	2659
4149.858	2676
4151.414	2715
4152.971	2676
4154.526	2754
4156.081	2625
4157.635	2678
4159.189	2637
4160.745	2726
4162.298	2652
4163.852	2646
4165.405	2698
4166.957	2704
4168.51	2711
4170.063	2660
4171.614	2650
4173.166	2650
4174.717	2598
4176.267	2612
4177.817	2612
4179.368	2618
4180.917	2631
4182.466	2640
4184.016	2679
4185.564	2656
4187.112	2677
4188.66	2673
4190.207	2638
4191.754	2639
4193.301	2624
4194.848	2640
4196.394	2672
4197.94	2575
4199.484	2600
4201.03	2637
4202.575	2589
4204.12	2541
4205.663	2587
4207.207	2504
4208.75	2513
4210.292	2592
4211.836	2561
4213.378	2575
4214.92	2548
4216.46	2622
4218.002	2625
4219.544	2596
4221.083	2533
4222.625	2602
4224.164	2590
4225.703	2543
4227.244	2545
4228.782	2558
4230.32	2534
4231.857	2555
4233.395	2556
4234.933	2506
4236.471	2522
4238.007	2545
4239.542	2534
4241.078	2573
4242.614	2547
4244.15	2615
4245.685	2574
4247.219	2567
4248.753	2457
4250.287	2548
4251.82	2525
4253.354	2555
4254.887	2504
4256.419	2484
4257.951	2533
4259.483	2579
4261.016	2517
4262.547	2526
4264.078	2490
4265.608	2548
4267.137	2549
4268.668	2512
4270.197	2528
4271.727	2463
4273.254	2511
4274.783	2519
4276.311	2503
4277.84	2470
4279.366	2525
4280.894	2470
4282.42	2493
4283.946	2458
4285.473	2480
4286.998	2533
4288.523	2493
4290.047	2439
4291.572	2462
4293.096	2419
4294.622	2478
4296.144	2477
4297.668	2467
4299.19	2450
4300.713	2462
4302.236	2464
4303.758	2425
4305.279	2472
4306.799	2411
4308.321	2473
4309.842	2490
4311.361	2434
4312.882	2472
4314.401	2403
