400.0961	6029
402.6185	6040
405.1424	6020
407.6635	6086
410.1838	6082
412.7035	6068
415.2225	5948
417.7388	6187
420.2585	6211
422.7754	6352
425.2917	6337
427.8072	6363
430.3221	6464
432.8363	6428
435.3498	6437
437.8626	6398
440.3727	6405
442.8841	6457
445.3969	6513
447.907	6652
450.4142	6344
452.9229	6470
455.4289	6372
457.9362	6463
460.4449	6378
462.9488	6415
465.454	6437
467.9566	6489
470.4604	6478
472.9637	6515
475.4662	6357
477.966	6465
480.4671	6454
482.9656	6330
485.4633	6581
487.9645	6559
490.4608	6416
492.9566	6506
495.4536	6558
497.948	6568
500.4437	6519
502.9387	6562
505.431	6629
507.9226	6640
510.4136	6718
512.9079	6717
515.3975	6715
517.8864	6565
520.3746	6655
522.8622	6652
525.3491	6715
527.8394	6632
530.3249	6729
532.8098	6625
535.2939	6645
537.7774	6635
540.2623	6702
542.7444	6729
545.2259	6706
547.7067	6715
550.1868	6725
552.6683	6777
555.147	6827
557.6231	6699
560.1005	6703
562.5773	6664
565.0534	6800
567.5308	6838
570.0056	6662
572.4776	6868
574.951	6970
577.4237	6926
579.8978	6981
582.3671	6993
584.8378	6991
587.3079	7095
589.7773	7097
592.244	7081
594.714	7010
597.1793	7020
599.6461	6960
602.1121	7056
604.5754	7031
607.0421	6938
609.5042	7062
611.9675	6901
614.4282	6847
616.8902	6919
619.3515	6933
621.8122	6947
624.2702	6956
626.7296	6959
629.1863	6942
631.6423	7029
634.1017	6937
636.5563	6982
639.0104	7130
641.4658	6930
643.9185	6941
646.3725	6934
648.8239	7063
651.2766	6987
653.7266	7024
656.176	7076
658.6247	6974
661.0748	7116
663.5242	7012
665.9709	7080
668.417	7108
670.8624	7072
673.3092	7184
675.7533	7203
678.1968	6969
680.6395	7209
683.0817	7208
685.5251	7111
687.9659	7097
690.4061	7219
692.8456	7222
695.2844	7213
697.7226	7068
700.1621	7263
702.599	7269
705.0332	7225
707.4688	7222
709.9036	7227
712.3399	7445
714.7735	7357
717.2044	7427
719.6367	7453
722.0683	7373
724.4993	7447
726.9296	7437
729.3593	7497
731.7883	7371
734.2147	7508
736.6423	7400
739.0714	7603
741.4958	7538
743.9216	7557
746.3447	7481
748.7691	7582
751.1929	7585
753.616	7567
756.0366	7727
758.4584	7716
760.8776	7735
763.2982	7723
765.718	7855
768.1373	7637
770.5539	7769
772.9698	7720
775.3871	7751
777.8038	7722
780.2178	7689
782.6332	7795
785.0459	7628
787.458	7810
789.8714	7705
792.2842	7714
794.6943	7754
797.1038	7758
799.5127	7773
801.9209	7759
804.3324	7794
806.7393	7913
809.1456	7877
811.5513	7856
813.9562	7868
816.3625	7833
818.7663	7787
821.1693	7823
823.5718	7886
825.9735	7909
828.3746	7852
830.7771	7879
833.177	7942
835.5762	7993
837.9747	8057
840.3727	7964
842.772	7938
845.1666	7899
847.5626	7963
849.958	8078
852.3527	8133
854.7488	8083
857.1403	8022
859.5331	8137
861.9253	8125
864.3168	8034
866.7057	8068
869.098	8122
871.4876	8034
873.8746	8065
876.263	7914
878.6487	8014
881.0378	7992
883.4243	8021
885.8081	8010
888.1933	8071
890.5759	8220
892.9598	8050
895.343	8056
897.7256	8094
900.1057	8100
902.4871	8071
904.8659	8015
907.246	7945
909.6254	8068
912.0023	8113
914.3786	8231
916.7562	8297
919.1331	8412
921.5074	8492
923.8831	8296
926.2562	8450
928.6287	8508
931.0005	8522
933.3757	8453
935.7462	8533
938.1162	8451
940.4855	8692
942.8542	8805
945.2242	8906
947.5916	8933
949.9584	9147
952.3266	9399
954.6921	9746
957.0571	10018
959.4233	10423
961.787	10644
964.15	10461
966.5125	10143
968.8742	9771
971.2354	9519
973.5959	9133
975.9559	8814
978.3151	8769
980.6738	8482
983.0338	8585
985.3912	8501
987.7461	8413
990.1022	8379
992.4578	8248
994.8127	8396
997.1689	8370
999.5207	8431
1001.874	8479
1004.226	8487
1006.576	8411
1008.929	8444
1011.28	8415
1013.628	8332
1015.977	8438
1018.324	8356
1020.674	8570
1023.019	8357
1025.366	8411
1027.713	8422
1030.056	8455
1032.399	8453
1034.746	8547
1037.087	8512
1039.431	8576
1041.771	8385
1044.113	8560
1046.454	8560
1048.793	8581
1051.133	8546
1053.471	8567
1055.807	8559
1058.146	8437
1060.483	8577
1062.818	8729
1065.153	8608
1067.489	8704
1069.822	8663
1072.156	8673
1074.488	8836
1076.82	8774
1079.15	8611
1081.48	8756
1083.814	8658
1086.143	8701
1088.471	8480
1090.799	8618
1093.126	8458
1095.452	8606
1097.78	8592
1100.105	8589
1102.43	8683
1104.754	8795
1107.077	8508
1109.4	8675
1111.722	8562
1114.044	8416
1116.365	8637
1118.685	8463
1121.005	8684
1123.324	8609
1125.643	8604
1127.961	8684
1130.278	8643
1132.595	8598
1134.911	8520
1137.226	8505
1139.541	8545
1141.854	8529
1144.167	8516
1146.482	8638
1148.793	8615
1151.105	8584
1153.414	8581
1155.725	8548
1158.033	8617
1160.344	8628
1162.651	8740
1164.959	8615
1167.265	8714
1169.572	8454
1171.878	8587
1174.184	8519
1176.488	8625
1178.79	8653
1181.094	8581
1183.396	8571
1185.699	8633
1188.001	8520
1190.301	8553
1192.6	8710
1194.9	8627
1197.2	8635
1199.497	8544
1201.794	8569
1204.09	8583
1206.387	8703
1208.684	8490
1210.978	8509
1213.272	8548
1215.565	8640
1217.858	8543
1220.15	8641
1222.443	8533
1224.734	8698
1227.024	8813
1229.313	8721
1231.602	8803
1233.892	8858
1236.18	8822
1238.467	8839
1240.754	8833
1243.04	9008
1245.325	9081
1247.612	8961
1249.896	8931
1252.178	8995
1254.461	9012
1256.743	9057
1259.027	8939
1261.308	8932
1263.587	8898
1265.867	8950
1268.146	8928
1270.425	8934
1272.703	8941
1274.981	8914
1277.256	8949
1279.532	9031
1281.808	8914
1284.083	8882
1286.358	8933
1288.63	8816
1290.904	8916
1293.175	8829
1295.449	8796
1297.719	8956
1299.99	8736
1302.259	8870
1304.529	8799
1306.798	8804
1309.065	8840
1311.333	8805
1313.599	8809
1315.866	8928
1318.131	8831
1320.396	8820
1322.66	8659
1324.925	8888
1327.187	8975
1329.448	8843
1331.711	8869
1333.974	8876
1336.234	8839
1338.493	8920
1340.752	8724
1343.01	8758
1345.269	8776
1347.526	8773
1349.784	8862
1352.04	8884
1354.295	8796
1356.552	8973
1358.806	8718
1361.059	8924
1363.312	8786
1365.564	8705
1367.818	8893
1370.069	8880
1372.318	8877
1374.568	8869
1376.817	8894
1379.066	8904
1381.316	8926
1383.564	8844
1385.809	8935
1388.056	9034
1390.301	8931
1392.549	8952
1394.793	9077
1397.036	9093
1399.279	9002
1401.522	9004
1403.763	9044
1406.007	9153
1408.248	9137
1410.487	9094
1412.727	9027
1414.965	9030
1417.205	9054
1419.442	9178
1421.68	9067
1423.915	9210
1426.152	9070
1428.388	9323
1430.623	9060
1432.857	9298
1435.091	9203
1437.323	9025
1439.556	9158
1441.789	9478
1444.019	9154
1446.25	9306
1448.48	9311
1450.708	9396
1452.938	9267
1455.167	9228
1457.394	9393
1459.62	9242
1461.846	9330
1464.073	9337
1466.299	9354
1468.523	9186
1470.746	9180
1472.969	9165
1475.191	8998
1477.415	9098
1479.636	8912
1481.858	9053
1484.078	9048
1486.298	8881
1488.518	8999
1490.736	8966
1492.954	8953
1495.169	8809
1497.386	8808
1499.602	8923
1501.819	8952
1504.034	8821
1506.248	8882
1508.462	8762
1510.675	8734
1512.888	8752
1515.1	8818
1517.311	8921
1519.522	8751
1521.732	8808
1523.942	8792
1526.151	8735
1528.36	8717
1530.566	8926
1532.773	8865
1534.98	8917
1537.187	8702
1539.392	8948
1541.596	8989
1543.801	8945
1546.005	8849
1548.208	8928
1550.411	9011
1552.612	9030
1554.814	8841
1557.013	8884
1559.212	8938
1561.414	9021
1563.612	9069
1565.811	9131
1568.007	8994
1570.203	9145
1572.403	8974
1574.598	9050
1576.792	9097
1578.988	9222
1581.181	9091
1583.376	9011
1585.568	9049
1587.761	9217
1589.952	9195
1592.143	9015
1594.333	9145
1596.524	9017
1598.715	9124
1600.903	9240
1603.091	9225
1605.278	9335
1607.466	9294
1609.652	9181
1611.838	9244
1614.023	9164
1616.207	9144
1618.391	9215
1620.576	8995
1622.759	9174
1624.941	9290
1627.123	9237
1629.304	9279
1631.484	9362
1633.664	9219
1635.844	9238
1638.022	9207
1640.201	9286
1642.38	9306
1644.556	9316
1646.732	9279
1648.908	9231
1651.084	9363
1653.257	9208
1655.433	9336
1657.607	9518
1659.779	9502
1661.951	9326
1664.122	9231
1666.295	9417
1668.467	9197
1670.635	9464
1672.805	9421
1674.973	9277
1677.142	9455
1679.31	9410
1681.478	9249
1683.644	9315
1685.81	9261
1687.975	9231
1690.142	9303
1692.305	9186
1694.468	9245
1696.632	9163
1698.794	9190
1700.957	9115
1703.119	9151
1705.279	9112
1707.439	9106
1709.598	9170
1711.758	9064
1713.917	9100
1716.075	9122
1718.231	9147
1720.388	9258
1722.543	9072
1724.702	9134
1726.856	9089
1729.01	9080
1731.164	9112
1733.317	9196
1735.471	9154
1737.623	9009
1739.774	9275
1741.925	9177
1744.075	9060
1746.225	9137
1748.376	9116
1750.524	9035
1752.672	9080
1754.82	9200
1756.965	9168
1759.113	9105
1761.259	9218
1763.405	9157
1765.549	9249
1767.694	9118
1769.836	9233
1771.981	9181
1774.123	9227
1776.264	9269
1778.405	9122
1780.546	9168
1782.687	9185
1784.827	9227
1786.966	9383
1789.103	9248
1791.242	9179
1793.381	9293
1795.517	9267
1797.653	9116
1799.788	9184
1801.923	9154
1804.057	9206
1806.193	9099
1808.326	9188
1810.457	9244
1812.59	9216
1814.721	9203
1816.855	9231
1818.984	9233
1821.113	9197
1823.244	9187
1825.372	9133
1827.499	9269
1829.63	9097
1831.756	9148
1833.882	9183
1836.007	9074
1838.132	9122
1840.26	9235
1842.384	9185
1844.507	9019
1846.63	9145
1848.752	9242
1850.875	9097
1852.996	8997
1855.118	9022
1857.238	9213
1859.358	9110
1861.477	9130
1863.597	9133
1865.715	9100
1867.832	9085
1869.948	9055
1872.064	9062
1874.181	9050
1876.297	9017
1878.411	9153
1880.526	9072
1882.639	9200
1884.752	9024
1886.865	9291
1888.977	9161
1891.089	9080
1893.2	9138
1895.308	9141
1897.42	9122
1899.53	9141
1901.639	9212
1903.745	9213
1905.853	9213
1907.962	9201
1910.067	9115
1912.174	9141
1914.278	9219
1916.383	9139
1918.486	9316
1920.592	9294
1922.694	9325
1924.797	9276
1926.898	9236
1929	9284
1931.102	9292
1933.203	9400
1935.301	9339
1937.401	9335
1939.499	9221
1941.598	9355
1943.697	9358
1945.793	9159
1947.888	9142
1949.985	9232
1952.08	9245
1954.176	9023
1956.269	9224
1958.364	9290
1960.457	9337
1962.549	9164
1964.642	9261
1966.733	9380
1968.823	9206
1970.913	9093
1973.005	9102
1975.093	9262
1977.184	9198
1979.271	9195
1981.359	9206
1983.446	9145
1985.532	9152
1987.619	9127
1989.705	9077
1991.789	9282
1993.874	9102
1995.956	9209
1998.041	9145
2000.123	9018
2002.206	9142
2004.287	9053
2006.368	9068
2008.449	9120
2010.529	9154
2012.609	9133
2014.688	9081
2016.766	9192
2018.843	9141
2020.922	9141
2022.999	9294
2025.074	9110
2027.15	9166
2029.225	8973
2031.299	9067
2033.375	8983
2035.447	9238
2037.52	9022
2039.592	9206
2041.664	9101
2043.736	9146
2045.807	9094
2047.876	9143
2049.947	9169
2052.015	9114
2054.086	9187
2056.153	9149
2058.221	9225
2060.288	9087
2062.353	9109
2064.42	9071
2066.486	9080
2068.55	9097
2070.614	9064
2072.678	9194
2074.741	9119
2076.805	9246
2078.866	9092
2080.929	9035
2082.99	9204
2085.049	9076
2087.109	9125
2089.17	9045
2091.228	9262
2093.286	9214
2095.344	9212
2097.4	9121
2099.46	9008
2101.516	9061
2103.572	9164
2105.626	9059
2107.679	9242
2109.735	9180
2111.788	9087
2113.841	9078
2115.894	9262
2117.945	9014
2119.997	9176
2122.049	9142
2124.1	9225
2126.148	9140
2128.197	9166
2130.246	9176
2132.296	9086
2134.342	9167
2136.39	9146
2138.437	9129
2140.483	9036
2142.527	9040
2144.574	9185
2146.619	9036
2148.661	8997
2150.705	8868
2152.747	9045
2154.792	8928
2156.832	9018
2158.874	9048
2160.915	8924
2162.954	8907
2164.995	9168
2167.034	8988
2169.072	8925
2171.111	9021
2173.148	8987
2175.186	8923
2177.223	8939
2179.258	8874
2181.294	9040
2183.328	8927
2185.362	8917
2187.398	8802
2189.431	9012
2191.463	8833
2193.495	8872
2195.528	8849
2197.56	9003
2199.59	8821
2201.62	8803
2203.649	8861
2205.678	8863
2207.708	8797
2209.737	8941
2211.764	8810
2213.791	8977
2215.817	8859
2217.843	8887
2219.87	8942
2221.895	8662
2223.919	8965
2225.942	8736
2227.966	8938
2229.988	8887
2232.012	8702
2234.032	8980
2236.054	8828
2238.074	8699
2240.095	8822
2242.116	8856
2244.135	8845
2246.153	8906
2248.171	8920
2250.188	8881
2252.208	8738
2254.223	8793
2256.239	8976
2258.255	8758
2260.269	8866
2262.283	8689
2264.3	8782
2266.312	8757
2268.325	8839
2270.336	8830
2272.349	8750
2274.362	8798
2276.372	8861
2278.383	8817
2280.392	8734
2282.402	8642
2284.409	8773
2286.418	8805
2288.427	8854
2290.433	8729
2292.441	8909
2294.446	8913
2296.453	8758
2298.459	8813
2300.463	8809
2302.466	8792
2304.471	8734
2306.475	8681
2308.477	8733
2310.478	8783
2312.481	8750
2314.481	8899
2316.481	8807
2318.482	8738
2320.482	8823
2322.48	8744
2324.48	8745
2326.478	8694
2328.476	8700
2330.473	8775
2332.469	8696
2334.465	8758
2336.46	8765
2338.454	8584
2340.45	8706
2342.444	8641
2344.437	8579
2346.43	8710
2348.421	8486
2350.414	8542
2352.405	8652
2354.396	8676
2356.386	8548
2358.376	8604
2360.366	8489
2362.355	8515
2364.343	8652
2366.331	8494
2368.317	8533
2370.304	8607
2372.292	8575
2374.278	8603
2376.262	8643
2378.247	8553
2380.23	8625
2382.216	8567
2384.199	8668
2386.181	8670
2388.163	8500
2390.144	8642
2392.127	8602
2394.107	8541
2396.087	8504
2398.066	8519
2400.046	8603
2402.023	8399
2404.004	8371
2405.981	8483
2407.957	8528
2409.934	8382
2411.91	8419
2413.886	8601
2415.862	8506
2417.836	8502
2419.809	8357
2421.784	8460
2423.756	8452
2425.73	8331
2427.701	8538
2429.672	8483
2431.644	8544
2433.615	8446
2435.586	8377
2437.555	8357
2439.523	8369
2441.491	8360
2443.459	8436
2445.428	8467
2447.395	8371
2449.361	8559
2451.327	8395
2453.292	8370
2455.257	8420
2457.223	8430
2459.187	8355
2461.15	8401
2463.113	8346
2465.076	8357
2467.039	8258
2468.999	8384
2470.96	8300
2472.921	8434
2474.881	8450
2476.841	8285
2478.8	8257
2480.759	8248
2482.717	8436
2484.675	8311
2486.63	8264
2488.589	8383
2490.545	8312
2492.5	8370
2494.455	8373
2496.408	8345
2498.364	8381
2500.318	8349
2502.27	8278
2504.223	8201
2506.174	8358
2508.126	8207
2510.078	8194
2512.03	8226
2513.979	8321
2515.927	8229
2517.877	8277
2519.826	8173
2521.775	8322
2523.722	8186
2525.668	8232
2527.616	8155
2529.561	8270
2531.508	8142
2533.452	8088
2535.398	8340
2537.342	8254
2539.284	8186
2541.229	8297
2543.173	8105
2545.114	8109
2547.055	8175
2548.996	8131
2550.938	8095
2552.878	8296
2554.817	8169
2556.756	8223
2558.695	8171
2560.633	8143
2562.572	8185
2564.509	8274
2566.445	8289
2568.382	8151
2570.317	8248
2572.254	8132
2574.189	8230
2576.123	8155
2578.057	8303
2579.99	8134
2581.923	8142
2583.855	8159
2585.788	8221
2587.719	8087
2589.65	8242
2591.579	8250
2593.511	8221
2595.44	8270
2597.37	8050
2599.297	8156
2601.225	8186
2603.153	8148
2605.08	8244
2607.007	8175
2608.932	8273
2610.858	8035
2612.782	8197
2614.709	8300
2616.632	8262
2618.556	8312
2620.478	8192
2622.401	8179
2624.324	8122
2626.247	8183
2628.167	8175
2630.088	8256
2632.008	8130
2633.928	8136
2635.848	8144
2637.766	8053
2639.684	8142
2641.603	8215
2643.519	8290
2645.437	8138
2647.353	8219
2649.27	8119
2651.184	8324
2653.099	8226
2655.014	8280
2656.928	8215
2658.842	8125
2660.755	8207
2662.667	8175
2664.579	8231
2666.491	8167
2668.402	8184
2670.312	8156
2672.222	8063
2674.132	8107
2676.042	8009
2677.951	8036
2679.859	8124
2681.766	8058
2683.674	8036
2685.582	7997
2687.488	8131
2689.392	8064
2691.298	8127
2693.202	8006
2695.107	8085
2697.012	8163
2698.914	8154
2700.817	7969
2702.72	8097
2704.622	8106
2706.524	8032
2708.425	8025
2710.326	7907
2712.225	7968
2714.125	8062
2716.024	7943
2717.923	7887
2719.822	8029
2721.719	8026
2723.616	7990
2725.512	7971
2727.41	8065
2729.305	7964
2731.201	7948
2733.095	8012
2734.99	7865
2736.884	7950
2738.778	7979
2740.67	8060
2742.562	7950
2744.455	8004
2746.346	7921
2748.238	8019
2750.129	7951
2752.018	7932
2753.907	7743
2755.797	8052
2757.687	7976
2759.575	8005
2761.462	7918
2763.349	7917
2765.237	7938
2767.124	7956
2769.009	7932
2770.894	7891
2772.779	7821
2774.663	7896
2776.547	7886
2778.431	7818
2780.314	7946
2782.197	7875
2784.078	7838
2785.96	7818
2787.842	7982
2789.723	7933
2791.603	7870
2793.483	7814
2795.362	7766
2797.241	7906
2799.121	7811
2800.997	7810
2802.874	7810
2804.751	7706
2806.628	7750
2808.506	7817
2810.38	7927
2812.255	7796
2814.13	7773
2816.003	7765
2817.878	7782
2819.752	7733
2821.623	7763
2823.496	7777
2825.368	7825
2827.238	7731
2829.111	7745
2830.98	7749
2832.851	7907
2834.719	7806
2836.589	7826
2838.458	7826
2840.327	7746
2842.193	7807
2844.061	7808
2845.927	7855
2847.794	7782
2849.66	7970
2851.525	7834
2853.39	7950
2855.254	7830
2857.117	7924
2858.983	7997
2860.845	7815
2862.707	7906
2864.569	7944
2866.431	7941
2868.293	8032
2870.154	8045
2872.013	8131
2873.873	8097
2875.733	8240
2877.592	8368
2879.451	8335
2881.309	8440
2883.166	8463
2885.022	8291
2886.879	8444
2888.736	8452
2890.591	8428
2892.446	8358
2894.301	8490
2896.155	8418
2898.009	8583
2899.863	8390
2901.716	8361
2903.568	8392
2905.419	8371
2907.27	8422
2909.123	8295
2910.973	8458
2912.824	8424
2914.673	8591
2916.521	8612
2918.372	8729
2920.22	8624
2922.067	8763
2923.914	8665
2925.761	8936
2927.607	8862
2929.455	9084
2931.301	9049
2933.144	9013
2934.99	9203
2936.833	9165
2938.678	9146
2940.522	9350
2942.364	9384
2944.207	9459
2946.048	9348
2947.891	9487
2949.731	9446
2951.571	9504
2953.412	9460
2955.25	9350
2957.09	9260
2958.93	9254
2960.767	9205
2962.606	9064
2964.443	9051
2966.279	8962
2968.116	8913
2969.953	8741
2971.788	8760
2973.623	8696
2975.457	8448
2977.292	8584
2979.127	8478
2980.959	8652
2982.792	8515
2984.624	8428
2986.455	8461
2988.288	8399
2990.119	8304
2991.949	8188
2993.779	8253
2995.608	8319
2997.439	8262
2999.268	8101
3001.096	8065
3002.923	7945
3004.751	7950
3006.578	7800
3008.406	7870
3010.232	7823
3012.057	7697
3013.883	7718
3015.706	7800
3017.532	7638
3019.356	7596
3021.179	7495
3023.002	7554
3024.823	7503
3026.646	7459
3028.469	7466
3030.289	7370
3032.11	7432
3033.93	7481
3035.749	7462
3037.57	7238
3039.39	7396
3041.207	7326
3043.026	7508
3044.842	7276
3046.661	7461
3048.477	7375
3050.294	7300
3052.109	7395
3053.925	7232
3055.739	7315
3057.555	7362
3059.368	7265
3061.181	7285
3062.995	7317
3064.807	7309
3066.62	7431
3068.433	7388
3070.243	7298
3072.054	7069
3073.865	7379
3075.675	7292
3077.485	7221
3079.293	7216
3081.102	7236
3082.911	7163
3084.719	7046
3086.527	7140
3088.333	7221
3090.139	7143
3091.945	7103
3093.75	7174
3095.557	7143
3097.361	7134
3099.165	7100
3100.969	7030
3102.772	7022
3104.575	7215
3106.379	7104
3108.181	7073
3109.982	7090
3111.783	7079
3113.584	7170
3115.386	6994
3117.186	6889
3118.985	7000
3120.783	6957
3122.582	7034
3124.381	6960
3126.179	7018
3127.975	6985
3129.772	6994
3131.569	6879
3133.365	6899
3135.161	6844
3136.956	6920
3138.751	6757
3140.544	6886
3142.338	6957
3144.132	6932
3145.925	7008
3147.717	6840
3149.509	6824
3151.301	6834
3153.091	6953
3154.884	6793
3156.673	6853
3158.462	6860
3160.252	6849
3162.041	6956
3163.831	7063
3165.618	6662
3167.405	6836
3169.193	6813
3170.979	6864
3172.767	6738
3174.553	6778
3176.338	6815
3178.123	6857
3179.907	6746
3181.692	6799
3183.477	6817
3185.259	6785
3187.042	6819
3188.824	6770
3190.607	6808
3192.389	6808
3194.17	6774
3195.951	6863
3197.73	6759
3199.51	6765
3201.289	6705
3203.07	6735
3204.848	6801
3206.626	6828
3208.403	6832
3210.18	6636
3211.959	6781
3213.735	6687
3215.511	6714
3217.285	6699
3219.06	6831
3220.836	6683
3222.611	6648
3224.384	6778
3226.158	6679
3227.929	6665
3229.702	6591
3231.476	6629
3233.248	6801
3235.018	6594
3236.789	6662
3238.56	6784
3240.33	6739
3242.1	6714
3243.869	6691
3245.637	6789
3247.405	6740
3249.172	6657
3250.941	6794
3252.707	6756
3254.474	6652
3256.24	6833
3258.006	6715
3259.772	6695
3261.537	6800
3263.301	6719
3265.065	6715
3266.828	6773
3268.592	6745
3270.355	6770
3272.117	6661
3273.878	6778
3275.64	6733
3277.401	6758
3279.162	6695
3280.922	6716
3282.682	6739
3284.441	6703
3286.199	6693
3287.959	6714
3289.716	6536
3291.475	6712
3293.232	6732
3294.988	6648
3296.744	6682
3298.501	6609
3300.256	6677
3302.011	6732
3303.766	6712
3305.52	6725
3307.275	6603
3309.028	6702
3310.781	6599
3312.533	6650
3314.285	6744
3316.038	6603
3317.789	6663
3319.54	6613
3321.289	6599
3323.039	6725
3324.789	6576
3326.539	6542
3328.288	6596
3330.035	6665
3331.783	6492
3333.531	6601
3335.28	6562
3337.025	6536
3338.771	6579
3340.518	6585
3342.262	6531
3344.009	6584
3345.753	6623
3347.497	6584
3349.24	6509
3350.983	6536
3352.726	6546
3354.469	6620
3356.212	6492
3357.952	6479
3359.694	6577
3361.434	6559
3363.176	6524
3364.916	6498
3366.654	6480
3368.394	6502
3370.132	6496
3371.871	6456
3373.61	6508
3375.346	6499
3377.083	6490
3378.82	6494
3380.556	6502
3382.292	6368
3384.027	6412
3385.763	6370
3387.497	6494
3389.231	6417
3390.965	6491
3392.698	6466
3394.431	6380
3396.164	6449
3397.896	6457
3399.627	6429
3401.36	6412
3403.09	6424
3404.82	6283
3406.55	6394
3408.279	6398
3410.01	6310
3411.738	6363
3413.467	6448
3415.194	6238
3416.92	6291
3418.647	6271
3420.375	6246
3422.102	6270
3423.827	6389
3425.553	6249
3427.277	6303
3429.003	6250
3430.727	6213
3432.451	6263
3434.173	6293
3435.896	6314
3437.62	6063
3439.343	6192
3441.063	6153
3442.785	6292
3444.505	6127
3446.226	6280
3447.948	6216
3449.666	6116
3451.386	6167
3453.104	6116
3454.823	6227
3456.541	6144
3458.259	6100
3459.976	6100
3461.693	6190
3463.408	6115
3465.125	6060
3466.841	6186
3468.556	5942
3470.271	5977
3471.985	6056
3473.698	5995
3475.414	6012
3477.126	6086
3478.838	5953
3480.55	5988
3482.263	6088
3483.975	5881
3485.686	5945
3487.396	5967
3489.106	5970
3490.817	5871
3492.526	6056
3494.236	5893
3495.944	6010
3497.652	5933
3499.359	5902
3501.066	6021
3502.775	5875
3504.481	5853
3506.187	5879
3507.893	6080
3509.598	5791
3511.304	5760
3513.009	5895
3514.713	5818
3516.417	5864
3518.12	5854
3519.821	5775
3521.525	5807
3523.228	5729
3524.929	5726
3526.631	5669
3528.33	5774
3530.032	5798
3531.733	5828
3533.433	5738
3535.131	5725
3536.83	5792
3538.529	5831
3540.227	5777
3541.925	5817
3543.623	5714
3545.319	5702
3547.016	5629
3548.712	5766
3550.408	5693
3552.103	5731
3553.798	5689
3555.491	5641
3557.188	5675
3558.88	5713
3560.574	5657
3562.266	5685
3563.959	5676
3565.651	5641
3567.343	5591
3569.035	5573
3570.725	5666
3572.415	5528
3574.106	5606
3575.797	5524
3577.485	5590
3579.174	5511
3580.863	5506
3582.551	5464
3584.238	5564
3585.926	5619
3587.613	5477
3589.3	5498
3590.986	5495
3592.671	5564
3594.357	5474
3596.042	5558
3597.726	5509
3599.41	5450
3601.094	5432
3602.778	5462
3604.461	5484
3606.143	5427
3607.825	5383
3609.507	5397
3611.188	5378
3612.87	5422
3614.551	5408
3616.229	5423
3617.909	5383
3619.589	5262
3621.269	5235
3622.948	5283
3624.625	5298
3626.302	5312
3627.98	5304
3629.657	5297
3631.334	5337
3633.01	5321
3634.686	5319
3636.361	5205
3638.036	5291
3639.712	5229
3641.385	5295
3643.06	5279
3644.732	5192
3646.405	5258
3648.08	5294
3649.751	5273
3651.424	5092
3653.094	5165
3654.766	5114
3656.436	5111
3658.106	5162
3659.777	5180
3661.446	5086
3663.115	5144
3664.783	5218
3666.452	5170
3668.121	5200
3669.788	5219
3671.454	5234
3673.121	5124
3674.789	5011
3676.455	5165
3678.12	5105
3679.784	5096
3681.45	5017
3683.114	5109
3684.779	5195
3686.442	4971
3688.105	5102
3689.768	5144
3691.43	5068
3693.093	5110
3694.754	5106
3696.415	5014
3698.076	5055
3699.736	5081
3701.396	5059
3703.057	5006
3704.716	5062
3706.375	5024
3708.034	4948
3709.692	4933
3711.351	5067
3713.008	5019
3714.665	5029
3716.321	4944
3717.977	4960
3719.634	5021
3721.29	4998
3722.945	5031
3724.598	4999
3726.253	4971
3727.907	4916
3729.561	4919
3731.214	4969
3732.867	4948
3734.518	4943
3736.171	4923
3737.824	5062
3739.474	4922
3741.125	4882
3742.775	4944
3744.425	5052
3746.074	4951
3747.725	4962
3749.373	4916
3751.022	4896
3752.669	4925
3754.318	4901
3755.966	4921
3757.612	4947
3759.259	4840
3760.905	4860
3762.55	4858
3764.197	4885
3765.842	4890
3767.486	4774
3769.131	4895
3770.774	4931
3772.417	4831
3774.061	4880
3775.705	4932
3777.347	4819
3778.988	4799
3780.629	4762
3782.271	4729
3783.912	4811
3785.552	4801
3787.192	4775
3788.831	4752
3790.472	4850
3792.112	4772
3793.75	4853
3795.388	4769
3797.024	4773
3798.661	4737
3800.3	4769
3801.936	4774
3803.572	4768
3805.208	4746
3806.844	4725
3808.48	4760
3810.115	4603
3811.748	4693
3813.382	4656
3815.016	4624
3816.649	4692
3818.283	4742
3819.914	4727
3821.547	4744
3823.178	4566
3824.809	4620
3826.441	4642
3828.072	4739
3829.701	4512
3831.331	4753
3832.96	4585
3834.591	4587
3836.219	4606
3837.847	4717
3839.475	4694
3841.102	4668
3842.729	4615
3844.357	4561
3845.984	4544
3847.609	4690
3849.234	4525
3850.86	4583
3852.485	4542
3854.11	4576
3855.734	4579
3857.357	4545
3858.981	4521
3860.603	4543
3862.227	4616
3863.848	4508
3865.471	4454
3867.092	4498
3868.713	4614
3870.334	4621
3871.954	4628
3873.575	4577
3875.194	4514
3876.813	4497
3878.433	4548
3880.051	4552
3881.669	4606
3883.286	4526
3884.904	4525
3886.52	4455
3888.138	4426
3889.754	4525
3891.37	4497
3892.985	4465
3894.6	4572
3896.216	4447
3897.831	4467
3899.444	4435
3901.058	4475
3902.67	4494
3904.283	4466
3905.897	4529
3907.509	4423
3909.121	4530
3910.731	4547
3912.342	4474
3913.954	4439
3915.563	4544
3917.174	4406
3918.783	4393
3920.391	4463
3922.002	4480
3923.611	4490
3925.218	4471
3926.826	4399
3928.432	4450
3930.039	4404
3931.647	4398
3933.253	4404
3934.859	4401
3936.464	4431
3938.068	4377
3939.675	4366
3941.278	4342
3942.883	4314
3944.486	4406
3946.089	4411
3947.692	4332
3949.295	4297
3950.898	4310
3952.499	4349
3954.1	4382
3955.7	4324
3957.303	4362
3958.903	4347
3960.502	4324
3962.101	4364
3963.7	4264
3965.301	4297
3966.899	4350
3968.497	4273
3970.094	4378
3971.691	4353
3973.288	4271
3974.885	4281
3976.481	4226
3978.077	4356
3979.672	4257
3981.267	4257
3982.863	4277
3984.457	4237
3986.051	4266
3987.645	4217
3989.238	4307
3990.831	4246
3992.425	4275
3994.017	4196
3995.607	4244
3997.199	4133
3998.79	4304
4000.382	4064
4001.973	4312
4003.561	4187
4005.151	4153
4006.741	4257
4008.331	4185
4009.918	4154
4011.507	4095
4013.095	4169
4014.681	4123
4016.269	4110
4017.856	4150
4019.443	4100
4021.028	4056
4022.614	4125
4024.199	4130
4025.785	4175
4027.37	4010
4028.953	4113
4030.536	4039
4032.12	4088
4033.704	4113
4035.287	4140
4036.869	4083
4038.45	4040
4040.032	3934
4041.613	4072
4043.195	4041
4044.776	3992
4046.356	4092
4047.935	4094
4049.515	4012
4051.095	3992
4052.674	4022
4054.251	4029
4055.829	4065
4057.406	4054
4058.985	4019
4060.562	3999
4062.139	4044
4063.715	3945
4065.29	4000
4066.865	3979
4068.442	3910
4070.016	4000
4071.59	3968
4073.164	3934
4074.738	3917
4076.312	4080
4077.885	3890
4079.458	3954
4081.03	3943
4082.602	3970
4084.173	3949
4085.745	3817
4087.315	3831
4088.886	3880
4090.456	3951
4092.026	3876
4093.596	3912
4095.165	3929
4096.734	3901
4098.301	3921
4099.869	3844
4101.437	3891
4103.006	3902
4104.572	3810
4106.139	3885
4107.704	3985
4109.27	3927
4110.837	3929
4112.401	3919
4113.966	3865
4115.53	3877
4117.094	3821
4118.659	3754
4120.223	3837
4121.785	3780
4123.347	3870
4124.909	3891
4126.471	3778
4128.034	3794
4129.595	3838
4131.155	3795
4132.716	3865
4134.275	3897
4135.836	3794
4137.395	3727
4138.955	3744
4140.513	3839
4142.071	3796
4143.628	3750
4145.188	3764
4146.745	3789
4148.302	3740
4149.858	3746
4151.414	3711
4152.971	3736
4154.526	3758
4156.081	3785
4157.635	3788
4159.189	3693
4160.745	3760
4162.298	3758
4163.852	3679
4165.405	3779
4166.957	3737
4168.51	3681
4170.063	3632
4171.614	3690
4173.166	3641
4174.717	3670
4176.267	3624
4177.817	3598
4179.368	3667
4180.917	3591
4182.466	3621
4184.016	3639
4185.564	3677
4187.112	3605
4188.66	3659
4190.207	3614
4191.754	3602
4193.301	3579
4194.848	3621
4196.394	3643
4197.94	3600
4199.484	3545
4201.03	3510
4202.575	3572
4204.12	3654
4205.663	3567
4207.207	3533
4208.75	3617
4210.292	3499
4211.836	3550
4213.378	3637
4214.92	3520
4216.46	3606
4218.002	3552
4219.544	3528
4221.083	3511
4222.625	3492
4224.164	3563
4225.703	3589
4227.244	3477
4228.782	3550
4230.32	3578
4231.857	3536
4233.395	3469
4234.933	3508
4236.471	3539
4238.007	3524
4239.542	3454
4241.078	3568
4242.614	3466
4244.15	3475
4245.685	3483
4247.219	3473
4248.753	3484
4250.287	3464
4251.82	3511
4253.354	3526
4254.887	3476
4256.419	3455
4257.951	3454
4259.483	3489
4261.016	3443
4262.547	3451
4264.078	3497
4265.608	3492
4267.137	3494
4268.668	3400
4270.197	3376
4271.727	3455
4273.254	3408
4274.783	3353
4276.311	3448
4277.84	3387
4279.366	3359
4280.894	3494
4282.42	3430
4283.946	3395
4285.473	3380
4286.998	3447
4288.523	3439
4290.047	3437
4291.572	3373
4293.096	3381
4294.622	3439
4296.144	3391
4297.668	3392
4299.19	3351
4300.713	3339
4302.236	3399
4303.758	3373
4305.279	3385
4306.799	3332
4308.321	3383
4309.842	3414
4311.361	3338
4312.882	3316
4314.401	3267
