400.0961	3879
402.6185	3950
405.1424	3885
407.6635	3850
410.1838	3929
412.7035	3916
415.2225	3858
417.7388	3913
420.2585	4058
422.7754	4061
425.2917	3996
427.8072	3993
430.3221	4076
432.8363	4073
435.3498	4045
437.8626	4050
440.3727	4039
442.8841	4142
445.3969	4137
447.907	4079
450.4142	4094
452.9229	4099
455.4289	4020
457.9362	4071
460.4449	4101
462.9488	4065
465.454	4092
467.9566	4076
470.4604	4142
472.9637	4093
475.4662	4127
477.966	4079
480.4671	4192
482.9656	4047
485.4633	4142
487.9645	4218
490.4608	4180
492.9566	4134
495.4536	4181
497.948	4171
500.4437	4176
502.9387	4123
505.431	4209
507.9226	4208
510.4136	4308
512.9079	4304
515.3975	4310
517.8864	4354
520.3746	4252
522.8622	4249
525.3491	4210
527.8394	4244
530.3249	4295
532.8098	4230
535.2939	4314
537.7774	4263
540.2623	4245
542.7444	4269
545.2259	4292
547.7067	4217
550.1868	4295
552.6683	4255
555.147	4250
557.6231	4306
560.1005	4281
562.5773	4292
565.0534	4215
567.5308	4269
570.0056	4338
572.4776	4420
574.951	4277
577.4237	4432
579.8978	4342
582.3671	4394
584.8378	4433
587.3079	4388
589.7773	4435
592.244	4481
594.714	4455
597.1793	4435
599.6461	4405
602.1121	4402
604.5754	4413
607.0421	4467
609.5042	4405
611.9675	4431
614.4282	4405
616.8902	4436
619.3515	4440
621.8122	4427
624.2702	4410
626.7296	4402
629.1863	4327
631.6423	4387
634.1017	4423
636.5563	4339
639.0104	4432
641.4658	4534
643.9185	4366
646.3725	4379
648.8239	4470
651.2766	4461
653.7266	4427
656.176	4467
658.6247	4519
661.0748	4499
663.5242	4557
665.9709	4541
668.417	4603
670.8624	4540
673.3092	4483
675.7533	4520
678.1968	4488
680.6395	4554
683.0817	4470
685.5251	4527
687.9659	4576
690.4061	4577
692.8456	4613
695.2844	4622
697.7226	4641
700.1621	4573
702.599	4612
705.0332	4529
707.4688	4671
709.9036	4613
712.3399	4686
714.7735	4583
717.2044	4614
719.6367	4758
722.0683	4684
724.4993	4693
726.9296	4706
729.3593	4740
731.7883	4704
734.2147	4736
736.6423	4726
739.0714	4699
741.4958	4801
743.9216	4873
746.3447	4771
748.7691	4796
751.1929	4902
753.616	4916
756.0366	4821
758.4584	4787
760.8776	4924
763.2982	4789
765.718	4922
768.1373	4837
770.5539	4901
772.9698	4921
775.3871	4877
777.8038	4931
780.2178	4917
782.6332	4917
785.0459	4862
787.458	4913
789.8714	4914
792.2842	4877
794.6943	4936
797.1038	4928
799.5127	4891
801.9209	4911
804.3324	4859
806.7393	4944
809.1456	4860
811.5513	4891
813.9562	4952
816.3625	4987
818.7663	5025
821.1693	4885
823.5718	4975
825.9735	4927
828.3746	4848
830.7771	4977
833.177	5011
835.5762	4893
837.9747	4998
840.3727	5036
842.772	5080
845.1666	5138
847.5626	5051
849.958	5040
852.3527	5169
854.7488	5138
857.1403	5027
859.5331	5190
861.9253	5050
864.3168	5089
866.7057	5012
869.098	5090
871.4876	5040
873.8746	4984
876.263	4990
878.6487	5058
881.0378	5089
883.4243	5040
885.8081	5011
888.1933	5099
890.5759	5062
892.9598	5058
895.343	4992
897.7256	5034
900.1057	5039
902.4871	5052
904.8659	5077
907.246	5172
909.6254	5139
912.0023	5201
914.3786	5343
916.7562	5277
919.1331	5371
921.5074	5468
923.8831	5606
926.2562	5510
928.6287	5434
931.0005	5308
933.3757	5380
935.7462	5392
938.1162	5520
940.4855	5389
942.8542	5271
945.2242	5430
947.5916	5424
949.9584	5524
952.3266	5605
954.6921	5737
957.0571	5814
959.4233	5840
961.787	5809
964.15	5919
966.5125	5826
968.8742	5674
971.2354	5587
973.5959	5484
975.9559	5445
978.3151	5381
980.6738	5249
983.0338	5376
985.3912	5326
987.7461	5310
990.1022	5162
992.4578	5319
994.8127	5255
997.1689	5296
999.5207	5205
1001.874	5303
1004.226	5312
1006.576	5333
1008.929	5237
1011.28	5141
1013.628	5148
1015.977	5280
1018.324	5203
1020.674	5275
1023.019	5301
1025.366	5427
1027.713	5321
1030.056	5311
1032.399	5402
1034.746	5250
1037.087	5298
1039.431	5338
1041.771	5345
1044.113	5278
1046.454	5340
1048.793	5346
1051.133	5320
1053.471	5367
1055.807	5340
1058.146	5307
1060.483	5335
1062.818	5413
1065.153	5416
1067.489	5532
1069.822	5378
1072.156	5400
1074.488	5325
1076.82	5404
1079.15	5311
1081.48	5379
1083.814	5394
1086.143	5325
1088.471	5339
1090.799	5394
1093.126	5369
1095.452	5458
1097.78	5391
1100.105	5378
1102.43	5402
1104.754	5407
1107.077	5360
1109.4	5397
1111.722	5402
1114.044	5317
1116.365	5395
1118.685	5358
1121.005	5352
1123.324	5377
1125.643	5522
1127.961	5454
1130.278	5443
1132.595	5371
1134.911	5453
1137.226	5382
1139.541	5398
1141.854	5382
1144.167	5453
1146.482	5403
1148.793	5429
1151.105	5400
1153.414	5353
1155.725	5472
1158.033	5424
1160.344	5358
1162.651	5513
1164.959	5451
1167.265	5454
1169.572	5546
1171.878	5431
1174.184	5462
1176.488	5562
1178.79	5506
1181.094	5467
1183.396	5513
1185.699	5628
1188.001	5562
1190.301	5385
1192.6	5343
1194.9	5448
1197.2	5398
1199.497	5412
1201.794	5360
1204.09	5395
1206.387	5445
1208.684	5349
1210.978	5384
1213.272	5465
1215.565	5437
1217.858	5511
1220.15	5462
1222.443	5455
1224.734	5461
1227.024	5541
1229.313	5585
1231.602	5510
1233.892	5567
1236.18	5603
1238.467	5605
1240.754	5621
1243.04	5703
1245.325	5553
1247.612	5600
1249.896	5780
1252.178	5697
1254.461	5755
1256.743	5776
1259.027	5738
1261.308	5679
1263.587	5679
1265.867	5733
1268.146	5768
1270.425	5836
1272.703	5768
1274.981	5708
1277.256	5661
1279.532	5708
1281.808	5719
1284.083	5685
1286.358	5726
1288.63	5610
1290.904	5659
1293.175	5501
1295.449	5626
1297.719	5584
1299.99	5609
1302.259	5660
1304.529	5545
1306.798	5653
1309.065	5627
1311.333	5574
1313.599	5681
1315.866	5595
1318.131	5654
1320.396	5563
1322.66	5598
1324.925	5561
1327.187	5788
1329.448	5806
1331.711	5718
1333.974	5795
1336.234	5666
1338.493	5701
1340.752	5627
1343.01	5640
1345.269	5595
1347.526	5623
1349.784	5668
1352.04	5616
1354.295	5548
1356.552	5565
1358.806	5656
1361.059	5662
1363.312	5659
1365.564	5524
1367.818	5696
1370.069	5574
1372.318	5706
1374.568	5603
1376.817	5622
1379.066	5650
1381.316	5769
1383.564	5634
1385.809	5762
1388.056	5789
1390.301	5879
1392.549	5812
1394.793	5955
1397.036	6007
1399.279	5899
1401.522	5952
1403.763	6015
1406.007	5911
1408.248	6048
1410.487	5979
1412.727	5969
1414.965	6046
1417.205	5921
1419.442	5956
1421.68	5910
1423.915	5911
1426.152	5887
1428.388	5833
1430.623	5792
1432.857	5822
1435.091	5940
1437.323	5900
1439.556	5949
1441.789	5986
1444.019	5977
1446.25	5922
1448.48	6074
1450.708	5934
1452.938	6000
1455.167	6019
1457.394	6085
1459.62	6076
1461.846	6080
1464.073	6071
1466.299	5995
1468.523	5890
1470.746	5974
1472.969	5882
1475.191	5771
1477.415	5749
1479.636	5708
1481.858	5634
1484.078	5679
1486.298	5631
1488.518	5704
1490.736	5570
1492.954	5672
1495.169	5641
1497.386	5601
1499.602	5660
1501.819	5564
1504.034	5550
1506.248	5692
1508.462	5601
1510.675	5659
1512.888	5471
1515.1	5598
1517.311	5573
1519.522	5627
1521.732	5576
1523.942	5569
1526.151	5617
1528.36	5593
1530.566	5505
1532.773	5597
1534.98	5647
1537.187	5635
1539.392	5678
1541.596	5652
1543.801	5627
1546.005	5611
1548.208	5659
1550.411	5744
1552.612	5592
1554.814	5685
1557.013	5644
1559.212	5731
1561.414	5701
1563.612	5680
1565.811	5773
1568.007	5788
1570.203	5738
1572.403	5721
1574.598	5719
1576.792	5741
1578.988	5779
1581.181	5745
1583.376	5726
1585.568	5714
1587.761	5712
1589.952	5857
1592.143	5880
1594.333	5869
1596.524	5827
1598.715	5822
1600.903	5830
1603.091	5761
1605.278	5827
1607.466	5909
1609.652	5805
1611.838	5744
1614.023	5779
1616.207	5825
1618.391	5808
1620.576	5894
1622.759	5784
1624.941	5843
1627.123	5792
1629.304	5886
1631.484	5912
1633.664	5846
1635.844	5850
1638.022	5913
1640.201	5887
1642.38	6053
1644.556	5910
1646.732	5798
1648.908	5868
1651.084	5883
1653.257	5934
1655.433	5912
1657.607	5949
1659.779	6069
1661.951	5961
1664.122	5889
1666.295	5971
1668.467	6000
1670.635	6022
1672.805	5992
1674.973	5916
1677.142	6049
1679.31	5953
1681.478	6004
1683.644	5965
1685.81	6037
1687.975	5803
1690.142	5927
1692.305	5955
1694.468	5878
1696.632	5934
1698.794	5903
1700.957	5676
1703.119	5833
1705.279	5864
1707.439	5838
1709.598	5832
1711.758	5828
1713.917	5839
1716.075	5831
1718.231	5841
1720.388	5724
1722.543	5743
1724.702	5736
1726.856	5706
1729.01	5805
1731.164	5803
1733.317	5650
1735.471	5817
1737.623	5769
1739.774	5741
1741.925	5810
1744.075	5771
1746.225	5701
1748.376	5741
1750.524	5767
1752.672	5832
1754.82	5876
1756.965	5737
1759.113	5857
1761.259	5941
1763.405	5842
1765.549	5750
1767.694	5719
1769.836	5806
1771.981	5802
1774.123	5792
1776.264	5857
1778.405	5932
1780.546	5830
1782.687	5732
1784.827	5808
1786.966	5787
1789.103	5816
1791.242	5807
1793.381	5980
1795.517	5851
1797.653	5887
1799.788	5790
1801.923	5834
1804.057	5826
1806.193	5806
1808.326	5773
1810.457	5792
1812.59	5827
1814.721	5883
1816.855	5827
1818.984	5875
1821.113	5929
1823.244	5826
1825.372	5821
1827.499	5853
1829.63	5894
1831.756	5780
1833.882	5861
1836.007	5753
1838.132	5828
1840.26	5793
1842.384	5830
1844.507	5778
1846.63	5837
1848.752	5831
1850.875	5868
1852.996	5808
1855.118	5810
1857.238	5820
1859.358	5779
1861.477	5787
1863.597	5851
1865.715	5816
1867.832	5806
1869.948	5698
1872.064	5685
1874.181	5729
1876.297	5753
1878.411	5884
1880.526	5761
1882.639	5686
1884.752	5793
1886.865	5780
1888.977	5860
1891.089	5833
1893.2	5772
1895.308	5810
1897.42	5792
1899.53	5829
1901.639	6005
1903.745	5858
1905.853	5856
1907.962	5932
1910.067	5881
1912.174	5808
1914.278	5853
1916.383	5931
1918.486	5767
1920.592	5875
1922.694	5855
1924.797	5948
1926.898	5793
1929	5923
1931.102	5897
1933.203	5800
1935.301	5946
1937.401	5867
1939.499	5848
1941.598	5855
1943.697	5967
1945.793	5910
1947.888	5912
1949.985	5984
1952.08	5848
1954.176	6009
1956.269	5851
1958.364	5856
1960.457	5839
1962.549	5917
1964.642	5979
1966.733	5868
1968.823	5899
1970.913	5886
1973.005	5761
1975.093	5775
1977.184	5903
1979.271	5893
1981.359	5945
1983.446	5864
1985.532	5817
1987.619	5806
1989.705	5856
1991.789	5728
1993.874	5826
1995.956	5747
1998.041	5817
2000.123	5850
2002.206	5718
2004.287	5775
2006.368	5789
2008.449	5775
2010.529	5775
2012.609	5745
2014.688	5857
2016.766	5806
2018.843	5743
2020.922	5784
2022.999	5783
2025.074	5867
2027.15	5906
2029.225	5771
2031.299	5881
2033.375	5819
2035.447	5812
2037.52	5804
2039.592	5773
2041.664	5726
2043.736	5822
2045.807	5822
2047.876	5771
2049.947	5842
2052.015	5892
2054.086	5795
2056.153	5809
2058.221	5835
2060.288	5942
2062.353	5790
2064.42	5780
2066.486	5719
2068.55	5848
2070.614	5736
2072.678	5840
2074.741	5860
2076.805	5804
2078.866	5865
2080.929	5852
2082.99	5800
2085.049	5848
2087.109	5801
2089.17	5754
2091.228	5874
2093.286	5863
2095.344	5842
2097.4	5864
2099.46	5837
2101.516	5772
2103.572	5825
2105.626	5833
2107.679	5858
2109.735	5846
2111.788	5818
2113.841	5787
2115.894	5693
2117.945	5750
2119.997	5870
2122.049	5836
2124.1	5771
2126.148	5827
2128.197	5777
2130.246	5883
2132.296	5788
2134.342	5879
2136.39	5804
2138.437	5904
2140.483	5791
2142.527	5894
2144.574	5766
2146.619	5820
2148.661	5745
2150.705	5770
2152.747	5773
2154.792	5637
2156.832	5862
2158.874	5766
2160.915	5798
2162.954	5723
2164.995	5806
2167.034	5682
2169.072	5664
2171.111	5800
2173.148	5829
2175.186	5793
2177.223	5785
2179.258	5806
2181.294	5785
2183.328	5663
2185.362	5694
2187.398	5715
2189.431	5708
2191.463	5719
2193.495	5734
2195.528	5651
2197.56	5669
2199.59	5659
2201.62	5714
2203.649	5708
2205.678	5727
2207.708	5695
2209.737	5640
2211.764	5672
2213.791	5637
2215.817	5664
2217.843	5769
2219.87	5657
2221.895	5601
2223.919	5688
2225.942	5586
2227.966	5617
2229.988	5655
2232.012	5591
2234.032	5695
2236.054	5526
2238.074	5656
2240.095	5742
2242.116	5620
2244.135	5737
2246.153	5738
2248.171	5617
2250.188	5573
2252.208	5620
2254.223	5580
2256.239	5650
2258.255	5556
2260.269	5626
2262.283	5586
2264.3	5599
2266.312	5659
2268.325	5706
2270.336	5609
2272.349	5566
2274.362	5692
2276.372	5729
2278.383	5722
2280.392	5606
2282.402	5682
2284.409	5699
2286.418	5557
2288.427	5650
2290.433	5614
2292.441	5604
2294.446	5639
2296.453	5625
2298.459	5597
2300.463	5658
2302.466	5738
2304.471	5644
2306.475	5727
2308.477	5680
2310.478	5569
2312.481	5684
2314.481	5565
2316.481	5582
2318.482	5593
2320.482	5579
2322.48	5596
2324.48	5602
2326.478	5600
2328.476	5580
2330.473	5575
2332.469	5435
2334.465	5606
2336.46	5642
2338.454	5629
2340.45	5478
2342.444	5614
2344.437	5563
2346.43	5510
2348.421	5393
2350.414	5584
2352.405	5472
2354.396	5457
2356.386	5591
2358.376	5440
2360.366	5493
2362.355	5457
2364.343	5444
2366.331	5455
2368.317	5459
2370.304	5496
2372.292	5419
2374.278	5446
2376.262	5620
2378.247	5385
2380.23	5455
2382.216	5498
2384.199	5387
2386.181	5528
2388.163	5439
2390.144	5416
2392.127	5491
2394.107	5406
2396.087	5425
2398.066	5438
2400.046	5544
2402.023	5461
2404.004	5397
2405.981	5517
2407.957	5471
2409.934	5434
2411.91	5358
2413.886	5467
2415.862	5497
2417.836	5510
2419.809	5434
2421.784	5426
2423.756	5471
2425.73	5455
2427.701	5439
2429.672	5500
2431.644	5412
2433.615	5528
2435.586	5396
2437.555	5485
2439.523	5425
2441.491	5505
2443.459	5383
2445.428	5342
2447.395	5352
2449.361	5340
2451.327	5334
2453.292	5411
2455.257	5325
2457.223	5417
2459.187	5349
2461.15	5374
2463.113	5319
2465.076	5352
2467.039	5291
2468.999	5397
2470.96	5368
2472.921	5316
2474.881	5292
2476.841	5421
2478.8	5398
2480.759	5405
2482.717	5392
2484.675	5371
2486.63	5379
2488.589	5345
2490.545	5383
2492.5	5394
2494.455	5453
2496.408	5332
2498.364	5447
2500.318	5265
2502.27	5263
2504.223	5347
2506.174	5263
2508.126	5344
2510.078	5328
2512.03	5342
2513.979	5227
2515.927	5363
2517.877	5315
2519.826	5310
2521.775	5324
2523.722	5320
2525.668	5239
2527.616	5292
2529.561	5347
2531.508	5301
2533.452	5289
2535.398	5332
2537.342	5237
2539.284	5344
2541.229	5362
2543.173	5254
2545.114	5227
2547.055	5392
2548.996	5200
2550.938	5369
2552.878	5172
2554.817	5313
2556.756	5257
2558.695	5287
2560.633	5320
2562.572	5284
2564.509	5290
2566.445	5354
2568.382	5362
2570.317	5252
2572.254	5273
2574.189	5285
2576.123	5298
2578.057	5200
2579.99	5291
2581.923	5347
2583.855	5360
2585.788	5300
2587.719	5215
2589.65	5428
2591.579	5199
2593.511	5344
2595.44	5375
2597.37	5325
2599.297	5264
2601.225	5344
2603.153	5275
2605.08	5400
2607.007	5435
2608.932	5272
2610.858	5319
2612.782	5279
2614.709	5343
2616.632	5314
2618.556	5388
2620.478	5237
2622.401	5265
2624.324	5167
2626.247	5270
2628.167	5302
2630.088	5365
2632.008	5283
2633.928	5199
2635.848	5396
2637.766	5306
2639.684	5273
2641.603	5282
2643.519	5436
2645.437	5316
2647.353	5390
2649.27	5303
2651.184	5344
2653.099	5330
2655.014	5430
2656.928	5256
2658.842	5352
2660.755	5352
2662.667	5249
2664.579	5334
2666.491	5268
2668.402	5283
2670.312	5217
2672.222	5254
2674.132	5196
2676.042	5239
2677.951	5435
2679.859	5289
2681.766	5183
2683.674	5218
2685.582	5206
2687.488	5244
2689.392	5376
2691.298	5222
2693.202	5124
2695.107	5235
2697.012	5236
2698.914	5204
2700.817	5216
2702.72	5199
2704.622	5178
2706.524	5172
2708.425	5270
2710.326	5139
2712.225	5190
2714.125	5178
2716.024	5258
2717.923	5095
2719.822	5252
2721.719	5135
2723.616	5240
2725.512	5289
2727.41	5163
2729.305	5064
2731.201	5265
2733.095	5202
2734.99	5176
2736.884	5188
2738.778	5211
2740.67	5104
2742.562	5096
2744.455	5106
2746.346	5137
2748.238	5123
2750.129	5226
2752.018	5214
2753.907	5140
2755.797	5215
2757.687	5188
2759.575	5224
2761.462	5261
2763.349	5063
2765.237	5158
2767.124	5167
2769.009	5105
2770.894	5125
2772.779	5212
2774.663	5213
2776.547	5197
2778.431	5102
2780.314	5161
2782.197	5087
2784.078	5193
2785.96	5147
2787.842	5188
2789.723	5168
2791.603	5129
2793.483	5116
2795.362	5200
2797.241	5180
2799.121	5096
2800.997	5075
2802.874	5167
2804.751	5031
2806.628	5104
2808.506	5149
2810.38	5001
2812.255	5174
2814.13	4976
2816.003	5087
2817.878	5116
2819.752	5135
2821.623	5153
2823.496	5034
2825.368	5003
2827.238	5094
2829.111	5090
2830.98	5103
2832.851	5101
2834.719	5123
2836.589	5191
2838.458	5122
2840.327	5113
2842.193	5118
2844.061	5165
2845.927	5175
2847.794	5209
2849.66	5212
2851.525	5286
2853.39	5140
2855.254	5218
2857.117	5264
2858.983	5148
2860.845	5222
2862.707	5326
2864.569	5154
2866.431	5440
2868.293	5254
2870.154	5437
2872.013	5383
2873.873	5523
2875.733	5548
2877.592	5601
2879.451	5618
2881.309	5615
2883.166	5604
2885.022	5782
2886.879	5696
2888.736	5760
2890.591	5885
2892.446	5771
2894.301	5831
2896.155	5837
2898.009	5726
2899.863	5782
2901.716	5822
2903.568	5770
2905.419	5815
2907.27	5634
2909.123	5794
2910.973	5827
2912.824	5825
2914.673	5765
2916.521	5703
2918.372	6031
2920.22	5960
2922.067	5891
2923.914	6034
2925.761	6030
2927.607	6156
2929.455	6184
2931.301	6075
2933.144	6126
2934.99	6191
2936.833	6264
2938.678	6291
2940.522	6333
2942.364	6482
2944.207	6550
2946.048	6703
2947.891	6684
2949.731	6780
2951.571	6602
2953.412	6618
2955.25	6708
2957.09	6585
2958.93	6576
2960.767	6579
2962.606	6451
2964.443	6487
2966.279	6303
2968.116	6166
2969.953	6012
2971.788	6173
2973.623	5968
2975.457	5967
2977.292	5951
2979.127	5863
2980.959	5820
2982.792	5699
2984.624	5600
2986.455	5744
2988.288	5615
2990.119	5545
2991.949	5704
2993.779	5462
2995.608	5629
2997.439	5590
2999.268	5432
3001.096	5354
3002.923	5315
3004.751	5324
3006.578	5147
3008.406	5122
3010.232	5158
3012.057	5145
3013.883	4987
3015.706	5037
3017.532	5140
3019.356	5006
3021.179	5059
3023.002	5060
3024.823	5097
3026.646	4963
3028.469	4956
3030.289	4989
3032.11	4945
3033.93	5027
3035.749	4933
3037.57	4999
3039.39	4881
3041.207	4859
3043.026	4841
3044.842	4950
3046.661	4906
3048.477	4904
3050.294	4823
3052.109	4816
3053.925	4813
3055.739	4906
3057.555	4859
3059.368	4818
3061.181	4829
3062.995	4891
3064.807	4846
3066.62	4819
3068.433	4855
3070.243	4899
3072.054	4807
3073.865	4850
3075.675	4887
3077.485	4812
3079.293	4826
3081.102	4799
3082.911	4826
3084.719	4649
3086.527	4723
3088.333	4714
3090.139	4697
3091.945	4606
3093.75	4674
3095.557	4736
3097.361	4602
3099.165	4774
3100.969	4682
3102.772	4691
3104.575	4775
3106.379	4682
3108.181	4710
3109.982	4743
3111.783	4679
3113.584	4620
3115.386	4729
3117.186	4670
3118.985	4679
3120.783	4601
3122.582	4646
3124.381	4585
3126.179	4673
3127.975	4651
3129.772	4561
3131.569	4589
3133.365	4617
3135.161	4648
3136.956	4491
3138.751	4567
3140.544	4570
3142.338	4492
3144.132	4510
3145.925	4630
3147.717	4552
3149.509	4565
3151.301	4491
3153.091	4606
3154.884	4523
3156.673	4548
3158.462	4541
3160.252	4624
3162.041	4650
3163.831	4528
3165.618	4530
3167.405	4546
3169.193	4619
3170.979	4559
3172.767	4544
3174.553	4506
3176.338	4581
3178.123	4582
3179.907	4503
3181.692	4569
3183.477	4544
3185.259	4508
3187.042	4586
3188.824	4435
3190.607	4458
3192.389	4540
3194.17	4495
3195.951	4498
3197.73	4499
3199.51	4543
3201.289	4515
3203.07	4583
3204.848	4561
3206.626	4613
3208.403	4454
3210.18	4469
3211.959	4455
3213.735	4559
3215.511	4484
3217.285	4527
3219.06	4512
3220.836	4457
3222.611	4481
3224.384	4492
3226.158	4395
3227.929	4480
3229.702	4487
3231.476	4472
3233.248	4482
3235.018	4468
3236.789	4404
3238.56	4518
3240.33	4455
3242.1	4455
3243.869	4521
3245.637	4420
3247.405	4509
3249.172	4453
3250.941	4447
3252.707	4431
3254.474	4451
3256.24	4493
3258.006	4396
3259.772	4438
3261.537	4580
3263.301	4500
3265.065	4457
3266.828	4433
3268.592	4470
3270.355	4466
3272.117	4508
3273.878	4500
3275.64	4428
3277.401	4423
3279.162	4470
3280.922	4438
3282.682	4491
3284.441	4520
3286.199	4391
3287.959	4420
3289.716	4433
3291.475	4465
3293.232	4436
3294.988	4516
3296.744	4418
3298.501	4469
3300.256	4419
3302.011	4508
3303.766	4415
3305.52	4438
3307.275	4505
3309.028	4418
3310.781	4477
3312.533	4398
3314.285	4506
3316.038	4464
3317.789	4429
3319.54	4420
3321.289	4403
3323.039	4415
3324.789	4387
3326.539	4380
3328.288	4404
3330.035	4451
3331.783	4370
3333.531	4370
3335.28	4449
3337.025	4402
3338.771	4459
3340.518	4372
3342.262	4267
3344.009	4400
3345.753	4418
3347.497	4370
3349.24	4304
3350.983	4378
3352.726	4345
3354.469	4307
3356.212	4254
3357.952	4289
3359.694	4388
3361.434	4304
3363.176	4298
3364.916	4390
3366.654	4350
3368.394	4313
3370.132	4215
3371.871	4354
3373.61	4271
3375.346	4267
3377.083	4313
3378.82	4303
3380.556	4314
3382.292	4272
3384.027	4245
3385.763	4279
3387.497	4244
3389.231	4233
3390.965	4231
3392.698	4269
3394.431	4193
3396.164	4310
3397.896	4268
3399.627	4252
3401.36	4237
3403.09	4274
3404.82	4315
3406.55	4201
3408.279	4238
3410.01	4217
3411.738	4196
3413.467	4164
3415.194	4165
3416.92	4165
3418.647	4183
3420.375	4187
3422.102	4177
3423.827	4065
3425.553	4178
3427.277	4231
3429.003	4187
3430.727	4185
3432.451	4093
3434.173	4157
3435.896	4154
3437.62	4113
3439.343	4131
3441.063	4207
3442.785	4209
3444.505	4150
3446.226	4149
3447.948	4150
3449.666	4069
3451.386	4078
3453.104	4062
3454.823	4101
3456.541	4106
3458.259	4102
3459.976	4027
3461.693	4045
3463.408	4103
3465.125	4004
3466.841	4054
3468.556	4039
3470.271	4063
3471.985	4093
3473.698	4054
3475.414	3991
3477.126	3932
3478.838	3975
3480.55	4017
3482.263	3890
3483.975	4029
3485.686	4030
3487.396	3917
3489.106	3948
3490.817	3945
3492.526	3975
3494.236	3980
3495.944	3890
3497.652	4011
3499.359	3902
3501.066	3865
3502.775	3889
3504.481	3888
3506.187	3911
3507.893	3913
3509.598	3853
3511.304	3939
3513.009	3847
3514.713	3851
3516.417	3844
3518.12	3962
3519.821	3907
3521.525	3838
3523.228	3863
3524.929	3858
3526.631	3851
3528.33	3920
3530.032	3886
3531.733	3907
3533.433	3805
3535.131	3827
3536.83	3813
3538.529	3834
3540.227	3823
3541.925	3786
3543.623	3801
3545.319	3839
3547.016	3760
3548.712	3756
3550.408	3836
3552.103	3741
3553.798	3794
3555.491	3787
3557.188	3769
3558.88	3790
3560.574	3725
3562.266	3767
3563.959	3800
3565.651	3792
3567.343	3758
3569.035	3656
3570.725	3729
3572.415	3716
3574.106	3737
3575.797	3745
3577.485	3758
3579.174	3723
3580.863	3738
3582.551	3658
3584.238	3760
3585.926	3681
3587.613	3689
3589.3	3661
3590.986	3675
3592.671	3763
3594.357	3635
3596.042	3684
3597.726	3607
3599.41	3633
3601.094	3618
3602.778	3682
3604.461	3615
3606.143	3569
3607.825	3599
3609.507	3569
3611.188	3575
3612.87	3655
3614.551	3596
3616.229	3596
3617.909	3655
3619.589	3630
3621.269	3587
3622.948	3535
3624.625	3558
3626.302	3560
3627.98	3497
3629.657	3484
3631.334	3601
3633.01	3542
3634.686	3556
3636.361	3528
3638.036	3598
3639.712	3535
3641.385	3547
3643.06	3488
3644.732	3489
3646.405	3481
3648.08	3439
3649.751	3558
3651.424	3470
3653.094	3462
3654.766	3487
3656.436	3575
3658.106	3501
3659.777	3394
3661.446	3534
3663.115	3479
3664.783	3408
3666.452	3466
3668.121	3486
3669.788	3499
3671.454	3457
3673.121	3477
3674.789	3478
3676.455	3407
3678.12	3462
3679.784	3411
3681.45	3490
3683.114	3400
3684.779	3470
3686.442	3448
3688.105	3436
3689.768	3437
3691.43	3500
3693.093	3495
3694.754	3414
3696.415	3418
3698.076	3358
3699.736	3397
3701.396	3405
3703.057	3404
3704.716	3381
3706.375	3355
3708.034	3367
3709.692	3419
3711.351	3376
3713.008	3344
3714.665	3475
3716.321	3328
3717.977	3389
3719.634	3346
3721.29	3326
3722.945	3335
3724.598	3269
3726.253	3368
3727.907	3357
3729.561	3322
3731.214	3355
3732.867	3417
3734.518	3325
3736.171	3456
3737.824	3380
3739.474	3420
3741.125	3353
3742.775	3299
3744.425	3352
3746.074	3329
3747.725	3273
3749.373	3307
3751.022	3290
3752.669	3330
3754.318	3315
3755.966	3319
3757.612	3224
3759.259	3343
3760.905	3412
3762.55	3285
3764.197	3230
3765.842	3315
3767.486	3206
3769.131	3322
3770.774	3253
3772.417	3314
3774.061	3190
3775.705	3241
3777.347	3281
3778.988	3300
3780.629	3275
3782.271	3242
3783.912	3242
3785.552	3264
3787.192	3218
3788.831	3215
3790.472	3267
3792.112	3289
3793.75	3213
3795.388	3248
3797.024	3205
3798.661	3216
3800.3	3218
3801.936	3210
3803.572	3255
3805.208	3267
3806.844	3211
3808.48	3203
3810.115	3218
3811.748	3179
3813.382	3241
3815.016	3170
3816.649	3205
3818.283	3186
3819.914	3200
3821.547	3175
3823.178	3162
3824.809	3169
3826.441	3148
3828.072	3100
3829.701	3153
3831.331	3064
3832.96	3186
3834.591	3191
3836.219	3178
3837.847	3094
3839.475	3133
3841.102	3120
3842.729	3140
3844.357	3140
3845.984	3081
3847.609	3191
3849.234	3075
3850.86	3104
3852.485	3040
3854.11	3130
3855.734	3094
3857.357	3106
3858.981	3055
3860.603	3057
3862.227	3080
3863.848	3068
3865.471	3071
3867.092	3106
3868.713	3078
3870.334	3045
3871.954	3081
3873.575	3074
3875.194	3062
3876.813	3068
3878.433	2994
3880.051	3106
3881.669	3055
3883.286	3119
3884.904	3037
3886.52	3080
3888.138	3062
3889.754	3121
3891.37	3110
3892.985	3080
3894.6	3052
3896.216	3054
3897.831	3064
3899.444	3035
3901.058	3073
3902.67	3070
3904.283	3055
3905.897	2994
3907.509	2969
3909.121	3027
3910.731	2989
3912.342	3002
3913.954	3037
3915.563	3100
3917.174	2916
3918.783	3066
3920.391	2985
3922.002	2989
3923.611	2975
3925.218	2991
3926.826	3062
3928.432	3071
3930.039	3010
3931.647	2991
3933.253	2970
3934.859	2954
3936.464	3018
3938.068	2933
3939.675	3006
3941.278	2961
3942.883	2930
3944.486	2870
3946.089	2973
3947.692	2964
3949.295	3039
3950.898	2948
3952.499	3026
3954.1	2963
3955.7	2967
3957.303	2981
3958.903	2889
3960.502	2886
3962.101	2934
3963.7	2968
3965.301	2946
3966.899	2982
3968.497	2968
3970.094	2876
3971.691	2886
3973.288	2938
3974.885	2934
3976.481	2878
3978.077	2874
3979.672	2946
3981.267	2891
3982.863	2905
3984.457	2896
3986.051	2928
3987.645	2881
3989.238	2867
3990.831	2855
3992.425	2821
3994.017	2895
3995.607	2881
3997.199	2863
3998.79	2899
4000.382	2801
4001.973	2903
4003.561	2867
4005.151	2879
4006.741	2765
4008.331	2849
4009.918	2809
4011.507	2824
4013.095	2752
4014.681	2844
4016.269	2798
4017.856	2767
4019.443	2801
4021.028	2871
4022.614	2801
4024.199	2829
4025.785	2764
4027.37	2792
4028.953	2813
4030.536	2852
4032.12	2773
4033.704	2839
4035.287	2773
4036.869	2724
4038.45	2734
4040.032	2804
4041.613	2800
4043.195	2820
4044.776	2795
4046.356	2814
4047.935	2774
4049.515	2750
4051.095	2768
4052.674	2773
4054.251	2736
4055.829	2686
4057.406	2740
4058.985	2768
4060.562	2739
4062.139	2734
4063.715	2756
4065.29	2778
4066.865	2686
4068.442	2724
4070.016	2698
4071.59	2788
4073.164	2749
4074.738	2708
4076.312	2735
4077.885	2675
4079.458	2761
4081.03	2650
4082.602	2741
4084.173	2680
4085.745	2726
4087.315	2700
4088.886	2706
4090.456	2740
4092.026	2676
4093.596	2691
4095.165	2698
4096.734	2704
4098.301	2701
4099.869	2665
4101.437	2749
4103.006	2666
4104.572	2707
4106.139	2617
4107.704	2714
4109.27	2667
4110.837	2686
4112.401	2620
4113.966	2630
4115.53	2679
4117.094	2686
4118.659	2687
4120.223	2658
4121.785	2645
4123.347	2655
4124.909	2622
4126.471	2708
4128.034	2636
4129.595	2583
4131.155	2633
4132.716	2621
4134.275	2610
4135.836	2637
4137.395	2611
4138.955	2622
4140.513	2660
4142.071	2621
4143.628	2600
4145.188	2590
4146.745	2599
4148.302	2629
4149.858	2602
4151.414	2554
4152.971	2548
4154.526	2530
4156.081	2548
4157.635	2529
4159.189	2580
4160.745	2586
4162.298	2587
4163.852	2562
4165.405	2589
4166.957	2532
4168.51	2544
4170.063	2545
4171.614	2526
4173.166	2550
4174.717	2535
4176.267	2577
4177.817	2532
4179.368	2486
4180.917	2552
4182.466	2489
4184.016	2524
4185.564	2480
4187.112	2534
4188.66	2562
4190.207	2538
4191.754	2540
4193.301	2457
4194.848	2496
4196.394	2429
4197.94	2494
4199.484	2507
4201.03	2496
4202.575	2457
4204.12	2484
4205.663	2481
4207.207	2470
4208.75	2437
4210.292	2495
4211.836	2512
4213.378	2415
4214.92	2486
4216.46	2427
4218.002	2457
4219.544	2445
4221.083	2484
4222.625	2493
4224.164	2531
4225.703	2498
4227.244	2456
4228.782	2400
4230.32	2440
4231.857	2379
4233.395	2391
4234.933	2439
4236.471	2443
4238.007	2395
4239.542	2457
4241.078	2430
4242.614	2461
4244.15	2499
4245.685	2439
4247.219	2416
4248.753	2426
4250.287	2420
4251.82	2418
4253.354	2403
4254.887	2457
4256.419	2423
4257.951	2367
4259.483	2399
4261.016	2424
4262.547	2356
4264.078	2420
4265.608	2461
4267.137	2403
4268.668	2432
4270.197	2356
4271.727	2353
4273.254	2334
4274.783	2412
4276.311	2410
4277.84	2424
4279.366	2462
4280.894	2389
4282.42	2427
4283.946	2368
4285.473	2402
4286.998	2415
4288.523	2403
4290.047	2443
4291.572	2314
4293.096	2421
4294.622	2363
4296.144	2341
4297.668	2359
4299.19	2327
4300.713	2367
4302.236	2360
4303.758	2397
4305.279	2380
4306.799	2340
4308.321	2338
4309.842	2291
4311.361	2334
4312.882	2306
4314.401	2289
