400.0961	8027
402.6185	8017
405.1424	7960
407.6635	8053
410.1838	7977
412.7035	8005
415.2225	8170
417.7388	8230
420.2585	8185
422.7754	8262
425.2917	8222
427.8072	8511
430.3221	8366
432.8363	8385
435.3498	8478
437.8626	8521
440.3727	8463
442.8841	8597
445.3969	8503
447.907	8524
450.4142	8562
452.9229	8523
455.4289	8467
457.9362	8640
460.4449	8558
462.9488	8531
465.454	8445
467.9566	8545
470.4604	8701
472.9637	8655
475.4662	8623
477.966	8660
480.4671	8603
482.9656	8587
485.4633	8672
487.9645	8717
490.4608	8889
492.9566	8627
495.4536	8919
497.948	8725
500.4437	8872
502.9387	8781
505.431	8922
507.9226	8877
510.4136	9044
512.9079	8958
515.3975	9039
517.8864	8988
520.3746	8840
522.8622	9016
525.3491	8989
527.8394	9019
530.3249	8933
532.8098	8964
535.2939	8937
537.7774	9185
540.2623	9026
542.7444	9045
545.2259	9038
547.7067	9098
550.1868	8985
552.6683	9116
555.147	9020
557.6231	9025
560.1005	9113
562.5773	9211
565.0534	9196
567.5308	9214
570.0056	9199
572.4776	9197
574.951	9153
577.4237	9219
579.8978	9265
582.3671	9349
584.8378	9353
587.3079	9305
589.7773	9442
592.244	9542
594.714	9424
597.1793	9304
599.6461	9322
602.1121	9374
604.5754	9343
607.0421	9373
609.5042	9338
611.9675	9432
614.4282	9309
616.8902	9438
619.3515	9411
621.8122	9348
624.2702	9407
626.7296	9354
629.1863	9294
631.6423	9323
634.1017	9409
636.5563	9328
639.0104	9260
641.4658	9379
643.9185	9342
646.3725	9475
648.8239	9487
651.2766	9614
653.7266	9460
656.176	9651
658.6247	9478
661.0748	9469
663.5242	9675
665.9709	9625
668.417	9675
670.8624	9746
673.3092	9584
675.7533	9626
678.1968	9690
680.6395	9650
683.0817	9664
685.5251	9631
687.9659	9655
690.4061	9802
692.8456	9657
695.2844	9694
697.7226	9830
700.1621	9738
702.599	9809
705.0332	9905
707.4688	9795
709.9036	9882
712.3399	9806
714.7735	9877
717.2044	9988
719.6367	9995
722.0683	10054
724.4993	9913
726.9296	10079
729.3593	10100
731.7883	10104
734.2147	10164
736.6423	10018
739.0714	10144
741.4958	10074
743.9216	10215
746.3447	10267
748.7691	10298
751.1929	10275
753.616	10326
756.0366	10299
758.4584	10450
760.8776	10320
763.2982	10421
765.718	10453
768.1373	10429
770.5539	10384
772.9698	10510
775.3871	10319
777.8038	10460
780.2178	10533
782.6332	10659
785.0459	10470
787.458	10421
789.8714	10625
792.2842	10513
794.6943	10602
797.1038	10500
799.5127	10510
801.9209	10558
804.3324	10582
806.7393	10438
809.1456	10380
811.5513	10584
813.9562	10626
816.3625	10608
818.7663	10646
821.1693	10521
823.5718	10639
825.9735	10615
828.3746	10647
830.7771	10683
833.177	10570
835.5762	10668
837.9747	10563
840.3727	10625
842.772	10669
845.1666	10699
847.5626	10686
849.958	10798
852.3527	10766
854.7488	10709
857.1403	10802
859.5331	10753
861.9253	10859
864.3168	10912
866.7057	10822
869.098	10729
871.4876	10892
873.8746	10671
876.263	10770
878.6487	10711
881.0378	10790
883.4243	10725
885.8081	10664
888.1933	10621
890.5759	10764
892.9598	10819
895.343	10883
897.7256	10720
900.1057	10746
902.4871	10913
904.8659	10835
907.246	10806
909.6254	10785
912.0023	10949
914.3786	10998
916.7562	11010
919.1331	11276
921.5074	11193
923.8831	11261
926.2562	11345
928.6287	11412
931.0005	11248
933.3757	11221
935.7462	11262
938.1162	11197
940.4855	11475
942.8542	11391
945.2242	11528
947.5916	11526
949.9584	11719
952.3266	12106
954.6921	12108
957.0571	12470
959.4233	12743
961.787	12853
964.15	12655
966.5125	12622
968.8742	12353
971.2354	12001
973.5959	11752
975.9559	11523
978.3151	11297
980.6738	11482
983.0338	11398
985.3912	11232
987.7461	11227
990.1022	11107
992.4578	11189
994.8127	11230
997.1689	11081
999.5207	11166
1001.874	11234
1004.226	11162
1006.576	11138
1008.929	11313
1011.28	11232
1013.628	11160
1015.977	11229
1018.324	11226
1020.674	11345
1023.019	11203
1025.366	11240
1027.713	11189
1030.056	11334
1032.399	11298
1034.746	11408
1037.087	11338
1039.431	11267
1041.771	11366
1044.113	11339
1046.454	11279
1048.793	11242
1051.133	11460
1053.471	11345
1055.807	11342
1058.146	11294
1060.483	11275
1062.818	11348
1065.153	11590
1067.489	11516
1069.822	11437
1072.156	11449
1074.488	11498
1076.82	11474
1079.15	11503
1081.48	11638
1083.814	11502
1086.143	11216
1088.471	11418
1090.799	11519
1093.126	11462
1095.452	11602
1097.78	11391
1100.105	11445
1102.43	11423
1104.754	11410
1107.077	11449
1109.4	11612
1111.722	11443
1114.044	11541
1116.365	11413
1118.685	11455
1121.005	11640
1123.324	11587
1125.643	11547
1127.961	11601
1130.278	11650
1132.595	11532
1134.911	11467
1137.226	11351
1139.541	11540
1141.854	11523
1144.167	11505
1146.482	11439
1148.793	11644
1151.105	11656
1153.414	11504
1155.725	11530
1158.033	11709
1160.344	11580
1162.651	11540
1164.959	11560
1167.265	11518
1169.572	11464
1171.878	11713
1174.184	11637
1176.488	11469
1178.79	11623
1181.094	11682
1183.396	11562
1185.699	11354
1188.001	11458
1190.301	11620
1192.6	11668
1194.9	11519
1197.2	11486
1199.497	11513
1201.794	11604
1204.09	11433
1206.387	11583
1208.684	11616
1210.978	11498
1213.272	11673
1215.565	11642
1217.858	11578
1220.15	11642
1222.443	11574
1224.734	11707
1227.024	11743
1229.313	11712
1231.602	11678
1233.892	11696
1236.18	11950
1238.467	11894
1240.754	11884
1243.04	12003
1245.325	11965
1247.612	11838
1249.896	11939
1252.178	11897
1254.461	11971
1256.743	11932
1259.027	11980
1261.308	11969
1263.587	11956
1265.867	11982
1268.146	12156
1270.425	11983
1272.703	12032
1274.981	11978
1277.256	11882
1279.532	11948
1281.808	11859
1284.083	11942
1286.358	11880
1288.63	11734
1290.904	11759
1293.175	11852
1295.449	11742
1297.719	11800
1299.99	11794
1302.259	11803
1304.529	11610
1306.798	11663
1309.065	11851
1311.333	11847
1313.599	11790
1315.866	11981
1318.131	11831
1320.396	11757
1322.66	11846
1324.925	11974
1327.187	11785
1329.448	11842
1331.711	11865
1333.974	11893
1336.234	11879
1338.493	11878
1340.752	11869
1343.01	11833
1345.269	11844
1347.526	11936
1349.784	11836
1352.04	11824
1354.295	11708
1356.552	11927
1358.806	11681
1361.059	12037
1363.312	11950
1365.564	11925
1367.818	11963
1370.069	11859
1372.318	12004
1374.568	11873
1376.817	11799
1379.066	11974
1381.316	12030
1383.564	12078
1385.809	11963
1388.056	12029
1390.301	12160
1392.549	12038
1394.793	12116
1397.036	12108
1399.279	12014
1401.522	12133
1403.763	12075
1406.007	12199
1408.248	12211
1410.487	11999
1412.727	12220
1414.965	12235
1417.205	12199
1419.442	12089
1421.68	12208
1423.915	12094
1426.152	12106
1428.388	12191
1430.623	12114
1432.857	12292
1435.091	12393
1437.323	12183
1439.556	12526
1441.789	12316
1444.019	12332
1446.25	12342
1448.48	12409
1450.708	12339
1452.938	12422
1455.167	12525
1457.394	12448
1459.62	12248
1461.846	12305
1464.073	12519
1466.299	12294
1468.523	12360
1470.746	12314
1472.969	12101
1475.191	12286
1477.415	12120
1479.636	12155
1481.858	11907
1484.078	11962
1486.298	11835
1488.518	11996
1490.736	11965
1492.954	11889
1495.169	11981
1497.386	11840
1499.602	11840
1501.819	12049
1504.034	11835
1506.248	12082
1508.462	11847
1510.675	11989
1512.888	11881
1515.1	11799
1517.311	11896
1519.522	11805
1521.732	11775
1523.942	11874
1526.151	11757
1528.36	11816
1530.566	11938
1532.773	11978
1534.98	11877
1537.187	11853
1539.392	11914
1541.596	11834
1543.801	11789
1546.005	11950
1548.208	11840
1550.411	11859
1552.612	11896
1554.814	12211
1557.013	11953
1559.212	12090
1561.414	12240
1563.612	11931
1565.811	12142
1568.007	12257
1570.203	12070
1572.403	11942
1574.598	12098
1576.792	12062
1578.988	12188
1581.181	12183
1583.376	12314
1585.568	12221
1587.761	12225
1589.952	12120
1592.143	12285
1594.333	12094
1596.524	12276
1598.715	12261
1600.903	12201
1603.091	12281
1605.278	12426
1607.466	12303
1609.652	12191
1611.838	12290
1614.023	12222
1616.207	12218
1618.391	12181
1620.576	12201
1622.759	12362
1624.941	12299
1627.123	12161
1629.304	12365
1631.484	12287
1633.664	12340
1635.844	12204
1638.022	12482
1640.201	12326
1642.38	12346
1644.556	12505
1646.732	12271
1648.908	12355
1651.084	12340
1653.257	12343
1655.433	12373
1657.607	12382
1659.779	12465
1661.951	12213
1664.122	12445
1666.295	12235
1668.467	12355
1670.635	12581
1672.805	12269
1674.973	12469
1677.142	12424
1679.31	12463
1681.478	12304
1683.644	12188
1685.81	12435
1687.975	12350
1690.142	12506
1692.305	12296
1694.468	12307
1696.632	12355
1698.794	12312
1700.957	12260
1703.119	12147
1705.279	12203
1707.439	12163
1709.598	12344
1711.758	12269
1713.917	12291
1716.075	12194
1718.231	12309
1720.388	12344
1722.543	12236
1724.702	12156
1726.856	12140
1729.01	12176
1731.164	12070
1733.317	11970
1735.471	12298
1737.623	12158
1739.774	12284
1741.925	12115
1744.075	12254
1746.225	12219
1748.376	12156
1750.524	12239
1752.672	12148
1754.82	12287
1756.965	12320
1759.113	12191
1761.259	12194
1763.405	12230
1765.549	12261
1767.694	12291
1769.836	12150
1771.981	12469
1774.123	12272
1776.264	12311
1778.405	12361
1780.546	12225
1782.687	12407
1784.827	12360
1786.966	12282
1789.103	12273
1791.242	12328
1793.381	12305
1795.517	12230
1797.653	12592
1799.788	12354
1801.923	12260
1804.057	12332
1806.193	12374
1808.326	12356
1810.457	12553
1812.59	12344
1814.721	12387
1816.855	12291
1818.984	12463
1821.113	12145
1823.244	12163
1825.372	12339
1827.499	12061
1829.63	12159
1831.756	12384
1833.882	12378
1836.007	12130
1838.132	12149
1840.26	12208
1842.384	12134
1844.507	12319
1846.63	12130
1848.752	12243
1850.875	12146
1852.996	12236
1855.118	12166
1857.238	12171
1859.358	12186
1861.477	12157
1863.597	12065
1865.715	12222
1867.832	12107
1869.948	12325
1872.064	11986
1874.181	12207
1876.297	12149
1878.411	12201
1880.526	12135
1882.639	12174
1884.752	12105
1886.865	12199
1888.977	12306
1891.089	12315
1893.2	12205
1895.308	12219
1897.42	12351
1899.53	12312
1901.639	12305
1903.745	12151
1905.853	12344
1907.962	12323
1910.067	12200
1912.174	12272
1914.278	12306
1916.383	12283
1918.486	12326
1920.592	12177
1922.694	12290
1924.797	12292
1926.898	12294
1929	12547
1931.102	12293
1933.203	12547
1935.301	12491
1937.401	12393
1939.499	12459
1941.598	12428
1943.697	12505
1945.793	12262
1947.888	12414
1949.985	12256
1952.08	12546
1954.176	12366
1956.269	12306
1958.364	12411
1960.457	12287
1962.549	12353
1964.642	12293
1966.733	12311
1968.823	12431
1970.913	12127
1973.005	12346
1975.093	12222
1977.184	12240
1979.271	12273
1981.359	12252
1983.446	12166
1985.532	12058
1987.619	12243
1989.705	12177
1991.789	12246
1993.874	12317
1995.956	12306
1998.041	12280
2000.123	12070
2002.206	12080
2004.287	12311
2006.368	12222
2008.449	12047
2010.529	12130
2012.609	12137
2014.688	12161
2016.766	12141
2018.843	12219
2020.922	12187
2022.999	12161
2025.074	12213
2027.15	12041
2029.225	12065
2031.299	12111
2033.375	12035
2035.447	12129
2037.52	12137
2039.592	12136
2041.664	12126
2043.736	12197
2045.807	12042
2047.876	12112
2049.947	12239
2052.015	12130
2054.086	12220
2056.153	12232
2058.221	12215
2060.288	12147
2062.353	12135
2064.42	12072
2066.486	12151
2068.55	12279
2070.614	12073
2072.678	12200
2074.741	12162
2076.805	12187
2078.866	12089
2080.929	12238
2082.99	12055
2085.049	12223
2087.109	12115
2089.17	11998
2091.228	12207
2093.286	12073
2095.344	12063
2097.4	12171
2099.46	12271
2101.516	12133
2103.572	12095
2105.626	12108
2107.679	12190
2109.735	12248
2111.788	12097
2113.841	12131
2115.894	12105
2117.945	11994
2119.997	12235
2122.049	12209
2124.1	12013
2126.148	12168
2128.197	11959
2130.246	12008
2132.296	12002
2134.342	12107
2136.39	12137
2138.437	12079
2140.483	12079
2142.527	12196
2144.574	12172
2146.619	12015
2148.661	11960
2150.705	12091
2152.747	12106
2154.792	12052
2156.832	12153
2158.874	11990
2160.915	12086
2162.954	11971
2164.995	11821
2167.034	11947
2169.072	11939
2171.111	12060
2173.148	11896
2175.186	11971
2177.223	11932
2179.258	11906
2181.294	11910
2183.328	11891
2185.362	11854
2187.398	11885
2189.431	11968
2191.463	11834
2193.495	11940
2195.528	11769
2197.56	11812
2199.59	11819
2201.62	11765
2203.649	11832
2205.678	11816
2207.708	11709
2209.737	11645
2211.764	11857
2213.791	11634
2215.817	11705
2217.843	11784
2219.87	11863
2221.895	11775
2223.919	11692
2225.942	11651
2227.966	11664
2229.988	11727
2232.012	11717
2234.032	11820
2236.054	11673
2238.074	11687
2240.095	11878
2242.116	11629
2244.135	11697
2246.153	11563
2248.171	11664
2250.188	11715
2252.208	11649
2254.223	11779
2256.239	11608
2258.255	11722
2260.269	11549
2262.283	11673
2264.3	11744
2266.312	11560
2268.325	11740
2270.336	11579
2272.349	11613
2274.362	11532
2276.372	11639
2278.383	11662
2280.392	11710
2282.402	11625
2284.409	11650
2286.418	11652
2288.427	11649
2290.433	11578
2292.441	11611
2294.446	11675
2296.453	11663
2298.459	11751
2300.463	11498
2302.466	11737
2304.471	11426
2306.475	11708
2308.477	11522
2310.478	11651
2312.481	11565
2314.481	11614
2316.481	11535
2318.482	11596
2320.482	11467
2322.48	11534
2324.48	11586
2326.478	11626
2328.476	11475
2330.473	11525
2332.469	11608
2334.465	11566
2336.46	11485
2338.454	11467
2340.45	11416
2342.444	11416
2344.437	11446
2346.43	11497
2348.421	11343
2350.414	11371
2352.405	11390
2354.396	11498
2356.386	11408
2358.376	11344
2360.366	11316
2362.355	11446
2364.343	11460
2366.331	11185
2368.317	11334
2370.304	11307
2372.292	11212
2374.278	11253
2376.262	11312
2378.247	11145
2380.23	11399
2382.216	11449
2384.199	11173
2386.181	11160
2388.163	11216
2390.144	11225
2392.127	11192
2394.107	11155
2396.087	11245
2398.066	11103
2400.046	11270
2402.023	11143
2404.004	11219
2405.981	11276
2407.957	11165
2409.934	11230
2411.91	10985
2413.886	11124
2415.862	11088
2417.836	11194
2419.809	11156
2421.784	11146
2423.756	11017
2425.73	11047
2427.701	11125
2429.672	11226
2431.644	11247
2433.615	11077
2435.586	11305
2437.555	11056
2439.523	11114
2441.491	11205
2443.459	11187
2445.428	11142
2447.395	11050
2449.361	11081
2451.327	11128
2453.292	10977
2455.257	10959
2457.223	11106
2459.187	11071
2461.15	10992
2463.113	10969
2465.076	10994
2467.039	10969
2468.999	11063
2470.96	11090
2472.921	10944
2474.881	10984
2476.841	10939
2478.8	11154
2480.759	10974
2482.717	10831
2484.675	11144
2486.63	11112
2488.589	10974
2490.545	10945
2492.5	10923
2494.455	10878
2496.408	10989
2498.364	10990
2500.318	10906
2502.27	10839
2504.223	10788
2506.174	10803
2508.126	10869
2510.078	10887
2512.03	10859
2513.979	11000
2515.927	10819
2517.877	10750
2519.826	10879
2521.775	10957
2523.722	10788
2525.668	10780
2527.616	10925
2529.561	10723
2531.508	10873
2533.452	10670
2535.398	10851
2537.342	10716
2539.284	10850
2541.229	10904
2543.173	10889
2545.114	10655
2547.055	10832
2548.996	10691
2550.938	10721
2552.878	10760
2554.817	10810
2556.756	10789
2558.695	10753
2560.633	10691
2562.572	10770
2564.509	10838
2566.445	10639
2568.382	10661
2570.317	10730
2572.254	10802
2574.189	10884
2576.123	10700
2578.057	10699
2579.99	10716
2581.923	10712
2583.855	10670
2585.788	10744
2587.719	10817
2589.65	10843
2591.579	10655
2593.511	10691
2595.44	10736
2597.37	10786
2599.297	10902
2601.225	10703
2603.153	10587
2605.08	10752
2607.007	10940
2608.932	10718
2610.858	10725
2612.782	10717
2614.709	10751
2616.632	10772
2618.556	10655
2620.478	10691
2622.401	10691
2624.324	10733
2626.247	10658
2628.167	10695
2630.088	10652
2632.008	10716
2633.928	10676
2635.848	10610
2637.766	10777
2639.684	10629
2641.603	10750
2643.519	10706
2645.437	10661
2647.353	10711
2649.27	10616
2651.184	10585
2653.099	10839
2655.014	10555
2656.928	10791
2658.842	10730
2660.755	10718
2662.667	10539
2664.579	10546
2666.491	10615
2668.402	10620
2670.312	10651
2672.222	10743
2674.132	10693
2676.042	10590
2677.951	10660
2679.859	10575
2681.766	10549
2683.674	10480
2685.582	10594
2687.488	10677
2689.392	10602
2691.298	10562
2693.202	10547
2695.107	10435
2697.012	10433
2698.914	10574
2700.817	10399
2702.72	10521
2704.622	10573
2706.524	10450
2708.425	10456
2710.326	10501
2712.225	10535
2714.125	10314
2716.024	10477
2717.923	10435
2719.822	10486
2721.719	10461
2723.616	10405
2725.512	10656
2727.41	10438
2729.305	10425
2731.201	10386
2733.095	10531
2734.99	10219
2736.884	10349
2738.778	10507
2740.67	10523
2742.562	10315
2744.455	10498
2746.346	10326
2748.238	10448
2750.129	10517
2752.018	10416
2753.907	10240
2755.797	10342
2757.687	10334
2759.575	10313
2761.462	10369
2763.349	10359
2765.237	10264
2767.124	10314
2769.009	10199
2770.894	10330
2772.779	10320
2774.663	10232
2776.547	10269
2778.431	10314
2780.314	10146
2782.197	10256
2784.078	10304
2785.96	10249
2787.842	10261
2789.723	10321
2791.603	10303
2793.483	10118
2795.362	10128
2797.241	10191
2799.121	10201
2800.997	10390
2802.874	10182
2804.751	10156
2806.628	10314
2808.506	10230
2810.38	10071
2812.255	10175
2814.13	10211
2816.003	9993
2817.878	10142
2819.752	10247
2821.623	10265
2823.496	10133
2825.368	10215
2827.238	10001
2829.111	10124
2830.98	10058
2832.851	10236
2834.719	10274
2836.589	10157
2838.458	10072
2840.327	10197
2842.193	10092
2844.061	10099
2845.927	10285
2847.794	10206
2849.66	10278
2851.525	10261
2853.39	10071
2855.254	10227
2857.117	10311
2858.983	10289
2860.845	10179
2862.707	10137
2864.569	10396
2866.431	10479
2868.293	10295
2870.154	10339
2872.013	10421
2873.873	10467
2875.733	10497
2877.592	10522
2879.451	10578
2881.309	10735
2883.166	10560
2885.022	10654
2886.879	10718
2888.736	10699
2890.591	10751
2892.446	10880
2894.301	10710
2896.155	10669
2898.009	10712
2899.863	10795
2901.716	10686
2903.568	10803
2905.419	10590
2907.27	10563
2909.123	10807
2910.973	10654
2912.824	10851
2914.673	10848
2916.521	10957
2918.372	10986
2920.22	10890
2922.067	10831
2923.914	11139
2925.761	11132
2927.607	11083
2929.455	11037
2931.301	11244
2933.144	11380
2934.99	11330
2936.833	11431
2938.678	11480
2940.522	11382
2942.364	11696
2944.207	11685
2946.048	11563
2947.891	11791
2949.731	11817
2951.571	11710
2953.412	11617
2955.25	11571
2957.09	11458
2958.93	11386
2960.767	11528
2962.606	11396
2964.443	11224
2966.279	11061
2968.116	11123
2969.953	10964
2971.788	10865
2973.623	10832
2975.457	10670
2977.292	10650
2979.127	10702
2980.959	10560
2982.792	10568
2984.624	10532
2986.455	10598
2988.288	10421
2990.119	10347
2991.949	10260
2993.779	10312
2995.608	10252
2997.439	10250
2999.268	10247
3001.096	10283
3002.923	10155
3004.751	10010
3006.578	10104
3008.406	10006
3010.232	9873
3012.057	9886
3013.883	9749
3015.706	9794
3017.532	9792
3019.356	9776
3021.179	9845
3023.002	9625
3024.823	9678
3026.646	9615
3028.469	9467
3030.289	9632
3032.11	9609
3033.93	9668
3035.749	9483
3037.57	9514
3039.39	9483
3041.207	9451
3043.026	9474
3044.842	9428
3046.661	9465
3048.477	9646
3050.294	9533
3052.109	9550
3053.925	9375
3055.739	9325
3057.555	9420
3059.368	9467
3061.181	9442
3062.995	9521
3064.807	9393
3066.62	9410
3068.433	9462
3070.243	9259
3072.054	9481
3073.865	9394
3075.675	9281
3077.485	9408
3079.293	9299
3081.102	9425
3082.911	9256
3084.719	9164
3086.527	9303
3088.333	9348
3090.139	9117
3091.945	9221
3093.75	9150
3095.557	9103
3097.361	9197
3099.165	9212
3100.969	9225
3102.772	9178
3104.575	9152
3106.379	9084
3108.181	9141
3109.982	8952
3111.783	9066
3113.584	9155
3115.386	9004
3117.186	9108
3118.985	9178
3120.783	9043
3122.582	8928
3124.381	8851
3126.179	9003
3127.975	8940
3129.772	8994
3131.569	8971
3133.365	8835
3135.161	8982
3136.956	8961
3138.751	8943
3140.544	8897
3142.338	8813
3144.132	8941
3145.925	8818
3147.717	8803
3149.509	8880
3151.301	8945
3153.091	8892
3154.884	8778
3156.673	8839
3158.462	8780
3160.252	8806
3162.041	8800
3163.831	8811
3165.618	8794
3167.405	8708
3169.193	8869
3170.979	8799
3172.767	8808
3174.553	8874
3176.338	8816
3178.123	8751
3179.907	8839
3181.692	8815
3183.477	8765
3185.259	8673
3187.042	8718
3188.824	8701
3190.607	8745
3192.389	8540
3194.17	8805
3195.951	8714
3197.73	8624
3199.51	8707
3201.289	8719
3203.07	8681
3204.848	8609
3206.626	8606
3208.403	8694
3210.18	8690
3211.959	8640
3213.735	8557
3215.511	8686
3217.285	8572
3219.06	8708
3220.836	8611
3222.611	8651
3224.384	8619
3226.158	8573
3227.929	8586
3229.702	8769
3231.476	8605
3233.248	8615
3235.018	8544
3236.789	8685
3238.56	8593
3240.33	8478
3242.1	8716
3243.869	8624
3245.637	8558
3247.405	8568
3249.172	8633
3250.941	8488
3252.707	8571
3254.474	8539
3256.24	8588
3258.006	8621
3259.772	8538
3261.537	8552
3263.301	8614
3265.065	8403
3266.828	8552
3268.592	8415
3270.355	8474
3272.117	8556
3273.878	8455
3275.64	8483
3277.401	8508
3279.162	8582
3280.922	8508
3282.682	8456
3284.441	8427
3286.199	8494
3287.959	8486
3289.716	8524
3291.475	8431
3293.232	8413
3294.988	8510
3296.744	8493
3298.501	8518
3300.256	8518
3302.011	8461
3303.766	8285
3305.52	8499
3307.275	8303
3309.028	8428
3310.781	8547
3312.533	8446
3314.285	8532
3316.038	8415
3317.789	8288
3319.54	8414
3321.289	8421
3323.039	8453
3324.789	8290
3326.539	8467
3328.288	8335
3330.035	8321
3331.783	8401
3333.531	8424
3335.28	8352
3337.025	8415
3338.771	8443
3340.518	8345
3342.262	8285
3344.009	8246
3345.753	8379
3347.497	8238
3349.24	8309
3350.983	8240
3352.726	8156
3354.469	8242
3356.212	8160
3357.952	8269
3359.694	8298
3361.434	8333
3363.176	8127
3364.916	8158
3366.654	8190
3368.394	8168
3370.132	8123
3371.871	8155
3373.61	7955
3375.346	8144
3377.083	8057
3378.82	8001
3380.556	8178
3382.292	8082
3384.027	8083
3385.763	8112
3387.497	8086
3389.231	8186
3390.965	8078
3392.698	8141
3394.431	8077
3396.164	8150
3397.896	8106
3399.627	7963
3401.36	7997
3403.09	8034
3404.82	7966
3406.55	8016
3408.279	8117
3410.01	7894
3411.738	8055
3413.467	8033
3415.194	7958
3416.92	7998
3418.647	8215
3420.375	8070
3422.102	8080
3423.827	7946
3425.553	7883
3427.277	7958
3429.003	7907
3430.727	7963
3432.451	7902
3434.173	7906
3435.896	7868
3437.62	7941
3439.343	7868
3441.063	7883
3442.785	7849
3444.505	7855
3446.226	7792
3447.948	7899
3449.666	7726
3451.386	7774
3453.104	7710
3454.823	7698
3456.541	7771
3458.259	7760
3459.976	7646
3461.693	7666
3463.408	7749
3465.125	7737
3466.841	7643
3468.556	7602
3470.271	7663
3471.985	7740
3473.698	7558
3475.414	7569
3477.126	7568
3478.838	7479
3480.55	7523
3482.263	7654
3483.975	7548
3485.686	7595
3487.396	7606
3489.106	7578
3490.817	7541
3492.526	7542
3494.236	7494
3495.944	7541
3497.652	7450
3499.359	7367
3501.066	7446
3502.775	7534
3504.481	7463
3506.187	7400
3507.893	7542
3509.598	7390
3511.304	7525
3513.009	7458
3514.713	7429
3516.417	7297
3518.12	7321
3519.821	7386
3521.525	7357
3523.228	7349
3524.929	7336
3526.631	7306
3528.33	7240
3530.032	7421
3531.733	7449
3533.433	7347
3535.131	7228
3536.83	7187
3538.529	7342
3540.227	7239
3541.925	7238
3543.623	7223
3545.319	7271
3547.016	7186
3548.712	7180
3550.408	7148
3552.103	7197
3553.798	7151
3555.491	7265
3557.188	7296
3558.88	7211
3560.574	7119
3562.266	7098
3563.959	7195
3565.651	7158
3567.343	7097
3569.035	7101
3570.725	7100
3572.415	7048
3574.106	7088
3575.797	7104
3577.485	7150
3579.174	7017
3580.863	7043
3582.551	7118
3584.238	7081
3585.926	7059
3587.613	7112
3589.3	7055
3590.986	7007
3592.671	6987
3594.357	7041
3596.042	7057
3597.726	6945
3599.41	6905
3601.094	6893
3602.778	7022
3604.461	6880
3606.143	6906
3607.825	6946
3609.507	6926
3611.188	6953
3612.87	6758
3614.551	6810
3616.229	6887
3617.909	6721
3619.589	6887
3621.269	6920
3622.948	6750
3624.625	6775
3626.302	6906
3627.98	6716
3629.657	6692
3631.334	6786
3633.01	6804
3634.686	6765
3636.361	6683
3638.036	6755
3639.712	6621
3641.385	6704
3643.06	6666
3644.732	6646
3646.405	6658
3648.08	6685
3649.751	6746
3651.424	6578
3653.094	6686
3654.766	6682
3656.436	6610
3658.106	6589
3659.777	6581
3661.446	6625
3663.115	6501
3664.783	6502
3666.452	6590
3668.121	6626
3669.788	6476
3671.454	6572
3673.121	6476
3674.789	6514
3676.455	6569
3678.12	6575
3679.784	6483
3681.45	6453
3683.114	6583
3684.779	6559
3686.442	6429
3688.105	6501
3689.768	6399
3691.43	6558
3693.093	6537
3694.754	6468
3696.415	6512
3698.076	6500
3699.736	6462
3701.396	6536
3703.057	6457
3704.716	6423
3706.375	6429
3708.034	6474
3709.692	6337
3711.351	6412
3713.008	6383
3714.665	6353
3716.321	6419
3717.977	6475
3719.634	6430
3721.29	6437
3722.945	6323
3724.598	6430
3726.253	6453
3727.907	6396
3729.561	6349
3731.214	6533
3732.867	6367
3734.518	6366
3736.171	6386
3737.824	6355
3739.474	6348
3741.125	6334
3742.775	6224
3744.425	6306
3746.074	6428
3747.725	6250
3749.373	6272
3751.022	6288
3752.669	6213
3754.318	6312
3755.966	6230
3757.612	6146
3759.259	6311
3760.905	6149
3762.55	6253
3764.197	6215
3765.842	6162
3767.486	6153
3769.131	6245
3770.774	6134
3772.417	6090
3774.061	6173
3775.705	6197
3777.347	6194
3778.988	6072
3780.629	6184
3782.271	6078
3783.912	6153
3785.552	6130
3787.192	6128
3788.831	6033
3790.472	6051
3792.112	6183
3793.75	6113
3795.388	6096
3797.024	6242
3798.661	6109
3800.3	6120
3801.936	5992
3803.572	6003
3805.208	6097
3806.844	5973
3808.48	6075
3810.115	6066
3811.748	5922
3813.382	6012
3815.016	6046
3816.649	5883
3818.283	6000
3819.914	6034
3821.547	5926
3823.178	6030
3824.809	5970
3826.441	6010
3828.072	5921
3829.701	5982
3831.331	5929
3832.96	5877
3834.591	5956
3836.219	5905
3837.847	5916
3839.475	5780
3841.102	5918
3842.729	5861
3844.357	5790
3845.984	5870
3847.609	5796
3849.234	5862
3850.86	5856
3852.485	5722
3854.11	5763
3855.734	5853
3857.357	5865
3858.981	5738
3860.603	5760
3862.227	5797
3863.848	5767
3865.471	5855
3867.092	5675
3868.713	5789
3870.334	5699
3871.954	5776
3873.575	5698
3875.194	5753
3876.813	5745
3878.433	5734
3880.051	5765
3881.669	5692
3883.286	5767
3884.904	5809
3886.52	5700
3888.138	5674
3889.754	5766
3891.37	5738
3892.985	5667
3894.6	5717
3896.216	5820
3897.831	5769
3899.444	5712
3901.058	5752
3902.67	5725
3904.283	5630
3905.897	5609
3907.509	5553
3909.121	5708
3910.731	5579
3912.342	5612
3913.954	5683
3915.563	5680
3917.174	5740
3918.783	5562
3920.391	5611
3922.002	5642
3923.611	5647
3925.218	5572
3926.826	5632
3928.432	5583
3930.039	5640
3931.647	5597
3933.253	5578
3934.859	5702
3936.464	5726
3938.068	5559
3939.675	5550
3941.278	5473
3942.883	5507
3944.486	5550
3946.089	5672
3947.692	5602
3949.295	5552
3950.898	5568
3952.499	5524
3954.1	5511
3955.7	5609
3957.303	5504
3958.903	5538
3960.502	5483
3962.101	5318
3963.7	5406
3965.301	5530
3966.899	5440
3968.497	5435
3970.094	5556
3971.691	5514
3973.288	5525
3974.885	5484
3976.481	5333
3978.077	5442
3979.672	5450
3981.267	5373
3982.863	5358
3984.457	5439
3986.051	5383
3987.645	5349
3989.238	5392
3990.831	5380
3992.425	5365
3994.017	5346
3995.607	5319
3997.199	5277
3998.79	5323
4000.382	5325
4001.973	5267
4003.561	5286
4005.151	5268
4006.741	5370
4008.331	5309
4009.918	5219
4011.507	5216
4013.095	5253
4014.681	5223
4016.269	5099
4017.856	5315
4019.443	5185
4021.028	5132
4022.614	5175
4024.199	5199
4025.785	5177
4027.37	5117
4028.953	5158
4030.536	5134
4032.12	5114
4033.704	5227
4035.287	5168
4036.869	5142
4038.45	5135
4040.032	5229
4041.613	5122
4043.195	5155
4044.776	5097
4046.356	5147
4047.935	5059
4049.515	5119
4051.095	5070
4052.674	5084
4054.251	5086
4055.829	4999
4057.406	4999
4058.985	5021
4060.562	5051
4062.139	5002
4063.715	5000
4065.29	5029
4066.865	5014
4068.442	4995
4070.016	4969
4071.59	5088
4073.164	5003
4074.738	4992
4076.312	4990
4077.885	5014
4079.458	5014
4081.03	5049
4082.602	4971
4084.173	4998
4085.745	5048
4087.315	4917
4088.886	4917
4090.456	4936
4092.026	4955
4093.596	4871
4095.165	4929
4096.734	4967
4098.301	4957
4099.869	4924
4101.437	4824
4103.006	4955
4104.572	4889
4106.139	5013
4107.704	4863
4109.27	5042
4110.837	4786
4112.401	4917
4113.966	4811
4115.53	4791
4117.094	4933
4118.659	4854
4120.223	4897
4121.785	4892
4123.347	4825
4124.909	4841
4126.471	4809
4128.034	4842
4129.595	4831
4131.155	4807
4132.716	4797
4134.275	4853
4135.836	4719
4137.395	4702
4138.955	4799
4140.513	4774
4142.071	4819
4143.628	4795
4145.188	4740
4146.745	4771
4148.302	4779
4149.858	4708
4151.414	4770
4152.971	4753
4154.526	4725
4156.081	4748
4157.635	4754
4159.189	4765
4160.745	4657
4162.298	4719
4163.852	4577
4165.405	4645
4166.957	4725
4168.51	4679
4170.063	4669
4171.614	4635
4173.166	4566
4174.717	4663
4176.267	4679
4177.817	4624
4179.368	4629
4180.917	4531
4182.466	4534
4184.016	4554
4185.564	4607
4187.112	4585
4188.66	4649
4190.207	4543
4191.754	4538
4193.301	4525
4194.848	4590
4196.394	4552
4197.94	4513
4199.484	4616
4201.03	4566
4202.575	4524
4204.12	4533
4205.663	4522
4207.207	4466
4208.75	4611
4210.292	4527
4211.836	4486
4213.378	4442
4214.92	4589
4216.46	4511
4218.002	4524
4219.544	4507
4221.083	4504
4222.625	4549
4224.164	4432
4225.703	4462
4227.244	4450
4228.782	4429
4230.32	4488
4231.857	4484
4233.395	4383
4234.933	4391
4236.471	4426
4238.007	4417
4239.542	4369
4241.078	4390
4242.614	4430
4244.15	4434
4245.685	4306
4247.219	4334
4248.753	4372
4250.287	4395
4251.82	4372
4253.354	4403
4254.887	4390
4256.419	4322
4257.951	4378
4259.483	4385
4261.016	4294
4262.547	4323
4264.078	4349
4265.608	4344
4267.137	4299
4268.668	4258
4270.197	4348
4271.727	4380
4273.254	4280
4274.783	4295
4276.311	4333
4277.84	4262
4279.366	4375
4280.894	4241
4282.42	4302
4283.946	4281
4285.473	4275
4286.998	4333
4288.523	4308
4290.047	4215
4291.572	4265
4293.096	4232
4294.622	4247
4296.144	4281
4297.668	4225
4299.19	4229
4300.713	4139
4302.236	4171
4303.758	4147
4305.279	4157
4306.799	4191
4308.321	4268
4309.842	4148
4311.361	4152
4312.882	4157
4314.401	4143
