400.0961	4256
402.6185	4296
405.1424	4239
407.6635	4252
410.1838	4280
412.7035	4266
415.2225	4323
417.7388	4357
420.2585	4320
422.7754	4413
425.2917	4423
427.8072	4455
430.3221	4623
432.8363	4600
435.3498	4557
437.8626	4481
440.3727	4515
442.8841	4545
445.3969	4503
447.907	4463
450.4142	4522
452.9229	4577
455.4289	4583
457.9362	4392
460.4449	4491
462.9488	4471
465.454	4436
467.9566	4500
470.4604	4559
472.9637	4453
475.4662	4484
477.966	4387
480.4671	4614
482.9656	4434
485.4633	4563
487.9645	4529
490.4608	4466
492.9566	4505
495.4536	4547
497.948	4543
500.4437	4588
502.9387	4545
505.431	4558
507.9226	4551
510.4136	4680
512.9079	4606
515.3975	4659
517.8864	4662
520.3746	4519
522.8622	4595
525.3491	4672
527.8394	4631
530.3249	4662
532.8098	4601
535.2939	4748
537.7774	4647
540.2623	4651
542.7444	4709
545.2259	4536
547.7067	4713
550.1868	4724
552.6683	4721
555.147	4643
557.6231	4780
560.1005	4632
562.5773	4744
565.0534	4666
567.5308	4712
570.0056	4726
572.4776	4751
574.951	4875
577.4237	4812
579.8978	4725
582.3671	4819
584.8378	4857
587.3079	4872
589.7773	4936
592.244	4983
594.714	4866
597.1793	4893
599.6461	4830
602.1121	4804
604.5754	4869
607.0421	4793
609.5042	4876
611.9675	4827
614.4282	4809
616.8902	4811
619.3515	4838
621.8122	4747
624.2702	4858
626.7296	4845
629.1863	4658
631.6423	4783
634.1017	4724
636.5563	4814
639.0104	4800
641.4658	4759
643.9185	4783
646.3725	4754
648.8239	4919
651.2766	4921
653.7266	4926
656.176	4872
658.6247	4846
661.0748	4895
663.5242	4852
665.9709	4894
668.417	4945
670.8624	4908
673.3092	4838
675.7533	4968
678.1968	5031
680.6395	4863
683.0817	4950
685.5251	4926
687.9659	4916
690.4061	4907
692.8456	4974
695.2844	4881
697.7226	4981
700.1621	5005
702.599	5031
705.0332	5049
707.4688	5045
709.9036	5002
712.3399	4972
714.7735	5112
717.2044	5089
719.6367	5056
722.0683	4981
724.4993	5050
726.9296	5110
729.3593	5110
731.7883	5127
734.2147	5100
736.6423	5224
739.0714	5201
741.4958	5133
743.9216	5252
746.3447	5153
748.7691	5179
751.1929	5294
753.616	5312
756.0366	5174
758.4584	5293
760.8776	5301
763.2982	5240
765.718	5303
768.1373	5374
770.5539	5306
772.9698	5384
775.3871	5287
777.8038	5261
780.2178	5347
782.6332	5409
785.0459	5305
787.458	5366
789.8714	5300
792.2842	5418
794.6943	5370
797.1038	5363
799.5127	5317
801.9209	5331
804.3324	5362
806.7393	5386
809.1456	5415
811.5513	5413
813.9562	5411
816.3625	5417
818.7663	5365
821.1693	5426
823.5718	5388
825.9735	5427
828.3746	5399
830.7771	5352
833.177	5414
835.5762	5477
837.9747	5453
840.3727	5439
842.772	5464
845.1666	5560
847.5626	5509
849.958	5487
852.3527	5611
854.7488	5557
857.1403	5581
859.5331	5710
861.9253	5630
864.3168	5576
866.7057	5574
869.098	5628
871.4876	5550
873.8746	5576
876.263	5595
878.6487	5570
881.0378	5534
883.4243	5564
885.8081	5489
888.1933	5615
890.5759	5528
892.9598	5592
895.343	5563
897.7256	5570
900.1057	5542
902.4871	5634
904.8659	5590
907.246	5681
909.6254	5681
912.0023	5720
914.3786	5784
916.7562	5967
919.1331	5862
921.5074	6028
923.8831	6135
926.2562	6014
928.6287	6134
931.0005	6096
933.3757	5979
935.7462	6206
938.1162	5990
940.4855	6125
942.8542	6029
945.2242	6117
947.5916	6304
949.9584	6528
952.3266	6635
954.6921	6877
957.0571	7089
959.4233	7393
961.787	7506
964.15	7473
966.5125	7224
968.8742	6904
971.2354	6619
973.5959	6408
975.9559	6218
978.3151	5989
980.6738	5987
983.0338	5962
985.3912	5971
987.7461	5949
990.1022	5774
992.4578	5791
994.8127	5750
997.1689	5829
999.5207	5837
1001.874	5827
1004.226	5844
1006.576	5858
1008.929	5803
1011.28	5733
1013.628	5742
1015.977	5855
1018.324	5845
1020.674	5874
1023.019	5774
1025.366	5731
1027.713	5807
1030.056	5922
1032.399	5792
1034.746	6011
1037.087	5862
1039.431	5879
1041.771	5902
1044.113	5913
1046.454	5840
1048.793	5859
1051.133	5989
1053.471	5950
1055.807	5973
1058.146	5931
1060.483	5941
1062.818	6015
1065.153	6033
1067.489	6064
1069.822	6093
1072.156	6086
1074.488	6025
1076.82	6063
1079.15	5970
1081.48	6095
1083.814	5926
1086.143	5950
1088.471	5893
1090.799	5813
1093.126	5865
1095.452	5841
1097.78	5986
1100.105	5844
1102.43	5894
1104.754	5946
1107.077	5911
1109.4	5955
1111.722	5917
1114.044	5896
1116.365	5849
1118.685	5892
1121.005	5883
1123.324	5913
1125.643	5959
1127.961	6057
1130.278	6016
1132.595	5883
1134.911	5924
1137.226	5921
1139.541	5842
1141.854	5843
1144.167	5822
1146.482	5882
1148.793	5853
1151.105	5857
1153.414	6057
1155.725	5870
1158.033	5904
1160.344	5959
1162.651	5946
1164.959	5874
1167.265	5818
1169.572	5961
1171.878	5952
1174.184	5983
1176.488	5924
1178.79	5825
1181.094	6019
1183.396	6000
1185.699	5930
1188.001	5994
1190.301	5852
1192.6	5813
1194.9	5851
1197.2	5925
1199.497	5884
1201.794	5830
1204.09	5880
1206.387	5929
1208.684	5883
1210.978	5892
1213.272	5929
1215.565	5990
1217.858	5833
1220.15	5989
1222.443	6005
1224.734	5919
1227.024	6054
1229.313	5959
1231.602	6058
1233.892	6204
1236.18	6065
1238.467	6207
1240.754	6256
1243.04	6189
1245.325	6335
1247.612	6314
1249.896	6321
1252.178	6313
1254.461	6332
1256.743	6227
1259.027	6248
1261.308	6242
1263.587	6334
1265.867	6213
1268.146	6173
1270.425	6435
1272.703	6319
1274.981	6246
1277.256	6262
1279.532	6157
1281.808	6227
1284.083	6253
1286.358	6165
1288.63	6188
1290.904	6115
1293.175	6146
1295.449	6166
1297.719	6205
1299.99	6150
1302.259	6067
1304.529	6160
1306.798	6102
1309.065	6144
1311.333	6123
1313.599	6126
1315.866	6216
1318.131	6110
1320.396	6135
1322.66	6109
1324.925	6238
1327.187	6153
1329.448	6216
1331.711	6248
1333.974	6165
1336.234	6230
1338.493	6243
1340.752	6176
1343.01	6115
1345.269	6112
1347.526	6116
1349.784	6176
1352.04	6108
1354.295	6132
1356.552	6114
1358.806	5988
1361.059	6237
1363.312	6039
1365.564	6184
1367.818	6130
1370.069	6099
1372.318	6117
1374.568	6219
1376.817	6377
1379.066	6145
1381.316	6265
1383.564	6213
1385.809	6261
1388.056	6312
1390.301	6249
1392.549	6397
1394.793	6439
1397.036	6470
1399.279	6577
1401.522	6471
1403.763	6530
1406.007	6615
1408.248	6430
1410.487	6520
1412.727	6582
1414.965	6476
1417.205	6429
1419.442	6543
1421.68	6499
1423.915	6474
1426.152	6407
1428.388	6376
1430.623	6297
1432.857	6397
1435.091	6491
1437.323	6393
1439.556	6486
1441.789	6598
1444.019	6510
1446.25	6531
1448.48	6569
1450.708	6521
1452.938	6598
1455.167	6644
1457.394	6748
1459.62	6629
1461.846	6666
1464.073	6527
1466.299	6614
1468.523	6559
1470.746	6559
1472.969	6315
1475.191	6390
1477.415	6276
1479.636	6160
1481.858	6369
1484.078	6166
1486.298	6159
1488.518	6242
1490.736	6215
1492.954	6031
1495.169	6136
1497.386	6052
1499.602	6076
1501.819	6008
1504.034	6131
1506.248	6100
1508.462	6064
1510.675	6157
1512.888	5948
1515.1	6016
1517.311	6058
1519.522	6132
1521.732	6032
1523.942	6177
1526.151	6125
1528.36	6101
1530.566	6116
1532.773	6111
1534.98	6174
1537.187	6079
1539.392	6051
1541.596	6166
1543.801	6162
1546.005	6246
1548.208	6105
1550.411	6194
1552.612	6179
1554.814	6114
1557.013	6124
1559.212	6202
1561.414	6242
1563.612	6202
1565.811	6237
1568.007	6328
1570.203	6322
1572.403	6221
1574.598	6317
1576.792	6217
1578.988	6282
1581.181	6239
1583.376	6220
1585.568	6259
1587.761	6279
1589.952	6262
1592.143	6224
1594.333	6226
1596.524	6349
1598.715	6330
1600.903	6296
1603.091	6272
1605.278	6289
1607.466	6373
1609.652	6350
1611.838	6294
1614.023	6402
1616.207	6389
1618.391	6333
1620.576	6383
1622.759	6400
1624.941	6415
1627.123	6250
1629.304	6421
1631.484	6370
1633.664	6541
1635.844	6423
1638.022	6385
1640.201	6462
1642.38	6444
1644.556	6530
1646.732	6547
1648.908	6419
1651.084	6486
1653.257	6477
1655.433	6509
1657.607	6550
1659.779	6605
1661.951	6450
1664.122	6582
1666.295	6491
1668.467	6621
1670.635	6437
1672.805	6571
1674.973	6560
1677.142	6645
1679.31	6534
1681.478	6485
1683.644	6461
1685.81	6573
1687.975	6381
1690.142	6549
1692.305	6538
1694.468	6525
1696.632	6476
1698.794	6489
1700.957	6258
1703.119	6378
1705.279	6257
1707.439	6310
1709.598	6377
1711.758	6366
1713.917	6311
1716.075	6290
1718.231	6233
1720.388	6239
1722.543	6254
1724.702	6211
1726.856	6487
1729.01	6311
1731.164	6316
1733.317	6291
1735.471	6274
1737.623	6204
1739.774	6240
1741.925	6233
1744.075	6432
1746.225	6312
1748.376	6390
1750.524	6230
1752.672	6269
1754.82	6332
1756.965	6378
1759.113	6303
1761.259	6381
1763.405	6257
1765.549	6317
1767.694	6377
1769.836	6389
1771.981	6271
1774.123	6343
1776.264	6237
1778.405	6423
1780.546	6465
1782.687	6362
1784.827	6326
1786.966	6269
1789.103	6361
1791.242	6359
1793.381	6407
1795.517	6327
1797.653	6219
1799.788	6368
1801.923	6307
1804.057	6334
1806.193	6275
1808.326	6251
1810.457	6375
1812.59	6372
1814.721	6419
1816.855	6325
1818.984	6413
1821.113	6391
1823.244	6305
1825.372	6358
1827.499	6244
1829.63	6273
1831.756	6411
1833.882	6290
1836.007	6231
1838.132	6332
1840.26	6378
1842.384	6275
1844.507	6288
1846.63	6363
1848.752	6320
1850.875	6349
1852.996	6294
1855.118	6273
1857.238	6431
1859.358	6328
1861.477	6249
1863.597	6355
1865.715	6205
1867.832	6321
1869.948	6302
1872.064	6305
1874.181	6324
1876.297	6288
1878.411	6219
1880.526	6279
1882.639	6389
1884.752	6368
1886.865	6304
1888.977	6235
1891.089	6190
1893.2	6374
1895.308	6276
1897.42	6286
1899.53	6234
1901.639	6277
1903.745	6274
1905.853	6349
1907.962	6412
1910.067	6345
1912.174	6432
1914.278	6363
1916.383	6391
1918.486	6436
1920.592	6302
1922.694	6353
1924.797	6332
1926.898	6351
1929	6512
1931.102	6374
1933.203	6435
1935.301	6339
1937.401	6444
1939.499	6249
1941.598	6407
1943.697	6451
1945.793	6346
1947.888	6349
1949.985	6402
1952.08	6412
1954.176	6346
1956.269	6411
1958.364	6390
1960.457	6416
1962.549	6469
1964.642	6308
1966.733	6256
1968.823	6359
1970.913	6356
1973.005	6387
1975.093	6271
1977.184	6284
1979.271	6298
1981.359	6371
1983.446	6299
1985.532	6405
1987.619	6398
1989.705	6351
1991.789	6288
1993.874	6385
1995.956	6278
1998.041	6323
2000.123	6243
2002.206	6241
2004.287	6333
2006.368	6388
2008.449	6335
2010.529	6269
2012.609	6349
2014.688	6306
2016.766	6283
2018.843	6352
2020.922	6292
2022.999	6244
2025.074	6396
2027.15	6395
2029.225	6354
2031.299	6346
2033.375	6291
2035.447	6287
2037.52	6277
2039.592	6314
2041.664	6281
2043.736	6274
2045.807	6148
2047.876	6343
2049.947	6306
2052.015	6290
2054.086	6370
2056.153	6234
2058.221	6375
2060.288	6348
2062.353	6260
2064.42	6282
2066.486	6291
2068.55	6386
2070.614	6278
2072.678	6383
2074.741	6283
2076.805	6287
2078.866	6350
2080.929	6273
2082.99	6294
2085.049	6376
2087.109	6311
2089.17	6361
2091.228	6350
2093.286	6234
2095.344	6327
2097.4	6450
2099.46	6244
2101.516	6331
2103.572	6324
2105.626	6314
2107.679	6264
2109.735	6381
2111.788	6279
2113.841	6291
2115.894	6289
2117.945	6179
2119.997	6294
2122.049	6174
2124.1	6337
2126.148	6223
2128.197	6203
2130.246	6389
2132.296	6274
2134.342	6387
2136.39	6179
2138.437	6237
2140.483	6300
2142.527	6358
2144.574	6303
2146.619	6223
2148.661	6232
2150.705	6157
2152.747	6240
2154.792	6301
2156.832	6305
2158.874	6187
2160.915	6202
2162.954	6162
2164.995	6272
2167.034	6350
2169.072	6082
2171.111	6248
2173.148	6296
2175.186	6274
2177.223	6142
2179.258	6152
2181.294	6187
2183.328	6105
2185.362	6274
2187.398	6245
2189.431	6264
2191.463	6198
2193.495	6209
2195.528	6188
2197.56	6189
2199.59	6172
2201.62	6143
2203.649	6234
2205.678	6195
2207.708	6193
2209.737	6201
2211.764	6028
2213.791	6106
2215.817	6157
2217.843	6162
2219.87	6176
2221.895	6197
2223.919	6097
2225.942	6028
2227.966	6170
2229.988	6176
2232.012	6047
2234.032	6272
2236.054	6057
2238.074	6040
2240.095	6006
2242.116	6164
2244.135	6148
2246.153	6087
2248.171	6118
2250.188	6174
2252.208	6042
2254.223	6162
2256.239	6036
2258.255	6047
2260.269	6129
2262.283	6164
2264.3	6053
2266.312	6117
2268.325	6147
2270.336	6017
2272.349	6062
2274.362	6260
2276.372	6051
2278.383	6070
2280.392	5930
2282.402	6121
2284.409	6056
2286.418	6005
2288.427	6197
2290.433	6164
2292.441	6131
2294.446	6052
2296.453	6036
2298.459	6076
2300.463	6208
2302.466	6122
2304.471	6136
2306.475	6187
2308.477	6067
2310.478	6082
2312.481	6069
2314.481	6108
2316.481	6049
2318.482	6200
2320.482	6069
2322.48	5935
2324.48	6169
2326.478	6111
2328.476	6059
2330.473	6088
2332.469	5981
2334.465	6159
2336.46	6029
2338.454	6005
2340.45	6077
2342.444	6023
2344.437	6035
2346.43	6037
2348.421	6028
2350.414	5987
2352.405	6006
2354.396	5987
2356.386	5928
2358.376	5830
2360.366	6027
2362.355	6053
2364.343	6024
2366.331	5965
2368.317	5972
2370.304	5904
2372.292	6050
2374.278	5944
2376.262	5899
2378.247	5959
2380.23	5880
2382.216	5905
2384.199	5949
2386.181	6030
2388.163	5945
2390.144	5975
2392.127	5976
2394.107	5921
2396.087	6001
2398.066	5843
2400.046	5941
2402.023	6001
2404.004	5892
2405.981	5906
2407.957	5942
2409.934	5879
2411.91	5831
2413.886	5929
2415.862	5913
2417.836	5884
2419.809	5925
2421.784	5827
2423.756	5908
2425.73	5846
2427.701	5810
2429.672	5829
2431.644	5877
2433.615	5910
2435.586	5916
2437.555	6000
2439.523	5884
2441.491	5717
2443.459	5839
2445.428	5906
2447.395	5816
2449.361	5846
2451.327	5832
2453.292	5863
2455.257	5936
2457.223	5909
2459.187	5749
2461.15	5798
2463.113	5866
2465.076	5801
2467.039	5831
2468.999	5851
2470.96	5779
2472.921	5820
2474.881	5819
2476.841	5866
2478.8	5843
2480.759	5791
2482.717	5826
2484.675	5702
2486.63	5758
2488.589	5909
2490.545	5806
2492.5	5758
2494.455	5825
2496.408	5840
2498.364	5707
2500.318	5738
2502.27	5731
2504.223	5773
2506.174	5939
2508.126	5725
2510.078	5838
2512.03	5686
2513.979	5809
2515.927	5883
2517.877	5830
2519.826	5660
2521.775	5787
2523.722	5634
2525.668	5706
2527.616	5741
2529.561	5667
2531.508	5722
2533.452	5846
2535.398	5751
2537.342	5744
2539.284	5734
2541.229	5792
2543.173	5727
2545.114	5853
2547.055	5654
2548.996	5746
2550.938	5719
2552.878	5738
2554.817	5820
2556.756	5727
2558.695	5662
2560.633	5646
2562.572	5681
2564.509	5707
2566.445	5776
2568.382	5800
2570.317	5648
2572.254	5758
2574.189	5737
2576.123	5709
2578.057	5721
2579.99	5527
2581.923	5717
2583.855	5788
2585.788	5778
2587.719	5663
2589.65	5757
2591.579	5706
2593.511	5655
2595.44	5708
2597.37	5798
2599.297	5574
2601.225	5685
2603.153	5603
2605.08	5764
2607.007	5608
2608.932	5714
2610.858	5850
2612.782	5704
2614.709	5795
2616.632	5676
2618.556	5694
2620.478	5779
2622.401	5786
2624.324	5759
2626.247	5686
2628.167	5763
2630.088	5652
2632.008	5682
2633.928	5763
2635.848	5807
2637.766	5713
2639.684	5793
2641.603	5700
2643.519	5711
2645.437	5757
2647.353	5696
2649.27	5762
2651.184	5818
2653.099	5715
2655.014	5758
2656.928	5728
2658.842	5830
2660.755	5687
2662.667	5745
2664.579	5721
2666.491	5703
2668.402	5576
2670.312	5736
2672.222	5812
2674.132	5690
2676.042	5569
2677.951	5674
2679.859	5777
2681.766	5637
2683.674	5711
2685.582	5700
2687.488	5629
2689.392	5757
2691.298	5692
2693.202	5695
2695.107	5742
2697.012	5660
2698.914	5576
2700.817	5675
2702.72	5588
2704.622	5755
2706.524	5604
2708.425	5765
2710.326	5638
2712.225	5600
2714.125	5616
2716.024	5621
2717.923	5650
2719.822	5666
2721.719	5646
2723.616	5628
2725.512	5714
2727.41	5558
2729.305	5756
2731.201	5573
2733.095	5691
2734.99	5669
2736.884	5668
2738.778	5602
2740.67	5609
2742.562	5579
2744.455	5618
2746.346	5596
2748.238	5543
2750.129	5580
2752.018	5666
2753.907	5542
2755.797	5596
2757.687	5603
2759.575	5672
2761.462	5575
2763.349	5586
2765.237	5607
2767.124	5610
2769.009	5592
2770.894	5569
2772.779	5549
2774.663	5612
2776.547	5743
2778.431	5538
2780.314	5517
2782.197	5659
2784.078	5503
2785.96	5565
2787.842	5584
2789.723	5605
2791.603	5503
2793.483	5591
2795.362	5529
2797.241	5617
2799.121	5544
2800.997	5524
2802.874	5617
2804.751	5520
2806.628	5503
2808.506	5541
2810.38	5496
2812.255	5511
2814.13	5625
2816.003	5572
2817.878	5582
2819.752	5575
2821.623	5537
2823.496	5504
2825.368	5614
2827.238	5493
2829.111	5520
2830.98	5639
2832.851	5581
2834.719	5532
2836.589	5611
2838.458	5621
2840.327	5559
2842.193	5569
2844.061	5688
2845.927	5686
2847.794	5650
2849.66	5547
2851.525	5705
2853.39	5668
2855.254	5707
2857.117	5710
2858.983	5719
2860.845	5778
2862.707	5785
2864.569	5877
2866.431	5886
2868.293	5884
2870.154	6024
2872.013	6025
2873.873	6074
2875.733	6053
2877.592	6215
2879.451	6188
2881.309	6391
2883.166	6351
2885.022	6407
2886.879	6524
2888.736	6406
2890.591	6395
2892.446	6459
2894.301	6382
2896.155	6411
2898.009	6535
2899.863	6407
2901.716	6396
2903.568	6376
2905.419	6465
2907.27	6509
2909.123	6423
2910.973	6482
2912.824	6550
2914.673	6739
2916.521	6644
2918.372	6739
2920.22	6829
2922.067	6883
2923.914	6766
2925.761	6942
2927.607	6915
2929.455	7095
2931.301	7044
2933.144	7147
2934.99	7155
2936.833	7196
2938.678	7305
2940.522	7282
2942.364	7497
2944.207	7507
2946.048	7660
2947.891	7795
2949.731	7770
2951.571	7711
2953.412	7766
2955.25	7720
2957.09	7538
2958.93	7516
2960.767	7496
2962.606	7267
2964.443	7288
2966.279	7150
2968.116	6947
2969.953	6978
2971.788	6788
2973.623	6777
2975.457	6717
2977.292	6617
2979.127	6512
2980.959	6549
2982.792	6476
2984.624	6493
2986.455	6545
2988.288	6325
2990.119	6268
2991.949	6255
2993.779	6239
2995.608	6270
2997.439	6162
2999.268	6085
3001.096	5993
3002.923	5954
3004.751	5940
3006.578	5880
3008.406	5820
3010.232	5729
3012.057	5675
3013.883	5693
3015.706	5606
3017.532	5513
3019.356	5564
3021.179	5466
3023.002	5586
3024.823	5431
3026.646	5508
3028.469	5296
3030.289	5445
3032.11	5339
3033.93	5398
3035.749	5433
3037.57	5334
3039.39	5339
3041.207	5344
3043.026	5322
3044.842	5332
3046.661	5269
3048.477	5277
3050.294	5299
3052.109	5379
3053.925	5348
3055.739	5371
3057.555	5286
3059.368	5290
3061.181	5340
3062.995	5318
3064.807	5224
3066.62	5253
3068.433	5294
3070.243	5325
3072.054	5158
3073.865	5304
3075.675	5237
3077.485	5320
3079.293	5241
3081.102	5181
3082.911	5135
3084.719	5141
3086.527	5171
3088.333	5111
3090.139	5169
3091.945	5123
3093.75	5230
3095.557	5171
3097.361	5230
3099.165	5184
3100.969	5085
3102.772	5222
3104.575	5145
3106.379	5071
3108.181	5132
3109.982	5061
3111.783	5027
3113.584	5087
3115.386	5033
3117.186	5093
3118.985	5075
3120.783	5103
3122.582	5183
3124.381	5096
3126.179	5021
3127.975	5057
3129.772	5092
3131.569	4995
3133.365	4973
3135.161	5072
3136.956	4972
3138.751	5121
3140.544	4950
3142.338	4941
3144.132	4986
3145.925	5059
3147.717	5010
3149.509	4934
3151.301	4989
3153.091	5076
3154.884	5004
3156.673	4936
3158.462	4977
3160.252	4888
3162.041	4943
3163.831	5007
3165.618	4972
3167.405	4924
3169.193	4970
3170.979	4892
3172.767	5049
3174.553	5003
3176.338	4973
3178.123	5055
3179.907	4952
3181.692	4984
3183.477	4861
3185.259	4915
3187.042	4853
3188.824	4949
3190.607	4978
3192.389	4968
3194.17	4957
3195.951	4965
3197.73	4941
3199.51	4945
3201.289	5014
3203.07	4901
3204.848	5025
3206.626	4909
3208.403	5010
3210.18	4863
3211.959	5015
3213.735	4950
3215.511	5044
3217.285	4876
3219.06	4978
3220.836	4944
3222.611	4869
3224.384	4867
3226.158	4897
3227.929	4968
3229.702	4929
3231.476	4985
3233.248	4951
3235.018	4934
3236.789	4922
3238.56	4892
3240.33	4909
3242.1	4895
3243.869	4897
3245.637	4967
3247.405	4912
3249.172	4906
3250.941	4874
3252.707	4867
3254.474	4965
3256.24	4934
3258.006	4902
3259.772	4982
3261.537	4914
3263.301	5039
3265.065	4901
3266.828	4886
3268.592	4875
3270.355	4875
3272.117	4869
3273.878	4926
3275.64	4873
3277.401	4966
3279.162	4934
3280.922	4989
3282.682	5022
3284.441	4822
3286.199	4986
3287.959	4862
3289.716	4939
3291.475	4960
3293.232	4889
3294.988	4975
3296.744	4888
3298.501	5017
3300.256	5016
3302.011	4943
3303.766	4912
3305.52	4950
3307.275	4895
3309.028	4949
3310.781	4912
3312.533	4900
3314.285	4843
3316.038	4849
3317.789	4987
3319.54	4915
3321.289	4869
3323.039	4922
3324.789	4901
3326.539	4879
3328.288	4805
3330.035	4988
3331.783	4870
3333.531	4934
3335.28	4962
3337.025	4824
3338.771	4878
3340.518	4898
3342.262	4833
3344.009	4886
3345.753	4827
3347.497	4932
3349.24	4871
3350.983	4809
3352.726	4810
3354.469	4753
3356.212	4831
3357.952	4820
3359.694	4816
3361.434	4787
3363.176	4827
3364.916	4801
3366.654	4925
3368.394	4770
3370.132	4682
3371.871	4652
3373.61	4769
3375.346	4813
3377.083	4770
3378.82	4788
3380.556	4732
3382.292	4761
3384.027	4761
3385.763	4768
3387.497	4728
3389.231	4817
3390.965	4721
3392.698	4817
3394.431	4633
3396.164	4761
3397.896	4765
3399.627	4620
3401.36	4719
3403.09	4741
3404.82	4732
3406.55	4768
3408.279	4592
3410.01	4717
3411.738	4763
3413.467	4660
3415.194	4644
3416.92	4651
3418.647	4753
3420.375	4602
3422.102	4663
3423.827	4626
3425.553	4569
3427.277	4587
3429.003	4672
3430.727	4475
3432.451	4515
3434.173	4657
3435.896	4564
3437.62	4560
3439.343	4583
3441.063	4672
3442.785	4588
3444.505	4553
3446.226	4540
3447.948	4591
3449.666	4552
3451.386	4557
3453.104	4592
3454.823	4549
3456.541	4559
3458.259	4469
3459.976	4521
3461.693	4444
3463.408	4517
3465.125	4466
3466.841	4493
3468.556	4392
3470.271	4451
3471.985	4499
3473.698	4367
3475.414	4424
3477.126	4364
3478.838	4381
3480.55	4365
3482.263	4402
3483.975	4409
3485.686	4431
3487.396	4356
3489.106	4429
3490.817	4312
3492.526	4392
3494.236	4371
3495.944	4389
3497.652	4388
3499.359	4352
3501.066	4412
3502.775	4354
3504.481	4238
3506.187	4370
3507.893	4341
3509.598	4274
3511.304	4305
3513.009	4326
3514.713	4290
3516.417	4285
3518.12	4295
3519.821	4335
3521.525	4222
3523.228	4212
3524.929	4260
3526.631	4204
3528.33	4348
3530.032	4200
3531.733	4243
3533.433	4209
3535.131	4178
3536.83	4189
3538.529	4205
3540.227	4198
3541.925	4177
3543.623	4097
3545.319	4219
3547.016	4174
3548.712	4119
3550.408	4096
3552.103	4152
3553.798	4183
3555.491	4202
3557.188	4108
3558.88	4095
3560.574	4089
3562.266	4082
3563.959	4140
3565.651	4178
3567.343	4114
3569.035	4105
3570.725	4041
3572.415	4087
3574.106	4126
3575.797	4174
3577.485	4012
3579.174	4055
3580.863	4061
3582.551	4063
3584.238	4102
3585.926	4117
3587.613	4071
3589.3	4039
3590.986	4031
3592.671	3999
3594.357	4020
3596.042	3976
3597.726	3977
3599.41	4066
3601.094	3952
3602.778	3959
3604.461	3942
3606.143	3925
3607.825	3989
3609.507	3829
3611.188	3958
3612.87	4002
3614.551	3945
3616.229	3897
3617.909	3876
3619.589	3878
3621.269	3905
3622.948	3784
3624.625	3831
3626.302	3875
3627.98	3870
3629.657	3789
3631.334	3794
3633.01	3786
3634.686	3770
3636.361	3805
3638.036	3835
3639.712	3806
3641.385	3702
3643.06	3775
3644.732	3767
3646.405	3776
3648.08	3781
3649.751	3725
3651.424	3829
3653.094	3855
3654.766	3749
3656.436	3712
3658.106	3730
3659.777	3762
3661.446	3828
3663.115	3805
3664.783	3681
3666.452	3702
3668.121	3694
3669.788	3716
3671.454	3766
3673.121	3711
3674.789	3668
3676.455	3614
3678.12	3671
3679.784	3762
3681.45	3742
3683.114	3692
3684.779	3709
3686.442	3739
3688.105	3571
3689.768	3641
3691.43	3701
3693.093	3620
3694.754	3641
3696.415	3710
3698.076	3592
3699.736	3656
3701.396	3595
3703.057	3622
3704.716	3607
3706.375	3621
3708.034	3574
3709.692	3666
3711.351	3603
3713.008	3549
3714.665	3606
3716.321	3670
3717.977	3610
3719.634	3654
3721.29	3650
3722.945	3555
3724.598	3564
3726.253	3584
3727.907	3542
3729.561	3648
3731.214	3630
3732.867	3627
3734.518	3685
3736.171	3563
3737.824	3636
3739.474	3500
3741.125	3607
3742.775	3563
3744.425	3611
3746.074	3538
3747.725	3516
3749.373	3533
3751.022	3473
3752.669	3568
3754.318	3529
3755.966	3677
3757.612	3494
3759.259	3577
3760.905	3453
3762.55	3520
3764.197	3587
3765.842	3525
3767.486	3601
3769.131	3561
3770.774	3494
3772.417	3543
3774.061	3487
3775.705	3480
3777.347	3579
3778.988	3483
3780.629	3490
3782.271	3435
3783.912	3442
3785.552	3506
3787.192	3398
3788.831	3473
3790.472	3421
3792.112	3488
3793.75	3489
3795.388	3461
3797.024	3466
3798.661	3506
3800.3	3429
3801.936	3484
3803.572	3450
3805.208	3473
3806.844	3383
3808.48	3403
3810.115	3447
3811.748	3441
3813.382	3417
3815.016	3400
3816.649	3365
3818.283	3434
3819.914	3430
3821.547	3455
3823.178	3329
3824.809	3439
3826.441	3428
3828.072	3347
3829.701	3325
3831.331	3319
3832.96	3368
3834.591	3288
3836.219	3380
3837.847	3352
3839.475	3337
3841.102	3363
3842.729	3342
3844.357	3388
3845.984	3316
3847.609	3296
3849.234	3291
3850.86	3377
3852.485	3330
3854.11	3322
3855.734	3263
3857.357	3298
3858.981	3287
3860.603	3351
3862.227	3350
3863.848	3359
3865.471	3225
3867.092	3285
3868.713	3319
3870.334	3271
3871.954	3316
3873.575	3324
3875.194	3270
3876.813	3323
3878.433	3269
3880.051	3245
3881.669	3258
3883.286	3235
3884.904	3293
3886.52	3261
3888.138	3350
3889.754	3285
3891.37	3239
3892.985	3222
3894.6	3207
3896.216	3242
3897.831	3258
3899.444	3191
3901.058	3309
3902.67	3334
3904.283	3232
3905.897	3335
3907.509	3296
3909.121	3261
3910.731	3267
3912.342	3238
3913.954	3187
3915.563	3212
3917.174	3222
3918.783	3204
3920.391	3312
3922.002	3282
3923.611	3197
3925.218	3231
3926.826	3159
3928.432	3274
3930.039	3230
3931.647	3175
3933.253	3200
3934.859	3296
3936.464	3232
3938.068	3180
3939.675	3140
3941.278	3235
3942.883	3248
3944.486	3110
3946.089	3290
3947.692	3217
3949.295	3201
3950.898	3129
3952.499	3205
3954.1	3152
3955.7	3156
3957.303	3195
3958.903	3242
3960.502	3076
3962.101	3103
3963.7	3174
3965.301	3166
3966.899	3166
3968.497	3119
3970.094	3098
3971.691	3136
3973.288	3099
3974.885	3144
3976.481	3068
3978.077	3074
3979.672	3079
3981.267	3126
3982.863	3063
3984.457	3145
3986.051	3129
3987.645	3052
3989.238	3080
3990.831	3065
3992.425	3142
3994.017	3016
3995.607	3086
3997.199	3094
3998.79	3112
4000.382	3101
4001.973	3092
4003.561	3006
4005.151	3049
4006.741	3071
4008.331	3007
4009.918	3069
4011.507	3055
4013.095	3030
4014.681	3048
4016.269	2986
4017.856	3002
4019.443	3007
4021.028	3019
4022.614	2975
4024.199	2971
4025.785	3001
4027.37	3063
4028.953	2893
4030.536	3018
4032.12	2965
4033.704	2899
4035.287	2954
4036.869	3064
4038.45	2968
4040.032	2884
4041.613	2956
4043.195	2899
4044.776	2917
4046.356	2956
4047.935	2954
4049.515	2983
4051.095	2959
4052.674	2875
4054.251	3003
4055.829	2855
4057.406	2939
4058.985	2896
4060.562	2975
4062.139	2968
4063.715	2867
4065.29	2886
4066.865	2929
4068.442	2881
4070.016	2948
4071.59	2892
4073.164	2878
4074.738	2905
4076.312	2878
4077.885	2856
4079.458	2928
4081.03	2902
4082.602	2865
4084.173	2916
4085.745	2814
4087.315	2900
4088.886	2826
4090.456	2895
4092.026	2922
4093.596	2872
4095.165	2841
4096.734	2844
4098.301	2879
4099.869	2936
4101.437	2866
4103.006	2903
4104.572	2856
4106.139	2902
4107.704	2780
4109.27	2780
4110.837	2835
4112.401	2776
4113.966	2826
4115.53	2802
4117.094	2760
4118.659	2825
4120.223	2815
4121.785	2835
4123.347	2770
4124.909	2867
4126.471	2866
4128.034	2826
4129.595	2734
4131.155	2749
4132.716	2737
4134.275	2788
4135.836	2779
4137.395	2727
4138.955	2756
4140.513	2857
4142.071	2749
4143.628	2750
4145.188	2785
4146.745	2805
4148.302	2803
4149.858	2716
4151.414	2865
4152.971	2731
4154.526	2733
4156.081	2749
4157.635	2773
4159.189	2731
4160.745	2682
4162.298	2711
4163.852	2689
4165.405	2748
4166.957	2691
4168.51	2722
4170.063	2675
4171.614	2731
4173.166	2718
4174.717	2715
4176.267	2697
4177.817	2671
4179.368	2709
4180.917	2658
4182.466	2659
4184.016	2653
4185.564	2748
4187.112	2689
4188.66	2618
4190.207	2637
4191.754	2643
4193.301	2698
4194.848	2701
4196.394	2666
4197.94	2613
4199.484	2692
4201.03	2641
4202.575	2678
4204.12	2595
4205.663	2586
4207.207	2566
4208.75	2623
4210.292	2561
4211.836	2655
4213.378	2697
4214.92	2613
4216.46	2612
4218.002	2635
4219.544	2608
4221.083	2543
4222.625	2629
4224.164	2656
4225.703	2549
4227.244	2534
4228.782	2591
4230.32	2594
4231.857	2550
4233.395	2583
4234.933	2545
4236.471	2633
4238.007	2536
4239.542	2579
4241.078	2545
4242.614	2624
4244.15	2551
4245.685	2615
4247.219	2481
4248.753	2625
4250.287	2548
4251.82	2656
4253.354	2584
4254.887	2588
4256.419	2527
4257.951	2581
4259.483	2549
4261.016	2586
4262.547	2559
4264.078	2563
4265.608	2626
4267.137	2576
4268.668	2475
4270.197	2523
4271.727	2529
4273.254	2478
4274.783	2514
4276.311	2518
4277.84	2559
4279.366	2476
4280.894	2538
4282.42	2523
4283.946	2462
4285.473	2505
4286.998	2484
4288.523	2520
4290.047	2494
4291.572	2495
4293.096	2493
4294.622	2454
4296.144	2409
4297.668	2535
4299.19	2528
4300.713	2490
4302.236	2517
4303.758	2500
4305.279	2554
4306.799	2441
4308.321	2415
4309.842	2527
4311.361	2481
4312.882	2448
4314.401	2531
