400.0961	4829
402.6185	4910
405.1424	4815
407.6635	4949
410.1838	4946
412.7035	4955
415.2225	4981
417.7388	5057
420.2585	4971
422.7754	5093
425.2917	5079
427.8072	5187
430.3221	5161
432.8363	5161
435.3498	5219
437.8626	5214
440.3727	5114
442.8841	5204
445.3969	5218
447.907	5137
450.4142	5157
452.9229	5123
455.4289	5244
457.9362	5158
460.4449	5160
462.9488	5244
465.454	5282
467.9566	5176
470.4604	5194
472.9637	5209
475.4662	5213
477.966	5136
480.4671	5058
482.9656	5212
485.4633	5196
487.9645	5145
490.4608	5299
492.9566	5281
495.4536	5253
497.948	5298
500.4437	5318
502.9387	5379
505.431	5304
507.9226	5327
510.4136	5425
512.9079	5431
515.3975	5381
517.8864	5300
520.3746	5380
522.8622	5443
525.3491	5356
527.8394	5355
530.3249	5440
532.8098	5440
535.2939	5389
537.7774	5341
540.2623	5466
542.7444	5340
545.2259	5457
547.7067	5374
550.1868	5352
552.6683	5411
555.147	5492
557.6231	5394
560.1005	5506
562.5773	5576
565.0534	5510
567.5308	5576
570.0056	5451
572.4776	5572
574.951	5595
577.4237	5610
579.8978	5544
582.3671	5681
584.8378	5640
587.3079	5604
589.7773	5697
592.244	5703
594.714	5679
597.1793	5602
599.6461	5645
602.1121	5680
604.5754	5663
607.0421	5612
609.5042	5650
611.9675	5593
614.4282	5672
616.8902	5669
619.3515	5621
621.8122	5625
624.2702	5589
626.7296	5613
629.1863	5642
631.6423	5600
634.1017	5587
636.5563	5635
639.0104	5735
641.4658	5545
643.9185	5595
646.3725	5583
648.8239	5758
651.2766	5655
653.7266	5726
656.176	5627
658.6247	5603
661.0748	5786
663.5242	5802
665.9709	5668
668.417	5739
670.8624	5759
673.3092	5791
675.7533	5815
678.1968	5818
680.6395	5774
683.0817	5891
685.5251	5898
687.9659	5814
690.4061	5817
692.8456	5777
695.2844	5824
697.7226	5932
700.1621	5813
702.599	5859
705.0332	5829
707.4688	5917
709.9036	5825
712.3399	5980
714.7735	5913
717.2044	5953
719.6367	5898
722.0683	5904
724.4993	6042
726.9296	5932
729.3593	6029
731.7883	5948
734.2147	5982
736.6423	6106
739.0714	6075
741.4958	6092
743.9216	6176
746.3447	6052
748.7691	6163
751.1929	6220
753.616	6216
756.0366	6130
758.4584	6177
760.8776	6266
763.2982	6276
765.718	6273
768.1373	6215
770.5539	6178
772.9698	6326
775.3871	6219
777.8038	6294
780.2178	6183
782.6332	6429
785.0459	6284
787.458	6300
789.8714	6309
792.2842	6291
794.6943	6319
797.1038	6322
799.5127	6204
801.9209	6213
804.3324	6242
806.7393	6313
809.1456	6336
811.5513	6374
813.9562	6389
816.3625	6431
818.7663	6501
821.1693	6325
823.5718	6221
825.9735	6406
828.3746	6302
830.7771	6369
833.177	6357
835.5762	6372
837.9747	6348
840.3727	6490
842.772	6375
845.1666	6502
847.5626	6493
849.958	6564
852.3527	6592
854.7488	6604
857.1403	6473
859.5331	6522
861.9253	6538
864.3168	6517
866.7057	6533
869.098	6550
871.4876	6424
873.8746	6361
876.263	6401
878.6487	6512
881.0378	6455
883.4243	6569
885.8081	6450
888.1933	6655
890.5759	6402
892.9598	6400
895.343	6461
897.7256	6602
900.1057	6601
902.4871	6480
904.8659	6681
907.246	6499
909.6254	6625
912.0023	6524
914.3786	6635
916.7562	6709
919.1331	6970
921.5074	6830
923.8831	6928
926.2562	6951
928.6287	6805
931.0005	6848
933.3757	6893
935.7462	6808
938.1162	6840
940.4855	6965
942.8542	7010
945.2242	7117
947.5916	7100
949.9584	7209
952.3266	7496
954.6921	7645
957.0571	7814
959.4233	8050
961.787	8138
964.15	8219
966.5125	8053
968.8742	7796
971.2354	7592
973.5959	7310
975.9559	7132
978.3151	7086
980.6738	6982
983.0338	6852
985.3912	6836
987.7461	6701
990.1022	6783
992.4578	6741
994.8127	6619
997.1689	6772
999.5207	6908
1001.874	6859
1004.226	6916
1006.576	6823
1008.929	6674
1011.28	6729
1013.628	6852
1015.977	6758
1018.324	6773
1020.674	6755
1023.019	6835
1025.366	6806
1027.713	6840
1030.056	6928
1032.399	6767
1034.746	6842
1037.087	6828
1039.431	6944
1041.771	6852
1044.113	6933
1046.454	7079
1048.793	6869
1051.133	6829
1053.471	6894
1055.807	6887
1058.146	6990
1060.483	6855
1062.818	6924
1065.153	6948
1067.489	6876
1069.822	7065
1072.156	7003
1074.488	7042
1076.82	7128
1079.15	6994
1081.48	6980
1083.814	6975
1086.143	6845
1088.471	7032
1090.799	6820
1093.126	6928
1095.452	6933
1097.78	6826
1100.105	6875
1102.43	6850
1104.754	6861
1107.077	6947
1109.4	6890
1111.722	6994
1114.044	6902
1116.365	6986
1118.685	6988
1121.005	6937
1123.324	7040
1125.643	7025
1127.961	7019
1130.278	6974
1132.595	7002
1134.911	6867
1137.226	6930
1139.541	6905
1141.854	6962
1144.167	6948
1146.482	6895
1148.793	6947
1151.105	6942
1153.414	6877
1155.725	6969
1158.033	6991
1160.344	6998
1162.651	6910
1164.959	6838
1167.265	7090
1169.572	6954
1171.878	7045
1174.184	7027
1176.488	6961
1178.79	7060
1181.094	7041
1183.396	6998
1185.699	7013
1188.001	6979
1190.301	6977
1192.6	6940
1194.9	6968
1197.2	6914
1199.497	7014
1201.794	7073
1204.09	7064
1206.387	6949
1208.684	6993
1210.978	7041
1213.272	6928
1215.565	6902
1217.858	7048
1220.15	7008
1222.443	6995
1224.734	7146
1227.024	7101
1229.313	7142
1231.602	7018
1233.892	7182
1236.18	7160
1238.467	7174
1240.754	7159
1243.04	7264
1245.325	7248
1247.612	7229
1249.896	7278
1252.178	7306
1254.461	7265
1256.743	7152
1259.027	7317
1261.308	7234
1263.587	7194
1265.867	7284
1268.146	7321
1270.425	7423
1272.703	7274
1274.981	7296
1277.256	7316
1279.532	7211
1281.808	7119
1284.083	7237
1286.358	7270
1288.63	7174
1290.904	7083
1293.175	7193
1295.449	7148
1297.719	7168
1299.99	7196
1302.259	7017
1304.529	7201
1306.798	7110
1309.065	7185
1311.333	7277
1313.599	7159
1315.866	7132
1318.131	7205
1320.396	7191
1322.66	7068
1324.925	7285
1327.187	7175
1329.448	7149
1331.711	7207
1333.974	7241
1336.234	7137
1338.493	7210
1340.752	7228
1343.01	7105
1345.269	7372
1347.526	7161
1349.784	7114
1352.04	7249
1354.295	7160
1356.552	7182
1358.806	7105
1361.059	7159
1363.312	7129
1365.564	7155
1367.818	7152
1370.069	7178
1372.318	7203
1374.568	7274
1376.817	7161
1379.066	7214
1381.316	7289
1383.564	7345
1385.809	7315
1388.056	7345
1390.301	7485
1392.549	7407
1394.793	7281
1397.036	7391
1399.279	7451
1401.522	7568
1403.763	7577
1406.007	7543
1408.248	7419
1410.487	7428
1412.727	7649
1414.965	7440
1417.205	7487
1419.442	7355
1421.68	7295
1423.915	7356
1426.152	7396
1428.388	7346
1430.623	7331
1432.857	7438
1435.091	7510
1437.323	7507
1439.556	7662
1441.789	7591
1444.019	7628
1446.25	7547
1448.48	7588
1450.708	7633
1452.938	7654
1455.167	7520
1457.394	7650
1459.62	7615
1461.846	7485
1464.073	7469
1466.299	7555
1468.523	7493
1470.746	7411
1472.969	7406
1475.191	7336
1477.415	7305
1479.636	7408
1481.858	7341
1484.078	7323
1486.298	7277
1488.518	7275
1490.736	7250
1492.954	7210
1495.169	7174
1497.386	7255
1499.602	7269
1501.819	7311
1504.034	7023
1506.248	7164
1508.462	7278
1510.675	7057
1512.888	7107
1515.1	7352
1517.311	7138
1519.522	7194
1521.732	7198
1523.942	7174
1526.151	7118
1528.36	7237
1530.566	7093
1532.773	7211
1534.98	7126
1537.187	7150
1539.392	7156
1541.596	7143
1543.801	7213
1546.005	7120
1548.208	7220
1550.411	7295
1552.612	7222
1554.814	7195
1557.013	7233
1559.212	7418
1561.414	7316
1563.612	7320
1565.811	7386
1568.007	7383
1570.203	7398
1572.403	7317
1574.598	7293
1576.792	7437
1578.988	7388
1581.181	7348
1583.376	7414
1585.568	7416
1587.761	7359
1589.952	7496
1592.143	7416
1594.333	7458
1596.524	7478
1598.715	7438
1600.903	7427
1603.091	7387
1605.278	7524
1607.466	7462
1609.652	7606
1611.838	7419
1614.023	7451
1616.207	7554
1618.391	7444
1620.576	7357
1622.759	7535
1624.941	7527
1627.123	7435
1629.304	7573
1631.484	7535
1633.664	7532
1635.844	7526
1638.022	7633
1640.201	7498
1642.38	7544
1644.556	7606
1646.732	7456
1648.908	7491
1651.084	7566
1653.257	7611
1655.433	7528
1657.607	7528
1659.779	7632
1661.951	7547
1664.122	7613
1666.295	7544
1668.467	7662
1670.635	7569
1672.805	7636
1674.973	7509
1677.142	7711
1679.31	7558
1681.478	7632
1683.644	7569
1685.81	7560
1687.975	7576
1690.142	7580
1692.305	7451
1694.468	7506
1696.632	7450
1698.794	7432
1700.957	7443
1703.119	7574
1705.279	7486
1707.439	7380
1709.598	7542
1711.758	7512
1713.917	7357
1716.075	7500
1718.231	7499
1720.388	7470
1722.543	7371
1724.702	7480
1726.856	7366
1729.01	7309
1731.164	7384
1733.317	7366
1735.471	7521
1737.623	7372
1739.774	7382
1741.925	7389
1744.075	7436
1746.225	7477
1748.376	7368
1750.524	7477
1752.672	7452
1754.82	7407
1756.965	7543
1759.113	7470
1761.259	7391
1763.405	7436
1765.549	7485
1767.694	7525
1769.836	7518
1771.981	7484
1774.123	7525
1776.264	7607
1778.405	7540
1780.546	7521
1782.687	7440
1784.827	7462
1786.966	7589
1789.103	7462
1791.242	7500
1793.381	7498
1795.517	7429
1797.653	7493
1799.788	7473
1801.923	7526
1804.057	7549
1806.193	7496
1808.326	7607
1810.457	7503
1812.59	7452
1814.721	7548
1816.855	7590
1818.984	7438
1821.113	7447
1823.244	7374
1825.372	7511
1827.499	7490
1829.63	7455
1831.756	7465
1833.882	7501
1836.007	7379
1838.132	7439
1840.26	7374
1842.384	7536
1844.507	7328
1846.63	7514
1848.752	7462
1850.875	7388
1852.996	7414
1855.118	7253
1857.238	7285
1859.358	7350
1861.477	7528
1863.597	7464
1865.715	7449
1867.832	7450
1869.948	7320
1872.064	7316
1874.181	7490
1876.297	7352
1878.411	7338
1880.526	7292
1882.639	7420
1884.752	7283
1886.865	7473
1888.977	7466
1891.089	7348
1893.2	7437
1895.308	7484
1897.42	7442
1899.53	7481
1901.639	7462
1903.745	7372
1905.853	7536
1907.962	7385
1910.067	7524
1912.174	7447
1914.278	7461
1916.383	7527
1918.486	7479
1920.592	7626
1922.694	7460
1924.797	7523
1926.898	7535
1929	7492
1931.102	7586
1933.203	7494
1935.301	7521
1937.401	7441
1939.499	7648
1941.598	7515
1943.697	7599
1945.793	7578
1947.888	7502
1949.985	7427
1952.08	7445
1954.176	7511
1956.269	7500
1958.364	7526
1960.457	7448
1962.549	7497
1964.642	7550
1966.733	7546
1968.823	7409
1970.913	7467
1973.005	7544
1975.093	7474
1977.184	7588
1979.271	7557
1981.359	7297
1983.446	7392
1985.532	7400
1987.619	7522
1989.705	7385
1991.789	7455
1993.874	7407
1995.956	7528
1998.041	7410
2000.123	7410
2002.206	7436
2004.287	7619
2006.368	7469
2008.449	7323
2010.529	7504
2012.609	7445
2014.688	7477
2016.766	7245
2018.843	7380
2020.922	7415
2022.999	7442
2025.074	7393
2027.15	7381
2029.225	7491
2031.299	7514
2033.375	7474
2035.447	7373
2037.52	7380
2039.592	7396
2041.664	7386
2043.736	7332
2045.807	7414
2047.876	7383
2049.947	7368
2052.015	7425
2054.086	7514
2056.153	7511
2058.221	7417
2060.288	7473
2062.353	7404
2064.42	7426
2066.486	7470
2068.55	7378
2070.614	7434
2072.678	7463
2074.741	7479
2076.805	7283
2078.866	7445
2080.929	7465
2082.99	7490
2085.049	7451
2087.109	7569
2089.17	7520
2091.228	7465
2093.286	7274
2095.344	7367
2097.4	7542
2099.46	7439
2101.516	7424
2103.572	7359
2105.626	7520
2107.679	7350
2109.735	7423
2111.788	7364
2113.841	7509
2115.894	7505
2117.945	7420
2119.997	7370
2122.049	7387
2124.1	7529
2126.148	7551
2128.197	7402
2130.246	7314
2132.296	7353
2134.342	7411
2136.39	7535
2138.437	7340
2140.483	7355
2142.527	7451
2144.574	7331
2146.619	7393
2148.661	7255
2150.705	7297
2152.747	7360
2154.792	7312
2156.832	7340
2158.874	7380
2160.915	7323
2162.954	7304
2164.995	7337
2167.034	7246
2169.072	7304
2171.111	7405
2173.148	7321
2175.186	7329
2177.223	7410
2179.258	7275
2181.294	7444
2183.328	7240
2185.362	7218
2187.398	7176
2189.431	7203
2191.463	7285
2193.495	7294
2195.528	7161
2197.56	7212
2199.59	7251
2201.62	7215
2203.649	7233
2205.678	7337
2207.708	7152
2209.737	7255
2211.764	7258
2213.791	7140
2215.817	7137
2217.843	7172
2219.87	7302
2221.895	7162
2223.919	7264
2225.942	7193
2227.966	7143
2229.988	7138
2232.012	7056
2234.032	7195
2236.054	7079
2238.074	7068
2240.095	7301
2242.116	7142
2244.135	7363
2246.153	7167
2248.171	7190
2250.188	7218
2252.208	7080
2254.223	7308
2256.239	7202
2258.255	7242
2260.269	7207
2262.283	7202
2264.3	7184
2266.312	7357
2268.325	7208
2270.336	7147
2272.349	7056
2274.362	7233
2276.372	7224
2278.383	7207
2280.392	7094
2282.402	7214
2284.409	7041
2286.418	7186
2288.427	7180
2290.433	7070
2292.441	7188
2294.446	7108
2296.453	6986
2298.459	7185
2300.463	7232
2302.466	7233
2304.471	7055
2306.475	7018
2308.477	7142
2310.478	7077
2312.481	7206
2314.481	7173
2316.481	7078
2318.482	7088
2320.482	7034
2322.48	7138
2324.48	7122
2326.478	7068
2328.476	7144
2330.473	7082
2332.469	7098
2334.465	7098
2336.46	6952
2338.454	6994
2340.45	7164
2342.444	7059
2344.437	7069
2346.43	7080
2348.421	7012
2350.414	6981
2352.405	7139
2354.396	6997
2356.386	7080
2358.376	7021
2360.366	6998
2362.355	7006
2364.343	6922
2366.331	6873
2368.317	7011
2370.304	7130
2372.292	6999
2374.278	6873
2376.262	7059
2378.247	7002
2380.23	6944
2382.216	6882
2384.199	6982
2386.181	6920
2388.163	7053
2390.144	6995
2392.127	6936
2394.107	6894
2396.087	6920
2398.066	6821
2400.046	6847
2402.023	6940
2404.004	6973
2405.981	6656
2407.957	7081
2409.934	6909
2411.91	6865
2413.886	6867
2415.862	6931
2417.836	6863
2419.809	6854
2421.784	6890
2423.756	6827
2425.73	6888
2427.701	6969
2429.672	6964
2431.644	6902
2433.615	6952
2435.586	6823
2437.555	6935
2439.523	6806
2441.491	6886
2443.459	6866
2445.428	6791
2447.395	6712
2449.361	6943
2451.327	6952
2453.292	6840
2455.257	6869
2457.223	6866
2459.187	6911
2461.15	6781
2463.113	6795
2465.076	6865
2467.039	6841
2468.999	6820
2470.96	6835
2472.921	6858
2474.881	6872
2476.841	6853
2478.8	6749
2480.759	6877
2482.717	6711
2484.675	6768
2486.63	6705
2488.589	6808
2490.545	6747
2492.5	6773
2494.455	6791
2496.408	6684
2498.364	6759
2500.318	6765
2502.27	6857
2504.223	6779
2506.174	6745
2508.126	6737
2510.078	6748
2512.03	6781
2513.979	6716
2515.927	6610
2517.877	6801
2519.826	6734
2521.775	6692
2523.722	6738
2525.668	6823
2527.616	6791
2529.561	6798
2531.508	6698
2533.452	6687
2535.398	6792
2537.342	6689
2539.284	6717
2541.229	6818
2543.173	6735
2545.114	6748
2547.055	6733
2548.996	6686
2550.938	6701
2552.878	6759
2554.817	6587
2556.756	6709
2558.695	6700
2560.633	6684
2562.572	6651
2564.509	6649
2566.445	6779
2568.382	6586
2570.317	6752
2572.254	6760
2574.189	6763
2576.123	6659
2578.057	6681
2579.99	6624
2581.923	6748
2583.855	6598
2585.788	6642
2587.719	6619
2589.65	6748
2591.579	6668
2593.511	6777
2595.44	6642
2597.37	6695
2599.297	6764
2601.225	6743
2603.153	6619
2605.08	6792
2607.007	6752
2608.932	6702
2610.858	6523
2612.782	6598
2614.709	6664
2616.632	6682
2618.556	6642
2620.478	6627
2622.401	6701
2624.324	6816
2626.247	6582
2628.167	6681
2630.088	6653
2632.008	6646
2633.928	6778
2635.848	6760
2637.766	6772
2639.684	6735
2641.603	6643
2643.519	6636
2645.437	6669
2647.353	6739
2649.27	6501
2651.184	6728
2653.099	6639
2655.014	6664
2656.928	6709
2658.842	6745
2660.755	6624
2662.667	6778
2664.579	6719
2666.491	6750
2668.402	6598
2670.312	6653
2672.222	6509
2674.132	6639
2676.042	6614
2677.951	6582
2679.859	6672
2681.766	6670
2683.674	6630
2685.582	6602
2687.488	6811
2689.392	6597
2691.298	6568
2693.202	6540
2695.107	6653
2697.012	6597
2698.914	6557
2700.817	6481
2702.72	6526
2704.622	6540
2706.524	6586
2708.425	6550
2710.326	6572
2712.225	6483
2714.125	6429
2716.024	6567
2717.923	6494
2719.822	6503
2721.719	6425
2723.616	6513
2725.512	6575
2727.41	6528
2729.305	6502
2731.201	6556
2733.095	6393
2734.99	6475
2736.884	6521
2738.778	6575
2740.67	6489
2742.562	6445
2744.455	6450
2746.346	6470
2748.238	6572
2750.129	6498
2752.018	6531
2753.907	6441
2755.797	6506
2757.687	6450
2759.575	6494
2761.462	6493
2763.349	6428
2765.237	6408
2767.124	6410
2769.009	6318
2770.894	6571
2772.779	6519
2774.663	6391
2776.547	6496
2778.431	6472
2780.314	6449
2782.197	6495
2784.078	6421
2785.96	6493
2787.842	6435
2789.723	6410
2791.603	6471
2793.483	6406
2795.362	6438
2797.241	6384
2799.121	6491
2800.997	6419
2802.874	6483
2804.751	6369
2806.628	6414
2808.506	6478
2810.38	6473
2812.255	6276
2814.13	6482
2816.003	6496
2817.878	6343
2819.752	6326
2821.623	6366
2823.496	6317
2825.368	6430
2827.238	6499
2829.111	6458
2830.98	6408
2832.851	6303
2834.719	6403
2836.589	6372
2838.458	6434
2840.327	6397
2842.193	6427
2844.061	6486
2845.927	6350
2847.794	6554
2849.66	6438
2851.525	6476
2853.39	6494
2855.254	6417
2857.117	6485
2858.983	6501
2860.845	6482
2862.707	6545
2864.569	6624
2866.431	6604
2868.293	6620
2870.154	6703
2872.013	6653
2873.873	6767
2875.733	6863
2877.592	6809
2879.451	6805
2881.309	6820
2883.166	6927
2885.022	6980
2886.879	6952
2888.736	7046
2890.591	7059
2892.446	7149
2894.301	7065
2896.155	6879
2898.009	6979
2899.863	6964
2901.716	6918
2903.568	6981
2905.419	6893
2907.27	7047
2909.123	7012
2910.973	6955
2912.824	7173
2914.673	7073
2916.521	7104
2918.372	7146
2920.22	7122
2922.067	7249
2923.914	7310
2925.761	7457
2927.607	7462
2929.455	7479
2931.301	7486
2933.144	7473
2934.99	7593
2936.833	7642
2938.678	7682
2940.522	7793
2942.364	7748
2944.207	7956
2946.048	7928
2947.891	7990
2949.731	7882
2951.571	8019
2953.412	7878
2955.25	7774
2957.09	7707
2958.93	7735
2960.767	7810
2962.606	7619
2964.443	7615
2966.279	7521
2968.116	7358
2969.953	7333
2971.788	7246
2973.623	7103
2975.457	7106
2977.292	7058
2979.127	7129
2980.959	7055
2982.792	7011
2984.624	6934
2986.455	6908
2988.288	6937
2990.119	6968
2991.949	6856
2993.779	6906
2995.608	6668
2997.439	6792
2999.268	6687
3001.096	6633
3002.923	6709
3004.751	6557
3006.578	6526
3008.406	6413
3010.232	6367
3012.057	6360
3013.883	6337
3015.706	6331
3017.532	6379
3019.356	6308
3021.179	6229
3023.002	6226
3024.823	6082
3026.646	6175
3028.469	6185
3030.289	6096
3032.11	6118
3033.93	6049
3035.749	6135
3037.57	6156
3039.39	6018
3041.207	6052
3043.026	6088
3044.842	6159
3046.661	6048
3048.477	6100
3050.294	5942
3052.109	5922
3053.925	6077
3055.739	6043
3057.555	5988
3059.368	6009
3061.181	6098
3062.995	5904
3064.807	6024
3066.62	5871
3068.433	6002
3070.243	6021
3072.054	5926
3073.865	6011
3075.675	5990
3077.485	5935
3079.293	5824
3081.102	5997
3082.911	5888
3084.719	5856
3086.527	5942
3088.333	5849
3090.139	5838
3091.945	5769
3093.75	5825
3095.557	5882
3097.361	5828
3099.165	5930
3100.969	5761
3102.772	5874
3104.575	5810
3106.379	5851
3108.181	5674
3109.982	5717
3111.783	5827
3113.584	5783
3115.386	5785
3117.186	5837
3118.985	5761
3120.783	5795
3122.582	5732
3124.381	5779
3126.179	5733
3127.975	5695
3129.772	5750
3131.569	5688
3133.365	5625
3135.161	5793
3136.956	5736
3138.751	5671
3140.544	5702
3142.338	5764
3144.132	5621
3145.925	5656
3147.717	5643
3149.509	5633
3151.301	5742
3153.091	5574
3154.884	5627
3156.673	5669
3158.462	5623
3160.252	5700
3162.041	5688
3163.831	5635
3165.618	5623
3167.405	5625
3169.193	5618
3170.979	5626
3172.767	5561
3174.553	5625
3176.338	5593
3178.123	5687
3179.907	5550
3181.692	5559
3183.477	5695
3185.259	5684
3187.042	5575
3188.824	5688
3190.607	5536
3192.389	5634
3194.17	5599
3195.951	5568
3197.73	5541
3199.51	5566
3201.289	5578
3203.07	5617
3204.848	5748
3206.626	5674
3208.403	5580
3210.18	5586
3211.959	5518
3213.735	5515
3215.511	5557
3217.285	5540
3219.06	5518
3220.836	5442
3222.611	5591
3224.384	5562
3226.158	5580
3227.929	5630
3229.702	5561
3231.476	5574
3233.248	5508
3235.018	5593
3236.789	5614
3238.56	5516
3240.33	5523
3242.1	5527
3243.869	5520
3245.637	5628
3247.405	5474
3249.172	5482
3250.941	5534
3252.707	5516
3254.474	5492
3256.24	5511
3258.006	5564
3259.772	5482
3261.537	5562
3263.301	5587
3265.065	5507
3266.828	5498
3268.592	5662
3270.355	5543
3272.117	5543
3273.878	5545
3275.64	5539
3277.401	5487
3279.162	5517
3280.922	5505
3282.682	5433
3284.441	5533
3286.199	5538
3287.959	5459
3289.716	5501
3291.475	5596
3293.232	5589
3294.988	5488
3296.744	5413
3298.501	5544
3300.256	5478
3302.011	5431
3303.766	5501
3305.52	5558
3307.275	5491
3309.028	5507
3310.781	5496
3312.533	5536
3314.285	5571
3316.038	5420
3317.789	5552
3319.54	5463
3321.289	5363
3323.039	5360
3324.789	5490
3326.539	5518
3328.288	5434
3330.035	5525
3331.783	5493
3333.531	5465
3335.28	5465
3337.025	5477
3338.771	5439
3340.518	5414
3342.262	5373
3344.009	5435
3345.753	5491
3347.497	5321
3349.24	5374
3350.983	5370
3352.726	5457
3354.469	5450
3356.212	5422
3357.952	5293
3359.694	5299
3361.434	5406
3363.176	5444
3364.916	5369
3366.654	5354
3368.394	5342
3370.132	5342
3371.871	5387
3373.61	5427
3375.346	5272
3377.083	5317
3378.82	5356
3380.556	5353
3382.292	5185
3384.027	5375
3385.763	5329
3387.497	5348
3389.231	5249
3390.965	5363
3392.698	5226
3394.431	5267
3396.164	5286
3397.896	5352
3399.627	5269
3401.36	5149
3403.09	5268
3404.82	5221
3406.55	5348
3408.279	5154
3410.01	5153
3411.738	5255
3413.467	5258
3415.194	5162
3416.92	5073
3418.647	5109
3420.375	5224
3422.102	5205
3423.827	5178
3425.553	5173
3427.277	5211
3429.003	5152
3430.727	5138
3432.451	5199
3434.173	5155
3435.896	5205
3437.62	5231
3439.343	5158
3441.063	5133
3442.785	5113
3444.505	5111
3446.226	5075
3447.948	5084
3449.666	5092
3451.386	5131
3453.104	5020
3454.823	5053
3456.541	5105
3458.259	5064
3459.976	4975
3461.693	5107
3463.408	4938
3465.125	5038
3466.841	5031
3468.556	5044
3470.271	5030
3471.985	5091
3473.698	4958
3475.414	5014
3477.126	4962
3478.838	4950
3480.55	4896
3482.263	4937
3483.975	4899
3485.686	4981
3487.396	4861
3489.106	4867
3490.817	4976
3492.526	4929
3494.236	4975
3495.944	4766
3497.652	4930
3499.359	4874
3501.066	4799
3502.775	4873
3504.481	4774
3506.187	4910
3507.893	4822
3509.598	4907
3511.304	4866
3513.009	4783
3514.713	4738
3516.417	4879
3518.12	4727
3519.821	4782
3521.525	4838
3523.228	4896
3524.929	4853
3526.631	4688
3528.33	4740
3530.032	4814
3531.733	4686
3533.433	4919
3535.131	4670
3536.83	4787
3538.529	4791
3540.227	4802
3541.925	4810
3543.623	4675
3545.319	4706
3547.016	4706
3548.712	4747
3550.408	4599
3552.103	4716
3553.798	4650
3555.491	4658
3557.188	4633
3558.88	4698
3560.574	4590
3562.266	4683
3563.959	4666
3565.651	4625
3567.343	4676
3569.035	4680
3570.725	4556
3572.415	4643
3574.106	4567
3575.797	4638
3577.485	4626
3579.174	4729
3580.863	4632
3582.551	4615
3584.238	4572
3585.926	4538
3587.613	4609
3589.3	4537
3590.986	4557
3592.671	4445
3594.357	4614
3596.042	4569
3597.726	4505
3599.41	4548
3601.094	4460
3602.778	4528
3604.461	4463
3606.143	4509
3607.825	4569
3609.507	4458
3611.188	4427
3612.87	4458
3614.551	4466
3616.229	4432
3617.909	4482
3619.589	4502
3621.269	4425
3622.948	4331
3624.625	4422
3626.302	4375
3627.98	4324
3629.657	4365
3631.334	4444
3633.01	4498
3634.686	4413
3636.361	4306
3638.036	4358
3639.712	4435
3641.385	4326
3643.06	4363
3644.732	4233
3646.405	4331
3648.08	4271
3649.751	4361
3651.424	4340
3653.094	4203
3654.766	4285
3656.436	4315
3658.106	4357
3659.777	4366
3661.446	4252
3663.115	4287
3664.783	4255
3666.452	4274
3668.121	4388
3669.788	4174
3671.454	4265
3673.121	4308
3674.789	4225
3676.455	4191
3678.12	4243
3679.784	4216
3681.45	4166
3683.114	4164
3684.779	4245
3686.442	4238
3688.105	4160
3689.768	4187
3691.43	4239
3693.093	4179
3694.754	4178
3696.415	4157
3698.076	4224
3699.736	4178
3701.396	4234
3703.057	4201
3704.716	4185
3706.375	4163
3708.034	4163
3709.692	4155
3711.351	4145
3713.008	4213
3714.665	4176
3716.321	4166
3717.977	4180
3719.634	4015
3721.29	4138
3722.945	4236
3724.598	4124
3726.253	4086
3727.907	4108
3729.561	4162
3731.214	4116
3732.867	4232
3734.518	4083
3736.171	4147
3737.824	4051
3739.474	4078
3741.125	4140
3742.775	4145
3744.425	4155
3746.074	4156
3747.725	4009
3749.373	4015
3751.022	4059
3752.669	3944
3754.318	4055
3755.966	3999
3757.612	4122
3759.259	4057
3760.905	4106
3762.55	4077
3764.197	4067
3765.842	4049
3767.486	3960
3769.131	3995
3770.774	4046
3772.417	4090
3774.061	3902
3775.705	3945
3777.347	3981
3778.988	4086
3780.629	4019
3782.271	4018
3783.912	3898
3785.552	3964
3787.192	3967
3788.831	4006
3790.472	3894
3792.112	3994
3793.75	4013
3795.388	3978
3797.024	3985
3798.661	4011
3800.3	3989
3801.936	3961
3803.572	3937
3805.208	3907
3806.844	3872
3808.48	3944
3810.115	3938
3811.748	3933
3813.382	3939
3815.016	3899
3816.649	3926
3818.283	3948
3819.914	3912
3821.547	3868
3823.178	3902
3824.809	3865
3826.441	3846
3828.072	3836
3829.701	3950
3831.331	3844
3832.96	3868
3834.591	3857
3836.219	3860
3837.847	3832
3839.475	3685
3841.102	3839
3842.729	3902
3844.357	3863
3845.984	3785
3847.609	3906
3849.234	3828
3850.86	3882
3852.485	3809
3854.11	3891
3855.734	3721
3857.357	3768
3858.981	3829
3860.603	3803
3862.227	3813
3863.848	3738
3865.471	3791
3867.092	3742
3868.713	3822
3870.334	3799
3871.954	3858
3873.575	3780
3875.194	3760
3876.813	3698
3878.433	3743
3880.051	3780
3881.669	3774
3883.286	3764
3884.904	3766
3886.52	3674
3888.138	3750
3889.754	3775
3891.37	3703
3892.985	3676
3894.6	3713
3896.216	3711
3897.831	3690
3899.444	3748
3901.058	3759
3902.67	3743
3904.283	3702
3905.897	3768
3907.509	3761
3909.121	3734
3910.731	3666
3912.342	3720
3913.954	3727
3915.563	3737
3917.174	3630
3918.783	3646
3920.391	3690
3922.002	3677
3923.611	3695
3925.218	3716
3926.826	3752
3928.432	3670
3930.039	3672
3931.647	3707
3933.253	3692
3934.859	3703
3936.464	3695
3938.068	3636
3939.675	3651
3941.278	3592
3942.883	3612
3944.486	3671
3946.089	3657
3947.692	3600
3949.295	3715
3950.898	3629
3952.499	3582
3954.1	3592
3955.7	3630
3957.303	3588
3958.903	3561
3960.502	3628
3962.101	3550
3963.7	3679
3965.301	3590
3966.899	3633
3968.497	3509
3970.094	3542
3971.691	3606
3973.288	3562
3974.885	3584
3976.481	3591
3978.077	3569
3979.672	3522
3981.267	3543
3982.863	3623
3984.457	3524
3986.051	3458
3987.645	3501
3989.238	3626
3990.831	3492
3992.425	3561
3994.017	3531
3995.607	3449
3997.199	3492
3998.79	3515
4000.382	3463
4001.973	3491
4003.561	3558
4005.151	3417
4006.741	3448
4008.331	3483
4009.918	3490
4011.507	3478
4013.095	3486
4014.681	3473
4016.269	3429
4017.856	3355
4019.443	3399
4021.028	3481
4022.614	3413
4024.199	3468
4025.785	3434
4027.37	3440
4028.953	3432
4030.536	3403
4032.12	3348
4033.704	3390
4035.287	3387
4036.869	3379
4038.45	3417
4040.032	3352
4041.613	3352
4043.195	3434
4044.776	3304
4046.356	3324
4047.935	3390
4049.515	3378
4051.095	3287
4052.674	3325
4054.251	3357
4055.829	3416
4057.406	3314
4058.985	3340
4060.562	3326
4062.139	3305
4063.715	3354
4065.29	3300
4066.865	3319
4068.442	3271
4070.016	3302
4071.59	3282
4073.164	3273
4074.738	3300
4076.312	3230
4077.885	3238
4079.458	3244
4081.03	3298
4082.602	3303
4084.173	3338
4085.745	3257
4087.315	3267
4088.886	3313
4090.456	3317
4092.026	3284
4093.596	3267
4095.165	3270
4096.734	3257
4098.301	3243
4099.869	3278
4101.437	3334
4103.006	3274
4104.572	3255
4106.139	3234
4107.704	3259
4109.27	3275
4110.837	3214
4112.401	3207
4113.966	3244
4115.53	3215
4117.094	3137
4118.659	3231
4120.223	3214
4121.785	3241
4123.347	3118
4124.909	3175
4126.471	3175
4128.034	3213
4129.595	3157
4131.155	3184
4132.716	3160
4134.275	3176
4135.836	3235
4137.395	3200
4138.955	3127
4140.513	3152
4142.071	3138
4143.628	3134
4145.188	3100
4146.745	3125
4148.302	3161
4149.858	3071
4151.414	3174
4152.971	3159
4154.526	3108
4156.081	3147
4157.635	3119
4159.189	3041
4160.745	3188
4162.298	3070
4163.852	3036
4165.405	3110
4166.957	3126
4168.51	3066
4170.063	3113
4171.614	3123
4173.166	3059
4174.717	3036
4176.267	3115
4177.817	3122
4179.368	3097
4180.917	3034
4182.466	3066
4184.016	3066
4185.564	3019
4187.112	2989
4188.66	3030
4190.207	3045
4191.754	2955
4193.301	3039
4194.848	3019
4196.394	3002
4197.94	3113
4199.484	3003
4201.03	2976
4202.575	2998
4204.12	2998
4205.663	2974
4207.207	3046
4208.75	3092
4210.292	2954
4211.836	3048
4213.378	2996
4214.92	2948
4216.46	2968
4218.002	3001
4219.544	2986
4221.083	2965
4222.625	2972
4224.164	2965
4225.703	2964
4227.244	2922
4228.782	2862
4230.32	2909
4231.857	2988
4233.395	2930
4234.933	2904
4236.471	2962
4238.007	2902
4239.542	2987
4241.078	2941
4242.614	2900
4244.15	2901
4245.685	2910
4247.219	2930
4248.753	2984
4250.287	2862
4251.82	2937
4253.354	2936
4254.887	2936
4256.419	2897
4257.951	2933
4259.483	2927
4261.016	2923
4262.547	2891
4264.078	2941
4265.608	2929
4267.137	2942
4268.668	2943
4270.197	2927
4271.727	2966
4273.254	2891
4274.783	2885
4276.311	2907
4277.84	2924
4279.366	2875
4280.894	2872
4282.42	2886
4283.946	2813
4285.473	2871
4286.998	2865
4288.523	2862
4290.047	2866
4291.572	2827
4293.096	2923
4294.622	2815
4296.144	2854
4297.668	2793
4299.19	2813
4300.713	2889
4302.236	2847
4303.758	2784
4305.279	2836
4306.799	2796
4308.321	2836
4309.842	2760
4311.361	2789
4312.882	2751
4314.401	2763
