400.0961	3941
402.6185	4018
405.1424	3926
407.6635	3907
410.1838	3959
412.7035	4064
415.2225	4042
417.7388	4022
420.2585	4117
422.7754	4182
425.2917	4239
427.8072	4245
430.3221	4288
432.8363	4288
435.3498	4256
437.8626	4223
440.3727	4261
442.8841	4202
445.3969	4335
447.907	4249
450.4142	4290
452.9229	4240
455.4289	4178
457.9362	4270
460.4449	4208
462.9488	4265
465.454	4344
467.9566	4190
470.4604	4168
472.9637	4245
475.4662	4215
477.966	4183
480.4671	4273
482.9656	4193
485.4633	4160
487.9645	4261
490.4608	4216
492.9566	4268
495.4536	4245
497.948	4225
500.4437	4279
502.9387	4300
505.431	4361
507.9226	4368
510.4136	4267
512.9079	4305
515.3975	4383
517.8864	4347
520.3746	4262
522.8622	4324
525.3491	4244
527.8394	4356
530.3249	4314
532.8098	4313
535.2939	4311
537.7774	4399
540.2623	4336
542.7444	4397
545.2259	4345
547.7067	4397
550.1868	4395
552.6683	4495
555.147	4233
557.6231	4409
560.1005	4505
562.5773	4411
565.0534	4444
567.5308	4536
570.0056	4555
572.4776	4526
574.951	4507
577.4237	4591
579.8978	4560
582.3671	4596
584.8378	4543
587.3079	4560
589.7773	4540
592.244	4613
594.714	4600
597.1793	4570
599.6461	4526
602.1121	4629
604.5754	4511
607.0421	4576
609.5042	4554
611.9675	4520
614.4282	4536
616.8902	4650
619.3515	4474
621.8122	4506
624.2702	4478
626.7296	4512
629.1863	4498
631.6423	4444
634.1017	4481
636.5563	4399
639.0104	4403
641.4658	4522
643.9185	4403
646.3725	4516
648.8239	4531
651.2766	4518
653.7266	4561
656.176	4592
658.6247	4478
661.0748	4640
663.5242	4607
665.9709	4543
668.417	4522
670.8624	4578
673.3092	4720
675.7533	4622
678.1968	4659
680.6395	4596
683.0817	4602
685.5251	4613
687.9659	4628
690.4061	4670
692.8456	4529
695.2844	4664
697.7226	4690
700.1621	4764
702.599	4694
705.0332	4657
707.4688	4709
709.9036	4703
712.3399	4768
714.7735	4734
717.2044	4768
719.6367	4663
722.0683	4786
724.4993	4756
726.9296	4787
729.3593	4806
731.7883	4859
734.2147	4821
736.6423	4854
739.0714	4840
741.4958	4818
743.9216	4895
746.3447	4843
748.7691	4817
751.1929	4919
753.616	4943
756.0366	4935
758.4584	4980
760.8776	5012
763.2982	4890
765.718	4911
768.1373	4950
770.5539	4885
772.9698	5018
775.3871	4936
777.8038	5001
780.2178	4949
782.6332	4986
785.0459	4938
787.458	4984
789.8714	4966
792.2842	5059
794.6943	4949
797.1038	4967
799.5127	4961
801.9209	4982
804.3324	4980
806.7393	5016
809.1456	5046
811.5513	5071
813.9562	5051
816.3625	5019
818.7663	5016
821.1693	5040
823.5718	5126
825.9735	5051
828.3746	5050
830.7771	5036
833.177	5086
835.5762	4989
837.9747	5026
840.3727	5065
842.772	5200
845.1666	5092
847.5626	5081
849.958	5303
852.3527	5228
854.7488	5326
857.1403	5300
859.5331	5184
861.9253	5159
864.3168	5138
866.7057	5151
869.098	5181
871.4876	5266
873.8746	5231
876.263	5156
878.6487	5104
881.0378	5170
883.4243	5190
885.8081	5209
888.1933	5173
890.5759	5278
892.9598	5211
895.343	5191
897.7256	5112
900.1057	5122
902.4871	5251
904.8659	5258
907.246	5204
909.6254	5249
912.0023	5257
914.3786	5400
916.7562	5384
919.1331	5540
921.5074	5610
923.8831	5519
926.2562	5532
928.6287	5663
931.0005	5494
933.3757	5431
935.7462	5583
938.1162	5552
940.4855	5595
942.8542	5850
945.2242	5742
947.5916	5900
949.9584	6026
952.3266	6247
954.6921	6566
957.0571	6751
959.4233	7074
961.787	7203
964.15	7194
966.5125	6899
968.8742	6513
971.2354	6220
973.5959	5906
975.9559	5837
978.3151	5607
980.6738	5574
983.0338	5509
985.3912	5546
987.7461	5502
990.1022	5429
992.4578	5452
994.8127	5378
997.1689	5485
999.5207	5467
1001.874	5516
1004.226	5558
1006.576	5483
1008.929	5524
1011.28	5428
1013.628	5419
1015.977	5371
1018.324	5421
1020.674	5539
1023.019	5487
1025.366	5464
1027.713	5543
1030.056	5425
1032.399	5457
1034.746	5648
1037.087	5514
1039.431	5470
1041.771	5543
1044.113	5489
1046.454	5567
1048.793	5685
1051.133	5470
1053.471	5603
1055.807	5574
1058.146	5541
1060.483	5697
1062.818	5714
1065.153	5643
1067.489	5550
1069.822	5615
1072.156	5728
1074.488	5754
1076.82	5581
1079.15	5631
1081.48	5617
1083.814	5572
1086.143	5560
1088.471	5627
1090.799	5580
1093.126	5553
1095.452	5567
1097.78	5559
1100.105	5524
1102.43	5504
1104.754	5468
1107.077	5557
1109.4	5601
1111.722	5489
1114.044	5491
1116.365	5549
1118.685	5452
1121.005	5555
1123.324	5547
1125.643	5580
1127.961	5604
1130.278	5478
1132.595	5549
1134.911	5514
1137.226	5445
1139.541	5494
1141.854	5513
1144.167	5447
1146.482	5592
1148.793	5560
1151.105	5504
1153.414	5638
1155.725	5493
1158.033	5436
1160.344	5571
1162.651	5534
1164.959	5604
1167.265	5575
1169.572	5568
1171.878	5575
1174.184	5536
1176.488	5526
1178.79	5596
1181.094	5608
1183.396	5529
1185.699	5655
1188.001	5573
1190.301	5388
1192.6	5481
1194.9	5443
1197.2	5623
1199.497	5548
1201.794	5462
1204.09	5542
1206.387	5587
1208.684	5453
1210.978	5600
1213.272	5547
1215.565	5621
1217.858	5595
1220.15	5554
1222.443	5633
1224.734	5562
1227.024	5630
1229.313	5535
1231.602	5688
1233.892	5641
1236.18	5779
1238.467	5761
1240.754	5755
1243.04	5770
1245.325	5888
1247.612	5827
1249.896	5789
1252.178	5737
1254.461	5900
1256.743	5839
1259.027	5842
1261.308	5775
1263.587	5868
1265.867	5759
1268.146	5855
1270.425	5907
1272.703	5861
1274.981	5895
1277.256	5907
1279.532	5773
1281.808	5798
1284.083	5736
1286.358	5686
1288.63	5706
1290.904	5832
1293.175	5812
1295.449	5839
1297.719	5598
1299.99	5800
1302.259	5795
1304.529	5681
1306.798	5747
1309.065	5670
1311.333	5773
1313.599	5747
1315.866	5756
1318.131	5743
1320.396	5782
1322.66	5752
1324.925	5791
1327.187	5676
1329.448	5740
1331.711	5771
1333.974	5856
1336.234	5691
1338.493	5726
1340.752	5699
1343.01	5732
1345.269	5702
1347.526	5726
1349.784	5817
1352.04	5764
1354.295	5713
1356.552	5761
1358.806	5569
1361.059	5675
1363.312	5656
1365.564	5682
1367.818	5701
1370.069	5743
1372.318	5866
1374.568	5695
1376.817	5791
1379.066	5762
1381.316	5794
1383.564	5813
1385.809	5782
1388.056	5734
1390.301	5823
1392.549	5847
1394.793	5887
1397.036	6009
1399.279	5932
1401.522	6008
1403.763	6036
1406.007	6016
1408.248	5976
1410.487	5997
1412.727	6099
1414.965	5891
1417.205	5966
1419.442	5939
1421.68	5932
1423.915	5912
1426.152	5935
1428.388	5994
1430.623	5920
1432.857	6040
1435.091	5949
1437.323	5973
1439.556	6043
1441.789	6046
1444.019	6022
1446.25	6111
1448.48	6058
1450.708	6168
1452.938	6205
1455.167	6163
1457.394	6209
1459.62	6194
1461.846	6177
1464.073	6109
1466.299	6040
1468.523	6044
1470.746	6063
1472.969	5830
1475.191	5907
1477.415	5873
1479.636	5830
1481.858	5804
1484.078	5735
1486.298	5739
1488.518	5784
1490.736	5752
1492.954	5643
1495.169	5629
1497.386	5754
1499.602	5766
1501.819	5684
1504.034	5647
1506.248	5811
1508.462	5632
1510.675	5687
1512.888	5595
1515.1	5708
1517.311	5731
1519.522	5601
1521.732	5734
1523.942	5709
1526.151	5682
1528.36	5624
1530.566	5641
1532.773	5747
1534.98	5731
1537.187	5649
1539.392	5774
1541.596	5788
1543.801	5747
1546.005	5703
1548.208	5641
1550.411	5823
1552.612	5792
1554.814	5764
1557.013	5756
1559.212	5932
1561.414	5771
1563.612	5813
1565.811	5828
1568.007	5823
1570.203	5793
1572.403	5906
1574.598	5829
1576.792	5881
1578.988	5906
1581.181	5930
1583.376	5914
1585.568	5907
1587.761	5809
1589.952	5928
1592.143	5859
1594.333	5776
1596.524	5872
1598.715	5937
1600.903	5805
1603.091	5839
1605.278	5949
1607.466	5903
1609.652	5964
1611.838	5961
1614.023	5855
1616.207	6022
1618.391	6000
1620.576	5999
1622.759	5852
1624.941	5932
1627.123	5881
1629.304	5963
1631.484	6028
1633.664	5973
1635.844	6001
1638.022	6042
1640.201	6040
1642.38	6038
1644.556	6092
1646.732	6133
1648.908	5988
1651.084	6115
1653.257	6009
1655.433	6074
1657.607	6189
1659.779	6043
1661.951	6052
1664.122	6112
1666.295	6023
1668.467	6191
1670.635	6177
1672.805	6088
1674.973	6126
1677.142	6112
1679.31	6046
1681.478	6039
1683.644	6033
1685.81	6111
1687.975	6035
1690.142	6087
1692.305	6067
1694.468	5940
1696.632	5952
1698.794	5923
1700.957	5949
1703.119	5901
1705.279	5853
1707.439	5928
1709.598	6035
1711.758	5843
1713.917	5890
1716.075	5951
1718.231	5908
1720.388	5910
1722.543	5826
1724.702	5857
1726.856	5939
1729.01	5754
1731.164	5837
1733.317	5834
1735.471	5763
1737.623	5855
1739.774	5811
1741.925	5864
1744.075	5936
1746.225	5951
1748.376	5905
1750.524	5967
1752.672	5898
1754.82	5765
1756.965	5938
1759.113	5804
1761.259	5896
1763.405	5936
1765.549	5850
1767.694	5847
1769.836	5972
1771.981	5883
1774.123	5832
1776.264	5898
1778.405	5908
1780.546	5904
1782.687	5824
1784.827	5950
1786.966	5935
1789.103	5902
1791.242	5956
1793.381	5864
1795.517	6016
1797.653	6003
1799.788	5968
1801.923	5977
1804.057	5922
1806.193	5916
1808.326	5943
1810.457	5884
1812.59	5969
1814.721	5932
1816.855	5853
1818.984	5841
1821.113	5888
1823.244	5884
1825.372	5934
1827.499	5943
1829.63	5878
1831.756	5947
1833.882	5914
1836.007	5938
1838.132	5838
1840.26	5830
1842.384	5780
1844.507	5759
1846.63	5864
1848.752	5861
1850.875	6021
1852.996	5940
1855.118	5847
1857.238	5922
1859.358	5853
1861.477	5789
1863.597	5902
1865.715	5804
1867.832	5853
1869.948	5923
1872.064	5871
1874.181	5807
1876.297	5767
1878.411	5829
1880.526	5868
1882.639	5983
1884.752	5930
1886.865	5955
1888.977	5915
1891.089	5837
1893.2	5887
1895.308	5839
1897.42	5940
1899.53	5887
1901.639	5888
1903.745	5967
1905.853	6008
1907.962	5889
1910.067	5876
1912.174	6004
1914.278	5908
1916.383	5974
1918.486	5928
1920.592	5928
1922.694	5927
1924.797	6021
1926.898	5914
1929	5982
1931.102	6041
1933.203	5985
1935.301	6060
1937.401	5954
1939.499	5903
1941.598	5992
1943.697	5950
1945.793	6030
1947.888	5980
1949.985	5980
1952.08	6003
1954.176	5868
1956.269	5995
1958.364	5890
1960.457	5979
1962.549	5953
1964.642	5898
1966.733	5889
1968.823	5918
1970.913	5904
1973.005	6041
1975.093	6011
1977.184	5902
1979.271	5916
1981.359	5924
1983.446	5833
1985.532	5892
1987.619	5958
1989.705	5868
1991.789	5907
1993.874	5894
1995.956	5902
1998.041	5850
2000.123	5881
2002.206	5946
2004.287	5877
2006.368	5930
2008.449	5893
2010.529	5835
2012.609	5911
2014.688	5903
2016.766	5880
2018.843	5927
2020.922	5832
2022.999	5942
2025.074	5882
2027.15	5805
2029.225	5928
2031.299	5854
2033.375	5884
2035.447	5838
2037.52	5903
2039.592	5845
2041.664	5870
2043.736	5908
2045.807	5841
2047.876	5937
2049.947	5797
2052.015	5909
2054.086	5922
2056.153	5867
2058.221	5942
2060.288	5796
2062.353	5866
2064.42	5921
2066.486	5951
2068.55	6010
2070.614	5876
2072.678	5923
2074.741	6027
2076.805	5839
2078.866	5959
2080.929	5860
2082.99	5968
2085.049	5923
2087.109	6020
2089.17	5906
2091.228	5840
2093.286	5910
2095.344	5876
2097.4	5950
2099.46	5925
2101.516	5875
2103.572	5831
2105.626	6026
2107.679	5831
2109.735	5802
2111.788	5898
2113.841	5803
2115.894	6005
2117.945	5933
2119.997	5875
2122.049	5866
2124.1	5916
2126.148	5919
2128.197	5908
2130.246	5849
2132.296	5813
2134.342	5889
2136.39	5806
2138.437	5881
2140.483	5917
2142.527	5929
2144.574	5908
2146.619	5948
2148.661	5937
2150.705	5722
2152.747	5833
2154.792	5870
2156.832	5818
2158.874	5909
2160.915	5876
2162.954	5892
2164.995	5892
2167.034	5821
2169.072	5928
2171.111	5788
2173.148	5936
2175.186	5918
2177.223	5838
2179.258	5801
2181.294	5861
2183.328	5842
2185.362	5764
2187.398	5724
2189.431	5809
2191.463	5742
2193.495	5767
2195.528	5802
2197.56	5865
2199.59	5835
2201.62	5897
2203.649	5830
2205.678	5758
2207.708	5771
2209.737	5710
2211.764	5703
2213.791	5717
2215.817	5739
2217.843	5735
2219.87	5851
2221.895	5745
2223.919	5748
2225.942	5710
2227.966	5703
2229.988	5843
2232.012	5787
2234.032	5757
2236.054	5818
2238.074	5690
2240.095	5696
2242.116	5702
2244.135	5790
2246.153	5757
2248.171	5797
2250.188	5821
2252.208	5730
2254.223	5729
2256.239	5791
2258.255	5698
2260.269	5776
2262.283	5677
2264.3	5784
2266.312	5642
2268.325	5800
2270.336	5656
2272.349	5728
2274.362	5746
2276.372	5749
2278.383	5748
2280.392	5726
2282.402	5799
2284.409	5718
2286.418	5755
2288.427	5757
2290.433	5815
2292.441	5742
2294.446	5764
2296.453	5686
2298.459	5649
2300.463	5788
2302.466	5714
2304.471	5671
2306.475	5785
2308.477	5746
2310.478	5621
2312.481	5689
2314.481	5633
2316.481	5695
2318.482	5687
2320.482	5638
2322.48	5698
2324.48	5636
2326.478	5778
2328.476	5710
2330.473	5673
2332.469	5759
2334.465	5617
2336.46	5748
2338.454	5682
2340.45	5595
2342.444	5662
2344.437	5623
2346.43	5741
2348.421	5578
2350.414	5549
2352.405	5593
2354.396	5697
2356.386	5683
2358.376	5533
2360.366	5686
2362.355	5613
2364.343	5637
2366.331	5546
2368.317	5572
2370.304	5607
2372.292	5495
2374.278	5504
2376.262	5654
2378.247	5596
2380.23	5523
2382.216	5619
2384.199	5535
2386.181	5515
2388.163	5529
2390.144	5605
2392.127	5572
2394.107	5517
2396.087	5501
2398.066	5500
2400.046	5570
2402.023	5569
2404.004	5603
2405.981	5511
2407.957	5564
2409.934	5436
2411.91	5528
2413.886	5494
2415.862	5529
2417.836	5453
2419.809	5496
2421.784	5493
2423.756	5483
2425.73	5502
2427.701	5501
2429.672	5508
2431.644	5617
2433.615	5546
2435.586	5583
2437.555	5509
2439.523	5539
2441.491	5415
2443.459	5555
2445.428	5457
2447.395	5420
2449.361	5549
2451.327	5465
2453.292	5492
2455.257	5448
2457.223	5483
2459.187	5454
2461.15	5502
2463.113	5447
2465.076	5462
2467.039	5579
2468.999	5498
2470.96	5419
2472.921	5469
2474.881	5529
2476.841	5506
2478.8	5484
2480.759	5428
2482.717	5439
2484.675	5497
2486.63	5403
2488.589	5502
2490.545	5406
2492.5	5337
2494.455	5429
2496.408	5422
2498.364	5521
2500.318	5356
2502.27	5325
2504.223	5453
2506.174	5466
2508.126	5375
2510.078	5346
2512.03	5359
2513.979	5420
2515.927	5353
2517.877	5444
2519.826	5434
2521.775	5353
2523.722	5375
2525.668	5410
2527.616	5342
2529.561	5435
2531.508	5465
2533.452	5434
2535.398	5442
2537.342	5365
2539.284	5427
2541.229	5410
2543.173	5485
2545.114	5395
2547.055	5397
2548.996	5372
2550.938	5532
2552.878	5369
2554.817	5407
2556.756	5296
2558.695	5411
2560.633	5478
2562.572	5331
2564.509	5361
2566.445	5449
2568.382	5395
2570.317	5376
2572.254	5426
2574.189	5444
2576.123	5398
2578.057	5389
2579.99	5399
2581.923	5415
2583.855	5471
2585.788	5346
2587.719	5365
2589.65	5454
2591.579	5417
2593.511	5429
2595.44	5466
2597.37	5447
2599.297	5458
2601.225	5355
2603.153	5348
2605.08	5282
2607.007	5415
2608.932	5417
2610.858	5335
2612.782	5308
2614.709	5488
2616.632	5415
2618.556	5265
2620.478	5448
2622.401	5436
2624.324	5482
2626.247	5296
2628.167	5349
2630.088	5352
2632.008	5285
2633.928	5415
2635.848	5371
2637.766	5359
2639.684	5387
2641.603	5392
2643.519	5400
2645.437	5423
2647.353	5415
2649.27	5337
2651.184	5453
2653.099	5351
2655.014	5395
2656.928	5355
2658.842	5338
2660.755	5402
2662.667	5443
2664.579	5434
2666.491	5455
2668.402	5396
2670.312	5385
2672.222	5324
2674.132	5367
2676.042	5310
2677.951	5337
2679.859	5354
2681.766	5206
2683.674	5341
2685.582	5452
2687.488	5269
2689.392	5228
2691.298	5378
2693.202	5243
2695.107	5388
2697.012	5305
2698.914	5373
2700.817	5280
2702.72	5380
2704.622	5303
2706.524	5324
2708.425	5209
2710.326	5322
2712.225	5304
2714.125	5316
2716.024	5398
2717.923	5225
2719.822	5278
2721.719	5348
2723.616	5320
2725.512	5242
2727.41	5278
2729.305	5202
2731.201	5230
2733.095	5287
2734.99	5438
2736.884	5202
2738.778	5372
2740.67	5403
2742.562	5278
2744.455	5343
2746.346	5266
2748.238	5282
2750.129	5255
2752.018	5217
2753.907	5216
2755.797	5225
2757.687	5274
2759.575	5180
2761.462	5261
2763.349	5233
2765.237	5238
2767.124	5127
2769.009	5153
2770.894	5234
2772.779	5162
2774.663	5212
2776.547	5185
2778.431	5151
2780.314	5285
2782.197	5243
2784.078	5168
2785.96	5229
2787.842	5136
2789.723	5233
2791.603	5216
2793.483	5232
2795.362	5250
2797.241	5249
2799.121	5135
2800.997	5150
2802.874	5158
2804.751	5148
2806.628	5155
2808.506	5083
2810.38	5176
2812.255	5224
2814.13	5238
2816.003	5209
2817.878	5280
2819.752	5202
2821.623	5243
2823.496	5165
2825.368	5299
2827.238	5203
2829.111	5302
2830.98	5116
2832.851	5191
2834.719	5227
2836.589	5306
2838.458	5260
2840.327	5232
2842.193	5351
2844.061	5168
2845.927	5240
2847.794	5307
2849.66	5239
2851.525	5225
2853.39	5343
2855.254	5291
2857.117	5405
2858.983	5446
2860.845	5346
2862.707	5378
2864.569	5519
2866.431	5387
2868.293	5457
2870.154	5522
2872.013	5565
2873.873	5598
2875.733	5713
2877.592	5668
2879.451	5720
2881.309	5777
2883.166	5890
2885.022	5896
2886.879	5886
2888.736	5881
2890.591	5950
2892.446	5939
2894.301	5935
2896.155	5975
2898.009	5888
2899.863	5896
2901.716	5850
2903.568	5971
2905.419	5949
2907.27	5939
2909.123	5976
2910.973	5933
2912.824	5982
2914.673	6143
2916.521	6114
2918.372	6102
2920.22	6250
2922.067	6318
2923.914	6352
2925.761	6332
2927.607	6385
2929.455	6482
2931.301	6574
2933.144	6586
2934.99	6662
2936.833	6645
2938.678	6640
2940.522	6826
2942.364	6953
2944.207	6879
2946.048	6991
2947.891	7031
2949.731	7043
2951.571	7089
2953.412	6995
2955.25	6978
2957.09	6891
2958.93	6757
2960.767	6807
2962.606	6726
2964.443	6637
2966.279	6598
2968.116	6499
2969.953	6330
2971.788	6327
2973.623	6317
2975.457	6176
2977.292	6266
2979.127	6068
2980.959	6084
2982.792	6002
2984.624	5936
2986.455	5983
2988.288	5963
2990.119	5897
2991.949	5823
2993.779	5814
2995.608	5795
2997.439	5686
2999.268	5707
3001.096	5585
3002.923	5551
3004.751	5586
3006.578	5497
3008.406	5531
3010.232	5351
3012.057	5293
3013.883	5247
3015.706	5271
3017.532	5229
3019.356	5186
3021.179	5184
3023.002	5134
3024.823	5027
3026.646	5117
3028.469	5010
3030.289	5074
3032.11	5076
3033.93	5052
3035.749	5050
3037.57	5047
3039.39	5034
3041.207	5018
3043.026	5042
3044.842	5039
3046.661	5009
3048.477	5052
3050.294	5000
3052.109	4944
3053.925	5026
3055.739	4911
3057.555	5045
3059.368	5038
3061.181	5026
3062.995	4827
3064.807	4982
3066.62	4991
3068.433	4940
3070.243	4932
3072.054	5015
3073.865	4954
3075.675	4914
3077.485	4923
3079.293	4975
3081.102	4921
3082.911	4796
3084.719	4774
3086.527	4876
3088.333	4862
3090.139	4897
3091.945	4902
3093.75	4899
3095.557	4834
3097.361	4698
3099.165	4907
3100.969	4814
3102.772	4792
3104.575	4835
3106.379	4727
3108.181	4767
3109.982	4844
3111.783	4825
3113.584	4788
3115.386	4744
3117.186	4784
3118.985	4707
3120.783	4734
3122.582	4737
3124.381	4814
3126.179	4739
3127.975	4831
3129.772	4747
3131.569	4826
3133.365	4594
3135.161	4607
3136.956	4798
3138.751	4724
3140.544	4672
3142.338	4738
3144.132	4788
3145.925	4796
3147.717	4663
3149.509	4677
3151.301	4720
3153.091	4655
3154.884	4701
3156.673	4633
3158.462	4717
3160.252	4721
3162.041	4647
3163.831	4744
3165.618	4720
3167.405	4643
3169.193	4605
3170.979	4721
3172.767	4624
3174.553	4587
3176.338	4623
3178.123	4756
3179.907	4618
3181.692	4595
3183.477	4612
3185.259	4648
3187.042	4623
3188.824	4628
3190.607	4649
3192.389	4653
3194.17	4704
3195.951	4615
3197.73	4701
3199.51	4606
3201.289	4647
3203.07	4625
3204.848	4640
3206.626	4684
3208.403	4613
3210.18	4551
3211.959	4694
3213.735	4597
3215.511	4603
3217.285	4613
3219.06	4597
3220.836	4552
3222.611	4656
3224.384	4585
3226.158	4661
3227.929	4614
3229.702	4612
3231.476	4637
3233.248	4716
3235.018	4638
3236.789	4685
3238.56	4558
3240.33	4658
3242.1	4578
3243.869	4667
3245.637	4648
3247.405	4559
3249.172	4702
3250.941	4688
3252.707	4595
3254.474	4605
3256.24	4657
3258.006	4601
3259.772	4725
3261.537	4683
3263.301	4643
3265.065	4688
3266.828	4682
3268.592	4696
3270.355	4596
3272.117	4684
3273.878	4635
3275.64	4606
3277.401	4610
3279.162	4639
3280.922	4689
3282.682	4626
3284.441	4604
3286.199	4573
3287.959	4629
3289.716	4614
3291.475	4625
3293.232	4743
3294.988	4610
3296.744	4591
3298.501	4654
3300.256	4604
3302.011	4651
3303.766	4648
3305.52	4601
3307.275	4805
3309.028	4690
3310.781	4681
3312.533	4661
3314.285	4575
3316.038	4629
3317.789	4586
3319.54	4572
3321.289	4642
3323.039	4733
3324.789	4562
3326.539	4664
3328.288	4609
3330.035	4596
3331.783	4550
3333.531	4683
3335.28	4550
3337.025	4420
3338.771	4575
3340.518	4608
3342.262	4553
3344.009	4639
3345.753	4579
3347.497	4572
3349.24	4563
3350.983	4660
3352.726	4537
3354.469	4653
3356.212	4479
3357.952	4574
3359.694	4507
3361.434	4524
3363.176	4647
3364.916	4617
3366.654	4496
3368.394	4451
3370.132	4533
3371.871	4475
3373.61	4408
3375.346	4502
3377.083	4572
3378.82	4436
3380.556	4516
3382.292	4428
3384.027	4435
3385.763	4496
3387.497	4419
3389.231	4461
3390.965	4482
3392.698	4488
3394.431	4407
3396.164	4429
3397.896	4416
3399.627	4397
3401.36	4467
3403.09	4442
3404.82	4481
3406.55	4346
3408.279	4382
3410.01	4458
3411.738	4419
3413.467	4400
3415.194	4335
3416.92	4345
3418.647	4373
3420.375	4324
3422.102	4373
3423.827	4380
3425.553	4402
3427.277	4390
3429.003	4387
3430.727	4373
3432.451	4310
3434.173	4415
3435.896	4371
3437.62	4356
3439.343	4372
3441.063	4285
3442.785	4283
3444.505	4167
3446.226	4246
3447.948	4272
3449.666	4284
3451.386	4289
3453.104	4218
3454.823	4259
3456.541	4205
3458.259	4235
3459.976	4205
3461.693	4168
3463.408	4245
3465.125	4223
3466.841	4221
3468.556	4193
3470.271	4285
3471.985	4237
3473.698	4153
3475.414	4154
3477.126	4167
3478.838	4140
3480.55	4204
3482.263	4177
3483.975	4085
3485.686	4168
3487.396	4144
3489.106	4166
3490.817	4154
3492.526	4187
3494.236	4114
3495.944	4028
3497.652	4036
3499.359	4119
3501.066	4140
3502.775	4069
3504.481	4157
3506.187	4118
3507.893	4153
3509.598	4038
3511.304	4109
3513.009	4083
3514.713	4057
3516.417	3940
3518.12	3983
3519.821	3988
3521.525	4027
3523.228	4110
3524.929	4082
3526.631	3984
3528.33	3988
3530.032	4065
3531.733	3936
3533.433	3987
3535.131	3978
3536.83	3989
3538.529	3961
3540.227	3993
3541.925	3967
3543.623	4032
3545.319	3917
3547.016	3900
3548.712	3848
3550.408	3972
3552.103	3985
3553.798	3972
3555.491	3845
3557.188	3817
3558.88	3931
3560.574	3909
3562.266	4031
3563.959	3822
3565.651	3881
3567.343	3922
3569.035	3851
3570.725	3830
3572.415	3879
3574.106	3890
3575.797	3875
3577.485	3814
3579.174	3850
3580.863	3822
3582.551	3795
3584.238	3735
3585.926	3768
3587.613	3842
3589.3	3774
3590.986	3832
3592.671	3800
3594.357	3890
3596.042	3772
3597.726	3761
3599.41	3737
3601.094	3782
3602.778	3778
3604.461	3717
3606.143	3723
3607.825	3704
3609.507	3817
3611.188	3711
3612.87	3705
3614.551	3677
3616.229	3669
3617.909	3696
3619.589	3720
3621.269	3753
3622.948	3682
3624.625	3695
3626.302	3658
3627.98	3655
3629.657	3679
3631.334	3625
3633.01	3680
3634.686	3565
3636.361	3619
3638.036	3625
3639.712	3514
3641.385	3656
3643.06	3668
3644.732	3634
3646.405	3614
3648.08	3617
3649.751	3676
3651.424	3488
3653.094	3604
3654.766	3534
3656.436	3546
3658.106	3600
3659.777	3545
3661.446	3597
3663.115	3567
3664.783	3531
3666.452	3568
3668.121	3543
3669.788	3432
3671.454	3509
3673.121	3480
3674.789	3524
3676.455	3513
3678.12	3517
3679.784	3491
3681.45	3595
3683.114	3497
3684.779	3503
3686.442	3477
3688.105	3499
3689.768	3463
3691.43	3536
3693.093	3480
3694.754	3471
3696.415	3574
3698.076	3476
3699.736	3476
3701.396	3437
3703.057	3376
3704.716	3445
3706.375	3482
3708.034	3427
3709.692	3415
3711.351	3362
3713.008	3438
3714.665	3437
3716.321	3430
3717.977	3449
3719.634	3446
3721.29	3472
3722.945	3411
3724.598	3441
3726.253	3457
3727.907	3427
3729.561	3397
3731.214	3415
3732.867	3399
3734.518	3385
3736.171	3422
3737.824	3357
3739.474	3412
3741.125	3325
3742.775	3357
3744.425	3412
3746.074	3411
3747.725	3426
3749.373	3367
3751.022	3417
3752.669	3318
3754.318	3418
3755.966	3317
3757.612	3432
3759.259	4037
3760.905	3362
3762.55	3437
3764.197	3363
3765.842	3282
3767.486	3394
3769.131	3303
3770.774	3309
3772.417	3336
3774.061	3401
3775.705	3351
3777.347	3302
3778.988	3359
3780.629	3334
3782.271	3366
3783.912	3280
3785.552	3294
3787.192	3295
3788.831	3264
3790.472	3329
3792.112	3241
3793.75	3273
3795.388	3198
3797.024	3252
3798.661	3260
3800.3	3169
3801.936	3228
3803.572	3199
3805.208	3219
3806.844	3268
3808.48	3266
3810.115	3128
3811.748	3268
3813.382	3177
3815.016	3251
3816.649	3249
3818.283	3176
3819.914	3200
3821.547	3230
3823.178	3196
3824.809	3210
3826.441	3233
3828.072	3259
3829.701	3256
3831.331	3242
3832.96	3250
3834.591	3173
3836.219	3216
3837.847	3172
3839.475	3186
3841.102	3238
3842.729	3189
3844.357	3174
3845.984	3256
3847.609	3154
3849.234	3163
3850.86	3132
3852.485	3152
3854.11	3164
3855.734	3181
3857.357	3203
3858.981	3073
3860.603	3165
3862.227	3171
3863.848	3178
3865.471	3122
3867.092	3104
3868.713	3178
3870.334	3151
3871.954	3157
3873.575	3105
3875.194	3104
3876.813	3102
3878.433	3111
3880.051	3079
3881.669	3137
3883.286	3133
3884.904	3177
3886.52	3088
3888.138	3122
3889.754	3184
3891.37	3028
3892.985	3081
3894.6	3153
3896.216	3124
3897.831	3086
3899.444	3099
3901.058	3074
3902.67	3090
3904.283	3086
3905.897	3099
3907.509	3062
3909.121	3130
3910.731	2998
3912.342	3094
3913.954	3014
3915.563	3131
3917.174	3052
3918.783	3072
3920.391	3063
3922.002	3129
3923.611	3061
3925.218	3019
3926.826	3146
3928.432	3059
3930.039	3082
3931.647	3051
3933.253	3068
3934.859	3023
3936.464	3024
3938.068	3032
3939.675	3070
3941.278	2982
3942.883	3085
3944.486	3064
3946.089	3138
3947.692	3025
3949.295	2977
3950.898	3008
3952.499	2994
3954.1	3032
3955.7	2990
3957.303	2995
3958.903	3034
3960.502	3061
3962.101	2977
3963.7	3054
3965.301	2992
3966.899	3011
3968.497	2989
3970.094	2936
3971.691	3019
3973.288	2995
3974.885	2940
3976.481	2987
3978.077	2988
3979.672	2967
3981.267	2908
3982.863	2938
3984.457	2953
3986.051	2940
3987.645	2900
3989.238	2918
3990.831	2979
3992.425	2892
3994.017	2954
3995.607	2941
3997.199	2868
3998.79	2872
4000.382	2831
4001.973	2842
4003.561	2891
4005.151	2819
4006.741	2915
4008.331	2902
4009.918	2860
4011.507	2911
4013.095	2890
4014.681	2920
4016.269	2848
4017.856	2867
4019.443	2875
4021.028	2868
4022.614	2794
4024.199	2919
4025.785	2887
4027.37	2838
4028.953	2853
4030.536	2885
4032.12	2880
4033.704	2810
4035.287	2836
4036.869	2786
4038.45	2800
4040.032	2785
4041.613	2790
4043.195	2831
4044.776	2869
4046.356	2791
4047.935	2796
4049.515	2776
4051.095	2808
4052.674	2797
4054.251	2863
4055.829	2747
4057.406	2764
4058.985	2805
4060.562	2752
4062.139	2817
4063.715	2738
4065.29	2809
4066.865	2787
4068.442	2803
4070.016	2778
4071.59	2760
4073.164	2765
4074.738	2741
4076.312	2702
4077.885	2761
4079.458	2789
4081.03	2771
4082.602	2795
4084.173	2736
4085.745	2745
4087.315	2719
4088.886	2791
4090.456	2757
4092.026	2707
4093.596	2807
4095.165	2730
4096.734	2690
4098.301	2707
4099.869	2750
4101.437	2740
4103.006	2702
4104.572	2719
4106.139	2771
4107.704	2764
4109.27	2642
4110.837	2667
4112.401	2766
4113.966	2653
4115.53	2679
4117.094	2669
4118.659	2723
4120.223	2705
4121.785	2717
4123.347	2713
4124.909	2608
4126.471	2713
4128.034	2636
4129.595	2643
4131.155	2623
4132.716	2655
4134.275	2731
4135.836	2631
4137.395	2714
4138.955	2636
4140.513	2649
4142.071	2672
4143.628	2555
4145.188	2632
4146.745	2641
4148.302	2641
4149.858	2576
4151.414	2596
4152.971	2634
4154.526	2643
4156.081	2615
4157.635	2642
4159.189	2606
4160.745	2628
4162.298	2593
4163.852	2545
4165.405	2597
4166.957	2607
4168.51	2562
4170.063	2639
4171.614	2565
4173.166	2557
4174.717	2607
4176.267	2603
4177.817	2567
4179.368	2560
4180.917	2636
4182.466	2553
4184.016	2563
4185.564	2564
4187.112	2574
4188.66	2555
4190.207	2637
4191.754	2589
4193.301	2481
4194.848	2576
4196.394	2519
4197.94	2453
4199.484	2533
4201.03	2459
4202.575	2531
4204.12	2483
4205.663	2499
4207.207	2514
4208.75	2490
4210.292	2501
4211.836	2504
4213.378	2538
4214.92	2454
4216.46	2515
4218.002	2504
4219.544	2462
4221.083	2507
4222.625	2567
4224.164	2511
4225.703	2562
4227.244	2500
4228.782	2518
4230.32	2469
4231.857	2466
4233.395	2501
4234.933	2473
4236.471	2483
4238.007	2479
4239.542	2501
4241.078	2514
4242.614	2448
4244.15	2508
4245.685	2486
4247.219	2500
4248.753	2422
4250.287	2447
4251.82	2435
4253.354	2430
4254.887	2474
4256.419	2471
4257.951	2484
4259.483	2478
4261.016	2351
4262.547	2386
4264.078	2410
4265.608	2415
4267.137	2434
4268.668	2462
4270.197	2434
4271.727	2394
4273.254	2444
4274.783	2407
4276.311	2375
4277.84	2397
4279.366	2384
4280.894	2441
4282.42	2433
4283.946	2397
4285.473	2329
4286.998	2483
4288.523	2409
4290.047	2405
4291.572	2339
4293.096	2365
4294.622	2390
4296.144	2378
4297.668	2372
4299.19	2395
4300.713	2396
4302.236	2377
4303.758	2372
4305.279	2306
4306.799	2380
4308.321	2406
4309.842	2376
4311.361	2392
4312.882	2341
4314.401	2428
