400.0961	4328
402.6185	4461
405.1424	4346
407.6635	4491
410.1838	4508
412.7035	4425
415.2225	4487
417.7388	4492
420.2585	4534
422.7754	4666
425.2917	4648
427.8072	4709
430.3221	4686
432.8363	4675
435.3498	4711
437.8626	4741
440.3727	4773
442.8841	4665
445.3969	4732
447.907	4664
450.4142	4707
452.9229	4760
455.4289	4721
457.9362	4797
460.4449	4673
462.9488	4651
465.454	4657
467.9566	4556
470.4604	4666
472.9637	4678
475.4662	4681
477.966	4719
480.4671	4642
482.9656	4699
485.4633	4682
487.9645	4741
490.4608	4733
492.9566	4856
495.4536	4733
497.948	4749
500.4437	4752
502.9387	4794
505.431	4772
507.9226	4810
510.4136	4833
512.9079	4872
515.3975	4869
517.8864	4750
520.3746	4853
522.8622	4825
525.3491	4824
527.8394	4856
530.3249	4836
532.8098	4884
535.2939	4844
537.7774	4868
540.2623	4808
542.7444	4852
545.2259	4799
547.7067	4927
550.1868	4849
552.6683	4862
555.147	4852
557.6231	4858
560.1005	4927
562.5773	4914
565.0534	4971
567.5308	5020
570.0056	5088
572.4776	4952
574.951	5072
577.4237	5101
579.8978	5103
582.3671	5132
584.8378	5212
587.3079	5131
589.7773	5140
592.244	5165
594.714	5184
597.1793	5164
599.6461	5063
602.1121	4985
604.5754	5082
607.0421	5044
609.5042	5062
611.9675	5065
614.4282	5049
616.8902	5039
619.3515	5022
621.8122	5100
624.2702	5061
626.7296	5057
629.1863	4961
631.6423	4965
634.1017	5009
636.5563	4920
639.0104	5008
641.4658	5001
643.9185	5022
646.3725	5054
648.8239	4963
651.2766	4980
653.7266	4948
656.176	5096
658.6247	5113
661.0748	5081
663.5242	5131
665.9709	5099
668.417	5124
670.8624	5099
673.3092	5079
675.7533	5168
678.1968	5160
680.6395	5271
683.0817	5194
685.5251	5223
687.9659	5200
690.4061	5207
692.8456	5083
695.2844	5231
697.7226	5286
700.1621	5152
702.599	5225
705.0332	5160
707.4688	5207
709.9036	5317
712.3399	5205
714.7735	5183
717.2044	5339
719.6367	5257
722.0683	5311
724.4993	5281
726.9296	5333
729.3593	5358
731.7883	5358
734.2147	5340
736.6423	5263
739.0714	5429
741.4958	5493
743.9216	5424
746.3447	5509
748.7691	5487
751.1929	5497
753.616	5590
756.0366	5536
758.4584	5498
760.8776	5555
763.2982	5522
765.718	5545
768.1373	5568
770.5539	5442
772.9698	5615
775.3871	5531
777.8038	5499
780.2178	5569
782.6332	5593
785.0459	5723
787.458	5534
789.8714	5605
792.2842	5615
794.6943	5492
797.1038	5522
799.5127	5568
801.9209	5549
804.3324	5587
806.7393	5590
809.1456	5590
811.5513	5649
813.9562	5793
816.3625	5717
818.7663	5667
821.1693	5695
823.5718	5724
825.9735	5609
828.3746	5627
830.7771	5703
833.177	5726
835.5762	5712
837.9747	5658
840.3727	5681
842.772	5718
845.1666	5701
847.5626	5797
849.958	5791
852.3527	5821
854.7488	5775
857.1403	5839
859.5331	5826
861.9253	5922
864.3168	5780
866.7057	5815
869.098	5822
871.4876	5855
873.8746	5707
876.263	5803
878.6487	5823
881.0378	5773
883.4243	5697
885.8081	5759
888.1933	5745
890.5759	5827
892.9598	5969
895.343	5843
897.7256	5841
900.1057	5771
902.4871	5901
904.8659	5768
907.246	5854
909.6254	5877
912.0023	5932
914.3786	5903
916.7562	6040
919.1331	6036
921.5074	6185
923.8831	6132
926.2562	6221
928.6287	6102
931.0005	6218
933.3757	6177
935.7462	6229
938.1162	6336
940.4855	6393
942.8542	6423
945.2242	6501
947.5916	6617
949.9584	6814
952.3266	7101
954.6921	7413
957.0571	7742
959.4233	8157
961.787	8390
964.15	8317
966.5125	7971
968.8742	7452
971.2354	7167
973.5959	6709
975.9559	6506
978.3151	6281
980.6738	6270
983.0338	6167
985.3912	6140
987.7461	6105
990.1022	6048
992.4578	6005
994.8127	6091
997.1689	6033
999.5207	6053
1001.874	6203
1004.226	6075
1006.576	6020
1008.929	6095
1011.28	6112
1013.628	6139
1015.977	6122
1018.324	6124
1020.674	6180
1023.019	6151
1025.366	6048
1027.713	6181
1030.056	6179
1032.399	6223
1034.746	6291
1037.087	6191
1039.431	6276
1041.771	6242
1044.113	6271
1046.454	6285
1048.793	6241
1051.133	6248
1053.471	6116
1055.807	6307
1058.146	6266
1060.483	6210
1062.818	6239
1065.153	6417
1067.489	6376
1069.822	6404
1072.156	6324
1074.488	6400
1076.82	6553
1079.15	6339
1081.48	6366
1083.814	6325
1086.143	6300
1088.471	6293
1090.799	6240
1093.126	6075
1095.452	6270
1097.78	6148
1100.105	6220
1102.43	6176
1104.754	6194
1107.077	6202
1109.4	6203
1111.722	6110
1114.044	6254
1116.365	6134
1118.685	6244
1121.005	6060
1123.324	6112
1125.643	6167
1127.961	6177
1130.278	6130
1132.595	6156
1134.911	6228
1137.226	6078
1139.541	6070
1141.854	6305
1144.167	6126
1146.482	6158
1148.793	6165
1151.105	6124
1153.414	6162
1155.725	6085
1158.033	6277
1160.344	6185
1162.651	6267
1164.959	6217
1167.265	6275
1169.572	6198
1171.878	6092
1174.184	6251
1176.488	6315
1178.79	6334
1181.094	6163
1183.396	6292
1185.699	6159
1188.001	6240
1190.301	6141
1192.6	6285
1194.9	6176
1197.2	6222
1199.497	6258
1201.794	6200
1204.09	6100
1206.387	6316
1208.684	6219
1210.978	6323
1213.272	6277
1215.565	6184
1217.858	6129
1220.15	6340
1222.443	6210
1224.734	6178
1227.024	6332
1229.313	6376
1231.602	6408
1233.892	6417
1236.18	6367
1238.467	6353
1240.754	6437
1243.04	6571
1245.325	6542
1247.612	6478
1249.896	6538
1252.178	6576
1254.461	6470
1256.743	6413
1259.027	6487
1261.308	6585
1263.587	6424
1265.867	6535
1268.146	6521
1270.425	6490
1272.703	6559
1274.981	6515
1277.256	6467
1279.532	6491
1281.808	6410
1284.083	6569
1286.358	6487
1288.63	6491
1290.904	6374
1293.175	6362
1295.449	6386
1297.719	6482
1299.99	6301
1302.259	6256
1304.529	6342
1306.798	6437
1309.065	6448
1311.333	6362
1313.599	6349
1315.866	6381
1318.131	6344
1320.396	6389
1322.66	6457
1324.925	6493
1327.187	6408
1329.448	6430
1331.711	6430
1333.974	6486
1336.234	6360
1338.493	6476
1340.752	6327
1343.01	6376
1345.269	6387
1347.526	6457
1349.784	6398
1352.04	6415
1354.295	6365
1356.552	6484
1358.806	6380
1361.059	6321
1363.312	6421
1365.564	6379
1367.818	6350
1370.069	6403
1372.318	6449
1374.568	6396
1376.817	6486
1379.066	6450
1381.316	6417
1383.564	6424
1385.809	6456
1388.056	6440
1390.301	6557
1392.549	6546
1394.793	6635
1397.036	6531
1399.279	6583
1401.522	6500
1403.763	6689
1406.007	6519
1408.248	6620
1410.487	6632
1412.727	6625
1414.965	6619
1417.205	6506
1419.442	6652
1421.68	6697
1423.915	6639
1426.152	6638
1428.388	6658
1430.623	6598
1432.857	6636
1435.091	6704
1437.323	6580
1439.556	6638
1441.789	6738
1444.019	6802
1446.25	6743
1448.48	6826
1450.708	6916
1452.938	6712
1455.167	6832
1457.394	6795
1459.62	6767
1461.846	6798
1464.073	6824
1466.299	6662
1468.523	6662
1470.746	6575
1472.969	6645
1475.191	6571
1477.415	6506
1479.636	6494
1481.858	6580
1484.078	6554
1486.298	6605
1488.518	6361
1490.736	6449
1492.954	6351
1495.169	6388
1497.386	6454
1499.602	6385
1501.819	6394
1504.034	6462
1506.248	6435
1508.462	6397
1510.675	6288
1512.888	6401
1515.1	6312
1517.311	6316
1519.522	6293
1521.732	6408
1523.942	6388
1526.151	6346
1528.36	6424
1530.566	6407
1532.773	6398
1534.98	6353
1537.187	6323
1539.392	6363
1541.596	6459
1543.801	6437
1546.005	6341
1548.208	6390
1550.411	6494
1552.612	6446
1554.814	6434
1557.013	6486
1559.212	6552
1561.414	6540
1563.612	6575
1565.811	6414
1568.007	6517
1570.203	6551
1572.403	6585
1574.598	6625
1576.792	6496
1578.988	6655
1581.181	6558
1583.376	6519
1585.568	6544
1587.761	6597
1589.952	6646
1592.143	6516
1594.333	6648
1596.524	6690
1598.715	6601
1600.903	6631
1603.091	6715
1605.278	6612
1607.466	6608
1609.652	6615
1611.838	6738
1614.023	6614
1616.207	6618
1618.391	6624
1620.576	6571
1622.759	6757
1624.941	6603
1627.123	6646
1629.304	6756
1631.484	6766
1633.664	6766
1635.844	6678
1638.022	6726
1640.201	6661
1642.38	6872
1644.556	6820
1646.732	6718
1648.908	6766
1651.084	6720
1653.257	6817
1655.433	6733
1657.607	6849
1659.779	6668
1661.951	6783
1664.122	6872
1666.295	6859
1668.467	6785
1670.635	6867
1672.805	6850
1674.973	6889
1677.142	6796
1679.31	6798
1681.478	6896
1683.644	6865
1685.81	6764
1687.975	6754
1690.142	6709
1692.305	6671
1694.468	6734
1696.632	6735
1698.794	6674
1700.957	6601
1703.119	6691
1705.279	6623
1707.439	6609
1709.598	6654
1711.758	6556
1713.917	6582
1716.075	6644
1718.231	6480
1720.388	6617
1722.543	6535
1724.702	6575
1726.856	6643
1729.01	6527
1731.164	6560
1733.317	6528
1735.471	6660
1737.623	6526
1739.774	6624
1741.925	6638
1744.075	6625
1746.225	6581
1748.376	6538
1750.524	6623
1752.672	6658
1754.82	6621
1756.965	6676
1759.113	6557
1761.259	6644
1763.405	6685
1765.549	6612
1767.694	6679
1769.836	6540
1771.981	6608
1774.123	6711
1776.264	6615
1778.405	6722
1780.546	6702
1782.687	6749
1784.827	6685
1786.966	6649
1789.103	6656
1791.242	6692
1793.381	6697
1795.517	6559
1797.653	6671
1799.788	6565
1801.923	6652
1804.057	6695
1806.193	6708
1808.326	6761
1810.457	6709
1812.59	6600
1814.721	6631
1816.855	6621
1818.984	6671
1821.113	6638
1823.244	6566
1825.372	6709
1827.499	6514
1829.63	6636
1831.756	6655
1833.882	6673
1836.007	6635
1838.132	6525
1840.26	6700
1842.384	6611
1844.507	6627
1846.63	6664
1848.752	6558
1850.875	6628
1852.996	6626
1855.118	6703
1857.238	6507
1859.358	6804
1861.477	6657
1863.597	6631
1865.715	6617
1867.832	6589
1869.948	6583
1872.064	6528
1874.181	6635
1876.297	6487
1878.411	6543
1880.526	6653
1882.639	6541
1884.752	6536
1886.865	6593
1888.977	6468
1891.089	6585
1893.2	6673
1895.308	6547
1897.42	6637
1899.53	6631
1901.639	6660
1903.745	6649
1905.853	6658
1907.962	6634
1910.067	6552
1912.174	6687
1914.278	6803
1916.383	6594
1918.486	6644
1920.592	6666
1922.694	6749
1924.797	6661
1926.898	6604
1929	6629
1931.102	6779
1933.203	6641
1935.301	6773
1937.401	6697
1939.499	6710
1941.598	6695
1943.697	6662
1945.793	6600
1947.888	6734
1949.985	6680
1952.08	6780
1954.176	6629
1956.269	6643
1958.364	6755
1960.457	6683
1962.549	6702
1964.642	6687
1966.733	6619
1968.823	6703
1970.913	6635
1973.005	6737
1975.093	6729
1977.184	6711
1979.271	6674
1981.359	6641
1983.446	6763
1985.532	6794
1987.619	6720
1989.705	6668
1991.789	6629
1993.874	6569
1995.956	6510
1998.041	6567
2000.123	6639
2002.206	6652
2004.287	6677
2006.368	6636
2008.449	6655
2010.529	6567
2012.609	6632
2014.688	6587
2016.766	6600
2018.843	6694
2020.922	6654
2022.999	6701
2025.074	6542
2027.15	6563
2029.225	6532
2031.299	6615
2033.375	6585
2035.447	6684
2037.52	6570
2039.592	6613
2041.664	6705
2043.736	6603
2045.807	6661
2047.876	6587
2049.947	6660
2052.015	6622
2054.086	6678
2056.153	6678
2058.221	6689
2060.288	6608
2062.353	6512
2064.42	6509
2066.486	6499
2068.55	6595
2070.614	6627
2072.678	6674
2074.741	6607
2076.805	6578
2078.866	6763
2080.929	6627
2082.99	6650
2085.049	6591
2087.109	6727
2089.17	6606
2091.228	6664
2093.286	6655
2095.344	6533
2097.4	6580
2099.46	6556
2101.516	6532
2103.572	6667
2105.626	6639
2107.679	6589
2109.735	6582
2111.788	6521
2113.841	6549
2115.894	6640
2117.945	6623
2119.997	6664
2122.049	6702
2124.1	6620
2126.148	6569
2128.197	6553
2130.246	6634
2132.296	6565
2134.342	6618
2136.39	6656
2138.437	6630
2140.483	6589
2142.527	6612
2144.574	6504
2146.619	6511
2148.661	6599
2150.705	6445
2152.747	6692
2154.792	6586
2156.832	6507
2158.874	6640
2160.915	6548
2162.954	6518
2164.995	6492
2167.034	6650
2169.072	6576
2171.111	6550
2173.148	6443
2175.186	6617
2177.223	6518
2179.258	6487
2181.294	6551
2183.328	6489
2185.362	6556
2187.398	6459
2189.431	6535
2191.463	6424
2193.495	6490
2195.528	6518
2197.56	6558
2199.59	6534
2201.62	6402
2203.649	6450
2205.678	6496
2207.708	6563
2209.737	6445
2211.764	6437
2213.791	6439
2215.817	6494
2217.843	6453
2219.87	6424
2221.895	6502
2223.919	6457
2225.942	6370
2227.966	6352
2229.988	6348
2232.012	6361
2234.032	6532
2236.054	6330
2238.074	6321
2240.095	6349
2242.116	6362
2244.135	6466
2246.153	6334
2248.171	6401
2250.188	6408
2252.208	6434
2254.223	6363
2256.239	6465
2258.255	6451
2260.269	6387
2262.283	6451
2264.3	6330
2266.312	6354
2268.325	6362
2270.336	6399
2272.349	6446
2274.362	6361
2276.372	6422
2278.383	6500
2280.392	6378
2282.402	6448
2284.409	6470
2286.418	6361
2288.427	6450
2290.433	6438
2292.441	6423
2294.446	6442
2296.453	6310
2298.459	6388
2300.463	6443
2302.466	6412
2304.471	6367
2306.475	6306
2308.477	6418
2310.478	6474
2312.481	6304
2314.481	6367
2316.481	6423
2318.482	6308
2320.482	6369
2322.48	6422
2324.48	6273
2326.478	6306
2328.476	6230
2330.473	6255
2332.469	6274
2334.465	6336
2336.46	6309
2338.454	6196
2340.45	6361
2342.444	6276
2344.437	6316
2346.43	6260
2348.421	6284
2350.414	6370
2352.405	6291
2354.396	6279
2356.386	6240
2358.376	6216
2360.366	6261
2362.355	6349
2364.343	6248
2366.331	6206
2368.317	6298
2370.304	6209
2372.292	6351
2374.278	6282
2376.262	6201
2378.247	6200
2380.23	6217
2382.216	6234
2384.199	6230
2386.181	6261
2388.163	6213
2390.144	6051
2392.127	6196
2394.107	6154
2396.087	6132
2398.066	6237
2400.046	6237
2402.023	6062
2404.004	6117
2405.981	6187
2407.957	6143
2409.934	6185
2411.91	6178
2413.886	6099
2415.862	6142
2417.836	6242
2419.809	6251
2421.784	6220
2423.756	6162
2425.73	6175
2427.701	6128
2429.672	6153
2431.644	6184
2433.615	6115
2435.586	6169
2437.555	6130
2439.523	6090
2441.491	6134
2443.459	6265
2445.428	6161
2447.395	6074
2449.361	6158
2451.327	6129
2453.292	6207
2455.257	6056
2457.223	6125
2459.187	6117
2461.15	6104
2463.113	6088
2465.076	6127
2467.039	6170
2468.999	6050
2470.96	6093
2472.921	6051
2474.881	6088
2476.841	6035
2478.8	6058
2480.759	6043
2482.717	5989
2484.675	6108
2486.63	6031
2488.589	6116
2490.545	6114
2492.5	6072
2494.455	6117
2496.408	5978
2498.364	6019
2500.318	6094
2502.27	6087
2504.223	5994
2506.174	6058
2508.126	6011
2510.078	6074
2512.03	5951
2513.979	6134
2515.927	6075
2517.877	6053
2519.826	6041
2521.775	6119
2523.722	6112
2525.668	5919
2527.616	6028
2529.561	5959
2531.508	5983
2533.452	6003
2535.398	6149
2537.342	6059
2539.284	5998
2541.229	6044
2543.173	5916
2545.114	6030
2547.055	6031
2548.996	5935
2550.938	5995
2552.878	5994
2554.817	5950
2556.756	6022
2558.695	5960
2560.633	6033
2562.572	6028
2564.509	6079
2566.445	5960
2568.382	6033
2570.317	6012
2572.254	6059
2574.189	5974
2576.123	5967
2578.057	5981
2579.99	6037
2581.923	5906
2583.855	5986
2585.788	6018
2587.719	5978
2589.65	5929
2591.579	6040
2593.511	6000
2595.44	5930
2597.37	5893
2599.297	6012
2601.225	6078
2603.153	5989
2605.08	5969
2607.007	6029
2608.932	6025
2610.858	5972
2612.782	6040
2614.709	5989
2616.632	5915
2618.556	6018
2620.478	5890
2622.401	5963
2624.324	5874
2626.247	5952
2628.167	6061
2630.088	6023
2632.008	6114
2633.928	5938
2635.848	5918
2637.766	5979
2639.684	5946
2641.603	6019
2643.519	6061
2645.437	5972
2647.353	6063
2649.27	5928
2651.184	5997
2653.099	6018
2655.014	5994
2656.928	6033
2658.842	5832
2660.755	5948
2662.667	6098
2664.579	6014
2666.491	5981
2668.402	5956
2670.312	6028
2672.222	5936
2674.132	6014
2676.042	5991
2677.951	5998
2679.859	5987
2681.766	5973
2683.674	6021
2685.582	6007
2687.488	5971
2689.392	5956
2691.298	5862
2693.202	5865
2695.107	5923
2697.012	5873
2698.914	5840
2700.817	5925
2702.72	5982
2704.622	5967
2706.524	5847
2708.425	5826
2710.326	5894
2712.225	5910
2714.125	5869
2716.024	5832
2717.923	5993
2719.822	6008
2721.719	5822
2723.616	5864
2725.512	5969
2727.41	5764
2729.305	5748
2731.201	5924
2733.095	5848
2734.99	5768
2736.884	5870
2738.778	5855
2740.67	5818
2742.562	5900
2744.455	5816
2746.346	5891
2748.238	5864
2750.129	5855
2752.018	5855
2753.907	5874
2755.797	5854
2757.687	5822
2759.575	5790
2761.462	5864
2763.349	5832
2765.237	5870
2767.124	5860
2769.009	5777
2770.894	5827
2772.779	5752
2774.663	5808
2776.547	5767
2778.431	5758
2780.314	5860
2782.197	5783
2784.078	5821
2785.96	5734
2787.842	5817
2789.723	5878
2791.603	5797
2793.483	5757
2795.362	5810
2797.241	5761
2799.121	5701
2800.997	5711
2802.874	5788
2804.751	5744
2806.628	5672
2808.506	5799
2810.38	5735
2812.255	5821
2814.13	5750
2816.003	5767
2817.878	5742
2819.752	5625
2821.623	5796
2823.496	5769
2825.368	5731
2827.238	5812
2829.111	5720
2830.98	5777
2832.851	5804
2834.719	5653
2836.589	5739
2838.458	5739
2840.327	5844
2842.193	5726
2844.061	5816
2845.927	5788
2847.794	5826
2849.66	5713
2851.525	5759
2853.39	5859
2855.254	5885
2857.117	5802
2858.983	5891
2860.845	5891
2862.707	5955
2864.569	5905
2866.431	5959
2868.293	5971
2870.154	6056
2872.013	6178
2873.873	6134
2875.733	6041
2877.592	6158
2879.451	6185
2881.309	6378
2883.166	6229
2885.022	6399
2886.879	6345
2888.736	6396
2890.591	6289
2892.446	6436
2894.301	6374
2896.155	6398
2898.009	6355
2899.863	6392
2901.716	6434
2903.568	6309
2905.419	6321
2907.27	6459
2909.123	6395
2910.973	6281
2912.824	6446
2914.673	6430
2916.521	6341
2918.372	6650
2920.22	6640
2922.067	6687
2923.914	6768
2925.761	6799
2927.607	6911
2929.455	6893
2931.301	6965
2933.144	7030
2934.99	7000
2936.833	7197
2938.678	7194
2940.522	7227
2942.364	7473
2944.207	7325
2946.048	7321
2947.891	7327
2949.731	7336
2951.571	7291
2953.412	7323
2955.25	7230
2957.09	7011
2958.93	7034
2960.767	7176
2962.606	7010
2964.443	6878
2966.279	6919
2968.116	6925
2969.953	6701
2971.788	6647
2973.623	6671
2975.457	6600
2977.292	6595
2979.127	6416
2980.959	6600
2982.792	6496
2984.624	6467
2986.455	6397
2988.288	6422
2990.119	6297
2991.949	6330
2993.779	6311
2995.608	6250
2997.439	6108
2999.268	6120
3001.096	6087
3002.923	6082
3004.751	6112
3006.578	6000
3008.406	5870
3010.232	5795
3012.057	5855
3013.883	5827
3015.706	5736
3017.532	5703
3019.356	5681
3021.179	5680
3023.002	5703
3024.823	5591
3026.646	5763
3028.469	5558
3030.289	5607
3032.11	5609
3033.93	5551
3035.749	5594
3037.57	5520
3039.39	5513
3041.207	5416
3043.026	5480
3044.842	5593
3046.661	5445
3048.477	5494
3050.294	5496
3052.109	5475
3053.925	5551
3055.739	5480
3057.555	5695
3059.368	5472
3061.181	5443
3062.995	5491
3064.807	5460
3066.62	5375
3068.433	5503
3070.243	5427
3072.054	5365
3073.865	5514
3075.675	5312
3077.485	5393
3079.293	5385
3081.102	5444
3082.911	5388
3084.719	5320
3086.527	5369
3088.333	5343
3090.139	5258
3091.945	5315
3093.75	5327
3095.557	5243
3097.361	5250
3099.165	5240
3100.969	5270
3102.772	5250
3104.575	5219
3106.379	5239
3108.181	5247
3109.982	5234
3111.783	5255
3113.584	5148
3115.386	5268
3117.186	5101
3118.985	5354
3120.783	5254
3122.582	5132
3124.381	5289
3126.179	5121
3127.975	5218
3129.772	5130
3131.569	5191
3133.365	5196
3135.161	5162
3136.956	5222
3138.751	5173
3140.544	5122
3142.338	5221
3144.132	5182
3145.925	5227
3147.717	5192
3149.509	5123
3151.301	5159
3153.091	5249
3154.884	5082
3156.673	5099
3158.462	5056
3160.252	5102
3162.041	5033
3163.831	5155
3165.618	5159
3167.405	5205
3169.193	5113
3170.979	5090
3172.767	5067
3174.553	5062
3176.338	5130
3178.123	5247
3179.907	5105
3181.692	5091
3183.477	5167
3185.259	5101
3187.042	5142
3188.824	5027
3190.607	5032
3192.389	5085
3194.17	5048
3195.951	5047
3197.73	5048
3199.51	5116
3201.289	5072
3203.07	5206
3204.848	5143
3206.626	5106
3208.403	5123
3210.18	5097
3211.959	4975
3213.735	5076
3215.511	4973
3217.285	5053
3219.06	5126
3220.836	5114
3222.611	5028
3224.384	5088
3226.158	5062
3227.929	5129
3229.702	5151
3231.476	5175
3233.248	5009
3235.018	5092
3236.789	5135
3238.56	5142
3240.33	5095
3242.1	5152
3243.869	5059
3245.637	5044
3247.405	5045
3249.172	5119
3250.941	5080
3252.707	4988
3254.474	5021
3256.24	5144
3258.006	4976
3259.772	5035
3261.537	5065
3263.301	5016
3265.065	5091
3266.828	5079
3268.592	4996
3270.355	5117
3272.117	5085
3273.878	5034
3275.64	4997
3277.401	5111
3279.162	5039
3280.922	5144
3282.682	5158
3284.441	5120
3286.199	5096
3287.959	5062
3289.716	5035
3291.475	5172
3293.232	5112
3294.988	4990
3296.744	5121
3298.501	5119
3300.256	5019
3302.011	5042
3303.766	5039
3305.52	5118
3307.275	5001
3309.028	5075
3310.781	5191
3312.533	5067
3314.285	5163
3316.038	5105
3317.789	5044
3319.54	5197
3321.289	5094
3323.039	4911
3324.789	5064
3326.539	4985
3328.288	5006
3330.035	5036
3331.783	5042
3333.531	5058
3335.28	4956
3337.025	5012
3338.771	4994
3340.518	5079
3342.262	5116
3344.009	5024
3345.753	4917
3347.497	4993
3349.24	4984
3350.983	5055
3352.726	4949
3354.469	5050
3356.212	5064
3357.952	4954
3359.694	5029
3361.434	4851
3363.176	4921
3364.916	4985
3366.654	4994
3368.394	4933
3370.132	4989
3371.871	4964
3373.61	4982
3375.346	4881
3377.083	4888
3378.82	4944
3380.556	4820
3382.292	4933
3384.027	4862
3385.763	4843
3387.497	4946
3389.231	4800
3390.965	4839
3392.698	4981
3394.431	4912
3396.164	4915
3397.896	4791
3399.627	4901
3401.36	4839
3403.09	4809
3404.82	4826
3406.55	4863
3408.279	4843
3410.01	4880
3411.738	4840
3413.467	4794
3415.194	4772
3416.92	4857
3418.647	4797
3420.375	4772
3422.102	4781
3423.827	4817
3425.553	4859
3427.277	4697
3429.003	4812
3430.727	4718
3432.451	4835
3434.173	4731
3435.896	4837
3437.62	4724
3439.343	4697
3441.063	4795
3442.785	4744
3444.505	4608
3446.226	4602
3447.948	4692
3449.666	4675
3451.386	4683
3453.104	4699
3454.823	4662
3456.541	4641
3458.259	4677
3459.976	4665
3461.693	4646
3463.408	4638
3465.125	4651
3466.841	4588
3468.556	4600
3470.271	4625
3471.985	4675
3473.698	4616
3475.414	4605
3477.126	4637
3478.838	4510
3480.55	4580
3482.263	4567
3483.975	4545
3485.686	4587
3487.396	4413
3489.106	4621
3490.817	4546
3492.526	4526
3494.236	4539
3495.944	4455
3497.652	4566
3499.359	4485
3501.066	4518
3502.775	4480
3504.481	4415
3506.187	4522
3507.893	4559
3509.598	4444
3511.304	4490
3513.009	4412
3514.713	4413
3516.417	4407
3518.12	4481
3519.821	4421
3521.525	4367
3523.228	4428
3524.929	4471
3526.631	4355
3528.33	4369
3530.032	4404
3531.733	4383
3533.433	4349
3535.131	4371
3536.83	4382
3538.529	4334
3540.227	4382
3541.925	4339
3543.623	4344
3545.319	4283
3547.016	4284
3548.712	4390
3550.408	4308
3552.103	4297
3553.798	4366
3555.491	4272
3557.188	4270
3558.88	4314
3560.574	4294
3562.266	4303
3563.959	4353
3565.651	4369
3567.343	4249
3569.035	4281
3570.725	4290
3572.415	4321
3574.106	4280
3575.797	4299
3577.485	4311
3579.174	4293
3580.863	4278
3582.551	4223
3584.238	4224
3585.926	4108
3587.613	4249
3589.3	4198
3590.986	4105
3592.671	4135
3594.357	4185
3596.042	4177
3597.726	4077
3599.41	4140
3601.094	4100
3602.778	4081
3604.461	4122
3606.143	4072
3607.825	4173
3609.507	4099
3611.188	4053
3612.87	3977
3614.551	4089
3616.229	4042
3617.909	4086
3619.589	4056
3621.269	4066
3622.948	4060
3624.625	4106
3626.302	4091
3627.98	3989
3629.657	4064
3631.334	4081
3633.01	3976
3634.686	4007
3636.361	4005
3638.036	4028
3639.712	3960
3641.385	4014
3643.06	4028
3644.732	3953
3646.405	3924
3648.08	3978
3649.751	3887
3651.424	3979
3653.094	3925
3654.766	3883
3656.436	4037
3658.106	3853
3659.777	3976
3661.446	3928
3663.115	3928
3664.783	3908
3666.452	3940
3668.121	3760
3669.788	3805
3671.454	3958
3673.121	3866
3674.789	3924
3676.455	3865
3678.12	3824
3679.784	3870
3681.45	3822
3683.114	3797
3684.779	3821
3686.442	3923
3688.105	3825
3689.768	3748
3691.43	3803
3693.093	3761
3694.754	3830
3696.415	3695
3698.076	3771
3699.736	3797
3701.396	3833
3703.057	3798
3704.716	3844
3706.375	3767
3708.034	3783
3709.692	3798
3711.351	3793
3713.008	3900
3714.665	3844
3716.321	3785
3717.977	3838
3719.634	3814
3721.29	3737
3722.945	3787
3724.598	3695
3726.253	3666
3727.907	3802
3729.561	3790
3731.214	3793
3732.867	3761
3734.518	3774
3736.171	3813
3737.824	3734
3739.474	3757
3741.125	3744
3742.775	3737
3744.425	3726
3746.074	3744
3747.725	3708
3749.373	3719
3751.022	3717
3752.669	3627
3754.318	3740
3755.966	3714
3757.612	3727
3759.259	3707
3760.905	3677
3762.55	3719
3764.197	3615
3765.842	3698
3767.486	3666
3769.131	3642
3770.774	3735
3772.417	3688
3774.061	3654
3775.705	3663
3777.347	3626
3778.988	3641
3780.629	3636
3782.271	3691
3783.912	3670
3785.552	3616
3787.192	3652
3788.831	3602
3790.472	3548
3792.112	3622
3793.75	3600
3795.388	3593
3797.024	3574
3798.661	3679
3800.3	3570
3801.936	3520
3803.572	3602
3805.208	3517
3806.844	3609
3808.48	3583
3810.115	3587
3811.748	3581
3813.382	3645
3815.016	3607
3816.649	3496
3818.283	3542
3819.914	3485
3821.547	3574
3823.178	3468
3824.809	3378
3826.441	3555
3828.072	3544
3829.701	3538
3831.331	3470
3832.96	3443
3834.591	3513
3836.219	3546
3837.847	3515
3839.475	3495
3841.102	3515
3842.729	3450
3844.357	3506
3845.984	3456
3847.609	3504
3849.234	3459
3850.86	3495
3852.485	3419
3854.11	3467
3855.734	3490
3857.357	3469
3858.981	3470
3860.603	3390
3862.227	3492
3863.848	3441
3865.471	3431
3867.092	3445
3868.713	3398
3870.334	3509
3871.954	3461
3873.575	3472
3875.194	3467
3876.813	3421
3878.433	3415
3880.051	3457
3881.669	3405
3883.286	3347
3884.904	3451
3886.52	3343
3888.138	3467
3889.754	3486
3891.37	3360
3892.985	3381
3894.6	3391
3896.216	3385
3897.831	3359
3899.444	3413
3901.058	3267
3902.67	3387
3904.283	3421
3905.897	3374
3907.509	3310
3909.121	3419
3910.731	3317
3912.342	3418
3913.954	3378
3915.563	3340
3917.174	3407
3918.783	3460
3920.391	3376
3922.002	3378
3923.611	3324
3925.218	3350
3926.826	3377
3928.432	3366
3930.039	3311
3931.647	3359
3933.253	3405
3934.859	3395
3936.464	3274
3938.068	3318
3939.675	3356
3941.278	3319
3942.883	3340
3944.486	3338
3946.089	3377
3947.692	3247
3949.295	3362
3950.898	3281
3952.499	3298
3954.1	3306
3955.7	3267
3957.303	3279
3958.903	3260
3960.502	3313
3962.101	3267
3963.7	3326
3965.301	3223
3966.899	3285
3968.497	3348
3970.094	3283
3971.691	3236
3973.288	3266
3974.885	3213
3976.481	3194
3978.077	3320
3979.672	3177
3981.267	3195
3982.863	3184
3984.457	3220
3986.051	3213
3987.645	3136
3989.238	3182
3990.831	3201
3992.425	3214
3994.017	3185
3995.607	3239
3997.199	3202
3998.79	3133
4000.382	3173
4001.973	3179
4003.561	3161
4005.151	3126
4006.741	3225
4008.331	3185
4009.918	3147
4011.507	3154
4013.095	3246
4014.681	3194
4016.269	3160
4017.856	3071
4019.443	3167
4021.028	3210
4022.614	3145
4024.199	3137
4025.785	3100
4027.37	3116
4028.953	3101
4030.536	3113
4032.12	3086
4033.704	3123
4035.287	3116
4036.869	3148
4038.45	3034
4040.032	3149
4041.613	3134
4043.195	2992
4044.776	3071
4046.356	3082
4047.935	3111
4049.515	3072
4051.095	3068
4052.674	3053
4054.251	3132
4055.829	3031
4057.406	3060
4058.985	2991
4060.562	3063
4062.139	2996
4063.715	2991
4065.29	3058
4066.865	3039
4068.442	3040
4070.016	3010
4071.59	3002
4073.164	3002
4074.738	2990
4076.312	3012
4077.885	2938
4079.458	3009
4081.03	3007
4082.602	3055
4084.173	3008
4085.745	3048
4087.315	3042
4088.886	3029
4090.456	3073
4092.026	2932
4093.596	3018
4095.165	2963
4096.734	2937
4098.301	2960
4099.869	2982
4101.437	2933
4103.006	2913
4104.572	2936
4106.139	2894
4107.704	2984
4109.27	2974
4110.837	2922
4112.401	2974
4113.966	2919
4115.53	3003
4117.094	2881
4118.659	2910
4120.223	2924
4121.785	2908
4123.347	2960
4124.909	2884
4126.471	2874
4128.034	2965
4129.595	2890
4131.155	2928
4132.716	2886
4134.275	2920
4135.836	2899
4137.395	2834
4138.955	2869
4140.513	2899
4142.071	2917
4143.628	2903
4145.188	2823
4146.745	2842
4148.302	2942
4149.858	2908
4151.414	2872
4152.971	2871
4154.526	2835
4156.081	2796
4157.635	2791
4159.189	2854
4160.745	2860
4162.298	2813
4163.852	2830
4165.405	2808
4166.957	2859
4168.51	2846
4170.063	2842
4171.614	2795
4173.166	2804
4174.717	2781
4176.267	2814
4177.817	2800
4179.368	2799
4180.917	2798
4182.466	2779
4184.016	2864
4185.564	2751
4187.112	2761
4188.66	2746
4190.207	2762
4191.754	2791
4193.301	2803
4194.848	2718
4196.394	2757
4197.94	2765
4199.484	2791
4201.03	2770
4202.575	2776
4204.12	2742
4205.663	2823
4207.207	2749
4208.75	2668
4210.292	2765
4211.836	2687
4213.378	2722
4214.92	2740
4216.46	2708
4218.002	2823
4219.544	2722
4221.083	2656
4222.625	2716
4224.164	2745
4225.703	2655
4227.244	2682
4228.782	2724
4230.32	2631
4231.857	2678
4233.395	2623
4234.933	2672
4236.471	2662
4238.007	2739
4239.542	2736
4241.078	2650
4242.614	2678
4244.15	2685
4245.685	2742
4247.219	2686
4248.753	2684
4250.287	2683
4251.82	2649
4253.354	2662
4254.887	2659
4256.419	2631
4257.951	2647
4259.483	2695
4261.016	2704
4262.547	2731
4264.078	2644
4265.608	2585
4267.137	2662
4268.668	2628
4270.197	2629
4271.727	2653
4273.254	2652
4274.783	2662
4276.311	2660
4277.84	2672
4279.366	2643
4280.894	2703
4282.42	2577
4283.946	2652
4285.473	2600
4286.998	2630
4288.523	2602
4290.047	2612
4291.572	2553
4293.096	2601
4294.622	2633
4296.144	2611
4297.668	2589
4299.19	2583
4300.713	2538
4302.236	2587
4303.758	2588
4305.279	2604
4306.799	2591
4308.321	2597
4309.842	2503
4311.361	2573
4312.882	2626
4314.401	2540
