400.0961	4009
402.6185	4112
405.1424	4029
407.6635	4053
410.1838	4130
412.7035	4178
415.2225	4182
417.7388	4073
420.2585	4148
422.7754	4247
425.2917	4250
427.8072	4311
430.3221	4324
432.8363	4309
435.3498	4420
437.8626	4313
440.3727	4328
442.8841	4326
445.3969	4377
447.907	4312
450.4142	4350
452.9229	4389
455.4289	4297
457.9362	4280
460.4449	4439
462.9488	4352
465.454	4299
467.9566	4323
470.4604	4351
472.9637	4347
475.4662	4338
477.966	4380
480.4671	4354
482.9656	4454
485.4633	4474
487.9645	4489
490.4608	4496
492.9566	4438
495.4536	4464
497.948	4464
500.4437	4568
502.9387	4477
505.431	4446
507.9226	4539
510.4136	4535
512.9079	4468
515.3975	4522
517.8864	4467
520.3746	4582
522.8622	4434
525.3491	4551
527.8394	4533
530.3249	4536
532.8098	4641
535.2939	4565
537.7774	4510
540.2623	4580
542.7444	4532
545.2259	4584
547.7067	4579
550.1868	4590
552.6683	4600
555.147	4553
557.6231	4542
560.1005	4614
562.5773	4572
565.0534	4635
567.5308	4551
570.0056	4763
572.4776	4490
574.951	4686
577.4237	4722
579.8978	4759
582.3671	4745
584.8378	4795
587.3079	4711
589.7773	4723
592.244	4794
594.714	4701
597.1793	4862
599.6461	4673
602.1121	4787
604.5754	4669
607.0421	4743
609.5042	4669
611.9675	4716
614.4282	4635
616.8902	4677
619.3515	4761
621.8122	4667
624.2702	4675
626.7296	4709
629.1863	4649
631.6423	4782
634.1017	4702
636.5563	4722
639.0104	4658
641.4658	4750
643.9185	4758
646.3725	4739
648.8239	4730
651.2766	4772
653.7266	4714
656.176	4751
658.6247	4830
661.0748	4697
663.5242	4860
665.9709	4731
668.417	4764
670.8624	4857
673.3092	4888
675.7533	4843
678.1968	4832
680.6395	4879
683.0817	4802
685.5251	4886
687.9659	4882
690.4061	4869
692.8456	4820
695.2844	4906
697.7226	4932
700.1621	4904
702.599	4832
705.0332	5010
707.4688	4967
709.9036	4883
712.3399	4990
714.7735	4970
717.2044	5007
719.6367	5042
722.0683	4957
724.4993	5066
726.9296	5045
729.3593	5018
731.7883	5072
734.2147	5066
736.6423	5084
739.0714	5029
741.4958	5085
743.9216	5134
746.3447	5114
748.7691	5187
751.1929	5184
753.616	5212
756.0366	5269
758.4584	5255
760.8776	5217
763.2982	5270
765.718	5188
768.1373	5177
770.5539	5210
772.9698	5276
775.3871	5205
777.8038	5208
780.2178	5230
782.6332	5231
785.0459	5220
787.458	5301
789.8714	5295
792.2842	5341
794.6943	5239
797.1038	5328
799.5127	5209
801.9209	5312
804.3324	5273
806.7393	5352
809.1456	5250
811.5513	5331
813.9562	5292
816.3625	5251
818.7663	5360
821.1693	5360
823.5718	5353
825.9735	5415
828.3746	5282
830.7771	5280
833.177	5282
835.5762	5282
837.9747	5415
840.3727	5384
842.772	5404
845.1666	5361
847.5626	5370
849.958	5377
852.3527	5380
854.7488	5489
857.1403	5442
859.5331	5503
861.9253	5511
864.3168	5458
866.7057	5413
869.098	5467
871.4876	5425
873.8746	5506
876.263	5475
878.6487	5400
881.0378	5456
883.4243	5359
885.8081	5434
888.1933	5373
890.5759	5425
892.9598	5437
895.343	5396
897.7256	5377
900.1057	5344
902.4871	5409
904.8659	5366
907.246	5363
909.6254	5553
912.0023	5554
914.3786	5534
916.7562	5534
919.1331	5703
921.5074	5754
923.8831	5779
926.2562	5710
928.6287	5834
931.0005	5699
933.3757	5715
935.7462	5691
938.1162	5695
940.4855	5588
942.8542	5795
945.2242	5797
947.5916	5926
949.9584	5953
952.3266	6034
954.6921	6030
957.0571	6217
959.4233	6369
961.787	6492
964.15	6476
966.5125	6282
968.8742	6143
971.2354	6048
973.5959	5976
975.9559	5740
978.3151	5829
980.6738	5782
983.0338	5708
985.3912	5706
987.7461	5522
990.1022	5468
992.4578	5679
994.8127	5661
997.1689	5585
999.5207	5589
1001.874	5618
1004.226	5618
1006.576	5567
1008.929	5609
1011.28	5635
1013.628	5668
1015.977	5645
1018.324	5605
1020.674	5682
1023.019	5709
1025.366	5677
1027.713	5728
1030.056	5721
1032.399	5767
1034.746	5748
1037.087	5620
1039.431	5759
1041.771	5690
1044.113	5750
1046.454	5708
1048.793	5687
1051.133	5708
1053.471	5720
1055.807	5758
1058.146	5836
1060.483	5866
1062.818	5746
1065.153	5794
1067.489	5819
1069.822	5883
1072.156	5806
1074.488	5809
1076.82	5966
1079.15	5803
1081.48	5832
1083.814	5860
1086.143	5961
1088.471	5800
1090.799	5864
1093.126	5702
1095.452	5783
1097.78	5844
1100.105	5932
1102.43	5756
1104.754	5744
1107.077	5825
1109.4	5897
1111.722	5780
1114.044	5869
1116.365	5812
1118.685	5839
1121.005	5877
1123.324	5848
1125.643	5837
1127.961	5847
1130.278	5845
1132.595	5860
1134.911	5876
1137.226	5743
1139.541	5832
1141.854	5826
1144.167	5831
1146.482	5895
1148.793	5742
1151.105	5796
1153.414	5874
1155.725	5902
1158.033	5983
1160.344	5941
1162.651	5881
1164.959	5838
1167.265	5912
1169.572	5874
1171.878	5728
1174.184	5884
1176.488	5816
1178.79	5817
1181.094	5947
1183.396	5925
1185.699	5913
1188.001	5886
1190.301	5814
1192.6	5958
1194.9	5869
1197.2	5881
1199.497	5899
1201.794	5923
1204.09	6001
1206.387	5832
1208.684	5804
1210.978	5915
1213.272	5846
1215.565	5989
1217.858	5977
1220.15	5918
1222.443	5876
1224.734	6009
1227.024	5818
1229.313	5987
1231.602	5936
1233.892	6028
1236.18	6049
1238.467	6046
1240.754	6099
1243.04	6189
1245.325	6135
1247.612	6084
1249.896	6117
1252.178	6080
1254.461	6053
1256.743	6073
1259.027	6084
1261.308	6127
1263.587	6229
1265.867	6189
1268.146	6242
1270.425	6201
1272.703	6085
1274.981	6118
1277.256	6153
1279.532	6073
1281.808	6037
1284.083	6111
1286.358	6083
1288.63	6224
1290.904	5976
1293.175	5903
1295.449	6132
1297.719	6111
1299.99	6036
1302.259	6076
1304.529	6063
1306.798	6074
1309.065	6128
1311.333	6172
1313.599	6163
1315.866	6124
1318.131	6140
1320.396	6011
1322.66	6087
1324.925	6177
1327.187	6021
1329.448	6087
1331.711	6128
1333.974	6205
1336.234	6115
1338.493	6107
1340.752	6126
1343.01	6022
1345.269	6208
1347.526	6175
1349.784	6133
1352.04	6116
1354.295	6064
1356.552	6168
1358.806	6050
1361.059	6131
1363.312	6096
1365.564	6104
1367.818	6110
1370.069	6200
1372.318	6157
1374.568	6204
1376.817	6188
1379.066	6180
1381.316	6134
1383.564	6185
1385.809	6225
1388.056	6215
1390.301	6138
1392.549	6289
1394.793	6215
1397.036	6295
1399.279	6408
1401.522	6227
1403.763	6362
1406.007	6333
1408.248	6308
1410.487	6300
1412.727	6266
1414.965	6193
1417.205	6409
1419.442	6338
1421.68	6090
1423.915	6274
1426.152	6339
1428.388	6199
1430.623	6395
1432.857	6265
1435.091	6292
1437.323	6417
1439.556	6360
1441.789	6357
1444.019	6295
1446.25	6375
1448.48	6313
1450.708	6461
1452.938	6246
1455.167	6370
1457.394	6371
1459.62	6476
1461.846	6372
1464.073	6331
1466.299	6418
1468.523	6519
1470.746	6376
1472.969	6350
1475.191	6275
1477.415	6354
1479.636	6251
1481.858	6287
1484.078	6294
1486.298	6086
1488.518	6219
1490.736	6156
1492.954	6174
1495.169	6088
1497.386	6150
1499.602	6135
1501.819	6091
1504.034	6165
1506.248	6072
1508.462	6130
1510.675	6062
1512.888	6094
1515.1	6194
1517.311	6036
1519.522	6152
1521.732	6234
1523.942	6160
1526.151	6069
1528.36	6215
1530.566	6051
1532.773	6208
1534.98	6263
1537.187	6082
1539.392	6199
1541.596	6098
1543.801	6183
1546.005	6235
1548.208	6217
1550.411	6181
1552.612	6289
1554.814	6304
1557.013	6224
1559.212	6149
1561.414	6288
1563.612	6220
1565.811	6193
1568.007	6343
1570.203	6176
1572.403	6290
1574.598	6232
1576.792	6289
1578.988	6288
1581.181	6271
1583.376	6322
1585.568	6386
1587.761	6356
1589.952	6295
1592.143	6343
1594.333	6300
1596.524	6388
1598.715	6280
1600.903	6310
1603.091	6272
1605.278	6460
1607.466	6339
1609.652	6320
1611.838	6394
1614.023	6258
1616.207	6358
1618.391	6349
1620.576	6393
1622.759	6379
1624.941	6463
1627.123	6399
1629.304	6423
1631.484	6405
1633.664	6459
1635.844	6500
1638.022	6412
1640.201	6438
1642.38	6422
1644.556	6470
1646.732	6364
1648.908	6417
1651.084	6379
1653.257	6238
1655.433	6488
1657.607	6418
1659.779	6498
1661.951	6386
1664.122	6447
1666.295	6536
1668.467	6440
1670.635	6552
1672.805	6487
1674.973	6391
1677.142	6472
1679.31	6388
1681.478	6404
1683.644	6470
1685.81	6414
1687.975	6412
1690.142	6380
1692.305	6356
1694.468	6341
1696.632	6381
1698.794	6416
1700.957	6292
1703.119	6289
1705.279	6211
1707.439	6379
1709.598	6301
1711.758	6316
1713.917	6329
1716.075	6354
1718.231	6323
1720.388	6337
1722.543	6222
1724.702	6236
1726.856	6308
1729.01	6265
1731.164	6321
1733.317	6371
1735.471	6355
1737.623	6310
1739.774	6417
1741.925	6300
1744.075	6295
1746.225	6338
1748.376	6419
1750.524	6440
1752.672	6259
1754.82	6350
1756.965	6450
1759.113	6320
1761.259	6487
1763.405	6370
1765.549	6395
1767.694	6317
1769.836	6501
1771.981	6399
1774.123	6424
1776.264	6336
1778.405	6376
1780.546	6381
1782.687	6265
1784.827	6484
1786.966	6462
1789.103	6320
1791.242	6417
1793.381	6523
1795.517	6421
1797.653	6387
1799.788	6433
1801.923	6529
1804.057	6285
1806.193	6348
1808.326	6298
1810.457	6367
1812.59	6405
1814.721	6476
1816.855	6394
1818.984	6353
1821.113	6407
1823.244	6386
1825.372	6419
1827.499	6374
1829.63	6302
1831.756	6504
1833.882	6418
1836.007	6379
1838.132	6362
1840.26	6431
1842.384	6439
1844.507	6327
1846.63	6362
1848.752	6249
1850.875	6268
1852.996	6384
1855.118	6344
1857.238	6303
1859.358	6380
1861.477	6397
1863.597	6299
1865.715	6426
1867.832	6405
1869.948	6265
1872.064	6260
1874.181	6307
1876.297	6304
1878.411	6330
1880.526	6339
1882.639	6350
1884.752	6415
1886.865	6338
1888.977	6250
1891.089	6417
1893.2	6437
1895.308	6421
1897.42	6393
1899.53	6421
1901.639	6359
1903.745	6354
1905.853	6507
1907.962	6343
1910.067	6493
1912.174	6278
1914.278	6472
1916.383	6496
1918.486	6439
1920.592	6532
1922.694	6425
1924.797	6405
1926.898	6449
1929	6508
1931.102	6375
1933.203	6506
1935.301	6556
1937.401	6407
1939.499	6543
1941.598	6490
1943.697	6415
1945.793	6416
1947.888	6465
1949.985	6536
1952.08	6542
1954.176	6480
1956.269	6414
1958.364	6350
1960.457	6417
1962.549	6462
1964.642	6456
1966.733	6511
1968.823	6513
1970.913	6321
1973.005	6534
1975.093	6498
1977.184	6377
1979.271	6517
1981.359	6381
1983.446	6411
1985.532	6379
1987.619	6538
1989.705	6446
1991.789	6389
1993.874	6432
1995.956	6461
1998.041	6348
2000.123	6387
2002.206	6412
2004.287	6545
2006.368	6471
2008.449	6310
2010.529	6346
2012.609	6318
2014.688	6389
2016.766	6318
2018.843	6448
2020.922	6357
2022.999	6378
2025.074	6395
2027.15	6491
2029.225	6550
2031.299	6488
2033.375	6377
2035.447	6442
2037.52	6262
2039.592	6438
2041.664	6411
2043.736	6305
2045.807	6376
2047.876	6358
2049.947	6347
2052.015	6382
2054.086	6353
2056.153	6358
2058.221	6477
2060.288	6405
2062.353	6337
2064.42	6546
2066.486	6386
2068.55	6372
2070.614	6456
2072.678	6408
2074.741	6363
2076.805	6314
2078.866	6399
2080.929	6456
2082.99	6485
2085.049	6413
2087.109	6531
2089.17	6431
2091.228	6339
2093.286	6267
2095.344	6391
2097.4	6446
2099.46	6363
2101.516	6360
2103.572	6314
2105.626	6357
2107.679	6350
2109.735	6389
2111.788	6504
2113.841	6428
2115.894	6447
2117.945	6320
2119.997	6343
2122.049	6221
2124.1	6489
2126.148	6394
2128.197	6384
2130.246	6435
2132.296	6422
2134.342	6428
2136.39	6402
2138.437	6428
2140.483	6422
2142.527	6348
2144.574	6182
2146.619	6396
2148.661	6349
2150.705	6376
2152.747	6334
2154.792	6370
2156.832	6469
2158.874	6294
2160.915	6285
2162.954	6250
2164.995	6334
2167.034	6495
2169.072	6334
2171.111	6343
2173.148	6379
2175.186	6300
2177.223	6371
2179.258	6260
2181.294	6390
2183.328	6213
2185.362	6353
2187.398	6375
2189.431	6292
2191.463	6250
2193.495	6394
2195.528	6304
2197.56	6220
2199.59	6287
2201.62	6322
2203.649	6262
2205.678	6356
2207.708	6205
2209.737	6221
2211.764	6139
2213.791	6312
2215.817	6220
2217.843	6269
2219.87	6185
2221.895	6202
2223.919	6212
2225.942	6253
2227.966	6157
2229.988	6258
2232.012	6225
2234.032	6336
2236.054	6201
2238.074	6186
2240.095	6291
2242.116	6186
2244.135	6234
2246.153	6102
2248.171	6225
2250.188	6241
2252.208	6211
2254.223	6224
2256.239	6177
2258.255	6342
2260.269	6242
2262.283	6388
2264.3	6220
2266.312	6192
2268.325	6240
2270.336	6223
2272.349	6192
2274.362	6228
2276.372	6259
2278.383	6280
2280.392	6197
2282.402	6114
2284.409	6206
2286.418	6161
2288.427	6280
2290.433	6213
2292.441	6151
2294.446	6175
2296.453	6221
2298.459	6253
2300.463	6167
2302.466	6296
2304.471	6148
2306.475	6175
2308.477	6127
2310.478	6200
2312.481	6191
2314.481	6237
2316.481	6214
2318.482	6127
2320.482	6219
2322.48	6220
2324.48	6093
2326.478	6094
2328.476	6189
2330.473	6192
2332.469	6124
2334.465	6187
2336.46	6090
2338.454	6109
2340.45	6140
2342.444	6047
2344.437	6022
2346.43	6089
2348.421	6062
2350.414	6081
2352.405	6106
2354.396	6224
2356.386	5951
2358.376	6084
2360.366	6058
2362.355	6058
2364.343	6083
2366.331	6162
2368.317	5991
2370.304	5997
2372.292	6081
2374.278	6026
2376.262	6145
2378.247	6001
2380.23	6104
2382.216	5994
2384.199	6023
2386.181	5913
2388.163	5972
2390.144	5918
2392.127	6158
2394.107	5994
2396.087	6097
2398.066	5991
2400.046	6053
2402.023	5848
2404.004	6058
2405.981	5989
2407.957	5934
2409.934	5956
2411.91	5979
2413.886	6101
2415.862	6023
2417.836	6066
2419.809	5920
2421.784	5992
2423.756	5973
2425.73	6140
2427.701	5945
2429.672	5964
2431.644	6019
2433.615	6043
2435.586	5961
2437.555	5973
2439.523	6093
2441.491	6018
2443.459	5952
2445.428	5926
2447.395	5948
2449.361	5981
2451.327	5950
2453.292	5990
2455.257	5935
2457.223	5967
2459.187	6015
2461.15	5990
2463.113	6060
2465.076	5960
2467.039	5978
2468.999	5916
2470.96	5930
2472.921	5928
2474.881	5821
2476.841	5776
2478.8	5923
2480.759	5941
2482.717	5890
2484.675	5936
2486.63	5888
2488.589	5850
2490.545	5817
2492.5	5859
2494.455	5924
2496.408	5844
2498.364	5992
2500.318	5928
2502.27	5904
2504.223	5893
2506.174	5927
2508.126	5869
2510.078	5807
2512.03	5708
2513.979	5922
2515.927	5745
2517.877	5834
2519.826	5900
2521.775	5934
2523.722	5893
2525.668	5759
2527.616	5886
2529.561	5858
2531.508	5874
2533.452	5912
2535.398	5945
2537.342	5787
2539.284	5839
2541.229	5863
2543.173	5846
2545.114	5914
2547.055	5911
2548.996	5861
2550.938	5769
2552.878	5905
2554.817	5867
2556.756	5778
2558.695	5750
2560.633	5879
2562.572	5847
2564.509	5900
2566.445	5762
2568.382	5899
2570.317	5758
2572.254	5825
2574.189	5873
2576.123	5919
2578.057	5785
2579.99	5864
2581.923	5815
2583.855	5878
2585.788	5810
2587.719	5804
2589.65	5938
2591.579	5783
2593.511	5813
2595.44	5776
2597.37	5875
2599.297	5874
2601.225	5728
2603.153	5837
2605.08	5846
2607.007	5844
2608.932	5905
2610.858	5828
2612.782	5842
2614.709	5855
2616.632	5923
2618.556	5956
2620.478	5897
2622.401	5828
2624.324	6014
2626.247	5800
2628.167	5862
2630.088	5835
2632.008	5894
2633.928	5896
2635.848	5929
2637.766	5837
2639.684	5853
2641.603	5781
2643.519	5908
2645.437	5866
2647.353	5887
2649.27	5861
2651.184	5841
2653.099	5976
2655.014	5839
2656.928	5887
2658.842	5900
2660.755	5857
2662.667	5874
2664.579	5888
2666.491	5824
2668.402	5867
2670.312	5816
2672.222	5775
2674.132	5770
2676.042	5769
2677.951	5829
2679.859	5773
2681.766	5812
2683.674	5689
2685.582	5840
2687.488	5655
2689.392	5820
2691.298	5775
2693.202	5835
2695.107	5875
2697.012	5850
2698.914	5767
2700.817	5849
2702.72	5725
2704.622	5732
2706.524	5702
2708.425	5663
2710.326	5839
2712.225	5738
2714.125	5705
2716.024	5735
2717.923	5587
2719.822	5744
2721.719	5753
2723.616	5706
2725.512	5774
2727.41	5652
2729.305	5562
2731.201	5648
2733.095	5813
2734.99	5727
2736.884	5826
2738.778	5717
2740.67	5753
2742.562	5707
2744.455	5815
2746.346	5760
2748.238	5744
2750.129	5731
2752.018	5631
2753.907	5673
2755.797	5803
2757.687	5740
2759.575	5641
2761.462	5727
2763.349	5679
2765.237	5767
2767.124	5719
2769.009	5644
2770.894	5766
2772.779	5554
2774.663	5637
2776.547	5701
2778.431	5696
2780.314	5538
2782.197	5663
2784.078	5723
2785.96	5624
2787.842	5714
2789.723	5661
2791.603	5704
2793.483	5660
2795.362	5593
2797.241	5590
2799.121	5727
2800.997	5639
2802.874	5680
2804.751	5615
2806.628	5678
2808.506	5611
2810.38	5565
2812.255	5601
2814.13	5588
2816.003	5607
2817.878	5630
2819.752	5723
2821.623	5651
2823.496	5659
2825.368	5601
2827.238	5735
2829.111	5706
2830.98	5588
2832.851	5592
2834.719	5638
2836.589	5660
2838.458	5642
2840.327	5595
2842.193	5666
2844.061	5559
2845.927	5642
2847.794	5661
2849.66	5625
2851.525	5685
2853.39	5638
2855.254	5569
2857.117	5695
2858.983	5727
2860.845	5732
2862.707	5756
2864.569	5799
2866.431	5735
2868.293	5728
2870.154	5822
2872.013	5692
2873.873	5697
2875.733	5713
2877.592	5755
2879.451	5868
2881.309	5996
2883.166	5942
2885.022	5897
2886.879	6040
2888.736	5906
2890.591	6025
2892.446	5982
2894.301	5999
2896.155	5965
2898.009	6009
2899.863	5920
2901.716	5981
2903.568	6008
2905.419	5984
2907.27	5931
2909.123	5944
2910.973	5991
2912.824	6037
2914.673	6028
2916.521	6042
2918.372	6027
2920.22	6198
2922.067	6117
2923.914	6090
2925.761	6165
2927.607	6172
2929.455	6219
2931.301	6267
2933.144	6201
2934.99	6323
2936.833	6424
2938.678	6325
2940.522	6347
2942.364	6604
2944.207	6539
2946.048	6627
2947.891	6589
2949.731	6569
2951.571	6547
2953.412	6626
2955.25	6421
2957.09	6577
2958.93	6435
2960.767	6574
2962.606	6354
2964.443	6318
2966.279	6387
2968.116	6170
2969.953	6158
2971.788	5987
2973.623	6022
2975.457	5992
2977.292	6026
2979.127	6008
2980.959	5829
2982.792	5942
2984.624	5850
2986.455	5809
2988.288	5842
2990.119	5805
2991.949	5842
2993.779	5800
2995.608	5629
2997.439	5701
2999.268	5762
3001.096	5667
3002.923	5682
3004.751	5577
3006.578	5597
3008.406	5645
3010.232	5606
3012.057	5509
3013.883	5490
3015.706	5430
3017.532	5464
3019.356	5511
3021.179	5448
3023.002	5500
3024.823	5256
3026.646	5410
3028.469	5393
3030.289	5359
3032.11	5332
3033.93	5458
3035.749	5380
3037.57	5354
3039.39	5346
3041.207	5404
3043.026	5274
3044.842	5445
3046.661	5340
3048.477	5306
3050.294	5273
3052.109	5253
3053.925	5340
3055.739	5243
3057.555	5229
3059.368	5249
3061.181	5296
3062.995	5193
3064.807	5259
3066.62	5360
3068.433	5356
3070.243	5239
3072.054	5200
3073.865	5306
3075.675	5272
3077.485	5210
3079.293	5186
3081.102	5304
3082.911	5173
3084.719	5142
3086.527	5189
3088.333	5151
3090.139	5292
3091.945	5228
3093.75	5154
3095.557	5101
3097.361	5196
3099.165	5104
3100.969	5236
3102.772	5115
3104.575	5210
3106.379	5129
3108.181	5083
3109.982	5120
3111.783	5198
3113.584	5214
3115.386	5113
3117.186	5079
3118.985	5145
3120.783	5120
3122.582	5099
3124.381	5093
3126.179	5163
3127.975	4966
3129.772	5019
3131.569	5074
3133.365	5057
3135.161	5086
3136.956	4936
3138.751	5097
3140.544	5005
3142.338	5126
3144.132	5002
3145.925	5118
3147.717	4992
3149.509	5100
3151.301	4858
3153.091	5034
3154.884	5011
3156.673	5038
3158.462	5079
3160.252	4987
3162.041	4927
3163.831	5009
3165.618	4879
3167.405	4967
3169.193	5065
3170.979	4901
3172.767	4920
3174.553	4851
3176.338	4996
3178.123	4930
3179.907	4817
3181.692	4983
3183.477	4883
3185.259	4963
3187.042	4949
3188.824	4907
3190.607	4959
3192.389	4856
3194.17	4932
3195.951	4886
3197.73	4935
3199.51	4981
3201.289	4914
3203.07	4964
3204.848	4995
3206.626	4890
3208.403	4812
3210.18	4846
3211.959	4940
3213.735	4960
3215.511	4919
3217.285	4873
3219.06	4824
3220.836	4875
3222.611	4918
3224.384	4943
3226.158	4864
3227.929	4855
3229.702	4837
3231.476	4805
3233.248	4857
3235.018	4885
3236.789	4757
3238.56	4930
3240.33	4845
3242.1	4874
3243.869	4849
3245.637	4835
3247.405	4776
3249.172	4911
3250.941	4783
3252.707	4867
3254.474	4840
3256.24	4848
3258.006	4850
3259.772	4873
3261.537	4826
3263.301	4811
3265.065	4897
3266.828	4872
3268.592	4838
3270.355	4920
3272.117	4822
3273.878	4864
3275.64	4850
3277.401	4919
3279.162	4816
3280.922	4926
3282.682	4908
3284.441	4847
3286.199	4774
3287.959	4793
3289.716	4856
3291.475	4933
3293.232	4831
3294.988	4914
3296.744	4807
3298.501	4817
3300.256	4734
3302.011	4808
3303.766	4893
3305.52	4790
3307.275	4761
3309.028	4826
3310.781	4745
3312.533	4760
3314.285	4914
3316.038	4754
3317.789	4891
3319.54	4708
3321.289	4788
3323.039	4784
3324.789	4819
3326.539	4770
3328.288	4703
3330.035	4759
3331.783	4787
3333.531	4625
3335.28	4751
3337.025	4817
3338.771	4774
3340.518	4753
3342.262	4711
3344.009	4810
3345.753	4712
3347.497	4682
3349.24	4631
3350.983	4758
3352.726	4741
3354.469	4763
3356.212	4783
3357.952	4812
3359.694	4667
3361.434	4675
3363.176	4659
3364.916	4674
3366.654	4632
3368.394	4626
3370.132	4756
3371.871	4632
3373.61	4696
3375.346	4675
3377.083	4737
3378.82	4621
3380.556	4754
3382.292	4662
3384.027	4725
3385.763	4676
3387.497	4666
3389.231	4653
3390.965	4619
3392.698	4657
3394.431	4520
3396.164	4654
3397.896	4667
3399.627	4635
3401.36	4596
3403.09	4585
3404.82	4656
3406.55	4564
3408.279	4600
3410.01	4616
3411.738	4531
3413.467	4582
3415.194	4636
3416.92	4677
3418.647	4564
3420.375	4557
3422.102	4653
3423.827	4562
3425.553	4508
3427.277	4593
3429.003	4556
3430.727	4636
3432.451	4534
3434.173	4615
3435.896	4593
3437.62	4479
3439.343	4594
3441.063	4565
3442.785	4532
3444.505	4494
3446.226	4461
3447.948	4492
3449.666	4473
3451.386	4498
3453.104	4446
3454.823	4441
3456.541	4542
3458.259	4468
3459.976	4511
3461.693	4456
3463.408	4537
3465.125	4512
3466.841	4426
3468.556	4393
3470.271	4400
3471.985	4393
3473.698	4341
3475.414	4354
3477.126	4356
3478.838	4378
3480.55	4429
3482.263	4376
3483.975	4323
3485.686	4395
3487.396	4330
3489.106	4371
3490.817	4367
3492.526	4438
3494.236	4243
3495.944	4330
3497.652	4378
3499.359	4384
3501.066	4337
3502.775	4357
3504.481	4271
3506.187	4404
3507.893	4321
3509.598	4296
3511.304	4347
3513.009	4243
3514.713	4249
3516.417	4245
3518.12	4320
3519.821	4302
3521.525	4255
3523.228	4283
3524.929	4168
3526.631	4273
3528.33	4284
3530.032	4243
3531.733	4163
3533.433	4270
3535.131	4240
3536.83	4211
3538.529	4221
3540.227	4270
3541.925	4173
3543.623	4221
3545.319	4279
3547.016	4287
3548.712	4134
3550.408	4208
3552.103	4221
3553.798	4211
3555.491	4160
3557.188	4120
3558.88	4182
3560.574	4215
3562.266	4164
3563.959	4059
3565.651	4197
3567.343	4176
3569.035	4219
3570.725	4172
3572.415	4148
3574.106	4183
3575.797	4167
3577.485	4179
3579.174	4177
3580.863	4230
3582.551	4141
3584.238	4093
3585.926	4131
3587.613	4227
3589.3	4151
3590.986	4146
3592.671	4035
3594.357	4058
3596.042	4073
3597.726	4124
3599.41	4108
3601.094	4013
3602.778	4140
3604.461	4044
3606.143	4104
3607.825	4114
3609.507	3992
3611.188	4031
3612.87	3957
3614.551	4003
3616.229	4077
3617.909	4032
3619.589	4009
3621.269	4086
3622.948	4022
3624.625	4026
3626.302	3989
3627.98	3945
3629.657	3983
3631.334	3890
3633.01	3970
3634.686	3952
3636.361	3930
3638.036	3946
3639.712	3967
3641.385	3954
3643.06	4065
3644.732	4010
3646.405	3900
3648.08	3876
3649.751	3939
3651.424	3859
3653.094	3999
3654.766	3938
3656.436	3915
3658.106	3947
3659.777	3924
3661.446	3821
3663.115	3919
3664.783	3869
3666.452	3898
3668.121	3876
3669.788	3892
3671.454	3972
3673.121	3893
3674.789	3879
3676.455	3908
3678.12	3867
3679.784	3864
3681.45	3858
3683.114	3866
3684.779	3906
3686.442	3916
3688.105	3850
3689.768	3911
3691.43	3754
3693.093	3776
3694.754	3866
3696.415	3815
3698.076	3889
3699.736	3842
3701.396	3791
3703.057	3787
3704.716	3816
3706.375	3806
3708.034	3872
3709.692	3863
3711.351	3801
3713.008	3855
3714.665	3860
3716.321	3891
3717.977	3785
3719.634	3790
3721.29	3775
3722.945	3777
3724.598	3771
3726.253	3834
3727.907	3804
3729.561	3761
3731.214	3862
3732.867	3677
3734.518	3863
3736.171	3853
3737.824	3698
3739.474	3803
3741.125	3774
3742.775	3799
3744.425	3785
3746.074	3742
3747.725	3809
3749.373	3767
3751.022	3668
3752.669	3766
3754.318	3781
3755.966	3653
3757.612	3739
3759.259	3784
3760.905	3762
3762.55	3717
3764.197	3667
3765.842	3670
3767.486	3725
3769.131	3616
3770.774	3722
3772.417	3728
3774.061	3797
3775.705	3687
3777.347	3715
3778.988	3780
3780.629	3699
3782.271	3646
3783.912	3659
3785.552	3688
3787.192	3676
3788.831	3639
3790.472	3680
3792.112	3651
3793.75	3536
3795.388	3717
3797.024	3662
3798.661	3593
3800.3	3568
3801.936	3598
3803.572	3637
3805.208	3555
3806.844	3588
3808.48	3600
3810.115	3576
3811.748	3648
3813.382	3614
3815.016	3616
3816.649	3607
3818.283	3602
3819.914	3599
3821.547	3514
3823.178	3505
3824.809	3550
3826.441	3531
3828.072	3540
3829.701	3567
3831.331	3600
3832.96	3576
3834.591	3486
3836.219	3490
3837.847	3498
3839.475	3573
3841.102	3485
3842.729	3571
3844.357	3534
3845.984	3504
3847.609	3492
3849.234	3590
3850.86	3511
3852.485	3557
3854.11	3503
3855.734	3435
3857.357	3449
3858.981	3477
3860.603	3516
3862.227	3446
3863.848	3578
3865.471	3548
3867.092	3506
3868.713	3409
3870.334	3479
3871.954	3575
3873.575	3487
3875.194	3430
3876.813	3457
3878.433	3428
3880.051	3480
3881.669	3392
3883.286	3512
3884.904	3458
3886.52	3452
3888.138	3466
3889.754	3439
3891.37	3458
3892.985	3413
3894.6	3476
3896.216	3464
3897.831	3452
3899.444	3416
3901.058	3415
3902.67	3468
3904.283	3421
3905.897	3405
3907.509	3433
3909.121	3408
3910.731	3471
3912.342	3438
3913.954	3462
3915.563	3473
3917.174	3477
3918.783	3434
3920.391	3381
3922.002	3476
3923.611	3417
3925.218	3366
3926.826	3376
3928.432	3449
3930.039	3394
3931.647	3395
3933.253	3465
3934.859	3324
3936.464	3465
3938.068	3353
3939.675	3426
3941.278	3331
3942.883	3309
3944.486	3376
3946.089	3382
3947.692	3338
3949.295	3317
3950.898	3399
3952.499	3325
3954.1	3404
3955.7	3256
3957.303	3346
3958.903	3378
3960.502	3301
3962.101	3421
3963.7	3240
3965.301	3338
3966.899	3309
3968.497	3360
3970.094	3257
3971.691	3270
3973.288	3310
3974.885	3350
3976.481	3314
3978.077	3215
3979.672	3368
3981.267	3277
3982.863	3228
3984.457	3262
3986.051	3264
3987.645	3332
3989.238	3304
3990.831	3225
3992.425	3256
3994.017	3306
3995.607	3290
3997.199	3234
3998.79	3231
4000.382	3253
4001.973	3268
4003.561	3201
4005.151	3229
4006.741	3216
4008.331	3236
4009.918	3229
4011.507	3229
4013.095	3185
4014.681	3234
4016.269	3251
4017.856	3274
4019.443	3174
4021.028	3248
4022.614	3190
4024.199	3249
4025.785	3205
4027.37	3226
4028.953	3208
4030.536	3208
4032.12	3151
4033.704	3154
4035.287	3151
4036.869	3100
4038.45	3208
4040.032	3087
4041.613	3153
4043.195	3193
4044.776	3218
4046.356	3110
4047.935	3207
4049.515	3170
4051.095	3134
4052.674	3130
4054.251	3132
4055.829	3127
4057.406	3128
4058.985	3168
4060.562	3070
4062.139	3064
4063.715	3166
4065.29	3066
4066.865	3111
4068.442	3128
4070.016	3089
4071.59	3198
4073.164	3079
4074.738	3095
4076.312	3099
4077.885	3038
4079.458	3137
4081.03	3060
4082.602	3083
4084.173	3135
4085.745	3113
4087.315	3127
4088.886	3112
4090.456	3026
4092.026	3101
4093.596	3054
4095.165	3052
4096.734	2972
4098.301	3045
4099.869	3014
4101.437	3016
4103.006	3107
4104.572	3068
4106.139	3044
4107.704	3060
4109.27	3066
4110.837	3080
4112.401	3048
4113.966	3032
4115.53	3040
4117.094	3041
4118.659	2977
4120.223	2944
4121.785	3000
4123.347	3008
4124.909	2983
4126.471	3023
4128.034	2990
4129.595	2965
4131.155	2889
4132.716	2940
4134.275	2954
4135.836	2989
4137.395	2977
4138.955	3036
4140.513	2975
4142.071	2897
4143.628	2884
4145.188	2971
4146.745	2927
4148.302	2986
4149.858	2918
4151.414	2923
4152.971	2923
4154.526	2902
4156.081	2896
4157.635	2892
4159.189	2966
4160.745	2846
4162.298	2900
4163.852	2957
4165.405	2864
4166.957	2862
4168.51	2837
4170.063	2901
4171.614	2865
4173.166	2938
4174.717	2943
4176.267	2905
4177.817	2855
4179.368	2801
4180.917	2828
4182.466	2863
4184.016	2852
4185.564	2867
4187.112	2842
4188.66	2880
4190.207	2876
4191.754	2821
4193.301	2845
4194.848	2829
4196.394	2927
4197.94	2872
4199.484	2852
4201.03	2891
4202.575	2795
4204.12	2762
4205.663	2806
4207.207	2789
4208.75	2822
4210.292	2781
4211.836	2844
4213.378	2848
4214.92	2832
4216.46	2840
4218.002	2832
4219.544	2814
4221.083	2768
4222.625	2792
4224.164	2812
4225.703	2757
4227.244	2767
4228.782	2724
4230.32	2816
4231.857	2831
4233.395	2741
4234.933	2886
4236.471	2789
4238.007	2786
4239.542	2766
4241.078	2831
4242.614	2790
4244.15	2826
4245.685	2759
4247.219	2697
4248.753	2714
4250.287	2733
4251.82	2752
4253.354	2786
4254.887	2813
4256.419	2749
4257.951	2765
4259.483	2700
4261.016	2779
4262.547	2720
4264.078	2757
4265.608	2752
4267.137	2740
4268.668	2761
4270.197	2757
4271.727	2732
4273.254	2754
4274.783	2727
4276.311	2702
4277.84	2725
4279.366	2729
4280.894	2734
4282.42	2679
4283.946	2736
4285.473	2678
4286.998	2763
4288.523	2711
4290.047	2654
4291.572	2668
4293.096	2692
4294.622	2713
4296.144	2756
4297.668	2680
4299.19	2652
4300.713	2653
4302.236	2633
4303.758	2695
4305.279	2600
4306.799	2657
4308.321	2645
4309.842	2724
4311.361	2705
4312.882	2631
4314.401	2681
