400.0961	5083
402.6185	5012
405.1424	5010
407.6635	4961
410.1838	5014
412.7035	5113
415.2225	5180
417.7388	5122
420.2585	5221
422.7754	5195
425.2917	5290
427.8072	5398
430.3221	5253
432.8363	5370
435.3498	5465
437.8626	5362
440.3727	5326
442.8841	5393
445.3969	5323
447.907	5382
450.4142	5410
452.9229	5331
455.4289	5326
457.9362	5331
460.4449	5290
462.9488	5391
465.454	5212
467.9566	5314
470.4604	5323
472.9637	5297
475.4662	5347
477.966	5307
480.4671	5326
482.9656	5351
485.4633	5367
487.9645	5364
490.4608	5395
492.9566	5337
495.4536	5409
497.948	5438
500.4437	5470
502.9387	5524
505.431	5434
507.9226	5438
510.4136	5455
512.9079	5435
515.3975	5559
517.8864	5471
520.3746	5530
522.8622	5522
525.3491	5587
527.8394	5523
530.3249	5408
532.8098	5618
535.2939	5528
537.7774	5563
540.2623	5572
542.7444	5729
545.2259	5602
547.7067	5582
550.1868	5623
552.6683	5601
555.147	5599
557.6231	5437
560.1005	5632
562.5773	5559
565.0534	5596
567.5308	5716
570.0056	5743
572.4776	5633
574.951	5837
577.4237	5729
579.8978	5878
582.3671	5895
584.8378	5722
587.3079	5879
589.7773	5855
592.244	5847
594.714	5804
597.1793	5771
599.6461	5839
602.1121	5811
604.5754	5811
607.0421	5855
609.5042	5754
611.9675	5812
614.4282	5757
616.8902	5682
619.3515	5770
621.8122	5731
624.2702	5723
626.7296	5655
629.1863	5663
631.6423	5730
634.1017	5727
636.5563	5726
639.0104	5717
641.4658	5810
643.9185	5780
646.3725	5795
648.8239	5829
651.2766	5731
653.7266	5743
656.176	5852
658.6247	5837
661.0748	5789
663.5242	5888
665.9709	5862
668.417	5816
670.8624	5905
673.3092	5923
675.7533	5797
678.1968	6013
680.6395	6039
683.0817	5898
685.5251	5885
687.9659	5981
690.4061	5951
692.8456	5977
695.2844	5962
697.7226	5933
700.1621	6058
702.599	5958
705.0332	6121
707.4688	5907
709.9036	5997
712.3399	6038
714.7735	5977
717.2044	6009
719.6367	6090
722.0683	6062
724.4993	6189
726.9296	6045
729.3593	6107
731.7883	6184
734.2147	6092
736.6423	6259
739.0714	6026
741.4958	6189
743.9216	6189
746.3447	6254
748.7691	6242
751.1929	6232
753.616	6319
756.0366	6362
758.4584	6367
760.8776	6357
763.2982	6363
765.718	6301
768.1373	6353
770.5539	6388
772.9698	6417
775.3871	6427
777.8038	6403
780.2178	6405
782.6332	6434
785.0459	6347
787.458	6416
789.8714	6228
792.2842	6297
794.6943	6352
797.1038	6432
799.5127	6380
801.9209	6406
804.3324	6434
806.7393	6367
809.1456	6391
811.5513	6441
813.9562	6573
816.3625	6533
818.7663	6532
821.1693	6550
823.5718	6531
825.9735	6571
828.3746	6515
830.7771	6500
833.177	6543
835.5762	6514
837.9747	6599
840.3727	6553
842.772	6578
845.1666	6508
847.5626	6694
849.958	6697
852.3527	6727
854.7488	6702
857.1403	6710
859.5331	6705
861.9253	6821
864.3168	6673
866.7057	6779
869.098	6669
871.4876	6590
873.8746	6618
876.263	6872
878.6487	6741
881.0378	6653
883.4243	6652
885.8081	6610
888.1933	6724
890.5759	6663
892.9598	6597
895.343	6722
897.7256	6611
900.1057	6704
902.4871	6704
904.8659	6676
907.246	6701
909.6254	6616
912.0023	6770
914.3786	6862
916.7562	7007
919.1331	7122
921.5074	7107
923.8831	7129
926.2562	7288
928.6287	7108
931.0005	7264
933.3757	7045
935.7462	7138
938.1162	7143
940.4855	7164
942.8542	7222
945.2242	7438
947.5916	7483
949.9584	7816
952.3266	7929
954.6921	8187
957.0571	8560
959.4233	8896
961.787	9064
964.15	8967
966.5125	8737
968.8742	8299
971.2354	8066
973.5959	7709
975.9559	7473
978.3151	7278
980.6738	7212
983.0338	7092
985.3912	7043
987.7461	7125
990.1022	6924
992.4578	6914
994.8127	6946
997.1689	6943
999.5207	7003
1001.874	7105
1004.226	7035
1006.576	7135
1008.929	7023
1011.28	6901
1013.628	6872
1015.977	6946
1018.324	6942
1020.674	6932
1023.019	7003
1025.366	6981
1027.713	7003
1030.056	7124
1032.399	7017
1034.746	7160
1037.087	6929
1039.431	7065
1041.771	6984
1044.113	7142
1046.454	7098
1048.793	7105
1051.133	7187
1053.471	7169
1055.807	7033
1058.146	7125
1060.483	7009
1062.818	7132
1065.153	7277
1067.489	7276
1069.822	7325
1072.156	7326
1074.488	7141
1076.82	7225
1079.15	7318
1081.48	7169
1083.814	7106
1086.143	7178
1088.471	7152
1090.799	7035
1093.126	6989
1095.452	7050
1097.78	7093
1100.105	7038
1102.43	7086
1104.754	7088
1107.077	7019
1109.4	7083
1111.722	7095
1114.044	7069
1116.365	7076
1118.685	7092
1121.005	7134
1123.324	7157
1125.643	7144
1127.961	7184
1130.278	7169
1132.595	7156
1134.911	7105
1137.226	7029
1139.541	7127
1141.854	7125
1144.167	7020
1146.482	7029
1148.793	7107
1151.105	6976
1153.414	7103
1155.725	7092
1158.033	7096
1160.344	7087
1162.651	7012
1164.959	7090
1167.265	7088
1169.572	7086
1171.878	7239
1174.184	7161
1176.488	7286
1178.79	7131
1181.094	7238
1183.396	7232
1185.699	7084
1188.001	7224
1190.301	7042
1192.6	7091
1194.9	7179
1197.2	7059
1199.497	7096
1201.794	7251
1204.09	6994
1206.387	7157
1208.684	7164
1210.978	7108
1213.272	7227
1215.565	7224
1217.858	7229
1220.15	7045
1222.443	7156
1224.734	7109
1227.024	7217
1229.313	7120
1231.602	7282
1233.892	7398
1236.18	7356
1238.467	7345
1240.754	7464
1243.04	7495
1245.325	7508
1247.612	7481
1249.896	7624
1252.178	7443
1254.461	7411
1256.743	7503
1259.027	7463
1261.308	7461
1263.587	7476
1265.867	7492
1268.146	7583
1270.425	7524
1272.703	7484
1274.981	7583
1277.256	7434
1279.532	7436
1281.808	7453
1284.083	7378
1286.358	7362
1288.63	7394
1290.904	7282
1293.175	7434
1295.449	7322
1297.719	7412
1299.99	7404
1302.259	7298
1304.529	7450
1306.798	7448
1309.065	7338
1311.333	7406
1313.599	7360
1315.866	7317
1318.131	7339
1320.396	7463
1322.66	7412
1324.925	7448
1327.187	7401
1329.448	7476
1331.711	7500
1333.974	7473
1336.234	7340
1338.493	7423
1340.752	7416
1343.01	7427
1345.269	7424
1347.526	7341
1349.784	7366
1352.04	7401
1354.295	7396
1356.552	7374
1358.806	7297
1361.059	7241
1363.312	7347
1365.564	7322
1367.818	7403
1370.069	7262
1372.318	7373
1374.568	7412
1376.817	7483
1379.066	7232
1381.316	7323
1383.564	7482
1385.809	7396
1388.056	7386
1390.301	7556
1392.549	7591
1394.793	7640
1397.036	7732
1399.279	7706
1401.522	7816
1403.763	7833
1406.007	7679
1408.248	7764
1410.487	7720
1412.727	7852
1414.965	7733
1417.205	7687
1419.442	7753
1421.68	7731
1423.915	7670
1426.152	7672
1428.388	7634
1430.623	7759
1432.857	7753
1435.091	7688
1437.323	7684
1439.556	7688
1441.789	7776
1444.019	7759
1446.25	7845
1448.48	7814
1450.708	7622
1452.938	7842
1455.167	7941
1457.394	7938
1459.62	7814
1461.846	7888
1464.073	7830
1466.299	7699
1468.523	7762
1470.746	7806
1472.969	7653
1475.191	7609
1477.415	7415
1479.636	7435
1481.858	7525
1484.078	7486
1486.298	7419
1488.518	7363
1490.736	7401
1492.954	7405
1495.169	7340
1497.386	7445
1499.602	7271
1501.819	7359
1504.034	7376
1506.248	7360
1508.462	7290
1510.675	7322
1512.888	7184
1515.1	7246
1517.311	7261
1519.522	7418
1521.732	7406
1523.942	7328
1526.151	7274
1528.36	7318
1530.566	7310
1532.773	7347
1534.98	7344
1537.187	7325
1539.392	7350
1541.596	7328
1543.801	7281
1546.005	7381
1548.208	7363
1550.411	7276
1552.612	7381
1554.814	7477
1557.013	7462
1559.212	7382
1561.414	7495
1563.612	7481
1565.811	7561
1568.007	7475
1570.203	7530
1572.403	7490
1574.598	7458
1576.792	7400
1578.988	7607
1581.181	7534
1583.376	7507
1585.568	7475
1587.761	7477
1589.952	7505
1592.143	7495
1594.333	7520
1596.524	7638
1598.715	7599
1600.903	7583
1603.091	7645
1605.278	7572
1607.466	7676
1609.652	7640
1611.838	7726
1614.023	7584
1616.207	7656
1618.391	7608
1620.576	7555
1622.759	7783
1624.941	7587
1627.123	7613
1629.304	7743
1631.484	7761
1633.664	7758
1635.844	7787
1638.022	7679
1640.201	7748
1642.38	7832
1644.556	7808
1646.732	7751
1648.908	7890
1651.084	7854
1653.257	7780
1655.433	7893
1657.607	7814
1659.779	7936
1661.951	7736
1664.122	7728
1666.295	7931
1668.467	7846
1670.635	7923
1672.805	7759
1674.973	7888
1677.142	7719
1679.31	7849
1681.478	7868
1683.644	7798
1685.81	7802
1687.975	7691
1690.142	7851
1692.305	7702
1694.468	7820
1696.632	7672
1698.794	7791
1700.957	7631
1703.119	7786
1705.279	7587
1707.439	7585
1709.598	7606
1711.758	7527
1713.917	7554
1716.075	7577
1718.231	7599
1720.388	7624
1722.543	7579
1724.702	7664
1726.856	7563
1729.01	7648
1731.164	7554
1733.317	7585
1735.471	7619
1737.623	7474
1739.774	7446
1741.925	7671
1744.075	7480
1746.225	7549
1748.376	7591
1750.524	7574
1752.672	7506
1754.82	7622
1756.965	7525
1759.113	7551
1761.259	7715
1763.405	7725
1765.549	7633
1767.694	7622
1769.836	7680
1771.981	7579
1774.123	7546
1776.264	7611
1778.405	7538
1780.546	7637
1782.687	7597
1784.827	7720
1786.966	7644
1789.103	7608
1791.242	7573
1793.381	7705
1795.517	7773
1797.653	7760
1799.788	7591
1801.923	7610
1804.057	7618
1806.193	7559
1808.326	7692
1810.457	7670
1812.59	7593
1814.721	7768
1816.855	7578
1818.984	7601
1821.113	7619
1823.244	7630
1825.372	7714
1827.499	7588
1829.63	7573
1831.756	7600
1833.882	7639
1836.007	7601
1838.132	7570
1840.26	7491
1842.384	7624
1844.507	7537
1846.63	7423
1848.752	7632
1850.875	7571
1852.996	7527
1855.118	7616
1857.238	7559
1859.358	7509
1861.477	7422
1863.597	7677
1865.715	7472
1867.832	7570
1869.948	7527
1872.064	7511
1874.181	7601
1876.297	7659
1878.411	7532
1880.526	7527
1882.639	7517
1884.752	7587
1886.865	7672
1888.977	7514
1891.089	7562
1893.2	7526
1895.308	7649
1897.42	7747
1899.53	7588
1901.639	7653
1903.745	7531
1905.853	7693
1907.962	7663
1910.067	7697
1912.174	7629
1914.278	7685
1916.383	7630
1918.486	7683
1920.592	7576
1922.694	7715
1924.797	7714
1926.898	7636
1929	7697
1931.102	7717
1933.203	7765
1935.301	7628
1937.401	7699
1939.499	7745
1941.598	7702
1943.697	7713
1945.793	7667
1947.888	7646
1949.985	7692
1952.08	7717
1954.176	7837
1956.269	7573
1958.364	7679
1960.457	7759
1962.549	7758
1964.642	7585
1966.733	7699
1968.823	7625
1970.913	7651
1973.005	7747
1975.093	7676
1977.184	7702
1979.271	7678
1981.359	7569
1983.446	7609
1985.532	7606
1987.619	7662
1989.705	7745
1991.789	7600
1993.874	7644
1995.956	7627
1998.041	7695
2000.123	7448
2002.206	7598
2004.287	7641
2006.368	7536
2008.449	7551
2010.529	7576
2012.609	7526
2014.688	7459
2016.766	7542
2018.843	7607
2020.922	7493
2022.999	7566
2025.074	7723
2027.15	7585
2029.225	7560
2031.299	7512
2033.375	7538
2035.447	7586
2037.52	7486
2039.592	7716
2041.664	7560
2043.736	7632
2045.807	7589
2047.876	7558
2049.947	7608
2052.015	7572
2054.086	7622
2056.153	7613
2058.221	7525
2060.288	7747
2062.353	7654
2064.42	7545
2066.486	7624
2068.55	7635
2070.614	7594
2072.678	7623
2074.741	7639
2076.805	7659
2078.866	7579
2080.929	7600
2082.99	7673
2085.049	7657
2087.109	7469
2089.17	7603
2091.228	7710
2093.286	7645
2095.344	7636
2097.4	7581
2099.46	7581
2101.516	7636
2103.572	7630
2105.626	7528
2107.679	7619
2109.735	7677
2111.788	7593
2113.841	7589
2115.894	7544
2117.945	7608
2119.997	7489
2122.049	7611
2124.1	7648
2126.148	7655
2128.197	7536
2130.246	7551
2132.296	7586
2134.342	7539
2136.39	7665
2138.437	7679
2140.483	7603
2142.527	7708
2144.574	7526
2146.619	7581
2148.661	7555
2150.705	7495
2152.747	7614
2154.792	7440
2156.832	7686
2158.874	7529
2160.915	7535
2162.954	7568
2164.995	7537
2167.034	7554
2169.072	7478
2171.111	7527
2173.148	7495
2175.186	7381
2177.223	7448
2179.258	7574
2181.294	7501
2183.328	7394
2185.362	7611
2187.398	7378
2189.431	7553
2191.463	7491
2193.495	7486
2195.528	7446
2197.56	7477
2199.59	7466
2201.62	7379
2203.649	7321
2205.678	7499
2207.708	7406
2209.737	7410
2211.764	7460
2213.791	7355
2215.817	7482
2217.843	7425
2219.87	7494
2221.895	7409
2223.919	7358
2225.942	7325
2227.966	7459
2229.988	7275
2232.012	7436
2234.032	7430
2236.054	7364
2238.074	7288
2240.095	7279
2242.116	7383
2244.135	7313
2246.153	7414
2248.171	7305
2250.188	7278
2252.208	7371
2254.223	7418
2256.239	7445
2258.255	7450
2260.269	7298
2262.283	7372
2264.3	7401
2266.312	7494
2268.325	7412
2270.336	7304
2272.349	7271
2274.362	7380
2276.372	7523
2278.383	7397
2280.392	7395
2282.402	7349
2284.409	7411
2286.418	7398
2288.427	7399
2290.433	7380
2292.441	7423
2294.446	7227
2296.453	7436
2298.459	7286
2300.463	7459
2302.466	7258
2304.471	7288
2306.475	7315
2308.477	7388
2310.478	7302
2312.481	7358
2314.481	7297
2316.481	7162
2318.482	7284
2320.482	7260
2322.48	7210
2324.48	7294
2326.478	7393
2328.476	7281
2330.473	7260
2332.469	7207
2334.465	7333
2336.46	7279
2338.454	7191
2340.45	7254
2342.444	7227
2344.437	7117
2346.43	7098
2348.421	7203
2350.414	7293
2352.405	7260
2354.396	7275
2356.386	7138
2358.376	7213
2360.366	7296
2362.355	7165
2364.343	7205
2366.331	7081
2368.317	7193
2370.304	7103
2372.292	7179
2374.278	7241
2376.262	7234
2378.247	7020
2380.23	7143
2382.216	7073
2384.199	7103
2386.181	7230
2388.163	7170
2390.144	7075
2392.127	7095
2394.107	7009
2396.087	7126
2398.066	7086
2400.046	7161
2402.023	7172
2404.004	7070
2405.981	7162
2407.957	7116
2409.934	7016
2411.91	7267
2413.886	7038
2415.862	7034
2417.836	7144
2419.809	7148
2421.784	7010
2423.756	7034
2425.73	6974
2427.701	7085
2429.672	7178
2431.644	7157
2433.615	6937
2435.586	7019
2437.555	7001
2439.523	7094
2441.491	7080
2443.459	7007
2445.428	7069
2447.395	7076
2449.361	7065
2451.327	7083
2453.292	7063
2455.257	7038
2457.223	7095
2459.187	7047
2461.15	7003
2463.113	7072
2465.076	7171
2467.039	7067
2468.999	7088
2470.96	6927
2472.921	6921
2474.881	6919
2476.841	7040
2478.8	7045
2480.759	6965
2482.717	7082
2484.675	6932
2486.63	6948
2488.589	7132
2490.545	6917
2492.5	6945
2494.455	6889
2496.408	7024
2498.364	6920
2500.318	6958
2502.27	6937
2504.223	6861
2506.174	7019
2508.126	6971
2510.078	6886
2512.03	7005
2513.979	6931
2515.927	6973
2517.877	7014
2519.826	6866
2521.775	6898
2523.722	6938
2525.668	6877
2527.616	6902
2529.561	6844
2531.508	6828
2533.452	7040
2535.398	6974
2537.342	6944
2539.284	6976
2541.229	6996
2543.173	6887
2545.114	6972
2547.055	6970
2548.996	6860
2550.938	6882
2552.878	6946
2554.817	6864
2556.756	6926
2558.695	6880
2560.633	6912
2562.572	6913
2564.509	6819
2566.445	7030
2568.382	6895
2570.317	7001
2572.254	6972
2574.189	6962
2576.123	6861
2578.057	6882
2579.99	6884
2581.923	7004
2583.855	6841
2585.788	6937
2587.719	6922
2589.65	6975
2591.579	6813
2593.511	6950
2595.44	6853
2597.37	6911
2599.297	6871
2601.225	6977
2603.153	6920
2605.08	6919
2607.007	6882
2608.932	6809
2610.858	6931
2612.782	6876
2614.709	6871
2616.632	6847
2618.556	6848
2620.478	6972
2622.401	6970
2624.324	7003
2626.247	6855
2628.167	6986
2630.088	6947
2632.008	6947
2633.928	6812
2635.848	6990
2637.766	6929
2639.684	6903
2641.603	6922
2643.519	6975
2645.437	6978
2647.353	6803
2649.27	6890
2651.184	6978
2653.099	6971
2655.014	6936
2656.928	6917
2658.842	6886
2660.755	6856
2662.667	6913
2664.579	6896
2666.491	6898
2668.402	6885
2670.312	6915
2672.222	6889
2674.132	6839
2676.042	6913
2677.951	6890
2679.859	6759
2681.766	6869
2683.674	6826
2685.582	6843
2687.488	6827
2689.392	6864
2691.298	6675
2693.202	6796
2695.107	6716
2697.012	6796
2698.914	6840
2700.817	6793
2702.72	6739
2704.622	6867
2706.524	6778
2708.425	6704
2710.326	6816
2712.225	6853
2714.125	6790
2716.024	6824
2717.923	6656
2719.822	6766
2721.719	6664
2723.616	6740
2725.512	6841
2727.41	6801
2729.305	6838
2731.201	6862
2733.095	6922
2734.99	6853
2736.884	6814
2738.778	6854
2740.67	6753
2742.562	6625
2744.455	6802
2746.346	6855
2748.238	6713
2750.129	6783
2752.018	6802
2753.907	6728
2755.797	6779
2757.687	6758
2759.575	6745
2761.462	6765
2763.349	6729
2765.237	6828
2767.124	6788
2769.009	6660
2770.894	6706
2772.779	6695
2774.663	6771
2776.547	6744
2778.431	6830
2780.314	6682
2782.197	6731
2784.078	6730
2785.96	6705
2787.842	6557
2789.723	6771
2791.603	6775
2793.483	6638
2795.362	6681
2797.241	6778
2799.121	6640
2800.997	6633
2802.874	6686
2804.751	6659
2806.628	6680
2808.506	6761
2810.38	6653
2812.255	6645
2814.13	6617
2816.003	6712
2817.878	6758
2819.752	6591
2821.623	6773
2823.496	6624
2825.368	6690
2827.238	6614
2829.111	6776
2830.98	6714
2832.851	6743
2834.719	6781
2836.589	6806
2838.458	6671
2840.327	6643
2842.193	6738
2844.061	6731
2845.927	6706
2847.794	6716
2849.66	6671
2851.525	6639
2853.39	6845
2855.254	6836
2857.117	6886
2858.983	6732
2860.845	6889
2862.707	6925
2864.569	6959
2866.431	6992
2868.293	6953
2870.154	7075
2872.013	7175
2873.873	7188
2875.733	7138
2877.592	7313
2879.451	7359
2881.309	7523
2883.166	7559
2885.022	7496
2886.879	7712
2888.736	7626
2890.591	7622
2892.446	7611
2894.301	7651
2896.155	7617
2898.009	7672
2899.863	7607
2901.716	7523
2903.568	7441
2905.419	7704
2907.27	7600
2909.123	7701
2910.973	7585
2912.824	7803
2914.673	7760
2916.521	7697
2918.372	7997
2920.22	7985
2922.067	8016
2923.914	8072
2925.761	8058
2927.607	8080
2929.455	8216
2931.301	8385
2933.144	8444
2934.99	8455
2936.833	8420
2938.678	8540
2940.522	8626
2942.364	8912
2944.207	8931
2946.048	9014
2947.891	9092
2949.731	9046
2951.571	9000
2953.412	8999
2955.25	8764
2957.09	8849
2958.93	8721
2960.767	8587
2962.606	8499
2964.443	8582
2966.279	8326
2968.116	8097
2969.953	8154
2971.788	8084
2973.623	7989
2975.457	7941
2977.292	7942
2979.127	7794
2980.959	7671
2982.792	7663
2984.624	7685
2986.455	7660
2988.288	7515
2990.119	7481
2991.949	7435
2993.779	7300
2995.608	7354
2997.439	7300
2999.268	7250
3001.096	7207
3002.923	7092
3004.751	7009
3006.578	7071
3008.406	6983
3010.232	6858
3012.057	6821
3013.883	6758
3015.706	6753
3017.532	6748
3019.356	6611
3021.179	6679
3023.002	6651
3024.823	6551
3026.646	6658
3028.469	6626
3030.289	6605
3032.11	6545
3033.93	6547
3035.749	6546
3037.57	6412
3039.39	6348
3041.207	6395
3043.026	6370
3044.842	6443
3046.661	6389
3048.477	6488
3050.294	6505
3052.109	6464
3053.925	6425
3055.739	6401
3057.555	6439
3059.368	6386
3061.181	6471
3062.995	6348
3064.807	6384
3066.62	6407
3068.433	6376
3070.243	6350
3072.054	6415
3073.865	6252
3075.675	6243
3077.485	6335
3079.293	6300
3081.102	6324
3082.911	6278
3084.719	6128
3086.527	6289
3088.333	6353
3090.139	6236
3091.945	6232
3093.75	6121
3095.557	6274
3097.361	6266
3099.165	6260
3100.969	6021
3102.772	6220
3104.575	6239
3106.379	6266
3108.181	6116
3109.982	6091
3111.783	6143
3113.584	6100
3115.386	6072
3117.186	6181
3118.985	6178
3120.783	6123
3122.582	6140
3124.381	6070
3126.179	6131
3127.975	6066
3129.772	5967
3131.569	6081
3133.365	5950
3135.161	6218
3136.956	6102
3138.751	6079
3140.544	6091
3142.338	6067
3144.132	6080
3145.925	5970
3147.717	6117
3149.509	6029
3151.301	6091
3153.091	6070
3154.884	6006
3156.673	6057
3158.462	6005
3160.252	6008
3162.041	5987
3163.831	5933
3165.618	6035
3167.405	6004
3169.193	6057
3170.979	5952
3172.767	6006
3174.553	5947
3176.338	6098
3178.123	6047
3179.907	5940
3181.692	5969
3183.477	5981
3185.259	6019
3187.042	5960
3188.824	5975
3190.607	6032
3192.389	6036
3194.17	6053
3195.951	5879
3197.73	5913
3199.51	6014
3201.289	5985
3203.07	5931
3204.848	6022
3206.626	5978
3208.403	5880
3210.18	5869
3211.959	6056
3213.735	5970
3215.511	6074
3217.285	5955
3219.06	5977
3220.836	5984
3222.611	5913
3224.384	5963
3226.158	5997
3227.929	5904
3229.702	5934
3231.476	5921
3233.248	5991
3235.018	5980
3236.789	5816
3238.56	5988
3240.33	5959
3242.1	5837
3243.869	5958
3245.637	6053
3247.405	5864
3249.172	6110
3250.941	5983
3252.707	6015
3254.474	5952
3256.24	5939
3258.006	5967
3259.772	6000
3261.537	5900
3263.301	6057
3265.065	5924
3266.828	5979
3268.592	5937
3270.355	6007
3272.117	5990
3273.878	5968
3275.64	5867
3277.401	6046
3279.162	5951
3280.922	6001
3282.682	5882
3284.441	5922
3286.199	6017
3287.959	5880
3289.716	5967
3291.475	6079
3293.232	5965
3294.988	5953
3296.744	5945
3298.501	5951
3300.256	5971
3302.011	5937
3303.766	6024
3305.52	5932
3307.275	5918
3309.028	5982
3310.781	6061
3312.533	5977
3314.285	6032
3316.038	6006
3317.789	5968
3319.54	5971
3321.289	6031
3323.039	5943
3324.789	5949
3326.539	5937
3328.288	5996
3330.035	5846
3331.783	5906
3333.531	5912
3335.28	5951
3337.025	5935
3338.771	5857
3340.518	5965
3342.262	5870
3344.009	5849
3345.753	5932
3347.497	5905
3349.24	5831
3350.983	5913
3352.726	5755
3354.469	5961
3356.212	5873
3357.952	5816
3359.694	5807
3361.434	5935
3363.176	5791
3364.916	5751
3366.654	5769
3368.394	5865
3370.132	5846
3371.871	5799
3373.61	5837
3375.346	5734
3377.083	5629
3378.82	5781
3380.556	5743
3382.292	5746
3384.027	5821
3385.763	5601
3387.497	5730
3389.231	5683
3390.965	5725
3392.698	5702
3394.431	5682
3396.164	5720
3397.896	5773
3399.627	5759
3401.36	5697
3403.09	5691
3404.82	5582
3406.55	5648
3408.279	5677
3410.01	5701
3411.738	5757
3413.467	5713
3415.194	5669
3416.92	5791
3418.647	5692
3420.375	5614
3422.102	5706
3423.827	5592
3425.553	5654
3427.277	5641
3429.003	5739
3430.727	5616
3432.451	5578
3434.173	5631
3435.896	5566
3437.62	5658
3439.343	5636
3441.063	5501
3442.785	5657
3444.505	5586
3446.226	5539
3447.948	5492
3449.666	5570
3451.386	5459
3453.104	5427
3454.823	5516
3456.541	5585
3458.259	5519
3459.976	5443
3461.693	5507
3463.408	5568
3465.125	5417
3466.841	5520
3468.556	5441
3470.271	5355
3471.985	5439
3473.698	5323
3475.414	5436
3477.126	5351
3478.838	5289
3480.55	5323
3482.263	5287
3483.975	5278
3485.686	5359
3487.396	5336
3489.106	5364
3490.817	5278
3492.526	5330
3494.236	5187
3495.944	5318
3497.652	5380
3499.359	5265
3501.066	5201
3502.775	5312
3504.481	5228
3506.187	5166
3507.893	5265
3509.598	5189
3511.304	5260
3513.009	5179
3514.713	5283
3516.417	5158
3518.12	5058
3519.821	5263
3521.525	5267
3523.228	5270
3524.929	5239
3526.631	5207
3528.33	5056
3530.032	5155
3531.733	5250
3533.433	5223
3535.131	5154
3536.83	5209
3538.529	5176
3540.227	5224
3541.925	5084
3543.623	5040
3545.319	5084
3547.016	5101
3548.712	5085
3550.408	5073
3552.103	5089
3553.798	5055
3555.491	5118
3557.188	5113
3558.88	5040
3560.574	5079
3562.266	4938
3563.959	5062
3565.651	5017
3567.343	4981
3569.035	5026
3570.725	4963
3572.415	4961
3574.106	5093
3575.797	5038
3577.485	5000
3579.174	4968
3580.863	4995
3582.551	4988
3584.238	4988
3585.926	4927
3587.613	4940
3589.3	4906
3590.986	4992
3592.671	4985
3594.357	4874
3596.042	4867
3597.726	4905
3599.41	4946
3601.094	4893
3602.778	4868
3604.461	4937
3606.143	4953
3607.825	4915
3609.507	4922
3611.188	4814
3612.87	4872
3614.551	4785
3616.229	4847
3617.909	4780
3619.589	4753
3621.269	4673
3622.948	4746
3624.625	4848
3626.302	4725
3627.98	4807
3629.657	4858
3631.334	4780
3633.01	4730
3634.686	4706
3636.361	4783
3638.036	4714
3639.712	4734
3641.385	4817
3643.06	4597
3644.732	4703
3646.405	4671
3648.08	4673
3649.751	4685
3651.424	4632
3653.094	4760
3654.766	4597
3656.436	4582
3658.106	4683
3659.777	4650
3661.446	4587
3663.115	4629
3664.783	4627
3666.452	4561
3668.121	4592
3669.788	4577
3671.454	4709
3673.121	4528
3674.789	4691
3676.455	4550
3678.12	4566
3679.784	4547
3681.45	4671
3683.114	4500
3684.779	4627
3686.442	4514
3688.105	4598
3689.768	4564
3691.43	4684
3693.093	4516
3694.754	4597
3696.415	4565
3698.076	4627
3699.736	4499
3701.396	4487
3703.057	4638
3704.716	4437
3706.375	4480
3708.034	4533
3709.692	4495
3711.351	4578
3713.008	4549
3714.665	4548
3716.321	4495
3717.977	4454
3719.634	4569
3721.29	4514
3722.945	4489
3724.598	4537
3726.253	4480
3727.907	4574
3729.561	4426
3731.214	4507
3732.867	4429
3734.518	4512
3736.171	4425
3737.824	4459
3739.474	4451
3741.125	4508
3742.775	4538
3744.425	4448
3746.074	4468
3747.725	4374
3749.373	4436
3751.022	4349
3752.669	4497
3754.318	4412
3755.966	4480
3757.612	4395
3759.259	4401
3760.905	4360
3762.55	4403
3764.197	4303
3765.842	4376
3767.486	4449
3769.131	4412
3770.774	4367
3772.417	4402
3774.061	4393
3775.705	4374
3777.347	4433
3778.988	4327
3780.629	4300
3782.271	4341
3783.912	4347
3785.552	4301
3787.192	4371
3788.831	4325
3790.472	4407
3792.112	4299
3793.75	4276
3795.388	4342
3797.024	4290
3798.661	4294
3800.3	4231
3801.936	4339
3803.572	4298
3805.208	4288
3806.844	4291
3808.48	4349
3810.115	4284
3811.748	4314
3813.382	4310
3815.016	4300
3816.649	4262
3818.283	4234
3819.914	4245
3821.547	4234
3823.178	4294
3824.809	4223
3826.441	4208
3828.072	4287
3829.701	4257
3831.331	4208
3832.96	4227
3834.591	4234
3836.219	4233
3837.847	4258
3839.475	4213
3841.102	4208
3842.729	4218
3844.357	4271
3845.984	4257
3847.609	4242
3849.234	4197
3850.86	4221
3852.485	4149
3854.11	4153
3855.734	4204
3857.357	4230
3858.981	4162
3860.603	4213
3862.227	4199
3863.848	4247
3865.471	4176
3867.092	4159
3868.713	4128
3870.334	4076
3871.954	4190
3873.575	4129
3875.194	4144
3876.813	4106
3878.433	4123
3880.051	4144
3881.669	4089
3883.286	4110
3884.904	4120
3886.52	4200
3888.138	4142
3889.754	4131
3891.37	4076
3892.985	4104
3894.6	4066
3896.216	4169
3897.831	4016
3899.444	4137
3901.058	4142
3902.67	4161
3904.283	4088
3905.897	4169
3907.509	4062
3909.121	4105
3910.731	4032
3912.342	4110
3913.954	4084
3915.563	4145
3917.174	4043
3918.783	4067
3920.391	4135
3922.002	4001
3923.611	4062
3925.218	3989
3926.826	4049
3928.432	4064
3930.039	4019
3931.647	4005
3933.253	4081
3934.859	4082
3936.464	4101
3938.068	4005
3939.675	4054
3941.278	4050
3942.883	4086
3944.486	3996
3946.089	4078
3947.692	4046
3949.295	4012
3950.898	4075
3952.499	4010
3954.1	4016
3955.7	3968
3957.303	3973
3958.903	4023
3960.502	3981
3962.101	3992
3963.7	3970
3965.301	4052
3966.899	3945
3968.497	3897
3970.094	3999
3971.691	4040
3973.288	3967
3974.885	4005
3976.481	3959
3978.077	3998
3979.672	3995
3981.267	3918
3982.863	3933
3984.457	3895
3986.051	3907
3987.645	3971
3989.238	3845
3990.831	3942
3992.425	3908
3994.017	3989
3995.607	3929
3997.199	3929
3998.79	3927
4000.382	3922
4001.973	3932
4003.561	3895
4005.151	3791
4006.741	3815
4008.331	3898
4009.918	3877
4011.507	3853
4013.095	3856
4014.681	3904
4016.269	3807
4017.856	3855
4019.443	3889
4021.028	3890
4022.614	3843
4024.199	3783
4025.785	3812
4027.37	3834
4028.953	3809
4030.536	3801
4032.12	3777
4033.704	3806
4035.287	3822
4036.869	3806
4038.45	3746
4040.032	3802
4041.613	3846
4043.195	3774
4044.776	3725
4046.356	3772
4047.935	3890
4049.515	3861
4051.095	3723
4052.674	3802
4054.251	3739
4055.829	3786
4057.406	3757
4058.985	3773
4060.562	3788
4062.139	3748
4063.715	3742
4065.29	3731
4066.865	3826
4068.442	3706
4070.016	3726
4071.59	3740
4073.164	3774
4074.738	3661
4076.312	3717
4077.885	3692
4079.458	3734
4081.03	3793
4082.602	3701
4084.173	3718
4085.745	3645
4087.315	3685
4088.886	3707
4090.456	3654
4092.026	3714
4093.596	3699
4095.165	3666
4096.734	3680
4098.301	3646
4099.869	3684
4101.437	3623
4103.006	3748
4104.572	3645
4106.139	3604
4107.704	3658
4109.27	3685
4110.837	3677
4112.401	3696
4113.966	3641
4115.53	3641
4117.094	3639
4118.659	3700
4120.223	3642
4121.785	3642
4123.347	3675
4124.909	3707
4126.471	3605
4128.034	3591
4129.595	3619
4131.155	3673
4132.716	3616
4134.275	3559
4135.836	3600
4137.395	3554
4138.955	3549
4140.513	3691
4142.071	3591
4143.628	3560
4145.188	3620
4146.745	3588
4148.302	3636
4149.858	3605
4151.414	3598
4152.971	3644
4154.526	3540
4156.081	3548
4157.635	3496
4159.189	3474
4160.745	3581
4162.298	3494
4163.852	3478
4165.405	3542
4166.957	3556
4168.51	3504
4170.063	3484
4171.614	3472
4173.166	3491
4174.717	3484
4176.267	3537
4177.817	3408
4179.368	3441
4180.917	3473
4182.466	3499
4184.016	3468
4185.564	3516
4187.112	3476
4188.66	3450
4190.207	3438
4191.754	3469
4193.301	3532
4194.848	3456
4196.394	3444
4197.94	3451
4199.484	3451
4201.03	3479
4202.575	3477
4204.12	3443
4205.663	3433
4207.207	3417
4208.75	3341
4210.292	3495
4211.836	3413
4213.378	3400
4214.92	3435
4216.46	3372
4218.002	3453
4219.544	3464
4221.083	3365
4222.625	3447
4224.164	3427
4225.703	3428
4227.244	3384
4228.782	3350
4230.32	3382
4231.857	3489
4233.395	3340
4234.933	3405
4236.471	3428
4238.007	3368
4239.542	3419
4241.078	3403
4242.614	3361
4244.15	3355
4245.685	3414
4247.219	3393
4248.753	3360
4250.287	3359
4251.82	3425
4253.354	3394
4254.887	3317
4256.419	3309
4257.951	3348
4259.483	3440
4261.016	3271
4262.547	3310
4264.078	3419
4265.608	3331
4267.137	3380
4268.668	3347
4270.197	3332
4271.727	3367
4273.254	3384
4274.783	3302
4276.311	3346
4277.84	3366
4279.366	3416
4280.894	3343
4282.42	3226
4283.946	3319
4285.473	3339
4286.998	3322
4288.523	3371
4290.047	3278
4291.572	3211
4293.096	3312
4294.622	3293
4296.144	3293
4297.668	3294
4299.19	3288
4300.713	3199
4302.236	3294
4303.758	3341
4305.279	3189
4306.799	3231
4308.321	3360
4309.842	3264
4311.361	3277
4312.882	3274
4314.401	3208
