400.0961	5094
402.6185	5139
405.1424	5088
407.6635	5126
410.1838	5038
412.7035	5232
415.2225	5070
417.7388	5183
420.2585	5214
422.7754	5288
425.2917	5367
427.8072	5326
430.3221	5468
432.8363	5410
435.3498	5435
437.8626	5442
440.3727	5415
442.8841	5382
445.3969	5476
447.907	5533
450.4142	5359
452.9229	5429
455.4289	5507
457.9362	5431
460.4449	5396
462.9488	5363
465.454	5330
467.9566	5395
470.4604	5365
472.9637	5301
475.4662	5456
477.966	5378
480.4671	5433
482.9656	5401
485.4633	5508
487.9645	5566
490.4608	5505
492.9566	5461
495.4536	5572
497.948	5575
500.4437	5634
502.9387	5566
505.431	5669
507.9226	5569
510.4136	5541
512.9079	5620
515.3975	5752
517.8864	5523
520.3746	5599
522.8622	5638
525.3491	5634
527.8394	5702
530.3249	5544
532.8098	5682
535.2939	5659
537.7774	5710
540.2623	5613
542.7444	5565
545.2259	5581
547.7067	5661
550.1868	5662
552.6683	5654
555.147	5738
557.6231	5713
560.1005	5699
562.5773	5846
565.0534	5778
567.5308	5807
570.0056	5739
572.4776	5771
574.951	5833
577.4237	5934
579.8978	5831
582.3671	5932
584.8378	5808
587.3079	6000
589.7773	5970
592.244	5903
594.714	5940
597.1793	5831
599.6461	5906
602.1121	5802
604.5754	5865
607.0421	5944
609.5042	5860
611.9675	5904
614.4282	5879
616.8902	5817
619.3515	5853
621.8122	5853
624.2702	5855
626.7296	5873
629.1863	5868
631.6423	5740
634.1017	5802
636.5563	5904
639.0104	5803
641.4658	5846
643.9185	5824
646.3725	6037
648.8239	5880
651.2766	6023
653.7266	5936
656.176	5983
658.6247	6026
661.0748	5987
663.5242	5983
665.9709	5847
668.417	6001
670.8624	6002
673.3092	5978
675.7533	6128
678.1968	5989
680.6395	6103
683.0817	6059
685.5251	6147
687.9659	6146
690.4061	6143
692.8456	6089
695.2844	6198
697.7226	6056
700.1621	6116
702.599	6084
705.0332	6107
707.4688	6140
709.9036	6209
712.3399	6222
714.7735	6111
717.2044	6196
719.6367	6205
722.0683	6264
724.4993	6256
726.9296	6225
729.3593	6310
731.7883	6294
734.2147	6258
736.6423	6402
739.0714	6321
741.4958	6390
743.9216	6313
746.3447	6413
748.7691	6344
751.1929	6439
753.616	6545
756.0366	6451
758.4584	6377
760.8776	6576
763.2982	6490
765.718	6552
768.1373	6564
770.5539	6525
772.9698	6400
775.3871	6542
777.8038	6531
780.2178	6450
782.6332	6485
785.0459	6424
787.458	6570
789.8714	6599
792.2842	6541
794.6943	6491
797.1038	6485
799.5127	6460
801.9209	6562
804.3324	6662
806.7393	6472
809.1456	6598
811.5513	6653
813.9562	6589
816.3625	6736
818.7663	6649
821.1693	6675
823.5718	6679
825.9735	6545
828.3746	6661
830.7771	6672
833.177	6674
835.5762	6666
837.9747	6756
840.3727	6772
842.772	6814
845.1666	6766
847.5626	6597
849.958	6836
852.3527	6725
854.7488	6922
857.1403	6797
859.5331	6850
861.9253	6755
864.3168	6807
866.7057	6772
869.098	6710
871.4876	6812
873.8746	6762
876.263	6771
878.6487	6799
881.0378	6809
883.4243	6858
885.8081	6755
888.1933	6721
890.5759	6666
892.9598	6765
895.343	6763
897.7256	6745
900.1057	6821
902.4871	6823
904.8659	6790
907.246	6737
909.6254	6890
912.0023	7045
914.3786	6931
916.7562	7095
919.1331	7156
921.5074	7141
923.8831	7216
926.2562	7276
928.6287	7251
931.0005	7300
933.3757	7176
935.7462	7205
938.1162	7160
940.4855	7252
942.8542	7228
945.2242	7257
947.5916	7258
949.9584	7498
952.3266	7458
954.6921	7743
957.0571	7734
959.4233	7982
961.787	8200
964.15	8022
966.5125	8015
968.8742	7831
971.2354	7661
973.5959	7437
975.9559	7409
978.3151	7230
980.6738	7357
983.0338	7267
985.3912	7124
987.7461	7120
990.1022	7138
992.4578	7024
994.8127	7085
997.1689	7018
999.5207	6967
1001.874	7039
1004.226	7077
1006.576	7120
1008.929	7132
1011.28	7042
1013.628	6926
1015.977	7066
1018.324	7063
1020.674	7105
1023.019	7143
1025.366	7096
1027.713	7084
1030.056	7012
1032.399	7131
1034.746	7102
1037.087	7126
1039.431	7215
1041.771	7157
1044.113	7279
1046.454	7079
1048.793	7083
1051.133	7172
1053.471	7167
1055.807	7168
1058.146	7184
1060.483	7136
1062.818	7144
1065.153	7238
1067.489	7213
1069.822	7302
1072.156	7251
1074.488	7330
1076.82	7393
1079.15	7231
1081.48	7131
1083.814	7157
1086.143	7252
1088.471	7266
1090.799	7120
1093.126	7265
1095.452	7268
1097.78	7132
1100.105	7095
1102.43	7190
1104.754	7091
1107.077	7243
1109.4	7235
1111.722	7266
1114.044	7173
1116.365	7197
1118.685	7326
1121.005	7345
1123.324	7267
1125.643	7199
1127.961	7379
1130.278	7374
1132.595	7323
1134.911	7421
1137.226	7225
1139.541	7268
1141.854	7193
1144.167	7185
1146.482	7292
1148.793	7327
1151.105	7243
1153.414	7250
1155.725	7262
1158.033	7364
1160.344	7237
1162.651	7306
1164.959	7211
1167.265	7235
1169.572	7310
1171.878	7235
1174.184	7309
1176.488	7326
1178.79	7357
1181.094	7318
1183.396	7388
1185.699	7261
1188.001	7294
1190.301	7321
1192.6	7247
1194.9	7392
1197.2	7259
1199.497	7276
1201.794	7376
1204.09	7200
1206.387	7407
1208.684	7214
1210.978	7293
1213.272	7204
1215.565	7360
1217.858	7396
1220.15	7367
1222.443	7318
1224.734	7515
1227.024	7356
1229.313	7498
1231.602	7441
1233.892	7472
1236.18	7575
1238.467	7482
1240.754	7451
1243.04	7664
1245.325	7547
1247.612	7639
1249.896	7562
1252.178	7540
1254.461	7546
1256.743	7637
1259.027	7587
1261.308	7723
1263.587	7548
1265.867	7637
1268.146	7590
1270.425	7691
1272.703	7609
1274.981	7745
1277.256	7588
1279.532	7703
1281.808	7408
1284.083	7599
1286.358	7392
1288.63	7541
1290.904	7516
1293.175	7569
1295.449	7486
1297.719	7531
1299.99	7499
1302.259	7410
1304.529	7430
1306.798	7456
1309.065	7380
1311.333	7561
1313.599	7599
1315.866	7635
1318.131	7433
1320.396	7549
1322.66	7526
1324.925	7531
1327.187	7539
1329.448	7630
1331.711	7678
1333.974	7721
1336.234	7743
1338.493	7566
1340.752	7509
1343.01	7538
1345.269	7555
1347.526	7491
1349.784	7481
1352.04	7593
1354.295	7496
1356.552	7476
1358.806	7618
1361.059	7491
1363.312	7474
1365.564	7290
1367.818	7656
1370.069	7512
1372.318	7537
1374.568	7604
1376.817	7381
1379.066	7660
1381.316	7670
1383.564	7674
1385.809	7663
1388.056	7790
1390.301	7672
1392.549	7730
1394.793	7808
1397.036	7890
1399.279	7852
1401.522	7891
1403.763	7899
1406.007	7947
1408.248	7819
1410.487	7958
1412.727	7890
1414.965	7921
1417.205	7889
1419.442	7925
1421.68	7846
1423.915	7751
1426.152	7911
1428.388	7744
1430.623	7891
1432.857	7907
1435.091	7883
1437.323	7746
1439.556	7943
1441.789	7913
1444.019	7917
1446.25	7990
1448.48	7834
1450.708	7920
1452.938	7900
1455.167	7979
1457.394	7901
1459.62	8017
1461.846	7905
1464.073	7783
1466.299	7784
1468.523	7805
1470.746	7854
1472.969	7851
1475.191	7739
1477.415	7762
1479.636	7588
1481.858	7630
1484.078	7749
1486.298	7639
1488.518	7529
1490.736	7547
1492.954	7517
1495.169	7578
1497.386	7662
1499.602	7664
1501.819	7712
1504.034	7556
1506.248	7461
1508.462	7546
1510.675	7706
1512.888	7442
1515.1	7553
1517.311	7628
1519.522	7514
1521.732	7489
1523.942	7628
1526.151	7477
1528.36	7547
1530.566	7485
1532.773	7460
1534.98	7527
1537.187	7643
1539.392	7634
1541.596	7746
1543.801	7519
1546.005	7554
1548.208	7756
1550.411	7599
1552.612	7667
1554.814	7580
1557.013	7578
1559.212	7708
1561.414	7761
1563.612	7616
1565.811	7707
1568.007	7769
1570.203	7707
1572.403	7594
1574.598	7803
1576.792	7674
1578.988	7833
1581.181	7756
1583.376	7827
1585.568	7750
1587.761	7674
1589.952	7841
1592.143	7787
1594.333	7774
1596.524	7883
1598.715	7898
1600.903	7742
1603.091	7846
1605.278	7813
1607.466	7846
1609.652	7881
1611.838	7721
1614.023	7786
1616.207	7732
1618.391	7847
1620.576	7774
1622.759	7811
1624.941	7993
1627.123	7903
1629.304	8000
1631.484	7783
1633.664	7916
1635.844	7883
1638.022	7829
1640.201	7810
1642.38	7823
1644.556	7762
1646.732	7842
1648.908	7904
1651.084	7987
1653.257	7916
1655.433	7924
1657.607	7856
1659.779	7980
1661.951	7882
1664.122	8009
1666.295	8052
1668.467	7893
1670.635	8005
1672.805	7870
1674.973	7913
1677.142	7944
1679.31	7976
1681.478	7841
1683.644	7877
1685.81	8075
1687.975	7837
1690.142	7906
1692.305	7816
1694.468	7912
1696.632	7915
1698.794	7757
1700.957	7808
1703.119	7862
1705.279	7876
1707.439	7836
1709.598	7834
1711.758	7841
1713.917	7722
1716.075	7759
1718.231	7694
1720.388	7731
1722.543	7828
1724.702	7756
1726.856	7822
1729.01	7775
1731.164	7795
1733.317	7697
1735.471	7843
1737.623	7758
1739.774	7778
1741.925	7755
1744.075	7851
1746.225	7880
1748.376	7667
1750.524	7694
1752.672	7857
1754.82	7677
1756.965	7770
1759.113	7655
1761.259	7744
1763.405	7786
1765.549	7958
1767.694	7763
1769.836	7795
1771.981	7934
1774.123	7768
1776.264	7832
1778.405	7882
1780.546	7685
1782.687	7766
1784.827	7771
1786.966	7859
1789.103	7740
1791.242	7874
1793.381	7984
1795.517	7768
1797.653	7768
1799.788	7841
1801.923	7840
1804.057	7840
1806.193	7809
1808.326	7846
1810.457	7785
1812.59	7839
1814.721	7956
1816.855	7787
1818.984	7844
1821.113	7879
1823.244	7810
1825.372	7994
1827.499	7794
1829.63	7807
1831.756	7860
1833.882	7739
1836.007	7645
1838.132	7754
1840.26	7913
1842.384	7770
1844.507	7746
1846.63	7782
1848.752	7706
1850.875	7789
1852.996	7830
1855.118	7753
1857.238	7758
1859.358	7731
1861.477	7748
1863.597	7749
1865.715	7694
1867.832	7688
1869.948	7859
1872.064	7672
1874.181	7715
1876.297	7716
1878.411	7699
1880.526	7721
1882.639	7753
1884.752	7739
1886.865	7819
1888.977	7797
1891.089	7708
1893.2	7888
1895.308	7807
1897.42	7722
1899.53	7720
1901.639	7854
1903.745	7739
1905.853	7863
1907.962	7772
1910.067	7822
1912.174	7825
1914.278	7845
1916.383	7891
1918.486	7840
1920.592	7902
1922.694	7793
1924.797	7948
1926.898	7961
1929	7995
1931.102	7802
1933.203	7970
1935.301	7944
1937.401	7910
1939.499	7935
1941.598	7892
1943.697	8043
1945.793	8018
1947.888	7874
1949.985	7986
1952.08	7843
1954.176	7718
1956.269	7936
1958.364	7835
1960.457	7947
1962.549	7965
1964.642	7801
1966.733	7924
1968.823	7809
1970.913	7701
1973.005	7897
1975.093	7687
1977.184	7772
1979.271	7909
1981.359	7849
1983.446	7854
1985.532	7811
1987.619	7865
1989.705	7909
1991.789	7765
1993.874	7850
1995.956	7788
1998.041	7828
2000.123	7736
2002.206	7766
2004.287	7841
2006.368	7786
2008.449	7836
2010.529	7748
2012.609	7747
2014.688	7761
2016.766	7820
2018.843	7833
2020.922	7851
2022.999	7720
2025.074	7809
2027.15	7750
2029.225	7752
2031.299	7886
2033.375	7907
2035.447	7815
2037.52	7788
2039.592	7799
2041.664	7839
2043.736	7932
2045.807	7827
2047.876	7717
2049.947	7693
2052.015	7765
2054.086	7819
2056.153	7848
2058.221	7877
2060.288	7853
2062.353	7752
2064.42	7741
2066.486	7809
2068.55	7760
2070.614	7675
2072.678	7853
2074.741	7705
2076.805	7678
2078.866	7802
2080.929	7710
2082.99	7672
2085.049	7913
2087.109	7719
2089.17	7763
2091.228	7680
2093.286	7695
2095.344	7730
2097.4	7802
2099.46	7741
2101.516	7775
2103.572	7832
2105.626	7754
2107.679	7746
2109.735	7846
2111.788	7664
2113.841	7592
2115.894	7880
2117.945	7663
2119.997	7754
2122.049	7819
2124.1	7810
2126.148	7824
2128.197	7708
2130.246	7802
2132.296	7831
2134.342	7726
2136.39	7647
2138.437	7790
2140.483	7723
2142.527	7721
2144.574	7726
2146.619	7587
2148.661	7734
2150.705	7769
2152.747	7713
2154.792	7697
2156.832	7700
2158.874	7602
2160.915	7647
2162.954	7592
2164.995	7672
2167.034	7649
2169.072	7588
2171.111	7684
2173.148	7769
2175.186	7612
2177.223	7748
2179.258	7770
2181.294	7693
2183.328	7705
2185.362	7605
2187.398	7617
2189.431	7530
2191.463	7533
2193.495	7657
2195.528	7575
2197.56	7619
2199.59	7503
2201.62	7550
2203.649	7544
2205.678	7568
2207.708	7581
2209.737	7629
2211.764	7577
2213.791	7399
2215.817	7365
2217.843	7432
2219.87	7432
2221.895	7415
2223.919	7493
2225.942	7488
2227.966	7606
2229.988	7369
2232.012	7419
2234.032	7626
2236.054	7633
2238.074	7438
2240.095	7601
2242.116	7398
2244.135	7572
2246.153	7471
2248.171	7551
2250.188	7536
2252.208	7590
2254.223	7486
2256.239	7605
2258.255	7454
2260.269	7548
2262.283	7506
2264.3	7534
2266.312	7429
2268.325	7499
2270.336	7485
2272.349	7435
2274.362	7595
2276.372	7498
2278.383	7575
2280.392	7400
2282.402	7547
2284.409	7504
2286.418	7431
2288.427	7490
2290.433	7488
2292.441	7500
2294.446	7379
2296.453	7450
2298.459	7443
2300.463	7483
2302.466	7369
2304.471	7531
2306.475	7513
2308.477	7458
2310.478	7437
2312.481	7401
2314.481	7387
2316.481	7433
2318.482	7487
2320.482	7457
2322.48	7470
2324.48	7422
2326.478	7285
2328.476	7430
2330.473	7468
2332.469	7377
2334.465	7397
2336.46	7433
2338.454	7331
2340.45	7469
2342.444	7473
2344.437	7280
2346.43	7389
2348.421	7332
2350.414	7388
2352.405	7305
2354.396	7284
2356.386	7498
2358.376	7342
2360.366	7355
2362.355	7378
2364.343	7246
2366.331	7314
2368.317	7292
2370.304	7255
2372.292	7200
2374.278	7233
2376.262	7337
2378.247	7153
2380.23	7284
2382.216	7277
2384.199	7130
2386.181	7433
2388.163	7337
2390.144	7187
2392.127	7259
2394.107	7197
2396.087	7241
2398.066	7142
2400.046	7192
2402.023	7077
2404.004	7226
2405.981	7170
2407.957	7200
2409.934	7138
2411.91	7250
2413.886	7232
2415.862	7205
2417.836	7272
2419.809	7131
2421.784	7214
2423.756	7198
2425.73	7213
2427.701	7169
2429.672	7134
2431.644	7096
2433.615	7210
2435.586	7173
2437.555	7064
2439.523	7215
2441.491	7214
2443.459	7187
2445.428	7269
2447.395	7231
2449.361	7264
2451.327	7212
2453.292	7102
2455.257	7233
2457.223	7232
2459.187	7147
2461.15	7090
2463.113	7204
2465.076	7159
2467.039	7089
2468.999	7128
2470.96	7205
2472.921	7009
2474.881	7099
2476.841	7102
2478.8	7153
2480.759	7183
2482.717	7035
2484.675	7111
2486.63	7078
2488.589	7104
2490.545	7077
2492.5	7034
2494.455	7116
2496.408	7102
2498.364	7088
2500.318	7010
2502.27	7211
2504.223	7096
2506.174	7067
2508.126	7185
2510.078	7047
2512.03	7025
2513.979	7083
2515.927	7029
2517.877	7195
2519.826	6969
2521.775	7131
2523.722	7075
2525.668	7067
2527.616	7091
2529.561	7016
2531.508	7138
2533.452	6998
2535.398	7024
2537.342	7089
2539.284	6973
2541.229	7079
2543.173	7070
2545.114	6969
2547.055	7005
2548.996	6991
2550.938	6901
2552.878	7134
2554.817	6979
2556.756	7012
2558.695	7115
2560.633	6969
2562.572	6990
2564.509	7049
2566.445	7011
2568.382	6937
2570.317	7007
2572.254	7018
2574.189	7002
2576.123	7001
2578.057	7109
2579.99	7043
2581.923	7009
2583.855	6888
2585.788	7077
2587.719	6945
2589.65	7069
2591.579	6981
2593.511	7047
2595.44	7023
2597.37	6960
2599.297	6924
2601.225	6912
2603.153	6926
2605.08	6993
2607.007	7007
2608.932	6910
2610.858	6994
2612.782	7079
2614.709	6970
2616.632	6974
2618.556	6915
2620.478	6990
2622.401	7064
2624.324	7086
2626.247	6983
2628.167	7113
2630.088	6965
2632.008	6993
2633.928	7016
2635.848	7038
2637.766	6860
2639.684	7012
2641.603	6999
2643.519	6996
2645.437	6915
2647.353	6917
2649.27	7076
2651.184	6876
2653.099	6983
2655.014	6997
2656.928	7029
2658.842	6929
2660.755	6971
2662.667	7038
2664.579	7024
2666.491	6984
2668.402	6914
2670.312	6888
2672.222	6936
2674.132	6833
2676.042	6926
2677.951	6880
2679.859	7036
2681.766	6932
2683.674	6918
2685.582	6850
2687.488	6927
2689.392	6877
2691.298	6878
2693.202	6881
2695.107	6806
2697.012	6899
2698.914	6959
2700.817	6867
2702.72	6891
2704.622	6881
2706.524	6798
2708.425	6876
2710.326	6846
2712.225	6861
2714.125	6793
2716.024	6775
2717.923	6812
2719.822	6832
2721.719	6870
2723.616	6869
2725.512	6812
2727.41	6926
2729.305	6893
2731.201	6779
2733.095	6862
2734.99	6778
2736.884	6840
2738.778	6761
2740.67	6832
2742.562	6746
2744.455	6879
2746.346	6802
2748.238	6800
2750.129	6889
2752.018	6881
2753.907	6831
2755.797	6703
2757.687	6867
2759.575	6686
2761.462	6755
2763.349	6889
2765.237	6773
2767.124	6868
2769.009	6818
2770.894	6760
2772.779	6886
2774.663	6780
2776.547	6692
2778.431	6724
2780.314	6808
2782.197	6731
2784.078	6848
2785.96	6676
2787.842	6766
2789.723	6807
2791.603	6651
2793.483	6707
2795.362	6604
2797.241	6670
2799.121	6829
2800.997	6824
2802.874	6773
2804.751	6647
2806.628	6643
2808.506	6815
2810.38	6734
2812.255	6779
2814.13	6726
2816.003	6779
2817.878	6763
2819.752	6752
2821.623	6801
2823.496	6693
2825.368	6798
2827.238	6721
2829.111	6838
2830.98	6715
2832.851	6773
2834.719	6708
2836.589	6686
2838.458	6751
2840.327	6786
2842.193	6781
2844.061	6720
2845.927	6782
2847.794	6853
2849.66	6727
2851.525	6825
2853.39	6723
2855.254	6867
2857.117	6839
2858.983	6813
2860.845	6901
2862.707	6931
2864.569	7062
2866.431	6984
2868.293	7066
2870.154	7138
2872.013	7249
2873.873	6982
2875.733	7212
2877.592	7331
2879.451	7244
2881.309	7272
2883.166	7232
2885.022	7416
2886.879	7470
2888.736	7326
2890.591	7540
2892.446	7665
2894.301	7565
2896.155	7479
2898.009	7514
2899.863	7463
2901.716	7527
2903.568	7417
2905.419	7500
2907.27	7316
2909.123	7477
2910.973	7329
2912.824	7454
2914.673	7579
2916.521	7605
2918.372	7646
2920.22	7746
2922.067	7709
2923.914	7753
2925.761	7805
2927.607	7764
2929.455	7848
2931.301	7724
2933.144	7861
2934.99	7941
2936.833	7976
2938.678	7975
2940.522	8140
2942.364	8270
2944.207	8267
2946.048	8385
2947.891	8578
2949.731	8519
2951.571	8583
2953.412	8553
2955.25	8393
2957.09	8323
2958.93	8352
2960.767	8404
2962.606	8176
2964.443	8124
2966.279	8162
2968.116	7928
2969.953	7851
2971.788	7891
2973.623	7590
2975.457	7572
2977.292	7444
2979.127	7396
2980.959	7529
2982.792	7355
2984.624	7284
2986.455	7204
2988.288	7294
2990.119	7218
2991.949	7202
2993.779	7097
2995.608	7120
2997.439	6982
2999.268	6949
3001.096	6878
3002.923	6846
3004.751	6936
3006.578	6829
3008.406	6667
3010.232	6626
3012.057	6636
3013.883	6653
3015.706	6618
3017.532	6664
3019.356	6625
3021.179	6625
3023.002	6564
3024.823	6423
3026.646	6494
3028.469	6566
3030.289	6359
3032.11	6399
3033.93	6395
3035.749	6357
3037.57	6404
3039.39	6403
3041.207	6324
3043.026	6328
3044.842	6424
3046.661	6351
3048.477	6388
3050.294	6278
3052.109	6437
3053.925	6379
3055.739	6209
3057.555	6381
3059.368	6327
3061.181	6287
3062.995	6256
3064.807	6336
3066.62	6328
3068.433	6387
3070.243	6288
3072.054	6391
3073.865	6352
3075.675	6240
3077.485	6292
3079.293	6302
3081.102	6304
3082.911	6326
3084.719	6212
3086.527	6157
3088.333	6190
3090.139	6225
3091.945	6091
3093.75	6171
3095.557	6056
3097.361	6104
3099.165	6099
3100.969	6126
3102.772	6047
3104.575	6071
3106.379	6111
3108.181	6194
3109.982	6156
3111.783	6129
3113.584	6145
3115.386	6084
3117.186	6092
3118.985	6073
3120.783	5975
3122.582	6026
3124.381	6001
3126.179	6044
3127.975	6115
3129.772	6054
3131.569	6121
3133.365	5996
3135.161	5978
3136.956	6040
3138.751	5996
3140.544	5854
3142.338	6024
3144.132	6012
3145.925	6074
3147.717	5917
3149.509	5883
3151.301	6086
3153.091	5995
3154.884	5909
3156.673	5947
3158.462	5942
3160.252	5967
3162.041	5915
3163.831	6007
3165.618	5895
3167.405	5801
3169.193	5933
3170.979	5942
3172.767	5915
3174.553	5841
3176.338	5837
3178.123	5839
3179.907	5889
3181.692	5987
3183.477	5890
3185.259	5796
3187.042	5931
3188.824	5976
3190.607	5861
3192.389	5783
3194.17	5799
3195.951	5838
3197.73	5925
3199.51	5900
3201.289	5903
3203.07	5861
3204.848	5779
3206.626	5816
3208.403	5845
3210.18	5724
3211.959	5852
3213.735	5890
3215.511	5817
3217.285	5686
3219.06	5803
3220.836	5747
3222.611	5717
3224.384	5869
3226.158	5853
3227.929	5787
3229.702	5835
3231.476	5822
3233.248	5765
3235.018	5877
3236.789	5862
3238.56	5807
3240.33	5821
3242.1	5847
3243.869	5773
3245.637	5774
3247.405	5754
3249.172	5793
3250.941	5766
3252.707	5769
3254.474	5810
3256.24	5873
3258.006	5833
3259.772	5899
3261.537	5816
3263.301	5830
3265.065	5833
3266.828	5859
3268.592	5830
3270.355	5877
3272.117	5770
3273.878	5734
3275.64	5833
3277.401	5901
3279.162	5753
3280.922	5872
3282.682	5748
3284.441	5756
3286.199	5838
3287.959	5708
3289.716	5749
3291.475	5765
3293.232	5823
3294.988	5729
3296.744	5731
3298.501	5740
3300.256	5812
3302.011	5785
3303.766	5813
3305.52	5698
3307.275	5831
3309.028	5595
3310.781	5774
3312.533	5695
3314.285	5769
3316.038	5804
3317.789	5814
3319.54	5669
3321.289	5614
3323.039	5708
3324.789	5769
3326.539	5619
3328.288	5635
3330.035	5671
3331.783	5687
3333.531	5758
3335.28	5717
3337.025	5636
3338.771	5708
3340.518	5710
3342.262	5544
3344.009	5782
3345.753	5821
3347.497	5643
3349.24	5638
3350.983	5648
3352.726	5718
3354.469	5677
3356.212	5635
3357.952	5629
3359.694	5596
3361.434	5595
3363.176	5620
3364.916	5674
3366.654	5519
3368.394	5642
3370.132	5582
3371.871	5556
3373.61	5513
3375.346	5519
3377.083	5522
3378.82	5517
3380.556	5642
3382.292	5454
3384.027	5504
3385.763	5462
3387.497	5502
3389.231	5590
3390.965	5437
3392.698	5515
3394.431	5516
3396.164	5577
3397.896	5470
3399.627	5389
3401.36	5444
3403.09	5448
3404.82	5502
3406.55	5469
3408.279	5440
3410.01	5435
3411.738	5418
3413.467	5573
3415.194	5432
3416.92	5469
3418.647	5547
3420.375	5400
3422.102	5319
3423.827	5445
3425.553	5515
3427.277	5463
3429.003	5524
3430.727	5451
3432.451	5417
3434.173	5340
3435.896	5348
3437.62	5381
3439.343	5242
3441.063	5360
3442.785	5385
3444.505	5351
3446.226	5334
3447.948	5374
3449.666	5243
3451.386	5332
3453.104	5225
3454.823	5326
3456.541	5234
3458.259	5272
3459.976	5281
3461.693	5306
3463.408	5378
3465.125	5308
3466.841	5330
3468.556	5239
3470.271	5151
3471.985	5204
3473.698	5235
3475.414	5288
3477.126	5256
3478.838	5059
3480.55	5175
3482.263	5172
3483.975	5106
3485.686	5087
3487.396	5178
3489.106	5208
3490.817	5200
3492.526	5075
3494.236	5155
3495.944	5129
3497.652	5152
3499.359	4987
3501.066	5190
3502.775	5079
3504.481	5156
3506.187	5079
3507.893	5007
3509.598	5013
3511.304	5107
3513.009	4986
3514.713	5022
3516.417	5100
3518.12	4925
3519.821	5033
3521.525	5033
3523.228	5015
3524.929	4985
3526.631	4938
3528.33	4942
3530.032	4926
3531.733	4959
3533.433	5018
3535.131	4970
3536.83	4974
3538.529	4909
3540.227	4929
3541.925	4943
3543.623	4911
3545.319	4905
3547.016	4930
3548.712	4843
3550.408	4857
3552.103	4895
3553.798	4965
3555.491	4867
3557.188	4930
3558.88	4925
3560.574	4782
3562.266	4864
3563.959	4877
3565.651	4823
3567.343	4876
3569.035	4867
3570.725	4891
3572.415	4759
3574.106	4884
3575.797	4776
3577.485	4781
3579.174	4905
3580.863	4809
3582.551	4911
3584.238	4823
3585.926	4823
3587.613	4733
3589.3	4755
3590.986	4747
3592.671	4773
3594.357	4781
3596.042	4684
3597.726	4747
3599.41	4774
3601.094	4690
3602.778	4738
3604.461	4729
3606.143	4648
3607.825	4767
3609.507	4790
3611.188	4673
3612.87	4640
3614.551	4682
3616.229	4618
3617.909	4684
3619.589	4704
3621.269	4640
3622.948	4664
3624.625	4624
3626.302	4722
3627.98	4634
3629.657	4674
3631.334	4617
3633.01	4602
3634.686	4551
3636.361	4567
3638.036	4567
3639.712	4546
3641.385	4525
3643.06	4577
3644.732	4609
3646.405	4511
3648.08	4535
3649.751	4482
3651.424	4594
3653.094	4538
3654.766	4546
3656.436	4515
3658.106	4501
3659.777	4504
3661.446	4476
3663.115	4466
3664.783	4555
3666.452	4486
3668.121	4516
3669.788	4523
3671.454	4449
3673.121	4432
3674.789	4514
3676.455	4497
3678.12	4476
3679.784	4412
3681.45	4444
3683.114	4358
3684.779	4505
3686.442	4359
3688.105	4405
3689.768	4496
3691.43	4406
3693.093	4391
3694.754	4293
3696.415	4397
3698.076	4447
3699.736	4371
3701.396	4385
3703.057	4345
3704.716	4287
3706.375	4358
3708.034	4394
3709.692	4373
3711.351	4388
3713.008	4398
3714.665	4372
3716.321	4296
3717.977	4395
3719.634	4380
3721.29	4283
3722.945	4260
3724.598	4277
3726.253	4396
3727.907	4352
3729.561	4313
3731.214	4225
3732.867	4229
3734.518	4389
3736.171	4271
3737.824	4278
3739.474	4291
3741.125	4259
3742.775	4274
3744.425	4304
3746.074	4379
3747.725	4342
3749.373	4232
3751.022	4299
3752.669	4266
3754.318	4207
3755.966	4266
3757.612	4218
3759.259	4327
3760.905	4248
3762.55	4226
3764.197	4311
3765.842	4206
3767.486	4285
3769.131	4249
3770.774	4265
3772.417	4198
3774.061	4282
3775.705	4195
3777.347	4247
3778.988	4130
3780.629	4211
3782.271	4214
3783.912	4197
3785.552	4253
3787.192	4013
3788.831	4149
3790.472	4138
3792.112	4221
3793.75	4175
3795.388	4106
3797.024	4126
3798.661	4077
3800.3	4035
3801.936	4163
3803.572	4108
3805.208	4165
3806.844	4117
3808.48	4149
3810.115	4086
3811.748	4125
3813.382	4119
3815.016	4140
3816.649	4196
3818.283	4088
3819.914	4061
3821.547	4109
3823.178	4196
3824.809	4156
3826.441	4053
3828.072	3961
3829.701	4039
3831.331	4003
3832.96	4075
3834.591	3978
3836.219	4019
3837.847	4084
3839.475	3999
3841.102	4069
3842.729	4000
3844.357	3984
3845.984	4065
3847.609	4005
3849.234	4031
3850.86	4063
3852.485	3997
3854.11	3963
3855.734	4000
3857.357	3919
3858.981	3969
3860.603	4018
3862.227	4004
3863.848	4021
3865.471	3934
3867.092	3981
3868.713	3919
3870.334	3867
3871.954	3943
3873.575	3926
3875.194	3893
3876.813	3865
3878.433	3863
3880.051	3943
3881.669	3902
3883.286	4021
3884.904	3928
3886.52	3935
3888.138	3956
3889.754	3906
3891.37	3947
3892.985	3973
3894.6	3917
3896.216	3939
3897.831	3899
3899.444	3931
3901.058	3938
3902.67	3904
3904.283	3902
3905.897	3791
3907.509	3911
3909.121	3908
3910.731	3832
3912.342	3879
3913.954	3914
3915.563	3863
3917.174	3861
3918.783	3825
3920.391	3812
3922.002	3971
3923.611	3833
3925.218	3889
3926.826	3846
3928.432	3865
3930.039	3892
3931.647	3965
3933.253	3786
3934.859	3796
3936.464	3919
3938.068	3886
3939.675	3815
3941.278	3826
3942.883	3811
3944.486	3838
3946.089	3777
3947.692	3852
3949.295	3793
3950.898	3838
3952.499	3812
3954.1	3888
3955.7	3673
3957.303	3677
3958.903	3852
3960.502	3872
3962.101	3735
3963.7	3798
3965.301	3865
3966.899	3738
3968.497	3767
3970.094	3723
3971.691	3781
3973.288	3719
3974.885	3762
3976.481	3651
3978.077	3755
3979.672	3780
3981.267	3745
3982.863	3677
3984.457	3706
3986.051	3717
3987.645	3742
3989.238	3681
3990.831	3696
3992.425	3711
3994.017	3646
3995.607	3698
3997.199	3656
3998.79	3742
4000.382	3606
4001.973	3780
4003.561	3658
4005.151	3675
4006.741	3615
4008.331	3652
4009.918	3574
4011.507	3587
4013.095	3616
4014.681	3631
4016.269	3626
4017.856	3553
4019.443	3614
4021.028	3618
4022.614	3550
4024.199	3586
4025.785	3604
4027.37	3559
4028.953	3517
4030.536	3529
4032.12	3550
4033.704	3616
4035.287	3594
4036.869	3577
4038.45	3551
4040.032	3455
4041.613	3519
4043.195	3528
4044.776	3587
4046.356	3535
4047.935	3562
4049.515	3566
4051.095	3462
4052.674	3552
4054.251	3472
4055.829	3545
4057.406	3515
4058.985	3479
4060.562	3520
4062.139	3457
4063.715	3630
4065.29	3478
4066.865	3478
4068.442	3451
4070.016	3461
4071.59	3511
4073.164	3470
4074.738	3437
4076.312	3438
4077.885	3451
4079.458	3485
4081.03	3447
4082.602	3433
4084.173	3460
4085.745	3431
4087.315	3426
4088.886	3517
4090.456	3402
4092.026	3463
4093.596	3455
4095.165	3480
4096.734	3424
4098.301	3464
4099.869	3409
4101.437	3376
4103.006	3361
4104.572	3390
4106.139	3396
4107.704	3388
4109.27	3343
4110.837	3463
4112.401	3503
4113.966	3445
4115.53	3404
4117.094	3286
4118.659	3461
4120.223	3390
4121.785	3292
4123.347	3329
4124.909	3362
4126.471	3384
4128.034	3320
4129.595	3326
4131.155	3331
4132.716	3304
4134.275	3387
4135.836	3300
4137.395	3376
4138.955	3305
4140.513	3352
4142.071	3316
4143.628	3313
4145.188	3315
4146.745	3231
4148.302	3330
4149.858	3269
4151.414	3310
4152.971	3298
4154.526	3317
4156.081	3266
4157.635	3266
4159.189	3246
4160.745	3232
4162.298	3244
4163.852	3278
4165.405	3289
4166.957	3256
4168.51	3276
4170.063	3267
4171.614	3208
4173.166	3213
4174.717	3199
4176.267	3210
4177.817	3255
4179.368	3178
4180.917	3203
4182.466	3226
4184.016	3252
4185.564	3173
4187.112	3296
4188.66	3147
4190.207	3194
4191.754	3140
4193.301	3197
4194.848	3176
4196.394	3152
4197.94	3145
4199.484	3219
4201.03	3125
4202.575	3200
4204.12	3188
4205.663	3237
4207.207	3164
4208.75	3148
4210.292	3138
4211.836	3078
4213.378	3073
4214.92	3076
4216.46	3157
4218.002	3171
4219.544	3091
4221.083	3067
4222.625	3120
4224.164	3154
4225.703	3086
4227.244	3118
4228.782	3071
4230.32	3069
4231.857	3098
4233.395	3169
4234.933	3055
4236.471	3137
4238.007	3024
4239.542	3174
4241.078	3062
4242.614	3114
4244.15	3011
4245.685	3055
4247.219	3062
4248.753	3018
4250.287	2997
4251.82	3088
4253.354	3082
4254.887	3098
4256.419	3050
4257.951	3102
4259.483	3048
4261.016	3094
4262.547	3066
4264.078	3093
4265.608	3105
4267.137	3087
4268.668	3029
4270.197	3036
4271.727	3001
4273.254	3054
4274.783	3057
4276.311	2969
4277.84	3017
4279.366	3040
4280.894	3052
4282.42	2968
4283.946	2998
4285.473	3039
4286.998	2965
4288.523	3005
4290.047	3050
4291.572	2968
4293.096	3031
4294.622	3021
4296.144	2971
4297.668	2961
4299.19	2992
4300.713	3015
4302.236	2936
4303.758	2938
4305.279	2957
4306.799	2995
4308.321	3006
4309.842	2925
4311.361	2921
4312.882	2962
4314.401	2945
