400.0961	4117
402.6185	4129
405.1424	4115
407.6635	4151
410.1838	4117
412.7035	4070
415.2225	4195
417.7388	4192
420.2585	4240
422.7754	4252
425.2917	4305
427.8072	4442
430.3221	4466
432.8363	4463
435.3498	4381
437.8626	4466
440.3727	4418
442.8841	4427
445.3969	4359
447.907	4396
450.4142	4428
452.9229	4360
455.4289	4329
457.9362	4421
460.4449	4301
462.9488	4339
465.454	4371
467.9566	4329
470.4604	4362
472.9637	4276
475.4662	4403
477.966	4325
480.4671	4322
482.9656	4334
485.4633	4422
487.9645	4400
490.4608	4409
492.9566	4436
495.4536	4386
497.948	4396
500.4437	4451
502.9387	4436
505.431	4459
507.9226	4422
510.4136	4583
512.9079	4409
515.3975	4419
517.8864	4449
520.3746	4483
522.8622	4423
525.3491	4461
527.8394	4527
530.3249	4466
532.8098	4556
535.2939	4440
537.7774	4511
540.2623	4526
542.7444	4450
545.2259	4623
547.7067	4565
550.1868	4498
552.6683	4510
555.147	4543
557.6231	4491
560.1005	4570
562.5773	4564
565.0534	4569
567.5308	4698
570.0056	4583
572.4776	4574
574.951	4686
577.4237	4708
579.8978	4728
582.3671	4688
584.8378	4679
587.3079	4657
589.7773	4781
592.244	4856
594.714	4760
597.1793	4693
599.6461	4728
602.1121	4755
604.5754	4678
607.0421	4728
609.5042	4656
611.9675	4736
614.4282	4643
616.8902	4607
619.3515	4593
621.8122	4697
624.2702	4661
626.7296	4604
629.1863	4530
631.6423	4650
634.1017	4573
636.5563	4628
639.0104	4573
641.4658	4631
643.9185	4605
646.3725	4662
648.8239	4540
651.2766	4720
653.7266	4648
656.176	4642
658.6247	4658
661.0748	4724
663.5242	4699
665.9709	4715
668.417	4681
670.8624	4726
673.3092	4813
675.7533	4740
678.1968	4765
680.6395	4737
683.0817	4786
685.5251	4749
687.9659	4684
690.4061	4812
692.8456	4752
695.2844	4811
697.7226	4801
700.1621	4796
702.599	4784
705.0332	4870
707.4688	4828
709.9036	4880
712.3399	4877
714.7735	4808
717.2044	4798
719.6367	4838
722.0683	4905
724.4993	4869
726.9296	5050
729.3593	4843
731.7883	4962
734.2147	4993
736.6423	4968
739.0714	5012
741.4958	5029
743.9216	5089
746.3447	5074
748.7691	5046
751.1929	5102
753.616	5003
756.0366	5158
758.4584	5058
760.8776	4994
763.2982	5112
765.718	5128
768.1373	5123
770.5539	5219
772.9698	5165
775.3871	5242
777.8038	5141
780.2178	5089
782.6332	5144
785.0459	5178
787.458	5166
789.8714	5214
792.2842	4986
794.6943	5092
797.1038	5142
799.5127	5128
801.9209	5134
804.3324	5219
806.7393	5151
809.1456	5231
811.5513	5217
813.9562	5265
816.3625	5316
818.7663	5263
821.1693	5238
823.5718	5228
825.9735	5092
828.3746	5185
830.7771	5237
833.177	5276
835.5762	5296
837.9747	5345
840.3727	5331
842.772	5283
845.1666	5347
847.5626	5199
849.958	5348
852.3527	5485
854.7488	5479
857.1403	5495
859.5331	5462
861.9253	5480
864.3168	5432
866.7057	5388
869.098	5386
871.4876	5310
873.8746	5370
876.263	5442
878.6487	5398
881.0378	5373
883.4243	5418
885.8081	5376
888.1933	5294
890.5759	5394
892.9598	5368
895.343	5420
897.7256	5273
900.1057	5338
902.4871	5453
904.8659	5401
907.246	5415
909.6254	5444
912.0023	5521
914.3786	5610
916.7562	5576
919.1331	5749
921.5074	5904
923.8831	5787
926.2562	5792
928.6287	5753
931.0005	5780
933.3757	5835
935.7462	5719
938.1162	5873
940.4855	5940
942.8542	5859
945.2242	6004
947.5916	6153
949.9584	6187
952.3266	6422
954.6921	6748
957.0571	6994
959.4233	7388
961.787	7575
964.15	7486
966.5125	7288
968.8742	6883
971.2354	6649
973.5959	6333
975.9559	6049
978.3151	5984
980.6738	5731
983.0338	5754
985.3912	5684
987.7461	5635
990.1022	5651
992.4578	5580
994.8127	5599
997.1689	5631
999.5207	5571
1001.874	5647
1004.226	5675
1006.576	5661
1008.929	5659
1011.28	5641
1013.628	5496
1015.977	5651
1018.324	5667
1020.674	5578
1023.019	5610
1025.366	5678
1027.713	5735
1030.056	5596
1032.399	5715
1034.746	5838
1037.087	5695
1039.431	5773
1041.771	5699
1044.113	5743
1046.454	5779
1048.793	5800
1051.133	5834
1053.471	5764
1055.807	5711
1058.146	5596
1060.483	5858
1062.818	5789
1065.153	5798
1067.489	5899
1069.822	5862
1072.156	5949
1074.488	5919
1076.82	5898
1079.15	5874
1081.48	5747
1083.814	5879
1086.143	5824
1088.471	5748
1090.799	5713
1093.126	5696
1095.452	5621
1097.78	5837
1100.105	5735
1102.43	5615
1104.754	5725
1107.077	5787
1109.4	5641
1111.722	5695
1114.044	5666
1116.365	5678
1118.685	5732
1121.005	5700
1123.324	5735
1125.643	5699
1127.961	5807
1130.278	5692
1132.595	5776
1134.911	5670
1137.226	5711
1139.541	5757
1141.854	5721
1144.167	5689
1146.482	5758
1148.793	5695
1151.105	5662
1153.414	5682
1155.725	5685
1158.033	5549
1160.344	5755
1162.651	5749
1164.959	5736
1167.265	5712
1169.572	5705
1171.878	5766
1174.184	5750
1176.488	5732
1178.79	5757
1181.094	5796
1183.396	5677
1185.699	5860
1188.001	5747
1190.301	5767
1192.6	5805
1194.9	5688
1197.2	5630
1199.497	5773
1201.794	5613
1204.09	5638
1206.387	5718
1208.684	5723
1210.978	5640
1213.272	5696
1215.565	5824
1217.858	5692
1220.15	5716
1222.443	5684
1224.734	5832
1227.024	5973
1229.313	5807
1231.602	5831
1233.892	5935
1236.18	5977
1238.467	5953
1240.754	6012
1243.04	6053
1245.325	6043
1247.612	5999
1249.896	6145
1252.178	6082
1254.461	6119
1256.743	6008
1259.027	6067
1261.308	6073
1263.587	6083
1265.867	6001
1268.146	6041
1270.425	6012
1272.703	6106
1274.981	6116
1277.256	6054
1279.532	6010
1281.808	5996
1284.083	6090
1286.358	5979
1288.63	5925
1290.904	5951
1293.175	5958
1295.449	5942
1297.719	5953
1299.99	5892
1302.259	5854
1304.529	6019
1306.798	5950
1309.065	6015
1311.333	5889
1313.599	5969
1315.866	6029
1318.131	5951
1320.396	5950
1322.66	5908
1324.925	5963
1327.187	5973
1329.448	6015
1331.711	6028
1333.974	5921
1336.234	5915
1338.493	6027
1340.752	5999
1343.01	5926
1345.269	5930
1347.526	5938
1349.784	5940
1352.04	5954
1354.295	5892
1356.552	5835
1358.806	5870
1361.059	5845
1363.312	5890
1365.564	5897
1367.818	5957
1370.069	5911
1372.318	5957
1374.568	6009
1376.817	5990
1379.066	5989
1381.316	5916
1383.564	6052
1385.809	5957
1388.056	5985
1390.301	6092
1392.549	6143
1394.793	6232
1397.036	6184
1399.279	6212
1401.522	6311
1403.763	6310
1406.007	6166
1408.248	6158
1410.487	6160
1412.727	6261
1414.965	6250
1417.205	6182
1419.442	6237
1421.68	6181
1423.915	6270
1426.152	6153
1428.388	6226
1430.623	6169
1432.857	6144
1435.091	6298
1437.323	6189
1439.556	6249
1441.789	6230
1444.019	6430
1446.25	6187
1448.48	6333
1450.708	6324
1452.938	6359
1455.167	6278
1457.394	6467
1459.62	6451
1461.846	6382
1464.073	6354
1466.299	6392
1468.523	6254
1470.746	6158
1472.969	6258
1475.191	6210
1477.415	6152
1479.636	6154
1481.858	6111
1484.078	5954
1486.298	5992
1488.518	5953
1490.736	5944
1492.954	6012
1495.169	5836
1497.386	5993
1499.602	5938
1501.819	5878
1504.034	5873
1506.248	5842
1508.462	5785
1510.675	5846
1512.888	5816
1515.1	5911
1517.311	5832
1519.522	5859
1521.732	5882
1523.942	5845
1526.151	5863
1528.36	5976
1530.566	5801
1532.773	5830
1534.98	5927
1537.187	5929
1539.392	5977
1541.596	5916
1543.801	5908
1546.005	5895
1548.208	5929
1550.411	5933
1552.612	5973
1554.814	6085
1557.013	5998
1559.212	6029
1561.414	6047
1563.612	5982
1565.811	6120
1568.007	6022
1570.203	6062
1572.403	6100
1574.598	6002
1576.792	6015
1578.988	6034
1581.181	6057
1583.376	6088
1585.568	6106
1587.761	6065
1589.952	6034
1592.143	6088
1594.333	6154
1596.524	6092
1598.715	6053
1600.903	6146
1603.091	6055
1605.278	6182
1607.466	6113
1609.652	6212
1611.838	6131
1614.023	6149
1616.207	6101
1618.391	6147
1620.576	6050
1622.759	6172
1624.941	6031
1627.123	6257
1629.304	6197
1631.484	6049
1633.664	6145
1635.844	6179
1638.022	6262
1640.201	6235
1642.38	6311
1644.556	6284
1646.732	6278
1648.908	6303
1651.084	6423
1653.257	6239
1655.433	6295
1657.607	6292
1659.779	6303
1661.951	6331
1664.122	6420
1666.295	6306
1668.467	6373
1670.635	6350
1672.805	6370
1674.973	6402
1677.142	6288
1679.31	6360
1681.478	6303
1683.644	6259
1685.81	6294
1687.975	6308
1690.142	6363
1692.305	6246
1694.468	6180
1696.632	6141
1698.794	6223
1700.957	6172
1703.119	6132
1705.279	6124
1707.439	6106
1709.598	6176
1711.758	6062
1713.917	6140
1716.075	6100
1718.231	5935
1720.388	6041
1722.543	6011
1724.702	6065
1726.856	6028
1729.01	6009
1731.164	6062
1733.317	6206
1735.471	6150
1737.623	6107
1739.774	6020
1741.925	6081
1744.075	5969
1746.225	6140
1748.376	5992
1750.524	6004
1752.672	5950
1754.82	6031
1756.965	6148
1759.113	6031
1761.259	6130
1763.405	6062
1765.549	6161
1767.694	6064
1769.836	6109
1771.981	6184
1774.123	6152
1776.264	6120
1778.405	6136
1780.546	6120
1782.687	6201
1784.827	6128
1786.966	6100
1789.103	6171
1791.242	6092
1793.381	6052
1795.517	6062
1797.653	6187
1799.788	6144
1801.923	6101
1804.057	6032
1806.193	6115
1808.326	6119
1810.457	6073
1812.59	6126
1814.721	6292
1816.855	6064
1818.984	6115
1821.113	6012
1823.244	6109
1825.372	6021
1827.499	6078
1829.63	6179
1831.756	6081
1833.882	6051
1836.007	6117
1838.132	6047
1840.26	6096
1842.384	6021
1844.507	5969
1846.63	6082
1848.752	6126
1850.875	6152
1852.996	6125
1855.118	6089
1857.238	6110
1859.358	6075
1861.477	6102
1863.597	6070
1865.715	6035
1867.832	5995
1869.948	6033
1872.064	6088
1874.181	5917
1876.297	6079
1878.411	6073
1880.526	6100
1882.639	6171
1884.752	6029
1886.865	6075
1888.977	6153
1891.089	6075
1893.2	6112
1895.308	6194
1897.42	6120
1899.53	6069
1901.639	6134
1903.745	6027
1905.853	6281
1907.962	6062
1910.067	6139
1912.174	6193
1914.278	6245
1916.383	6146
1918.486	6220
1920.592	6135
1922.694	6135
1924.797	6139
1926.898	6199
1929	6222
1931.102	6182
1933.203	6139
1935.301	6129
1937.401	6167
1939.499	6238
1941.598	6228
1943.697	6208
1945.793	6118
1947.888	6181
1949.985	6150
1952.08	6129
1954.176	6142
1956.269	6127
1958.364	6221
1960.457	6150
1962.549	6144
1964.642	6175
1966.733	6216
1968.823	6160
1970.913	6184
1973.005	6179
1975.093	6084
1977.184	6072
1979.271	6223
1981.359	6187
1983.446	6094
1985.532	6054
1987.619	6002
1989.705	6122
1991.789	6191
1993.874	6187
1995.956	6080
1998.041	6044
2000.123	6080
2002.206	6110
2004.287	6041
2006.368	6135
2008.449	6051
2010.529	6131
2012.609	6151
2014.688	6106
2016.766	6106
2018.843	6082
2020.922	6100
2022.999	6068
2025.074	6126
2027.15	6094
2029.225	6080
2031.299	6161
2033.375	6080
2035.447	6093
2037.52	6183
2039.592	6159
2041.664	6090
2043.736	6147
2045.807	6205
2047.876	6193
2049.947	6173
2052.015	6060
2054.086	6016
2056.153	6179
2058.221	6080
2060.288	6043
2062.353	6012
2064.42	6161
2066.486	5884
2068.55	6063
2070.614	6054
2072.678	6207
2074.741	6108
2076.805	6030
2078.866	6170
2080.929	6078
2082.99	6119
2085.049	6065
2087.109	6085
2089.17	6080
2091.228	6107
2093.286	6130
2095.344	6114
2097.4	6099
2099.46	6055
2101.516	6121
2103.572	6085
2105.626	6069
2107.679	6135
2109.735	6196
2111.788	6016
2113.841	6072
2115.894	6056
2117.945	6085
2119.997	6053
2122.049	6103
2124.1	6082
2126.148	6102
2128.197	6146
2130.246	6142
2132.296	6137
2134.342	6137
2136.39	6083
2138.437	6117
2140.483	6079
2142.527	6057
2144.574	5968
2146.619	6067
2148.661	6115
2150.705	6033
2152.747	6141
2154.792	5955
2156.832	6035
2158.874	6131
2160.915	6145
2162.954	6115
2164.995	6004
2167.034	6136
2169.072	6034
2171.111	5957
2173.148	6009
2175.186	6011
2177.223	5997
2179.258	6002
2181.294	5911
2183.328	5964
2185.362	6021
2187.398	6039
2189.431	6028
2191.463	5986
2193.495	5989
2195.528	6094
2197.56	5969
2199.59	5979
2201.62	5960
2203.649	5974
2205.678	5976
2207.708	5946
2209.737	5897
2211.764	5986
2213.791	5977
2215.817	5964
2217.843	5944
2219.87	5843
2221.895	5841
2223.919	5984
2225.942	5862
2227.966	5863
2229.988	5905
2232.012	5923
2234.032	6004
2236.054	5816
2238.074	5832
2240.095	5931
2242.116	5973
2244.135	5975
2246.153	5814
2248.171	5944
2250.188	5931
2252.208	5882
2254.223	5934
2256.239	6039
2258.255	5974
2260.269	5844
2262.283	5950
2264.3	5895
2266.312	5762
2268.325	5863
2270.336	5899
2272.349	5802
2274.362	5940
2276.372	5851
2278.383	5966
2280.392	5917
2282.402	5827
2284.409	5913
2286.418	6012
2288.427	5904
2290.433	5892
2292.441	5959
2294.446	5884
2296.453	5877
2298.459	5880
2300.463	5881
2302.466	5956
2304.471	5836
2306.475	5855
2308.477	5945
2310.478	5839
2312.481	5815
2314.481	5862
2316.481	5878
2318.482	5851
2320.482	5864
2322.48	5928
2324.48	5885
2326.478	5807
2328.476	5872
2330.473	5898
2332.469	5815
2334.465	5880
2336.46	5774
2338.454	5906
2340.45	5778
2342.444	5919
2344.437	5780
2346.43	5891
2348.421	5806
2350.414	5870
2352.405	5753
2354.396	5865
2356.386	5842
2358.376	5730
2360.366	5724
2362.355	5715
2364.343	5773
2366.331	5814
2368.317	5733
2370.304	5691
2372.292	5776
2374.278	5693
2376.262	5977
2378.247	5714
2380.23	5706
2382.216	5716
2384.199	5721
2386.181	5810
2388.163	5680
2390.144	5655
2392.127	5705
2394.107	5609
2396.087	5656
2398.066	5763
2400.046	5705
2402.023	5642
2404.004	5754
2405.981	5612
2407.957	5616
2409.934	5625
2411.91	5635
2413.886	5715
2415.862	5617
2417.836	5772
2419.809	5668
2421.784	5689
2423.756	5709
2425.73	5594
2427.701	5663
2429.672	5683
2431.644	5697
2433.615	5652
2435.586	5738
2437.555	5696
2439.523	5678
2441.491	5617
2443.459	5617
2445.428	5703
2447.395	5659
2449.361	5533
2451.327	5631
2453.292	5607
2455.257	5738
2457.223	5563
2459.187	5633
2461.15	5672
2463.113	5602
2465.076	5715
2467.039	5606
2468.999	5654
2470.96	5595
2472.921	5625
2474.881	5580
2476.841	5613
2478.8	5608
2480.759	5585
2482.717	5524
2484.675	5642
2486.63	5571
2488.589	5719
2490.545	5601
2492.5	5571
2494.455	5575
2496.408	5623
2498.364	5643
2500.318	5589
2502.27	5576
2504.223	5589
2506.174	5493
2508.126	5590
2510.078	5535
2512.03	5666
2513.979	5629
2515.927	5553
2517.877	5588
2519.826	5574
2521.775	5640
2523.722	5524
2525.668	5506
2527.616	5587
2529.561	5669
2531.508	5513
2533.452	5683
2535.398	5582
2537.342	5586
2539.284	5545
2541.229	5629
2543.173	5593
2545.114	5540
2547.055	5495
2548.996	5596
2550.938	5481
2552.878	5579
2554.817	5505
2556.756	5506
2558.695	5625
2560.633	5478
2562.572	5512
2564.509	5554
2566.445	5606
2568.382	5448
2570.317	5496
2572.254	5500
2574.189	5556
2576.123	5433
2578.057	5428
2579.99	5540
2581.923	5541
2583.855	5554
2585.788	5547
2587.719	5519
2589.65	5485
2591.579	5553
2593.511	5511
2595.44	5579
2597.37	5448
2599.297	5628
2601.225	5464
2603.153	5547
2605.08	5634
2607.007	5524
2608.932	5545
2610.858	5430
2612.782	5588
2614.709	5549
2616.632	5508
2618.556	5550
2620.478	5547
2622.401	5560
2624.324	5609
2626.247	5600
2628.167	5506
2630.088	5500
2632.008	5558
2633.928	5574
2635.848	5462
2637.766	5614
2639.684	5639
2641.603	5538
2643.519	5556
2645.437	5643
2647.353	5586
2649.27	5503
2651.184	5515
2653.099	5525
2655.014	5578
2656.928	5522
2658.842	5597
2660.755	5591
2662.667	5483
2664.579	5494
2666.491	5442
2668.402	5462
2670.312	5509
2672.222	5573
2674.132	5509
2676.042	5518
2677.951	5514
2679.859	5601
2681.766	5516
2683.674	5469
2685.582	5527
2687.488	5526
2689.392	5493
2691.298	5533
2693.202	5512
2695.107	5487
2697.012	5534
2698.914	5387
2700.817	5432
2702.72	5488
2704.622	5443
2706.524	5496
2708.425	5422
2710.326	5487
2712.225	5426
2714.125	5437
2716.024	5441
2717.923	5478
2719.822	5455
2721.719	5475
2723.616	5387
2725.512	5474
2727.41	5441
2729.305	5460
2731.201	5430
2733.095	5549
2734.99	5441
2736.884	5425
2738.778	5434
2740.67	5398
2742.562	5407
2744.455	5474
2746.346	5431
2748.238	5501
2750.129	5341
2752.018	5428
2753.907	5321
2755.797	5441
2757.687	5359
2759.575	5316
2761.462	5464
2763.349	5442
2765.237	5334
2767.124	5392
2769.009	5315
2770.894	5365
2772.779	5414
2774.663	5379
2776.547	5388
2778.431	5364
2780.314	5447
2782.197	5403
2784.078	5387
2785.96	5352
2787.842	5482
2789.723	5327
2791.603	5349
2793.483	5353
2795.362	5419
2797.241	5403
2799.121	5380
2800.997	5390
2802.874	5461
2804.751	5260
2806.628	5280
2808.506	5450
2810.38	5299
2812.255	5440
2814.13	5376
2816.003	5277
2817.878	5353
2819.752	5477
2821.623	5385
2823.496	5425
2825.368	5446
2827.238	5374
2829.111	5315
2830.98	5353
2832.851	5376
2834.719	5383
2836.589	5399
2838.458	5441
2840.327	5376
2842.193	5453
2844.061	5398
2845.927	5401
2847.794	5390
2849.66	5418
2851.525	5502
2853.39	5508
2855.254	5490
2857.117	5582
2858.983	5604
2860.845	5403
2862.707	5617
2864.569	5717
2866.431	5795
2868.293	5710
2870.154	5751
2872.013	5890
2873.873	5895
2875.733	5845
2877.592	5971
2879.451	5961
2881.309	6169
2883.166	6099
2885.022	6141
2886.879	6168
2888.736	6249
2890.591	6178
2892.446	6260
2894.301	6181
2896.155	6268
2898.009	6285
2899.863	6183
2901.716	6267
2903.568	6278
2905.419	6232
2907.27	6182
2909.123	6198
2910.973	6250
2912.824	6209
2914.673	6327
2916.521	6344
2918.372	6482
2920.22	6581
2922.067	6651
2923.914	6748
2925.761	6732
2927.607	6714
2929.455	6842
2931.301	6899
2933.144	6821
2934.99	7002
2936.833	7152
2938.678	7217
2940.522	7089
2942.364	7310
2944.207	7408
2946.048	7393
2947.891	7606
2949.731	7601
2951.571	7525
2953.412	7466
2955.25	7460
2957.09	7357
2958.93	7206
2960.767	7203
2962.606	7174
2964.443	6967
2966.279	6888
2968.116	6827
2969.953	6677
2971.788	6644
2973.623	6581
2975.457	6528
2977.292	6479
2979.127	6283
2980.959	6410
2982.792	6173
2984.624	6332
2986.455	6207
2988.288	6196
2990.119	6101
2991.949	6183
2993.779	6110
2995.608	6088
2997.439	6001
2999.268	5936
3001.096	5888
3002.923	5695
3004.751	5698
3006.578	5663
3008.406	5676
3010.232	5495
3012.057	5476
3013.883	5457
3015.706	5490
3017.532	5465
3019.356	5458
3021.179	5409
3023.002	5360
3024.823	5245
3026.646	5370
3028.469	5209
3030.289	5265
3032.11	5283
3033.93	5231
3035.749	5211
3037.57	5119
3039.39	5117
3041.207	5145
3043.026	5070
3044.842	5151
3046.661	5092
3048.477	5150
3050.294	5033
3052.109	5092
3053.925	5157
3055.739	5020
3057.555	5187
3059.368	5084
3061.181	5158
3062.995	5136
3064.807	5187
3066.62	5190
3068.433	5152
3070.243	5047
3072.054	5170
3073.865	5070
3075.675	5060
3077.485	5035
3079.293	5084
3081.102	4926
3082.911	5110
3084.719	5020
3086.527	5092
3088.333	5014
3090.139	5064
3091.945	4972
3093.75	4974
3095.557	4926
3097.361	5104
3099.165	4896
3100.969	4915
3102.772	4955
3104.575	4913
3106.379	4887
3108.181	4918
3109.982	4897
3111.783	4900
3113.584	4927
3115.386	4888
3117.186	4970
3118.985	4889
3120.783	4992
3122.582	4943
3124.381	4935
3126.179	4926
3127.975	4895
3129.772	4856
3131.569	4886
3133.365	4782
3135.161	4855
3136.956	4936
3138.751	4825
3140.544	4840
3142.338	4853
3144.132	4840
3145.925	4810
3147.717	4752
3149.509	4796
3151.301	4948
3153.091	4852
3154.884	4838
3156.673	4862
3158.462	4843
3160.252	4756
3162.041	4757
3163.831	4793
3165.618	4865
3167.405	4840
3169.193	4814
3170.979	4772
3172.767	4785
3174.553	4793
3176.338	4764
3178.123	4759
3179.907	4804
3181.692	4828
3183.477	4847
3185.259	4833
3187.042	4795
3188.824	4741
3190.607	4851
3192.389	4672
3194.17	4795
3195.951	4803
3197.73	4786
3199.51	4813
3201.289	4850
3203.07	4816
3204.848	4843
3206.626	4843
3208.403	4806
3210.18	4787
3211.959	4716
3213.735	4755
3215.511	4798
3217.285	4794
3219.06	4755
3220.836	4843
3222.611	4735
3224.384	4825
3226.158	4830
3227.929	4821
3229.702	4878
3231.476	4736
3233.248	4762
3235.018	4686
3236.789	4818
3238.56	4815
3240.33	4840
3242.1	4844
3243.869	4795
3245.637	4842
3247.405	4720
3249.172	4819
3250.941	4747
3252.707	4841
3254.474	4720
3256.24	4772
3258.006	4711
3259.772	4783
3261.537	4870
3263.301	4724
3265.065	4759
3266.828	4798
3268.592	4823
3270.355	4742
3272.117	4819
3273.878	4777
3275.64	4777
3277.401	4819
3279.162	4855
3280.922	4805
3282.682	4902
3284.441	4818
3286.199	4700
3287.959	4757
3289.716	4823
3291.475	4879
3293.232	4730
3294.988	4777
3296.744	4842
3298.501	4718
3300.256	4810
3302.011	4695
3303.766	4804
3305.52	4743
3307.275	4720
3309.028	4736
3310.781	4838
3312.533	4771
3314.285	4777
3316.038	4902
3317.789	4759
3319.54	4778
3321.289	4769
3323.039	4762
3324.789	4805
3326.539	4757
3328.288	4702
3330.035	4790
3331.783	4616
3333.531	4742
3335.28	4821
3337.025	4695
3338.771	4723
3340.518	4846
3342.262	4739
3344.009	4731
3345.753	4777
3347.497	4725
3349.24	4786
3350.983	4721
3352.726	4738
3354.469	4791
3356.212	4671
3357.952	4746
3359.694	4665
3361.434	4748
3363.176	4617
3364.916	4696
3366.654	4690
3368.394	4643
3370.132	4708
3371.871	4574
3373.61	4554
3375.346	4686
3377.083	4593
3378.82	4673
3380.556	4649
3382.292	4634
3384.027	4677
3385.763	4627
3387.497	4569
3389.231	4560
3390.965	4663
3392.698	4600
3394.431	4653
3396.164	4602
3397.896	4603
3399.627	4597
3401.36	4500
3403.09	4577
3404.82	4509
3406.55	4627
3408.279	4454
3410.01	4554
3411.738	4468
3413.467	4562
3415.194	4595
3416.92	4585
3418.647	4527
3420.375	4441
3422.102	4489
3423.827	4520
3425.553	4471
3427.277	4498
3429.003	4428
3430.727	4631
3432.451	4474
3434.173	4416
3435.896	4432
3437.62	4530
3439.343	4444
3441.063	4446
3442.785	4465
3444.505	4400
3446.226	4444
3447.948	4395
3449.666	4460
3451.386	4328
3453.104	4378
3454.823	4485
3456.541	4378
3458.259	4352
3459.976	4398
3461.693	4343
3463.408	4385
3465.125	4299
3466.841	4328
3468.556	4297
3470.271	4192
3471.985	4325
3473.698	4331
3475.414	4331
3477.126	4324
3478.838	4246
3480.55	4298
3482.263	4241
3483.975	4207
3485.686	4298
3487.396	4291
3489.106	4179
3490.817	4263
3492.526	4237
3494.236	4276
3495.944	4264
3497.652	4197
3499.359	4165
3501.066	4183
3502.775	4211
3504.481	4224
3506.187	4184
3507.893	4216
3509.598	4241
3511.304	4173
3513.009	4143
3514.713	4171
3516.417	4120
3518.12	4156
3519.821	4087
3521.525	4165
3523.228	4181
3524.929	4133
3526.631	4149
3528.33	4041
3530.032	4049
3531.733	4145
3533.433	4089
3535.131	4009
3536.83	4096
3538.529	4065
3540.227	4098
3541.925	4016
3543.623	3964
3545.319	4016
3547.016	4024
3548.712	3969
3550.408	4059
3552.103	4034
3553.798	3951
3555.491	4060
3557.188	3967
3558.88	4010
3560.574	4075
3562.266	4050
3563.959	4067
3565.651	3884
3567.343	3924
3569.035	4019
3570.725	3963
3572.415	4013
3574.106	3987
3575.797	3964
3577.485	3994
3579.174	3987
3580.863	3951
3582.551	3990
3584.238	3869
3585.926	3917
3587.613	3878
3589.3	3909
3590.986	3938
3592.671	3974
3594.357	3808
3596.042	3897
3597.726	3853
3599.41	3853
3601.094	3850
3602.778	3826
3604.461	3896
3606.143	3860
3607.825	3864
3609.507	3835
3611.188	3795
3612.87	3761
3614.551	3765
3616.229	3726
3617.909	3770
3619.589	3835
3621.269	3711
3622.948	3783
3624.625	3858
3626.302	3731
3627.98	3762
3629.657	3748
3631.334	3700
3633.01	3753
3634.686	3733
3636.361	3695
3638.036	3777
3639.712	3711
3641.385	3692
3643.06	3671
3644.732	3714
3646.405	3683
3648.08	3622
3649.751	3641
3651.424	3543
3653.094	3668
3654.766	3661
3656.436	3663
3658.106	3620
3659.777	3702
3661.446	3578
3663.115	3631
3664.783	3666
3666.452	3626
3668.121	3657
3669.788	3620
3671.454	3572
3673.121	3580
3674.789	3613
3676.455	3541
3678.12	3575
3679.784	3633
3681.45	3522
3683.114	3616
3684.779	3616
3686.442	3570
3688.105	3597
3689.768	3600
3691.43	3601
3693.093	3532
3694.754	3531
3696.415	3486
3698.076	3525
3699.736	3575
3701.396	3546
3703.057	3526
3704.716	3526
3706.375	3555
3708.034	3539
3709.692	3470
3711.351	3519
3713.008	3515
3714.665	3584
3716.321	3544
3717.977	3547
3719.634	3540
3721.29	3501
3722.945	3510
3724.598	3449
3726.253	3481
3727.907	3541
3729.561	3554
3731.214	3433
3732.867	3509
3734.518	3458
3736.171	3476
3737.824	3477
3739.474	3448
3741.125	3493
3742.775	3404
3744.425	3383
3746.074	3434
3747.725	3409
3749.373	3384
3751.022	3445
3752.669	3404
3754.318	3394
3755.966	3414
3757.612	3411
3759.259	3378
3760.905	3443
3762.55	3301
3764.197	3332
3765.842	3391
3767.486	3375
3769.131	3421
3770.774	3347
3772.417	3448
3774.061	3420
3775.705	3390
3777.347	3415
3778.988	3444
3780.629	3449
3782.271	3382
3783.912	3384
3785.552	3300
3787.192	3346
3788.831	3421
3790.472	3476
3792.112	3339
3793.75	3346
3795.388	3387
3797.024	3291
3798.661	3363
3800.3	3293
3801.936	3288
3803.572	3362
3805.208	3320
3806.844	3308
3808.48	3389
3810.115	3262
3811.748	3323
3813.382	3306
3815.016	3288
3816.649	3330
3818.283	3289
3819.914	3273
3821.547	3328
3823.178	3281
3824.809	3264
3826.441	3272
3828.072	3290
3829.701	3284
3831.331	3255
3832.96	3278
3834.591	3204
3836.219	3256
3837.847	3269
3839.475	3247
3841.102	3269
3842.729	3316
3844.357	3248
3845.984	3286
3847.609	3229
3849.234	3291
3850.86	3179
3852.485	3229
3854.11	3288
3855.734	3237
3857.357	3245
3858.981	3269
3860.603	3218
3862.227	3157
3863.848	3271
3865.471	3231
3867.092	3210
3868.713	3123
3870.334	3211
3871.954	3162
3873.575	3208
3875.194	3145
3876.813	3152
3878.433	3122
3880.051	3154
3881.669	3244
3883.286	3117
3884.904	3116
3886.52	3165
3888.138	3173
3889.754	3119
3891.37	3171
3892.985	3134
3894.6	3171
3896.216	3116
3897.831	3121
3899.444	3105
3901.058	3169
3902.67	3170
3904.283	3097
3905.897	3150
3907.509	3116
3909.121	3056
3910.731	3158
3912.342	3104
3913.954	3195
3915.563	3073
3917.174	3125
3918.783	3086
3920.391	3120
3922.002	3233
3923.611	3108
3925.218	3109
3926.826	3169
3928.432	3081
3930.039	3080
3931.647	3168
3933.253	3082
3934.859	3113
3936.464	3158
3938.068	3195
3939.675	3112
3941.278	3026
3942.883	3140
3944.486	3062
3946.089	3123
3947.692	3124
3949.295	3068
3950.898	3127
3952.499	3086
3954.1	3106
3955.7	3122
3957.303	3028
3958.903	3073
3960.502	3085
3962.101	3050
3963.7	3035
3965.301	3089
3966.899	3014
3968.497	3025
3970.094	2998
3971.691	3044
3973.288	3005
3974.885	3089
3976.481	3075
3978.077	3056
3979.672	3067
3981.267	2925
3982.863	3006
3984.457	3019
3986.051	3015
3987.645	2989
3989.238	3006
3990.831	2993
3992.425	3071
3994.017	3083
3995.607	2987
3997.199	2931
3998.79	2962
4000.382	2959
4001.973	3038
4003.561	2912
4005.151	2944
4006.741	2988
4008.331	2954
4009.918	2957
4011.507	2904
4013.095	2959
4014.681	2966
4016.269	2941
4017.856	2894
4019.443	2982
4021.028	2924
4022.614	2891
4024.199	2858
4025.785	2889
4027.37	2878
4028.953	2907
4030.536	2925
4032.12	2914
4033.704	2828
4035.287	2821
4036.869	2905
4038.45	2881
4040.032	2878
4041.613	2818
4043.195	2833
4044.776	2884
4046.356	2805
4047.935	2852
4049.515	2905
4051.095	2882
4052.674	2787
4054.251	2813
4055.829	2827
4057.406	2834
4058.985	2842
4060.562	2805
4062.139	2886
4063.715	2806
4065.29	2816
4066.865	2863
4068.442	2910
4070.016	2903
4071.59	2833
4073.164	2816
4074.738	2812
4076.312	2795
4077.885	2766
4079.458	2833
4081.03	2817
4082.602	2796
4084.173	2843
4085.745	2799
4087.315	2790
4088.886	2832
4090.456	2774
4092.026	2766
4093.596	2833
4095.165	2819
4096.734	2748
4098.301	2744
4099.869	2781
4101.437	2811
4103.006	2776
4104.572	2731
4106.139	2744
4107.704	2805
4109.27	2735
4110.837	2791
4112.401	2762
4113.966	2644
4115.53	2768
4117.094	2727
4118.659	2719
4120.223	2701
4121.785	2703
4123.347	2768
4124.909	2689
4126.471	2721
4128.034	2635
4129.595	2669
4131.155	2714
4132.716	2602
4134.275	2716
4135.836	2763
4137.395	2651
4138.955	2677
4140.513	2718
4142.071	2670
4143.628	2679
4145.188	2650
4146.745	2693
4148.302	2639
4149.858	2630
4151.414	2670
4152.971	2693
4154.526	2640
4156.081	2657
4157.635	2641
4159.189	2655
4160.745	2616
4162.298	2615
4163.852	2584
4165.405	2563
4166.957	2695
4168.51	2703
4170.063	2613
4171.614	2649
4173.166	2581
4174.717	2576
4176.267	2624
4177.817	2641
4179.368	2670
4180.917	2641
4182.466	2606
4184.016	2636
4185.564	2613
4187.112	2623
4188.66	2553
4190.207	2650
4191.754	2594
4193.301	2670
4194.848	2652
4196.394	2618
4197.94	2564
4199.484	2587
4201.03	2601
4202.575	2578
4204.12	2553
4205.663	2617
4207.207	2511
4208.75	2543
4210.292	2613
4211.836	2645
4213.378	2602
4214.92	2558
4216.46	2537
4218.002	2553
4219.544	2558
4221.083	2517
4222.625	2514
4224.164	2525
4225.703	2472
4227.244	2544
4228.782	2588
4230.32	2536
4231.857	2497
4233.395	2456
4234.933	2497
4236.471	2514
4238.007	2508
4239.542	2516
4241.078	2504
4242.614	2535
4244.15	2514
4245.685	2482
4247.219	2499
4248.753	2539
4250.287	2498
4251.82	2568
4253.354	2524
4254.887	2497
4256.419	2479
4257.951	2495
4259.483	2505
4261.016	2551
4262.547	2470
4264.078	2474
4265.608	2491
4267.137	2488
4268.668	2433
4270.197	2454
4271.727	2489
4273.254	2461
4274.783	2417
4276.311	2421
4277.84	2467
4279.366	2455
4280.894	2446
4282.42	2478
4283.946	2450
4285.473	2481
4286.998	2448
4288.523	2436
4290.047	2423
4291.572	2405
4293.096	2412
4294.622	2379
4296.144	2415
4297.668	2367
4299.19	2396
4300.713	2410
4302.236	2374
4303.758	2389
4305.279	2424
4306.799	2435
4308.321	2445
4309.842	2445
4311.361	2380
4312.882	2432
4314.401	2408
