400.0961	5519
402.6185	5483
405.1424	5520
407.6635	5564
410.1838	5465
412.7035	5483
415.2225	5622
417.7388	5610
420.2585	5622
422.7754	5666
425.2917	5692
427.8072	5726
430.3221	5712
432.8363	5818
435.3498	5835
437.8626	5826
440.3727	5824
442.8841	5943
445.3969	5851
447.907	5930
450.4142	5903
452.9229	5752
455.4289	5840
457.9362	5848
460.4449	5856
462.9488	5773
465.454	5889
467.9566	5882
470.4604	5897
472.9637	5873
475.4662	5938
477.966	5928
480.4671	5886
482.9656	5867
485.4633	5889
487.9645	6061
490.4608	5974
492.9566	5984
495.4536	5988
497.948	6053
500.4437	6021
502.9387	6105
505.431	6081
507.9226	6106
510.4136	6012
512.9079	6150
515.3975	6063
517.8864	6159
520.3746	6163
522.8622	6081
525.3491	6166
527.8394	6175
530.3249	6178
532.8098	6150
535.2939	6143
537.7774	6189
540.2623	6105
542.7444	6074
545.2259	6131
547.7067	6102
550.1868	6134
552.6683	6185
555.147	6198
557.6231	6224
560.1005	6199
562.5773	6210
565.0534	6046
567.5308	6345
570.0056	6191
572.4776	6237
574.951	6283
577.4237	6433
579.8978	6399
582.3671	6461
584.8378	6349
587.3079	6452
589.7773	6472
592.244	6398
594.714	6479
597.1793	6302
599.6461	6321
602.1121	6386
604.5754	6456
607.0421	6358
609.5042	6404
611.9675	6386
614.4282	6328
616.8902	6345
619.3515	6473
621.8122	6357
624.2702	6305
626.7296	6462
629.1863	6352
631.6423	6347
634.1017	6411
636.5563	6294
639.0104	6406
641.4658	6482
643.9185	6432
646.3725	6470
648.8239	6434
651.2766	6428
653.7266	6540
656.176	6453
658.6247	6464
661.0748	6455
663.5242	6537
665.9709	6619
668.417	6442
670.8624	6544
673.3092	6539
675.7533	6597
678.1968	6628
680.6395	6656
683.0817	6671
685.5251	6623
687.9659	6637
690.4061	6647
692.8456	6667
695.2844	6529
697.7226	6541
700.1621	6655
702.599	6671
705.0332	6563
707.4688	6727
709.9036	6766
712.3399	6653
714.7735	6853
717.2044	6716
719.6367	6729
722.0683	6740
724.4993	6909
726.9296	6812
729.3593	6856
731.7883	6954
734.2147	6938
736.6423	6920
739.0714	6935
741.4958	6882
743.9216	6918
746.3447	7018
748.7691	7086
751.1929	6990
753.616	7181
756.0366	7050
758.4584	7203
760.8776	7108
763.2982	7182
765.718	7080
768.1373	7114
770.5539	7181
772.9698	7170
775.3871	7056
777.8038	7207
780.2178	6986
782.6332	7112
785.0459	7188
787.458	7136
789.8714	7050
792.2842	7133
794.6943	7228
797.1038	7193
799.5127	7098
801.9209	7164
804.3324	7187
806.7393	7124
809.1456	7286
811.5513	7207
813.9562	7152
816.3625	7264
818.7663	7236
821.1693	7261
823.5718	7311
825.9735	7327
828.3746	7049
830.7771	7211
833.177	7240
835.5762	7413
837.9747	7305
840.3727	7242
842.772	7394
845.1666	7344
847.5626	7287
849.958	7394
852.3527	7394
854.7488	7341
857.1403	7374
859.5331	7320
861.9253	7418
864.3168	7280
866.7057	7296
869.098	7447
871.4876	7403
873.8746	7308
876.263	7417
878.6487	7427
881.0378	7286
883.4243	7349
885.8081	7361
888.1933	7434
890.5759	7225
892.9598	7349
895.343	7285
897.7256	7445
900.1057	7312
902.4871	7368
904.8659	7391
907.246	7335
909.6254	7408
912.0023	7490
914.3786	7448
916.7562	7641
919.1331	7600
921.5074	7612
923.8831	7804
926.2562	7856
928.6287	7725
931.0005	7770
933.3757	7686
935.7462	7875
938.1162	7744
940.4855	7811
942.8542	7736
945.2242	7812
947.5916	7832
949.9584	7907
952.3266	7990
954.6921	8142
957.0571	8312
959.4233	8549
961.787	8581
964.15	8494
966.5125	8414
968.8742	8177
971.2354	8070
973.5959	7901
975.9559	7930
978.3151	7738
980.6738	7765
983.0338	7770
985.3912	7607
987.7461	7678
990.1022	7616
992.4578	7643
994.8127	7613
997.1689	7616
999.5207	7667
1001.874	7574
1004.226	7743
1006.576	7642
1008.929	7620
1011.28	7623
1013.628	7472
1015.977	7577
1018.324	7623
1020.674	7602
1023.019	7688
1025.366	7587
1027.713	7651
1030.056	7607
1032.399	7714
1034.746	7663
1037.087	7754
1039.431	7727
1041.771	7769
1044.113	7888
1046.454	7851
1048.793	7797
1051.133	7572
1053.471	7830
1055.807	7812
1058.146	7639
1060.483	7626
1062.818	7818
1065.153	7797
1067.489	7855
1069.822	7945
1072.156	7798
1074.488	7831
1076.82	7902
1079.15	7770
1081.48	7853
1083.814	7906
1086.143	7661
1088.471	7936
1090.799	7811
1093.126	7750
1095.452	7886
1097.78	7906
1100.105	7777
1102.43	7766
1104.754	7779
1107.077	8003
1109.4	7820
1111.722	7772
1114.044	7934
1116.365	8003
1118.685	7925
1121.005	7864
1123.324	7972
1125.643	7800
1127.961	7951
1130.278	7927
1132.595	7905
1134.911	7895
1137.226	7877
1139.541	7894
1141.854	7932
1144.167	7942
1146.482	7941
1148.793	7896
1151.105	7809
1153.414	7864
1155.725	7779
1158.033	7974
1160.344	7930
1162.651	7895
1164.959	7920
1167.265	7900
1169.572	7923
1171.878	7944
1174.184	7969
1176.488	7888
1178.79	7884
1181.094	7970
1183.396	7973
1185.699	7969
1188.001	7799
1190.301	7865
1192.6	7761
1194.9	7957
1197.2	7903
1199.497	7876
1201.794	7839
1204.09	7898
1206.387	7971
1208.684	7938
1210.978	7900
1213.272	7941
1215.565	7808
1217.858	7823
1220.15	8006
1222.443	7944
1224.734	8000
1227.024	8026
1229.313	8133
1231.602	8040
1233.892	8006
1236.18	8171
1238.467	8078
1240.754	8171
1243.04	8149
1245.325	8175
1247.612	8231
1249.896	8173
1252.178	8153
1254.461	8262
1256.743	8119
1259.027	8189
1261.308	8248
1263.587	8161
1265.867	8169
1268.146	8229
1270.425	8286
1272.703	8201
1274.981	8198
1277.256	8218
1279.532	8203
1281.808	8179
1284.083	8246
1286.358	8072
1288.63	8144
1290.904	8106
1293.175	8100
1295.449	8177
1297.719	8179
1299.99	8013
1302.259	7950
1304.529	8068
1306.798	8084
1309.065	8054
1311.333	8200
1313.599	8082
1315.866	8240
1318.131	8072
1320.396	8264
1322.66	8087
1324.925	8100
1327.187	8169
1329.448	8206
1331.711	8070
1333.974	8155
1336.234	8249
1338.493	8204
1340.752	8036
1343.01	8097
1345.269	8068
1347.526	8097
1349.784	8021
1352.04	8125
1354.295	8011
1356.552	8151
1358.806	8192
1361.059	8111
1363.312	8290
1365.564	8119
1367.818	8083
1370.069	8226
1372.318	8205
1374.568	8102
1376.817	8170
1379.066	8226
1381.316	8209
1383.564	8282
1385.809	8235
1388.056	8023
1390.301	8326
1392.549	8132
1394.793	8291
1397.036	8324
1399.279	8335
1401.522	8376
1403.763	8480
1406.007	8427
1408.248	8487
1410.487	8387
1412.727	8431
1414.965	8384
1417.205	8516
1419.442	8401
1421.68	8383
1423.915	8307
1426.152	8419
1428.388	8478
1430.623	8320
1432.857	8493
1435.091	8398
1437.323	8526
1439.556	8510
1441.789	8454
1444.019	8433
1446.25	8442
1448.48	8480
1450.708	8457
1452.938	8538
1455.167	8402
1457.394	8682
1459.62	8524
1461.846	8486
1464.073	8479
1466.299	8504
1468.523	8467
1470.746	8370
1472.969	8301
1475.191	8356
1477.415	8365
1479.636	8317
1481.858	8329
1484.078	8182
1486.298	8292
1488.518	8344
1490.736	8193
1492.954	8307
1495.169	8171
1497.386	8148
1499.602	8203
1501.819	8264
1504.034	8052
1506.248	8107
1508.462	8151
1510.675	8087
1512.888	8137
1515.1	8218
1517.311	8079
1519.522	8115
1521.732	8278
1523.942	8139
1526.151	8249
1528.36	8118
1530.566	8173
1532.773	8214
1534.98	8115
1537.187	8091
1539.392	8204
1541.596	8210
1543.801	8255
1546.005	8249
1548.208	8158
1550.411	8325
1552.612	8158
1554.814	8186
1557.013	8207
1559.212	8247
1561.414	8414
1563.612	8356
1565.811	8218
1568.007	8312
1570.203	8297
1572.403	8382
1574.598	8284
1576.792	8282
1578.988	8384
1581.181	8271
1583.376	8391
1585.568	8343
1587.761	8363
1589.952	8262
1592.143	8457
1594.333	8422
1596.524	8407
1598.715	8452
1600.903	8401
1603.091	8447
1605.278	8404
1607.466	8505
1609.652	8390
1611.838	8513
1614.023	8459
1616.207	8378
1618.391	8538
1620.576	8390
1622.759	8522
1624.941	8538
1627.123	8395
1629.304	8427
1631.484	8520
1633.664	8490
1635.844	8458
1638.022	8409
1640.201	8546
1642.38	8456
1644.556	8554
1646.732	8470
1648.908	8482
1651.084	8548
1653.257	8496
1655.433	8664
1657.607	8506
1659.779	8599
1661.951	8619
1664.122	8629
1666.295	8533
1668.467	8547
1670.635	8564
1672.805	8674
1674.973	8711
1677.142	8497
1679.31	8487
1681.478	8473
1683.644	8587
1685.81	8545
1687.975	8534
1690.142	8436
1692.305	8458
1694.468	8463
1696.632	8440
1698.794	8516
1700.957	8462
1703.119	8482
1705.279	8423
1707.439	8524
1709.598	8487
1711.758	8318
1713.917	8369
1716.075	8435
1718.231	8483
1720.388	8413
1722.543	8402
1724.702	8382
1726.856	8343
1729.01	8452
1731.164	8521
1733.317	8390
1735.471	8546
1737.623	8392
1739.774	8407
1741.925	8400
1744.075	8482
1746.225	8336
1748.376	8346
1750.524	8502
1752.672	8312
1754.82	8443
1756.965	8384
1759.113	8383
1761.259	8434
1763.405	8369
1765.549	8363
1767.694	8407
1769.836	8388
1771.981	8427
1774.123	8468
1776.264	8503
1778.405	8404
1780.546	8513
1782.687	8500
1784.827	8420
1786.966	8457
1789.103	8456
1791.242	8535
1793.381	8549
1795.517	8382
1797.653	8504
1799.788	8467
1801.923	8386
1804.057	8536
1806.193	8451
1808.326	8401
1810.457	8486
1812.59	8404
1814.721	8527
1816.855	8468
1818.984	8610
1821.113	8407
1823.244	8450
1825.372	8352
1827.499	8410
1829.63	8367
1831.756	8506
1833.882	8424
1836.007	8386
1838.132	8417
1840.26	8556
1842.384	8389
1844.507	8456
1846.63	8465
1848.752	8311
1850.875	8458
1852.996	8477
1855.118	8285
1857.238	8480
1859.358	8392
1861.477	8346
1863.597	8320
1865.715	8346
1867.832	8453
1869.948	8343
1872.064	8314
1874.181	8495
1876.297	8304
1878.411	8403
1880.526	8337
1882.639	8490
1884.752	8375
1886.865	8361
1888.977	8199
1891.089	8362
1893.2	8469
1895.308	8497
1897.42	8413
1899.53	8426
1901.639	8353
1903.745	8462
1905.853	8645
1907.962	8477
1910.067	8294
1912.174	8517
1914.278	8475
1916.383	8467
1918.486	8547
1920.592	8407
1922.694	8492
1924.797	8476
1926.898	8404
1929	8477
1931.102	8475
1933.203	8538
1935.301	8612
1937.401	8568
1939.499	8507
1941.598	8617
1943.697	8551
1945.793	8537
1947.888	8634
1949.985	8551
1952.08	8476
1954.176	8546
1956.269	8342
1958.364	8421
1960.457	8495
1962.549	8506
1964.642	8557
1966.733	8573
1968.823	8478
1970.913	8528
1973.005	8539
1975.093	8475
1977.184	8554
1979.271	8468
1981.359	8416
1983.446	8389
1985.532	8508
1987.619	8470
1989.705	8392
1991.789	8413
1993.874	8482
1995.956	8377
1998.041	8406
2000.123	8454
2002.206	8437
2004.287	8286
2006.368	8373
2008.449	8448
2010.529	8435
2012.609	8365
2014.688	8254
2016.766	8403
2018.843	8256
2020.922	8363
2022.999	8469
2025.074	8419
2027.15	8458
2029.225	8461
2031.299	8491
2033.375	8443
2035.447	8410
2037.52	8312
2039.592	8377
2041.664	8321
2043.736	8421
2045.807	8316
2047.876	8413
2049.947	8418
2052.015	8307
2054.086	8436
2056.153	8343
2058.221	8441
2060.288	8370
2062.353	8374
2064.42	8358
2066.486	8482
2068.55	8314
2070.614	8361
2072.678	8539
2074.741	8437
2076.805	8405
2078.866	8386
2080.929	8283
2082.99	8498
2085.049	8424
2087.109	8383
2089.17	8316
2091.228	8405
2093.286	8461
2095.344	8472
2097.4	8365
2099.46	8408
2101.516	8377
2103.572	8481
2105.626	8423
2107.679	8379
2109.735	8406
2111.788	8480
2113.841	8447
2115.894	8528
2117.945	8234
2119.997	8359
2122.049	8429
2124.1	8382
2126.148	8382
2128.197	8408
2130.246	8402
2132.296	8327
2134.342	8309
2136.39	8408
2138.437	8354
2140.483	8508
2142.527	8285
2144.574	8352
2146.619	8355
2148.661	8379
2150.705	8300
2152.747	8361
2154.792	8349
2156.832	8394
2158.874	8332
2160.915	8173
2162.954	8253
2164.995	8281
2167.034	8227
2169.072	8256
2171.111	8425
2173.148	8233
2175.186	8244
2177.223	8209
2179.258	8160
2181.294	8290
2183.328	8213
2185.362	8197
2187.398	8180
2189.431	8246
2191.463	8166
2193.495	8319
2195.528	8187
2197.56	8231
2199.59	8086
2201.62	8133
2203.649	8180
2205.678	8167
2207.708	8027
2209.737	8206
2211.764	8121
2213.791	8039
2215.817	8154
2217.843	8138
2219.87	8176
2221.895	8132
2223.919	8043
2225.942	8180
2227.966	8232
2229.988	8150
2232.012	8168
2234.032	8035
2236.054	8038
2238.074	7976
2240.095	8116
2242.116	8228
2244.135	8118
2246.153	8074
2248.171	8071
2250.188	8142
2252.208	8098
2254.223	8263
2256.239	8037
2258.255	7979
2260.269	8140
2262.283	8233
2264.3	8016
2266.312	8023
2268.325	8098
2270.336	7994
2272.349	8019
2274.362	8236
2276.372	8152
2278.383	8069
2280.392	8172
2282.402	8012
2284.409	8103
2286.418	8031
2288.427	8086
2290.433	7952
2292.441	7978
2294.446	8092
2296.453	7928
2298.459	8121
2300.463	8094
2302.466	7921
2304.471	7946
2306.475	8098
2308.477	7937
2310.478	8009
2312.481	8004
2314.481	8009
2316.481	8008
2318.482	7920
2320.482	7892
2322.48	7911
2324.48	7958
2326.478	7970
2328.476	7977
2330.473	7929
2332.469	7986
2334.465	7999
2336.46	7944
2338.454	7995
2340.45	7956
2342.444	7842
2344.437	7845
2346.43	7969
2348.421	7789
2350.414	8011
2352.405	7830
2354.396	7823
2356.386	7872
2358.376	7978
2360.366	7785
2362.355	7946
2364.343	7870
2366.331	7815
2368.317	7926
2370.304	7984
2372.292	7897
2374.278	7874
2376.262	7842
2378.247	7866
2380.23	7853
2382.216	7790
2384.199	7933
2386.181	7753
2388.163	7867
2390.144	7751
2392.127	7813
2394.107	7785
2396.087	7738
2398.066	7809
2400.046	7826
2402.023	7720
2404.004	7714
2405.981	7759
2407.957	7709
2409.934	7754
2411.91	7745
2413.886	7789
2415.862	7763
2417.836	7795
2419.809	7779
2421.784	7699
2423.756	7746
2425.73	7704
2427.701	7676
2429.672	7655
2431.644	7806
2433.615	7729
2435.586	7631
2437.555	7754
2439.523	7729
2441.491	7824
2443.459	7736
2445.428	7703
2447.395	7685
2449.361	7704
2451.327	7651
2453.292	7708
2455.257	7832
2457.223	7814
2459.187	7770
2461.15	7650
2463.113	7598
2465.076	7674
2467.039	7638
2468.999	7695
2470.96	7607
2472.921	7679
2474.881	7623
2476.841	7500
2478.8	7630
2480.759	7550
2482.717	7599
2484.675	7629
2486.63	7448
2488.589	7613
2490.545	7546
2492.5	7569
2494.455	7555
2496.408	7507
2498.364	7571
2500.318	7556
2502.27	7597
2504.223	7480
2506.174	7649
2508.126	7582
2510.078	7582
2512.03	7596
2513.979	7602
2515.927	7531
2517.877	7600
2519.826	7471
2521.775	7518
2523.722	7438
2525.668	7545
2527.616	7363
2529.561	7591
2531.508	7528
2533.452	7605
2535.398	7379
2537.342	7550
2539.284	7397
2541.229	7501
2543.173	7589
2545.114	7482
2547.055	7510
2548.996	7451
2550.938	7474
2552.878	7480
2554.817	7550
2556.756	7477
2558.695	7566
2560.633	7474
2562.572	7491
2564.509	7660
2566.445	7510
2568.382	7489
2570.317	7470
2572.254	7461
2574.189	7525
2576.123	7406
2578.057	7525
2579.99	7619
2581.923	7421
2583.855	7455
2585.788	7532
2587.719	7435
2589.65	7507
2591.579	7509
2593.511	7495
2595.44	7504
2597.37	7537
2599.297	7396
2601.225	7560
2603.153	7506
2605.08	7477
2607.007	7419
2608.932	7587
2610.858	7537
2612.782	7493
2614.709	7595
2616.632	7543
2618.556	7526
2620.478	7463
2622.401	7464
2624.324	7467
2626.247	7430
2628.167	7439
2630.088	7418
2632.008	7496
2633.928	7366
2635.848	7485
2637.766	7529
2639.684	7474
2641.603	7479
2643.519	7500
2645.437	7558
2647.353	7292
2649.27	7451
2651.184	7555
2653.099	7640
2655.014	7548
2656.928	7430
2658.842	7556
2660.755	7343
2662.667	7358
2664.579	7442
2666.491	7465
2668.402	7425
2670.312	7398
2672.222	7417
2674.132	7456
2676.042	7496
2677.951	7482
2679.859	7471
2681.766	7436
2683.674	7397
2685.582	7266
2687.488	7458
2689.392	7392
2691.298	7366
2693.202	7455
2695.107	7347
2697.012	7353
2698.914	7332
2700.817	7326
2702.72	7302
2704.622	7361
2706.524	7238
2708.425	7357
2710.326	7265
2712.225	7351
2714.125	7277
2716.024	7328
2717.923	7296
2719.822	7286
2721.719	7305
2723.616	7119
2725.512	7349
2727.41	7300
2729.305	7265
2731.201	7134
2733.095	7318
2734.99	7268
2736.884	7311
2738.778	7244
2740.67	7306
2742.562	7232
2744.455	7360
2746.346	7158
2748.238	7325
2750.129	7161
2752.018	7179
2753.907	7143
2755.797	7186
2757.687	7365
2759.575	7214
2761.462	7217
2763.349	7135
2765.237	7130
2767.124	7171
2769.009	7173
2770.894	7310
2772.779	7253
2774.663	7194
2776.547	7211
2778.431	7229
2780.314	7070
2782.197	7149
2784.078	7075
2785.96	7021
2787.842	7181
2789.723	7189
2791.603	7224
2793.483	7092
2795.362	7057
2797.241	7249
2799.121	7159
2800.997	7171
2802.874	7234
2804.751	7155
2806.628	7076
2808.506	7133
2810.38	7170
2812.255	7118
2814.13	7109
2816.003	7156
2817.878	7138
2819.752	7179
2821.623	7211
2823.496	7085
2825.368	7129
2827.238	7179
2829.111	7092
2830.98	7204
2832.851	7002
2834.719	7108
2836.589	7088
2838.458	7066
2840.327	7155
2842.193	7097
2844.061	7017
2845.927	7023
2847.794	7021
2849.66	7166
2851.525	7141
2853.39	7129
2855.254	7160
2857.117	7208
2858.983	7200
2860.845	7147
2862.707	7151
2864.569	7267
2866.431	7193
2868.293	7237
2870.154	7186
2872.013	7373
2873.873	7351
2875.733	7242
2877.592	7418
2879.451	7323
2881.309	7360
2883.166	7398
2885.022	7457
2886.879	7515
2888.736	7474
2890.591	7484
2892.446	7527
2894.301	7567
2896.155	7471
2898.009	7650
2899.863	7542
2901.716	7424
2903.568	7407
2905.419	7496
2907.27	7437
2909.123	7582
2910.973	7456
2912.824	7538
2914.673	7589
2916.521	7658
2918.372	7706
2920.22	7555
2922.067	7704
2923.914	7713
2925.761	7732
2927.607	7840
2929.455	7774
2931.301	7827
2933.144	7814
2934.99	7798
2936.833	7872
2938.678	7848
2940.522	7996
2942.364	8062
2944.207	8184
2946.048	8188
2947.891	8259
2949.731	8231
2951.571	8133
2953.412	8192
2955.25	8009
2957.09	8121
2958.93	8145
2960.767	8161
2962.606	7857
2964.443	7880
2966.279	7812
2968.116	7737
2969.953	7740
2971.788	7772
2973.623	7692
2975.457	7637
2977.292	7638
2979.127	7332
2980.959	7428
2982.792	7385
2984.624	7506
2986.455	7424
2988.288	7319
2990.119	7230
2991.949	7273
2993.779	7291
2995.608	7254
2997.439	7211
2999.268	7241
3001.096	7051
3002.923	7075
3004.751	7125
3006.578	7019
3008.406	6889
3010.232	6997
3012.057	6903
3013.883	6983
3015.706	6927
3017.532	6899
3019.356	6867
3021.179	6781
3023.002	6864
3024.823	6703
3026.646	6792
3028.469	6667
3030.289	6706
3032.11	6697
3033.93	6641
3035.749	6693
3037.57	6667
3039.39	6761
3041.207	6658
3043.026	6638
3044.842	6684
3046.661	6607
3048.477	6637
3050.294	6671
3052.109	6628
3053.925	6605
3055.739	6584
3057.555	6631
3059.368	6623
3061.181	6767
3062.995	6525
3064.807	6666
3066.62	6567
3068.433	6600
3070.243	6511
3072.054	6604
3073.865	6633
3075.675	6532
3077.485	6530
3079.293	6544
3081.102	6371
3082.911	6455
3084.719	6456
3086.527	6506
3088.333	6359
3090.139	6616
3091.945	6439
3093.75	6495
3095.557	6398
3097.361	6473
3099.165	6518
3100.969	6377
3102.772	6350
3104.575	6320
3106.379	6225
3108.181	6380
3109.982	6281
3111.783	6391
3113.584	6382
3115.386	6349
3117.186	6390
3118.985	6273
3120.783	6345
3122.582	6367
3124.381	6333
3126.179	6360
3127.975	6318
3129.772	6341
3131.569	6275
3133.365	6400
3135.161	6234
3136.956	6295
3138.751	6265
3140.544	6271
3142.338	6335
3144.132	6301
3145.925	6171
3147.717	6199
3149.509	6166
3151.301	6261
3153.091	6184
3154.884	6149
3156.673	6168
3158.462	6239
3160.252	6258
3162.041	6313
3163.831	6242
3165.618	6185
3167.405	6177
3169.193	6189
3170.979	6153
3172.767	6123
3174.553	6169
3176.338	6183
3178.123	6169
3179.907	6133
3181.692	6030
3183.477	6128
3185.259	6126
3187.042	6134
3188.824	6106
3190.607	6119
3192.389	6005
3194.17	5970
3195.951	6092
3197.73	6074
3199.51	6045
3201.289	6075
3203.07	6220
3204.848	5985
3206.626	6095
3208.403	6098
3210.18	6067
3211.959	6118
3213.735	5997
3215.511	6107
3217.285	6051
3219.06	6031
3220.836	6072
3222.611	6067
3224.384	6087
3226.158	6011
3227.929	6070
3229.702	6059
3231.476	6044
3233.248	5984
3235.018	6101
3236.789	6003
3238.56	6213
3240.33	6107
3242.1	6044
3243.869	6007
3245.637	5956
3247.405	5971
3249.172	5880
3250.941	5970
3252.707	5993
3254.474	6056
3256.24	5991
3258.006	5924
3259.772	5917
3261.537	5975
3263.301	6037
3265.065	5993
3266.828	5926
3268.592	5940
3270.355	6033
3272.117	5893
3273.878	5897
3275.64	5945
3277.401	6068
3279.162	5937
3280.922	5874
3282.682	5894
3284.441	5999
3286.199	6012
3287.959	5929
3289.716	5986
3291.475	6016
3293.232	5965
3294.988	5928
3296.744	5889
3298.501	5966
3300.256	6001
3302.011	5951
3303.766	5936
3305.52	5919
3307.275	5975
3309.028	5911
3310.781	5906
3312.533	5879
3314.285	5904
3316.038	5932
3317.789	5902
3319.54	6024
3321.289	5983
3323.039	5905
3324.789	5822
3326.539	5951
3328.288	5858
3330.035	5837
3331.783	5804
3333.531	5892
3335.28	5833
3337.025	5767
3338.771	5962
3340.518	5894
3342.262	5928
3344.009	5887
3345.753	5942
3347.497	5748
3349.24	5817
3350.983	5850
3352.726	5876
3354.469	5779
3356.212	5852
3357.952	5863
3359.694	5804
3361.434	5809
3363.176	5853
3364.916	5727
3366.654	5724
3368.394	5730
3370.132	5816
3371.871	5648
3373.61	5873
3375.346	5755
3377.083	5668
3378.82	5626
3380.556	5845
3382.292	5652
3384.027	5699
3385.763	5665
3387.497	5644
3389.231	5589
3390.965	5703
3392.698	5592
3394.431	5707
3396.164	5672
3397.896	5727
3399.627	5635
3401.36	5655
3403.09	5674
3404.82	5739
3406.55	5603
3408.279	5620
3410.01	5736
3411.738	5603
3413.467	5675
3415.194	5637
3416.92	5547
3418.647	5652
3420.375	5536
3422.102	5617
3423.827	5595
3425.553	5582
3427.277	5541
3429.003	5584
3430.727	5651
3432.451	5578
3434.173	5565
3435.896	5647
3437.62	5563
3439.343	5482
3441.063	5519
3442.785	5447
3444.505	5525
3446.226	5555
3447.948	5475
3449.666	5431
3451.386	5540
3453.104	5446
3454.823	5437
3456.541	5445
3458.259	5488
3459.976	5428
3461.693	5486
3463.408	5466
3465.125	5369
3466.841	5329
3468.556	5394
3470.271	5311
3471.985	5246
3473.698	5303
3475.414	5436
3477.126	5303
3478.838	5382
3480.55	5348
3482.263	5345
3483.975	5325
3485.686	5396
3487.396	5338
3489.106	5327
3490.817	5313
3492.526	5281
3494.236	5236
3495.944	5175
3497.652	5322
3499.359	5282
3501.066	5264
3502.775	5322
3504.481	5218
3506.187	5214
3507.893	5178
3509.598	5246
3511.304	5249
3513.009	5183
3514.713	5264
3516.417	5226
3518.12	5201
3519.821	5183
3521.525	5110
3523.228	5218
3524.929	5172
3526.631	5131
3528.33	5112
3530.032	5223
3531.733	5179
3533.433	5084
3535.131	5159
3536.83	5088
3538.529	5042
3540.227	5096
3541.925	5153
3543.623	5093
3545.319	5219
3547.016	5127
3548.712	5135
3550.408	5175
3552.103	5128
3553.798	5000
3555.491	5057
3557.188	5026
3558.88	5123
3560.574	5095
3562.266	5071
3563.959	5124
3565.651	5004
3567.343	4955
3569.035	4983
3570.725	4992
3572.415	5025
3574.106	4953
3575.797	5001
3577.485	5052
3579.174	4964
3580.863	4974
3582.551	5007
3584.238	5028
3585.926	4962
3587.613	4970
3589.3	4910
3590.986	4959
3592.671	4906
3594.357	4970
3596.042	4974
3597.726	4948
3599.41	4945
3601.094	5014
3602.778	4848
3604.461	4932
3606.143	4855
3607.825	4960
3609.507	4867
3611.188	4818
3612.87	4900
3614.551	4916
3616.229	4871
3617.909	4816
3619.589	4835
3621.269	4824
3622.948	4856
3624.625	4871
3626.302	4783
3627.98	4760
3629.657	4777
3631.334	4876
3633.01	4690
3634.686	4759
3636.361	4692
3638.036	4725
3639.712	4794
3641.385	4772
3643.06	4808
3644.732	4643
3646.405	4713
3648.08	4744
3649.751	4668
3651.424	4710
3653.094	4763
3654.766	4720
3656.436	4759
3658.106	4741
3659.777	4731
3661.446	4746
3663.115	4656
3664.783	4671
3666.452	4719
3668.121	4598
3669.788	4693
3671.454	4672
3673.121	4620
3674.789	4624
3676.455	4656
3678.12	4622
3679.784	4648
3681.45	4669
3683.114	4668
3684.779	4556
3686.442	4622
3688.105	4638
3689.768	4715
3691.43	4701
3693.093	4600
3694.754	4608
3696.415	4579
3698.076	4572
3699.736	4612
3701.396	4434
3703.057	4604
3704.716	4543
3706.375	4422
3708.034	4514
3709.692	4507
3711.351	4580
3713.008	4443
3714.665	4557
3716.321	4466
3717.977	4499
3719.634	4604
3721.29	4512
3722.945	4493
3724.598	4577
3726.253	4584
3727.907	4468
3729.561	4533
3731.214	4521
3732.867	4517
3734.518	4486
3736.171	4566
3737.824	4427
3739.474	4532
3741.125	4468
3742.775	4478
3744.425	4524
3746.074	4493
3747.725	4469
3749.373	4438
3751.022	4438
3752.669	4376
3754.318	4428
3755.966	4491
3757.612	4450
3759.259	4430
3760.905	4447
3762.55	4395
3764.197	4411
3765.842	4488
3767.486	4444
3769.131	4403
3770.774	4324
3772.417	4368
3774.061	4332
3775.705	4389
3777.347	4363
3778.988	4388
3780.629	4386
3782.271	4345
3783.912	4392
3785.552	4335
3787.192	4400
3788.831	4316
3790.472	4403
3792.112	4332
3793.75	4320
3795.388	4323
3797.024	4262
3798.661	4307
3800.3	4325
3801.936	4278
3803.572	4335
3805.208	4189
3806.844	4326
3808.48	4291
3810.115	4348
3811.748	4152
3813.382	4246
3815.016	4233
3816.649	4217
3818.283	4217
3819.914	4214
3821.547	4291
3823.178	4158
3824.809	4159
3826.441	4265
3828.072	4236
3829.701	4214
3831.331	4245
3832.96	4176
3834.591	4251
3836.219	4212
3837.847	4292
3839.475	4192
3841.102	4195
3842.729	4165
3844.357	4168
3845.984	4127
3847.609	4165
3849.234	4177
3850.86	4119
3852.485	4146
3854.11	4192
3855.734	4179
3857.357	4189
3858.981	4183
3860.603	4168
3862.227	4105
3863.848	4053
3865.471	4036
3867.092	4102
3868.713	4161
3870.334	4102
3871.954	4075
3873.575	4128
3875.194	4129
3876.813	4100
3878.433	4090
3880.051	4045
3881.669	4183
3883.286	4228
3884.904	4108
3886.52	4021
3888.138	4030
3889.754	4098
3891.37	4097
3892.985	4110
3894.6	4047
3896.216	4062
3897.831	4031
3899.444	4012
3901.058	4045
3902.67	4076
3904.283	4025
3905.897	4088
3907.509	4109
3909.121	4056
3910.731	4068
3912.342	4025
3913.954	4018
3915.563	4018
3917.174	4002
3918.783	4054
3920.391	4035
3922.002	3994
3923.611	3986
3925.218	4007
3926.826	4109
3928.432	3973
3930.039	3960
3931.647	3942
3933.253	4036
3934.859	3938
3936.464	3992
3938.068	3969
3939.675	4140
3941.278	3973
3942.883	4007
3944.486	3957
3946.089	3924
3947.692	3953
3949.295	3935
3950.898	4017
3952.499	3987
3954.1	3935
3955.7	3906
3957.303	3941
3958.903	3937
3960.502	3919
3962.101	3971
3963.7	3836
3965.301	3947
3966.899	3865
3968.497	3974
3970.094	3868
3971.691	3863
3973.288	3882
3974.885	3855
3976.481	3917
3978.077	3889
3979.672	3833
3981.267	3893
3982.863	3844
3984.457	3871
3986.051	3876
3987.645	3830
3989.238	3834
3990.831	3793
3992.425	3845
3994.017	3776
3995.607	3757
3997.199	3857
3998.79	3852
4000.382	3778
4001.973	3782
4003.561	3815
4005.151	3744
4006.741	3629
4008.331	3804
4009.918	3770
4011.507	3712
4013.095	3789
4014.681	3714
4016.269	3641
4017.856	3709
4019.443	3719
4021.028	3734
4022.614	3720
4024.199	3708
4025.785	3663
4027.37	3676
4028.953	3648
4030.536	3737
4032.12	3746
4033.704	3809
4035.287	3716
4036.869	3672
4038.45	3645
4040.032	3762
4041.613	3651
4043.195	3693
4044.776	3752
4046.356	3713
4047.935	3658
4049.515	3691
4051.095	3656
4052.674	3608
4054.251	3620
4055.829	3655
4057.406	3577
4058.985	3578
4060.562	3569
4062.139	3568
4063.715	3631
4065.29	3666
4066.865	3621
4068.442	3652
4070.016	3583
4071.59	3670
4073.164	3538
4074.738	3602
4076.312	3663
4077.885	3585
4079.458	3554
4081.03	3561
4082.602	3579
4084.173	3516
4085.745	3599
4087.315	3475
4088.886	3528
4090.456	3595
4092.026	3432
4093.596	3537
4095.165	3520
4096.734	3533
4098.301	3626
4099.869	3521
4101.437	3472
4103.006	3507
4104.572	3613
4106.139	3550
4107.704	3550
4109.27	3494
4110.837	3543
4112.401	3568
4113.966	3480
4115.53	3515
4117.094	3447
4118.659	3520
4120.223	3430
4121.785	3525
4123.347	3472
4124.909	3359
4126.471	3481
4128.034	3436
4129.595	3460
4131.155	3368
4132.716	3440
4134.275	3414
4135.836	3388
4137.395	3444
4138.955	3438
4140.513	3404
4142.071	3427
4143.628	3436
4145.188	3458
4146.745	3354
4148.302	3466
4149.858	3423
4151.414	3355
4152.971	3368
4154.526	3405
4156.081	3336
4157.635	3367
4159.189	3437
4160.745	3373
4162.298	3358
4163.852	3376
4165.405	3416
4166.957	3363
4168.51	3297
4170.063	3278
4171.614	3335
4173.166	3301
4174.717	3320
4176.267	3305
4177.817	3334
4179.368	3323
4180.917	3306
4182.466	3308
4184.016	3316
4185.564	3310
4187.112	3303
4188.66	3261
4190.207	3257
4191.754	3177
4193.301	3263
4194.848	3352
4196.394	3235
4197.94	3248
4199.484	3294
4201.03	3222
4202.575	3314
4204.12	3165
4205.663	3304
4207.207	3189
4208.75	3315
4210.292	3305
4211.836	3273
4213.378	3246
4214.92	3179
4216.46	3185
4218.002	3208
4219.544	3245
4221.083	3282
4222.625	3234
4224.164	3170
4225.703	3239
4227.244	3180
4228.782	3218
4230.32	3216
4231.857	3163
4233.395	3211
4234.933	3226
4236.471	3224
4238.007	3250
4239.542	3169
4241.078	3207
4242.614	3086
4244.15	3149
4245.685	3193
4247.219	3165
4248.753	3204
4250.287	3123
4251.82	3136
4253.354	3141
4254.887	3176
4256.419	3203
4257.951	3113
4259.483	3189
4261.016	3065
4262.547	3136
4264.078	3184
4265.608	3148
4267.137	3097
4268.668	3110
4270.197	3095
4271.727	3095
4273.254	3132
4274.783	3085
4276.311	3108
4277.84	3154
4279.366	3094
4280.894	3141
4282.42	3037
4283.946	3079
4285.473	3096
4286.998	3055
4288.523	3157
4290.047	3062
4291.572	3065
4293.096	3110
4294.622	3054
4296.144	3075
4297.668	3094
4299.19	3081
4300.713	3045
4302.236	3022
4303.758	2971
4305.279	3005
4306.799	3042
4308.321	3040
4309.842	2966
4311.361	3090
4312.882	3001
4314.401	3017
