400.0961	7188
402.6185	7130
405.1424	7262
407.6635	7201
410.1838	7214
412.7035	7247
415.2225	7281
417.7388	7341
420.2585	7402
422.7754	7474
425.2917	7531
427.8072	7518
430.3221	7702
432.8363	7733
435.3498	7654
437.8626	7698
440.3727	7759
442.8841	7754
445.3969	7789
447.907	7703
450.4142	7586
452.9229	7750
455.4289	7705
457.9362	7673
460.4449	7670
462.9488	7761
465.454	7838
467.9566	7610
470.4604	7812
472.9637	7784
475.4662	7932
477.966	7808
480.4671	7836
482.9656	7782
485.4633	7814
487.9645	7831
490.4608	7849
492.9566	7986
495.4536	8046
497.948	8017
500.4437	7897
502.9387	7912
505.431	7949
507.9226	7956
510.4136	8003
512.9079	8027
515.3975	8036
517.8864	8113
520.3746	8014
522.8622	8083
525.3491	8082
527.8394	8159
530.3249	8099
532.8098	8004
535.2939	8017
537.7774	8151
540.2623	8044
542.7444	8114
545.2259	8049
547.7067	8073
550.1868	8082
552.6683	8211
555.147	8159
557.6231	8070
560.1005	8340
562.5773	8283
565.0534	8197
567.5308	8260
570.0056	8218
572.4776	8234
574.951	8445
577.4237	8359
579.8978	8457
582.3671	8463
584.8378	8489
587.3079	8388
589.7773	8545
592.244	8463
594.714	8410
597.1793	8493
599.6461	8352
602.1121	8447
604.5754	8450
607.0421	8395
609.5042	8349
611.9675	8448
614.4282	8444
616.8902	8429
619.3515	8396
621.8122	8466
624.2702	8452
626.7296	8325
629.1863	8301
631.6423	8431
634.1017	8342
636.5563	8322
639.0104	8465
641.4658	8424
643.9185	8428
646.3725	8564
648.8239	8274
651.2766	8561
653.7266	8533
656.176	8525
658.6247	8647
661.0748	8509
663.5242	8734
665.9709	8707
668.417	8563
670.8624	8600
673.3092	8598
675.7533	8639
678.1968	8746
680.6395	8631
683.0817	8740
685.5251	8790
687.9659	8614
690.4061	8601
692.8456	8803
695.2844	8712
697.7226	8914
700.1621	8909
702.599	8818
705.0332	8844
707.4688	8862
709.9036	8855
712.3399	9014
714.7735	8830
717.2044	8706
719.6367	8962
722.0683	9050
724.4993	8924
726.9296	9012
729.3593	9072
731.7883	9098
734.2147	9126
736.6423	9031
739.0714	9060
741.4958	9272
743.9216	9231
746.3447	9116
748.7691	9129
751.1929	9118
753.616	9298
756.0366	9386
758.4584	9256
760.8776	9303
763.2982	9501
765.718	9444
768.1373	9282
770.5539	9387
772.9698	9373
775.3871	9511
777.8038	9515
780.2178	9393
782.6332	9271
785.0459	9484
787.458	9413
789.8714	9432
792.2842	9454
794.6943	9507
797.1038	9384
799.5127	9384
801.9209	9434
804.3324	9469
806.7393	9486
809.1456	9340
811.5513	9375
813.9562	9642
816.3625	9444
818.7663	9583
821.1693	9544
823.5718	9500
825.9735	9617
828.3746	9417
830.7771	9410
833.177	9555
835.5762	9455
837.9747	9730
840.3727	9510
842.772	9534
845.1666	9695
847.5626	9739
849.958	9588
852.3527	9741
854.7488	9867
857.1403	9730
859.5331	9716
861.9253	9633
864.3168	9686
866.7057	9675
869.098	9542
871.4876	9656
873.8746	9804
876.263	9761
878.6487	9737
881.0378	9689
883.4243	9747
885.8081	9706
888.1933	9696
890.5759	9707
892.9598	9601
895.343	9535
897.7256	9701
900.1057	9746
902.4871	9621
904.8659	9694
907.246	9715
909.6254	9719
912.0023	9767
914.3786	9851
916.7562	9959
919.1331	10058
921.5074	9935
923.8831	9961
926.2562	9951
928.6287	10236
931.0005	9990
933.3757	10131
935.7462	10230
938.1162	10236
940.4855	10260
942.8542	10254
945.2242	10412
947.5916	10564
949.9584	10661
952.3266	10819
954.6921	10996
957.0571	11332
959.4233	11787
961.787	11896
964.15	11749
966.5125	11580
968.8742	11322
971.2354	10953
973.5959	10727
975.9559	10486
978.3151	10325
980.6738	10220
983.0338	9999
985.3912	9976
987.7461	10076
990.1022	10055
992.4578	9962
994.8127	10096
997.1689	9963
999.5207	9956
1001.874	9975
1004.226	10158
1006.576	10139
1008.929	10040
1011.28	10061
1013.628	10011
1015.977	9944
1018.324	10118
1020.674	10084
1023.019	10207
1025.366	10295
1027.713	10182
1030.056	10088
1032.399	10050
1034.746	10153
1037.087	10157
1039.431	10339
1041.771	10123
1044.113	10155
1046.454	10168
1048.793	10141
1051.133	10330
1053.471	10147
1055.807	10206
1058.146	10176
1060.483	10427
1062.818	10326
1065.153	10225
1067.489	10361
1069.822	10350
1072.156	10376
1074.488	10321
1076.82	10517
1079.15	10302
1081.48	10301
1083.814	10306
1086.143	10397
1088.471	10550
1090.799	10182
1093.126	10262
1095.452	10357
1097.78	10275
1100.105	10273
1102.43	10357
1104.754	10270
1107.077	10434
1109.4	10187
1111.722	10221
1114.044	10230
1116.365	10225
1118.685	10409
1121.005	10337
1123.324	10225
1125.643	10370
1127.961	10303
1130.278	10448
1132.595	10602
1134.911	10402
1137.226	10349
1139.541	10416
1141.854	10376
1144.167	10329
1146.482	10372
1148.793	10348
1151.105	10444
1153.414	10354
1155.725	10301
1158.033	10470
1160.344	10306
1162.651	10362
1164.959	10284
1167.265	10515
1169.572	10357
1171.878	10241
1174.184	10529
1176.488	10479
1178.79	10522
1181.094	10518
1183.396	10484
1185.699	10363
1188.001	10414
1190.301	10484
1192.6	10387
1194.9	10320
1197.2	10300
1199.497	10368
1201.794	10453
1204.09	10281
1206.387	10386
1208.684	10321
1210.978	10376
1213.272	10394
1215.565	10456
1217.858	10281
1220.15	10377
1222.443	10440
1224.734	10429
1227.024	10516
1229.313	10562
1231.602	10683
1233.892	10825
1236.18	10684
1238.467	10745
1240.754	10730
1243.04	10737
1245.325	10675
1247.612	10726
1249.896	10583
1252.178	10561
1254.461	10678
1256.743	10774
1259.027	10630
1261.308	10681
1263.587	10784
1265.867	10670
1268.146	10734
1270.425	10737
1272.703	10787
1274.981	10740
1277.256	10637
1279.532	10717
1281.808	10595
1284.083	10726
1286.358	10665
1288.63	10645
1290.904	10699
1293.175	10662
1295.449	10563
1297.719	10747
1299.99	10581
1302.259	10615
1304.529	10469
1306.798	10621
1309.065	10501
1311.333	10572
1313.599	10592
1315.866	10709
1318.131	10672
1320.396	10697
1322.66	10657
1324.925	10710
1327.187	10575
1329.448	10684
1331.711	10635
1333.974	10570
1336.234	10504
1338.493	10580
1340.752	10683
1343.01	10772
1345.269	10672
1347.526	10487
1349.784	10706
1352.04	10653
1354.295	10614
1356.552	10639
1358.806	10585
1361.059	10560
1363.312	10613
1365.564	10590
1367.818	10654
1370.069	10810
1372.318	10738
1374.568	10695
1376.817	10717
1379.066	10712
1381.316	10754
1383.564	10661
1385.809	10689
1388.056	10651
1390.301	10876
1392.549	10783
1394.793	10894
1397.036	10952
1399.279	10926
1401.522	10982
1403.763	10925
1406.007	10952
1408.248	10726
1410.487	10887
1412.727	10931
1414.965	10746
1417.205	11023
1419.442	10811
1421.68	10745
1423.915	10970
1426.152	10898
1428.388	10964
1430.623	10872
1432.857	11139
1435.091	10953
1437.323	11012
1439.556	10964
1441.789	11120
1444.019	11033
1446.25	11062
1448.48	11006
1450.708	11100
1452.938	11020
1455.167	11014
1457.394	11072
1459.62	10926
1461.846	11141
1464.073	11022
1466.299	11146
1468.523	11054
1470.746	10997
1472.969	10982
1475.191	10791
1477.415	10817
1479.636	10898
1481.858	10894
1484.078	10891
1486.298	10726
1488.518	10634
1490.736	10715
1492.954	10662
1495.169	10804
1497.386	10776
1499.602	10674
1501.819	10665
1504.034	10580
1506.248	10809
1508.462	10644
1510.675	10754
1512.888	10700
1515.1	10708
1517.311	10724
1519.522	10691
1521.732	10683
1523.942	10702
1526.151	10570
1528.36	10602
1530.566	10541
1532.773	10751
1534.98	10695
1537.187	10712
1539.392	10807
1541.596	10836
1543.801	10848
1546.005	10822
1548.208	10738
1550.411	10804
1552.612	10797
1554.814	10645
1557.013	10990
1559.212	10801
1561.414	11022
1563.612	10757
1565.811	10870
1568.007	10804
1570.203	10913
1572.403	10823
1574.598	11025
1576.792	10901
1578.988	10867
1581.181	10957
1583.376	11033
1585.568	10968
1587.761	10848
1589.952	10918
1592.143	10935
1594.333	10976
1596.524	11158
1598.715	10971
1600.903	11019
1603.091	10901
1605.278	11104
1607.466	11016
1609.652	11036
1611.838	10991
1614.023	10996
1616.207	11039
1618.391	11018
1620.576	10946
1622.759	10958
1624.941	10899
1627.123	10966
1629.304	11030
1631.484	11182
1633.664	11156
1635.844	11043
1638.022	11147
1640.201	11147
1642.38	11196
1644.556	11217
1646.732	11011
1648.908	11229
1651.084	11103
1653.257	11054
1655.433	11139
1657.607	11137
1659.779	11329
1661.951	11266
1664.122	11292
1666.295	11156
1668.467	11215
1670.635	11320
1672.805	11192
1674.973	11152
1677.142	11274
1679.31	11306
1681.478	10988
1683.644	11168
1685.81	11034
1687.975	11103
1690.142	11095
1692.305	11256
1694.468	11336
1696.632	11134
1698.794	11070
1700.957	10994
1703.119	11082
1705.279	10975
1707.439	11048
1709.598	10844
1711.758	11082
1713.917	11079
1716.075	10986
1718.231	10930
1720.388	10995
1722.543	10988
1724.702	10972
1726.856	10946
1729.01	11002
1731.164	11064
1733.317	10873
1735.471	11018
1737.623	10912
1739.774	11020
1741.925	10989
1744.075	10880
1746.225	10986
1748.376	10976
1750.524	11066
1752.672	11174
1754.82	11046
1756.965	10946
1759.113	11109
1761.259	11072
1763.405	11048
1765.549	10968
1767.694	11019
1769.836	11096
1771.981	11032
1774.123	11004
1776.264	11144
1778.405	11010
1780.546	11083
1782.687	11145
1784.827	11160
1786.966	11107
1789.103	11178
1791.242	11045
1793.381	11001
1795.517	11063
1797.653	11205
1799.788	11095
1801.923	11029
1804.057	11145
1806.193	10947
1808.326	10922
1810.457	11097
1812.59	11068
1814.721	11136
1816.855	10988
1818.984	11122
1821.113	11123
1823.244	10858
1825.372	11055
1827.499	11009
1829.63	11214
1831.756	10913
1833.882	11000
1836.007	10929
1838.132	10963
1840.26	11073
1842.384	11092
1844.507	11045
1846.63	10999
1848.752	11054
1850.875	10895
1852.996	10977
1855.118	10963
1857.238	10937
1859.358	10886
1861.477	10795
1863.597	10882
1865.715	10846
1867.832	11076
1869.948	10842
1872.064	10749
1874.181	10953
1876.297	10876
1878.411	10802
1880.526	11017
1882.639	10895
1884.752	10926
1886.865	11024
1888.977	11010
1891.089	11122
1893.2	10948
1895.308	10867
1897.42	10941
1899.53	10984
1901.639	10969
1903.745	10934
1905.853	11042
1907.962	11015
1910.067	11074
1912.174	11159
1914.278	11016
1916.383	11158
1918.486	11148
1920.592	11034
1922.694	11141
1924.797	11053
1926.898	11177
1929	11137
1931.102	11146
1933.203	11086
1935.301	11187
1937.401	11208
1939.499	11124
1941.598	11214
1943.697	11053
1945.793	11010
1947.888	11039
1949.985	11153
1952.08	11068
1954.176	11135
1956.269	11073
1958.364	11003
1960.457	11105
1962.549	11165
1964.642	11001
1966.733	11204
1968.823	11065
1970.913	11114
1973.005	11100
1975.093	10883
1977.184	10950
1979.271	11012
1981.359	11029
1983.446	10942
1985.532	10926
1987.619	11044
1989.705	11000
1991.789	10862
1993.874	11084
1995.956	11000
1998.041	10929
2000.123	10980
2002.206	10920
2004.287	11163
2006.368	11003
2008.449	10909
2010.529	10929
2012.609	10829
2014.688	10798
2016.766	10815
2018.843	10809
2020.922	10960
2022.999	10880
2025.074	10968
2027.15	10878
2029.225	10987
2031.299	10898
2033.375	10917
2035.447	10936
2037.52	10920
2039.592	10901
2041.664	11055
2043.736	11039
2045.807	10927
2047.876	10935
2049.947	10934
2052.015	11008
2054.086	10806
2056.153	10889
2058.221	10943
2060.288	11008
2062.353	10998
2064.42	10884
2066.486	10934
2068.55	10893
2070.614	10922
2072.678	10984
2074.741	10798
2076.805	10878
2078.866	10997
2080.929	10838
2082.99	10921
2085.049	10905
2087.109	10903
2089.17	10854
2091.228	10898
2093.286	11103
2095.344	10948
2097.4	10999
2099.46	10708
2101.516	10942
2103.572	10826
2105.626	10906
2107.679	11022
2109.735	10849
2111.788	10821
2113.841	10934
2115.894	10944
2117.945	10984
2119.997	10682
2122.049	10839
2124.1	10788
2126.148	11025
2128.197	10899
2130.246	10815
2132.296	10845
2134.342	10929
2136.39	10756
2138.437	10711
2140.483	10991
2142.527	10854
2144.574	10929
2146.619	10880
2148.661	10779
2150.705	10722
2152.747	10826
2154.792	10787
2156.832	10788
2158.874	10804
2160.915	10721
2162.954	10671
2164.995	10864
2167.034	10727
2169.072	10652
2171.111	10704
2173.148	10758
2175.186	10705
2177.223	10675
2179.258	10610
2181.294	10743
2183.328	10634
2185.362	10730
2187.398	10729
2189.431	10630
2191.463	10720
2193.495	10723
2195.528	10722
2197.56	10655
2199.59	10591
2201.62	10665
2203.649	10496
2205.678	10717
2207.708	10721
2209.737	10495
2211.764	10360
2213.791	10607
2215.817	10671
2217.843	10598
2219.87	10468
2221.895	10477
2223.919	10634
2225.942	10441
2227.966	10565
2229.988	10494
2232.012	10504
2234.032	10590
2236.054	10620
2238.074	10509
2240.095	10505
2242.116	10559
2244.135	10540
2246.153	10502
2248.171	10531
2250.188	10500
2252.208	10516
2254.223	10481
2256.239	10458
2258.255	10553
2260.269	10399
2262.283	10522
2264.3	10483
2266.312	10552
2268.325	10507
2270.336	10515
2272.349	10546
2274.362	10528
2276.372	10559
2278.383	10480
2280.392	10408
2282.402	10500
2284.409	10456
2286.418	10471
2288.427	10430
2290.433	10402
2292.441	10598
2294.446	10443
2296.453	10443
2298.459	10484
2300.463	10431
2302.466	10506
2304.471	10326
2306.475	10533
2308.477	10393
2310.478	10307
2312.481	10504
2314.481	10400
2316.481	10506
2318.482	10419
2320.482	10475
2322.48	10283
2324.48	10391
2326.478	10466
2328.476	10391
2330.473	10374
2332.469	10330
2334.465	10328
2336.46	10145
2338.454	10195
2340.45	10287
2342.444	10233
2344.437	10331
2346.43	10350
2348.421	10109
2350.414	10276
2352.405	10227
2354.396	10376
2356.386	10230
2358.376	10170
2360.366	10205
2362.355	10287
2364.343	10247
2366.331	10213
2368.317	10248
2370.304	10079
2372.292	10233
2374.278	10132
2376.262	10243
2378.247	10112
2380.23	10223
2382.216	10176
2384.199	10120
2386.181	10147
2388.163	10074
2390.144	10006
2392.127	10129
2394.107	10118
2396.087	9949
2398.066	10090
2400.046	10336
2402.023	10067
2404.004	10107
2405.981	10102
2407.957	10115
2409.934	10034
2411.91	10003
2413.886	10090
2415.862	10030
2417.836	10003
2419.809	10082
2421.784	10026
2423.756	9945
2425.73	10138
2427.701	10032
2429.672	10142
2431.644	10046
2433.615	9990
2435.586	9940
2437.555	10019
2439.523	10053
2441.491	9981
2443.459	10183
2445.428	9903
2447.395	9897
2449.361	9996
2451.327	10091
2453.292	10075
2455.257	10061
2457.223	9911
2459.187	9990
2461.15	9956
2463.113	9817
2465.076	9849
2467.039	9957
2468.999	10037
2470.96	9868
2472.921	9910
2474.881	9889
2476.841	9938
2478.8	9948
2480.759	9886
2482.717	9832
2484.675	10038
2486.63	9757
2488.589	9894
2490.545	9867
2492.5	9904
2494.455	9692
2496.408	9825
2498.364	9804
2500.318	9804
2502.27	9827
2504.223	9783
2506.174	9907
2508.126	9785
2510.078	9726
2512.03	9813
2513.979	9815
2515.927	9655
2517.877	9687
2519.826	9778
2521.775	9817
2523.722	9785
2525.668	9849
2527.616	9708
2529.561	9774
2531.508	9656
2533.452	9714
2535.398	9703
2537.342	9809
2539.284	9746
2541.229	9805
2543.173	9768
2545.114	9682
2547.055	9754
2548.996	9775
2550.938	9720
2552.878	9667
2554.817	9788
2556.756	9703
2558.695	9618
2560.633	9812
2562.572	9805
2564.509	9775
2566.445	9679
2568.382	9747
2570.317	9777
2572.254	9666
2574.189	9837
2576.123	9686
2578.057	9582
2579.99	9796
2581.923	9789
2583.855	9668
2585.788	9781
2587.719	9643
2589.65	9721
2591.579	9669
2593.511	9723
2595.44	9672
2597.37	9602
2599.297	9725
2601.225	9617
2603.153	9713
2605.08	9635
2607.007	9645
2608.932	9790
2610.858	9620
2612.782	9543
2614.709	9782
2616.632	9730
2618.556	9671
2620.478	9616
2622.401	9796
2624.324	9859
2626.247	9645
2628.167	9726
2630.088	9704
2632.008	9763
2633.928	9746
2635.848	9620
2637.766	9665
2639.684	9875
2641.603	9696
2643.519	9747
2645.437	9564
2647.353	9763
2649.27	9668
2651.184	9702
2653.099	9663
2655.014	9639
2656.928	9615
2658.842	9749
2660.755	9689
2662.667	9626
2664.579	9731
2666.491	9666
2668.402	9689
2670.312	9736
2672.222	9562
2674.132	9471
2676.042	9611
2677.951	9563
2679.859	9601
2681.766	9436
2683.674	9636
2685.582	9571
2687.488	9482
2689.392	9555
2691.298	9546
2693.202	9560
2695.107	9424
2697.012	9427
2698.914	9516
2700.817	9406
2702.72	9449
2704.622	9445
2706.524	9498
2708.425	9525
2710.326	9510
2712.225	9389
2714.125	9374
2716.024	9514
2717.923	9294
2719.822	9365
2721.719	9444
2723.616	9459
2725.512	9496
2727.41	9528
2729.305	9341
2731.201	9306
2733.095	9481
2734.99	9437
2736.884	9553
2738.778	9421
2740.67	9568
2742.562	9434
2744.455	9367
2746.346	9322
2748.238	9446
2750.129	9395
2752.018	9204
2753.907	9367
2755.797	9446
2757.687	9533
2759.575	9402
2761.462	9266
2763.349	9319
2765.237	9249
2767.124	9318
2769.009	9359
2770.894	9293
2772.779	9169
2774.663	9426
2776.547	9306
2778.431	9223
2780.314	9258
2782.197	9249
2784.078	9406
2785.96	9143
2787.842	9394
2789.723	9216
2791.603	9414
2793.483	9140
2795.362	9149
2797.241	9078
2799.121	9161
2800.997	9224
2802.874	9122
2804.751	9178
2806.628	9150
2808.506	9131
2810.38	9144
2812.255	9293
2814.13	9165
2816.003	9211
2817.878	9076
2819.752	9212
2821.623	9178
2823.496	9099
2825.368	9154
2827.238	9168
2829.111	9170
2830.98	9243
2832.851	9164
2834.719	9164
2836.589	9131
2838.458	9256
2840.327	9145
2842.193	9212
2844.061	9318
2845.927	9228
2847.794	9312
2849.66	9248
2851.525	9119
2853.39	9199
2855.254	9278
2857.117	9264
2858.983	9139
2860.845	9303
2862.707	9283
2864.569	9282
2866.431	9306
2868.293	9275
2870.154	9354
2872.013	9418
2873.873	9489
2875.733	9521
2877.592	9561
2879.451	9611
2881.309	9681
2883.166	9525
2885.022	9694
2886.879	9606
2888.736	9531
2890.591	9716
2892.446	9489
2894.301	9517
2896.155	9628
2898.009	9648
2899.863	9640
2901.716	9716
2903.568	9588
2905.419	9642
2907.27	9578
2909.123	9683
2910.973	9685
2912.824	9720
2914.673	9647
2916.521	9725
2918.372	9941
2920.22	9736
2922.067	9890
2923.914	9880
2925.761	10004
2927.607	10020
2929.455	10089
2931.301	10127
2933.144	10175
2934.99	10105
2936.833	10123
2938.678	10400
2940.522	10332
2942.364	10415
2944.207	10480
2946.048	10587
2947.891	10439
2949.731	10439
2951.571	10386
2953.412	10540
2955.25	10308
2957.09	10345
2958.93	10249
2960.767	10269
2962.606	10203
2964.443	10220
2966.279	10151
2968.116	9935
2969.953	9801
2971.788	9913
2973.623	9662
2975.457	9577
2977.292	9675
2979.127	9777
2980.959	9719
2982.792	9622
2984.624	9413
2986.455	9395
2988.288	9525
2990.119	9432
2991.949	9429
2993.779	9442
2995.608	9129
2997.439	9198
2999.268	9190
3001.096	9074
3002.923	9191
3004.751	9007
3006.578	9002
3008.406	9018
3010.232	8959
3012.057	8904
3013.883	8834
3015.706	9068
3017.532	8908
3019.356	8813
3021.179	8821
3023.002	8691
3024.823	8786
3026.646	8755
3028.469	8784
3030.289	8714
3032.11	8628
3033.93	8667
3035.749	8579
3037.57	8597
3039.39	8601
3041.207	8670
3043.026	8428
3044.842	8611
3046.661	8531
3048.477	8622
3050.294	8535
3052.109	8424
3053.925	8651
3055.739	8467
3057.555	8613
3059.368	8574
3061.181	8608
3062.995	8563
3064.807	8586
3066.62	8452
3068.433	8482
3070.243	8396
3072.054	8511
3073.865	8400
3075.675	8490
3077.485	8377
3079.293	8392
3081.102	8412
3082.911	8354
3084.719	8180
3086.527	8302
3088.333	8447
3090.139	8345
3091.945	8133
3093.75	8348
3095.557	8157
3097.361	8317
3099.165	8477
3100.969	8369
3102.772	8255
3104.575	8222
3106.379	8264
3108.181	8337
3109.982	8290
3111.783	7993
3113.584	8288
3115.386	8186
3117.186	8082
3118.985	8209
3120.783	8126
3122.582	8177
3124.381	8036
3126.179	8068
3127.975	8152
3129.772	8124
3131.569	8053
3133.365	8102
3135.161	8157
3136.956	7942
3138.751	8170
3140.544	8009
3142.338	8005
3144.132	8021
3145.925	7957
3147.717	8035
3149.509	8039
3151.301	7909
3153.091	7994
3154.884	8074
3156.673	8013
3158.462	7992
3160.252	7995
3162.041	7906
3163.831	7979
3165.618	7912
3167.405	7867
3169.193	8028
3170.979	7923
3172.767	7785
3174.553	7917
3176.338	7937
3178.123	7834
3179.907	7918
3181.692	8006
3183.477	7919
3185.259	7811
3187.042	7765
3188.824	7774
3190.607	7856
3192.389	7920
3194.17	7881
3195.951	7959
3197.73	7692
3199.51	7812
3201.289	7937
3203.07	7909
3204.848	7943
3206.626	7806
3208.403	7789
3210.18	7772
3211.959	7714
3213.735	7875
3215.511	7943
3217.285	7735
3219.06	7876
3220.836	7797
3222.611	7812
3224.384	7764
3226.158	7837
3227.929	7729
3229.702	7863
3231.476	7803
3233.248	7734
3235.018	7796
3236.789	7824
3238.56	7706
3240.33	7793
3242.1	7738
3243.869	7721
3245.637	7607
3247.405	7631
3249.172	7849
3250.941	7808
3252.707	7692
3254.474	7720
3256.24	7702
3258.006	7728
3259.772	7717
3261.537	7763
3263.301	7806
3265.065	7692
3266.828	7731
3268.592	7791
3270.355	7740
3272.117	7615
3273.878	7774
3275.64	7793
3277.401	7689
3279.162	7817
3280.922	7663
3282.682	7665
3284.441	7679
3286.199	7756
3287.959	7692
3289.716	7657
3291.475	7736
3293.232	7730
3294.988	7614
3296.744	7612
3298.501	7792
3300.256	7628
3302.011	7551
3303.766	7693
3305.52	7546
3307.275	7574
3309.028	7714
3310.781	7642
3312.533	7698
3314.285	7675
3316.038	7592
3317.789	7664
3319.54	7643
3321.289	7570
3323.039	7699
3324.789	7639
3326.539	7642
3328.288	7549
3330.035	7518
3331.783	7542
3333.531	7695
3335.28	7556
3337.025	7524
3338.771	7653
3340.518	7596
3342.262	7468
3344.009	7592
3345.753	7525
3347.497	7448
3349.24	7548
3350.983	7442
3352.726	7558
3354.469	7461
3356.212	7443
3357.952	7424
3359.694	7463
3361.434	7443
3363.176	7545
3364.916	7501
3366.654	7302
3368.394	7413
3370.132	7548
3371.871	7433
3373.61	7353
3375.346	7438
3377.083	7463
3378.82	7467
3380.556	7392
3382.292	7385
3384.027	7366
3385.763	7300
3387.497	7437
3389.231	7332
3390.965	7394
3392.698	7281
3394.431	7198
3396.164	7312
3397.896	7247
3399.627	7267
3401.36	7305
3403.09	7364
3404.82	7231
3406.55	7341
3408.279	7114
3410.01	7179
3411.738	7210
3413.467	7323
3415.194	7284
3416.92	7201
3418.647	7292
3420.375	7189
3422.102	7146
3423.827	7254
3425.553	7244
3427.277	7178
3429.003	7136
3430.727	7215
3432.451	7212
3434.173	7228
3435.896	7162
3437.62	7171
3439.343	7089
3441.063	7213
3442.785	7086
3444.505	6985
3446.226	7213
3447.948	7102
3449.666	7090
3451.386	7154
3453.104	7072
3454.823	6995
3456.541	6884
3458.259	6968
3459.976	7048
3461.693	6938
3463.408	7066
3465.125	6974
3466.841	7020
3468.556	7059
3470.271	6981
3471.985	7036
3473.698	6949
3475.414	6846
3477.126	6836
3478.838	6952
3480.55	6958
3482.263	6829
3483.975	6919
3485.686	6958
3487.396	6812
3489.106	6793
3490.817	6868
3492.526	6789
3494.236	6786
3495.944	6847
3497.652	6810
3499.359	6852
3501.066	6739
3502.775	6766
3504.481	6852
3506.187	6733
3507.893	6780
3509.598	6767
3511.304	6749
3513.009	6681
3514.713	6656
3516.417	6747
3518.12	6731
3519.821	6775
3521.525	6549
3523.228	6675
3524.929	6691
3526.631	6670
3528.33	6607
3530.032	6604
3531.733	6697
3533.433	6723
3535.131	6791
3536.83	6765
3538.529	6570
3540.227	6561
3541.925	6467
3543.623	6685
3545.319	6652
3547.016	6571
3548.712	6630
3550.408	6657
3552.103	6533
3553.798	6583
3555.491	6518
3557.188	6521
3558.88	6539
3560.574	6440
3562.266	6515
3563.959	6534
3565.651	6493
3567.343	6458
3569.035	6394
3570.725	6593
3572.415	6541
3574.106	6488
3575.797	6359
3577.485	6506
3579.174	6474
3580.863	6523
3582.551	6387
3584.238	6407
3585.926	6409
3587.613	6539
3589.3	6475
3590.986	6341
3592.671	6346
3594.357	6455
3596.042	6354
3597.726	6433
3599.41	6410
3601.094	6406
3602.778	6303
3604.461	6217
3606.143	6292
3607.825	6270
3609.507	6306
3611.188	6234
3612.87	6285
3614.551	6353
3616.229	6251
3617.909	6144
3619.589	6222
3621.269	6221
3622.948	6237
3624.625	6094
3626.302	6135
3627.98	6254
3629.657	6169
3631.334	6184
3633.01	6133
3634.686	6135
3636.361	6149
3638.036	6221
3639.712	6083
3641.385	6082
3643.06	6041
3644.732	5960
3646.405	6093
3648.08	6113
3649.751	6100
3651.424	6000
3653.094	6129
3654.766	6002
3656.436	6055
3658.106	6088
3659.777	5996
3661.446	6044
3663.115	6010
3664.783	5892
3666.452	6014
3668.121	5968
3669.788	5992
3671.454	5976
3673.121	5925
3674.789	5927
3676.455	5961
3678.12	6048
3679.784	5941
3681.45	5909
3683.114	5895
3684.779	5871
3686.442	5890
3688.105	5959
3689.768	5885
3691.43	5892
3693.093	5912
3694.754	5921
3696.415	5865
3698.076	5903
3699.736	5904
3701.396	5870
3703.057	5884
3704.716	5802
3706.375	5891
3708.034	5881
3709.692	5830
3711.351	5760
3713.008	5911
3714.665	5771
3716.321	5804
3717.977	5879
3719.634	5906
3721.29	5871
3722.945	5758
3724.598	5688
3726.253	5848
3727.907	5790
3729.561	5711
3731.214	5818
3732.867	5827
3734.518	5856
3736.171	5806
3737.824	5652
3739.474	5743
3741.125	5745
3742.775	5697
3744.425	5691
3746.074	5733
3747.725	5693
3749.373	5747
3751.022	5691
3752.669	5700
3754.318	5696
3755.966	5759
3757.612	5585
3759.259	5710
3760.905	5688
3762.55	5655
3764.197	5676
3765.842	5561
3767.486	5691
3769.131	5530
3770.774	5658
3772.417	5612
3774.061	5515
3775.705	5659
3777.347	5564
3778.988	5592
3780.629	5668
3782.271	5541
3783.912	5577
3785.552	5607
3787.192	5520
3788.831	5645
3790.472	5538
3792.112	5578
3793.75	5506
3795.388	5525
3797.024	5478
3798.661	5574
3800.3	5521
3801.936	5486
3803.572	5583
3805.208	5380
3806.844	5510
3808.48	5413
3810.115	5486
3811.748	5353
3813.382	5394
3815.016	5384
3816.649	5371
3818.283	5404
3819.914	5393
3821.547	5393
3823.178	5456
3824.809	5339
3826.441	5355
3828.072	5409
3829.701	5488
3831.331	5490
3832.96	5389
3834.591	5383
3836.219	5390
3837.847	5375
3839.475	5367
3841.102	5412
3842.729	5315
3844.357	5276
3845.984	5293
3847.609	5282
3849.234	5380
3850.86	5352
3852.485	5280
3854.11	5339
3855.734	5249
3857.357	5303
3858.981	5292
3860.603	5236
3862.227	5377
3863.848	5241
3865.471	5333
3867.092	5240
3868.713	5270
3870.334	5322
3871.954	5365
3873.575	5241
3875.194	5192
3876.813	5143
3878.433	5326
3880.051	5269
3881.669	5162
3883.286	5261
3884.904	5139
3886.52	5208
3888.138	5184
3889.754	5147
3891.37	5214
3892.985	5206
3894.6	5245
3896.216	5211
3897.831	5227
3899.444	5201
3901.058	5183
3902.67	5088
3904.283	5193
3905.897	5101
3907.509	5112
3909.121	5187
3910.731	5206
3912.342	5217
3913.954	5132
3915.563	5148
3917.174	5165
3918.783	5239
3920.391	5101
3922.002	5144
3923.611	5237
3925.218	5123
3926.826	5115
3928.432	5033
3930.039	5108
3931.647	5135
3933.253	5058
3934.859	5127
3936.464	5064
3938.068	5053
3939.675	5122
3941.278	5157
3942.883	5142
3944.486	5117
3946.089	5003
3947.692	5037
3949.295	5084
3950.898	5076
3952.499	5026
3954.1	5020
3955.7	5076
3957.303	5003
3958.903	4989
3960.502	4993
3962.101	4965
3963.7	5063
3965.301	4983
3966.899	5019
3968.497	5029
3970.094	4992
3971.691	4898
3973.288	4991
3974.885	5005
3976.481	4892
3978.077	4915
3979.672	5038
3981.267	4887
3982.863	4979
3984.457	4937
3986.051	4885
3987.645	4918
3989.238	4904
3990.831	4842
3992.425	4874
3994.017	4934
3995.607	4818
3997.199	4841
3998.79	4800
4000.382	4781
4001.973	4750
4003.561	4804
4005.151	4711
4006.741	4798
4008.331	4816
4009.918	4845
4011.507	4674
4013.095	4784
4014.681	4769
4016.269	4755
4017.856	4830
4019.443	4733
4021.028	4766
4022.614	4730
4024.199	4804
4025.785	4735
4027.37	4699
4028.953	4805
4030.536	4677
4032.12	4614
4033.704	4701
4035.287	4691
4036.869	4764
4038.45	4625
4040.032	4592
4041.613	4607
4043.195	4654
4044.776	4611
4046.356	4614
4047.935	4705
4049.515	4613
4051.095	4556
4052.674	4711
4054.251	4648
4055.829	4681
4057.406	4619
4058.985	4617
4060.562	4626
4062.139	4612
4063.715	4597
4065.29	4505
4066.865	4621
4068.442	4654
4070.016	4647
4071.59	4548
4073.164	4537
4074.738	4613
4076.312	4646
4077.885	4624
4079.458	4482
4081.03	4469
4082.602	4518
4084.173	4530
4085.745	4535
4087.315	4605
4088.886	4577
4090.456	4513
4092.026	4558
4093.596	4471
4095.165	4559
4096.734	4488
4098.301	4511
4099.869	4520
4101.437	4479
4103.006	4462
4104.572	4449
4106.139	4497
4107.704	4422
4109.27	4400
4110.837	4484
4112.401	4442
4113.966	4404
4115.53	4560
4117.094	4358
4118.659	4491
4120.223	4471
4121.785	4373
4123.347	4423
4124.909	4330
4126.471	4391
4128.034	4406
4129.595	4308
4131.155	4369
4132.716	4354
4134.275	4410
4135.836	4443
4137.395	4342
4138.955	4305
4140.513	4326
4142.071	4307
4143.628	4432
4145.188	4308
4146.745	4339
4148.302	4286
4149.858	4389
4151.414	4363
4152.971	4275
4154.526	4286
4156.081	4299
4157.635	4261
4159.189	4250
4160.745	4250
4162.298	4237
4163.852	4187
4165.405	4257
4166.957	4275
4168.51	4219
4170.063	4124
4171.614	4212
4173.166	4223
4174.717	4257
4176.267	4215
4177.817	4218
4179.368	4142
4180.917	4242
4182.466	4129
4184.016	4190
4185.564	4199
4187.112	4160
4188.66	4267
4190.207	4185
4191.754	4184
4193.301	4123
4194.848	4093
4196.394	4090
4197.94	4088
4199.484	4066
4201.03	4082
4202.575	4121
4204.12	4101
4205.663	4197
4207.207	4094
4208.75	4101
4210.292	4093
4211.836	4087
4213.378	4020
4214.92	4079
4216.46	4129
4218.002	4116
4219.544	4098
4221.083	4020
4222.625	4071
4224.164	4028
4225.703	4010
4227.244	4092
4228.782	4044
4230.32	4023
4231.857	4055
4233.395	4050
4234.933	3979
4236.471	3904
4238.007	4000
4239.542	3969
4241.078	4009
4242.614	4025
4244.15	4007
4245.685	3999
4247.219	4037
4248.753	4032
4250.287	3924
4251.82	4027
4253.354	4045
4254.887	3997
4256.419	3912
4257.951	3942
4259.483	3981
4261.016	4023
4262.547	3955
4264.078	4028
4265.608	3948
4267.137	3884
4268.668	3943
4270.197	3907
4271.727	3881
4273.254	3902
4274.783	3918
4276.311	3960
4277.84	3927
4279.366	3873
4280.894	3957
4282.42	3905
4283.946	3917
4285.473	3909
4286.998	3860
4288.523	3886
4290.047	3936
4291.572	3887
4293.096	3890
4294.622	3816
4296.144	3776
4297.668	3800
4299.19	3831
4300.713	3851
4302.236	3863
4303.758	3799
4305.279	3862
4306.799	3789
4308.321	3839
4309.842	3842
4311.361	3759
4312.882	3814
4314.401	3760
