400.0961	4988
402.6185	4978
405.1424	4965
407.6635	5005
410.1838	5032
412.7035	4908
415.2225	5078
417.7388	5103
420.2585	5202
422.7754	5067
425.2917	5092
427.8072	5326
430.3221	5281
432.8363	5311
435.3498	5205
437.8626	5312
440.3727	5313
442.8841	5274
445.3969	5296
447.907	5345
450.4142	5367
452.9229	5299
455.4289	5303
457.9362	5291
460.4449	5307
462.9488	5321
465.454	5271
467.9566	5297
470.4604	5356
472.9637	5387
475.4662	5267
477.966	5315
480.4671	5407
482.9656	5358
485.4633	5303
487.9645	5416
490.4608	5397
492.9566	5394
495.4536	5470
497.948	5478
500.4437	5391
502.9387	5423
505.431	5492
507.9226	5529
510.4136	5499
512.9079	5545
515.3975	5514
517.8864	5504
520.3746	5430
522.8622	5476
525.3491	5519
527.8394	5510
530.3249	5523
532.8098	5593
535.2939	5535
537.7774	5539
540.2623	5448
542.7444	5538
545.2259	5524
547.7067	5473
550.1868	5592
552.6683	5511
555.147	5550
557.6231	5707
560.1005	5496
562.5773	5719
565.0534	5669
567.5308	5723
570.0056	5511
572.4776	5733
574.951	5744
577.4237	5653
579.8978	5731
582.3671	5775
584.8378	5776
587.3079	5750
589.7773	5743
592.244	5830
594.714	5857
597.1793	5770
599.6461	5747
602.1121	5750
604.5754	5807
607.0421	5735
609.5042	5781
611.9675	5775
614.4282	5824
616.8902	5832
619.3515	5710
621.8122	5689
624.2702	5783
626.7296	5856
629.1863	5792
631.6423	5667
634.1017	5761
636.5563	5735
639.0104	5787
641.4658	5735
643.9185	5716
646.3725	5820
648.8239	5748
651.2766	5751
653.7266	5790
656.176	5975
658.6247	5853
661.0748	5808
663.5242	5919
665.9709	5822
668.417	5837
670.8624	5863
673.3092	5883
675.7533	5901
678.1968	5897
680.6395	5870
683.0817	5927
685.5251	5984
687.9659	6037
690.4061	6027
692.8456	5980
695.2844	5905
697.7226	6002
700.1621	6034
702.599	5959
705.0332	5981
707.4688	6013
709.9036	6024
712.3399	6088
714.7735	6053
717.2044	6157
719.6367	6149
722.0683	6067
724.4993	6102
726.9296	6166
729.3593	6196
731.7883	6115
734.2147	6363
736.6423	6262
739.0714	6217
741.4958	6279
743.9216	6252
746.3447	6199
748.7691	6239
751.1929	6324
753.616	6266
756.0366	6259
758.4584	6459
760.8776	6352
763.2982	6337
765.718	6334
768.1373	6417
770.5539	6385
772.9698	6474
775.3871	6381
777.8038	6408
780.2178	6411
782.6332	6441
785.0459	6345
787.458	6440
789.8714	6376
792.2842	6443
794.6943	6426
797.1038	6392
799.5127	6436
801.9209	6323
804.3324	6497
806.7393	6483
809.1456	6495
811.5513	6501
813.9562	6503
816.3625	6484
818.7663	6486
821.1693	6466
823.5718	6490
825.9735	6511
828.3746	6490
830.7771	6410
833.177	6494
835.5762	6469
837.9747	6551
840.3727	6634
842.772	6648
845.1666	6556
847.5626	6606
849.958	6613
852.3527	6667
854.7488	6621
857.1403	6597
859.5331	6719
861.9253	6729
864.3168	6635
866.7057	6680
869.098	6672
871.4876	6669
873.8746	6625
876.263	6654
878.6487	6593
881.0378	6639
883.4243	6662
885.8081	6682
888.1933	6624
890.5759	6573
892.9598	6549
895.343	6700
897.7256	6607
900.1057	6629
902.4871	6600
904.8659	6635
907.246	6736
909.6254	6698
912.0023	6736
914.3786	6756
916.7562	6963
919.1331	6949
921.5074	6777
923.8831	6976
926.2562	7056
928.6287	6980
931.0005	6963
933.3757	6968
935.7462	7011
938.1162	7083
940.4855	7158
942.8542	7014
945.2242	7121
947.5916	7165
949.9584	7328
952.3266	7494
954.6921	7885
957.0571	8065
959.4233	8204
961.787	8309
964.15	8534
966.5125	8211
968.8742	8032
971.2354	7703
973.5959	7645
975.9559	7241
978.3151	7021
980.6738	7101
983.0338	6957
985.3912	6913
987.7461	7035
990.1022	6977
992.4578	7085
994.8127	6793
997.1689	6892
999.5207	6965
1001.874	6908
1004.226	6995
1006.576	6872
1008.929	6956
1011.28	6859
1013.628	6917
1015.977	6856
1018.324	7038
1020.674	6912
1023.019	6872
1025.366	6829
1027.713	6975
1030.056	6955
1032.399	6977
1034.746	6895
1037.087	6914
1039.431	7123
1041.771	6965
1044.113	7057
1046.454	7087
1048.793	7260
1051.133	7135
1053.471	7061
1055.807	7003
1058.146	7096
1060.483	7053
1062.818	7200
1065.153	7188
1067.489	7199
1069.822	7195
1072.156	7309
1074.488	7134
1076.82	7015
1079.15	7161
1081.48	7188
1083.814	7077
1086.143	7149
1088.471	7001
1090.799	7030
1093.126	7116
1095.452	7032
1097.78	7103
1100.105	7074
1102.43	7088
1104.754	7096
1107.077	7193
1109.4	7066
1111.722	7076
1114.044	7065
1116.365	7124
1118.685	7096
1121.005	7079
1123.324	7031
1125.643	7109
1127.961	7166
1130.278	7215
1132.595	6991
1134.911	7050
1137.226	7022
1139.541	7087
1141.854	7103
1144.167	6974
1146.482	7069
1148.793	7209
1151.105	7144
1153.414	7212
1155.725	7018
1158.033	7130
1160.344	7155
1162.651	7098
1164.959	7157
1167.265	7068
1169.572	7127
1171.878	7117
1174.184	7116
1176.488	7149
1178.79	7050
1181.094	7110
1183.396	7159
1185.699	7191
1188.001	7241
1190.301	7060
1192.6	7052
1194.9	7147
1197.2	7153
1199.497	7200
1201.794	7091
1204.09	7074
1206.387	7072
1208.684	7016
1210.978	7206
1213.272	7135
1215.565	7124
1217.858	7247
1220.15	7211
1222.443	7249
1224.734	7334
1227.024	7229
1229.313	7191
1231.602	7266
1233.892	7135
1236.18	7261
1238.467	7258
1240.754	7309
1243.04	7464
1245.325	7355
1247.612	7486
1249.896	7280
1252.178	7405
1254.461	7365
1256.743	7532
1259.027	7402
1261.308	7379
1263.587	7487
1265.867	7424
1268.146	7355
1270.425	7414
1272.703	7318
1274.981	7490
1277.256	7456
1279.532	7475
1281.808	7412
1284.083	7442
1286.358	7431
1288.63	7420
1290.904	7391
1293.175	7335
1295.449	7299
1297.719	7238
1299.99	7199
1302.259	7230
1304.529	7183
1306.798	7293
1309.065	7428
1311.333	7234
1313.599	7353
1315.866	7348
1318.131	7360
1320.396	7334
1322.66	7299
1324.925	7398
1327.187	7298
1329.448	7220
1331.711	7436
1333.974	7203
1336.234	7394
1338.493	7381
1340.752	7310
1343.01	7238
1345.269	7275
1347.526	7380
1349.784	7256
1352.04	7300
1354.295	7276
1356.552	7242
1358.806	7367
1361.059	7392
1363.312	7252
1365.564	7394
1367.818	7380
1370.069	7232
1372.318	7309
1374.568	7358
1376.817	7316
1379.066	7351
1381.316	7378
1383.564	7296
1385.809	7367
1388.056	7378
1390.301	7481
1392.549	7540
1394.793	7476
1397.036	7379
1399.279	7583
1401.522	7439
1403.763	7518
1406.007	7609
1408.248	7634
1410.487	7582
1412.727	7451
1414.965	7497
1417.205	7525
1419.442	7518
1421.68	7612
1423.915	7607
1426.152	7597
1428.388	7516
1430.623	7640
1432.857	7697
1435.091	7623
1437.323	7569
1439.556	7557
1441.789	7543
1444.019	7696
1446.25	7641
1448.48	7625
1450.708	7630
1452.938	7656
1455.167	7765
1457.394	7700
1459.62	7724
1461.846	7733
1464.073	7649
1466.299	7716
1468.523	7615
1470.746	7548
1472.969	7600
1475.191	7514
1477.415	7486
1479.636	7511
1481.858	7461
1484.078	7474
1486.298	7594
1488.518	7479
1490.736	7443
1492.954	7348
1495.169	7294
1497.386	7420
1499.602	7391
1501.819	7317
1504.034	7329
1506.248	7197
1508.462	7233
1510.675	7350
1512.888	7294
1515.1	7373
1517.311	7253
1519.522	7352
1521.732	7356
1523.942	7258
1526.151	7437
1528.36	7247
1530.566	7318
1532.773	7200
1534.98	7338
1537.187	7246
1539.392	7316
1541.596	7313
1543.801	7316
1546.005	7246
1548.208	7450
1550.411	7454
1552.612	7496
1554.814	7538
1557.013	7406
1559.212	7458
1561.414	7464
1563.612	7419
1565.811	7467
1568.007	7647
1570.203	7471
1572.403	7485
1574.598	7467
1576.792	7492
1578.988	7498
1581.181	7355
1583.376	7581
1585.568	7605
1587.761	7461
1589.952	7472
1592.143	7616
1594.333	7490
1596.524	7599
1598.715	7423
1600.903	7567
1603.091	7590
1605.278	7641
1607.466	7613
1609.652	7615
1611.838	7762
1614.023	7563
1616.207	7714
1618.391	7629
1620.576	7452
1622.759	7571
1624.941	7690
1627.123	7635
1629.304	7632
1631.484	7665
1633.664	7595
1635.844	7624
1638.022	7747
1640.201	7723
1642.38	7691
1644.556	7588
1646.732	7647
1648.908	7705
1651.084	7605
1653.257	7663
1655.433	7702
1657.607	7733
1659.779	7689
1661.951	7706
1664.122	7741
1666.295	7654
1668.467	7579
1670.635	7768
1672.805	7739
1674.973	7633
1677.142	7771
1679.31	7714
1681.478	7709
1683.644	7632
1685.81	7679
1687.975	7647
1690.142	7620
1692.305	7633
1694.468	7580
1696.632	7620
1698.794	7649
1700.957	7683
1703.119	7515
1705.279	7495
1707.439	7550
1709.598	7601
1711.758	7571
1713.917	7503
1716.075	7460
1718.231	7541
1720.388	7499
1722.543	7521
1724.702	7481
1726.856	7528
1729.01	7521
1731.164	7542
1733.317	7560
1735.471	7563
1737.623	7566
1739.774	7539
1741.925	7639
1744.075	7644
1746.225	7603
1748.376	7437
1750.524	7478
1752.672	7546
1754.82	7515
1756.965	7564
1759.113	7549
1761.259	7578
1763.405	7658
1765.549	7738
1767.694	7486
1769.836	7625
1771.981	7553
1774.123	7479
1776.264	7584
1778.405	7544
1780.546	7558
1782.687	7673
1784.827	7583
1786.966	7540
1789.103	7685
1791.242	7754
1793.381	7717
1795.517	7732
1797.653	7683
1799.788	7603
1801.923	7587
1804.057	7403
1806.193	7678
1808.326	7477
1810.457	7743
1812.59	7673
1814.721	7596
1816.855	7563
1818.984	7676
1821.113	7635
1823.244	7583
1825.372	7744
1827.499	7607
1829.63	7579
1831.756	7584
1833.882	7567
1836.007	7461
1838.132	7621
1840.26	7654
1842.384	7521
1844.507	7525
1846.63	7603
1848.752	7525
1850.875	7569
1852.996	7534
1855.118	7491
1857.238	7553
1859.358	7655
1861.477	7544
1863.597	7564
1865.715	7474
1867.832	7540
1869.948	7562
1872.064	7556
1874.181	7492
1876.297	7537
1878.411	7510
1880.526	7562
1882.639	7563
1884.752	7560
1886.865	7550
1888.977	7503
1891.089	7583
1893.2	7619
1895.308	7648
1897.42	7671
1899.53	7655
1901.639	7632
1903.745	7547
1905.853	7641
1907.962	7685
1910.067	7602
1912.174	7753
1914.278	7799
1916.383	7705
1918.486	7580
1920.592	7494
1922.694	7519
1924.797	7683
1926.898	7740
1929	7676
1931.102	7532
1933.203	7709
1935.301	7688
1937.401	7673
1939.499	7675
1941.598	7521
1943.697	7742
1945.793	7545
1947.888	7621
1949.985	7712
1952.08	7568
1954.176	7625
1956.269	7496
1958.364	7663
1960.457	7736
1962.549	7629
1964.642	7694
1966.733	7693
1968.823	7743
1970.913	7585
1973.005	7801
1975.093	7687
1977.184	7588
1979.271	7685
1981.359	7674
1983.446	7589
1985.532	7653
1987.619	7634
1989.705	7472
1991.789	7544
1993.874	7550
1995.956	7592
1998.041	7701
2000.123	7758
2002.206	7570
2004.287	7566
2006.368	7656
2008.449	7485
2010.529	7616
2012.609	7583
2014.688	7553
2016.766	7481
2018.843	7444
2020.922	7476
2022.999	7484
2025.074	7500
2027.15	7617
2029.225	7541
2031.299	7542
2033.375	7550
2035.447	7535
2037.52	7476
2039.592	7591
2041.664	7660
2043.736	7591
2045.807	7514
2047.876	7664
2049.947	7508
2052.015	7478
2054.086	7540
2056.153	7601
2058.221	7592
2060.288	7509
2062.353	7553
2064.42	7510
2066.486	7622
2068.55	7576
2070.614	7464
2072.678	7571
2074.741	7482
2076.805	7555
2078.866	7592
2080.929	7460
2082.99	7703
2085.049	7513
2087.109	7513
2089.17	7627
2091.228	7469
2093.286	7560
2095.344	7482
2097.4	7572
2099.46	7502
2101.516	7576
2103.572	7703
2105.626	7541
2107.679	7495
2109.735	7602
2111.788	7468
2113.841	7543
2115.894	7433
2117.945	7476
2119.997	7373
2122.049	7469
2124.1	7521
2126.148	7531
2128.197	7564
2130.246	7471
2132.296	7516
2134.342	7530
2136.39	7506
2138.437	7453
2140.483	7457
2142.527	7389
2144.574	7529
2146.619	7507
2148.661	7444
2150.705	7555
2152.747	7599
2154.792	7522
2156.832	7579
2158.874	7554
2160.915	7468
2162.954	7409
2164.995	7378
2167.034	7498
2169.072	7551
2171.111	7581
2173.148	7433
2175.186	7336
2177.223	7348
2179.258	7527
2181.294	7458
2183.328	7380
2185.362	7388
2187.398	7352
2189.431	7398
2191.463	7320
2193.495	7353
2195.528	7489
2197.56	7441
2199.59	7411
2201.62	7418
2203.649	7371
2205.678	7374
2207.708	7279
2209.737	7366
2211.764	7213
2213.791	7400
2215.817	7385
2217.843	7277
2219.87	7310
2221.895	7249
2223.919	7353
2225.942	7374
2227.966	7339
2229.988	7154
2232.012	7345
2234.032	7256
2236.054	7440
2238.074	7211
2240.095	7252
2242.116	7324
2244.135	7368
2246.153	7279
2248.171	7275
2250.188	7278
2252.208	7414
2254.223	7266
2256.239	7293
2258.255	7320
2260.269	7256
2262.283	7388
2264.3	7340
2266.312	7320
2268.325	7170
2270.336	7329
2272.349	7291
2274.362	7262
2276.372	7286
2278.383	7289
2280.392	7301
2282.402	7301
2284.409	7235
2286.418	7275
2288.427	7324
2290.433	7240
2292.441	7375
2294.446	7309
2296.453	7184
2298.459	7290
2300.463	7217
2302.466	7322
2304.471	7235
2306.475	7312
2308.477	7319
2310.478	7275
2312.481	7257
2314.481	7191
2316.481	7163
2318.482	7207
2320.482	7119
2322.48	7141
2324.48	7208
2326.478	7122
2328.476	7192
2330.473	7041
2332.469	7217
2334.465	7173
2336.46	7213
2338.454	7166
2340.45	7187
2342.444	7112
2344.437	7177
2346.43	7146
2348.421	7111
2350.414	7231
2352.405	7063
2354.396	7138
2356.386	7044
2358.376	7100
2360.366	7184
2362.355	7050
2364.343	7107
2366.331	7133
2368.317	7178
2370.304	7040
2372.292	7162
2374.278	7078
2376.262	7089
2378.247	7082
2380.23	7090
2382.216	7090
2384.199	6986
2386.181	7110
2388.163	7001
2390.144	6996
2392.127	7097
2394.107	7029
2396.087	6934
2398.066	7003
2400.046	7018
2402.023	6922
2404.004	6950
2405.981	6872
2407.957	7090
2409.934	6884
2411.91	6984
2413.886	6986
2415.862	7025
2417.836	7006
2419.809	7102
2421.784	6932
2423.756	6853
2425.73	6951
2427.701	7014
2429.672	7048
2431.644	7021
2433.615	6948
2435.586	6972
2437.555	6941
2439.523	7036
2441.491	6844
2443.459	7009
2445.428	7098
2447.395	6958
2449.361	6997
2451.327	6916
2453.292	6829
2455.257	6779
2457.223	6896
2459.187	6934
2461.15	6840
2463.113	6940
2465.076	6980
2467.039	6874
2468.999	6828
2470.96	6866
2472.921	6871
2474.881	6867
2476.841	6929
2478.8	7038
2480.759	6940
2482.717	6818
2484.675	6953
2486.63	6899
2488.589	6916
2490.545	6868
2492.5	6789
2494.455	6931
2496.408	6927
2498.364	6928
2500.318	6844
2502.27	6858
2504.223	6874
2506.174	6962
2508.126	6879
2510.078	6782
2512.03	6871
2513.979	6871
2515.927	6850
2517.877	6829
2519.826	6880
2521.775	6834
2523.722	6768
2525.668	6833
2527.616	6839
2529.561	6861
2531.508	6775
2533.452	6817
2535.398	6980
2537.342	6793
2539.284	6842
2541.229	6774
2543.173	6821
2545.114	6652
2547.055	6867
2548.996	6809
2550.938	6730
2552.878	6658
2554.817	6835
2556.756	6779
2558.695	6711
2560.633	6746
2562.572	6712
2564.509	6786
2566.445	6769
2568.382	6727
2570.317	6843
2572.254	6760
2574.189	6832
2576.123	6805
2578.057	6929
2579.99	6837
2581.923	6680
2583.855	6803
2585.788	6670
2587.719	6745
2589.65	6807
2591.579	6723
2593.511	6741
2595.44	6785
2597.37	6667
2599.297	6836
2601.225	6854
2603.153	6799
2605.08	6782
2607.007	6804
2608.932	6717
2610.858	6776
2612.782	6848
2614.709	6858
2616.632	6739
2618.556	6784
2620.478	6746
2622.401	6720
2624.324	6854
2626.247	6644
2628.167	6749
2630.088	6772
2632.008	6809
2633.928	6898
2635.848	6788
2637.766	6672
2639.684	6836
2641.603	6659
2643.519	6823
2645.437	6758
2647.353	6764
2649.27	6708
2651.184	6708
2653.099	6793
2655.014	6728
2656.928	6759
2658.842	6728
2660.755	6660
2662.667	6726
2664.579	6706
2666.491	6820
2668.402	6615
2670.312	6779
2672.222	6695
2674.132	6618
2676.042	6682
2677.951	6782
2679.859	6623
2681.766	6741
2683.674	6691
2685.582	6637
2687.488	6605
2689.392	6717
2691.298	6604
2693.202	6572
2695.107	6605
2697.012	6654
2698.914	6713
2700.817	6750
2702.72	6562
2704.622	6619
2706.524	6662
2708.425	6571
2710.326	6509
2712.225	6723
2714.125	6699
2716.024	6616
2717.923	6581
2719.822	6643
2721.719	6508
2723.616	6574
2725.512	6615
2727.41	6548
2729.305	6513
2731.201	6719
2733.095	6547
2734.99	6568
2736.884	6495
2738.778	6635
2740.67	6592
2742.562	6604
2744.455	6612
2746.346	6580
2748.238	6555
2750.129	6551
2752.018	6612
2753.907	6498
2755.797	6543
2757.687	6548
2759.575	6437
2761.462	6440
2763.349	6563
2765.237	6481
2767.124	6485
2769.009	6527
2770.894	6444
2772.779	6531
2774.663	6502
2776.547	6450
2778.431	6544
2780.314	6371
2782.197	6556
2784.078	6585
2785.96	6479
2787.842	6459
2789.723	6549
2791.603	6430
2793.483	6511
2795.362	6543
2797.241	6582
2799.121	6427
2800.997	6376
2802.874	6423
2804.751	6469
2806.628	6425
2808.506	6531
2810.38	6474
2812.255	6374
2814.13	6375
2816.003	6479
2817.878	6399
2819.752	6422
2821.623	6237
2823.496	6441
2825.368	6419
2827.238	6442
2829.111	6457
2830.98	6455
2832.851	6439
2834.719	6514
2836.589	6428
2838.458	6467
2840.327	6326
2842.193	6484
2844.061	6515
2845.927	6378
2847.794	6408
2849.66	6339
2851.525	6381
2853.39	6388
2855.254	6584
2857.117	6541
2858.983	6568
2860.845	6619
2862.707	6528
2864.569	6603
2866.431	6626
2868.293	6676
2870.154	6610
2872.013	6742
2873.873	6609
2875.733	6771
2877.592	6683
2879.451	6850
2881.309	6881
2883.166	6938
2885.022	6883
2886.879	6951
2888.736	6840
2890.591	6978
2892.446	7003
2894.301	6925
2896.155	6980
2898.009	6908
2899.863	6909
2901.716	6829
2903.568	6972
2905.419	6962
2907.27	6900
2909.123	7013
2910.973	6848
2912.824	6915
2914.673	7078
2916.521	6985
2918.372	7085
2920.22	7152
2922.067	7132
2923.914	7122
2925.761	7288
2927.607	7216
2929.455	7390
2931.301	7343
2933.144	7379
2934.99	7327
2936.833	7490
2938.678	7612
2940.522	7503
2942.364	7689
2944.207	7707
2946.048	7554
2947.891	7928
2949.731	7640
2951.571	7901
2953.412	7762
2955.25	7686
2957.09	7664
2958.93	7549
2960.767	7573
2962.606	7497
2964.443	7315
2966.279	7447
2968.116	7218
2969.953	7202
2971.788	7293
2973.623	7049
2975.457	7019
2977.292	6952
2979.127	6989
2980.959	6954
2982.792	6928
2984.624	6810
2986.455	6900
2988.288	6988
2990.119	6756
2991.949	6717
2993.779	6790
2995.608	6640
2997.439	6738
2999.268	6640
3001.096	6486
3002.923	6512
3004.751	6545
3006.578	6476
3008.406	6434
3010.232	6476
3012.057	6252
3013.883	6227
3015.706	6333
3017.532	6156
3019.356	6232
3021.179	6249
3023.002	6161
3024.823	6155
3026.646	6179
3028.469	6053
3030.289	6153
3032.11	6105
3033.93	6095
3035.749	6175
3037.57	6005
3039.39	6123
3041.207	6101
3043.026	6024
3044.842	6055
3046.661	5981
3048.477	6079
3050.294	6098
3052.109	6027
3053.925	5968
3055.739	5990
3057.555	6026
3059.368	5988
3061.181	5950
3062.995	6061
3064.807	5942
3066.62	6034
3068.433	5970
3070.243	5915
3072.054	6035
3073.865	5995
3075.675	5957
3077.485	5887
3079.293	5950
3081.102	5996
3082.911	5933
3084.719	5913
3086.527	5917
3088.333	5916
3090.139	5874
3091.945	5942
3093.75	5845
3095.557	5966
3097.361	5869
3099.165	5911
3100.969	5846
3102.772	5819
3104.575	5829
3106.379	5789
3108.181	5999
3109.982	5805
3111.783	5728
3113.584	5653
3115.386	5688
3117.186	5781
3118.985	5731
3120.783	5834
3122.582	5721
3124.381	5632
3126.179	5704
3127.975	5734
3129.772	5633
3131.569	5720
3133.365	5684
3135.161	5716
3136.956	5746
3138.751	5537
3140.544	5687
3142.338	5788
3144.132	5705
3145.925	5740
3147.717	5595
3149.509	5736
3151.301	5634
3153.091	5725
3154.884	5641
3156.673	5611
3158.462	5602
3160.252	5623
3162.041	5675
3163.831	5695
3165.618	5689
3167.405	5607
3169.193	5685
3170.979	5656
3172.767	5563
3174.553	5692
3176.338	5570
3178.123	5606
3179.907	5661
3181.692	5616
3183.477	5612
3185.259	5564
3187.042	5522
3188.824	5609
3190.607	5675
3192.389	5593
3194.17	5551
3195.951	5495
3197.73	5578
3199.51	5588
3201.289	5473
3203.07	5526
3204.848	5666
3206.626	5601
3208.403	5534
3210.18	5563
3211.959	5465
3213.735	5500
3215.511	5621
3217.285	5555
3219.06	5586
3220.836	5588
3222.611	5511
3224.384	5555
3226.158	5550
3227.929	5488
3229.702	5551
3231.476	5510
3233.248	5493
3235.018	5460
3236.789	5562
3238.56	5553
3240.33	5516
3242.1	5466
3243.869	5511
3245.637	5387
3247.405	5553
3249.172	5522
3250.941	5553
3252.707	5553
3254.474	5342
3256.24	5554
3258.006	5483
3259.772	5528
3261.537	5465
3263.301	5591
3265.065	5495
3266.828	5471
3268.592	5531
3270.355	5540
3272.117	5514
3273.878	5510
3275.64	5455
3277.401	5462
3279.162	5423
3280.922	5437
3282.682	5453
3284.441	5404
3286.199	5498
3287.959	5615
3289.716	5470
3291.475	5477
3293.232	5461
3294.988	5415
3296.744	5455
3298.501	5487
3300.256	5511
3302.011	5573
3303.766	5521
3305.52	5497
3307.275	5357
3309.028	5452
3310.781	5455
3312.533	5429
3314.285	5433
3316.038	5529
3317.789	5468
3319.54	5426
3321.289	5387
3323.039	5367
3324.789	5557
3326.539	5501
3328.288	5482
3330.035	5439
3331.783	5403
3333.531	5423
3335.28	5443
3337.025	5343
3338.771	5378
3340.518	5469
3342.262	5358
3344.009	5445
3345.753	5331
3347.497	5425
3349.24	5362
3350.983	5335
3352.726	5413
3354.469	5399
3356.212	5422
3357.952	5350
3359.694	5269
3361.434	5334
3363.176	5269
3364.916	5344
3366.654	5320
3368.394	5327
3370.132	5268
3371.871	5189
3373.61	5270
3375.346	5375
3377.083	5164
3378.82	5294
3380.556	5221
3382.292	5250
3384.027	5277
3385.763	5315
3387.497	5211
3389.231	5307
3390.965	5215
3392.698	5319
3394.431	5271
3396.164	5283
3397.896	5141
3399.627	5183
3401.36	5196
3403.09	5244
3404.82	5205
3406.55	5233
3408.279	5152
3410.01	5117
3411.738	5102
3413.467	5238
3415.194	5271
3416.92	5199
3418.647	5146
3420.375	5136
3422.102	5072
3423.827	5182
3425.553	5154
3427.277	5081
3429.003	5113
3430.727	5176
3432.451	5148
3434.173	5168
3435.896	5088
3437.62	5103
3439.343	5013
3441.063	5198
3442.785	5105
3444.505	5037
3446.226	5159
3447.948	5015
3449.666	5059
3451.386	5065
3453.104	5146
3454.823	5088
3456.541	4938
3458.259	5041
3459.976	4955
3461.693	5001
3463.408	5025
3465.125	5026
3466.841	4990
3468.556	4983
3470.271	4971
3471.985	4920
3473.698	4980
3475.414	5044
3477.126	5006
3478.838	4957
3480.55	4914
3482.263	4873
3483.975	4916
3485.686	4952
3487.396	4844
3489.106	4827
3490.817	4878
3492.526	4913
3494.236	4821
3495.944	4874
3497.652	4878
3499.359	4877
3501.066	4846
3502.775	4958
3504.481	4699
3506.187	4877
3507.893	4895
3509.598	4851
3511.304	4798
3513.009	4735
3514.713	4805
3516.417	4802
3518.12	4766
3519.821	4796
3521.525	4862
3523.228	4748
3524.929	4753
3526.631	4732
3528.33	4821
3530.032	4734
3531.733	4791
3533.433	4770
3535.131	4694
3536.83	4796
3538.529	4742
3540.227	4659
3541.925	4653
3543.623	4696
3545.319	4693
3547.016	4748
3548.712	4665
3550.408	4692
3552.103	4733
3553.798	4641
3555.491	4679
3557.188	4589
3558.88	4705
3560.574	4665
3562.266	4596
3563.959	4717
3565.651	4610
3567.343	4519
3569.035	4622
3570.725	4541
3572.415	4609
3574.106	4691
3575.797	4638
3577.485	4562
3579.174	4588
3580.863	4599
3582.551	4649
3584.238	4515
3585.926	4548
3587.613	4597
3589.3	4548
3590.986	4583
3592.671	4554
3594.357	4507
3596.042	4431
3597.726	4527
3599.41	4567
3601.094	4475
3602.778	4560
3604.461	4562
3606.143	4521
3607.825	4445
3609.507	4486
3611.188	4479
3612.87	4410
3614.551	4403
3616.229	4425
3617.909	4394
3619.589	4497
3621.269	4459
3622.948	4434
3624.625	4452
3626.302	4439
3627.98	4492
3629.657	4318
3631.334	4338
3633.01	4335
3634.686	4394
3636.361	4411
3638.036	4354
3639.712	4347
3641.385	4344
3643.06	4296
3644.732	4328
3646.405	4254
3648.08	4373
3649.751	4251
3651.424	4315
3653.094	4339
3654.766	4342
3656.436	4325
3658.106	4216
3659.777	4196
3661.446	4293
3663.115	4240
3664.783	4302
3666.452	4284
3668.121	4241
3669.788	4271
3671.454	4290
3673.121	4333
3674.789	4232
3676.455	4271
3678.12	4258
3679.784	4296
3681.45	4251
3683.114	4235
3684.779	4200
3686.442	4099
3688.105	4249
3689.768	4249
3691.43	4283
3693.093	4220
3694.754	4197
3696.415	4235
3698.076	4147
3699.736	4181
3701.396	4174
3703.057	4189
3704.716	4125
3706.375	4115
3708.034	4194
3709.692	4165
3711.351	4161
3713.008	4231
3714.665	4154
3716.321	4139
3717.977	4172
3719.634	4157
3721.29	4112
3722.945	4100
3724.598	4103
3726.253	4094
3727.907	4111
3729.561	4134
3731.214	4102
3732.867	4121
3734.518	4054
3736.171	4051
3737.824	4113
3739.474	4058
3741.125	4113
3742.775	4170
3744.425	4178
3746.074	4137
3747.725	4103
3749.373	4052
3751.022	4100
3752.669	4028
3754.318	4137
3755.966	4116
3757.612	4020
3759.259	4056
3760.905	4013
3762.55	4024
3764.197	4021
3765.842	4050
3767.486	4066
3769.131	4085
3770.774	4000
3772.417	3991
3774.061	4074
3775.705	3980
3777.347	3995
3778.988	3964
3780.629	3919
3782.271	4007
3783.912	3970
3785.552	3926
3787.192	3967
3788.831	4045
3790.472	3999
3792.112	3957
3793.75	3972
3795.388	4014
3797.024	3954
3798.661	3890
3800.3	3898
3801.936	3889
3803.572	3962
3805.208	3893
3806.844	3936
3808.48	3920
3810.115	3848
3811.748	3932
3813.382	3923
3815.016	3923
3816.649	3864
3818.283	3845
3819.914	3888
3821.547	3863
3823.178	3754
3824.809	3882
3826.441	3855
3828.072	3935
3829.701	3877
3831.331	3831
3832.96	3849
3834.591	3877
3836.219	3791
3837.847	3872
3839.475	3758
3841.102	3787
3842.729	3905
3844.357	3867
3845.984	3805
3847.609	3831
3849.234	3819
3850.86	3854
3852.485	3904
3854.11	3747
3855.734	3757
3857.357	3811
3858.981	3782
3860.603	3814
3862.227	3846
3863.848	3690
3865.471	3839
3867.092	3784
3868.713	3726
3870.334	3828
3871.954	3738
3873.575	3748
3875.194	3746
3876.813	3685
3878.433	3744
3880.051	3682
3881.669	3756
3883.286	3833
3884.904	3733
3886.52	3755
3888.138	3802
3889.754	3700
3891.37	3687
3892.985	3716
3894.6	3709
3896.216	3669
3897.831	3729
3899.444	3699
3901.058	3671
3902.67	3768
3904.283	3731
3905.897	3734
3907.509	3692
3909.121	3657
3910.731	3690
3912.342	3718
3913.954	3726
3915.563	3655
3917.174	3633
3918.783	3714
3920.391	3703
3922.002	3632
3923.611	3650
3925.218	3609
3926.826	3660
3928.432	3690
3930.039	3665
3931.647	3672
3933.253	3592
3934.859	3602
3936.464	3641
3938.068	3630
3939.675	3580
3941.278	3635
3942.883	3590
3944.486	3675
3946.089	3658
3947.692	3671
3949.295	3578
3950.898	3540
3952.499	3618
3954.1	3616
3955.7	3567
3957.303	3601
3958.903	3614
3960.502	3584
3962.101	3497
3963.7	3628
3965.301	3577
3966.899	3617
3968.497	3577
3970.094	3521
3971.691	3535
3973.288	3583
3974.885	3601
3976.481	3503
3978.077	3527
3979.672	3581
3981.267	3562
3982.863	3578
3984.457	3589
3986.051	3569
3987.645	3494
3989.238	3563
3990.831	3531
3992.425	3499
3994.017	3452
3995.607	3458
3997.199	3470
3998.79	3486
4000.382	3450
4001.973	3423
4003.561	3471
4005.151	3449
4006.741	3489
4008.331	3450
4009.918	3504
4011.507	3415
4013.095	3470
4014.681	3412
4016.269	3374
4017.856	3409
4019.443	3410
4021.028	3443
4022.614	3328
4024.199	3448
4025.785	3427
4027.37	3419
4028.953	3370
4030.536	3357
4032.12	3366
4033.704	3379
4035.287	3347
4036.869	3410
4038.45	3333
4040.032	3383
4041.613	3372
4043.195	3321
4044.776	3362
4046.356	3363
4047.935	3392
4049.515	3364
4051.095	3315
4052.674	3354
4054.251	3357
4055.829	3258
4057.406	3332
4058.985	3295
4060.562	3325
4062.139	3314
4063.715	3261
4065.29	3336
4066.865	3289
4068.442	3287
4070.016	3316
4071.59	3292
4073.164	3292
4074.738	3299
4076.312	3222
4077.885	3283
4079.458	3333
4081.03	3293
4082.602	3276
4084.173	3333
4085.745	3221
4087.315	3322
4088.886	3315
4090.456	3238
4092.026	3221
4093.596	3270
4095.165	3203
4096.734	3269
4098.301	3235
4099.869	3231
4101.437	3289
4103.006	3198
4104.572	3252
4106.139	3234
4107.704	3301
4109.27	3217
4110.837	3218
4112.401	3278
4113.966	3156
4115.53	3142
4117.094	3225
4118.659	3159
4120.223	3214
4121.785	3201
4123.347	3158
4124.909	3231
4126.471	3190
4128.034	3178
4129.595	3118
4131.155	3218
4132.716	3136
4134.275	3110
4135.836	3136
4137.395	3140
4138.955	3116
4140.513	3217
4142.071	3165
4143.628	3215
4145.188	3064
4146.745	3159
4148.302	3189
4149.858	3098
4151.414	3106
4152.971	3140
4154.526	3120
4156.081	3020
4157.635	3097
4159.189	3059
4160.745	3182
4162.298	3061
4163.852	3065
4165.405	3075
4166.957	3087
4168.51	3080
4170.063	3076
4171.614	3051
4173.166	3125
4174.717	3087
4176.267	3053
4177.817	3093
4179.368	3003
4180.917	2975
4182.466	3060
4184.016	3064
4185.564	3050
4187.112	3067
4188.66	3020
4190.207	3038
4191.754	2965
4193.301	3009
4194.848	2963
4196.394	3002
4197.94	3065
4199.484	3011
4201.03	2971
4202.575	2992
4204.12	2956
4205.663	3013
4207.207	2942
4208.75	3001
4210.292	2968
4211.836	3013
4213.378	3000
4214.92	3004
4216.46	2989
4218.002	2996
4219.544	2943
4221.083	2985
4222.625	2925
4224.164	3028
4225.703	2946
4227.244	2938
4228.782	2897
4230.32	2968
4231.857	2984
4233.395	2933
4234.933	2931
4236.471	2898
4238.007	2912
4239.542	2903
4241.078	2944
4242.614	2916
4244.15	2874
4245.685	2933
4247.219	2842
4248.753	2871
4250.287	2823
4251.82	2966
4253.354	2865
4254.887	2910
4256.419	2826
4257.951	2895
4259.483	2902
4261.016	2851
4262.547	2891
4264.078	2966
4265.608	2883
4267.137	2836
4268.668	2899
4270.197	2833
4271.727	2872
4273.254	2847
4274.783	2885
4276.311	2803
4277.84	2888
4279.366	2895
4280.894	2889
4282.42	2859
4283.946	2797
4285.473	2796
4286.998	2901
4288.523	2897
4290.047	2874
4291.572	2834
4293.096	2864
4294.622	2810
4296.144	2845
4297.668	2780
4299.19	2783
4300.713	2808
4302.236	2784
4303.758	2784
4305.279	2855
4306.799	2754
4308.321	2792
4309.842	2786
4311.361	2755
4312.882	2763
4314.401	2742
