400.0961	4382
402.6185	4350
405.1424	4320
407.6635	4374
410.1838	4289
412.7035	4284
415.2225	4363
417.7388	4475
420.2585	4500
422.7754	4480
425.2917	4549
427.8072	4585
430.3221	4641
432.8363	4606
435.3498	4690
437.8626	4639
440.3727	4610
442.8841	4683
445.3969	4615
447.907	4659
450.4142	4586
452.9229	4752
455.4289	4609
457.9362	4531
460.4449	4643
462.9488	4607
465.454	4560
467.9566	4592
470.4604	4558
472.9637	4608
475.4662	4651
477.966	4662
480.4671	4663
482.9656	4707
485.4633	4602
487.9645	4595
490.4608	4687
492.9566	4676
495.4536	4623
497.948	4769
500.4437	4800
502.9387	4635
505.431	4776
507.9226	4630
510.4136	4754
512.9079	4767
515.3975	4739
517.8864	4810
520.3746	4767
522.8622	4823
525.3491	4819
527.8394	4821
530.3249	4752
532.8098	4816
535.2939	4910
537.7774	4779
540.2623	4770
542.7444	4755
545.2259	4748
547.7067	4849
550.1868	4781
552.6683	4867
555.147	4848
557.6231	4720
560.1005	4831
562.5773	4840
565.0534	4810
567.5308	4882
570.0056	4880
572.4776	5021
574.951	5009
577.4237	4986
579.8978	4969
582.3671	5005
584.8378	4978
587.3079	5011
589.7773	4951
592.244	5051
594.714	5082
597.1793	5034
599.6461	5058
602.1121	4996
604.5754	5013
607.0421	4935
609.5042	5007
611.9675	5024
614.4282	4974
616.8902	4997
619.3515	4950
621.8122	5069
624.2702	4980
626.7296	4946
629.1863	4972
631.6423	4919
634.1017	4959
636.5563	4959
639.0104	4938
641.4658	5073
643.9185	4894
646.3725	5028
648.8239	4975
651.2766	5085
653.7266	4919
656.176	4954
658.6247	5104
661.0748	5087
663.5242	5052
665.9709	5101
668.417	5082
670.8624	5066
673.3092	4962
675.7533	5098
678.1968	5059
680.6395	5184
683.0817	5118
685.5251	5060
687.9659	5138
690.4061	5058
692.8456	5167
695.2844	5183
697.7226	5201
700.1621	5174
702.599	5147
705.0332	5277
707.4688	5192
709.9036	5225
712.3399	5258
714.7735	5176
717.2044	5315
719.6367	5219
722.0683	5231
724.4993	5254
726.9296	5368
729.3593	5240
731.7883	5310
734.2147	5449
736.6423	5380
739.0714	5391
741.4958	5387
743.9216	5432
746.3447	5395
748.7691	5307
751.1929	5501
753.616	5507
756.0366	5424
758.4584	5396
760.8776	5494
763.2982	5555
765.718	5515
768.1373	5511
770.5539	5512
772.9698	5513
775.3871	5521
777.8038	5472
780.2178	5472
782.6332	5477
785.0459	5563
787.458	5488
789.8714	5494
792.2842	5560
794.6943	5552
797.1038	5463
799.5127	5420
801.9209	5560
804.3324	5522
806.7393	5604
809.1456	5418
811.5513	5617
813.9562	5592
816.3625	5566
818.7663	5567
821.1693	5621
823.5718	5596
825.9735	5622
828.3746	5620
830.7771	5701
833.177	5598
835.5762	5627
837.9747	5719
840.3727	5719
842.772	5626
845.1666	5689
847.5626	5654
849.958	5865
852.3527	5729
854.7488	5720
857.1403	5887
859.5331	5826
861.9253	5826
864.3168	5671
866.7057	5728
869.098	5714
871.4876	5775
873.8746	5761
876.263	5669
878.6487	5776
881.0378	5733
883.4243	5705
885.8081	5720
888.1933	5715
890.5759	5634
892.9598	5700
895.343	5749
897.7256	5739
900.1057	5691
902.4871	5695
904.8659	5715
907.246	5836
909.6254	5867
912.0023	5936
914.3786	5933
916.7562	6031
919.1331	5982
921.5074	6159
923.8831	6189
926.2562	6146
928.6287	6124
931.0005	6050
933.3757	6092
935.7462	6151
938.1162	6148
940.4855	6278
942.8542	6174
945.2242	6274
947.5916	6378
949.9584	6437
952.3266	6750
954.6921	6821
957.0571	7020
959.4233	7403
961.787	7517
964.15	7499
966.5125	7276
968.8742	6993
971.2354	6852
973.5959	6538
975.9559	6413
978.3151	6231
980.6738	6179
983.0338	6097
985.3912	6035
987.7461	6057
990.1022	6013
992.4578	5978
994.8127	6005
997.1689	6025
999.5207	6044
1001.874	6058
1004.226	6045
1006.576	6035
1008.929	6072
1011.28	6029
1013.628	5935
1015.977	6032
1018.324	5933
1020.674	5959
1023.019	5969
1025.366	6020
1027.713	6051
1030.056	6006
1032.399	6081
1034.746	6192
1037.087	6127
1039.431	6178
1041.771	6092
1044.113	6110
1046.454	6132
1048.793	6241
1051.133	6191
1053.471	6104
1055.807	6158
1058.146	6087
1060.483	6119
1062.818	6154
1065.153	6234
1067.489	6218
1069.822	6254
1072.156	6129
1074.488	6348
1076.82	6168
1079.15	6092
1081.48	6139
1083.814	6159
1086.143	6144
1088.471	6115
1090.799	5975
1093.126	6096
1095.452	6090
1097.78	6060
1100.105	6133
1102.43	6001
1104.754	6128
1107.077	6062
1109.4	6145
1111.722	6161
1114.044	6240
1116.365	6144
1118.685	6134
1121.005	6238
1123.324	6172
1125.643	6164
1127.961	6179
1130.278	6121
1132.595	6157
1134.911	6137
1137.226	6069
1139.541	6062
1141.854	6186
1144.167	6143
1146.482	6008
1148.793	6147
1151.105	6095
1153.414	6030
1155.725	6113
1158.033	6085
1160.344	5980
1162.651	6247
1164.959	6202
1167.265	6035
1169.572	6164
1171.878	6121
1174.184	6215
1176.488	6178
1178.79	6216
1181.094	6257
1183.396	6139
1185.699	6201
1188.001	6184
1190.301	6015
1192.6	6171
1194.9	6196
1197.2	6052
1199.497	6199
1201.794	6105
1204.09	6138
1206.387	6201
1208.684	6230
1210.978	6062
1213.272	6182
1215.565	6117
1217.858	6035
1220.15	6269
1222.443	6173
1224.734	6321
1227.024	6205
1229.313	6242
1231.602	6300
1233.892	6223
1236.18	6397
1238.467	6351
1240.754	6427
1243.04	6434
1245.325	6482
1247.612	6407
1249.896	6412
1252.178	6462
1254.461	6387
1256.743	6560
1259.027	6458
1261.308	6438
1263.587	6498
1265.867	6528
1268.146	6494
1270.425	6547
1272.703	6549
1274.981	6595
1277.256	6521
1279.532	6421
1281.808	6479
1284.083	6432
1286.358	6477
1288.63	6369
1290.904	6359
1293.175	6446
1295.449	6408
1297.719	6281
1299.99	6480
1302.259	6416
1304.529	6277
1306.798	6379
1309.065	6288
1311.333	6291
1313.599	6280
1315.866	6394
1318.131	6329
1320.396	6376
1322.66	6290
1324.925	6372
1327.187	6324
1329.448	6427
1331.711	6509
1333.974	6440
1336.234	6376
1338.493	6389
1340.752	6422
1343.01	6382
1345.269	6289
1347.526	6316
1349.784	6343
1352.04	6223
1354.295	6240
1356.552	6373
1358.806	6290
1361.059	6307
1363.312	6318
1365.564	6439
1367.818	6379
1370.069	6366
1372.318	6401
1374.568	6374
1376.817	6450
1379.066	6497
1381.316	6403
1383.564	6402
1385.809	6431
1388.056	6534
1390.301	6421
1392.549	6570
1394.793	6650
1397.036	6672
1399.279	6676
1401.522	6599
1403.763	6605
1406.007	6698
1408.248	6622
1410.487	6678
1412.727	6672
1414.965	6593
1417.205	6545
1419.442	6688
1421.68	6592
1423.915	6578
1426.152	6639
1428.388	6664
1430.623	6456
1432.857	6608
1435.091	6698
1437.323	6778
1439.556	6675
1441.789	6768
1444.019	6597
1446.25	6781
1448.48	6753
1450.708	6804
1452.938	6800
1455.167	6780
1457.394	6760
1459.62	6747
1461.846	6781
1464.073	6654
1466.299	6790
1468.523	6628
1470.746	6691
1472.969	6732
1475.191	6493
1477.415	6491
1479.636	6442
1481.858	6421
1484.078	6509
1486.298	6471
1488.518	6417
1490.736	6381
1492.954	6412
1495.169	6359
1497.386	6453
1499.602	6394
1501.819	6272
1504.034	6412
1506.248	6270
1508.462	6367
1510.675	6392
1512.888	6276
1515.1	6418
1517.311	6354
1519.522	6320
1521.732	6392
1523.942	6344
1526.151	6306
1528.36	6405
1530.566	6327
1532.773	6312
1534.98	6400
1537.187	6299
1539.392	6254
1541.596	6393
1543.801	6376
1546.005	6282
1548.208	6411
1550.411	6382
1552.612	6490
1554.814	6513
1557.013	6363
1559.212	6520
1561.414	6489
1563.612	6460
1565.811	6403
1568.007	6537
1570.203	6524
1572.403	6539
1574.598	6446
1576.792	6486
1578.988	6531
1581.181	6492
1583.376	6556
1585.568	6608
1587.761	6476
1589.952	6575
1592.143	6636
1594.333	6590
1596.524	6599
1598.715	6656
1600.903	6522
1603.091	6532
1605.278	6605
1607.466	6664
1609.652	6640
1611.838	6644
1614.023	6732
1616.207	6661
1618.391	6509
1620.576	6699
1622.759	6578
1624.941	6575
1627.123	6566
1629.304	6665
1631.484	6647
1633.664	6719
1635.844	6669
1638.022	6796
1640.201	6629
1642.38	6660
1644.556	6574
1646.732	6640
1648.908	6710
1651.084	6664
1653.257	6680
1655.433	6708
1657.607	6759
1659.779	6676
1661.951	6794
1664.122	6835
1666.295	6734
1668.467	6806
1670.635	6761
1672.805	6834
1674.973	6835
1677.142	6855
1679.31	6836
1681.478	6739
1683.644	6723
1685.81	6688
1687.975	6584
1690.142	6752
1692.305	6773
1694.468	6690
1696.632	6664
1698.794	6687
1700.957	6705
1703.119	6517
1705.279	6680
1707.439	6607
1709.598	6559
1711.758	6576
1713.917	6502
1716.075	6589
1718.231	6602
1720.388	6557
1722.543	6638
1724.702	6551
1726.856	6476
1729.01	6519
1731.164	6552
1733.317	6591
1735.471	6527
1737.623	6556
1739.774	6591
1741.925	6500
1744.075	6553
1746.225	6572
1748.376	6496
1750.524	6594
1752.672	6569
1754.82	6481
1756.965	6467
1759.113	6471
1761.259	6626
1763.405	6579
1765.549	6499
1767.694	6564
1769.836	6562
1771.981	6494
1774.123	6604
1776.264	6539
1778.405	6604
1780.546	6651
1782.687	6555
1784.827	6444
1786.966	6624
1789.103	6591
1791.242	6576
1793.381	6644
1795.517	6665
1797.653	6564
1799.788	6524
1801.923	6553
1804.057	6550
1806.193	6712
1808.326	6636
1810.457	6571
1812.59	6641
1814.721	6735
1816.855	6728
1818.984	6656
1821.113	6607
1823.244	6541
1825.372	6539
1827.499	6533
1829.63	6554
1831.756	6525
1833.882	6528
1836.007	6596
1838.132	6442
1840.26	6566
1842.384	6627
1844.507	6662
1846.63	6648
1848.752	6446
1850.875	6718
1852.996	6554
1855.118	6494
1857.238	6512
1859.358	6476
1861.477	6545
1863.597	6507
1865.715	6423
1867.832	6674
1869.948	6444
1872.064	6580
1874.181	6468
1876.297	6618
1878.411	6590
1880.526	6540
1882.639	6591
1884.752	6580
1886.865	6622
1888.977	6605
1891.089	6502
1893.2	6555
1895.308	6527
1897.42	6631
1899.53	6597
1901.639	6567
1903.745	6524
1905.853	6541
1907.962	6550
1910.067	6577
1912.174	6652
1914.278	6592
1916.383	6673
1918.486	6603
1920.592	6610
1922.694	6687
1924.797	6571
1926.898	6623
1929	6688
1931.102	6576
1933.203	6595
1935.301	6632
1937.401	6642
1939.499	6637
1941.598	6651
1943.697	6761
1945.793	6619
1947.888	6572
1949.985	6598
1952.08	6617
1954.176	6718
1956.269	6664
1958.364	6641
1960.457	6709
1962.549	6665
1964.642	6592
1966.733	6558
1968.823	6689
1970.913	6689
1973.005	6616
1975.093	6578
1977.184	6586
1979.271	6672
1981.359	6704
1983.446	6555
1985.532	6542
1987.619	6649
1989.705	6744
1991.789	6597
1993.874	6530
1995.956	6553
1998.041	6674
2000.123	6523
2002.206	6640
2004.287	6567
2006.368	6524
2008.449	6591
2010.529	6360
2012.609	6639
2014.688	6617
2016.766	6572
2018.843	6495
2020.922	6626
2022.999	6552
2025.074	6546
2027.15	6676
2029.225	6561
2031.299	6645
2033.375	6448
2035.447	6562
2037.52	6504
2039.592	6441
2041.664	6480
2043.736	6476
2045.807	6513
2047.876	6454
2049.947	6632
2052.015	6640
2054.086	6560
2056.153	6593
2058.221	6690
2060.288	6552
2062.353	6587
2064.42	6534
2066.486	6485
2068.55	6505
2070.614	6545
2072.678	6615
2074.741	6636
2076.805	6509
2078.866	6607
2080.929	6566
2082.99	6567
2085.049	6642
2087.109	6638
2089.17	6528
2091.228	6645
2093.286	6475
2095.344	6722
2097.4	6647
2099.46	6577
2101.516	6691
2103.572	6630
2105.626	6566
2107.679	6677
2109.735	6550
2111.788	6474
2113.841	6683
2115.894	6391
2117.945	6583
2119.997	6599
2122.049	6512
2124.1	6526
2126.148	6521
2128.197	6536
2130.246	6630
2132.296	6696
2134.342	6553
2136.39	6474
2138.437	6488
2140.483	6603
2142.527	6533
2144.574	6597
2146.619	6401
2148.661	6471
2150.705	6579
2152.747	6538
2154.792	6559
2156.832	6628
2158.874	6495
2160.915	6394
2162.954	6543
2164.995	6432
2167.034	6448
2169.072	6484
2171.111	6469
2173.148	6522
2175.186	6434
2177.223	6449
2179.258	6399
2181.294	6442
2183.328	6413
2185.362	6445
2187.398	6422
2189.431	6456
2191.463	6444
2193.495	6508
2195.528	6560
2197.56	6418
2199.59	6417
2201.62	6357
2203.649	6384
2205.678	6362
2207.708	6365
2209.737	6430
2211.764	6238
2213.791	6365
2215.817	6359
2217.843	6355
2219.87	6321
2221.895	6361
2223.919	6288
2225.942	6347
2227.966	6352
2229.988	6384
2232.012	6377
2234.032	6413
2236.054	6467
2238.074	6527
2240.095	6396
2242.116	6395
2244.135	6415
2246.153	6354
2248.171	6380
2250.188	6306
2252.208	6308
2254.223	6397
2256.239	6342
2258.255	6264
2260.269	6346
2262.283	6297
2264.3	6307
2266.312	6278
2268.325	6315
2270.336	6265
2272.349	6324
2274.362	6444
2276.372	6442
2278.383	6383
2280.392	6437
2282.402	6329
2284.409	6362
2286.418	6277
2288.427	6313
2290.433	6350
2292.441	6383
2294.446	6387
2296.453	6291
2298.459	6321
2300.463	6309
2302.466	6312
2304.471	6411
2306.475	6309
2308.477	6320
2310.478	6224
2312.481	6281
2314.481	6260
2316.481	6420
2318.482	6387
2320.482	6301
2322.48	6297
2324.48	6342
2326.478	6256
2328.476	6266
2330.473	6287
2332.469	6321
2334.465	6213
2336.46	6340
2338.454	6284
2340.45	6367
2342.444	6258
2344.437	6244
2346.43	6318
2348.421	6153
2350.414	6247
2352.405	6275
2354.396	6229
2356.386	6119
2358.376	6241
2360.366	6309
2362.355	6273
2364.343	6179
2366.331	6280
2368.317	6317
2370.304	6204
2372.292	6141
2374.278	6243
2376.262	6299
2378.247	6096
2380.23	6144
2382.216	6244
2384.199	6228
2386.181	6159
2388.163	6153
2390.144	6005
2392.127	6202
2394.107	6192
2396.087	6072
2398.066	6150
2400.046	6176
2402.023	6018
2404.004	6153
2405.981	5964
2407.957	6119
2409.934	6077
2411.91	6150
2413.886	6179
2415.862	6079
2417.836	6064
2419.809	6168
2421.784	6083
2423.756	6101
2425.73	6131
2427.701	6218
2429.672	6129
2431.644	6169
2433.615	6176
2435.586	6094
2437.555	6149
2439.523	6117
2441.491	6095
2443.459	6213
2445.428	6160
2447.395	6091
2449.361	6195
2451.327	6096
2453.292	6213
2455.257	6242
2457.223	6107
2459.187	6046
2461.15	6109
2463.113	6031
2465.076	6084
2467.039	6104
2468.999	6098
2470.96	6035
2472.921	6026
2474.881	6066
2476.841	6095
2478.8	5984
2480.759	6114
2482.717	5966
2484.675	5981
2486.63	6057
2488.589	5983
2490.545	5907
2492.5	6013
2494.455	6121
2496.408	5942
2498.364	5965
2500.318	5981
2502.27	6018
2504.223	6033
2506.174	5987
2508.126	6088
2510.078	6076
2512.03	5960
2513.979	6015
2515.927	5949
2517.877	5961
2519.826	6001
2521.775	6051
2523.722	5975
2525.668	6047
2527.616	5927
2529.561	6069
2531.508	6019
2533.452	5957
2535.398	5940
2537.342	6007
2539.284	5979
2541.229	6046
2543.173	5971
2545.114	6084
2547.055	5994
2548.996	5975
2550.938	5909
2552.878	5891
2554.817	5972
2556.756	6017
2558.695	5985
2560.633	5927
2562.572	5845
2564.509	5960
2566.445	5961
2568.382	5900
2570.317	5945
2572.254	5957
2574.189	5982
2576.123	5873
2578.057	6017
2579.99	5988
2581.923	5946
2583.855	5946
2585.788	6140
2587.719	5930
2589.65	5891
2591.579	6036
2593.511	5874
2595.44	6056
2597.37	5939
2599.297	5941
2601.225	5987
2603.153	5988
2605.08	5967
2607.007	5946
2608.932	5995
2610.858	5918
2612.782	5938
2614.709	5791
2616.632	5862
2618.556	5995
2620.478	6023
2622.401	6025
2624.324	5900
2626.247	5827
2628.167	5967
2630.088	5940
2632.008	5897
2633.928	5991
2635.848	5924
2637.766	5979
2639.684	5925
2641.603	5876
2643.519	5961
2645.437	5925
2647.353	5968
2649.27	5855
2651.184	5930
2653.099	5987
2655.014	5968
2656.928	5981
2658.842	5900
2660.755	6079
2662.667	5943
2664.579	5952
2666.491	5924
2668.402	5919
2670.312	5906
2672.222	6020
2674.132	5946
2676.042	6039
2677.951	5914
2679.859	5863
2681.766	5881
2683.674	5881
2685.582	5826
2687.488	5887
2689.392	6008
2691.298	5883
2693.202	5880
2695.107	5781
2697.012	5848
2698.914	5895
2700.817	5790
2702.72	5773
2704.622	5730
2706.524	5925
2708.425	5785
2710.326	5958
2712.225	5772
2714.125	5803
2716.024	5784
2717.923	5825
2719.822	5901
2721.719	5778
2723.616	5895
2725.512	5823
2727.41	5748
2729.305	5895
2731.201	5822
2733.095	5873
2734.99	5790
2736.884	5835
2738.778	5799
2740.67	5914
2742.562	5787
2744.455	5743
2746.346	5874
2748.238	5844
2750.129	5728
2752.018	5904
2753.907	5763
2755.797	5815
2757.687	5811
2759.575	5830
2761.462	5786
2763.349	5830
2765.237	5801
2767.124	5789
2769.009	5658
2770.894	5812
2772.779	5851
2774.663	5913
2776.547	5777
2778.431	5862
2780.314	5753
2782.197	5828
2784.078	5780
2785.96	5625
2787.842	5779
2789.723	5685
2791.603	5805
2793.483	5711
2795.362	5760
2797.241	5811
2799.121	5723
2800.997	5609
2802.874	5759
2804.751	5733
2806.628	5736
2808.506	5898
2810.38	5696
2812.255	5686
2814.13	5672
2816.003	5721
2817.878	5607
2819.752	5641
2821.623	5735
2823.496	5782
2825.368	5703
2827.238	5761
2829.111	5738
2830.98	5645
2832.851	5826
2834.719	5840
2836.589	5677
2838.458	5778
2840.327	5756
2842.193	5715
2844.061	5747
2845.927	5882
2847.794	5856
2849.66	5728
2851.525	5779
2853.39	5735
2855.254	5837
2857.117	5843
2858.983	5838
2860.845	5852
2862.707	5874
2864.569	5968
2866.431	5917
2868.293	6142
2870.154	5971
2872.013	6085
2873.873	6039
2875.733	6148
2877.592	6160
2879.451	6250
2881.309	6336
2883.166	6326
2885.022	6378
2886.879	6380
2888.736	6387
2890.591	6445
2892.446	6525
2894.301	6410
2896.155	6483
2898.009	6394
2899.863	6519
2901.716	6370
2903.568	6448
2905.419	6406
2907.27	6427
2909.123	6386
2910.973	6335
2912.824	6350
2914.673	6423
2916.521	6477
2918.372	6609
2920.22	6645
2922.067	6661
2923.914	6677
2925.761	6811
2927.607	7000
2929.455	6924
2931.301	6846
2933.144	6999
2934.99	7052
2936.833	7144
2938.678	7202
2940.522	7085
2942.364	7331
2944.207	7431
2946.048	7340
2947.891	7559
2949.731	7468
2951.571	7366
2953.412	7431
2955.25	7438
2957.09	7203
2958.93	7210
2960.767	7191
2962.606	7034
2964.443	6945
2966.279	6880
2968.116	6898
2969.953	6715
2971.788	6653
2973.623	6676
2975.457	6569
2977.292	6651
2979.127	6504
2980.959	6411
2982.792	6454
2984.624	6318
2986.455	6335
2988.288	6313
2990.119	6226
2991.949	6159
2993.779	6206
2995.608	6164
2997.439	6181
2999.268	6145
3001.096	6150
3002.923	5976
3004.751	5912
3006.578	5806
3008.406	5786
3010.232	5837
3012.057	5744
3013.883	5698
3015.706	5698
3017.532	5656
3019.356	5598
3021.179	5615
3023.002	5621
3024.823	5523
3026.646	5493
3028.469	5438
3030.289	5555
3032.11	5503
3033.93	5549
3035.749	5560
3037.57	5396
3039.39	5495
3041.207	5478
3043.026	5521
3044.842	5468
3046.661	5427
3048.477	5327
3050.294	5441
3052.109	5394
3053.925	5365
3055.739	5424
3057.555	5340
3059.368	5353
3061.181	5404
3062.995	5450
3064.807	5446
3066.62	5385
3068.433	5466
3070.243	5427
3072.054	5413
3073.865	5377
3075.675	5354
3077.485	5370
3079.293	5280
3081.102	5332
3082.911	5297
3084.719	5331
3086.527	5364
3088.333	5309
3090.139	5371
3091.945	5325
3093.75	5311
3095.557	5229
3097.361	5320
3099.165	5247
3100.969	5322
3102.772	5277
3104.575	5197
3106.379	5204
3108.181	5264
3109.982	5204
3111.783	5177
3113.584	5301
3115.386	5185
3117.186	5181
3118.985	5239
3120.783	5116
3122.582	5247
3124.381	5175
3126.179	5204
3127.975	5142
3129.772	5148
3131.569	5177
3133.365	5181
3135.161	5141
3136.956	5128
3138.751	5098
3140.544	5095
3142.338	5139
3144.132	5122
3145.925	5145
3147.717	5105
3149.509	5050
3151.301	5117
3153.091	5136
3154.884	5140
3156.673	5119
3158.462	5196
3160.252	5086
3162.041	5009
3163.831	5064
3165.618	5093
3167.405	5084
3169.193	5104
3170.979	5110
3172.767	5146
3174.553	5108
3176.338	4987
3178.123	5154
3179.907	5036
3181.692	5136
3183.477	5062
3185.259	5109
3187.042	5140
3188.824	5049
3190.607	5138
3192.389	4917
3194.17	4982
3195.951	5046
3197.73	5008
3199.51	4964
3201.289	5023
3203.07	5103
3204.848	4997
3206.626	5072
3208.403	4985
3210.18	5104
3211.959	4984
3213.735	5013
3215.511	4987
3217.285	5033
3219.06	4981
3220.836	5086
3222.611	4953
3224.384	5058
3226.158	5067
3227.929	4850
3229.702	5003
3231.476	4962
3233.248	5065
3235.018	4992
3236.789	4981
3238.56	5014
3240.33	5038
3242.1	5019
3243.869	5052
3245.637	5052
3247.405	5049
3249.172	4991
3250.941	5065
3252.707	5028
3254.474	5000
3256.24	5051
3258.006	4830
3259.772	5054
3261.537	5028
3263.301	5017
3265.065	4990
3266.828	4940
3268.592	4999
3270.355	5092
3272.117	5026
3273.878	5040
3275.64	4929
3277.401	5050
3279.162	5075
3280.922	4996
3282.682	5060
3284.441	4955
3286.199	5044
3287.959	4976
3289.716	4939
3291.475	4966
3293.232	5042
3294.988	5011
3296.744	4980
3298.501	4982
3300.256	5013
3302.011	5003
3303.766	4934
3305.52	5036
3307.275	4945
3309.028	5060
3310.781	4948
3312.533	5058
3314.285	4926
3316.038	4907
3317.789	4964
3319.54	4892
3321.289	5059
3323.039	5052
3324.789	5001
3326.539	5017
3328.288	4954
3330.035	5042
3331.783	4972
3333.531	5016
3335.28	4950
3337.025	4991
3338.771	4962
3340.518	4994
3342.262	4988
3344.009	4950
3345.753	4930
3347.497	4924
3349.24	4949
3350.983	4983
3352.726	4949
3354.469	4844
3356.212	4926
3357.952	4890
3359.694	4904
3361.434	4879
3363.176	4883
3364.916	4936
3366.654	4786
3368.394	4869
3370.132	4892
3371.871	4853
3373.61	4904
3375.346	4784
3377.083	4825
3378.82	4827
3380.556	4766
3382.292	4838
3384.027	4826
3385.763	4824
3387.497	4752
3389.231	4782
3390.965	4764
3392.698	4861
3394.431	4700
3396.164	4782
3397.896	4845
3399.627	4786
3401.36	4744
3403.09	4833
3404.82	4775
3406.55	4779
3408.279	4779
3410.01	4807
3411.738	4741
3413.467	4724
3415.194	4810
3416.92	4710
3418.647	4795
3420.375	4709
3422.102	4720
3423.827	4757
3425.553	4719
3427.277	4661
3429.003	4760
3430.727	4731
3432.451	4720
3434.173	4651
3435.896	4704
3437.62	4656
3439.343	4709
3441.063	4665
3442.785	4664
3444.505	4664
3446.226	4576
3447.948	4645
3449.666	4607
3451.386	4678
3453.104	4637
3454.823	4619
3456.541	4573
3458.259	4679
3459.976	4564
3461.693	4634
3463.408	4478
3465.125	4505
3466.841	4616
3468.556	4468
3470.271	4607
3471.985	4683
3473.698	4580
3475.414	4484
3477.126	4476
3478.838	4564
3480.55	4452
3482.263	4603
3483.975	4553
3485.686	4437
3487.396	4424
3489.106	4495
3490.817	4501
3492.526	4521
3494.236	4484
3495.944	4457
3497.652	4436
3499.359	4402
3501.066	4403
3502.775	4449
3504.481	4433
3506.187	4401
3507.893	4431
3509.598	4309
3511.304	4437
3513.009	4382
3514.713	4463
3516.417	4366
3518.12	4411
3519.821	4303
3521.525	4348
3523.228	4419
3524.929	4302
3526.631	4277
3528.33	4287
3530.032	4413
3531.733	4261
3533.433	4338
3535.131	4363
3536.83	4327
3538.529	4305
3540.227	4299
3541.925	4292
3543.623	4231
3545.319	4319
3547.016	4253
3548.712	4215
3550.408	4264
3552.103	4212
3553.798	4274
3555.491	4213
3557.188	4226
3558.88	4283
3560.574	4191
3562.266	4304
3563.959	4183
3565.651	4218
3567.343	4198
3569.035	4193
3570.725	4103
3572.415	4190
3574.106	4190
3575.797	4171
3577.485	4151
3579.174	4181
3580.863	4162
3582.551	4087
3584.238	4162
3585.926	4246
3587.613	4141
3589.3	4165
3590.986	4141
3592.671	4009
3594.357	4045
3596.042	4203
3597.726	4154
3599.41	4088
3601.094	4089
3602.778	3974
3604.461	4037
3606.143	4134
3607.825	4051
3609.507	3974
3611.188	4015
3612.87	4031
3614.551	4069
3616.229	4056
3617.909	4028
3619.589	3997
3621.269	4055
3622.948	3957
3624.625	3944
3626.302	4020
3627.98	3943
3629.657	3958
3631.334	4024
3633.01	3926
3634.686	3920
3636.361	3920
3638.036	3961
3639.712	3881
3641.385	3945
3643.06	3886
3644.732	3923
3646.405	3894
3648.08	3864
3649.751	3899
3651.424	3907
3653.094	3957
3654.766	3854
3656.436	3845
3658.106	3874
3659.777	3897
3661.446	3876
3663.115	3905
3664.783	3850
3666.452	3920
3668.121	3836
3669.788	3888
3671.454	3857
3673.121	3854
3674.789	3835
3676.455	3850
3678.12	3847
3679.784	3829
3681.45	3884
3683.114	3771
3684.779	3825
3686.442	3759
3688.105	3744
3689.768	3834
3691.43	3867
3693.093	3729
3694.754	3825
3696.415	3786
3698.076	3827
3699.736	3777
3701.396	3746
3703.057	3782
3704.716	3815
3706.375	3777
3708.034	3778
3709.692	3778
3711.351	3799
3713.008	3718
3714.665	3739
3716.321	3700
3717.977	3802
3719.634	3703
3721.29	3733
3722.945	3689
3724.598	3646
3726.253	3695
3727.907	3782
3729.561	3772
3731.214	3696
3732.867	3691
3734.518	3771
3736.171	3722
3737.824	3726
3739.474	3717
3741.125	3687
3742.775	3787
3744.425	3748
3746.074	3711
3747.725	3757
3749.373	3693
3751.022	3689
3752.669	3667
3754.318	3663
3755.966	3595
3757.612	3679
3759.259	3722
3760.905	3639
3762.55	3596
3764.197	3683
3765.842	3710
3767.486	3577
3769.131	3600
3770.774	3606
3772.417	3621
3774.061	3708
3775.705	3663
3777.347	3643
3778.988	3591
3780.629	3620
3782.271	3583
3783.912	3591
3785.552	3630
3787.192	3585
3788.831	3616
3790.472	3624
3792.112	3615
3793.75	3551
3795.388	3562
3797.024	3594
3798.661	3528
3800.3	3541
3801.936	3493
3803.572	3521
3805.208	3549
3806.844	3545
3808.48	3491
3810.115	3560
3811.748	3531
3813.382	3610
3815.016	3511
3816.649	3469
3818.283	3532
3819.914	3557
3821.547	3551
3823.178	3539
3824.809	3578
3826.441	3480
3828.072	3497
3829.701	3494
3831.331	3535
3832.96	3483
3834.591	3569
3836.219	3433
3837.847	3472
3839.475	3425
3841.102	3513
3842.729	3476
3844.357	3414
3845.984	3487
3847.609	3472
3849.234	3427
3850.86	3452
3852.485	3537
3854.11	3427
3855.734	3488
3857.357	3442
3858.981	3395
3860.603	3375
3862.227	3577
3863.848	3437
3865.471	3380
3867.092	3403
3868.713	3494
3870.334	3432
3871.954	3385
3873.575	3380
3875.194	3397
3876.813	3509
3878.433	3386
3880.051	3395
3881.669	3437
3883.286	3358
3884.904	3387
3886.52	3429
3888.138	3357
3889.754	3411
3891.37	3338
3892.985	3368
3894.6	3310
3896.216	3449
3897.831	3367
3899.444	3286
3901.058	3429
3902.67	3401
3904.283	3428
3905.897	3333
3907.509	3389
3909.121	3380
3910.731	3334
3912.342	3362
3913.954	3291
3915.563	3323
3917.174	3361
3918.783	3433
3920.391	3339
3922.002	3263
3923.611	3351
3925.218	3324
3926.826	3341
3928.432	3320
3930.039	3385
3931.647	3296
3933.253	3361
3934.859	3258
3936.464	3325
3938.068	3339
3939.675	3333
3941.278	3278
3942.883	3302
3944.486	3325
3946.089	3316
3947.692	3346
3949.295	3298
3950.898	3318
3952.499	3296
3954.1	3201
3955.7	3322
3957.303	3256
3958.903	3256
3960.502	3257
3962.101	3166
3963.7	3268
3965.301	3263
3966.899	3300
3968.497	3223
3970.094	3291
3971.691	3233
3973.288	3196
3974.885	3289
3976.481	3223
3978.077	3233
3979.672	3249
3981.267	3212
3982.863	3219
3984.457	3275
3986.051	3169
3987.645	3203
3989.238	3222
3990.831	3231
3992.425	3184
3994.017	3154
3995.607	3167
3997.199	3226
3998.79	3185
4000.382	3216
4001.973	3178
4003.561	3178
4005.151	3072
4006.741	3179
4008.331	3135
4009.918	3152
4011.507	3200
4013.095	3136
4014.681	3164
4016.269	3118
4017.856	3214
4019.443	3121
4021.028	3113
4022.614	3036
4024.199	3094
4025.785	3126
4027.37	3073
4028.953	3084
4030.536	3054
4032.12	3055
4033.704	3092
4035.287	3063
4036.869	3084
4038.45	3038
4040.032	3114
4041.613	3091
4043.195	3033
4044.776	3020
4046.356	3001
4047.935	3048
4049.515	3056
4051.095	3025
4052.674	3055
4054.251	3070
4055.829	2977
4057.406	2990
4058.985	3035
4060.562	3102
4062.139	3052
4063.715	3019
4065.29	3060
4066.865	3033
4068.442	3042
4070.016	3046
4071.59	3006
4073.164	3012
4074.738	2988
4076.312	2974
4077.885	2965
4079.458	3026
4081.03	2931
4082.602	3011
4084.173	2964
4085.745	2967
4087.315	2950
4088.886	2970
4090.456	2954
4092.026	3040
4093.596	2926
4095.165	3046
4096.734	2934
4098.301	2904
4099.869	3028
4101.437	3009
4103.006	2986
4104.572	2967
4106.139	2891
4107.704	2962
4109.27	2956
4110.837	2922
4112.401	2881
4113.966	2959
4115.53	2931
4117.094	2961
4118.659	2949
4120.223	2886
4121.785	2935
4123.347	2843
4124.909	2906
4126.471	2915
4128.034	2907
4129.595	2873
4131.155	2859
4132.716	2933
4134.275	2833
4135.836	2910
4137.395	2889
4138.955	2843
4140.513	2894
4142.071	2927
4143.628	2840
4145.188	2876
4146.745	2836
4148.302	2776
4149.858	2841
4151.414	2859
4152.971	2773
4154.526	2806
4156.081	2829
4157.635	2911
4159.189	2855
4160.745	2778
4162.298	2838
4163.852	2814
4165.405	2765
4166.957	2821
4168.51	2782
4170.063	2755
4171.614	2820
4173.166	2784
4174.717	2791
4176.267	2743
4177.817	2814
4179.368	2818
4180.917	2738
4182.466	2777
4184.016	2759
4185.564	2741
4187.112	2765
4188.66	2770
4190.207	2839
4191.754	2737
4193.301	2732
4194.848	2757
4196.394	2787
4197.94	2799
4199.484	2724
4201.03	2791
4202.575	2720
4204.12	2776
4205.663	2760
4207.207	2714
4208.75	2693
4210.292	2728
4211.836	2763
4213.378	2682
4214.92	2749
4216.46	2811
4218.002	2707
4219.544	2672
4221.083	2742
4222.625	2711
4224.164	2699
4225.703	2726
4227.244	2720
4228.782	2733
4230.32	2711
4231.857	2663
4233.395	2676
4234.933	2661
4236.471	2678
4238.007	2628
4239.542	2655
4241.078	2689
4242.614	2693
4244.15	2689
4245.685	2665
4247.219	2628
4248.753	2667
4250.287	2621
4251.82	2633
4253.354	2655
4254.887	2671
4256.419	2638
4257.951	2583
4259.483	2649
4261.016	2678
4262.547	2639
4264.078	2653
4265.608	2647
4267.137	2654
4268.668	2713
4270.197	2608
4271.727	2581
4273.254	2634
4274.783	2620
4276.311	2658
4277.84	2622
4279.366	2581
4280.894	2626
4282.42	2621
4283.946	2553
4285.473	2571
4286.998	2587
4288.523	2525
4290.047	2678
4291.572	2575
4293.096	2602
4294.622	2537
4296.144	2619
4297.668	2567
4299.19	2620
4300.713	2597
4302.236	2585
4303.758	2582
4305.279	2562
4306.799	2599
4308.321	2548
4309.842	2554
4311.361	2573
4312.882	2545
4314.401	2581
