400.0961	7449
402.6185	7363
405.1424	7566
407.6635	7569
410.1838	7652
412.7035	7566
415.2225	7685
417.7388	7600
420.2585	7753
422.7754	7933
425.2917	7857
427.8072	7954
430.3221	7866
432.8363	7869
435.3498	7995
437.8626	8172
440.3727	7950
442.8841	7959
445.3969	7944
447.907	8143
450.4142	8111
452.9229	8036
455.4289	8087
457.9362	8075
460.4449	8120
462.9488	8123
465.454	8185
467.9566	7963
470.4604	8239
472.9637	8011
475.4662	8161
477.966	8185
480.4671	8080
482.9656	8170
485.4633	8161
487.9645	8273
490.4608	8244
492.9566	8389
495.4536	8279
497.948	8266
500.4437	8459
502.9387	8320
505.431	8381
507.9226	8339
510.4136	8388
512.9079	8430
515.3975	8511
517.8864	8542
520.3746	8460
522.8622	8501
525.3491	8545
527.8394	8402
530.3249	8475
532.8098	8468
535.2939	8484
537.7774	8422
540.2623	8607
542.7444	8427
545.2259	8421
547.7067	8528
550.1868	8701
552.6683	8681
555.147	8422
557.6231	8426
560.1005	8637
562.5773	8610
565.0534	8507
567.5308	8673
570.0056	8687
572.4776	8707
574.951	8725
577.4237	8764
579.8978	8677
582.3671	8780
584.8378	8858
587.3079	8984
589.7773	8835
592.244	8894
594.714	8895
597.1793	8803
599.6461	8828
602.1121	8607
604.5754	8726
607.0421	8873
609.5042	8914
611.9675	8882
614.4282	8842
616.8902	8818
619.3515	8828
621.8122	8852
624.2702	8803
626.7296	8751
629.1863	8685
631.6423	8891
634.1017	8848
636.5563	8774
639.0104	8916
641.4658	8781
643.9185	8814
646.3725	8859
648.8239	8980
651.2766	8911
653.7266	8925
656.176	8913
658.6247	8969
661.0748	8994
663.5242	8872
665.9709	9079
668.417	8966
670.8624	9164
673.3092	8974
675.7533	9014
678.1968	9348
680.6395	9094
683.0817	9012
685.5251	9265
687.9659	8993
690.4061	9185
692.8456	9161
695.2844	9157
697.7226	9306
700.1621	9327
702.599	9251
705.0332	9243
707.4688	9183
709.9036	9314
712.3399	9177
714.7735	9391
717.2044	9285
719.6367	9410
722.0683	9316
724.4993	9344
726.9296	9420
729.3593	9536
731.7883	9466
734.2147	9618
736.6423	9416
739.0714	9544
741.4958	9610
743.9216	9522
746.3447	9453
748.7691	9746
751.1929	9812
753.616	9744
756.0366	9670
758.4584	9871
760.8776	9885
763.2982	9707
765.718	9761
768.1373	9757
770.5539	9836
772.9698	9778
775.3871	9795
777.8038	9847
780.2178	9737
782.6332	9807
785.0459	9868
787.458	9841
789.8714	9973
792.2842	9761
794.6943	9831
797.1038	9879
799.5127	9924
801.9209	9847
804.3324	9821
806.7393	10028
809.1456	10034
811.5513	10034
813.9562	9963
816.3625	9947
818.7663	9955
821.1693	9969
823.5718	9877
825.9735	9932
828.3746	10000
830.7771	10058
833.177	9973
835.5762	9933
837.9747	10130
840.3727	9900
842.772	9939
845.1666	10096
847.5626	10148
849.958	10110
852.3527	10051
854.7488	10207
857.1403	10075
859.5331	10348
861.9253	10099
864.3168	10064
866.7057	10192
869.098	10151
871.4876	10065
873.8746	10141
876.263	10002
878.6487	10190
881.0378	9922
883.4243	10215
885.8081	9969
888.1933	10116
890.5759	10081
892.9598	10004
895.343	10008
897.7256	10225
900.1057	10035
902.4871	10247
904.8659	10234
907.246	10234
909.6254	10306
912.0023	10224
914.3786	10257
916.7562	10406
919.1331	10528
921.5074	10534
923.8831	10430
926.2562	10614
928.6287	10573
931.0005	10571
933.3757	10562
935.7462	10566
938.1162	10614
940.4855	10773
942.8542	10731
945.2242	10884
947.5916	10907
949.9584	11000
952.3266	11397
954.6921	11575
957.0571	11894
959.4233	12055
961.787	12196
964.15	12238
966.5125	11927
968.8742	11611
971.2354	11339
973.5959	11029
975.9559	10761
978.3151	10751
980.6738	10580
983.0338	10618
985.3912	10630
987.7461	10475
990.1022	10455
992.4578	10393
994.8127	10606
997.1689	10502
999.5207	10563
1001.874	10590
1004.226	10460
1006.576	10509
1008.929	10646
1011.28	10574
1013.628	10594
1015.977	10438
1018.324	10497
1020.674	10643
1023.019	10668
1025.366	10626
1027.713	10507
1030.056	10680
1032.399	10805
1034.746	10662
1037.087	10673
1039.431	10599
1041.771	10760
1044.113	10639
1046.454	10831
1048.793	10806
1051.133	10806
1053.471	10610
1055.807	10735
1058.146	10526
1060.483	10737
1062.818	10834
1065.153	10650
1067.489	10906
1069.822	10785
1072.156	10858
1074.488	10737
1076.82	10884
1079.15	10728
1081.48	10955
1083.814	10859
1086.143	10728
1088.471	10812
1090.799	10798
1093.126	10653
1095.452	10794
1097.78	10752
1100.105	10751
1102.43	10594
1104.754	10837
1107.077	10809
1109.4	10777
1111.722	10549
1114.044	10798
1116.365	10854
1118.685	10808
1121.005	10775
1123.324	10819
1125.643	10902
1127.961	10986
1130.278	10798
1132.595	10837
1134.911	10723
1137.226	10802
1139.541	10846
1141.854	10803
1144.167	10768
1146.482	10816
1148.793	10835
1151.105	11043
1153.414	10842
1155.725	11002
1158.033	10912
1160.344	10854
1162.651	10942
1164.959	10795
1167.265	10980
1169.572	10919
1171.878	10787
1174.184	10768
1176.488	10867
1178.79	10923
1181.094	11023
1183.396	11066
1185.699	10877
1188.001	10858
1190.301	10946
1192.6	10889
1194.9	10832
1197.2	10764
1199.497	10908
1201.794	10935
1204.09	10784
1206.387	10914
1208.684	10809
1210.978	10753
1213.272	10910
1215.565	10772
1217.858	10874
1220.15	10892
1222.443	10846
1224.734	10939
1227.024	10894
1229.313	10917
1231.602	11056
1233.892	11039
1236.18	11199
1238.467	11181
1240.754	11059
1243.04	11245
1245.325	11273
1247.612	11167
1249.896	11184
1252.178	11271
1254.461	11248
1256.743	11150
1259.027	11234
1261.308	11306
1263.587	11138
1265.867	11221
1268.146	11158
1270.425	11312
1272.703	11240
1274.981	11307
1277.256	11273
1279.532	11245
1281.808	11118
1284.083	11162
1286.358	11234
1288.63	11022
1290.904	11110
1293.175	10954
1295.449	11209
1297.719	11151
1299.99	11083
1302.259	11110
1304.529	11044
1306.798	11093
1309.065	11017
1311.333	10874
1313.599	11114
1315.866	11097
1318.131	11095
1320.396	11123
1322.66	10987
1324.925	11126
1327.187	11203
1329.448	11252
1331.711	11107
1333.974	11214
1336.234	11043
1338.493	11180
1340.752	11057
1343.01	10992
1345.269	11044
1347.526	11210
1349.784	11242
1352.04	11065
1354.295	11088
1356.552	11143
1358.806	10980
1361.059	11121
1363.312	11177
1365.564	11113
1367.818	11157
1370.069	11277
1372.318	11153
1374.568	11103
1376.817	11318
1379.066	11155
1381.316	11232
1383.564	11167
1385.809	11202
1388.056	11293
1390.301	11154
1392.549	11439
1394.793	11477
1397.036	11231
1399.279	11256
1401.522	11319
1403.763	11418
1406.007	11368
1408.248	11325
1410.487	11365
1412.727	11525
1414.965	11546
1417.205	11470
1419.442	11429
1421.68	11283
1423.915	11340
1426.152	11189
1428.388	11548
1430.623	11495
1432.857	11349
1435.091	11377
1437.323	11469
1439.556	11586
1441.789	11554
1444.019	11530
1446.25	11438
1448.48	11711
1450.708	11580
1452.938	11645
1455.167	11697
1457.394	11572
1459.62	11596
1461.846	11559
1464.073	11479
1466.299	11795
1468.523	11514
1470.746	11395
1472.969	11546
1475.191	11371
1477.415	11534
1479.636	11332
1481.858	11279
1484.078	11289
1486.298	11362
1488.518	11235
1490.736	11201
1492.954	11168
1495.169	11337
1497.386	11163
1499.602	11278
1501.819	11158
1504.034	10912
1506.248	11143
1508.462	11165
1510.675	11068
1512.888	11128
1515.1	11097
1517.311	11132
1519.522	11087
1521.732	11047
1523.942	11063
1526.151	11245
1528.36	11093
1530.566	11168
1532.773	11176
1534.98	11138
1537.187	11186
1539.392	11096
1541.596	11327
1543.801	11204
1546.005	11308
1548.208	11138
1550.411	11266
1552.612	11202
1554.814	11334
1557.013	11246
1559.212	11345
1561.414	11447
1563.612	11464
1565.811	11338
1568.007	11277
1570.203	11407
1572.403	11415
1574.598	11549
1576.792	11438
1578.988	11444
1581.181	11355
1583.376	11378
1585.568	11559
1587.761	11498
1589.952	11410
1592.143	11525
1594.333	11409
1596.524	11487
1598.715	11506
1600.903	11580
1603.091	11315
1605.278	11578
1607.466	11477
1609.652	11545
1611.838	11562
1614.023	11586
1616.207	11588
1618.391	11509
1620.576	11495
1622.759	11445
1624.941	11546
1627.123	11496
1629.304	11615
1631.484	11524
1633.664	11626
1635.844	11622
1638.022	11609
1640.201	11535
1642.38	11534
1644.556	11672
1646.732	11571
1648.908	11697
1651.084	11747
1653.257	11566
1655.433	11573
1657.607	11535
1659.779	11734
1661.951	11679
1664.122	11651
1666.295	11888
1668.467	11675
1670.635	11764
1672.805	11604
1674.973	11694
1677.142	11690
1679.31	11668
1681.478	11623
1683.644	11739
1685.81	11631
1687.975	11655
1690.142	11635
1692.305	11468
1694.468	11612
1696.632	11479
1698.794	11592
1700.957	11500
1703.119	11761
1705.279	11474
1707.439	11586
1709.598	11607
1711.758	11319
1713.917	11452
1716.075	11429
1718.231	11422
1720.388	11525
1722.543	11471
1724.702	11617
1726.856	11388
1729.01	11486
1731.164	11438
1733.317	11420
1735.471	11611
1737.623	11488
1739.774	11348
1741.925	11639
1744.075	11504
1746.225	11535
1748.376	11355
1750.524	11492
1752.672	11408
1754.82	11571
1756.965	11497
1759.113	11598
1761.259	11531
1763.405	11607
1765.549	11394
1767.694	11495
1769.836	11743
1771.981	11484
1774.123	11440
1776.264	11710
1778.405	11639
1780.546	11613
1782.687	11585
1784.827	11490
1786.966	11522
1789.103	11620
1791.242	11635
1793.381	11713
1795.517	11607
1797.653	11665
1799.788	11677
1801.923	11596
1804.057	11643
1806.193	11578
1808.326	11636
1810.457	11519
1812.59	11520
1814.721	11557
1816.855	11534
1818.984	11667
1821.113	11545
1823.244	11538
1825.372	11633
1827.499	11613
1829.63	11486
1831.756	11546
1833.882	11588
1836.007	11537
1838.132	11571
1840.26	11548
1842.384	11381
1844.507	11427
1846.63	11432
1848.752	11359
1850.875	11510
1852.996	11506
1855.118	11457
1857.238	11450
1859.358	11449
1861.477	11398
1863.597	11403
1865.715	11441
1867.832	11477
1869.948	11409
1872.064	11385
1874.181	11395
1876.297	11431
1878.411	11417
1880.526	11449
1882.639	11455
1884.752	11267
1886.865	11527
1888.977	11387
1891.089	11418
1893.2	11587
1895.308	11486
1897.42	11652
1899.53	11457
1901.639	11536
1903.745	11430
1905.853	11550
1907.962	11467
1910.067	11577
1912.174	11618
1914.278	11554
1916.383	11547
1918.486	11519
1920.592	11730
1922.694	11594
1924.797	11568
1926.898	11685
1929	11633
1931.102	11609
1933.203	11503
1935.301	11724
1937.401	11608
1939.499	11564
1941.598	11551
1943.697	11642
1945.793	11553
1947.888	11612
1949.985	11699
1952.08	11637
1954.176	11709
1956.269	11549
1958.364	11478
1960.457	11587
1962.549	11454
1964.642	11389
1966.733	11534
1968.823	11708
1970.913	11418
1973.005	11498
1975.093	11639
1977.184	11544
1979.271	11504
1981.359	11474
1983.446	11413
1985.532	11372
1987.619	11570
1989.705	11405
1991.789	11500
1993.874	11529
1995.956	11377
1998.041	11552
2000.123	11392
2002.206	11402
2004.287	11432
2006.368	11314
2008.449	11443
2010.529	11462
2012.609	11440
2014.688	11297
2016.766	11299
2018.843	11408
2020.922	11332
2022.999	11424
2025.074	11409
2027.15	11441
2029.225	11379
2031.299	11436
2033.375	11535
2035.447	11380
2037.52	11393
2039.592	11520
2041.664	11457
2043.736	11395
2045.807	11447
2047.876	11378
2049.947	11469
2052.015	11482
2054.086	11353
2056.153	11352
2058.221	11554
2060.288	11465
2062.353	11365
2064.42	11364
2066.486	11375
2068.55	11273
2070.614	11472
2072.678	11521
2074.741	11394
2076.805	11457
2078.866	11526
2080.929	11233
2082.99	11444
2085.049	11350
2087.109	11494
2089.17	11445
2091.228	11322
2093.286	11466
2095.344	11588
2097.4	11443
2099.46	11371
2101.516	11371
2103.572	11402
2105.626	11383
2107.679	11572
2109.735	11443
2111.788	11291
2113.841	11324
2115.894	11374
2117.945	11295
2119.997	11371
2122.049	11320
2124.1	11521
2126.148	11398
2128.197	11450
2130.246	11473
2132.296	11299
2134.342	11444
2136.39	11201
2138.437	11276
2140.483	11239
2142.527	11367
2144.574	11329
2146.619	11345
2148.661	11427
2150.705	11226
2152.747	11263
2154.792	11300
2156.832	11245
2158.874	11282
2160.915	11158
2162.954	11130
2164.995	11198
2167.034	11147
2169.072	11104
2171.111	11325
2173.148	11285
2175.186	11024
2177.223	11260
2179.258	11238
2181.294	11277
2183.328	11205
2185.362	11157
2187.398	11037
2189.431	11252
2191.463	11235
2193.495	11081
2195.528	11158
2197.56	11143
2199.59	11146
2201.62	11099
2203.649	10974
2205.678	10937
2207.708	11028
2209.737	11086
2211.764	11105
2213.791	10902
2215.817	10988
2217.843	10955
2219.87	11044
2221.895	10994
2223.919	10987
2225.942	10924
2227.966	11012
2229.988	10982
2232.012	10988
2234.032	10978
2236.054	10911
2238.074	10878
2240.095	10978
2242.116	11008
2244.135	11036
2246.153	10895
2248.171	11022
2250.188	10978
2252.208	11010
2254.223	10902
2256.239	10965
2258.255	10867
2260.269	11090
2262.283	10983
2264.3	10900
2266.312	10813
2268.325	11060
2270.336	10863
2272.349	10977
2274.362	11030
2276.372	10938
2278.383	10998
2280.392	10907
2282.402	10972
2284.409	10844
2286.418	10922
2288.427	11028
2290.433	10911
2292.441	10979
2294.446	10825
2296.453	10993
2298.459	10881
2300.463	10988
2302.466	10805
2304.471	10935
2306.475	10705
2308.477	10906
2310.478	10881
2312.481	10980
2314.481	10899
2316.481	10881
2318.482	10937
2320.482	10772
2322.48	10727
2324.48	10907
2326.478	10883
2328.476	10797
2330.473	10767
2332.469	10759
2334.465	10969
2336.46	10796
2338.454	10667
2340.45	10705
2342.444	10559
2344.437	10609
2346.43	10775
2348.421	10613
2350.414	10741
2352.405	10601
2354.396	10767
2356.386	10670
2358.376	10711
2360.366	10560
2362.355	10633
2364.343	10601
2366.331	10738
2368.317	10730
2370.304	10400
2372.292	10679
2374.278	10638
2376.262	10626
2378.247	10547
2380.23	10599
2382.216	10767
2384.199	10425
2386.181	10637
2388.163	10587
2390.144	10637
2392.127	10502
2394.107	10370
2396.087	10382
2398.066	10432
2400.046	10546
2402.023	10424
2404.004	10530
2405.981	10373
2407.957	10506
2409.934	10485
2411.91	10548
2413.886	10519
2415.862	10564
2417.836	10475
2419.809	10489
2421.784	10540
2423.756	10365
2425.73	10391
2427.701	10444
2429.672	10551
2431.644	10380
2433.615	10439
2435.586	10419
2437.555	10444
2439.523	10394
2441.491	10419
2443.459	10339
2445.428	10534
2447.395	10310
2449.361	10443
2451.327	10494
2453.292	10455
2455.257	10439
2457.223	10235
2459.187	10405
2461.15	10479
2463.113	10416
2465.076	10336
2467.039	10425
2468.999	10354
2470.96	10379
2472.921	10289
2474.881	10414
2476.841	10300
2478.8	10374
2480.759	10220
2482.717	10130
2484.675	10408
2486.63	10294
2488.589	10236
2490.545	10258
2492.5	10248
2494.455	10259
2496.408	10270
2498.364	10405
2500.318	10310
2502.27	10058
2504.223	10334
2506.174	10200
2508.126	10160
2510.078	10337
2512.03	10197
2513.979	10172
2515.927	10227
2517.877	10335
2519.826	10116
2521.775	10163
2523.722	10334
2525.668	10055
2527.616	10193
2529.561	10103
2531.508	10217
2533.452	10077
2535.398	10246
2537.342	9866
2539.284	10084
2541.229	10145
2543.173	10122
2545.114	10049
2547.055	10063
2548.996	10126
2550.938	10110
2552.878	10161
2554.817	10221
2556.756	10254
2558.695	10070
2560.633	10068
2562.572	10087
2564.509	10021
2566.445	10015
2568.382	9967
2570.317	10057
2572.254	10052
2574.189	10262
2576.123	10155
2578.057	10231
2579.99	10033
2581.923	10079
2583.855	10079
2585.788	10167
2587.719	10065
2589.65	10199
2591.579	9916
2593.511	10202
2595.44	10081
2597.37	10077
2599.297	9997
2601.225	10089
2603.153	10014
2605.08	10059
2607.007	10136
2608.932	10132
2610.858	10097
2612.782	10023
2614.709	10152
2616.632	10197
2618.556	10169
2620.478	10054
2622.401	10070
2624.324	9973
2626.247	10094
2628.167	10179
2630.088	10124
2632.008	10196
2633.928	10074
2635.848	10169
2637.766	10044
2639.684	10034
2641.603	10134
2643.519	10059
2645.437	9914
2647.353	10072
2649.27	10046
2651.184	10108
2653.099	10114
2655.014	9989
2656.928	10117
2658.842	10081
2660.755	10093
2662.667	10044
2664.579	10151
2666.491	10070
2668.402	10037
2670.312	10035
2672.222	9871
2674.132	10031
2676.042	9938
2677.951	10010
2679.859	10000
2681.766	9899
2683.674	10002
2685.582	9811
2687.488	9912
2689.392	9863
2691.298	9861
2693.202	9854
2695.107	9975
2697.012	9959
2698.914	9899
2700.817	9871
2702.72	9903
2704.622	9769
2706.524	9903
2708.425	9802
2710.326	9849
2712.225	9694
2714.125	9974
2716.024	9962
2717.923	9718
2719.822	9865
2721.719	9844
2723.616	9857
2725.512	9753
2727.41	9831
2729.305	10043
2731.201	9612
2733.095	9923
2734.99	9777
2736.884	9700
2738.778	9955
2740.67	9792
2742.562	9719
2744.455	9682
2746.346	9745
2748.238	9786
2750.129	9666
2752.018	9818
2753.907	9687
2755.797	9666
2757.687	9634
2759.575	9722
2761.462	9593
2763.349	9744
2765.237	9707
2767.124	9746
2769.009	9773
2770.894	9775
2772.779	9561
2774.663	9618
2776.547	9691
2778.431	9607
2780.314	9688
2782.197	9822
2784.078	9576
2785.96	9655
2787.842	9524
2789.723	9620
2791.603	9542
2793.483	9598
2795.362	9550
2797.241	9646
2799.121	9575
2800.997	9576
2802.874	9492
2804.751	9518
2806.628	9524
2808.506	9591
2810.38	9584
2812.255	9507
2814.13	9554
2816.003	9571
2817.878	9386
2819.752	9514
2821.623	9546
2823.496	9580
2825.368	9709
2827.238	9451
2829.111	9456
2830.98	9445
2832.851	9580
2834.719	9385
2836.589	9530
2838.458	9562
2840.327	9473
2842.193	9551
2844.061	9691
2845.927	9522
2847.794	9519
2849.66	9642
2851.525	9572
2853.39	9620
2855.254	9686
2857.117	9495
2858.983	9519
2860.845	9714
2862.707	9600
2864.569	9651
2866.431	9727
2868.293	9553
2870.154	9709
2872.013	9737
2873.873	9717
2875.733	9801
2877.592	9886
2879.451	9772
2881.309	9892
2883.166	10001
2885.022	9988
2886.879	10054
2888.736	9864
2890.591	9980
2892.446	10061
2894.301	10057
2896.155	9896
2898.009	10033
2899.863	10077
2901.716	9942
2903.568	9872
2905.419	9825
2907.27	9991
2909.123	9897
2910.973	9913
2912.824	10020
2914.673	10082
2916.521	10067
2918.372	10126
2920.22	10079
2922.067	10294
2923.914	10211
2925.761	10327
2927.607	10324
2929.455	10310
2931.301	10465
2933.144	10401
2934.99	10324
2936.833	10537
2938.678	10570
2940.522	10670
2942.364	10488
2944.207	10613
2946.048	10617
2947.891	10746
2949.731	10722
2951.571	10703
2953.412	10708
2955.25	10544
2957.09	10499
2958.93	10462
2960.767	10513
2962.606	10418
2964.443	10364
2966.279	10472
2968.116	10332
2969.953	10300
2971.788	10154
2973.623	10024
2975.457	10009
2977.292	9813
2979.127	10016
2980.959	9797
2982.792	9826
2984.624	9817
2986.455	9826
2988.288	9803
2990.119	9710
2991.949	9646
2993.779	9560
2995.608	9706
2997.439	9605
2999.268	9646
3001.096	9343
3002.923	9401
3004.751	9363
3006.578	9325
3008.406	9321
3010.232	9182
3012.057	9199
3013.883	9127
3015.706	9112
3017.532	9213
3019.356	9055
3021.179	9097
3023.002	9028
3024.823	8959
3026.646	8952
3028.469	8968
3030.289	8933
3032.11	8988
3033.93	8815
3035.749	8954
3037.57	8936
3039.39	8864
3041.207	8849
3043.026	8842
3044.842	8913
3046.661	8829
3048.477	8963
3050.294	8800
3052.109	8881
3053.925	8734
3055.739	8701
3057.555	8788
3059.368	8699
3061.181	8856
3062.995	8557
3064.807	8898
3066.62	8622
3068.433	8797
3070.243	8710
3072.054	8544
3073.865	8738
3075.675	8818
3077.485	8747
3079.293	8573
3081.102	8770
3082.911	8603
3084.719	8586
3086.527	8483
3088.333	8636
3090.139	8636
3091.945	8567
3093.75	8547
3095.557	8501
3097.361	8453
3099.165	8517
3100.969	8479
3102.772	8539
3104.575	8428
3106.379	8392
3108.181	8450
3109.982	8374
3111.783	8429
3113.584	8543
3115.386	8451
3117.186	8465
3118.985	8372
3120.783	8512
3122.582	8509
3124.381	8346
3126.179	8490
3127.975	8325
3129.772	8281
3131.569	8417
3133.365	8289
3135.161	8416
3136.956	8370
3138.751	8256
3140.544	8266
3142.338	8336
3144.132	8289
3145.925	8214
3147.717	8318
3149.509	8296
3151.301	8303
3153.091	8263
3154.884	8218
3156.673	8157
3158.462	8168
3160.252	8206
3162.041	8194
3163.831	8134
3165.618	8324
3167.405	8328
3169.193	8209
3170.979	8150
3172.767	8085
3174.553	8135
3176.338	8219
3178.123	8099
3179.907	8170
3181.692	8162
3183.477	8108
3185.259	8196
3187.042	8059
3188.824	8086
3190.607	8092
3192.389	8008
3194.17	8174
3195.951	8069
3197.73	8006
3199.51	8077
3201.289	8083
3203.07	8234
3204.848	8049
3206.626	8033
3208.403	8197
3210.18	8048
3211.959	7966
3213.735	8072
3215.511	8007
3217.285	7944
3219.06	7960
3220.836	8121
3222.611	8067
3224.384	7984
3226.158	8073
3227.929	8020
3229.702	7910
3231.476	7980
3233.248	8009
3235.018	8038
3236.789	7961
3238.56	8136
3240.33	7933
3242.1	7925
3243.869	7868
3245.637	8016
3247.405	7906
3249.172	8029
3250.941	8003
3252.707	8037
3254.474	7970
3256.24	8088
3258.006	7883
3259.772	7949
3261.537	7944
3263.301	8124
3265.065	7873
3266.828	7946
3268.592	7918
3270.355	8072
3272.117	7904
3273.878	7972
3275.64	7849
3277.401	7939
3279.162	7860
3280.922	7946
3282.682	7837
3284.441	8061
3286.199	7896
3287.959	8025
3289.716	7797
3291.475	7923
3293.232	7968
3294.988	7990
3296.744	8013
3298.501	7962
3300.256	7847
3302.011	7813
3303.766	7956
3305.52	7850
3307.275	7946
3309.028	7789
3310.781	7838
3312.533	7864
3314.285	7904
3316.038	7950
3317.789	7908
3319.54	7840
3321.289	7896
3323.039	7791
3324.789	7885
3326.539	7824
3328.288	7776
3330.035	7888
3331.783	7794
3333.531	7844
3335.28	7945
3337.025	7782
3338.771	7716
3340.518	7772
3342.262	7791
3344.009	7713
3345.753	7848
3347.497	7818
3349.24	7604
3350.983	7694
3352.726	7734
3354.469	7665
3356.212	7623
3357.952	7553
3359.694	7735
3361.434	7653
3363.176	7579
3364.916	7598
3366.654	7722
3368.394	7558
3370.132	7679
3371.871	7693
3373.61	7563
3375.346	7615
3377.083	7548
3378.82	7563
3380.556	7538
3382.292	7657
3384.027	7491
3385.763	7578
3387.497	7512
3389.231	7660
3390.965	7483
3392.698	7625
3394.431	7270
3396.164	7520
3397.896	7443
3399.627	7484
3401.36	7472
3403.09	7642
3404.82	7590
3406.55	7540
3408.279	7371
3410.01	7396
3411.738	7579
3413.467	7432
3415.194	7384
3416.92	7457
3418.647	7544
3420.375	7267
3422.102	7512
3423.827	7422
3425.553	7395
3427.277	7459
3429.003	7424
3430.727	7361
3432.451	7416
3434.173	7318
3435.896	7318
3437.62	7362
3439.343	7494
3441.063	7330
3442.785	7333
3444.505	7298
3446.226	7202
3447.948	7271
3449.666	7269
3451.386	7287
3453.104	7209
3454.823	7327
3456.541	7232
3458.259	7287
3459.976	7242
3461.693	7299
3463.408	7258
3465.125	7288
3466.841	7130
3468.556	7137
3470.271	7110
3471.985	7122
3473.698	7140
3475.414	7162
3477.126	7206
3478.838	7151
3480.55	7224
3482.263	7075
3483.975	7013
3485.686	7125
3487.396	6958
3489.106	7056
3490.817	7072
3492.526	7072
3494.236	6942
3495.944	6912
3497.652	6967
3499.359	6972
3501.066	6911
3502.775	6965
3504.481	6995
3506.187	6956
3507.893	6918
3509.598	6910
3511.304	6986
3513.009	6975
3514.713	6966
3516.417	6960
3518.12	6860
3519.821	6937
3521.525	6867
3523.228	6860
3524.929	6792
3526.631	6812
3528.33	6866
3530.032	6897
3531.733	6805
3533.433	6849
3535.131	6921
3536.83	6831
3538.529	6926
3540.227	6805
3541.925	6717
3543.623	6876
3545.319	6849
3547.016	6698
3548.712	6855
3550.408	6737
3552.103	6818
3553.798	6839
3555.491	6762
3557.188	6658
3558.88	6694
3560.574	6726
3562.266	6641
3563.959	6837
3565.651	6624
3567.343	6628
3569.035	6719
3570.725	6563
3572.415	6592
3574.106	6605
3575.797	6628
3577.485	6674
3579.174	6717
3580.863	6649
3582.551	6732
3584.238	6633
3585.926	6649
3587.613	6655
3589.3	6555
3590.986	6486
3592.671	6530
3594.357	6509
3596.042	6539
3597.726	6469
3599.41	6501
3601.094	6483
3602.778	6432
3604.461	6389
3606.143	6406
3607.825	6491
3609.507	6448
3611.188	6316
3612.87	6354
3614.551	6378
3616.229	6476
3617.909	6417
3619.589	6383
3621.269	6427
3622.948	6326
3624.625	6295
3626.302	6334
3627.98	6248
3629.657	6333
3631.334	6312
3633.01	6275
3634.686	6296
3636.361	6309
3638.036	6426
3639.712	6275
3641.385	6276
3643.06	6277
3644.732	6301
3646.405	6322
3648.08	6282
3649.751	6165
3651.424	6229
3653.094	6190
3654.766	6298
3656.436	6176
3658.106	6170
3659.777	6095
3661.446	6254
3663.115	6162
3664.783	6270
3666.452	6182
3668.121	6190
3669.788	6121
3671.454	6165
3673.121	6112
3674.789	6075
3676.455	6153
3678.12	6113
3679.784	6073
3681.45	6149
3683.114	6098
3684.779	6170
3686.442	6025
3688.105	6093
3689.768	6134
3691.43	6148
3693.093	5997
3694.754	6034
3696.415	6102
3698.076	6050
3699.736	6097
3701.396	6057
3703.057	6093
3704.716	5973
3706.375	5960
3708.034	6047
3709.692	5921
3711.351	6009
3713.008	6028
3714.665	5993
3716.321	5919
3717.977	5993
3719.634	5973
3721.29	6030
3722.945	6077
3724.598	5951
3726.253	5982
3727.907	5909
3729.561	6047
3731.214	5910
3732.867	5896
3734.518	5923
3736.171	5928
3737.824	5961
3739.474	5909
3741.125	5892
3742.775	5760
3744.425	5942
3746.074	5874
3747.725	5734
3749.373	5853
3751.022	5876
3752.669	5857
3754.318	5994
3755.966	5912
3757.612	5858
3759.259	5776
3760.905	5960
3762.55	5661
3764.197	5901
3765.842	5792
3767.486	5754
3769.131	5717
3770.774	5780
3772.417	5820
3774.061	5673
3775.705	5780
3777.347	5803
3778.988	5721
3780.629	5786
3782.271	5741
3783.912	5769
3785.552	5698
3787.192	5677
3788.831	5688
3790.472	5724
3792.112	5701
3793.75	5674
3795.388	5843
3797.024	5523
3798.661	5491
3800.3	5682
3801.936	5715
3803.572	5704
3805.208	5672
3806.844	5685
3808.48	5606
3810.115	5726
3811.748	5532
3813.382	5712
3815.016	5582
3816.649	5631
3818.283	5556
3819.914	5677
3821.547	5654
3823.178	5615
3824.809	5640
3826.441	5598
3828.072	5563
3829.701	5566
3831.331	5439
3832.96	5592
3834.591	5592
3836.219	5527
3837.847	5446
3839.475	5439
3841.102	5441
3842.729	5571
3844.357	5517
3845.984	5455
3847.609	5550
3849.234	5487
3850.86	5378
3852.485	5447
3854.11	5386
3855.734	5382
3857.357	5417
3858.981	5467
3860.603	5552
3862.227	5495
3863.848	5464
3865.471	5454
3867.092	5412
3868.713	5437
3870.334	5319
3871.954	5348
3873.575	5403
3875.194	5364
3876.813	5429
3878.433	5417
3880.051	5363
3881.669	5304
3883.286	5392
3884.904	5460
3886.52	5398
3888.138	5260
3889.754	5272
3891.37	5342
3892.985	5308
3894.6	5360
3896.216	5360
3897.831	5347
3899.444	5304
3901.058	5335
3902.67	5236
3904.283	5432
3905.897	5383
3907.509	5266
3909.121	5314
3910.731	5351
3912.342	5241
3913.954	5212
3915.563	5338
3917.174	5249
3918.783	5226
3920.391	5327
3922.002	5305
3923.611	5342
3925.218	5279
3926.826	5343
3928.432	5291
3930.039	5257
3931.647	5324
3933.253	5179
3934.859	5286
3936.464	5276
3938.068	5240
3939.675	5264
3941.278	5173
3942.883	5252
3944.486	5173
3946.089	5112
3947.692	5262
3949.295	5223
3950.898	5216
3952.499	5234
3954.1	5157
3955.7	5074
3957.303	5120
3958.903	5168
3960.502	5191
3962.101	5117
3963.7	5122
3965.301	5175
3966.899	5107
3968.497	5031
3970.094	5201
3971.691	5058
3973.288	5092
3974.885	5204
3976.481	5011
3978.077	5025
3979.672	4955
3981.267	5100
3982.863	5016
3984.457	5040
3986.051	5107
3987.645	5051
3989.238	5029
3990.831	4962
3992.425	5024
3994.017	4964
3995.607	5017
3997.199	5021
3998.79	4937
4000.382	4935
4001.973	4989
4003.561	4979
4005.151	4950
4006.741	4946
4008.331	4908
4009.918	4910
4011.507	4861
4013.095	4850
4014.681	4829
4016.269	4814
4017.856	4845
4019.443	4941
4021.028	4870
4022.614	4795
4024.199	4771
4025.785	4850
4027.37	4897
4028.953	4907
4030.536	4911
4032.12	4860
4033.704	4778
4035.287	4836
4036.869	4806
4038.45	4790
4040.032	4692
4041.613	4843
4043.195	4781
4044.776	4768
4046.356	4809
4047.935	4750
4049.515	4724
4051.095	4801
4052.674	4884
4054.251	4712
4055.829	4755
4057.406	4729
4058.985	4688
4060.562	4773
4062.139	4766
4063.715	4786
4065.29	4707
4066.865	4703
4068.442	4775
4070.016	4723
4071.59	4644
4073.164	4647
4074.738	4721
4076.312	4781
4077.885	4661
4079.458	4700
4081.03	4660
4082.602	4667
4084.173	4689
4085.745	4737
4087.315	4578
4088.886	4713
4090.456	4596
4092.026	4662
4093.596	4561
4095.165	4730
4096.734	4575
4098.301	4611
4099.869	4605
4101.437	4623
4103.006	4593
4104.572	4558
4106.139	4491
4107.704	4556
4109.27	4564
4110.837	4593
4112.401	4621
4113.966	4543
4115.53	4564
4117.094	4581
4118.659	4565
4120.223	4466
4121.785	4549
4123.347	4560
4124.909	4526
4126.471	4552
4128.034	4554
4129.595	4492
4131.155	4524
4132.716	4631
4134.275	4521
4135.836	4524
4137.395	4422
4138.955	4509
4140.513	4486
4142.071	4404
4143.628	4454
4145.188	4406
4146.745	4474
4148.302	4465
4149.858	4380
4151.414	4391
4152.971	4379
4154.526	4412
4156.081	4388
4157.635	4322
4159.189	4365
4160.745	4386
4162.298	4371
4163.852	4399
4165.405	4372
4166.957	4348
4168.51	4395
4170.063	4325
4171.614	4395
4173.166	4294
4174.717	4296
4176.267	4277
4177.817	4276
4179.368	4332
4180.917	4278
4182.466	4259
4184.016	4330
4185.564	4283
4187.112	4291
4188.66	4315
4190.207	4307
4191.754	4227
4193.301	4197
4194.848	4230
4196.394	4225
4197.94	4275
4199.484	4160
4201.03	4200
4202.575	4146
4204.12	4266
4205.663	4276
4207.207	4178
4208.75	4252
4210.292	4216
4211.836	4147
4213.378	4246
4214.92	4220
4216.46	4230
4218.002	4196
4219.544	4172
4221.083	4210
4222.625	4170
4224.164	4171
4225.703	4180
4227.244	4163
4228.782	4118
4230.32	4226
4231.857	4225
4233.395	4144
4234.933	4185
4236.471	4126
4238.007	4121
4239.542	4195
4241.078	4207
4242.614	4130
4244.15	4111
4245.685	4109
4247.219	4191
4248.753	4053
4250.287	4093
4251.82	4202
4253.354	4139
4254.887	4139
4256.419	4081
4257.951	4097
4259.483	4030
4261.016	4092
4262.547	4042
4264.078	4088
4265.608	4036
4267.137	4035
4268.668	4054
4270.197	4138
4271.727	4108
4273.254	4060
4274.783	4040
4276.311	4135
4277.84	4076
4279.366	4126
4280.894	4018
4282.42	3995
4283.946	4057
4285.473	4050
4286.998	3992
4288.523	4056
4290.047	3970
4291.572	4047
4293.096	3977
4294.622	3959
4296.144	3914
4297.668	3949
4299.19	3946
4300.713	3970
4302.236	3995
4303.758	3964
4305.279	3877
4306.799	3995
4308.321	3954
4309.842	3887
4311.361	3913
4312.882	3917
4314.401	3898
