400.0961	4007
402.6185	4093
405.1424	3988
407.6635	4028
410.1838	4107
412.7035	4056
415.2225	4029
417.7388	4060
420.2585	4083
422.7754	4052
425.2917	4158
427.8072	4167
430.3221	4208
432.8363	4216
435.3498	4208
437.8626	4176
440.3727	4251
442.8841	4285
445.3969	4249
447.907	4150
450.4142	4123
452.9229	4200
455.4289	4184
457.9362	4179
460.4449	4194
462.9488	4181
465.454	4167
467.9566	4120
470.4604	4177
472.9637	4210
475.4662	4162
477.966	4226
480.4671	4211
482.9656	4166
485.4633	4262
487.9645	4426
490.4608	4201
492.9566	4348
495.4536	4236
497.948	4297
500.4437	4308
502.9387	4290
505.431	4356
507.9226	4267
510.4136	4282
512.9079	4343
515.3975	4287
517.8864	4296
520.3746	4270
522.8622	4287
525.3491	4312
527.8394	4379
530.3249	4308
532.8098	4434
535.2939	4396
537.7774	4483
540.2623	4420
542.7444	4418
545.2259	4402
547.7067	4323
550.1868	4421
552.6683	4379
555.147	4333
557.6231	4329
560.1005	4382
562.5773	4453
565.0534	4373
567.5308	4429
570.0056	4448
572.4776	4417
574.951	4460
577.4237	4504
579.8978	4556
582.3671	4570
584.8378	4526
587.3079	4590
589.7773	4552
592.244	4467
594.714	4466
597.1793	4576
599.6461	4503
602.1121	4543
604.5754	4505
607.0421	4534
609.5042	4428
611.9675	4537
614.4282	4580
616.8902	4457
619.3515	4590
621.8122	4615
624.2702	4550
626.7296	4500
629.1863	4429
631.6423	4449
634.1017	4471
636.5563	4490
639.0104	4432
641.4658	4534
643.9185	4587
646.3725	4441
648.8239	4520
651.2766	4564
653.7266	4574
656.176	4532
658.6247	4611
661.0748	4631
663.5242	4598
665.9709	4658
668.417	4656
670.8624	4570
673.3092	4608
675.7533	4648
678.1968	4663
680.6395	4682
683.0817	4558
685.5251	4695
687.9659	4651
690.4061	4555
692.8456	4658
695.2844	4703
697.7226	4650
700.1621	4719
702.599	4696
705.0332	4652
707.4688	4701
709.9036	4714
712.3399	4668
714.7735	4719
717.2044	4862
719.6367	4742
722.0683	4718
724.4993	4879
726.9296	4864
729.3593	4824
731.7883	4705
734.2147	4863
736.6423	4832
739.0714	4868
741.4958	4921
743.9216	4791
746.3447	4908
748.7691	4914
751.1929	4847
753.616	4897
756.0366	4868
758.4584	5072
760.8776	4988
763.2982	4970
765.718	4932
768.1373	5062
770.5539	4914
772.9698	4939
775.3871	4904
777.8038	5091
780.2178	4966
782.6332	4946
785.0459	5033
787.458	5081
789.8714	4970
792.2842	5026
794.6943	4939
797.1038	5041
799.5127	5020
801.9209	4999
804.3324	4940
806.7393	5003
809.1456	4969
811.5513	5073
813.9562	5006
816.3625	5099
818.7663	5029
821.1693	5114
823.5718	5051
825.9735	5099
828.3746	5118
830.7771	5088
833.177	5066
835.5762	5051
837.9747	5063
840.3727	5036
842.772	5182
845.1666	5152
847.5626	5187
849.958	5189
852.3527	5224
854.7488	5241
857.1403	5240
859.5331	5352
861.9253	5211
864.3168	5205
866.7057	5186
869.098	5152
871.4876	5245
873.8746	5107
876.263	5305
878.6487	5157
881.0378	5177
883.4243	5241
885.8081	5151
888.1933	5126
890.5759	5142
892.9598	5162
895.343	5134
897.7256	5206
900.1057	5142
902.4871	5255
904.8659	5257
907.246	5334
909.6254	5328
912.0023	5321
914.3786	5458
916.7562	5613
919.1331	5740
921.5074	5726
923.8831	5913
926.2562	5939
928.6287	5729
931.0005	5761
933.3757	5648
935.7462	5568
938.1162	5579
940.4855	5563
942.8542	5586
945.2242	5654
947.5916	5564
949.9584	5687
952.3266	5681
954.6921	5867
957.0571	5962
959.4233	6074
961.787	6326
964.15	6252
966.5125	6025
968.8742	5930
971.2354	5879
973.5959	5720
975.9559	5625
978.3151	5547
980.6738	5660
983.0338	5569
985.3912	5510
987.7461	5343
990.1022	5438
992.4578	5372
994.8127	5344
997.1689	5419
999.5207	5508
1001.874	5444
1004.226	5471
1006.576	5422
1008.929	5504
1011.28	5445
1013.628	5375
1015.977	5306
1018.324	5544
1020.674	5453
1023.019	5384
1025.366	5340
1027.713	5402
1030.056	5451
1032.399	5405
1034.746	5547
1037.087	5413
1039.431	5523
1041.771	5355
1044.113	5455
1046.454	5464
1048.793	5440
1051.133	5409
1053.471	5400
1055.807	5552
1058.146	5484
1060.483	5478
1062.818	5436
1065.153	5581
1067.489	5534
1069.822	5532
1072.156	5497
1074.488	5573
1076.82	5622
1079.15	5589
1081.48	5508
1083.814	5497
1086.143	5508
1088.471	5439
1090.799	5461
1093.126	5384
1095.452	5662
1097.78	5615
1100.105	5348
1102.43	5625
1104.754	5478
1107.077	5426
1109.4	5504
1111.722	5607
1114.044	5452
1116.365	5582
1118.685	5578
1121.005	5628
1123.324	5609
1125.643	5599
1127.961	5688
1130.278	5637
1132.595	5633
1134.911	5585
1137.226	5513
1139.541	5554
1141.854	5480
1144.167	5478
1146.482	5476
1148.793	5617
1151.105	5485
1153.414	5530
1155.725	5479
1158.033	5632
1160.344	5518
1162.651	5599
1164.959	5635
1167.265	5518
1169.572	5534
1171.878	5511
1174.184	5650
1176.488	5635
1178.79	5577
1181.094	5566
1183.396	5652
1185.699	5650
1188.001	5536
1190.301	5647
1192.6	5572
1194.9	5453
1197.2	5513
1199.497	5609
1201.794	5451
1204.09	5577
1206.387	5492
1208.684	5541
1210.978	5567
1213.272	5630
1215.565	5569
1217.858	5626
1220.15	5639
1222.443	5572
1224.734	5603
1227.024	5662
1229.313	5620
1231.602	5688
1233.892	5851
1236.18	5843
1238.467	5764
1240.754	5947
1243.04	5802
1245.325	5913
1247.612	5876
1249.896	5898
1252.178	5864
1254.461	6001
1256.743	5956
1259.027	5982
1261.308	5845
1263.587	5905
1265.867	5913
1268.146	6021
1270.425	6009
1272.703	5903
1274.981	6062
1277.256	6008
1279.532	5981
1281.808	5966
1284.083	5800
1286.358	5763
1288.63	5807
1290.904	5793
1293.175	5721
1295.449	5796
1297.719	5866
1299.99	5773
1302.259	5707
1304.529	5768
1306.798	5783
1309.065	5835
1311.333	5935
1313.599	5900
1315.866	5817
1318.131	5820
1320.396	5758
1322.66	5813
1324.925	5865
1327.187	5846
1329.448	5832
1331.711	5892
1333.974	5969
1336.234	5791
1338.493	5800
1340.752	5892
1343.01	5889
1345.269	5801
1347.526	5748
1349.784	5821
1352.04	5683
1354.295	5727
1356.552	5760
1358.806	5677
1361.059	5839
1363.312	5767
1365.564	5783
1367.818	5857
1370.069	6031
1372.318	5766
1374.568	5892
1376.817	5835
1379.066	5796
1381.316	5911
1383.564	5834
1385.809	5904
1388.056	5879
1390.301	6050
1392.549	6057
1394.793	6212
1397.036	6152
1399.279	6345
1401.522	6350
1403.763	6347
1406.007	6340
1408.248	6253
1410.487	6397
1412.727	6155
1414.965	6249
1417.205	6235
1419.442	6314
1421.68	6157
1423.915	6166
1426.152	6188
1428.388	6152
1430.623	6092
1432.857	6194
1435.091	6160
1437.323	6237
1439.556	6188
1441.789	6256
1444.019	6185
1446.25	6270
1448.48	6283
1450.708	6329
1452.938	6282
1455.167	6361
1457.394	6335
1459.62	6365
1461.846	6435
1464.073	6228
1466.299	6310
1468.523	6135
1470.746	6089
1472.969	6025
1475.191	6010
1477.415	5902
1479.636	5863
1481.858	5802
1484.078	5873
1486.298	5831
1488.518	5678
1490.736	5954
1492.954	5718
1495.169	5783
1497.386	5681
1499.602	5873
1501.819	5833
1504.034	5706
1506.248	5741
1508.462	5798
1510.675	5738
1512.888	5669
1515.1	5789
1517.311	5753
1519.522	5769
1521.732	5720
1523.942	5834
1526.151	5777
1528.36	5620
1530.566	5718
1532.773	5733
1534.98	5804
1537.187	5736
1539.392	5754
1541.596	5773
1543.801	5696
1546.005	5666
1548.208	5805
1550.411	5845
1552.612	5882
1554.814	5817
1557.013	5883
1559.212	5722
1561.414	5947
1563.612	5777
1565.811	5900
1568.007	5879
1570.203	5878
1572.403	5962
1574.598	5902
1576.792	5896
1578.988	5932
1581.181	5914
1583.376	5907
1585.568	5864
1587.761	5909
1589.952	5893
1592.143	6003
1594.333	5901
1596.524	5968
1598.715	5924
1600.903	6011
1603.091	5821
1605.278	5980
1607.466	5977
1609.652	5981
1611.838	5930
1614.023	5951
1616.207	5989
1618.391	5965
1620.576	5990
1622.759	6137
1624.941	5945
1627.123	5994
1629.304	6079
1631.484	6015
1633.664	6047
1635.844	5946
1638.022	6047
1640.201	6069
1642.38	6084
1644.556	6017
1646.732	6108
1648.908	6035
1651.084	6134
1653.257	6022
1655.433	6090
1657.607	6160
1659.779	6226
1661.951	6097
1664.122	6108
1666.295	6232
1668.467	6175
1670.635	6167
1672.805	6105
1674.973	6190
1677.142	6186
1679.31	6172
1681.478	6266
1683.644	6142
1685.81	6041
1687.975	5973
1690.142	6115
1692.305	6014
1694.468	6152
1696.632	6009
1698.794	6137
1700.957	5955
1703.119	6011
1705.279	5984
1707.439	6022
1709.598	5911
1711.758	6150
1713.917	5859
1716.075	5898
1718.231	5861
1720.388	5834
1722.543	5986
1724.702	5910
1726.856	5861
1729.01	5925
1731.164	5801
1733.317	5950
1735.471	5863
1737.623	5840
1739.774	5962
1741.925	5813
1744.075	5832
1746.225	5934
1748.376	5895
1750.524	5883
1752.672	5927
1754.82	5914
1756.965	6055
1759.113	5851
1761.259	5892
1763.405	5782
1765.549	5830
1767.694	5890
1769.836	5919
1771.981	5877
1774.123	6000
1776.264	5752
1778.405	5878
1780.546	6024
1782.687	5911
1784.827	5946
1786.966	5947
1789.103	5902
1791.242	5930
1793.381	5818
1795.517	5936
1797.653	5875
1799.788	5961
1801.923	5946
1804.057	5944
1806.193	5894
1808.326	5976
1810.457	5906
1812.59	5844
1814.721	5994
1816.855	5979
1818.984	5975
1821.113	5909
1823.244	5837
1825.372	5886
1827.499	5823
1829.63	5978
1831.756	5985
1833.882	5965
1836.007	5920
1838.132	5937
1840.26	5982
1842.384	5913
1844.507	5925
1846.63	5860
1848.752	5887
1850.875	5967
1852.996	5894
1855.118	5936
1857.238	5870
1859.358	5849
1861.477	5857
1863.597	5927
1865.715	5899
1867.832	5866
1869.948	5787
1872.064	5987
1874.181	5788
1876.297	5944
1878.411	5886
1880.526	5896
1882.639	5904
1884.752	5881
1886.865	5971
1888.977	5846
1891.089	6002
1893.2	5918
1895.308	5824
1897.42	6015
1899.53	5909
1901.639	5861
1903.745	5926
1905.853	6023
1907.962	5955
1910.067	5836
1912.174	5928
1914.278	6006
1916.383	6001
1918.486	5947
1920.592	5934
1922.694	6012
1924.797	5965
1926.898	5928
1929	6091
1931.102	5991
1933.203	5886
1935.301	5935
1937.401	5932
1939.499	5904
1941.598	6023
1943.697	6021
1945.793	5898
1947.888	6056
1949.985	5941
1952.08	5849
1954.176	6020
1956.269	6003
1958.364	5970
1960.457	5945
1962.549	5953
1964.642	5947
1966.733	5948
1968.823	6013
1970.913	6031
1973.005	5874
1975.093	5842
1977.184	5947
1979.271	5870
1981.359	6009
1983.446	6007
1985.532	6002
1987.619	5914
1989.705	5988
1991.789	5948
1993.874	5926
1995.956	5968
1998.041	5932
2000.123	5943
2002.206	5960
2004.287	5899
2006.368	5928
2008.449	5759
2010.529	5946
2012.609	5889
2014.688	5934
2016.766	5972
2018.843	5877
2020.922	5941
2022.999	5906
2025.074	5850
2027.15	5894
2029.225	5936
2031.299	5949
2033.375	5879
2035.447	5928
2037.52	5903
2039.592	5874
2041.664	5897
2043.736	5864
2045.807	5953
2047.876	5902
2049.947	5914
2052.015	5902
2054.086	5968
2056.153	5751
2058.221	5925
2060.288	5937
2062.353	5908
2064.42	5913
2066.486	5919
2068.55	6021
2070.614	5941
2072.678	6000
2074.741	5966
2076.805	5882
2078.866	5916
2080.929	5888
2082.99	5915
2085.049	5859
2087.109	5918
2089.17	5918
2091.228	5963
2093.286	5990
2095.344	5935
2097.4	5985
2099.46	5959
2101.516	5955
2103.572	6058
2105.626	5855
2107.679	5874
2109.735	5961
2111.788	5859
2113.841	6024
2115.894	5928
2117.945	5927
2119.997	5934
2122.049	5836
2124.1	5822
2126.148	5931
2128.197	5819
2130.246	5857
2132.296	5899
2134.342	5972
2136.39	5856
2138.437	6013
2140.483	5890
2142.527	5916
2144.574	5852
2146.619	5902
2148.661	5836
2150.705	5844
2152.747	5914
2154.792	5774
2156.832	5889
2158.874	5991
2160.915	5855
2162.954	5877
2164.995	5911
2167.034	5888
2169.072	5829
2171.111	5762
2173.148	5852
2175.186	5789
2177.223	5769
2179.258	5935
2181.294	5960
2183.328	5751
2185.362	5885
2187.398	5856
2189.431	5788
2191.463	5750
2193.495	5927
2195.528	5727
2197.56	5800
2199.59	5679
2201.62	5700
2203.649	5842
2205.678	5775
2207.708	5774
2209.737	5756
2211.764	5879
2213.791	5803
2215.817	5750
2217.843	5760
2219.87	5734
2221.895	5851
2223.919	5666
2225.942	5733
2227.966	5844
2229.988	5734
2232.012	5741
2234.032	5775
2236.054	5810
2238.074	5689
2240.095	5804
2242.116	5677
2244.135	5702
2246.153	5712
2248.171	5759
2250.188	5868
2252.208	5716
2254.223	5703
2256.239	5706
2258.255	5815
2260.269	5753
2262.283	5702
2264.3	5756
2266.312	5715
2268.325	5659
2270.336	5823
2272.349	5773
2274.362	5786
2276.372	5771
2278.383	5690
2280.392	5791
2282.402	5743
2284.409	5689
2286.418	5735
2288.427	5743
2290.433	5775
2292.441	5830
2294.446	5727
2296.453	5640
2298.459	5630
2300.463	5620
2302.466	5609
2304.471	5718
2306.475	5616
2308.477	5818
2310.478	5618
2312.481	5652
2314.481	5717
2316.481	5604
2318.482	5701
2320.482	5673
2322.48	5567
2324.48	5640
2326.478	5677
2328.476	5754
2330.473	5671
2332.469	5631
2334.465	5646
2336.46	5746
2338.454	5650
2340.45	5593
2342.444	5601
2344.437	5547
2346.43	5610
2348.421	5646
2350.414	5555
2352.405	5611
2354.396	5693
2356.386	5609
2358.376	5607
2360.366	5674
2362.355	5648
2364.343	5590
2366.331	5585
2368.317	5583
2370.304	5510
2372.292	5601
2374.278	5614
2376.262	5628
2378.247	5653
2380.23	5551
2382.216	5673
2384.199	5601
2386.181	5600
2388.163	5618
2390.144	5553
2392.127	5549
2394.107	5572
2396.087	5645
2398.066	5547
2400.046	5533
2402.023	5560
2404.004	5548
2405.981	5650
2407.957	5632
2409.934	5508
2411.91	5419
2413.886	5533
2415.862	5589
2417.836	5617
2419.809	5524
2421.784	5534
2423.756	5461
2425.73	5566
2427.701	5466
2429.672	5576
2431.644	5534
2433.615	5523
2435.586	5501
2437.555	5536
2439.523	5499
2441.491	5538
2443.459	5454
2445.428	5529
2447.395	5493
2449.361	5495
2451.327	5528
2453.292	5428
2455.257	5538
2457.223	5503
2459.187	5436
2461.15	5470
2463.113	5536
2465.076	5397
2467.039	5497
2468.999	5508
2470.96	5446
2472.921	5439
2474.881	5430
2476.841	5452
2478.8	5396
2480.759	5419
2482.717	5471
2484.675	5457
2486.63	5612
2488.589	5485
2490.545	5432
2492.5	5425
2494.455	5447
2496.408	5476
2498.364	5407
2500.318	5426
2502.27	5503
2504.223	5446
2506.174	5457
2508.126	5388
2510.078	5422
2512.03	5357
2513.979	5450
2515.927	5415
2517.877	5517
2519.826	5443
2521.775	5478
2523.722	5350
2525.668	5494
2527.616	5457
2529.561	5420
2531.508	5394
2533.452	5412
2535.398	5449
2537.342	5443
2539.284	5440
2541.229	5379
2543.173	5448
2545.114	5492
2547.055	5391
2548.996	5478
2550.938	5455
2552.878	5339
2554.817	5401
2556.756	5368
2558.695	5329
2560.633	5275
2562.572	5231
2564.509	5427
2566.445	5350
2568.382	5416
2570.317	5430
2572.254	5420
2574.189	5402
2576.123	5388
2578.057	5499
2579.99	5418
2581.923	5450
2583.855	5418
2585.788	5514
2587.719	5319
2589.65	5384
2591.579	5437
2593.511	5461
2595.44	5467
2597.37	5410
2599.297	5384
2601.225	5304
2603.153	5372
2605.08	5493
2607.007	5389
2608.932	5407
2610.858	5351
2612.782	5442
2614.709	5393
2616.632	5339
2618.556	5422
2620.478	5404
2622.401	5453
2624.324	5341
2626.247	5378
2628.167	5515
2630.088	5463
2632.008	5451
2633.928	5466
2635.848	5359
2637.766	5434
2639.684	5475
2641.603	5349
2643.519	5447
2645.437	5486
2647.353	5434
2649.27	5332
2651.184	5440
2653.099	5495
2655.014	5401
2656.928	5415
2658.842	5410
2660.755	5339
2662.667	5414
2664.579	5351
2666.491	5377
2668.402	5448
2670.312	5429
2672.222	5396
2674.132	5406
2676.042	5298
2677.951	5268
2679.859	5370
2681.766	5418
2683.674	5331
2685.582	5342
2687.488	5348
2689.392	5394
2691.298	5301
2693.202	5463
2695.107	5418
2697.012	5308
2698.914	5375
2700.817	5371
2702.72	5266
2704.622	5416
2706.524	5351
2708.425	5285
2710.326	5332
2712.225	5308
2714.125	5281
2716.024	5400
2717.923	5263
2719.822	5389
2721.719	5294
2723.616	5170
2725.512	5384
2727.41	5361
2729.305	5364
2731.201	5319
2733.095	5274
2734.99	5383
2736.884	5312
2738.778	5277
2740.67	5379
2742.562	5296
2744.455	5357
2746.346	5278
2748.238	5347
2750.129	5245
2752.018	5310
2753.907	5289
2755.797	5328
2757.687	5290
2759.575	5293
2761.462	5316
2763.349	5251
2765.237	5160
2767.124	5376
2769.009	5318
2770.894	5259
2772.779	5355
2774.663	5248
2776.547	5322
2778.431	5298
2780.314	5198
2782.197	5361
2784.078	5287
2785.96	5309
2787.842	5328
2789.723	5309
2791.603	5262
2793.483	5292
2795.362	5317
2797.241	5272
2799.121	5288
2800.997	5307
2802.874	5297
2804.751	5191
2806.628	5318
2808.506	5339
2810.38	5251
2812.255	5328
2814.13	5233
2816.003	5265
2817.878	5205
2819.752	5332
2821.623	5352
2823.496	5283
2825.368	5315
2827.238	5326
2829.111	5313
2830.98	5285
2832.851	5445
2834.719	5353
2836.589	5379
2838.458	5350
2840.327	5326
2842.193	5447
2844.061	5462
2845.927	5427
2847.794	5403
2849.66	5509
2851.525	5441
2853.39	5552
2855.254	5567
2857.117	5561
2858.983	5476
2860.845	5593
2862.707	5575
2864.569	5668
2866.431	5653
2868.293	5732
2870.154	5762
2872.013	5761
2873.873	5878
2875.733	5963
2877.592	5934
2879.451	5987
2881.309	6048
2883.166	6135
2885.022	6241
2886.879	6360
2888.736	6423
2890.591	6443
2892.446	6299
2894.301	6385
2896.155	6524
2898.009	6398
2899.863	6458
2901.716	6277
2903.568	6388
2905.419	6429
2907.27	6415
2909.123	6348
2910.973	6406
2912.824	6429
2914.673	6410
2916.521	6531
2918.372	6625
2920.22	6591
2922.067	6707
2923.914	6748
2925.761	6743
2927.607	6845
2929.455	6898
2931.301	6939
2933.144	6875
2934.99	7054
2936.833	7066
2938.678	7105
2940.522	7120
2942.364	7347
2944.207	7483
2946.048	7634
2947.891	7810
2949.731	7918
2951.571	7780
2953.412	7788
2955.25	7708
2957.09	7701
2958.93	7683
2960.767	7655
2962.606	7498
2964.443	7572
2966.279	7387
2968.116	7147
2969.953	6993
2971.788	6980
2973.623	6777
2975.457	6564
2977.292	6588
2979.127	6484
2980.959	6440
2982.792	6307
2984.624	6183
2986.455	6331
2988.288	6075
2990.119	6138
2991.949	6112
2993.779	6021
2995.608	5968
2997.439	5807
2999.268	5887
3001.096	5740
3002.923	5697
3004.751	5650
3006.578	5774
3008.406	5628
3010.232	5529
3012.057	5446
3013.883	5347
3015.706	5438
3017.532	5363
3019.356	5380
3021.179	5290
3023.002	5263
3024.823	5299
3026.646	5161
3028.469	5186
3030.289	5263
3032.11	5136
3033.93	5162
3035.749	5182
3037.57	5150
3039.39	5109
3041.207	5145
3043.026	5107
3044.842	5088
3046.661	5117
3048.477	5105
3050.294	5031
3052.109	5076
3053.925	5032
3055.739	4987
3057.555	5072
3059.368	5126
3061.181	5052
3062.995	5193
3064.807	5056
3066.62	5126
3068.433	5151
3070.243	5111
3072.054	5018
3073.865	4933
3075.675	5118
3077.485	5003
3079.293	5057
3081.102	5025
3082.911	4959
3084.719	4900
3086.527	4999
3088.333	4961
3090.139	5042
3091.945	4976
3093.75	5045
3095.557	4909
3097.361	5029
3099.165	4945
3100.969	4913
3102.772	4889
3104.575	4937
3106.379	4863
3108.181	4862
3109.982	4823
3111.783	4857
3113.584	4944
3115.386	4848
3117.186	4861
3118.985	4894
3120.783	4765
3122.582	4856
3124.381	4804
3126.179	4851
3127.975	4815
3129.772	4736
3131.569	4800
3133.365	4813
3135.161	4787
3136.956	4738
3138.751	4850
3140.544	4726
3142.338	4657
3144.132	4700
3145.925	4725
3147.717	4742
3149.509	4697
3151.301	4676
3153.091	4764
3154.884	4775
3156.673	4760
3158.462	4765
3160.252	4823
3162.041	4784
3163.831	4690
3165.618	4759
3167.405	4803
3169.193	4717
3170.979	4765
3172.767	4701
3174.553	4709
3176.338	4689
3178.123	4734
3179.907	4661
3181.692	4683
3183.477	4703
3185.259	4780
3187.042	4718
3188.824	4750
3190.607	4813
3192.389	4761
3194.17	4603
3195.951	4797
3197.73	4729
3199.51	4718
3201.289	4699
3203.07	4721
3204.848	4745
3206.626	4675
3208.403	4752
3210.18	4684
3211.959	4716
3213.735	4680
3215.511	4712
3217.285	4773
3219.06	4737
3220.836	4699
3222.611	4682
3224.384	4724
3226.158	4703
3227.929	4628
3229.702	4690
3231.476	4802
3233.248	4660
3235.018	4746
3236.789	4769
3238.56	4752
3240.33	4699
3242.1	4681
3243.869	4733
3245.637	4724
3247.405	4693
3249.172	4686
3250.941	4682
3252.707	4688
3254.474	4820
3256.24	4758
3258.006	4666
3259.772	4691
3261.537	4782
3263.301	4815
3265.065	4746
3266.828	4792
3268.592	4764
3270.355	4743
3272.117	4731
3273.878	4697
3275.64	4769
3277.401	4656
3279.162	4709
3280.922	4747
3282.682	4721
3284.441	4795
3286.199	4735
3287.959	4653
3289.716	4790
3291.475	4785
3293.232	4733
3294.988	4642
3296.744	4686
3298.501	4645
3300.256	4707
3302.011	4739
3303.766	4660
3305.52	4675
3307.275	4739
3309.028	4658
3310.781	4725
3312.533	4746
3314.285	4713
3316.038	4744
3317.789	4625
3319.54	4695
3321.289	4692
3323.039	4644
3324.789	4707
3326.539	4691
3328.288	4557
3330.035	4648
3331.783	4620
3333.531	4700
3335.28	4679
3337.025	4694
3338.771	4573
3340.518	4630
3342.262	4660
3344.009	4688
3345.753	4613
3347.497	4705
3349.24	4617
3350.983	4667
3352.726	4560
3354.469	4627
3356.212	4599
3357.952	4697
3359.694	4604
3361.434	4602
3363.176	4488
3364.916	4638
3366.654	4494
3368.394	4580
3370.132	4597
3371.871	4487
3373.61	4630
3375.346	4463
3377.083	4423
3378.82	4561
3380.556	4546
3382.292	4542
3384.027	4402
3385.763	4530
3387.497	4418
3389.231	4533
3390.965	4394
3392.698	4556
3394.431	4397
3396.164	4491
3397.896	4472
3399.627	4486
3401.36	4430
3403.09	4418
3404.82	4451
3406.55	4527
3408.279	4406
3410.01	4527
3411.738	4485
3413.467	4435
3415.194	4486
3416.92	4469
3418.647	4442
3420.375	4440
3422.102	4465
3423.827	4364
3425.553	4471
3427.277	4375
3429.003	4408
3430.727	4366
3432.451	4438
3434.173	4322
3435.896	4367
3437.62	4353
3439.343	4392
3441.063	4333
3442.785	4337
3444.505	4316
3446.226	4283
3447.948	4278
3449.666	4217
3451.386	4291
3453.104	4328
3454.823	4371
3456.541	4334
3458.259	4227
3459.976	4291
3461.693	4290
3463.408	4210
3465.125	4295
3466.841	4187
3468.556	4250
3470.271	4239
3471.985	4230
3473.698	4263
3475.414	4229
3477.126	4201
3478.838	4224
3480.55	4135
3482.263	4280
3483.975	4176
3485.686	4197
3487.396	4159
3489.106	4099
3490.817	4259
3492.526	4160
3494.236	4149
3495.944	4063
3497.652	4167
3499.359	4080
3501.066	4163
3502.775	4054
3504.481	4094
3506.187	4044
3507.893	4099
3509.598	4048
3511.304	4044
3513.009	4093
3514.713	3977
3516.417	3993
3518.12	4033
3519.821	4103
3521.525	3934
3523.228	4058
3524.929	4089
3526.631	3989
3528.33	4025
3530.032	4107
3531.733	3911
3533.433	4000
3535.131	4055
3536.83	4014
3538.529	4060
3540.227	3982
3541.925	3964
3543.623	3959
3545.319	3871
3547.016	4002
3548.712	3882
3550.408	3805
3552.103	3948
3553.798	3926
3555.491	3926
3557.188	3955
3558.88	3970
3560.574	3951
3562.266	3853
3563.959	3944
3565.651	3929
3567.343	3880
3569.035	3879
3570.725	3913
3572.415	3812
3574.106	3932
3575.797	3875
3577.485	3928
3579.174	3837
3580.863	3821
3582.551	3929
3584.238	3819
3585.926	3890
3587.613	3848
3589.3	3890
3590.986	3801
3592.671	3744
3594.357	3772
3596.042	3792
3597.726	3749
3599.41	3798
3601.094	3708
3602.778	3797
3604.461	3634
3606.143	3779
3607.825	3709
3609.507	3815
3611.188	3769
3612.87	3736
3614.551	3722
3616.229	3752
3617.909	3664
3619.589	3686
3621.269	3661
3622.948	3720
3624.625	3655
3626.302	3642
3627.98	3716
3629.657	3649
3631.334	3605
3633.01	3714
3634.686	3592
3636.361	3607
3638.036	3717
3639.712	3564
3641.385	3649
3643.06	3587
3644.732	3562
3646.405	3614
3648.08	3636
3649.751	3589
3651.424	3635
3653.094	3537
3654.766	3665
3656.436	3626
3658.106	3550
3659.777	3459
3661.446	3652
3663.115	3614
3664.783	3588
3666.452	3571
3668.121	3534
3669.788	3595
3671.454	3586
3673.121	3559
3674.789	3496
3676.455	3474
3678.12	3550
3679.784	3532
3681.45	3453
3683.114	3504
3684.779	3517
3686.442	3515
3688.105	3470
3689.768	3476
3691.43	3484
3693.093	3598
3694.754	3520
3696.415	3516
3698.076	3538
3699.736	3514
3701.396	3475
3703.057	3500
3704.716	3475
3706.375	3482
3708.034	3515
3709.692	3514
3711.351	3483
3713.008	3493
3714.665	3518
3716.321	3479
3717.977	3455
3719.634	3389
3721.29	3475
3722.945	3468
3724.598	3447
3726.253	3372
3727.907	3395
3729.561	3391
3731.214	3447
3732.867	3433
3734.518	3412
3736.171	3375
3737.824	3355
3739.474	3448
3741.125	3466
3742.775	3325
3744.425	3471
3746.074	3350
3747.725	3463
3749.373	3390
3751.022	3462
3752.669	3359
3754.318	3440
3755.966	3373
3757.612	3330
3759.259	3318
3760.905	3382
3762.55	3430
3764.197	3385
3765.842	3450
3767.486	3353
3769.131	3392
3770.774	3375
3772.417	3296
3774.061	3351
3775.705	3373
3777.347	3315
3778.988	3312
3780.629	3272
3782.271	3358
3783.912	3294
3785.552	3302
3787.192	3294
3788.831	3310
3790.472	3368
3792.112	3318
3793.75	3322
3795.388	3299
3797.024	3343
3798.661	3383
3800.3	3277
3801.936	3244
3803.572	3273
3805.208	3253
3806.844	3300
3808.48	3227
3810.115	3265
3811.748	3310
3813.382	3250
3815.016	3271
3816.649	3299
3818.283	3262
3819.914	3270
3821.547	3244
3823.178	3186
3824.809	3184
3826.441	3289
3828.072	3253
3829.701	3209
3831.331	3243
3832.96	3210
3834.591	3186
3836.219	3161
3837.847	3243
3839.475	3206
3841.102	3143
3842.729	3229
3844.357	3173
3845.984	3228
3847.609	3131
3849.234	3180
3850.86	3237
3852.485	3119
3854.11	3163
3855.734	3137
3857.357	3177
3858.981	3139
3860.603	3209
3862.227	3207
3863.848	3101
3865.471	3117
3867.092	3149
3868.713	3137
3870.334	3122
3871.954	3155
3873.575	3167
3875.194	3132
3876.813	3177
3878.433	3132
3880.051	3044
3881.669	3144
3883.286	3145
3884.904	3089
3886.52	3186
3888.138	3134
3889.754	3132
3891.37	3197
3892.985	3090
3894.6	3129
3896.216	3118
3897.831	3138
3899.444	3122
3901.058	3119
3902.67	3073
3904.283	3168
3905.897	3018
3907.509	3063
3909.121	3124
3910.731	3122
3912.342	3101
3913.954	3147
3915.563	3140
3917.174	3103
3918.783	3150
3920.391	3162
3922.002	3121
3923.611	3084
3925.218	3056
3926.826	3112
3928.432	3048
3930.039	3192
3931.647	3127
3933.253	3104
3934.859	3134
3936.464	3096
3938.068	3033
3939.675	3049
3941.278	3059
3942.883	3087
3944.486	3018
3946.089	3106
3947.692	3039
3949.295	3052
3950.898	3122
3952.499	3065
3954.1	3030
3955.7	3043
3957.303	3031
3958.903	3080
3960.502	3102
3962.101	3019
3963.7	3004
3965.301	3039
3966.899	3022
3968.497	3078
3970.094	2988
3971.691	3066
3973.288	2947
3974.885	2951
3976.481	3036
3978.077	3001
3979.672	2947
3981.267	2940
3982.863	3037
3984.457	2948
3986.051	2999
3987.645	2943
3989.238	2918
3990.831	2927
3992.425	2982
3994.017	2921
3995.607	2922
3997.199	2906
3998.79	2976
4000.382	2934
4001.973	2982
4003.561	2923
4005.151	2923
4006.741	2844
4008.331	2917
4009.918	2916
4011.507	2964
4013.095	2806
4014.681	2848
4016.269	2859
4017.856	2881
4019.443	2959
4021.028	2850
4022.614	2894
4024.199	2931
4025.785	2853
4027.37	2947
4028.953	2873
4030.536	2872
4032.12	2871
4033.704	2940
4035.287	2856
4036.869	2842
4038.45	2842
4040.032	2854
4041.613	2838
4043.195	2851
4044.776	2847
4046.356	2871
4047.935	2819
4049.515	2818
4051.095	2823
4052.674	2817
4054.251	2793
4055.829	2836
4057.406	2844
4058.985	2785
4060.562	2837
4062.139	2831
4063.715	2789
4065.29	2752
4066.865	2767
4068.442	2760
4070.016	2859
4071.59	2762
4073.164	2781
4074.738	2783
4076.312	2773
4077.885	2891
4079.458	2754
4081.03	2825
4082.602	2776
4084.173	2744
4085.745	2777
4087.315	2770
4088.886	2769
4090.456	2721
4092.026	2733
4093.596	2794
4095.165	2769
4096.734	2780
4098.301	2793
4099.869	2700
4101.437	2821
4103.006	2698
4104.572	2731
4106.139	2757
4107.704	2713
4109.27	2693
4110.837	2676
4112.401	2689
4113.966	2790
4115.53	2683
4117.094	2740
4118.659	2689
4120.223	2720
4121.785	2732
4123.347	2721
4124.909	2707
4126.471	2689
4128.034	2694
4129.595	2715
4131.155	2769
4132.716	2677
4134.275	2659
4135.836	2639
4137.395	2695
4138.955	2643
4140.513	2686
4142.071	2590
4143.628	2631
4145.188	2665
4146.745	2724
4148.302	2631
4149.858	2692
4151.414	2647
4152.971	2691
4154.526	2636
4156.081	2628
4157.635	2648
4159.189	2628
4160.745	2598
4162.298	2548
4163.852	2641
4165.405	2605
4166.957	2630
4168.51	2636
4170.063	2627
4171.614	2596
4173.166	2632
4174.717	2655
4176.267	2615
4177.817	2595
4179.368	2599
4180.917	2607
4182.466	2613
4184.016	2540
4185.564	2614
4187.112	2570
4188.66	2569
4190.207	2574
4191.754	2525
4193.301	2521
4194.848	2554
4196.394	2546
4197.94	2514
4199.484	2591
4201.03	2566
4202.575	2505
4204.12	2542
4205.663	2533
4207.207	2503
4208.75	2561
4210.292	2496
4211.836	2474
4213.378	2602
4214.92	2548
4216.46	2545
4218.002	2547
4219.544	2502
4221.083	2491
4222.625	2510
4224.164	2534
4225.703	2475
4227.244	2492
4228.782	2458
4230.32	2529
4231.857	2449
4233.395	2522
4234.933	2566
4236.471	2494
4238.007	2429
4239.542	2525
4241.078	2521
4242.614	2438
4244.15	2509
4245.685	2539
4247.219	2479
4248.753	2405
4250.287	2466
4251.82	2515
4253.354	2460
4254.887	2543
4256.419	2537
4257.951	2485
4259.483	2549
4261.016	2424
4262.547	2474
4264.078	2477
4265.608	2484
4267.137	2461
4268.668	2440
4270.197	2410
4271.727	2448
4273.254	2467
4274.783	2432
4276.311	2452
4277.84	2470
4279.366	2442
4280.894	2455
4282.42	2417
4283.946	2414
4285.473	2432
4286.998	2456
4288.523	2340
4290.047	2426
4291.572	2440
4293.096	2396
4294.622	2405
4296.144	2403
4297.668	2445
4299.19	2395
4300.713	2392
4302.236	2366
4303.758	2469
4305.279	2390
4306.799	2414
4308.321	2410
4309.842	2383
4311.361	2348
4312.882	2401
4314.401	2397
