400.0961	3857
402.6185	3817
405.1424	3835
407.6635	3830
410.1838	3830
412.7035	3978
415.2225	3803
417.7388	3957
420.2585	3973
422.7754	3924
425.2917	3996
427.8072	3984
430.3221	4039
432.8363	4056
435.3498	4086
437.8626	4028
440.3727	4029
442.8841	4094
445.3969	4074
447.907	4121
450.4142	4071
452.9229	4115
455.4289	4043
457.9362	4081
460.4449	3941
462.9488	4035
465.454	4007
467.9566	4051
470.4604	3944
472.9637	4076
475.4662	3964
477.966	4084
480.4671	4092
482.9656	4080
485.4633	4061
487.9645	4065
490.4608	4243
492.9566	4045
495.4536	4079
497.948	4120
500.4437	4121
502.9387	4095
505.431	4081
507.9226	4106
510.4136	4166
512.9079	4185
515.3975	4167
517.8864	4167
520.3746	4194
522.8622	4193
525.3491	4167
527.8394	4194
530.3249	4189
532.8098	4196
535.2939	4219
537.7774	4232
540.2623	4244
542.7444	4252
545.2259	4241
547.7067	4230
550.1868	4265
552.6683	4125
555.147	4261
557.6231	4211
560.1005	4215
562.5773	4166
565.0534	4178
567.5308	4261
570.0056	4320
572.4776	4317
574.951	4339
577.4237	4323
579.8978	4433
582.3671	4407
584.8378	4370
587.3079	4420
589.7773	4287
592.244	4396
594.714	4394
597.1793	4478
599.6461	4371
602.1121	4296
604.5754	4309
607.0421	4422
609.5042	4330
611.9675	4462
614.4282	4259
616.8902	4390
619.3515	4339
621.8122	4408
624.2702	4282
626.7296	4380
629.1863	4324
631.6423	4400
634.1017	4215
636.5563	4294
639.0104	4372
641.4658	4198
643.9185	4227
646.3725	4384
648.8239	4397
651.2766	4328
653.7266	4334
656.176	4374
658.6247	4436
661.0748	4456
663.5242	4457
665.9709	4328
668.417	4372
670.8624	4445
673.3092	4478
675.7533	4387
678.1968	4430
680.6395	4445
683.0817	4467
685.5251	4316
687.9659	4506
690.4061	4515
692.8456	4411
695.2844	4445
697.7226	4536
700.1621	4537
702.599	4560
705.0332	4488
707.4688	4519
709.9036	4402
712.3399	4526
714.7735	4558
717.2044	4534
719.6367	4665
722.0683	4546
724.4993	4593
726.9296	4614
729.3593	4643
731.7883	4660
734.2147	4686
736.6423	4711
739.0714	4664
741.4958	4701
743.9216	4703
746.3447	4724
748.7691	4766
751.1929	4718
753.616	4697
756.0366	4805
758.4584	4737
760.8776	4784
763.2982	4798
765.718	4710
768.1373	4765
770.5539	4766
772.9698	4744
775.3871	4832
777.8038	4890
780.2178	4798
782.6332	4810
785.0459	4770
787.458	4714
789.8714	4772
792.2842	4753
794.6943	4782
797.1038	4784
799.5127	4841
801.9209	4832
804.3324	4725
806.7393	4831
809.1456	4797
811.5513	4869
813.9562	4843
816.3625	4832
818.7663	4854
821.1693	4887
823.5718	4935
825.9735	4929
828.3746	4891
830.7771	4844
833.177	4873
835.5762	4870
837.9747	4941
840.3727	4888
842.772	4919
845.1666	4939
847.5626	4997
849.958	5001
852.3527	5005
854.7488	5105
857.1403	5099
859.5331	5075
861.9253	5045
864.3168	4992
866.7057	5028
869.098	5004
871.4876	4934
873.8746	4999
876.263	5051
878.6487	5034
881.0378	5034
883.4243	5008
885.8081	5062
888.1933	4970
890.5759	4997
892.9598	4950
895.343	4934
897.7256	4947
900.1057	5056
902.4871	4980
904.8659	4998
907.246	4986
909.6254	5090
912.0023	5135
914.3786	5229
916.7562	5238
919.1331	5381
921.5074	5459
923.8831	5452
926.2562	5526
928.6287	5541
931.0005	5369
933.3757	5333
935.7462	5429
938.1162	5455
940.4855	5416
942.8542	5406
945.2242	5536
947.5916	5513
949.9584	5664
952.3266	5847
954.6921	6042
957.0571	6170
959.4233	6397
961.787	6582
964.15	6484
966.5125	6515
968.8742	6210
971.2354	5995
973.5959	5658
975.9559	5488
978.3151	5410
980.6738	5420
983.0338	5445
985.3912	5284
987.7461	5272
990.1022	5265
992.4578	5269
994.8127	5187
997.1689	5238
999.5207	5270
1001.874	5246
1004.226	5295
1006.576	5231
1008.929	5266
1011.28	5109
1013.628	5223
1015.977	5134
1018.324	5228
1020.674	5158
1023.019	5237
1025.366	5230
1027.713	5246
1030.056	5291
1032.399	5197
1034.746	5277
1037.087	5177
1039.431	5342
1041.771	5331
1044.113	5252
1046.454	5223
1048.793	5320
1051.133	5314
1053.471	5260
1055.807	5304
1058.146	5250
1060.483	5271
1062.818	5411
1065.153	5357
1067.489	5346
1069.822	5343
1072.156	5464
1074.488	5452
1076.82	5440
1079.15	5426
1081.48	5346
1083.814	5426
1086.143	5343
1088.471	5374
1090.799	5229
1093.126	5293
1095.452	5296
1097.78	5325
1100.105	5260
1102.43	5386
1104.754	5188
1107.077	5371
1109.4	5285
1111.722	5344
1114.044	5363
1116.365	5381
1118.685	5394
1121.005	5360
1123.324	5286
1125.643	5378
1127.961	5360
1130.278	5309
1132.595	5322
1134.911	5461
1137.226	5300
1139.541	5216
1141.854	5327
1144.167	5422
1146.482	5295
1148.793	5350
1151.105	5318
1153.414	5322
1155.725	5186
1158.033	5494
1160.344	5237
1162.651	5277
1164.959	5351
1167.265	5366
1169.572	5219
1171.878	5401
1174.184	5310
1176.488	5381
1178.79	5374
1181.094	5439
1183.396	5519
1185.699	5334
1188.001	5369
1190.301	5348
1192.6	5264
1194.9	5412
1197.2	5381
1199.497	5266
1201.794	5376
1204.09	5344
1206.387	5308
1208.684	5323
1210.978	5365
1213.272	5423
1215.565	5242
1217.858	5499
1220.15	5374
1222.443	5390
1224.734	5413
1227.024	5403
1229.313	5459
1231.602	5530
1233.892	5487
1236.18	5496
1238.467	5583
1240.754	5494
1243.04	5496
1245.325	5547
1247.612	5686
1249.896	5632
1252.178	5598
1254.461	5584
1256.743	5573
1259.027	5522
1261.308	5656
1263.587	5670
1265.867	5605
1268.146	5629
1270.425	5742
1272.703	5730
1274.981	5692
1277.256	5718
1279.532	5616
1281.808	5600
1284.083	5602
1286.358	5572
1288.63	5506
1290.904	5493
1293.175	5527
1295.449	5560
1297.719	5555
1299.99	5488
1302.259	5525
1304.529	5508
1306.798	5552
1309.065	5529
1311.333	5571
1313.599	5494
1315.866	5594
1318.131	5562
1320.396	5500
1322.66	5565
1324.925	5529
1327.187	5521
1329.448	5604
1331.711	5692
1333.974	5654
1336.234	5571
1338.493	5712
1340.752	5586
1343.01	5542
1345.269	5531
1347.526	5525
1349.784	5549
1352.04	5544
1354.295	5511
1356.552	5569
1358.806	5470
1361.059	5396
1363.312	5540
1365.564	5437
1367.818	5518
1370.069	5554
1372.318	5557
1374.568	5492
1376.817	5596
1379.066	5672
1381.316	5514
1383.564	5599
1385.809	5587
1388.056	5696
1390.301	5735
1392.549	5849
1394.793	5847
1397.036	5840
1399.279	5996
1401.522	5942
1403.763	5958
1406.007	5809
1408.248	5951
1410.487	5935
1412.727	5949
1414.965	5753
1417.205	5751
1419.442	5818
1421.68	5829
1423.915	5865
1426.152	5784
1428.388	5810
1430.623	5744
1432.857	5793
1435.091	5858
1437.323	5804
1439.556	5912
1441.789	5799
1444.019	5881
1446.25	5924
1448.48	5919
1450.708	5943
1452.938	5972
1455.167	5944
1457.394	5968
1459.62	5998
1461.846	5988
1464.073	5924
1466.299	5784
1468.523	5920
1470.746	5771
1472.969	5739
1475.191	5678
1477.415	5622
1479.636	5693
1481.858	5644
1484.078	5629
1486.298	5545
1488.518	5457
1490.736	5609
1492.954	5631
1495.169	5532
1497.386	5518
1499.602	5480
1501.819	5485
1504.034	5587
1506.248	5442
1508.462	5478
1510.675	5628
1512.888	5481
1515.1	5573
1517.311	5519
1519.522	5536
1521.732	5488
1523.942	5555
1526.151	5599
1528.36	5537
1530.566	5523
1532.773	5568
1534.98	5632
1537.187	5487
1539.392	5534
1541.596	5546
1543.801	5565
1546.005	5584
1548.208	5545
1550.411	5537
1552.612	5614
1554.814	5586
1557.013	5548
1559.212	5605
1561.414	5668
1563.612	5711
1565.811	5606
1568.007	5581
1570.203	5561
1572.403	5597
1574.598	5569
1576.792	5719
1578.988	5636
1581.181	5749
1583.376	5687
1585.568	5759
1587.761	5752
1589.952	5697
1592.143	5800
1594.333	5746
1596.524	5623
1598.715	5767
1600.903	5804
1603.091	5742
1605.278	5710
1607.466	5729
1609.652	5766
1611.838	5705
1614.023	5768
1616.207	5751
1618.391	5748
1620.576	5776
1622.759	5797
1624.941	5799
1627.123	5835
1629.304	5895
1631.484	5810
1633.664	5871
1635.844	5711
1638.022	5817
1640.201	5790
1642.38	5756
1644.556	5908
1646.732	5771
1648.908	5716
1651.084	5908
1653.257	5836
1655.433	5854
1657.607	5826
1659.779	5896
1661.951	5923
1664.122	5898
1666.295	6075
1668.467	5841
1670.635	5854
1672.805	5924
1674.973	5926
1677.142	5949
1679.31	5840
1681.478	5982
1683.644	5892
1685.81	5863
1687.975	5997
1690.142	5887
1692.305	5876
1694.468	5753
1696.632	5738
1698.794	5937
1700.957	5652
1703.119	5818
1705.279	5687
1707.439	5714
1709.598	5718
1711.758	5614
1713.917	5775
1716.075	5726
1718.231	5744
1720.388	5663
1722.543	5776
1724.702	5712
1726.856	5751
1729.01	5618
1731.164	5639
1733.317	5609
1735.471	5691
1737.623	5642
1739.774	5751
1741.925	5724
1744.075	5647
1746.225	5738
1748.376	5705
1750.524	5696
1752.672	5681
1754.82	5788
1756.965	5717
1759.113	5678
1761.259	5612
1763.405	5742
1765.549	5721
1767.694	5681
1769.836	5704
1771.981	5708
1774.123	5720
1776.264	5765
1778.405	5755
1780.546	5743
1782.687	5679
1784.827	5753
1786.966	5732
1789.103	5710
1791.242	5727
1793.381	5670
1795.517	5782
1797.653	5780
1799.788	5760
1801.923	5801
1804.057	5838
1806.193	5809
1808.326	5747
1810.457	5701
1812.59	5653
1814.721	5819
1816.855	5780
1818.984	5772
1821.113	5711
1823.244	5690
1825.372	5681
1827.499	5818
1829.63	5762
1831.756	5730
1833.882	5693
1836.007	5662
1838.132	5613
1840.26	5779
1842.384	5701
1844.507	5618
1846.63	5632
1848.752	5744
1850.875	5732
1852.996	5680
1855.118	5722
1857.238	5635
1859.358	5670
1861.477	5640
1863.597	5664
1865.715	5660
1867.832	5733
1869.948	5753
1872.064	5600
1874.181	5633
1876.297	5738
1878.411	5687
1880.526	5668
1882.639	5605
1884.752	5597
1886.865	5774
1888.977	5741
1891.089	5660
1893.2	5591
1895.308	5714
1897.42	5744
1899.53	5677
1901.639	5726
1903.745	5661
1905.853	5712
1907.962	5844
1910.067	5758
1912.174	5764
1914.278	5746
1916.383	5796
1918.486	5830
1920.592	5778
1922.694	5696
1924.797	5683
1926.898	5735
1929	5809
1931.102	5730
1933.203	5789
1935.301	5676
1937.401	5705
1939.499	5769
1941.598	5772
1943.697	5804
1945.793	5823
1947.888	5834
1949.985	5763
1952.08	5682
1954.176	5837
1956.269	5778
1958.364	5657
1960.457	5784
1962.549	5710
1964.642	5909
1966.733	5789
1968.823	5839
1970.913	5666
1973.005	5677
1975.093	5851
1977.184	5659
1979.271	5795
1981.359	5884
1983.446	5798
1985.532	5685
1987.619	5753
1989.705	5684
1991.789	5843
1993.874	5708
1995.956	5727
1998.041	5702
2000.123	5610
2002.206	5780
2004.287	5768
2006.368	5710
2008.449	5678
2010.529	5671
2012.609	5779
2014.688	5747
2016.766	5752
2018.843	5760
2020.922	5591
2022.999	5691
2025.074	5683
2027.15	5791
2029.225	5705
2031.299	5679
2033.375	5612
2035.447	5703
2037.52	5712
2039.592	5720
2041.664	5714
2043.736	5682
2045.807	5747
2047.876	5709
2049.947	5779
2052.015	5677
2054.086	5786
2056.153	5702
2058.221	5766
2060.288	5655
2062.353	5682
2064.42	5765
2066.486	5555
2068.55	5621
2070.614	5743
2072.678	5635
2074.741	5767
2076.805	5682
2078.866	5725
2080.929	5756
2082.99	5696
2085.049	5749
2087.109	5829
2089.17	5708
2091.228	5672
2093.286	5700
2095.344	5806
2097.4	5772
2099.46	5723
2101.516	5675
2103.572	5685
2105.626	5820
2107.679	5723
2109.735	5643
2111.788	5808
2113.841	5786
2115.894	5695
2117.945	5827
2119.997	5743
2122.049	5678
2124.1	5758
2126.148	5621
2128.197	5688
2130.246	5598
2132.296	5654
2134.342	5778
2136.39	5713
2138.437	5752
2140.483	5625
2142.527	5660
2144.574	5604
2146.619	5620
2148.661	5634
2150.705	5684
2152.747	5730
2154.792	5707
2156.832	5762
2158.874	5671
2160.915	5610
2162.954	5639
2164.995	5682
2167.034	5614
2169.072	5757
2171.111	5598
2173.148	5674
2175.186	5655
2177.223	5599
2179.258	5719
2181.294	5765
2183.328	5543
2185.362	5643
2187.398	5525
2189.431	5621
2191.463	5688
2193.495	5563
2195.528	5628
2197.56	5563
2199.59	5527
2201.62	5665
2203.649	5561
2205.678	5625
2207.708	5603
2209.737	5560
2211.764	5559
2213.791	5577
2215.817	5677
2217.843	5433
2219.87	5691
2221.895	5530
2223.919	5491
2225.942	5534
2227.966	5591
2229.988	5525
2232.012	5467
2234.032	5600
2236.054	5544
2238.074	5522
2240.095	5565
2242.116	5553
2244.135	5572
2246.153	5518
2248.171	5503
2250.188	5611
2252.208	5470
2254.223	5524
2256.239	5579
2258.255	5501
2260.269	5480
2262.283	5675
2264.3	5625
2266.312	5499
2268.325	5571
2270.336	5513
2272.349	5499
2274.362	5441
2276.372	5515
2278.383	5549
2280.392	5558
2282.402	5486
2284.409	5591
2286.418	5536
2288.427	5581
2290.433	5440
2292.441	5557
2294.446	5510
2296.453	5505
2298.459	5591
2300.463	5523
2302.466	5447
2304.471	5497
2306.475	5563
2308.477	5452
2310.478	5503
2312.481	5419
2314.481	5575
2316.481	5442
2318.482	5439
2320.482	5546
2322.48	5485
2324.48	5460
2326.478	5456
2328.476	5466
2330.473	5648
2332.469	5544
2334.465	5409
2336.46	5514
2338.454	5411
2340.45	5384
2342.444	5476
2344.437	5550
2346.43	5428
2348.421	5442
2350.414	5464
2352.405	5457
2354.396	5400
2356.386	5367
2358.376	5328
2360.366	5384
2362.355	5350
2364.343	5467
2366.331	5406
2368.317	5430
2370.304	5422
2372.292	5476
2374.278	5397
2376.262	5474
2378.247	5376
2380.23	5598
2382.216	5384
2384.199	5415
2386.181	5339
2388.163	5386
2390.144	5276
2392.127	5441
2394.107	5474
2396.087	5410
2398.066	5368
2400.046	5356
2402.023	5380
2404.004	5358
2405.981	5366
2407.957	5467
2409.934	5329
2411.91	5341
2413.886	5320
2415.862	5288
2417.836	5371
2419.809	5397
2421.784	5409
2423.756	5338
2425.73	5253
2427.701	5331
2429.672	5343
2431.644	5367
2433.615	5267
2435.586	5281
2437.555	5325
2439.523	5325
2441.491	5390
2443.459	5323
2445.428	5357
2447.395	5392
2449.361	5341
2451.327	5402
2453.292	5297
2455.257	5341
2457.223	5431
2459.187	5273
2461.15	5185
2463.113	5247
2465.076	5303
2467.039	5286
2468.999	5248
2470.96	5271
2472.921	5240
2474.881	5191
2476.841	5253
2478.8	5303
2480.759	5236
2482.717	5295
2484.675	5265
2486.63	5226
2488.589	5254
2490.545	5236
2492.5	5284
2494.455	5282
2496.408	5248
2498.364	5301
2500.318	5200
2502.27	5213
2504.223	5205
2506.174	5155
2508.126	5294
2510.078	5198
2512.03	5187
2513.979	5255
2515.927	5237
2517.877	5190
2519.826	5181
2521.775	5234
2523.722	5127
2525.668	5264
2527.616	5333
2529.561	5211
2531.508	5236
2533.452	5136
2535.398	5318
2537.342	5216
2539.284	5178
2541.229	5256
2543.173	5293
2545.114	5141
2547.055	5211
2548.996	5192
2550.938	5129
2552.878	5175
2554.817	5244
2556.756	5217
2558.695	5220
2560.633	5242
2562.572	5126
2564.509	5170
2566.445	5151
2568.382	5262
2570.317	5199
2572.254	5249
2574.189	5167
2576.123	5126
2578.057	5057
2579.99	5244
2581.923	5218
2583.855	5182
2585.788	5239
2587.719	5197
2589.65	5116
2591.579	5262
2593.511	5263
2595.44	5197
2597.37	5228
2599.297	5104
2601.225	5249
2603.153	5097
2605.08	5176
2607.007	5221
2608.932	5181
2610.858	5248
2612.782	5261
2614.709	5154
2616.632	5349
2618.556	5290
2620.478	5310
2622.401	5258
2624.324	5142
2626.247	5123
2628.167	5240
2630.088	5297
2632.008	5276
2633.928	5192
2635.848	5251
2637.766	5165
2639.684	5261
2641.603	5165
2643.519	5244
2645.437	5152
2647.353	5198
2649.27	5205
2651.184	5175
2653.099	5243
2655.014	5153
2656.928	5111
2658.842	5320
2660.755	5163
2662.667	5138
2664.579	5130
2666.491	5167
2668.402	5250
2670.312	5245
2672.222	5170
2674.132	5065
2676.042	5063
2677.951	5167
2679.859	5222
2681.766	5163
2683.674	5086
2685.582	5172
2687.488	5178
2689.392	5122
2691.298	5163
2693.202	5184
2695.107	5232
2697.012	5062
2698.914	5134
2700.817	5090
2702.72	5122
2704.622	5147
2706.524	5156
2708.425	5099
2710.326	5093
2712.225	5098
2714.125	5075
2716.024	5142
2717.923	5117
2719.822	5092
2721.719	5033
2723.616	5090
2725.512	5140
2727.41	5024
2729.305	5061
2731.201	5076
2733.095	4974
2734.99	5107
2736.884	5131
2738.778	5142
2740.67	5082
2742.562	5139
2744.455	5121
2746.346	5069
2748.238	5142
2750.129	5173
2752.018	5095
2753.907	5060
2755.797	5130
2757.687	5189
2759.575	5150
2761.462	5164
2763.349	5033
2765.237	5045
2767.124	5105
2769.009	5028
2770.894	5104
2772.779	5017
2774.663	5011
2776.547	5080
2778.431	5129
2780.314	5047
2782.197	5050
2784.078	5034
2785.96	5028
2787.842	5068
2789.723	5095
2791.603	5118
2793.483	4971
2795.362	4972
2797.241	5150
2799.121	4969
2800.997	4942
2802.874	5049
2804.751	5146
2806.628	5088
2808.506	5013
2810.38	5050
2812.255	5078
2814.13	5000
2816.003	5044
2817.878	5006
2819.752	4999
2821.623	5073
2823.496	4999
2825.368	5070
2827.238	5073
2829.111	5049
2830.98	5106
2832.851	5101
2834.719	5111
2836.589	5211
2838.458	4991
2840.327	5026
2842.193	5104
2844.061	5060
2845.927	5041
2847.794	5124
2849.66	5050
2851.525	5082
2853.39	5141
2855.254	5226
2857.117	5169
2858.983	5147
2860.845	5198
2862.707	5214
2864.569	5298
2866.431	5281
2868.293	5286
2870.154	5320
2872.013	5478
2873.873	5450
2875.733	5579
2877.592	5586
2879.451	5603
2881.309	5680
2883.166	5737
2885.022	5800
2886.879	5822
2888.736	5866
2890.591	5836
2892.446	5872
2894.301	5826
2896.155	5825
2898.009	5739
2899.863	5858
2901.716	5743
2903.568	5701
2905.419	5712
2907.27	5858
2909.123	5655
2910.973	5798
2912.824	5790
2914.673	5887
2916.521	5845
2918.372	5904
2920.22	6003
2922.067	6129
2923.914	6117
2925.761	6104
2927.607	6230
2929.455	6291
2931.301	6283
2933.144	6268
2934.99	6413
2936.833	6368
2938.678	6481
2940.522	6603
2942.364	6557
2944.207	6651
2946.048	6828
2947.891	6909
2949.731	6894
2951.571	6928
2953.412	6774
2955.25	6744
2957.09	6782
2958.93	6516
2960.767	6770
2962.606	6541
2964.443	6450
2966.279	6458
2968.116	6203
2969.953	6249
2971.788	6048
2973.623	5994
2975.457	6012
2977.292	5891
2979.127	5867
2980.959	5792
2982.792	5778
2984.624	5727
2986.455	5761
2988.288	5651
2990.119	5708
2991.949	5509
2993.779	5428
2995.608	5562
2997.439	5471
2999.268	5424
3001.096	5327
3002.923	5323
3004.751	5277
3006.578	5254
3008.406	5266
3010.232	5171
3012.057	5094
3013.883	5057
3015.706	5100
3017.532	5014
3019.356	5019
3021.179	4965
3023.002	5008
3024.823	4902
3026.646	4943
3028.469	4823
3030.289	4927
3032.11	4916
3033.93	4977
3035.749	4869
3037.57	4899
3039.39	4905
3041.207	4893
3043.026	4902
3044.842	4882
3046.661	4779
3048.477	4874
3050.294	4811
3052.109	4802
3053.925	4780
3055.739	4810
3057.555	4932
3059.368	4730
3061.181	4856
3062.995	4863
3064.807	4847
3066.62	4792
3068.433	4846
3070.243	4707
3072.054	4770
3073.865	4797
3075.675	4716
3077.485	4789
3079.293	4752
3081.102	4862
3082.911	4714
3084.719	4675
3086.527	4678
3088.333	4703
3090.139	4780
3091.945	4700
3093.75	4692
3095.557	4664
3097.361	4680
3099.165	4707
3100.969	4606
3102.772	4564
3104.575	4611
3106.379	4653
3108.181	4638
3109.982	4550
3111.783	4625
3113.584	4739
3115.386	4654
3117.186	4651
3118.985	4570
3120.783	4520
3122.582	4619
3124.381	4586
3126.179	4561
3127.975	4569
3129.772	4575
3131.569	4582
3133.365	4605
3135.161	4579
3136.956	4602
3138.751	4482
3140.544	4437
3142.338	4601
3144.132	4542
3145.925	4527
3147.717	4540
3149.509	4525
3151.301	4516
3153.091	4472
3154.884	4514
3156.673	4487
3158.462	4524
3160.252	4477
3162.041	4491
3163.831	4393
3165.618	4456
3167.405	4548
3169.193	4585
3170.979	4469
3172.767	4474
3174.553	4576
3176.338	4478
3178.123	4427
3179.907	4485
3181.692	4510
3183.477	4467
3185.259	4511
3187.042	4458
3188.824	4491
3190.607	4392
3192.389	4481
3194.17	4472
3195.951	4539
3197.73	4443
3199.51	4477
3201.289	4538
3203.07	4461
3204.848	4467
3206.626	4518
3208.403	4454
3210.18	4490
3211.959	4369
3213.735	4499
3215.511	4450
3217.285	4506
3219.06	4456
3220.836	4533
3222.611	4475
3224.384	4458
3226.158	4465
3227.929	4463
3229.702	4532
3231.476	4437
3233.248	4417
3235.018	4450
3236.789	4539
3238.56	4355
3240.33	4512
3242.1	4453
3243.869	4445
3245.637	4455
3247.405	4456
3249.172	4489
3250.941	4422
3252.707	4396
3254.474	4439
3256.24	4370
3258.006	4417
3259.772	4510
3261.537	4458
3263.301	4533
3265.065	4522
3266.828	4494
3268.592	4420
3270.355	4549
3272.117	4444
3273.878	4463
3275.64	4421
3277.401	4348
3279.162	4411
3280.922	4403
3282.682	4451
3284.441	4556
3286.199	4472
3287.959	4448
3289.716	4368
3291.475	4482
3293.232	4590
3294.988	4421
3296.744	4459
3298.501	4497
3300.256	4438
3302.011	4396
3303.766	4511
3305.52	4408
3307.275	4440
3309.028	4380
3310.781	4351
3312.533	4467
3314.285	4374
3316.038	4293
3317.789	4456
3319.54	4478
3321.289	4468
3323.039	4457
3324.789	4375
3326.539	4454
3328.288	4429
3330.035	4439
3331.783	4387
3333.531	4417
3335.28	4492
3337.025	4403
3338.771	4473
3340.518	4345
3342.262	4401
3344.009	4373
3345.753	4365
3347.497	4448
3349.24	4354
3350.983	4336
3352.726	4337
3354.469	4401
3356.212	4326
3357.952	4399
3359.694	4369
3361.434	4295
3363.176	4337
3364.916	4402
3366.654	4314
3368.394	4289
3370.132	4320
3371.871	4290
3373.61	4296
3375.346	4297
3377.083	4314
3378.82	4324
3380.556	4349
3382.292	4162
3384.027	4319
3385.763	4270
3387.497	4236
3389.231	4287
3390.965	4220
3392.698	4236
3394.431	4222
3396.164	4257
3397.896	4199
3399.627	4259
3401.36	4130
3403.09	4269
3404.82	4165
3406.55	4371
3408.279	4216
3410.01	4180
3411.738	4197
3413.467	4212
3415.194	4237
3416.92	4158
3418.647	4241
3420.375	4142
3422.102	4274
3423.827	4149
3425.553	4162
3427.277	4153
3429.003	4196
3430.727	4174
3432.451	4190
3434.173	4083
3435.896	4148
3437.62	4208
3439.343	4137
3441.063	4176
3442.785	4174
3444.505	4106
3446.226	4030
3447.948	4085
3449.666	4015
3451.386	4200
3453.104	4122
3454.823	3999
3456.541	4149
3458.259	4079
3459.976	4003
3461.693	4058
3463.408	4003
3465.125	4108
3466.841	4004
3468.556	3997
3470.271	3917
3471.985	4006
3473.698	4016
3475.414	4010
3477.126	3981
3478.838	4043
3480.55	3981
3482.263	3978
3483.975	4001
3485.686	4021
3487.396	3977
3489.106	3957
3490.817	3934
3492.526	4018
3494.236	3843
3495.944	3940
3497.652	3949
3499.359	3930
3501.066	3960
3502.775	4027
3504.481	3966
3506.187	3885
3507.893	3842
3509.598	3886
3511.304	3917
3513.009	3907
3514.713	3923
3516.417	3877
3518.12	3867
3519.821	3892
3521.525	3845
3523.228	3855
3524.929	3901
3526.631	3850
3528.33	3893
3530.032	3822
3531.733	3809
3533.433	3879
3535.131	3844
3536.83	3715
3538.529	3892
3540.227	3693
3541.925	3783
3543.623	3828
3545.319	3849
3547.016	3762
3548.712	3732
3550.408	3757
3552.103	3722
3553.798	3788
3555.491	3736
3557.188	3789
3558.88	3772
3560.574	3740
3562.266	3766
3563.959	3717
3565.651	3754
3567.343	3713
3569.035	3721
3570.725	3715
3572.415	3725
3574.106	3718
3575.797	3759
3577.485	3691
3579.174	3711
3580.863	3669
3582.551	3688
3584.238	3669
3585.926	3613
3587.613	3721
3589.3	3742
3590.986	3712
3592.671	3543
3594.357	3686
3596.042	3753
3597.726	3607
3599.41	3589
3601.094	3604
3602.778	3522
3604.461	3605
3606.143	3687
3607.825	3534
3609.507	3513
3611.188	3507
3612.87	3502
3614.551	3551
3616.229	3527
3617.909	3545
3619.589	3503
3621.269	3541
3622.948	3551
3624.625	3489
3626.302	3559
3627.98	3592
3629.657	3545
3631.334	3487
3633.01	3489
3634.686	3431
3636.361	3490
3638.036	3459
3639.712	3405
3641.385	3465
3643.06	3540
3644.732	3423
3646.405	3493
3648.08	3418
3649.751	3453
3651.424	3432
3653.094	3423
3654.766	3431
3656.436	3482
3658.106	3452
3659.777	3380
3661.446	3434
3663.115	3364
3664.783	3351
3666.452	3470
3668.121	3418
3669.788	3364
3671.454	3376
3673.121	3399
3674.789	3382
3676.455	3378
3678.12	3353
3679.784	3302
3681.45	3410
3683.114	3305
3684.779	3387
3686.442	3362
3688.105	3345
3689.768	3316
3691.43	3361
3693.093	3295
3694.754	3319
3696.415	3358
3698.076	3386
3699.736	3257
3701.396	3361
3703.057	3289
3704.716	3359
3706.375	3403
3708.034	3410
3709.692	3383
3711.351	3324
3713.008	3296
3714.665	3277
3716.321	3382
3717.977	3288
3719.634	3255
3721.29	3281
3722.945	3274
3724.598	3355
3726.253	3345
3727.907	3312
3729.561	3289
3731.214	3301
3732.867	3264
3734.518	3257
3736.171	3255
3737.824	3257
3739.474	3229
3741.125	3259
3742.775	3172
3744.425	3288
3746.074	3242
3747.725	3222
3749.373	3181
3751.022	3284
3752.669	3213
3754.318	3281
3755.966	3156
3757.612	3206
3759.259	3240
3760.905	3264
3762.55	3249
3764.197	3163
3765.842	3162
3767.486	3212
3769.131	3211
3770.774	3218
3772.417	3256
3774.061	3171
3775.705	3174
3777.347	3138
3778.988	3204
3780.629	3216
3782.271	3100
3783.912	3149
3785.552	3185
3787.192	3176
3788.831	3110
3790.472	3191
3792.112	3164
3793.75	3152
3795.388	3147
3797.024	3141
3798.661	3118
3800.3	3171
3801.936	3108
3803.572	3176
3805.208	3094
3806.844	3151
3808.48	3164
3810.115	3129
3811.748	3052
3813.382	3154
3815.016	3162
3816.649	3081
3818.283	3117
3819.914	3126
3821.547	3098
3823.178	3125
3824.809	3098
3826.441	3134
3828.072	3138
3829.701	3152
3831.331	3083
3832.96	3078
3834.591	3010
3836.219	3050
3837.847	3039
3839.475	3075
3841.102	3126
3842.729	3040
3844.357	3106
3845.984	3028
3847.609	3012
3849.234	3023
3850.86	3033
3852.485	3074
3854.11	3062
3855.734	3026
3857.357	3070
3858.981	3061
3860.603	3016
3862.227	2988
3863.848	2952
3865.471	3054
3867.092	3029
3868.713	3021
3870.334	2981
3871.954	3048
3873.575	2954
3875.194	3059
3876.813	3047
3878.433	2954
3880.051	3045
3881.669	3011
3883.286	2983
3884.904	2940
3886.52	3061
3888.138	2957
3889.754	2937
3891.37	2896
3892.985	2997
3894.6	3000
3896.216	2988
3897.831	3014
3899.444	2961
3901.058	2976
3902.67	2998
3904.283	2998
3905.897	2910
3907.509	2968
3909.121	2963
3910.731	2932
3912.342	2967
3913.954	2923
3915.563	2876
3917.174	2947
3918.783	2914
3920.391	2963
3922.002	2966
3923.611	3014
3925.218	2914
3926.826	2944
3928.432	2943
3930.039	2919
3931.647	2906
3933.253	2842
3934.859	2993
3936.464	2846
3938.068	2881
3939.675	2945
3941.278	3013
3942.883	2929
3944.486	2861
3946.089	2917
3947.692	2846
3949.295	2933
3950.898	2915
3952.499	2945
3954.1	2899
3955.7	2852
3957.303	2901
3958.903	2857
3960.502	2883
3962.101	2853
3963.7	2904
3965.301	2883
3966.899	2865
3968.497	2894
3970.094	2882
3971.691	2860
3973.288	2858
3974.885	2862
3976.481	2802
3978.077	2870
3979.672	2889
3981.267	2821
3982.863	2853
3984.457	2859
3986.051	2769
3987.645	2786
3989.238	2868
3990.831	2829
3992.425	2811
3994.017	2830
3995.607	2835
3997.199	2826
3998.79	2717
4000.382	2725
4001.973	2861
4003.561	2807
4005.151	2859
4006.741	2745
4008.331	2772
4009.918	2800
4011.507	2771
4013.095	2778
4014.681	2861
4016.269	2713
4017.856	2755
4019.443	2793
4021.028	2702
4022.614	2686
4024.199	2666
4025.785	2728
4027.37	2744
4028.953	2713
4030.536	2680
4032.12	2746
4033.704	2627
4035.287	2728
4036.869	2680
4038.45	2758
4040.032	2686
4041.613	2807
4043.195	2725
4044.776	2676
4046.356	2703
4047.935	2668
4049.515	2729
4051.095	2635
4052.674	2660
4054.251	2640
4055.829	2667
4057.406	2652
4058.985	2737
4060.562	2705
4062.139	2693
4063.715	2685
4065.29	2615
4066.865	2632
4068.442	2616
4070.016	2652
4071.59	2659
4073.164	2711
4074.738	2632
4076.312	2640
4077.885	2646
4079.458	2638
4081.03	2636
4082.602	2614
4084.173	2635
4085.745	2690
4087.315	2671
4088.886	2616
4090.456	2616
4092.026	2627
4093.596	2651
4095.165	2669
4096.734	2582
4098.301	2605
4099.869	2607
4101.437	2574
4103.006	2631
4104.572	2696
4106.139	2565
4107.704	2561
4109.27	2579
4110.837	2619
4112.401	2571
4113.966	2622
4115.53	2548
4117.094	2581
4118.659	2627
4120.223	2634
4121.785	2517
4123.347	2635
4124.909	2597
4126.471	2500
4128.034	2540
4129.595	2559
4131.155	2539
4132.716	2566
4134.275	2550
4135.836	2548
4137.395	2518
4138.955	2470
4140.513	2593
4142.071	2516
4143.628	2503
4145.188	2511
4146.745	2503
4148.302	2495
4149.858	2550
4151.414	2485
4152.971	2566
4154.526	2420
4156.081	2527
4157.635	2495
4159.189	2483
4160.745	2491
4162.298	2549
4163.852	2534
4165.405	2486
4166.957	2422
4168.51	2471
4170.063	2490
4171.614	2454
4173.166	2504
4174.717	2507
4176.267	2492
4177.817	2457
4179.368	2487
4180.917	2551
4182.466	2438
4184.016	2424
4185.564	2453
4187.112	2455
4188.66	2501
4190.207	2471
4191.754	2415
4193.301	2476
4194.848	2449
4196.394	2356
4197.94	2451
4199.484	2498
4201.03	2469
4202.575	2457
4204.12	2384
4205.663	2456
4207.207	2445
4208.75	2448
4210.292	2440
4211.836	2430
4213.378	2388
4214.92	2402
4216.46	2365
4218.002	2403
4219.544	2335
4221.083	2384
4222.625	2483
4224.164	2395
4225.703	2363
4227.244	2259
4228.782	2417
4230.32	2351
4231.857	2339
4233.395	2365
4234.933	2318
4236.471	2380
4238.007	2346
4239.542	2327
4241.078	2346
4242.614	2377
4244.15	2337
4245.685	2360
4247.219	2356
4248.753	2427
4250.287	2341
4251.82	2395
4253.354	2396
4254.887	2339
4256.419	2393
4257.951	2365
4259.483	2407
4261.016	2307
4262.547	2289
4264.078	2384
4265.608	2349
4267.137	2360
4268.668	2308
4270.197	2366
4271.727	2340
4273.254	2365
4274.783	2299
4276.311	2340
4277.84	2326
4279.366	2370
4280.894	2298
4282.42	2325
4283.946	2304
4285.473	2359
4286.998	2271
4288.523	2274
4290.047	2316
4291.572	2298
4293.096	2289
4294.622	2316
4296.144	2303
4297.668	2266
4299.19	2269
4300.713	2310
4302.236	2318
4303.758	2274
4305.279	2263
4306.799	2262
4308.321	2267
4309.842	2280
4311.361	2256
4312.882	2307
4314.401	2289
