400.0961	5578
402.6185	5393
405.1424	5457
407.6635	5503
410.1838	5592
412.7035	5490
415.2225	5552
417.7388	5658
420.2585	5574
422.7754	5746
425.2917	5631
427.8072	5670
430.3221	5829
432.8363	5813
435.3498	5782
437.8626	5892
440.3727	5884
442.8841	5846
445.3969	5810
447.907	5922
450.4142	5660
452.9229	5785
455.4289	5736
457.9362	5931
460.4449	5802
462.9488	5881
465.454	5759
467.9566	5755
470.4604	5773
472.9637	5925
475.4662	5902
477.966	5895
480.4671	5898
482.9656	5901
485.4633	5814
487.9645	5885
490.4608	5896
492.9566	5864
495.4536	6028
497.948	5894
500.4437	5952
502.9387	5991
505.431	6021
507.9226	5907
510.4136	6065
512.9079	6005
515.3975	5993
517.8864	6009
520.3746	6001
522.8622	6003
525.3491	6029
527.8394	5959
530.3249	6087
532.8098	6176
535.2939	6190
537.7774	6089
540.2623	5959
542.7444	6107
545.2259	6177
547.7067	6059
550.1868	6116
552.6683	6135
555.147	6056
557.6231	6223
560.1005	6133
562.5773	6209
565.0534	6113
567.5308	6177
570.0056	6171
572.4776	6263
574.951	6177
577.4237	6322
579.8978	6331
582.3671	6441
584.8378	6304
587.3079	6397
589.7773	6394
592.244	6260
594.714	6429
597.1793	6430
599.6461	6292
602.1121	6244
604.5754	6301
607.0421	6237
609.5042	6386
611.9675	6333
614.4282	6270
616.8902	6303
619.3515	6286
621.8122	6128
624.2702	6392
626.7296	6140
629.1863	6093
631.6423	6368
634.1017	6090
636.5563	6236
639.0104	6328
641.4658	6232
643.9185	6409
646.3725	6359
648.8239	6369
651.2766	6441
653.7266	6358
656.176	6436
658.6247	6482
661.0748	6360
663.5242	6424
665.9709	6461
668.417	6488
670.8624	6460
673.3092	6426
675.7533	6380
678.1968	6531
680.6395	6495
683.0817	6507
685.5251	6474
687.9659	6478
690.4061	6507
692.8456	6460
695.2844	6522
697.7226	6598
700.1621	6581
702.599	6545
705.0332	6559
707.4688	6677
709.9036	6579
712.3399	6780
714.7735	6664
717.2044	6724
719.6367	6765
722.0683	6675
724.4993	6764
726.9296	6785
729.3593	6659
731.7883	6726
734.2147	6806
736.6423	6755
739.0714	6878
741.4958	6895
743.9216	6898
746.3447	6883
748.7691	6893
751.1929	6941
753.616	6951
756.0366	6971
758.4584	7029
760.8776	6945
763.2982	7020
765.718	6995
768.1373	7040
770.5539	6883
772.9698	7069
775.3871	7003
777.8038	6985
780.2178	6940
782.6332	7003
785.0459	6983
787.458	7098
789.8714	6953
792.2842	6974
794.6943	7007
797.1038	6982
799.5127	7021
801.9209	7127
804.3324	7092
806.7393	7097
809.1456	6983
811.5513	7155
813.9562	7085
816.3625	7081
818.7663	7079
821.1693	7194
823.5718	7063
825.9735	7152
828.3746	7164
830.7771	7062
833.177	7082
835.5762	7177
837.9747	7194
840.3727	7146
842.772	7361
845.1666	7217
847.5626	7284
849.958	7352
852.3527	7315
854.7488	7350
857.1403	7275
859.5331	7348
861.9253	7348
864.3168	7269
866.7057	7234
869.098	7308
871.4876	7239
873.8746	7261
876.263	7376
878.6487	7279
881.0378	7293
883.4243	7157
885.8081	7262
888.1933	7257
890.5759	7169
892.9598	7310
895.343	7331
897.7256	7265
900.1057	7236
902.4871	7316
904.8659	7307
907.246	7397
909.6254	7326
912.0023	7347
914.3786	7469
916.7562	7745
919.1331	7747
921.5074	7726
923.8831	7851
926.2562	7840
928.6287	7836
931.0005	7873
933.3757	7786
935.7462	7673
938.1162	7753
940.4855	7734
942.8542	7844
945.2242	7755
947.5916	7922
949.9584	8042
952.3266	8126
954.6921	8288
957.0571	8659
959.4233	8751
961.787	9025
964.15	8965
966.5125	8970
968.8742	8601
971.2354	8353
973.5959	8187
975.9559	7993
978.3151	7882
980.6738	7725
983.0338	7827
985.3912	7691
987.7461	7606
990.1022	7584
992.4578	7454
994.8127	7501
997.1689	7465
999.5207	7615
1001.874	7610
1004.226	7653
1006.576	7603
1008.929	7606
1011.28	7538
1013.628	7641
1015.977	7493
1018.324	7454
1020.674	7528
1023.019	7563
1025.366	7606
1027.713	7443
1030.056	7592
1032.399	7744
1034.746	7568
1037.087	7706
1039.431	7739
1041.771	7664
1044.113	7665
1046.454	7630
1048.793	7664
1051.133	7753
1053.471	7769
1055.807	7691
1058.146	7630
1060.483	7700
1062.818	7676
1065.153	7831
1067.489	7771
1069.822	7790
1072.156	7698
1074.488	7765
1076.82	7822
1079.15	7878
1081.48	7742
1083.814	7768
1086.143	7662
1088.471	7640
1090.799	7798
1093.126	7549
1095.452	7883
1097.78	7654
1100.105	7715
1102.43	7770
1104.754	7674
1107.077	7680
1109.4	7780
1111.722	7835
1114.044	7816
1116.365	7829
1118.685	7680
1121.005	7676
1123.324	7890
1125.643	7782
1127.961	7949
1130.278	7770
1132.595	7728
1134.911	7801
1137.226	7755
1139.541	7768
1141.854	7753
1144.167	7659
1146.482	7819
1148.793	7792
1151.105	7796
1153.414	7711
1155.725	7775
1158.033	7704
1160.344	7717
1162.651	7869
1164.959	7840
1167.265	7776
1169.572	7803
1171.878	7708
1174.184	7913
1176.488	7836
1178.79	7810
1181.094	7835
1183.396	7991
1185.699	7793
1188.001	7720
1190.301	7846
1192.6	7750
1194.9	7731
1197.2	7798
1199.497	7748
1201.794	7813
1204.09	7617
1206.387	7807
1208.684	7777
1210.978	7842
1213.272	7738
1215.565	7851
1217.858	7793
1220.15	7962
1222.443	7887
1224.734	7766
1227.024	7847
1229.313	7916
1231.602	7959
1233.892	7973
1236.18	7894
1238.467	7971
1240.754	8015
1243.04	8143
1245.325	8064
1247.612	8065
1249.896	8174
1252.178	8214
1254.461	8057
1256.743	8068
1259.027	8088
1261.308	8120
1263.587	7970
1265.867	8169
1268.146	8091
1270.425	8199
1272.703	8054
1274.981	8106
1277.256	8113
1279.532	8134
1281.808	8108
1284.083	8096
1286.358	8060
1288.63	7989
1290.904	7889
1293.175	7939
1295.449	8061
1297.719	7941
1299.99	7923
1302.259	8043
1304.529	7967
1306.798	7988
1309.065	8001
1311.333	8031
1313.599	8053
1315.866	7911
1318.131	7966
1320.396	8051
1322.66	8038
1324.925	8076
1327.187	8054
1329.448	8044
1331.711	8288
1333.974	8087
1336.234	8068
1338.493	8120
1340.752	8053
1343.01	7871
1345.269	8073
1347.526	7956
1349.784	7960
1352.04	7971
1354.295	7904
1356.552	7993
1358.806	8033
1361.059	8000
1363.312	7968
1365.564	7900
1367.818	8066
1370.069	8102
1372.318	8041
1374.568	8041
1376.817	8201
1379.066	8076
1381.316	8023
1383.564	8084
1385.809	8070
1388.056	8118
1390.301	8149
1392.549	8232
1394.793	8371
1397.036	8461
1399.279	8347
1401.522	8375
1403.763	8336
1406.007	8339
1408.248	8328
1410.487	8412
1412.727	8338
1414.965	8362
1417.205	8388
1419.442	8307
1421.68	8342
1423.915	8392
1426.152	8370
1428.388	8280
1430.623	8370
1432.857	8455
1435.091	8346
1437.323	8456
1439.556	8527
1441.789	8452
1444.019	8455
1446.25	8508
1448.48	8557
1450.708	8570
1452.938	8389
1455.167	8656
1457.394	8449
1459.62	8538
1461.846	8436
1464.073	8383
1466.299	8370
1468.523	8304
1470.746	8313
1472.969	8381
1475.191	8128
1477.415	8230
1479.636	8129
1481.858	8164
1484.078	8135
1486.298	8200
1488.518	8102
1490.736	8039
1492.954	7953
1495.169	7966
1497.386	7945
1499.602	7987
1501.819	7991
1504.034	8055
1506.248	8037
1508.462	8015
1510.675	8108
1512.888	7888
1515.1	7937
1517.311	8105
1519.522	7989
1521.732	7993
1523.942	8039
1526.151	7993
1528.36	7970
1530.566	7947
1532.773	8082
1534.98	8094
1537.187	7951
1539.392	8159
1541.596	8014
1543.801	8096
1546.005	8086
1548.208	8081
1550.411	8119
1552.612	8119
1554.814	8272
1557.013	8074
1559.212	8213
1561.414	8285
1563.612	8129
1565.811	8274
1568.007	8130
1570.203	8181
1572.403	8149
1574.598	8238
1576.792	8244
1578.988	8115
1581.181	8249
1583.376	8230
1585.568	8140
1587.761	8118
1589.952	8195
1592.143	8180
1594.333	8235
1596.524	8210
1598.715	8261
1600.903	8269
1603.091	8264
1605.278	8336
1607.466	8374
1609.652	8369
1611.838	8319
1614.023	8292
1616.207	8316
1618.391	8280
1620.576	8380
1622.759	8328
1624.941	8335
1627.123	8251
1629.304	8456
1631.484	8425
1633.664	8458
1635.844	8369
1638.022	8496
1640.201	8298
1642.38	8435
1644.556	8364
1646.732	8499
1648.908	8434
1651.084	8404
1653.257	8498
1655.433	8421
1657.607	8466
1659.779	8492
1661.951	8481
1664.122	8515
1666.295	8456
1668.467	8489
1670.635	8388
1672.805	8541
1674.973	8445
1677.142	8457
1679.31	8554
1681.478	8312
1683.644	8310
1685.81	8471
1687.975	8494
1690.142	8363
1692.305	8363
1694.468	8413
1696.632	8416
1698.794	8275
1700.957	8311
1703.119	8295
1705.279	8305
1707.439	8270
1709.598	8235
1711.758	8178
1713.917	8173
1716.075	8346
1718.231	8256
1720.388	8201
1722.543	8333
1724.702	8046
1726.856	8260
1729.01	8266
1731.164	8372
1733.317	8264
1735.471	8223
1737.623	8291
1739.774	8094
1741.925	8241
1744.075	8316
1746.225	8213
1748.376	8228
1750.524	8336
1752.672	8184
1754.82	8246
1756.965	8318
1759.113	8320
1761.259	8175
1763.405	8250
1765.549	8157
1767.694	8311
1769.836	8424
1771.981	8305
1774.123	8353
1776.264	8319
1778.405	8345
1780.546	8229
1782.687	8269
1784.827	8387
1786.966	8335
1789.103	8323
1791.242	8232
1793.381	8321
1795.517	8300
1797.653	8334
1799.788	8351
1801.923	8406
1804.057	8331
1806.193	8390
1808.326	8363
1810.457	8230
1812.59	8299
1814.721	8299
1816.855	8157
1818.984	8238
1821.113	8173
1823.244	8252
1825.372	8262
1827.499	8401
1829.63	8296
1831.756	8245
1833.882	8251
1836.007	8264
1838.132	8252
1840.26	8292
1842.384	8253
1844.507	8155
1846.63	8342
1848.752	8193
1850.875	8213
1852.996	8275
1855.118	8271
1857.238	8191
1859.358	8328
1861.477	8180
1863.597	8326
1865.715	8257
1867.832	8332
1869.948	8243
1872.064	8242
1874.181	8207
1876.297	8181
1878.411	8284
1880.526	8259
1882.639	8301
1884.752	8058
1886.865	8341
1888.977	8232
1891.089	8114
1893.2	8183
1895.308	8233
1897.42	8275
1899.53	8308
1901.639	8198
1903.745	8285
1905.853	8398
1907.962	8322
1910.067	8313
1912.174	8398
1914.278	8188
1916.383	8415
1918.486	8458
1920.592	8254
1922.694	8230
1924.797	8350
1926.898	8352
1929	8375
1931.102	8419
1933.203	8333
1935.301	8400
1937.401	8391
1939.499	8474
1941.598	8352
1943.697	8389
1945.793	8307
1947.888	8299
1949.985	8267
1952.08	8343
1954.176	8348
1956.269	8469
1958.364	8332
1960.457	8298
1962.549	8349
1964.642	8356
1966.733	8327
1968.823	8297
1970.913	8425
1973.005	8287
1975.093	8345
1977.184	8308
1979.271	8296
1981.359	8296
1983.446	8211
1985.532	8272
1987.619	8294
1989.705	8272
1991.789	8188
1993.874	8284
1995.956	8323
1998.041	8234
2000.123	8311
2002.206	8315
2004.287	8296
2006.368	8249
2008.449	8262
2010.529	8250
2012.609	8307
2014.688	8216
2016.766	8303
2018.843	8174
2020.922	8193
2022.999	8284
2025.074	8138
2027.15	8281
2029.225	8190
2031.299	8156
2033.375	8369
2035.447	8211
2037.52	8107
2039.592	8181
2041.664	8098
2043.736	8227
2045.807	8191
2047.876	8153
2049.947	8248
2052.015	8300
2054.086	8357
2056.153	8293
2058.221	8372
2060.288	8284
2062.353	8278
2064.42	8072
2066.486	8297
2068.55	8293
2070.614	8267
2072.678	8194
2074.741	8251
2076.805	8294
2078.866	8319
2080.929	8192
2082.99	8275
2085.049	8206
2087.109	8257
2089.17	8406
2091.228	8139
2093.286	8073
2095.344	8189
2097.4	8321
2099.46	8248
2101.516	8230
2103.572	8296
2105.626	8280
2107.679	8252
2109.735	8222
2111.788	8235
2113.841	8175
2115.894	8164
2117.945	8289
2119.997	8274
2122.049	8120
2124.1	8313
2126.148	8163
2128.197	8109
2130.246	8313
2132.296	8195
2134.342	8166
2136.39	8224
2138.437	8161
2140.483	8256
2142.527	8303
2144.574	8268
2146.619	8174
2148.661	8161
2150.705	8026
2152.747	8047
2154.792	8260
2156.832	8285
2158.874	8167
2160.915	8123
2162.954	8197
2164.995	8180
2167.034	8111
2169.072	8221
2171.111	8133
2173.148	8101
2175.186	8093
2177.223	8080
2179.258	8061
2181.294	8228
2183.328	8059
2185.362	8268
2187.398	8083
2189.431	8058
2191.463	8128
2193.495	8042
2195.528	8148
2197.56	8094
2199.59	7990
2201.62	8010
2203.649	8004
2205.678	8111
2207.708	7938
2209.737	8019
2211.764	8060
2213.791	7985
2215.817	8128
2217.843	8011
2219.87	7976
2221.895	7955
2223.919	7955
2225.942	7935
2227.966	7990
2229.988	8068
2232.012	7937
2234.032	8051
2236.054	8059
2238.074	7871
2240.095	7910
2242.116	7947
2244.135	8094
2246.153	8025
2248.171	7946
2250.188	7893
2252.208	7897
2254.223	8127
2256.239	8000
2258.255	7950
2260.269	8023
2262.283	7985
2264.3	7958
2266.312	7964
2268.325	7943
2270.336	7967
2272.349	8106
2274.362	7918
2276.372	8101
2278.383	7903
2280.392	7939
2282.402	8037
2284.409	8131
2286.418	8015
2288.427	7945
2290.433	7984
2292.441	7955
2294.446	7900
2296.453	7925
2298.459	7922
2300.463	7906
2302.466	7862
2304.471	7936
2306.475	7999
2308.477	8082
2310.478	7833
2312.481	7993
2314.481	7873
2316.481	7852
2318.482	7995
2320.482	7968
2322.48	7922
2324.48	7894
2326.478	7872
2328.476	7857
2330.473	7760
2332.469	7814
2334.465	7935
2336.46	7747
2338.454	7800
2340.45	7831
2342.444	7793
2344.437	7743
2346.43	7898
2348.421	7784
2350.414	7776
2352.405	7918
2354.396	7705
2356.386	7669
2358.376	7696
2360.366	7828
2362.355	7640
2364.343	7719
2366.331	7832
2368.317	7781
2370.304	7638
2372.292	7874
2374.278	7647
2376.262	7710
2378.247	7678
2380.23	7788
2382.216	7690
2384.199	7805
2386.181	7793
2388.163	7715
2390.144	7695
2392.127	7665
2394.107	7684
2396.087	7737
2398.066	7595
2400.046	7692
2402.023	7519
2404.004	7572
2405.981	7641
2407.957	7710
2409.934	7641
2411.91	7508
2413.886	7599
2415.862	7639
2417.836	7587
2419.809	7747
2421.784	7636
2423.756	7648
2425.73	7619
2427.701	7618
2429.672	7637
2431.644	7640
2433.615	7569
2435.586	7503
2437.555	7712
2439.523	7607
2441.491	7538
2443.459	7724
2445.428	7652
2447.395	7673
2449.361	7576
2451.327	7564
2453.292	7459
2455.257	7628
2457.223	7607
2459.187	7465
2461.15	7637
2463.113	7571
2465.076	7428
2467.039	7537
2468.999	7676
2470.96	7517
2472.921	7447
2474.881	7727
2476.841	7487
2478.8	7488
2480.759	7508
2482.717	7410
2484.675	7602
2486.63	7445
2488.589	7477
2490.545	7500
2492.5	7422
2494.455	7533
2496.408	7420
2498.364	7559
2500.318	7413
2502.27	7612
2504.223	7606
2506.174	7428
2508.126	7539
2510.078	7473
2512.03	7459
2513.979	7454
2515.927	7554
2517.877	7482
2519.826	7433
2521.775	7527
2523.722	7402
2525.668	7469
2527.616	7451
2529.561	7433
2531.508	7434
2533.452	7433
2535.398	7541
2537.342	7467
2539.284	7304
2541.229	7539
2543.173	7381
2545.114	7410
2547.055	7447
2548.996	7446
2550.938	7372
2552.878	7404
2554.817	7409
2556.756	7370
2558.695	7386
2560.633	7389
2562.572	7455
2564.509	7443
2566.445	7453
2568.382	7396
2570.317	7445
2572.254	7443
2574.189	7454
2576.123	7459
2578.057	7399
2579.99	7414
2581.923	7476
2583.855	7522
2585.788	7366
2587.719	7330
2589.65	7485
2591.579	7469
2593.511	7435
2595.44	7493
2597.37	7441
2599.297	7481
2601.225	7332
2603.153	7407
2605.08	7478
2607.007	7433
2608.932	7502
2610.858	7398
2612.782	7321
2614.709	7438
2616.632	7367
2618.556	7496
2620.478	7373
2622.401	7483
2624.324	7447
2626.247	7363
2628.167	7421
2630.088	7401
2632.008	7526
2633.928	7477
2635.848	7324
2637.766	7450
2639.684	7495
2641.603	7422
2643.519	7434
2645.437	7421
2647.353	7498
2649.27	7355
2651.184	7492
2653.099	7446
2655.014	7363
2656.928	7467
2658.842	7378
2660.755	7252
2662.667	7453
2664.579	7366
2666.491	7388
2668.402	7414
2670.312	7233
2672.222	7457
2674.132	7360
2676.042	7332
2677.951	7464
2679.859	7403
2681.766	7320
2683.674	7397
2685.582	7256
2687.488	7339
2689.392	7380
2691.298	7278
2693.202	7247
2695.107	7196
2697.012	7277
2698.914	7336
2700.817	7283
2702.72	7310
2704.622	7263
2706.524	7311
2708.425	7283
2710.326	7247
2712.225	7210
2714.125	7339
2716.024	7239
2717.923	7241
2719.822	7177
2721.719	7282
2723.616	7108
2725.512	7258
2727.41	7209
2729.305	7196
2731.201	7235
2733.095	7189
2734.99	7190
2736.884	7246
2738.778	7312
2740.67	7067
2742.562	7200
2744.455	7224
2746.346	7171
2748.238	7204
2750.129	7227
2752.018	7062
2753.907	7162
2755.797	7170
2757.687	7182
2759.575	7176
2761.462	7169
2763.349	7228
2765.237	7258
2767.124	7286
2769.009	7136
2770.894	7220
2772.779	7184
2774.663	7201
2776.547	7276
2778.431	7120
2780.314	7091
2782.197	7259
2784.078	7044
2785.96	7084
2787.842	6996
2789.723	7188
2791.603	7111
2793.483	7043
2795.362	7015
2797.241	7286
2799.121	7096
2800.997	7109
2802.874	7185
2804.751	7134
2806.628	7057
2808.506	7176
2810.38	7171
2812.255	7089
2814.13	7030
2816.003	7024
2817.878	7146
2819.752	7062
2821.623	7092
2823.496	7040
2825.368	7191
2827.238	7043
2829.111	7149
2830.98	7174
2832.851	7174
2834.719	7121
2836.589	7172
2838.458	7155
2840.327	7100
2842.193	7305
2844.061	7226
2845.927	7079
2847.794	7184
2849.66	7130
2851.525	7120
2853.39	7248
2855.254	7227
2857.117	7065
2858.983	7201
2860.845	7084
2862.707	7229
2864.569	7277
2866.431	7423
2868.293	7473
2870.154	7289
2872.013	7517
2873.873	7455
2875.733	7639
2877.592	7613
2879.451	7734
2881.309	7717
2883.166	7697
2885.022	7858
2886.879	7831
2888.736	7823
2890.591	7883
2892.446	7921
2894.301	7849
2896.155	7816
2898.009	7917
2899.863	7829
2901.716	7682
2903.568	7765
2905.419	7791
2907.27	7686
2909.123	7967
2910.973	7799
2912.824	7936
2914.673	7950
2916.521	8084
2918.372	8226
2920.22	8157
2922.067	8076
2923.914	8179
2925.761	8257
2927.607	8236
2929.455	8464
2931.301	8427
2933.144	8355
2934.99	8451
2936.833	8697
2938.678	8658
2940.522	8561
2942.364	8856
2944.207	8826
2946.048	9039
2947.891	8975
2949.731	9081
2951.571	9057
2953.412	9050
2955.25	8991
2957.09	8786
2958.93	8885
2960.767	8826
2962.606	8676
2964.443	8443
2966.279	8476
2968.116	8423
2969.953	8346
2971.788	8220
2973.623	8095
2975.457	8049
2977.292	7994
2979.127	8018
2980.959	7837
2982.792	7856
2984.624	7775
2986.455	7696
2988.288	7675
2990.119	7593
2991.949	7643
2993.779	7509
2995.608	7565
2997.439	7411
2999.268	7453
3001.096	7347
3002.923	7443
3004.751	7225
3006.578	7268
3008.406	7137
3010.232	7147
3012.057	7093
3013.883	6967
3015.706	6969
3017.532	7010
3019.356	6918
3021.179	6874
3023.002	6940
3024.823	6794
3026.646	6792
3028.469	6712
3030.289	6814
3032.11	6818
3033.93	6798
3035.749	6704
3037.57	6681
3039.39	6680
3041.207	6771
3043.026	6798
3044.842	6839
3046.661	6777
3048.477	6711
3050.294	6748
3052.109	6656
3053.925	6752
3055.739	6503
3057.555	6684
3059.368	6726
3061.181	6570
3062.995	6664
3064.807	6680
3066.62	6695
3068.433	6710
3070.243	6672
3072.054	6627
3073.865	6644
3075.675	6646
3077.485	6691
3079.293	6677
3081.102	6541
3082.911	6613
3084.719	6631
3086.527	6554
3088.333	6567
3090.139	6560
3091.945	6530
3093.75	6565
3095.557	6464
3097.361	6569
3099.165	6374
3100.969	6386
3102.772	6463
3104.575	6511
3106.379	6478
3108.181	6412
3109.982	6493
3111.783	6359
3113.584	6381
3115.386	6419
3117.186	6373
3118.985	6373
3120.783	6445
3122.582	6420
3124.381	6355
3126.179	6381
3127.975	6341
3129.772	6410
3131.569	6233
3133.365	6375
3135.161	6290
3136.956	6356
3138.751	6276
3140.544	6322
3142.338	6290
3144.132	6268
3145.925	6395
3147.717	6347
3149.509	6256
3151.301	6383
3153.091	6226
3154.884	6249
3156.673	6274
3158.462	6142
3160.252	6257
3162.041	6227
3163.831	6215
3165.618	6297
3167.405	6254
3169.193	6248
3170.979	6128
3172.767	6179
3174.553	6254
3176.338	6239
3178.123	6195
3179.907	6217
3181.692	6201
3183.477	6287
3185.259	6249
3187.042	6190
3188.824	6204
3190.607	6223
3192.389	6234
3194.17	6168
3195.951	6245
3197.73	6108
3199.51	6168
3201.289	6176
3203.07	6187
3204.848	6229
3206.626	6222
3208.403	6199
3210.18	6180
3211.959	6165
3213.735	6067
3215.511	6266
3217.285	6091
3219.06	6159
3220.836	6082
3222.611	6138
3224.384	6174
3226.158	6229
3227.929	6050
3229.702	6127
3231.476	6151
3233.248	6204
3235.018	6263
3236.789	6125
3238.56	6162
3240.33	6152
3242.1	6150
3243.869	6164
3245.637	6187
3247.405	6069
3249.172	6160
3250.941	6109
3252.707	6108
3254.474	6075
3256.24	6202
3258.006	6100
3259.772	6063
3261.537	6075
3263.301	6149
3265.065	6159
3266.828	6069
3268.592	6230
3270.355	6100
3272.117	6196
3273.878	6117
3275.64	6129
3277.401	6178
3279.162	6128
3280.922	6213
3282.682	6055
3284.441	6221
3286.199	6147
3287.959	6033
3289.716	6125
3291.475	6170
3293.232	6157
3294.988	6180
3296.744	6104
3298.501	6045
3300.256	6008
3302.011	6102
3303.766	6136
3305.52	6095
3307.275	6229
3309.028	6028
3310.781	6018
3312.533	6180
3314.285	6177
3316.038	5976
3317.789	6054
3319.54	5914
3321.289	6159
3323.039	6060
3324.789	6059
3326.539	5946
3328.288	5983
3330.035	6113
3331.783	6030
3333.531	6070
3335.28	6069
3337.025	5932
3338.771	6013
3340.518	6047
3342.262	6127
3344.009	6055
3345.753	5971
3347.497	5890
3349.24	5996
3350.983	5978
3352.726	6029
3354.469	5917
3356.212	5878
3357.952	5944
3359.694	5858
3361.434	5813
3363.176	5875
3364.916	5997
3366.654	5895
3368.394	5890
3370.132	6017
3371.871	5863
3373.61	5803
3375.346	5803
3377.083	5884
3378.82	5826
3380.556	6005
3382.292	5715
3384.027	5934
3385.763	5796
3387.497	5788
3389.231	5839
3390.965	5871
3392.698	5903
3394.431	5781
3396.164	5741
3397.896	5900
3399.627	5828
3401.36	5759
3403.09	5725
3404.82	5707
3406.55	5909
3408.279	5845
3410.01	5797
3411.738	5984
3413.467	5732
3415.194	5727
3416.92	5822
3418.647	5803
3420.375	5695
3422.102	5813
3423.827	5681
3425.553	5705
3427.277	5771
3429.003	5781
3430.727	5631
3432.451	5719
3434.173	5725
3435.896	5674
3437.62	5616
3439.343	5630
3441.063	5680
3442.785	5628
3444.505	5592
3446.226	5695
3447.948	5591
3449.666	5665
3451.386	5558
3453.104	5640
3454.823	5621
3456.541	5584
3458.259	5427
3459.976	5578
3461.693	5451
3463.408	5700
3465.125	5522
3466.841	5473
3468.556	5446
3470.271	5484
3471.985	5513
3473.698	5454
3475.414	5496
3477.126	5474
3478.838	5374
3480.55	5486
3482.263	5534
3483.975	5449
3485.686	5417
3487.396	5402
3489.106	5449
3490.817	5270
3492.526	5375
3494.236	5446
3495.944	5482
3497.652	5584
3499.359	5428
3501.066	5450
3502.775	5369
3504.481	5330
3506.187	5367
3507.893	5421
3509.598	5306
3511.304	5362
3513.009	5253
3514.713	5367
3516.417	5296
3518.12	5313
3519.821	5338
3521.525	5311
3523.228	5321
3524.929	5319
3526.631	5276
3528.33	5229
3530.032	5230
3531.733	5271
3533.433	5262
3535.131	5174
3536.83	5179
3538.529	5319
3540.227	5318
3541.925	5236
3543.623	5195
3545.319	5217
3547.016	5089
3548.712	5181
3550.408	5152
3552.103	5097
3553.798	5202
3555.491	5233
3557.188	5145
3558.88	5192
3560.574	5148
3562.266	5139
3563.959	5232
3565.651	5034
3567.343	5114
3569.035	5043
3570.725	5058
3572.415	5155
3574.106	5104
3575.797	5042
3577.485	5142
3579.174	5129
3580.863	5027
3582.551	5191
3584.238	5041
3585.926	5083
3587.613	5098
3589.3	4983
3590.986	4997
3592.671	5036
3594.357	5066
3596.042	4903
3597.726	5066
3599.41	5023
3601.094	4823
3602.778	4957
3604.461	4936
3606.143	4911
3607.825	4879
3609.507	4932
3611.188	4820
3612.87	4960
3614.551	4987
3616.229	4896
3617.909	4889
3619.589	4736
3621.269	4818
3622.948	4793
3624.625	4800
3626.302	4931
3627.98	4839
3629.657	4926
3631.334	4836
3633.01	4710
3634.686	4748
3636.361	4905
3638.036	4717
3639.712	4858
3641.385	4817
3643.06	4748
3644.732	4699
3646.405	4650
3648.08	4799
3649.751	4740
3651.424	4677
3653.094	4784
3654.766	4711
3656.436	4699
3658.106	4757
3659.777	4768
3661.446	4642
3663.115	4652
3664.783	4625
3666.452	4690
3668.121	4670
3669.788	4659
3671.454	4711
3673.121	4750
3674.789	4559
3676.455	4666
3678.12	4720
3679.784	4648
3681.45	4647
3683.114	4643
3684.779	4685
3686.442	4588
3688.105	4596
3689.768	4674
3691.43	4633
3693.093	4709
3694.754	4647
3696.415	4593
3698.076	4622
3699.736	4632
3701.396	4661
3703.057	4592
3704.716	4510
3706.375	4665
3708.034	4578
3709.692	4683
3711.351	4564
3713.008	4575
3714.665	4550
3716.321	4575
3717.977	4510
3719.634	4519
3721.29	4533
3722.945	4458
3724.598	4519
3726.253	4562
3727.907	4599
3729.561	4536
3731.214	4563
3732.867	4564
3734.518	4479
3736.171	4500
3737.824	4485
3739.474	4586
3741.125	4450
3742.775	4521
3744.425	4521
3746.074	4484
3747.725	4377
3749.373	4451
3751.022	4408
3752.669	4481
3754.318	4430
3755.966	4460
3757.612	4538
3759.259	4553
3760.905	4390
3762.55	4426
3764.197	4411
3765.842	4483
3767.486	4424
3769.131	4483
3770.774	4535
3772.417	4413
3774.061	4482
3775.705	4386
3777.347	4446
3778.988	4417
3780.629	4468
3782.271	4353
3783.912	4386
3785.552	4510
3787.192	4344
3788.831	4355
3790.472	4350
3792.112	4414
3793.75	4401
3795.388	4358
3797.024	4238
3798.661	4350
3800.3	4340
3801.936	4298
3803.572	4348
3805.208	4355
3806.844	4290
3808.48	4313
3810.115	4215
3811.748	4194
3813.382	4387
3815.016	4285
3816.649	4216
3818.283	4251
3819.914	4239
3821.547	4246
3823.178	4337
3824.809	4156
3826.441	4275
3828.072	4296
3829.701	4227
3831.331	4219
3832.96	4178
3834.591	4149
3836.219	4193
3837.847	4243
3839.475	4227
3841.102	4259
3842.729	4151
3844.357	4206
3845.984	4175
3847.609	4197
3849.234	4242
3850.86	4142
3852.485	4254
3854.11	4162
3855.734	4186
3857.357	4184
3858.981	4173
3860.603	4220
3862.227	4221
3863.848	4215
3865.471	4193
3867.092	4171
3868.713	4137
3870.334	4129
3871.954	4189
3873.575	4037
3875.194	4083
3876.813	4117
3878.433	4173
3880.051	4086
3881.669	4133
3883.286	4084
3884.904	4088
3886.52	4100
3888.138	4064
3889.754	4141
3891.37	4146
3892.985	4115
3894.6	4022
3896.216	4093
3897.831	4078
3899.444	4096
3901.058	4030
3902.67	4042
3904.283	4109
3905.897	4087
3907.509	4102
3909.121	4102
3910.731	4020
3912.342	4024
3913.954	4098
3915.563	4080
3917.174	4027
3918.783	4112
3920.391	4038
3922.002	4030
3923.611	4084
3925.218	4058
3926.826	4040
3928.432	4024
3930.039	4094
3931.647	4047
3933.253	3973
3934.859	3998
3936.464	4021
3938.068	4044
3939.675	4049
3941.278	4012
3942.883	4024
3944.486	4012
3946.089	4050
3947.692	4082
3949.295	3969
3950.898	3988
3952.499	3998
3954.1	4044
3955.7	3944
3957.303	3975
3958.903	3960
3960.502	4004
3962.101	3904
3963.7	3945
3965.301	3928
3966.899	3910
3968.497	3935
3970.094	3944
3971.691	3917
3973.288	3895
3974.885	3893
3976.481	3936
3978.077	3900
3979.672	3799
3981.267	3814
3982.863	3806
3984.457	3938
3986.051	3704
3987.645	3828
3989.238	3893
3990.831	3900
3992.425	3878
3994.017	3870
3995.607	3755
3997.199	3772
3998.79	3891
4000.382	3824
4001.973	3848
4003.561	3740
4005.151	3815
4006.741	3782
4008.331	3777
4009.918	3817
4011.507	3773
4013.095	3779
4014.681	3835
4016.269	3734
4017.856	3740
4019.443	3695
4021.028	3711
4022.614	3828
4024.199	3789
4025.785	3815
4027.37	3671
4028.953	3738
4030.536	3713
4032.12	3718
4033.704	3806
4035.287	3660
4036.869	3746
4038.45	3753
4040.032	3615
4041.613	3650
4043.195	3686
4044.776	3739
4046.356	3682
4047.935	3723
4049.515	3728
4051.095	3696
4052.674	3734
4054.251	3665
4055.829	3657
4057.406	3649
4058.985	3633
4060.562	3655
4062.139	3620
4063.715	3617
4065.29	3667
4066.865	3630
4068.442	3616
4070.016	3538
4071.59	3656
4073.164	3635
4074.738	3579
4076.312	3589
4077.885	3633
4079.458	3602
4081.03	3632
4082.602	3572
4084.173	3623
4085.745	3539
4087.315	3571
4088.886	3628
4090.456	3631
4092.026	3594
4093.596	3587
4095.165	3625
4096.734	3561
4098.301	3601
4099.869	3509
4101.437	3538
4103.006	3547
4104.572	3493
4106.139	3515
4107.704	3566
4109.27	3530
4110.837	3543
4112.401	3514
4113.966	3553
4115.53	3491
4117.094	3502
4118.659	3556
4120.223	3490
4121.785	3494
4123.347	3497
4124.909	3476
4126.471	3489
4128.034	3487
4129.595	3497
4131.155	3522
4132.716	3453
4134.275	3460
4135.836	3525
4137.395	3443
4138.955	3456
4140.513	3462
4142.071	3453
4143.628	3444
4145.188	3461
4146.745	3335
4148.302	3469
4149.858	3404
4151.414	3383
4152.971	3427
4154.526	3447
4156.081	3428
4157.635	3363
4159.189	3413
4160.745	3453
4162.298	3388
4163.852	3348
4165.405	3379
4166.957	3355
4168.51	3403
4170.063	3393
4171.614	3346
4173.166	3326
4174.717	3382
4176.267	3356
4177.817	3347
4179.368	3341
4180.917	3268
4182.466	3326
4184.016	3370
4185.564	3344
4187.112	3334
4188.66	3323
4190.207	3332
4191.754	3266
4193.301	3313
4194.848	3380
4196.394	3375
4197.94	3323
4199.484	3232
4201.03	3355
4202.575	3253
4204.12	3281
4205.663	3275
4207.207	3289
4208.75	3310
4210.292	3260
4211.836	3328
4213.378	3217
4214.92	3210
4216.46	3267
4218.002	3187
4219.544	3276
4221.083	3259
4222.625	3313
4224.164	3286
4225.703	3270
4227.244	3201
4228.782	3227
4230.32	3255
4231.857	3290
4233.395	3217
4234.933	3280
4236.471	3239
4238.007	3181
4239.542	3187
4241.078	3206
4242.614	3203
4244.15	3197
4245.685	3157
4247.219	3140
4248.753	3146
4250.287	3066
4251.82	3235
4253.354	3181
4254.887	3217
4256.419	3097
4257.951	3164
4259.483	3222
4261.016	3228
4262.547	3159
4264.078	3138
4265.608	3142
4267.137	3138
4268.668	3086
4270.197	3115
4271.727	3138
4273.254	3106
4274.783	3141
4276.311	3152
4277.84	3126
4279.366	3182
4280.894	3045
4282.42	3102
4283.946	3068
4285.473	3137
4286.998	3098
4288.523	3079
4290.047	3123
4291.572	3076
4293.096	3059
4294.622	3104
4296.144	3107
4297.668	3086
4299.19	3124
4300.713	3076
4302.236	3074
4303.758	3068
4305.279	3044
4306.799	3041
4308.321	3049
4309.842	3072
4311.361	3074
4312.882	3018
4314.401	3116
