400.0961	4521
402.6185	4631
405.1424	4497
407.6635	4470
410.1838	4546
412.7035	4579
415.2225	4649
417.7388	4692
420.2585	4659
422.7754	4724
425.2917	4754
427.8072	4818
430.3221	4858
432.8363	4793
435.3498	4956
437.8626	4861
440.3727	4916
442.8841	4949
445.3969	4926
447.907	4859
450.4142	4978
452.9229	4837
455.4289	4846
457.9362	4855
460.4449	4860
462.9488	4916
465.454	4809
467.9566	4831
470.4604	4876
472.9637	4895
475.4662	4844
477.966	4785
480.4671	4821
482.9656	4915
485.4633	4891
487.9645	4872
490.4608	4928
492.9566	4992
495.4536	4908
497.948	4905
500.4437	4956
502.9387	4918
505.431	4967
507.9226	5021
510.4136	5034
512.9079	5022
515.3975	5049
517.8864	4969
520.3746	5009
522.8622	5071
525.3491	4977
527.8394	4986
530.3249	4971
532.8098	5074
535.2939	5052
537.7774	5109
540.2623	5064
542.7444	5012
545.2259	5086
547.7067	5114
550.1868	5104
552.6683	5135
555.147	5194
557.6231	5073
560.1005	5113
562.5773	5104
565.0534	5213
567.5308	5128
570.0056	5133
572.4776	5338
574.951	5304
577.4237	5326
579.8978	5243
582.3671	5304
584.8378	5257
587.3079	5343
589.7773	5273
592.244	5307
594.714	5227
597.1793	5350
599.6461	5206
602.1121	5377
604.5754	5294
607.0421	5315
609.5042	5211
611.9675	5221
614.4282	5211
616.8902	5222
619.3515	5300
621.8122	5188
624.2702	5203
626.7296	5251
629.1863	5242
631.6423	5246
634.1017	5248
636.5563	5254
639.0104	5118
641.4658	5246
643.9185	5183
646.3725	5228
648.8239	5397
651.2766	5289
653.7266	5266
656.176	5270
658.6247	5377
661.0748	5301
663.5242	5402
665.9709	5324
668.417	5450
670.8624	5310
673.3092	5463
675.7533	5396
678.1968	5431
680.6395	5433
683.0817	5455
685.5251	5423
687.9659	5486
690.4061	5355
692.8456	5402
695.2844	5315
697.7226	5447
700.1621	5457
702.599	5459
705.0332	5437
707.4688	5497
709.9036	5521
712.3399	5592
714.7735	5519
717.2044	5531
719.6367	5512
722.0683	5614
724.4993	5633
726.9296	5621
729.3593	5663
731.7883	5658
734.2147	5728
736.6423	5638
739.0714	5627
741.4958	5722
743.9216	5709
746.3447	5629
748.7691	5783
751.1929	5794
753.616	5728
756.0366	5802
758.4584	5829
760.8776	5776
763.2982	5821
765.718	5789
768.1373	5919
770.5539	5834
772.9698	5724
775.3871	5929
777.8038	5815
780.2178	5947
782.6332	5874
785.0459	5893
787.458	5871
789.8714	5820
792.2842	5767
794.6943	5902
797.1038	5880
799.5127	5882
801.9209	5754
804.3324	5868
806.7393	5899
809.1456	5899
811.5513	5813
813.9562	5907
816.3625	5930
818.7663	6002
821.1693	5965
823.5718	5889
825.9735	5917
828.3746	5905
830.7771	6013
833.177	5950
835.5762	5903
837.9747	6000
840.3727	5958
842.772	6032
845.1666	6044
847.5626	5994
849.958	6021
852.3527	6082
854.7488	6215
857.1403	6080
859.5331	6085
861.9253	6061
864.3168	6033
866.7057	6012
869.098	6107
871.4876	6063
873.8746	5911
876.263	6019
878.6487	6029
881.0378	6038
883.4243	6063
885.8081	6091
888.1933	6010
890.5759	6135
892.9598	6001
895.343	5938
897.7256	6136
900.1057	5991
902.4871	6039
904.8659	6003
907.246	6081
909.6254	6133
912.0023	6124
914.3786	6277
916.7562	6206
919.1331	6264
921.5074	6291
923.8831	6427
926.2562	6366
928.6287	6448
931.0005	6445
933.3757	6393
935.7462	6444
938.1162	6294
940.4855	6433
942.8542	6561
945.2242	6588
947.5916	6802
949.9584	6949
952.3266	7028
954.6921	7280
957.0571	7644
959.4233	7759
961.787	7919
964.15	7905
966.5125	7708
968.8742	7372
971.2354	7107
973.5959	6767
975.9559	6695
978.3151	6512
980.6738	6521
983.0338	6389
985.3912	6324
987.7461	6351
990.1022	6214
992.4578	6293
994.8127	6195
997.1689	6338
999.5207	6314
1001.874	6252
1004.226	6386
1006.576	6333
1008.929	6417
1011.28	6372
1013.628	6368
1015.977	6339
1018.324	6216
1020.674	6199
1023.019	6348
1025.366	6334
1027.713	6314
1030.056	6437
1032.399	6368
1034.746	6553
1037.087	6328
1039.431	6418
1041.771	6453
1044.113	6455
1046.454	6516
1048.793	6430
1051.133	6373
1053.471	6420
1055.807	6426
1058.146	6422
1060.483	6463
1062.818	6552
1065.153	6507
1067.489	6623
1069.822	6591
1072.156	6566
1074.488	6586
1076.82	6687
1079.15	6565
1081.48	6522
1083.814	6504
1086.143	6523
1088.471	6349
1090.799	6466
1093.126	6399
1095.452	6401
1097.78	6513
1100.105	6389
1102.43	6466
1104.754	6279
1107.077	6323
1109.4	6490
1111.722	6482
1114.044	6380
1116.365	6454
1118.685	6468
1121.005	6347
1123.324	6562
1125.643	6459
1127.961	6437
1130.278	6494
1132.595	6526
1134.911	6537
1137.226	6428
1139.541	6547
1141.854	6508
1144.167	6433
1146.482	6559
1148.793	6432
1151.105	6475
1153.414	6508
1155.725	6490
1158.033	6502
1160.344	6450
1162.651	6485
1164.959	6435
1167.265	6543
1169.572	6520
1171.878	6477
1174.184	6527
1176.488	6421
1178.79	6540
1181.094	6473
1183.396	6564
1185.699	6547
1188.001	6501
1190.301	6418
1192.6	6445
1194.9	6498
1197.2	6503
1199.497	6352
1201.794	6583
1204.09	6524
1206.387	6548
1208.684	6610
1210.978	6531
1213.272	6474
1215.565	6427
1217.858	6545
1220.15	6651
1222.443	6504
1224.734	6501
1227.024	6578
1229.313	6667
1231.602	6636
1233.892	6678
1236.18	6664
1238.467	6664
1240.754	6809
1243.04	6742
1245.325	6714
1247.612	6891
1249.896	6827
1252.178	6740
1254.461	6803
1256.743	6678
1259.027	6660
1261.308	6839
1263.587	6862
1265.867	6777
1268.146	6811
1270.425	6804
1272.703	6786
1274.981	6771
1277.256	6823
1279.532	6724
1281.808	6708
1284.083	6711
1286.358	6750
1288.63	6704
1290.904	6668
1293.175	6696
1295.449	6654
1297.719	6600
1299.99	6677
1302.259	6624
1304.529	6606
1306.798	6598
1309.065	6555
1311.333	6623
1313.599	6669
1315.866	6729
1318.131	6747
1320.396	6638
1322.66	6707
1324.925	6632
1327.187	6712
1329.448	6796
1331.711	6613
1333.974	6785
1336.234	6809
1338.493	6732
1340.752	6705
1343.01	6741
1345.269	6614
1347.526	6696
1349.784	6602
1352.04	6688
1354.295	6690
1356.552	6599
1358.806	6727
1361.059	6726
1363.312	6619
1365.564	6737
1367.818	6692
1370.069	6786
1372.318	6745
1374.568	6693
1376.817	6606
1379.066	6723
1381.316	6750
1383.564	6731
1385.809	6672
1388.056	6802
1390.301	6647
1392.549	6767
1394.793	6880
1397.036	6965
1399.279	6862
1401.522	6858
1403.763	6850
1406.007	6934
1408.248	6951
1410.487	6904
1412.727	6841
1414.965	6937
1417.205	6896
1419.442	6880
1421.68	6797
1423.915	6919
1426.152	6941
1428.388	6840
1430.623	6810
1432.857	6849
1435.091	6909
1437.323	6962
1439.556	6977
1441.789	6907
1444.019	6910
1446.25	6854
1448.48	7017
1450.708	7056
1452.938	7059
1455.167	7048
1457.394	6994
1459.62	6995
1461.846	6986
1464.073	6986
1466.299	7017
1468.523	7040
1470.746	6967
1472.969	6924
1475.191	6949
1477.415	6794
1479.636	6699
1481.858	6901
1484.078	6745
1486.298	6851
1488.518	6692
1490.736	6621
1492.954	6673
1495.169	6785
1497.386	6746
1499.602	6757
1501.819	6910
1504.034	6752
1506.248	6668
1508.462	6856
1510.675	6749
1512.888	6645
1515.1	6643
1517.311	6663
1519.522	6642
1521.732	6637
1523.942	6725
1526.151	6681
1528.36	6697
1530.566	6709
1532.773	6769
1534.98	6663
1537.187	6609
1539.392	6824
1541.596	6808
1543.801	6733
1546.005	6739
1548.208	6678
1550.411	6791
1552.612	6713
1554.814	6841
1557.013	6757
1559.212	6853
1561.414	6850
1563.612	6844
1565.811	6826
1568.007	6985
1570.203	6950
1572.403	6835
1574.598	6910
1576.792	6919
1578.988	6898
1581.181	6899
1583.376	6922
1585.568	6968
1587.761	6841
1589.952	6907
1592.143	6907
1594.333	7031
1596.524	7003
1598.715	6945
1600.903	6940
1603.091	6900
1605.278	6930
1607.466	7003
1609.652	6977
1611.838	6883
1614.023	6947
1616.207	7005
1618.391	6918
1620.576	6906
1622.759	6968
1624.941	6970
1627.123	6958
1629.304	7045
1631.484	6960
1633.664	7087
1635.844	6888
1638.022	7091
1640.201	7019
1642.38	7069
1644.556	7121
1646.732	7098
1648.908	7004
1651.084	7097
1653.257	7068
1655.433	7041
1657.607	7169
1659.779	7046
1661.951	6971
1664.122	7180
1666.295	7243
1668.467	7185
1670.635	7065
1672.805	7064
1674.973	7143
1677.142	7123
1679.31	6972
1681.478	7103
1683.644	7015
1685.81	6990
1687.975	7027
1690.142	7007
1692.305	7016
1694.468	7057
1696.632	6954
1698.794	7019
1700.957	6897
1703.119	6937
1705.279	6921
1707.439	7032
1709.598	6987
1711.758	6985
1713.917	6915
1716.075	6923
1718.231	6886
1720.388	6929
1722.543	6890
1724.702	6993
1726.856	6874
1729.01	6947
1731.164	6997
1733.317	6868
1735.471	6936
1737.623	6912
1739.774	7016
1741.925	6945
1744.075	6922
1746.225	6863
1748.376	6901
1750.524	6996
1752.672	6941
1754.82	6958
1756.965	6985
1759.113	6894
1761.259	6914
1763.405	6919
1765.549	6985
1767.694	6896
1769.836	7083
1771.981	6960
1774.123	6917
1776.264	6945
1778.405	7021
1780.546	7033
1782.687	6927
1784.827	6997
1786.966	7096
1789.103	6911
1791.242	6932
1793.381	7018
1795.517	6961
1797.653	6960
1799.788	7063
1801.923	7048
1804.057	6957
1806.193	6958
1808.326	6995
1810.457	7002
1812.59	7106
1814.721	7065
1816.855	6972
1818.984	7051
1821.113	6966
1823.244	6998
1825.372	6980
1827.499	6945
1829.63	6912
1831.756	6889
1833.882	6933
1836.007	6979
1838.132	6849
1840.26	7030
1842.384	6952
1844.507	6908
1846.63	6887
1848.752	6888
1850.875	6965
1852.996	7044
1855.118	6862
1857.238	6832
1859.358	6936
1861.477	7010
1863.597	6946
1865.715	7065
1867.832	6930
1869.948	6956
1872.064	6814
1874.181	6796
1876.297	6809
1878.411	6864
1880.526	6785
1882.639	6935
1884.752	6924
1886.865	6954
1888.977	6887
1891.089	6956
1893.2	6921
1895.308	6835
1897.42	7005
1899.53	6851
1901.639	6975
1903.745	6886
1905.853	6965
1907.962	6987
1910.067	7020
1912.174	7056
1914.278	7007
1916.383	7057
1918.486	6981
1920.592	7059
1922.694	7065
1924.797	7012
1926.898	6981
1929	7107
1931.102	6984
1933.203	7049
1935.301	7004
1937.401	6976
1939.499	7062
1941.598	7103
1943.697	7069
1945.793	7066
1947.888	6992
1949.985	7125
1952.08	6935
1954.176	7003
1956.269	7081
1958.364	7008
1960.457	6969
1962.549	7146
1964.642	6980
1966.733	7053
1968.823	7072
1970.913	6936
1973.005	6912
1975.093	7008
1977.184	6971
1979.271	7008
1981.359	7038
1983.446	6951
1985.532	6890
1987.619	6954
1989.705	6933
1991.789	6947
1993.874	6902
1995.956	6978
1998.041	6874
2000.123	6961
2002.206	7088
2004.287	6936
2006.368	6885
2008.449	6969
2010.529	6876
2012.609	6906
2014.688	6861
2016.766	6956
2018.843	6912
2020.922	6934
2022.999	6952
2025.074	7020
2027.15	6898
2029.225	7031
2031.299	6909
2033.375	7081
2035.447	6889
2037.52	6990
2039.592	6891
2041.664	7079
2043.736	6951
2045.807	6838
2047.876	7002
2049.947	6891
2052.015	6858
2054.086	6950
2056.153	6914
2058.221	6956
2060.288	6961
2062.353	7052
2064.42	6997
2066.486	6941
2068.55	6957
2070.614	6899
2072.678	7043
2074.741	7015
2076.805	6900
2078.866	6956
2080.929	7043
2082.99	6938
2085.049	6894
2087.109	6949
2089.17	6938
2091.228	6858
2093.286	6929
2095.344	6882
2097.4	6959
2099.46	6949
2101.516	6989
2103.572	7043
2105.626	6945
2107.679	6940
2109.735	6947
2111.788	6789
2113.841	6921
2115.894	6951
2117.945	6973
2119.997	6950
2122.049	6982
2124.1	7016
2126.148	6885
2128.197	6813
2130.246	6892
2132.296	6926
2134.342	6890
2136.39	6840
2138.437	6992
2140.483	6874
2142.527	7047
2144.574	6933
2146.619	6908
2148.661	6815
2150.705	6864
2152.747	6877
2154.792	6920
2156.832	6850
2158.874	6902
2160.915	6796
2162.954	6842
2164.995	6940
2167.034	6867
2169.072	6810
2171.111	6956
2173.148	6842
2175.186	6732
2177.223	6851
2179.258	6852
2181.294	6845
2183.328	6900
2185.362	6935
2187.398	6850
2189.431	6857
2191.463	6737
2193.495	6817
2195.528	6762
2197.56	6683
2199.59	6729
2201.62	6744
2203.649	6824
2205.678	6788
2207.708	6863
2209.737	6704
2211.764	6808
2213.791	6740
2215.817	6619
2217.843	6817
2219.87	6793
2221.895	6734
2223.919	6649
2225.942	6828
2227.966	6803
2229.988	6787
2232.012	6648
2234.032	6798
2236.054	6761
2238.074	6697
2240.095	6739
2242.116	6622
2244.135	6775
2246.153	6576
2248.171	6728
2250.188	6899
2252.208	6684
2254.223	6698
2256.239	6740
2258.255	6644
2260.269	6702
2262.283	6774
2264.3	6740
2266.312	6679
2268.325	6706
2270.336	6695
2272.349	6722
2274.362	6717
2276.372	6723
2278.383	6623
2280.392	6773
2282.402	6650
2284.409	6657
2286.418	6671
2288.427	6722
2290.433	6757
2292.441	6677
2294.446	6751
2296.453	6706
2298.459	6715
2300.463	6774
2302.466	6785
2304.471	6640
2306.475	6744
2308.477	6740
2310.478	6639
2312.481	6787
2314.481	6745
2316.481	6544
2318.482	6694
2320.482	6603
2322.48	6713
2324.48	6696
2326.478	6686
2328.476	6510
2330.473	6586
2332.469	6655
2334.465	6624
2336.46	6555
2338.454	6640
2340.45	6676
2342.444	6550
2344.437	6598
2346.43	6640
2348.421	6577
2350.414	6409
2352.405	6523
2354.396	6567
2356.386	6523
2358.376	6570
2360.366	6539
2362.355	6522
2364.343	6570
2366.331	6471
2368.317	6602
2370.304	6461
2372.292	6577
2374.278	6536
2376.262	6447
2378.247	6598
2380.23	6523
2382.216	6591
2384.199	6460
2386.181	6596
2388.163	6545
2390.144	6519
2392.127	6532
2394.107	6470
2396.087	6489
2398.066	6427
2400.046	6343
2402.023	6471
2404.004	6421
2405.981	6369
2407.957	6621
2409.934	6490
2411.91	6332
2413.886	6449
2415.862	6493
2417.836	6450
2419.809	6500
2421.784	6459
2423.756	6522
2425.73	6427
2427.701	6453
2429.672	6502
2431.644	6377
2433.615	6431
2435.586	6397
2437.555	6387
2439.523	6317
2441.491	6434
2443.459	6391
2445.428	6480
2447.395	6393
2449.361	6581
2451.327	6487
2453.292	6430
2455.257	6446
2457.223	6423
2459.187	6361
2461.15	6421
2463.113	6300
2465.076	6446
2467.039	6415
2468.999	6308
2470.96	6438
2472.921	6324
2474.881	6413
2476.841	6316
2478.8	6377
2480.759	6385
2482.717	6224
2484.675	6425
2486.63	6295
2488.589	6381
2490.545	6326
2492.5	6444
2494.455	6312
2496.408	6364
2498.364	6270
2500.318	6383
2502.27	6279
2504.223	6300
2506.174	6360
2508.126	6497
2510.078	6345
2512.03	6338
2513.979	6354
2515.927	6246
2517.877	6226
2519.826	6231
2521.775	6346
2523.722	6241
2525.668	6220
2527.616	6252
2529.561	6376
2531.508	6293
2533.452	6339
2535.398	6295
2537.342	6227
2539.284	6188
2541.229	6348
2543.173	6266
2545.114	6220
2547.055	6248
2548.996	6328
2550.938	6180
2552.878	6293
2554.817	6377
2556.756	6194
2558.695	6215
2560.633	6203
2562.572	6311
2564.509	6221
2566.445	6304
2568.382	6239
2570.317	6142
2572.254	6175
2574.189	6291
2576.123	6210
2578.057	6207
2579.99	6304
2581.923	6270
2583.855	6339
2585.788	6191
2587.719	6109
2589.65	6293
2591.579	6276
2593.511	6348
2595.44	6218
2597.37	6327
2599.297	6261
2601.225	6356
2603.153	6226
2605.08	6196
2607.007	6299
2608.932	6350
2610.858	6346
2612.782	6322
2614.709	6312
2616.632	6252
2618.556	6320
2620.478	6217
2622.401	6173
2624.324	6277
2626.247	6431
2628.167	6219
2630.088	6229
2632.008	6332
2633.928	6240
2635.848	6270
2637.766	6316
2639.684	6350
2641.603	6284
2643.519	6304
2645.437	6357
2647.353	6272
2649.27	6185
2651.184	6204
2653.099	6297
2655.014	6267
2656.928	6234
2658.842	6299
2660.755	6253
2662.667	6242
2664.579	6319
2666.491	6325
2668.402	6192
2670.312	6180
2672.222	6287
2674.132	6220
2676.042	6216
2677.951	6299
2679.859	6156
2681.766	6134
2683.674	6222
2685.582	6162
2687.488	6211
2689.392	6180
2691.298	6104
2693.202	6173
2695.107	6176
2697.012	6089
2698.914	6253
2700.817	6146
2702.72	6158
2704.622	6184
2706.524	6032
2708.425	6152
2710.326	6024
2712.225	6129
2714.125	6117
2716.024	6099
2717.923	6146
2719.822	6094
2721.719	6117
2723.616	6142
2725.512	6150
2727.41	6094
2729.305	6060
2731.201	6008
2733.095	6060
2734.99	6071
2736.884	6067
2738.778	6090
2740.67	6012
2742.562	6122
2744.455	6283
2746.346	6104
2748.238	5989
2750.129	6176
2752.018	6132
2753.907	6079
2755.797	6103
2757.687	5995
2759.575	6054
2761.462	6054
2763.349	6159
2765.237	6148
2767.124	6038
2769.009	5940
2770.894	6042
2772.779	5962
2774.663	6100
2776.547	5912
2778.431	5951
2780.314	6081
2782.197	6079
2784.078	6066
2785.96	6014
2787.842	5929
2789.723	6003
2791.603	6001
2793.483	5993
2795.362	5993
2797.241	5979
2799.121	6044
2800.997	6009
2802.874	5994
2804.751	5919
2806.628	5980
2808.506	6009
2810.38	6022
2812.255	5978
2814.13	6093
2816.003	5976
2817.878	5991
2819.752	6032
2821.623	6131
2823.496	5902
2825.368	5970
2827.238	5926
2829.111	5973
2830.98	5875
2832.851	6029
2834.719	5934
2836.589	5956
2838.458	5969
2840.327	5933
2842.193	5923
2844.061	6056
2845.927	5964
2847.794	5993
2849.66	5982
2851.525	6037
2853.39	6022
2855.254	5949
2857.117	5947
2858.983	6041
2860.845	5973
2862.707	5976
2864.569	6141
2866.431	6089
2868.293	6172
2870.154	6146
2872.013	6202
2873.873	6246
2875.733	6177
2877.592	6394
2879.451	6312
2881.309	6382
2883.166	6383
2885.022	6441
2886.879	6361
2888.736	6356
2890.591	6522
2892.446	6521
2894.301	6478
2896.155	6457
2898.009	6367
2899.863	6348
2901.716	6352
2903.568	6390
2905.419	6377
2907.27	6345
2909.123	6376
2910.973	6393
2912.824	6347
2914.673	6540
2916.521	6432
2918.372	6648
2920.22	6594
2922.067	6581
2923.914	6625
2925.761	6688
2927.607	6752
2929.455	6730
2931.301	6754
2933.144	6859
2934.99	6924
2936.833	6922
2938.678	6985
2940.522	6989
2942.364	7099
2944.207	7108
2946.048	7103
2947.891	7138
2949.731	7201
2951.571	7180
2953.412	7126
2955.25	7085
2957.09	6909
2958.93	6861
2960.767	6810
2962.606	6767
2964.443	6852
2966.279	6689
2968.116	6672
2969.953	6751
2971.788	6626
2973.623	6583
2975.457	6619
2977.292	6446
2979.127	6418
2980.959	6472
2982.792	6379
2984.624	6450
2986.455	6229
2988.288	6355
2990.119	6332
2991.949	6291
2993.779	6304
2995.608	6185
2997.439	6218
2999.268	6267
3001.096	6094
3002.923	6094
3004.751	6021
3006.578	5968
3008.406	6113
3010.232	5893
3012.057	5970
3013.883	5816
3015.706	5802
3017.532	5755
3019.356	5843
3021.179	5725
3023.002	5856
3024.823	5705
3026.646	5749
3028.469	5736
3030.289	5612
3032.11	5731
3033.93	5711
3035.749	5630
3037.57	5623
3039.39	5587
3041.207	5725
3043.026	5650
3044.842	5601
3046.661	5616
3048.477	5535
3050.294	5532
3052.109	5600
3053.925	5603
3055.739	5594
3057.555	5587
3059.368	5581
3061.181	5654
3062.995	5556
3064.807	5611
3066.62	5497
3068.433	5607
3070.243	5576
3072.054	5532
3073.865	5655
3075.675	5616
3077.485	5632
3079.293	5433
3081.102	5519
3082.911	5523
3084.719	5388
3086.527	5505
3088.333	5525
3090.139	5494
3091.945	5423
3093.75	5518
3095.557	5447
3097.361	5548
3099.165	5405
3100.969	5473
3102.772	5386
3104.575	5472
3106.379	5450
3108.181	5391
3109.982	5587
3111.783	5378
3113.584	5387
3115.386	5340
3117.186	5422
3118.985	5338
3120.783	5252
3122.582	5391
3124.381	5367
3126.179	5437
3127.975	5280
3129.772	5378
3131.569	5291
3133.365	5322
3135.161	5349
3136.956	5374
3138.751	5329
3140.544	5217
3142.338	5304
3144.132	5308
3145.925	5291
3147.717	5318
3149.509	5304
3151.301	5252
3153.091	5319
3154.884	5265
3156.673	5332
3158.462	5333
3160.252	5260
3162.041	5244
3163.831	5173
3165.618	5262
3167.405	5212
3169.193	5283
3170.979	5250
3172.767	5146
3174.553	5214
3176.338	5183
3178.123	5251
3179.907	5297
3181.692	5317
3183.477	5189
3185.259	5282
3187.042	5145
3188.824	5217
3190.607	5292
3192.389	5206
3194.17	5215
3195.951	5230
3197.73	5247
3199.51	5107
3201.289	5105
3203.07	5192
3204.848	5214
3206.626	5091
3208.403	5189
3210.18	5123
3211.959	5109
3213.735	5151
3215.511	5148
3217.285	5176
3219.06	5164
3220.836	5111
3222.611	5274
3224.384	5175
3226.158	5244
3227.929	5192
3229.702	5151
3231.476	5273
3233.248	5207
3235.018	5228
3236.789	5073
3238.56	5131
3240.33	5184
3242.1	5154
3243.869	5167
3245.637	5119
3247.405	5216
3249.172	5101
3250.941	5210
3252.707	5095
3254.474	5122
3256.24	5243
3258.006	5097
3259.772	5176
3261.537	5123
3263.301	5072
3265.065	5161
3266.828	5058
3268.592	5275
3270.355	5193
3272.117	5081
3273.878	5188
3275.64	5104
3277.401	5100
3279.162	5104
3280.922	5169
3282.682	5103
3284.441	5153
3286.199	5157
3287.959	5135
3289.716	5089
3291.475	5119
3293.232	5070
3294.988	5116
3296.744	5118
3298.501	5128
3300.256	5154
3302.011	5110
3303.766	5050
3305.52	5046
3307.275	5055
3309.028	5041
3310.781	5150
3312.533	5091
3314.285	5100
3316.038	5176
3317.789	5173
3319.54	5079
3321.289	5133
3323.039	5211
3324.789	5027
3326.539	5132
3328.288	5098
3330.035	5136
3331.783	4917
3333.531	5050
3335.28	5004
3337.025	5056
3338.771	5038
3340.518	5110
3342.262	5049
3344.009	5040
3345.753	5127
3347.497	5029
3349.24	5000
3350.983	5069
3352.726	4939
3354.469	5077
3356.212	4963
3357.952	5067
3359.694	4999
3361.434	5037
3363.176	5019
3364.916	4983
3366.654	4871
3368.394	4990
3370.132	4972
3371.871	4918
3373.61	5064
3375.346	4874
3377.083	4909
3378.82	4988
3380.556	5007
3382.292	4945
3384.027	4948
3385.763	4871
3387.497	5084
3389.231	4905
3390.965	4933
3392.698	4851
3394.431	4848
3396.164	4965
3397.896	4870
3399.627	4951
3401.36	4904
3403.09	4921
3404.82	4878
3406.55	4863
3408.279	4819
3410.01	4841
3411.738	4857
3413.467	4902
3415.194	4735
3416.92	4888
3418.647	4886
3420.375	4813
3422.102	4807
3423.827	4905
3425.553	4814
3427.277	4874
3429.003	4790
3430.727	4802
3432.451	4753
3434.173	4892
3435.896	4801
3437.62	4761
3439.343	4788
3441.063	4651
3442.785	4792
3444.505	4702
3446.226	4786
3447.948	4771
3449.666	4754
3451.386	4730
3453.104	4637
3454.823	4769
3456.541	4709
3458.259	4731
3459.976	4730
3461.693	4677
3463.408	4743
3465.125	4639
3466.841	4784
3468.556	4579
3470.271	4625
3471.985	4654
3473.698	4737
3475.414	4621
3477.126	4607
3478.838	4671
3480.55	4717
3482.263	4617
3483.975	4663
3485.686	4674
3487.396	4685
3489.106	4535
3490.817	4520
3492.526	4576
3494.236	4456
3495.944	4603
3497.652	4526
3499.359	4573
3501.066	4528
3502.775	4522
3504.481	4445
3506.187	4437
3507.893	4561
3509.598	4517
3511.304	4520
3513.009	4535
3514.713	4527
3516.417	4426
3518.12	4529
3519.821	4561
3521.525	4424
3523.228	4471
3524.929	4380
3526.631	4504
3528.33	4579
3530.032	4602
3531.733	4384
3533.433	4495
3535.131	4474
3536.83	4413
3538.529	4346
3540.227	4471
3541.925	4473
3543.623	4455
3545.319	4455
3547.016	4484
3548.712	4378
3550.408	4375
3552.103	4329
3553.798	4387
3555.491	4415
3557.188	4352
3558.88	4406
3560.574	4283
3562.266	4389
3563.959	4362
3565.651	4403
3567.343	4357
3569.035	4319
3570.725	4388
3572.415	4377
3574.106	4257
3575.797	4412
3577.485	4415
3579.174	4296
3580.863	4345
3582.551	4382
3584.238	4350
3585.926	4313
3587.613	4211
3589.3	4293
3590.986	4361
3592.671	4221
3594.357	4284
3596.042	4306
3597.726	4185
3599.41	4312
3601.094	4139
3602.778	4255
3604.461	4208
3606.143	4200
3607.825	4279
3609.507	4214
3611.188	4219
3612.87	4149
3614.551	4217
3616.229	4269
3617.909	4089
3619.589	4159
3621.269	4191
3622.948	4136
3624.625	4197
3626.302	4154
3627.98	4180
3629.657	4196
3631.334	4173
3633.01	4166
3634.686	4101
3636.361	4130
3638.036	4150
3639.712	4072
3641.385	4098
3643.06	4035
3644.732	4027
3646.405	4138
3648.08	4060
3649.751	4204
3651.424	4050
3653.094	4097
3654.766	4119
3656.436	4104
3658.106	4153
3659.777	4043
3661.446	4036
3663.115	3915
3664.783	4064
3666.452	4030
3668.121	4069
3669.788	3985
3671.454	3897
3673.121	4035
3674.789	3911
3676.455	4002
3678.12	3959
3679.784	4055
3681.45	3925
3683.114	4003
3684.779	3914
3686.442	3914
3688.105	3988
3689.768	4031
3691.43	3913
3693.093	3891
3694.754	3933
3696.415	3912
3698.076	4032
3699.736	3939
3701.396	3881
3703.057	3979
3704.716	3943
3706.375	4000
3708.034	3999
3709.692	3917
3711.351	3877
3713.008	3975
3714.665	3995
3716.321	3918
3717.977	3851
3719.634	3897
3721.29	3870
3722.945	3943
3724.598	3864
3726.253	3896
3727.907	3903
3729.561	3911
3731.214	3935
3732.867	3852
3734.518	3829
3736.171	3757
3737.824	3924
3739.474	3869
3741.125	3838
3742.775	3878
3744.425	3798
3746.074	3832
3747.725	3866
3749.373	3881
3751.022	3777
3752.669	3816
3754.318	3758
3755.966	3844
3757.612	3798
3759.259	3807
3760.905	3817
3762.55	3814
3764.197	3849
3765.842	3726
3767.486	3824
3769.131	3754
3770.774	3737
3772.417	3776
3774.061	3727
3775.705	3717
3777.347	3740
3778.988	3774
3780.629	3806
3782.271	3739
3783.912	3700
3785.552	3745
3787.192	3781
3788.831	3677
3790.472	3777
3792.112	3756
3793.75	3766
3795.388	3781
3797.024	3789
3798.661	3807
3800.3	3652
3801.936	3648
3803.572	3764
3805.208	3659
3806.844	3729
3808.48	3716
3810.115	3699
3811.748	3725
3813.382	3736
3815.016	3611
3816.649	3629
3818.283	3652
3819.914	3668
3821.547	3614
3823.178	3672
3824.809	3652
3826.441	3603
3828.072	3655
3829.701	3600
3831.331	3635
3832.96	3727
3834.591	3620
3836.219	3674
3837.847	3645
3839.475	3582
3841.102	3560
3842.729	3652
3844.357	3636
3845.984	3600
3847.609	3594
3849.234	3496
3850.86	3590
3852.485	3561
3854.11	3584
3855.734	3563
3857.357	3554
3858.981	3545
3860.603	3574
3862.227	3578
3863.848	3560
3865.471	3577
3867.092	3600
3868.713	3569
3870.334	3574
3871.954	3560
3873.575	3539
3875.194	3539
3876.813	3464
3878.433	3587
3880.051	3479
3881.669	3519
3883.286	3548
3884.904	3505
3886.52	3583
3888.138	3443
3889.754	3576
3891.37	3570
3892.985	3533
3894.6	3544
3896.216	3519
3897.831	3426
3899.444	3524
3901.058	3493
3902.67	3427
3904.283	3417
3905.897	3530
3907.509	3521
3909.121	3544
3910.731	3489
3912.342	3458
3913.954	3564
3915.563	3465
3917.174	3540
3918.783	3574
3920.391	3468
3922.002	3457
3923.611	3488
3925.218	3469
3926.826	3477
3928.432	3462
3930.039	3392
3931.647	3469
3933.253	3484
3934.859	3436
3936.464	3466
3938.068	3407
3939.675	3466
3941.278	3455
3942.883	3488
3944.486	3473
3946.089	3463
3947.692	3442
3949.295	3476
3950.898	3437
3952.499	3487
3954.1	3414
3955.7	3490
3957.303	3394
3958.903	3385
3960.502	3328
3962.101	3439
3963.7	3420
3965.301	3366
3966.899	3349
3968.497	3415
3970.094	3317
3971.691	3333
3973.288	3411
3974.885	3376
3976.481	3355
3978.077	3346
3979.672	3344
3981.267	3351
3982.863	3290
3984.457	3358
3986.051	3299
3987.645	3368
3989.238	3297
3990.831	3395
3992.425	3263
3994.017	3339
3995.607	3319
3997.199	3335
3998.79	3280
4000.382	3237
4001.973	3299
4003.561	3263
4005.151	3241
4006.741	3241
4008.331	3262
4009.918	3297
4011.507	3260
4013.095	3295
4014.681	3228
4016.269	3250
4017.856	3179
4019.443	3236
4021.028	3202
4022.614	3231
4024.199	3246
4025.785	3221
4027.37	3236
4028.953	3219
4030.536	3162
4032.12	3192
4033.704	3191
4035.287	3174
4036.869	3189
4038.45	3150
4040.032	3142
4041.613	3115
4043.195	3187
4044.776	3164
4046.356	3143
4047.935	3134
4049.515	3232
4051.095	3144
4052.674	3133
4054.251	3153
4055.829	3196
4057.406	3103
4058.985	3172
4060.562	3105
4062.139	3102
4063.715	2972
4065.29	3160
4066.865	3165
4068.442	3094
4070.016	3156
4071.59	3054
4073.164	3071
4074.738	3066
4076.312	3086
4077.885	3136
4079.458	3037
4081.03	3119
4082.602	3227
4084.173	3091
4085.745	3121
4087.315	3134
4088.886	3035
4090.456	3087
4092.026	3025
4093.596	3091
4095.165	3123
4096.734	3103
4098.301	3018
4099.869	3088
4101.437	3060
4103.006	3060
4104.572	3094
4106.139	3052
4107.704	3075
4109.27	3041
4110.837	3117
4112.401	3009
4113.966	3010
4115.53	3049
4117.094	3050
4118.659	3081
4120.223	3023
4121.785	3091
4123.347	2973
4124.909	3078
4126.471	2933
4128.034	2961
4129.595	3029
4131.155	3069
4132.716	2999
4134.275	2966
4135.836	3047
4137.395	3043
4138.955	2979
4140.513	3057
4142.071	3007
4143.628	3007
4145.188	2986
4146.745	2962
4148.302	2901
4149.858	2989
4151.414	2863
4152.971	3022
4154.526	2930
4156.081	2934
4157.635	2980
4159.189	2899
4160.745	2909
4162.298	2965
4163.852	2906
4165.405	2955
4166.957	2960
4168.51	2864
4170.063	2886
4171.614	2826
4173.166	2936
4174.717	2872
4176.267	2902
4177.817	2912
4179.368	2905
4180.917	2886
4182.466	2844
4184.016	2862
4185.564	2847
4187.112	2925
4188.66	2872
4190.207	2847
4191.754	2824
4193.301	2918
4194.848	2862
4196.394	2844
4197.94	2860
4199.484	2860
4201.03	2783
4202.575	2839
4204.12	2732
4205.663	2870
4207.207	2769
4208.75	2838
4210.292	2788
4211.836	2819
4213.378	2773
4214.92	2825
4216.46	2861
4218.002	2822
4219.544	2808
4221.083	2789
4222.625	2821
4224.164	2749
4225.703	2822
4227.244	2777
4228.782	2807
4230.32	2788
4231.857	2775
4233.395	2737
4234.933	2786
4236.471	2812
4238.007	2753
4239.542	2751
4241.078	2777
4242.614	2740
4244.15	2765
4245.685	2666
4247.219	2782
4248.753	2666
4250.287	2737
4251.82	2833
4253.354	2703
4254.887	2760
4256.419	2717
4257.951	2772
4259.483	2736
4261.016	2743
4262.547	2742
4264.078	2786
4265.608	2762
4267.137	2730
4268.668	2766
4270.197	2756
4271.727	2718
4273.254	2720
4274.783	2717
4276.311	2730
4277.84	2679
4279.366	2731
4280.894	2670
4282.42	2670
4283.946	2674
4285.473	2721
4286.998	2766
4288.523	2732
4290.047	2702
4291.572	2623
4293.096	2725
4294.622	2640
4296.144	2693
4297.668	2654
4299.19	2643
4300.713	2619
4302.236	2635
4303.758	2687
4305.279	2688
4306.799	2646
4308.321	2671
4309.842	2643
4311.361	2629
4312.882	2632
4314.401	2695
