400.0961	4289
402.6185	4222
405.1424	4252
407.6635	4256
410.1838	4272
412.7035	4300
415.2225	4291
417.7388	4287
420.2585	4446
422.7754	4401
425.2917	4421
427.8072	4393
430.3221	4518
432.8363	4484
435.3498	4480
437.8626	4504
440.3727	4563
442.8841	4500
445.3969	4427
447.907	4424
450.4142	4582
452.9229	4436
455.4289	4512
457.9362	4492
460.4449	4540
462.9488	4479
465.454	4404
467.9566	4484
470.4604	4459
472.9637	4435
475.4662	4475
477.966	4443
480.4671	4569
482.9656	4554
485.4633	4515
487.9645	4538
490.4608	4600
492.9566	4608
495.4536	4517
497.948	4636
500.4437	4629
502.9387	4641
505.431	4618
507.9226	4712
510.4136	4631
512.9079	4573
515.3975	4584
517.8864	4592
520.3746	4719
522.8622	4491
525.3491	4629
527.8394	4673
530.3249	4761
532.8098	4765
535.2939	4746
537.7774	4659
540.2623	4741
542.7444	4641
545.2259	4707
547.7067	4761
550.1868	4773
552.6683	4690
555.147	4687
557.6231	4625
560.1005	4765
562.5773	4682
565.0534	4760
567.5308	4677
570.0056	4729
572.4776	4778
574.951	4783
577.4237	4746
579.8978	4759
582.3671	4862
584.8378	4878
587.3079	4828
589.7773	4937
592.244	5010
594.714	4824
597.1793	4769
599.6461	4810
602.1121	4848
604.5754	4832
607.0421	4852
609.5042	4866
611.9675	4913
614.4282	4905
616.8902	4866
619.3515	4840
621.8122	4856
624.2702	4799
626.7296	4896
629.1863	4723
631.6423	4850
634.1017	4880
636.5563	4844
639.0104	4868
641.4658	4839
643.9185	4816
646.3725	4953
648.8239	4879
651.2766	4887
653.7266	4922
656.176	4988
658.6247	4871
661.0748	4906
663.5242	4908
665.9709	4918
668.417	4942
670.8624	5004
673.3092	4910
675.7533	4984
678.1968	4959
680.6395	5049
683.0817	4883
685.5251	5033
687.9659	5035
690.4061	5070
692.8456	4988
695.2844	5052
697.7226	5027
700.1621	5021
702.599	5099
705.0332	5194
707.4688	5074
709.9036	5068
712.3399	5084
714.7735	5178
717.2044	5139
719.6367	5161
722.0683	5118
724.4993	5257
726.9296	5208
729.3593	5122
731.7883	5262
734.2147	5235
736.6423	5210
739.0714	5175
741.4958	5183
743.9216	5266
746.3447	5233
748.7691	5276
751.1929	5259
753.616	5154
756.0366	5214
758.4584	5383
760.8776	5354
763.2982	5332
765.718	5398
768.1373	5329
770.5539	5361
772.9698	5485
775.3871	5351
777.8038	5338
780.2178	5387
782.6332	5447
785.0459	5342
787.458	5337
789.8714	5327
792.2842	5393
794.6943	5366
797.1038	5472
799.5127	5374
801.9209	5336
804.3324	5299
806.7393	5404
809.1456	5376
811.5513	5400
813.9562	5459
816.3625	5513
818.7663	5451
821.1693	5447
823.5718	5519
825.9735	5473
828.3746	5424
830.7771	5370
833.177	5506
835.5762	5441
837.9747	5511
840.3727	5470
842.772	5639
845.1666	5527
847.5626	5541
849.958	5500
852.3527	5613
854.7488	5599
857.1403	5687
859.5331	5586
861.9253	5648
864.3168	5645
866.7057	5561
869.098	5590
871.4876	5598
873.8746	5529
876.263	5512
878.6487	5523
881.0378	5457
883.4243	5468
885.8081	5615
888.1933	5608
890.5759	5504
892.9598	5581
895.343	5500
897.7256	5640
900.1057	5566
902.4871	5461
904.8659	5612
907.246	5606
909.6254	5665
912.0023	5738
914.3786	5764
916.7562	5908
919.1331	6013
921.5074	6142
923.8831	6206
926.2562	6210
928.6287	6049
931.0005	6141
933.3757	5944
935.7462	6002
938.1162	5933
940.4855	5871
942.8542	5824
945.2242	5914
947.5916	5921
949.9584	5936
952.3266	6041
954.6921	6212
957.0571	6289
959.4233	6325
961.787	6329
964.15	6431
966.5125	6321
968.8742	6161
971.2354	6065
973.5959	6080
975.9559	6039
978.3151	6063
980.6738	5940
983.0338	5923
985.3912	5971
987.7461	5891
990.1022	5915
992.4578	5846
994.8127	5878
997.1689	5806
999.5207	5897
1001.874	5851
1004.226	5828
1006.576	5739
1008.929	5767
1011.28	5838
1013.628	5739
1015.977	5816
1018.324	5808
1020.674	5768
1023.019	5802
1025.366	5723
1027.713	5760
1030.056	5761
1032.399	5817
1034.746	5858
1037.087	5856
1039.431	5778
1041.771	5735
1044.113	5815
1046.454	5825
1048.793	5809
1051.133	5783
1053.471	5754
1055.807	5712
1058.146	5824
1060.483	5775
1062.818	5794
1065.153	5978
1067.489	5920
1069.822	5872
1072.156	5999
1074.488	5998
1076.82	5961
1079.15	5787
1081.48	5851
1083.814	5931
1086.143	5925
1088.471	5820
1090.799	5887
1093.126	5797
1095.452	5918
1097.78	5975
1100.105	5854
1102.43	5860
1104.754	5961
1107.077	5867
1109.4	5955
1111.722	6018
1114.044	5933
1116.365	6000
1118.685	5893
1121.005	6155
1123.324	6084
1125.643	5950
1127.961	6058
1130.278	6067
1132.595	5970
1134.911	5977
1137.226	5942
1139.541	5992
1141.854	5959
1144.167	5888
1146.482	5978
1148.793	5997
1151.105	5954
1153.414	6036
1155.725	5874
1158.033	5918
1160.344	5948
1162.651	6000
1164.959	5891
1167.265	5958
1169.572	5973
1171.878	6098
1174.184	5968
1176.488	6127
1178.79	6206
1181.094	6188
1183.396	6020
1185.699	6115
1188.001	6042
1190.301	6005
1192.6	6009
1194.9	5895
1197.2	5981
1199.497	5935
1201.794	5850
1204.09	5990
1206.387	6086
1208.684	6037
1210.978	6016
1213.272	6036
1215.565	6041
1217.858	6080
1220.15	6046
1222.443	5925
1224.734	6064
1227.024	6058
1229.313	6058
1231.602	6043
1233.892	6116
1236.18	6149
1238.467	6109
1240.754	6163
1243.04	6140
1245.325	6304
1247.612	6236
1249.896	6267
1252.178	6321
1254.461	6293
1256.743	6326
1259.027	6186
1261.308	6254
1263.587	6326
1265.867	6282
1268.146	6297
1270.425	6372
1272.703	6331
1274.981	6415
1277.256	6352
1279.532	6358
1281.808	6212
1284.083	6182
1286.358	6362
1288.63	6228
1290.904	6142
1293.175	6269
1295.449	6266
1297.719	6238
1299.99	6227
1302.259	6081
1304.529	5944
1306.798	6214
1309.065	6242
1311.333	6179
1313.599	6242
1315.866	6277
1318.131	6282
1320.396	6226
1322.66	6145
1324.925	6143
1327.187	6275
1329.448	6354
1331.711	6377
1333.974	6423
1336.234	6314
1338.493	6350
1340.752	6220
1343.01	6234
1345.269	6109
1347.526	6169
1349.784	6213
1352.04	6270
1354.295	6211
1356.552	6256
1358.806	6199
1361.059	6206
1363.312	6206
1365.564	6192
1367.818	6233
1370.069	6214
1372.318	6345
1374.568	6207
1376.817	6231
1379.066	6244
1381.316	6247
1383.564	6290
1385.809	6363
1388.056	6412
1390.301	6492
1392.549	6601
1394.793	6667
1397.036	6790
1399.279	6686
1401.522	6748
1403.763	6752
1406.007	6921
1408.248	6767
1410.487	6659
1412.727	6816
1414.965	6688
1417.205	6628
1419.442	6590
1421.68	6583
1423.915	6626
1426.152	6523
1428.388	6659
1430.623	6566
1432.857	6580
1435.091	6536
1437.323	6566
1439.556	6640
1441.789	6597
1444.019	6707
1446.25	6715
1448.48	6522
1450.708	6555
1452.938	6708
1455.167	6664
1457.394	6693
1459.62	6589
1461.846	6695
1464.073	6554
1466.299	6643
1468.523	6478
1470.746	6340
1472.969	6408
1475.191	6366
1477.415	6443
1479.636	6458
1481.858	6253
1484.078	6415
1486.298	6489
1488.518	6322
1490.736	6360
1492.954	6240
1495.169	6251
1497.386	6257
1499.602	6312
1501.819	6276
1504.034	6274
1506.248	6213
1508.462	6211
1510.675	6172
1512.888	6243
1515.1	6251
1517.311	6216
1519.522	6305
1521.732	6255
1523.942	6316
1526.151	6269
1528.36	6230
1530.566	6258
1532.773	6150
1534.98	6365
1537.187	6162
1539.392	6254
1541.596	6280
1543.801	6300
1546.005	6310
1548.208	6349
1550.411	6378
1552.612	6398
1554.814	6373
1557.013	6263
1559.212	6396
1561.414	6377
1563.612	6468
1565.811	6374
1568.007	6464
1570.203	6367
1572.403	6417
1574.598	6413
1576.792	6427
1578.988	6557
1581.181	6507
1583.376	6427
1585.568	6496
1587.761	6362
1589.952	6394
1592.143	6399
1594.333	6430
1596.524	6509
1598.715	6483
1600.903	6466
1603.091	6431
1605.278	6533
1607.466	6508
1609.652	6385
1611.838	6440
1614.023	6453
1616.207	6460
1618.391	6621
1620.576	6472
1622.759	6451
1624.941	6520
1627.123	6519
1629.304	6644
1631.484	6447
1633.664	6478
1635.844	6534
1638.022	6482
1640.201	6508
1642.38	6378
1644.556	6574
1646.732	6466
1648.908	6413
1651.084	6503
1653.257	6523
1655.433	6518
1657.607	6482
1659.779	6608
1661.951	6525
1664.122	6564
1666.295	6588
1668.467	6724
1670.635	6527
1672.805	6652
1674.973	6542
1677.142	6559
1679.31	6519
1681.478	6515
1683.644	6555
1685.81	6570
1687.975	6505
1690.142	6682
1692.305	6528
1694.468	6544
1696.632	6487
1698.794	6488
1700.957	6486
1703.119	6459
1705.279	6477
1707.439	6461
1709.598	6456
1711.758	6388
1713.917	6455
1716.075	6404
1718.231	6508
1720.388	6366
1722.543	6519
1724.702	6511
1726.856	6414
1729.01	6516
1731.164	6435
1733.317	6569
1735.471	6418
1737.623	6470
1739.774	6441
1741.925	6442
1744.075	6367
1746.225	6389
1748.376	6375
1750.524	6444
1752.672	6499
1754.82	6426
1756.965	6553
1759.113	6399
1761.259	6466
1763.405	6463
1765.549	6496
1767.694	6406
1769.836	6479
1771.981	6537
1774.123	6459
1776.264	6603
1778.405	6569
1780.546	6543
1782.687	6400
1784.827	6508
1786.966	6585
1789.103	6489
1791.242	6491
1793.381	6425
1795.517	6535
1797.653	6576
1799.788	6531
1801.923	6479
1804.057	6550
1806.193	6511
1808.326	6508
1810.457	6536
1812.59	6597
1814.721	6529
1816.855	6519
1818.984	6583
1821.113	6479
1823.244	6505
1825.372	6443
1827.499	6425
1829.63	6436
1831.756	6463
1833.882	6488
1836.007	6404
1838.132	6448
1840.26	6409
1842.384	6509
1844.507	6486
1846.63	6478
1848.752	6514
1850.875	6439
1852.996	6389
1855.118	6476
1857.238	6402
1859.358	6422
1861.477	6424
1863.597	6476
1865.715	6449
1867.832	6367
1869.948	6502
1872.064	6350
1874.181	6375
1876.297	6393
1878.411	6434
1880.526	6457
1882.639	6451
1884.752	6451
1886.865	6444
1888.977	6503
1891.089	6380
1893.2	6436
1895.308	6480
1897.42	6403
1899.53	6471
1901.639	6503
1903.745	6512
1905.853	6593
1907.962	6458
1910.067	6505
1912.174	6456
1914.278	6451
1916.383	6529
1918.486	6502
1920.592	6563
1922.694	6542
1924.797	6617
1926.898	6498
1929	6607
1931.102	6505
1933.203	6542
1935.301	6511
1937.401	6593
1939.499	6494
1941.598	6489
1943.697	6511
1945.793	6577
1947.888	6655
1949.985	6549
1952.08	6490
1954.176	6538
1956.269	6412
1958.364	6494
1960.457	6570
1962.549	6551
1964.642	6416
1966.733	6609
1968.823	6568
1970.913	6320
1973.005	6591
1975.093	6454
1977.184	6463
1979.271	6552
1981.359	6532
1983.446	6503
1985.532	6529
1987.619	6589
1989.705	6458
1991.789	6434
1993.874	6480
1995.956	6396
1998.041	6410
2000.123	6495
2002.206	6552
2004.287	6529
2006.368	6460
2008.449	6427
2010.529	6414
2012.609	6454
2014.688	6501
2016.766	6350
2018.843	6425
2020.922	6400
2022.999	6574
2025.074	6393
2027.15	6400
2029.225	6577
2031.299	6435
2033.375	6472
2035.447	6447
2037.52	6291
2039.592	6554
2041.664	6440
2043.736	6581
2045.807	6416
2047.876	6479
2049.947	6440
2052.015	6503
2054.086	6507
2056.153	6444
2058.221	6490
2060.288	6507
2062.353	6442
2064.42	6462
2066.486	6473
2068.55	6485
2070.614	6447
2072.678	6589
2074.741	6518
2076.805	6444
2078.866	6466
2080.929	6492
2082.99	6549
2085.049	6471
2087.109	6508
2089.17	6510
2091.228	6340
2093.286	6411
2095.344	6485
2097.4	6402
2099.46	6401
2101.516	6453
2103.572	6431
2105.626	6421
2107.679	6432
2109.735	6566
2111.788	6501
2113.841	6505
2115.894	6416
2117.945	6460
2119.997	6443
2122.049	6486
2124.1	6425
2126.148	6590
2128.197	6369
2130.246	6509
2132.296	6409
2134.342	6447
2136.39	6393
2138.437	6519
2140.483	6434
2142.527	6447
2144.574	6419
2146.619	6446
2148.661	6437
2150.705	6353
2152.747	6496
2154.792	6321
2156.832	6361
2158.874	6421
2160.915	6259
2162.954	6444
2164.995	6391
2167.034	6371
2169.072	6370
2171.111	6483
2173.148	6289
2175.186	6450
2177.223	6404
2179.258	6333
2181.294	6377
2183.328	6383
2185.362	6346
2187.398	6344
2189.431	6174
2191.463	6440
2193.495	6215
2195.528	6359
2197.56	6242
2199.59	6391
2201.62	6338
2203.649	6278
2205.678	6365
2207.708	6212
2209.737	6309
2211.764	6176
2213.791	6222
2215.817	6312
2217.843	6220
2219.87	6236
2221.895	6220
2223.919	6261
2225.942	6194
2227.966	6353
2229.988	6251
2232.012	6302
2234.032	6309
2236.054	6275
2238.074	6255
2240.095	6303
2242.116	6301
2244.135	6289
2246.153	6194
2248.171	6254
2250.188	6288
2252.208	6197
2254.223	6253
2256.239	6303
2258.255	6361
2260.269	6209
2262.283	6262
2264.3	6281
2266.312	6299
2268.325	6363
2270.336	6229
2272.349	6259
2274.362	6184
2276.372	6291
2278.383	6237
2280.392	6202
2282.402	6269
2284.409	6110
2286.418	6248
2288.427	6252
2290.433	6311
2292.441	6368
2294.446	6085
2296.453	6233
2298.459	6298
2300.463	6252
2302.466	6173
2304.471	6110
2306.475	6185
2308.477	6263
2310.478	6182
2312.481	6389
2314.481	6179
2316.481	6260
2318.482	6308
2320.482	6234
2322.48	6090
2324.48	6193
2326.478	6196
2328.476	6233
2330.473	6129
2332.469	6190
2334.465	6239
2336.46	6232
2338.454	6058
2340.45	6225
2342.444	6054
2344.437	6096
2346.43	6182
2348.421	6156
2350.414	6063
2352.405	6128
2354.396	6065
2356.386	6101
2358.376	6099
2360.366	6163
2362.355	6118
2364.343	6162
2366.331	6085
2368.317	6141
2370.304	6095
2372.292	6043
2374.278	6071
2376.262	6022
2378.247	6172
2380.23	6011
2382.216	6164
2384.199	6059
2386.181	6069
2388.163	6164
2390.144	5996
2392.127	6034
2394.107	6025
2396.087	6000
2398.066	5962
2400.046	6061
2402.023	5967
2404.004	6146
2405.981	6073
2407.957	6076
2409.934	6072
2411.91	6004
2413.886	6118
2415.862	6046
2417.836	5996
2419.809	6030
2421.784	6068
2423.756	6044
2425.73	5946
2427.701	6031
2429.672	5996
2431.644	6056
2433.615	6080
2435.586	6018
2437.555	5986
2439.523	6016
2441.491	6038
2443.459	6069
2445.428	6028
2447.395	6013
2449.361	5971
2451.327	6057
2453.292	5966
2455.257	5926
2457.223	5985
2459.187	6043
2461.15	5909
2463.113	5886
2465.076	5926
2467.039	5995
2468.999	5987
2470.96	5960
2472.921	5900
2474.881	6011
2476.841	5928
2478.8	5834
2480.759	5890
2482.717	5884
2484.675	5946
2486.63	5971
2488.589	5951
2490.545	5858
2492.5	6027
2494.455	5913
2496.408	5854
2498.364	5835
2500.318	5842
2502.27	5878
2504.223	5859
2506.174	5896
2508.126	5907
2510.078	5877
2512.03	5854
2513.979	5837
2515.927	5982
2517.877	5909
2519.826	5977
2521.775	5818
2523.722	5876
2525.668	5874
2527.616	5858
2529.561	5916
2531.508	5816
2533.452	5866
2535.398	5974
2537.342	5847
2539.284	5750
2541.229	5814
2543.173	5875
2545.114	5908
2547.055	5899
2548.996	5858
2550.938	5819
2552.878	5932
2554.817	5913
2556.756	5880
2558.695	5728
2560.633	5886
2562.572	5884
2564.509	5934
2566.445	5980
2568.382	5926
2570.317	5754
2572.254	5865
2574.189	5898
2576.123	5842
2578.057	5829
2579.99	5778
2581.923	5824
2583.855	5865
2585.788	5920
2587.719	5842
2589.65	5856
2591.579	5882
2593.511	5934
2595.44	5868
2597.37	5853
2599.297	5919
2601.225	5858
2603.153	5819
2605.08	5844
2607.007	5906
2608.932	5853
2610.858	5817
2612.782	5854
2614.709	5931
2616.632	5845
2618.556	5887
2620.478	5909
2622.401	5852
2624.324	6013
2626.247	5909
2628.167	5813
2630.088	5895
2632.008	5981
2633.928	5899
2635.848	5845
2637.766	5906
2639.684	5887
2641.603	5828
2643.519	5901
2645.437	5817
2647.353	5751
2649.27	5805
2651.184	5886
2653.099	5810
2655.014	5827
2656.928	5815
2658.842	5861
2660.755	5765
2662.667	5857
2664.579	5831
2666.491	5840
2668.402	5737
2670.312	5901
2672.222	5811
2674.132	5818
2676.042	5871
2677.951	5877
2679.859	5714
2681.766	5804
2683.674	5733
2685.582	5823
2687.488	5777
2689.392	5754
2691.298	5787
2693.202	5806
2695.107	5794
2697.012	5740
2698.914	5738
2700.817	5704
2702.72	5635
2704.622	5834
2706.524	5728
2708.425	5844
2710.326	5719
2712.225	5798
2714.125	5573
2716.024	5833
2717.923	5718
2719.822	5651
2721.719	5729
2723.616	5644
2725.512	5798
2727.41	5770
2729.305	5761
2731.201	5719
2733.095	5768
2734.99	5727
2736.884	5703
2738.778	5840
2740.67	5764
2742.562	5720
2744.455	5745
2746.346	5707
2748.238	5799
2750.129	5818
2752.018	5745
2753.907	5619
2755.797	5740
2757.687	5788
2759.575	5708
2761.462	5769
2763.349	5728
2765.237	5625
2767.124	5768
2769.009	5715
2770.894	5661
2772.779	5774
2774.663	5667
2776.547	5789
2778.431	5663
2780.314	5683
2782.197	5742
2784.078	5773
2785.96	5706
2787.842	5691
2789.723	5739
2791.603	5568
2793.483	5685
2795.362	5750
2797.241	5688
2799.121	5736
2800.997	5758
2802.874	5540
2804.751	5719
2806.628	5705
2808.506	5711
2810.38	5663
2812.255	5636
2814.13	5642
2816.003	5678
2817.878	5708
2819.752	5753
2821.623	5686
2823.496	5687
2825.368	5795
2827.238	5640
2829.111	5627
2830.98	5688
2832.851	5714
2834.719	5823
2836.589	5621
2838.458	5749
2840.327	5719
2842.193	5752
2844.061	5726
2845.927	5770
2847.794	5692
2849.66	5823
2851.525	5708
2853.39	5867
2855.254	5844
2857.117	5831
2858.983	5865
2860.845	5804
2862.707	5915
2864.569	5987
2866.431	5904
2868.293	5852
2870.154	6096
2872.013	6053
2873.873	6091
2875.733	6009
2877.592	6151
2879.451	6145
2881.309	6356
2883.166	6287
2885.022	6387
2886.879	6308
2888.736	6382
2890.591	6514
2892.446	6382
2894.301	6497
2896.155	6560
2898.009	6532
2899.863	6407
2901.716	6465
2903.568	6405
2905.419	6348
2907.27	6326
2909.123	6439
2910.973	6486
2912.824	6522
2914.673	6569
2916.521	6470
2918.372	6499
2920.22	6551
2922.067	6551
2923.914	6619
2925.761	6592
2927.607	6679
2929.455	6672
2931.301	6739
2933.144	6640
2934.99	6609
2936.833	6642
2938.678	6734
2940.522	6812
2942.364	6977
2944.207	7241
2946.048	7363
2947.891	7384
2949.731	7486
2951.571	7580
2953.412	7534
2955.25	7408
2957.09	7469
2958.93	7312
2960.767	7313
2962.606	7260
2964.443	7112
2966.279	7222
2968.116	7023
2969.953	6896
2971.788	6800
2973.623	6618
2975.457	6621
2977.292	6452
2979.127	6424
2980.959	6349
2982.792	6138
2984.624	6176
2986.455	6182
2988.288	6045
2990.119	6052
2991.949	5964
2993.779	5979
2995.608	5894
2997.439	5896
2999.268	5831
3001.096	5873
3002.923	5724
3004.751	5741
3006.578	5783
3008.406	5815
3010.232	5726
3012.057	5590
3013.883	5609
3015.706	5646
3017.532	5579
3019.356	5542
3021.179	5544
3023.002	5530
3024.823	5442
3026.646	5549
3028.469	5577
3030.289	5531
3032.11	5452
3033.93	5513
3035.749	5503
3037.57	5439
3039.39	5394
3041.207	5385
3043.026	5502
3044.842	5413
3046.661	5391
3048.477	5376
3050.294	5418
3052.109	5408
3053.925	5500
3055.739	5378
3057.555	5421
3059.368	5476
3061.181	5356
3062.995	5480
3064.807	5400
3066.62	5397
3068.433	5353
3070.243	5376
3072.054	5262
3073.865	5382
3075.675	5312
3077.485	5389
3079.293	5273
3081.102	5234
3082.911	5278
3084.719	5187
3086.527	5336
3088.333	5265
3090.139	5212
3091.945	5252
3093.75	5291
3095.557	5187
3097.361	5302
3099.165	5311
3100.969	5176
3102.772	5215
3104.575	5237
3106.379	5245
3108.181	5215
3109.982	5221
3111.783	5238
3113.584	5175
3115.386	5113
3117.186	5211
3118.985	5161
3120.783	5155
3122.582	5219
3124.381	5240
3126.179	5185
3127.975	5153
3129.772	5163
3131.569	5163
3133.365	5133
3135.161	5066
3136.956	5159
3138.751	5168
3140.544	4979
3142.338	5051
3144.132	5166
3145.925	5186
3147.717	5027
3149.509	5097
3151.301	5058
3153.091	5188
3154.884	5138
3156.673	5096
3158.462	5095
3160.252	5067
3162.041	5151
3163.831	5010
3165.618	5090
3167.405	4994
3169.193	5085
3170.979	5110
3172.767	5043
3174.553	5049
3176.338	5008
3178.123	5030
3179.907	4961
3181.692	5079
3183.477	4983
3185.259	4979
3187.042	4961
3188.824	4974
3190.607	4989
3192.389	4916
3194.17	5025
3195.951	5042
3197.73	4917
3199.51	5044
3201.289	4949
3203.07	5078
3204.848	4987
3206.626	4952
3208.403	5011
3210.18	5025
3211.959	4915
3213.735	5038
3215.511	5040
3217.285	4961
3219.06	4996
3220.836	4975
3222.611	5011
3224.384	4961
3226.158	4905
3227.929	4966
3229.702	4993
3231.476	4986
3233.248	5033
3235.018	4985
3236.789	4985
3238.56	4933
3240.33	4930
3242.1	4948
3243.869	4954
3245.637	4864
3247.405	4932
3249.172	4974
3250.941	5012
3252.707	4906
3254.474	4962
3256.24	4976
3258.006	4934
3259.772	4954
3261.537	4915
3263.301	4964
3265.065	4903
3266.828	4988
3268.592	4909
3270.355	4959
3272.117	4935
3273.878	4859
3275.64	4965
3277.401	4964
3279.162	5035
3280.922	4945
3282.682	4804
3284.441	4993
3286.199	4894
3287.959	4996
3289.716	5013
3291.475	4917
3293.232	4892
3294.988	4876
3296.744	4845
3298.501	4963
3300.256	4871
3302.011	4853
3303.766	4948
3305.52	4913
3307.275	4936
3309.028	4907
3310.781	4861
3312.533	4990
3314.285	4882
3316.038	4824
3317.789	4939
3319.54	4842
3321.289	4897
3323.039	4850
3324.789	4848
3326.539	4901
3328.288	4765
3330.035	4812
3331.783	4798
3333.531	4852
3335.28	4909
3337.025	4755
3338.771	4760
3340.518	4819
3342.262	4754
3344.009	4858
3345.753	4829
3347.497	4802
3349.24	4707
3350.983	4758
3352.726	4763
3354.469	4805
3356.212	4797
3357.952	4804
3359.694	4883
3361.434	4749
3363.176	4763
3364.916	4732
3366.654	4766
3368.394	4810
3370.132	4707
3371.871	4719
3373.61	4719
3375.346	4744
3377.083	4693
3378.82	4609
3380.556	4738
3382.292	4648
3384.027	4820
3385.763	4676
3387.497	4637
3389.231	4774
3390.965	4677
3392.698	4767
3394.431	4531
3396.164	4723
3397.896	4750
3399.627	4615
3401.36	4651
3403.09	4636
3404.82	4680
3406.55	4733
3408.279	4574
3410.01	4712
3411.738	4612
3413.467	4586
3415.194	4638
3416.92	4594
3418.647	4629
3420.375	4537
3422.102	4689
3423.827	4645
3425.553	4600
3427.277	4609
3429.003	4515
3430.727	4478
3432.451	4595
3434.173	4519
3435.896	4615
3437.62	4483
3439.343	4542
3441.063	4587
3442.785	4508
3444.505	4543
3446.226	4488
3447.948	4588
3449.666	4495
3451.386	4477
3453.104	4521
3454.823	4503
3456.541	4479
3458.259	4445
3459.976	4443
3461.693	4462
3463.408	4450
3465.125	4453
3466.841	4497
3468.556	4333
3470.271	4391
3471.985	4354
3473.698	4390
3475.414	4511
3477.126	4382
3478.838	4504
3480.55	4366
3482.263	4450
3483.975	4313
3485.686	4286
3487.396	4375
3489.106	4337
3490.817	4350
3492.526	4330
3494.236	4374
3495.944	4374
3497.652	4468
3499.359	4311
3501.066	4429
3502.775	4275
3504.481	4360
3506.187	4294
3507.893	4212
3509.598	4301
3511.304	4235
3513.009	4314
3514.713	4296
3516.417	4318
3518.12	4203
3519.821	4271
3521.525	4355
3523.228	4251
3524.929	4268
3526.631	4152
3528.33	4194
3530.032	4228
3531.733	4228
3533.433	4239
3535.131	4217
3536.83	4051
3538.529	4214
3540.227	4165
3541.925	4186
3543.623	4188
3545.319	4226
3547.016	4149
3548.712	4117
3550.408	4049
3552.103	4165
3553.798	4171
3555.491	4227
3557.188	4083
3558.88	4087
3560.574	4094
3562.266	4153
3563.959	4113
3565.651	4111
3567.343	4146
3569.035	4137
3570.725	4156
3572.415	4133
3574.106	4184
3575.797	4151
3577.485	4056
3579.174	4104
3580.863	4040
3582.551	4119
3584.238	4128
3585.926	4122
3587.613	4028
3589.3	4068
3590.986	3984
3592.671	4039
3594.357	3990
3596.042	3992
3597.726	4104
3599.41	4003
3601.094	4134
3602.778	3945
3604.461	3939
3606.143	3980
3607.825	3927
3609.507	3956
3611.188	3984
3612.87	4030
3614.551	3929
3616.229	3898
3617.909	3976
3619.589	3985
3621.269	3996
3622.948	3902
3624.625	3947
3626.302	3935
3627.98	3898
3629.657	3928
3631.334	3789
3633.01	3845
3634.686	3872
3636.361	3868
3638.036	3831
3639.712	3926
3641.385	3855
3643.06	3918
3644.732	3864
3646.405	3889
3648.08	3895
3649.751	3777
3651.424	3768
3653.094	3848
3654.766	3876
3656.436	3889
3658.106	3722
3659.777	3813
3661.446	3841
3663.115	3811
3664.783	3826
3666.452	3875
3668.121	3804
3669.788	3781
3671.454	3812
3673.121	3855
3674.789	3747
3676.455	3685
3678.12	3888
3679.784	3761
3681.45	3793
3683.114	3732
3684.779	3785
3686.442	3797
3688.105	3817
3689.768	3767
3691.43	3704
3693.093	3755
3694.754	3851
3696.415	3720
3698.076	3744
3699.736	3809
3701.396	3803
3703.057	3790
3704.716	3658
3706.375	3744
3708.034	3779
3709.692	3641
3711.351	3772
3713.008	3824
3714.665	3753
3716.321	3722
3717.977	3692
3719.634	3623
3721.29	3725
3722.945	3748
3724.598	3671
3726.253	3709
3727.907	3740
3729.561	3679
3731.214	3649
3732.867	3677
3734.518	3685
3736.171	3652
3737.824	3674
3739.474	3656
3741.125	3696
3742.775	3601
3744.425	3627
3746.074	3640
3747.725	3650
3749.373	3672
3751.022	3674
3752.669	3637
3754.318	3656
3755.966	3673
3757.612	3627
3759.259	3631
3760.905	3643
3762.55	3663
3764.197	3674
3765.842	3528
3767.486	3630
3769.131	3615
3770.774	3666
3772.417	3518
3774.061	3520
3775.705	3614
3777.347	3557
3778.988	3538
3780.629	3649
3782.271	3620
3783.912	3625
3785.552	3582
3787.192	3550
3788.831	3560
3790.472	3550
3792.112	3593
3793.75	3519
3795.388	3535
3797.024	3540
3798.661	3542
3800.3	3579
3801.936	3553
3803.572	3552
3805.208	3485
3806.844	3592
3808.48	3543
3810.115	3467
3811.748	3490
3813.382	3571
3815.016	3478
3816.649	3492
3818.283	3532
3819.914	3491
3821.547	3468
3823.178	3479
3824.809	3478
3826.441	3577
3828.072	3402
3829.701	3579
3831.331	3511
3832.96	3323
3834.591	3502
3836.219	3456
3837.847	3443
3839.475	3440
3841.102	3445
3842.729	3483
3844.357	3386
3845.984	3413
3847.609	3444
3849.234	3400
3850.86	3410
3852.485	3403
3854.11	3409
3855.734	3419
3857.357	3399
3858.981	3467
3860.603	3427
3862.227	3436
3863.848	3415
3865.471	3391
3867.092	3441
3868.713	3444
3870.334	3335
3871.954	3434
3873.575	3391
3875.194	3380
3876.813	3365
3878.433	3304
3880.051	3345
3881.669	3347
3883.286	3384
3884.904	3280
3886.52	3322
3888.138	3311
3889.754	3337
3891.37	3369
3892.985	3338
3894.6	3321
3896.216	3412
3897.831	3345
3899.444	3290
3901.058	3342
3902.67	3304
3904.283	3362
3905.897	3336
3907.509	3348
3909.121	3394
3910.731	3292
3912.342	3355
3913.954	3354
3915.563	3327
3917.174	3327
3918.783	3279
3920.391	3301
3922.002	3251
3923.611	3275
3925.218	3339
3926.826	3360
3928.432	3277
3930.039	3293
3931.647	3376
3933.253	3283
3934.859	3264
3936.464	3303
3938.068	3250
3939.675	3332
3941.278	3222
3942.883	3310
3944.486	3170
3946.089	3228
3947.692	3302
3949.295	3232
3950.898	3269
3952.499	3240
3954.1	3296
3955.7	3243
3957.303	3217
3958.903	3278
3960.502	3238
3962.101	3203
3963.7	3268
3965.301	3241
3966.899	3247
3968.497	3221
3970.094	3222
3971.691	3206
3973.288	3189
3974.885	3248
3976.481	3136
3978.077	3239
3979.672	3148
3981.267	3188
3982.863	3254
3984.457	3200
3986.051	3150
3987.645	3196
3989.238	3107
3990.831	3116
3992.425	3138
3994.017	3163
3995.607	3123
3997.199	3209
3998.79	3136
4000.382	3134
4001.973	3153
4003.561	3143
4005.151	3061
4006.741	3122
4008.331	3193
4009.918	3130
4011.507	3031
4013.095	3070
4014.681	3033
4016.269	3129
4017.856	3136
4019.443	3037
4021.028	3111
4022.614	3080
4024.199	3122
4025.785	3035
4027.37	3069
4028.953	3043
4030.536	3097
4032.12	3124
4033.704	3085
4035.287	3012
4036.869	3031
4038.45	2978
4040.032	3043
4041.613	3011
4043.195	3019
4044.776	2980
4046.356	3025
4047.935	2991
4049.515	3089
4051.095	3025
4052.674	2996
4054.251	3051
4055.829	2989
4057.406	3019
4058.985	3060
4060.562	2999
4062.139	2994
4063.715	2979
4065.29	3034
4066.865	3030
4068.442	2998
4070.016	2968
4071.59	3019
4073.164	2929
4074.738	3009
4076.312	2985
4077.885	2977
4079.458	3023
4081.03	2938
4082.602	2867
4084.173	2976
4085.745	2938
4087.315	2983
4088.886	2910
4090.456	2955
4092.026	2958
4093.596	2926
4095.165	2985
4096.734	2893
4098.301	2937
4099.869	2942
4101.437	2921
4103.006	2978
4104.572	2969
4106.139	2922
4107.704	2970
4109.27	2864
4110.837	2884
4112.401	2917
4113.966	2854
4115.53	2947
4117.094	2918
4118.659	2941
4120.223	2946
4121.785	2962
4123.347	2899
4124.909	2862
4126.471	2898
4128.034	2830
4129.595	2925
4131.155	2858
4132.716	2886
4134.275	2866
4135.836	2954
4137.395	2762
4138.955	2873
4140.513	2849
4142.071	2856
4143.628	2877
4145.188	2883
4146.745	2845
4148.302	2780
4149.858	2795
4151.414	2742
4152.971	2911
4154.526	2813
4156.081	2852
4157.635	2734
4159.189	2716
4160.745	2808
4162.298	2820
4163.852	2778
4165.405	2762
4166.957	2759
4168.51	2723
4170.063	2790
4171.614	2830
4173.166	2785
4174.717	2751
4176.267	2764
4177.817	2755
4179.368	2758
4180.917	2764
4182.466	2760
4184.016	2763
4185.564	2676
4187.112	2736
4188.66	2741
4190.207	2728
4191.754	2705
4193.301	2762
4194.848	2728
4196.394	2782
4197.94	2724
4199.484	2735
4201.03	2748
4202.575	2722
4204.12	2781
4205.663	2752
4207.207	2636
4208.75	2702
4210.292	2666
4211.836	2712
4213.378	2670
4214.92	2711
4216.46	2675
4218.002	2691
4219.544	2698
4221.083	2736
4222.625	2700
4224.164	2692
4225.703	2707
4227.244	2664
4228.782	2667
4230.32	2696
4231.857	2636
4233.395	2597
4234.933	2596
4236.471	2669
4238.007	2706
4239.542	2696
4241.078	2694
4242.614	2634
4244.15	2616
4245.685	2669
4247.219	2649
4248.753	2676
4250.287	2610
4251.82	2678
4253.354	2668
4254.887	2584
4256.419	2616
4257.951	2644
4259.483	2640
4261.016	2664
4262.547	2612
4264.078	2625
4265.608	2604
4267.137	2542
4268.668	2625
4270.197	2624
4271.727	2657
4273.254	2572
4274.783	2561
4276.311	2620
4277.84	2525
4279.366	2587
4280.894	2619
4282.42	2642
4283.946	2627
4285.473	2617
4286.998	2601
4288.523	2569
4290.047	2604
4291.572	2593
4293.096	2520
4294.622	2571
4296.144	2631
4297.668	2609
4299.19	2576
4300.713	2590
4302.236	2597
4303.758	2506
4305.279	2500
4306.799	2567
4308.321	2533
4309.842	2599
4311.361	2563
4312.882	2538
4314.401	2519
