400.0961	6829
402.6185	6735
405.1424	6670
407.6635	6878
410.1838	6850
412.7035	6794
415.2225	7007
417.7388	7134
420.2585	7025
422.7754	7179
425.2917	7113
427.8072	7194
430.3221	7254
432.8363	7152
435.3498	7291
437.8626	7188
440.3727	7212
442.8841	7260
445.3969	7345
447.907	7330
450.4142	7316
452.9229	7256
455.4289	7305
457.9362	7342
460.4449	7283
462.9488	7248
465.454	7263
467.9566	7317
470.4604	7362
472.9637	7374
475.4662	7416
477.966	7405
480.4671	7398
482.9656	7396
485.4633	7403
487.9645	7568
490.4608	7445
492.9566	7566
495.4536	7427
497.948	7487
500.4437	7596
502.9387	7528
505.431	7556
507.9226	7613
510.4136	7572
512.9079	7593
515.3975	7554
517.8864	7484
520.3746	7532
522.8622	7655
525.3491	7577
527.8394	7545
530.3249	7632
532.8098	7638
535.2939	7766
537.7774	7755
540.2623	7516
542.7444	7713
545.2259	7677
547.7067	7743
550.1868	7748
552.6683	7610
555.147	7602
557.6231	7816
560.1005	7796
562.5773	7868
565.0534	7865
567.5308	7749
570.0056	7867
572.4776	7750
574.951	7860
577.4237	7877
579.8978	8109
582.3671	8088
584.8378	8051
587.3079	8027
589.7773	7882
592.244	8029
594.714	7899
597.1793	7951
599.6461	7885
602.1121	7862
604.5754	7895
607.0421	7850
609.5042	8030
611.9675	7976
614.4282	7866
616.8902	7917
619.3515	8002
621.8122	7876
624.2702	8008
626.7296	7916
629.1863	7914
631.6423	8030
634.1017	8069
636.5563	7910
639.0104	7895
641.4658	7924
643.9185	8058
646.3725	8061
648.8239	7958
651.2766	8219
653.7266	8038
656.176	8225
658.6247	8168
661.0748	8051
663.5242	8163
665.9709	8057
668.417	8112
670.8624	8128
673.3092	8225
675.7533	8267
678.1968	8189
680.6395	8264
683.0817	8193
685.5251	8207
687.9659	8359
690.4061	8376
692.8456	8314
695.2844	8245
697.7226	8366
700.1621	8324
702.599	8318
705.0332	8382
707.4688	8180
709.9036	8481
712.3399	8546
714.7735	8360
717.2044	8446
719.6367	8501
722.0683	8476
724.4993	8431
726.9296	8538
729.3593	8501
731.7883	8613
734.2147	8629
736.6423	8628
739.0714	8763
741.4958	8759
743.9216	8820
746.3447	8650
748.7691	8706
751.1929	8761
753.616	8773
756.0366	8690
758.4584	8861
760.8776	8890
763.2982	8855
765.718	8931
768.1373	8924
770.5539	8908
772.9698	8820
775.3871	8945
777.8038	8956
780.2178	8980
782.6332	9012
785.0459	8858
787.458	8958
789.8714	8881
792.2842	8866
794.6943	8813
797.1038	8883
799.5127	8915
801.9209	9064
804.3324	8962
806.7393	8817
809.1456	8961
811.5513	8989
813.9562	9145
816.3625	9060
818.7663	9043
821.1693	9135
823.5718	9052
825.9735	8903
828.3746	8975
830.7771	8966
833.177	8918
835.5762	9085
837.9747	9147
840.3727	9190
842.772	9010
845.1666	9096
847.5626	9120
849.958	8947
852.3527	9250
854.7488	9266
857.1403	9278
859.5331	9313
861.9253	9094
864.3168	9217
866.7057	9202
869.098	9191
871.4876	9244
873.8746	9146
876.263	9327
878.6487	9247
881.0378	9101
883.4243	9155
885.8081	9010
888.1933	9178
890.5759	9143
892.9598	9125
895.343	9215
897.7256	9230
900.1057	9119
902.4871	9114
904.8659	9254
907.246	9291
909.6254	9287
912.0023	9327
914.3786	9327
916.7562	9444
919.1331	9413
921.5074	9687
923.8831	9502
926.2562	9639
928.6287	9676
931.0005	9574
933.3757	9730
935.7462	9619
938.1162	9773
940.4855	9794
942.8542	9714
945.2242	9907
947.5916	9888
949.9584	10016
952.3266	10355
954.6921	10526
957.0571	10798
959.4233	11099
961.787	11313
964.15	11175
966.5125	10949
968.8742	10533
971.2354	10314
973.5959	9915
975.9559	10007
978.3151	9622
980.6738	9766
983.0338	9712
985.3912	9593
987.7461	9602
990.1022	9508
992.4578	9575
994.8127	9479
997.1689	9471
999.5207	9444
1001.874	9585
1004.226	9544
1006.576	9544
1008.929	9604
1011.28	9617
1013.628	9570
1015.977	9597
1018.324	9561
1020.674	9621
1023.019	9607
1025.366	9662
1027.713	9696
1030.056	9739
1032.399	9636
1034.746	9640
1037.087	9686
1039.431	9698
1041.771	9692
1044.113	9671
1046.454	9627
1048.793	9718
1051.133	9693
1053.471	9712
1055.807	9808
1058.146	9827
1060.483	9699
1062.818	9866
1065.153	9707
1067.489	9777
1069.822	9875
1072.156	9960
1074.488	9871
1076.82	9893
1079.15	9883
1081.48	9758
1083.814	9641
1086.143	9779
1088.471	9803
1090.799	9882
1093.126	9759
1095.452	9772
1097.78	9725
1100.105	9805
1102.43	9766
1104.754	9677
1107.077	9809
1109.4	9802
1111.722	9851
1114.044	9698
1116.365	9733
1118.685	9846
1121.005	9807
1123.324	9792
1125.643	9837
1127.961	9803
1130.278	9818
1132.595	9858
1134.911	9799
1137.226	9794
1139.541	9909
1141.854	9878
1144.167	9853
1146.482	9783
1148.793	9851
1151.105	9960
1153.414	9697
1155.725	9860
1158.033	9888
1160.344	9694
1162.651	9749
1164.959	9721
1167.265	9725
1169.572	9863
1171.878	9800
1174.184	9798
1176.488	9855
1178.79	9848
1181.094	9896
1183.396	9813
1185.699	9774
1188.001	9802
1190.301	9927
1192.6	9668
1194.9	9667
1197.2	9828
1199.497	9794
1201.794	9819
1204.09	9881
1206.387	9867
1208.684	9852
1210.978	9831
1213.272	10013
1215.565	9889
1217.858	9864
1220.15	9808
1222.443	9885
1224.734	9955
1227.024	9901
1229.313	9980
1231.602	9992
1233.892	10090
1236.18	9930
1238.467	10017
1240.754	9990
1243.04	10212
1245.325	10196
1247.612	10195
1249.896	10055
1252.178	10184
1254.461	10191
1256.743	10156
1259.027	10189
1261.308	10149
1263.587	10267
1265.867	10188
1268.146	10209
1270.425	10316
1272.703	10165
1274.981	10251
1277.256	10146
1279.532	10265
1281.808	10116
1284.083	10164
1286.358	10074
1288.63	10012
1290.904	10004
1293.175	10176
1295.449	10174
1297.719	10187
1299.99	10073
1302.259	10017
1304.529	10097
1306.798	10031
1309.065	9946
1311.333	10086
1313.599	9977
1315.866	10050
1318.131	9935
1320.396	10093
1322.66	10062
1324.925	10062
1327.187	10191
1329.448	10092
1331.711	10004
1333.974	10164
1336.234	10209
1338.493	10205
1340.752	10000
1343.01	10030
1345.269	10098
1347.526	10243
1349.784	10108
1352.04	10096
1354.295	10153
1356.552	10067
1358.806	10118
1361.059	10242
1363.312	10076
1365.564	10088
1367.818	9956
1370.069	10159
1372.318	9988
1374.568	10149
1376.817	10233
1379.066	10149
1381.316	10022
1383.564	10278
1385.809	10147
1388.056	10084
1390.301	10385
1392.549	10081
1394.793	10262
1397.036	10328
1399.279	10271
1401.522	10263
1403.763	10309
1406.007	10339
1408.248	10288
1410.487	10267
1412.727	10295
1414.965	10293
1417.205	10229
1419.442	10294
1421.68	10513
1423.915	10474
1426.152	10424
1428.388	10217
1430.623	10363
1432.857	10474
1435.091	10434
1437.323	10465
1439.556	10428
1441.789	10691
1444.019	10535
1446.25	10371
1448.48	10507
1450.708	10460
1452.938	10531
1455.167	10600
1457.394	10511
1459.62	10563
1461.846	10315
1464.073	10581
1466.299	10554
1468.523	10494
1470.746	10405
1472.969	10278
1475.191	10519
1477.415	10312
1479.636	10271
1481.858	10097
1484.078	10336
1486.298	10187
1488.518	10169
1490.736	10222
1492.954	10186
1495.169	10089
1497.386	10175
1499.602	10216
1501.819	10149
1504.034	10017
1506.248	10162
1508.462	10070
1510.675	10084
1512.888	10165
1515.1	9955
1517.311	10168
1519.522	10127
1521.732	10037
1523.942	10140
1526.151	10044
1528.36	10131
1530.566	10098
1532.773	10065
1534.98	10171
1537.187	10182
1539.392	10115
1541.596	10236
1543.801	10079
1546.005	10118
1548.208	10281
1550.411	10212
1552.612	10215
1554.814	10253
1557.013	10368
1559.212	10171
1561.414	10413
1563.612	10331
1565.811	10237
1568.007	10267
1570.203	10303
1572.403	10325
1574.598	10394
1576.792	10260
1578.988	10362
1581.181	10481
1583.376	10413
1585.568	10517
1587.761	10391
1589.952	10500
1592.143	10352
1594.333	10473
1596.524	10342
1598.715	10434
1600.903	10494
1603.091	10484
1605.278	10473
1607.466	10469
1609.652	10621
1611.838	10457
1614.023	10504
1616.207	10395
1618.391	10470
1620.576	10652
1622.759	10430
1624.941	10672
1627.123	10542
1629.304	10715
1631.484	10558
1633.664	10531
1635.844	10478
1638.022	10499
1640.201	10615
1642.38	10570
1644.556	10596
1646.732	10553
1648.908	10532
1651.084	10386
1653.257	10549
1655.433	10648
1657.607	10581
1659.779	10663
1661.951	10571
1664.122	10696
1666.295	10582
1668.467	10493
1670.635	10547
1672.805	10666
1674.973	10672
1677.142	10547
1679.31	10772
1681.478	10440
1683.644	10679
1685.81	10576
1687.975	10516
1690.142	10506
1692.305	10577
1694.468	10574
1696.632	10484
1698.794	10574
1700.957	10511
1703.119	10650
1705.279	10414
1707.439	10509
1709.598	10456
1711.758	10330
1713.917	10453
1716.075	10452
1718.231	10359
1720.388	10515
1722.543	10404
1724.702	10299
1726.856	10315
1729.01	10414
1731.164	10420
1733.317	10363
1735.471	10413
1737.623	10383
1739.774	10280
1741.925	10420
1744.075	10388
1746.225	10310
1748.376	10364
1750.524	10453
1752.672	10380
1754.82	10588
1756.965	10482
1759.113	10442
1761.259	10368
1763.405	10321
1765.549	10569
1767.694	10437
1769.836	10451
1771.981	10594
1774.123	10421
1776.264	10553
1778.405	10507
1780.546	10650
1782.687	10524
1784.827	10503
1786.966	10631
1789.103	10482
1791.242	10573
1793.381	10535
1795.517	10595
1797.653	10535
1799.788	10567
1801.923	10486
1804.057	10460
1806.193	10520
1808.326	10522
1810.457	10496
1812.59	10587
1814.721	10573
1816.855	10566
1818.984	10609
1821.113	10507
1823.244	10599
1825.372	10487
1827.499	10504
1829.63	10379
1831.756	10353
1833.882	10457
1836.007	10490
1838.132	10444
1840.26	10408
1842.384	10371
1844.507	10343
1846.63	10422
1848.752	10328
1850.875	10378
1852.996	10432
1855.118	10467
1857.238	10406
1859.358	10481
1861.477	10426
1863.597	10307
1865.715	10407
1867.832	10475
1869.948	10346
1872.064	10315
1874.181	10294
1876.297	10312
1878.411	10325
1880.526	10327
1882.639	10510
1884.752	10490
1886.865	10433
1888.977	10335
1891.089	10513
1893.2	10538
1895.308	10316
1897.42	10507
1899.53	10246
1901.639	10559
1903.745	10494
1905.853	10455
1907.962	10488
1910.067	10557
1912.174	10451
1914.278	10545
1916.383	10616
1918.486	10538
1920.592	10506
1922.694	10484
1924.797	10648
1926.898	10611
1929	10539
1931.102	10540
1933.203	10540
1935.301	10574
1937.401	10299
1939.499	10623
1941.598	10590
1943.697	10593
1945.793	10594
1947.888	10759
1949.985	10566
1952.08	10597
1954.176	10532
1956.269	10448
1958.364	10476
1960.457	10628
1962.549	10614
1964.642	10616
1966.733	10411
1968.823	10625
1970.913	10438
1973.005	10413
1975.093	10450
1977.184	10511
1979.271	10546
1981.359	10374
1983.446	10520
1985.532	10469
1987.619	10575
1989.705	10328
1991.789	10453
1993.874	10402
1995.956	10318
1998.041	10294
2000.123	10349
2002.206	10441
2004.287	10510
2006.368	10341
2008.449	10413
2010.529	10450
2012.609	10462
2014.688	10388
2016.766	10326
2018.843	10394
2020.922	10366
2022.999	10484
2025.074	10454
2027.15	10278
2029.225	10502
2031.299	10280
2033.375	10429
2035.447	10271
2037.52	10363
2039.592	10394
2041.664	10432
2043.736	10431
2045.807	10273
2047.876	10416
2049.947	10281
2052.015	10297
2054.086	10329
2056.153	10403
2058.221	10478
2060.288	10404
2062.353	10307
2064.42	10278
2066.486	10238
2068.55	10421
2070.614	10437
2072.678	10334
2074.741	10355
2076.805	10508
2078.866	10355
2080.929	10390
2082.99	10375
2085.049	10160
2087.109	10498
2089.17	10353
2091.228	10454
2093.286	10355
2095.344	10511
2097.4	10422
2099.46	10308
2101.516	10371
2103.572	10467
2105.626	10404
2107.679	10287
2109.735	10381
2111.788	10282
2113.841	10378
2115.894	10245
2117.945	10318
2119.997	10378
2122.049	10291
2124.1	10347
2126.148	10229
2128.197	10339
2130.246	10401
2132.296	10260
2134.342	10365
2136.39	10366
2138.437	10365
2140.483	10235
2142.527	10309
2144.574	10382
2146.619	10360
2148.661	10161
2150.705	10230
2152.747	10471
2154.792	10272
2156.832	10285
2158.874	10165
2160.915	10141
2162.954	10076
2164.995	10390
2167.034	10138
2169.072	10159
2171.111	10214
2173.148	10114
2175.186	10196
2177.223	10078
2179.258	10264
2181.294	10164
2183.328	10051
2185.362	10255
2187.398	10093
2189.431	10042
2191.463	10063
2193.495	10101
2195.528	10234
2197.56	10107
2199.59	10189
2201.62	9877
2203.649	10010
2205.678	10018
2207.708	10021
2209.737	10044
2211.764	10118
2213.791	9990
2215.817	9997
2217.843	10067
2219.87	10111
2221.895	9900
2223.919	10012
2225.942	9993
2227.966	10094
2229.988	10045
2232.012	9888
2234.032	10138
2236.054	10069
2238.074	10051
2240.095	9837
2242.116	9974
2244.135	10133
2246.153	10037
2248.171	10029
2250.188	9942
2252.208	9850
2254.223	9949
2256.239	10032
2258.255	10063
2260.269	9957
2262.283	9886
2264.3	9942
2266.312	10077
2268.325	10054
2270.336	9956
2272.349	9965
2274.362	9940
2276.372	9911
2278.383	10070
2280.392	9805
2282.402	9935
2284.409	10060
2286.418	10079
2288.427	10027
2290.433	10003
2292.441	9980
2294.446	9965
2296.453	9941
2298.459	9970
2300.463	10019
2302.466	9937
2304.471	9873
2306.475	9957
2308.477	9760
2310.478	9900
2312.481	9951
2314.481	9910
2316.481	9860
2318.482	9995
2320.482	9798
2322.48	9820
2324.48	9783
2326.478	9828
2328.476	9727
2330.473	9737
2332.469	9820
2334.465	9864
2336.46	9815
2338.454	9912
2340.45	9833
2342.444	9740
2344.437	9793
2346.43	9694
2348.421	9651
2350.414	9774
2352.405	9802
2354.396	9868
2356.386	9718
2358.376	9656
2360.366	9709
2362.355	9749
2364.343	9759
2366.331	9699
2368.317	9767
2370.304	9553
2372.292	9615
2374.278	9710
2376.262	9760
2378.247	9732
2380.23	9689
2382.216	9725
2384.199	9698
2386.181	9781
2388.163	9611
2390.144	9654
2392.127	9670
2394.107	9518
2396.087	9577
2398.066	9472
2400.046	9624
2402.023	9601
2404.004	9436
2405.981	9579
2407.957	9545
2409.934	9607
2411.91	9551
2413.886	9589
2415.862	9515
2417.836	9511
2419.809	9572
2421.784	9577
2423.756	9548
2425.73	9635
2427.701	9364
2429.672	9651
2431.644	9636
2433.615	9553
2435.586	9595
2437.555	9517
2439.523	9537
2441.491	9577
2443.459	9547
2445.428	9507
2447.395	9461
2449.361	9558
2451.327	9366
2453.292	9474
2455.257	9505
2457.223	9542
2459.187	9522
2461.15	9522
2463.113	9395
2465.076	9475
2467.039	9295
2468.999	9723
2470.96	9575
2472.921	9460
2474.881	9493
2476.841	9279
2478.8	9277
2480.759	9422
2482.717	9308
2484.675	9416
2486.63	9447
2488.589	9459
2490.545	9471
2492.5	9307
2494.455	9390
2496.408	9398
2498.364	9328
2500.318	9322
2502.27	9396
2504.223	9306
2506.174	9320
2508.126	9315
2510.078	9314
2512.03	9380
2513.979	9266
2515.927	9440
2517.877	9489
2519.826	9218
2521.775	9314
2523.722	9246
2525.668	9236
2527.616	9310
2529.561	9236
2531.508	9272
2533.452	9282
2535.398	9299
2537.342	9293
2539.284	9218
2541.229	9330
2543.173	9224
2545.114	9257
2547.055	9196
2548.996	9244
2550.938	9291
2552.878	9429
2554.817	9321
2556.756	9135
2558.695	9226
2560.633	9201
2562.572	9174
2564.509	9288
2566.445	9239
2568.382	9410
2570.317	9180
2572.254	9213
2574.189	9214
2576.123	9289
2578.057	9282
2579.99	9332
2581.923	9195
2583.855	9375
2585.788	9176
2587.719	9111
2589.65	9394
2591.579	9411
2593.511	9221
2595.44	9223
2597.37	9117
2599.297	9291
2601.225	9232
2603.153	9164
2605.08	9222
2607.007	9310
2608.932	9149
2610.858	9209
2612.782	9126
2614.709	9251
2616.632	9150
2618.556	9391
2620.478	9300
2622.401	9205
2624.324	9257
2626.247	9190
2628.167	9121
2630.088	9252
2632.008	9328
2633.928	9127
2635.848	9294
2637.766	9167
2639.684	9215
2641.603	9140
2643.519	9295
2645.437	9312
2647.353	9274
2649.27	9275
2651.184	9186
2653.099	9221
2655.014	9162
2656.928	9203
2658.842	8993
2660.755	9120
2662.667	9207
2664.579	9136
2666.491	9203
2668.402	9037
2670.312	9120
2672.222	9049
2674.132	9164
2676.042	9080
2677.951	9124
2679.859	9128
2681.766	9083
2683.674	9218
2685.582	9141
2687.488	9100
2689.392	9079
2691.298	9135
2693.202	9113
2695.107	8976
2697.012	8943
2698.914	9008
2700.817	9076
2702.72	9011
2704.622	8936
2706.524	9025
2708.425	8916
2710.326	8982
2712.225	9014
2714.125	8889
2716.024	9046
2717.923	9036
2719.822	9039
2721.719	9002
2723.616	8922
2725.512	9166
2727.41	8883
2729.305	8900
2731.201	8903
2733.095	9065
2734.99	9113
2736.884	8945
2738.778	8858
2740.67	8936
2742.562	8877
2744.455	8919
2746.346	8809
2748.238	8954
2750.129	8971
2752.018	8900
2753.907	8992
2755.797	8814
2757.687	8788
2759.575	8836
2761.462	8893
2763.349	8898
2765.237	8990
2767.124	8871
2769.009	8887
2770.894	8781
2772.779	8711
2774.663	8901
2776.547	8904
2778.431	8641
2780.314	8819
2782.197	8911
2784.078	8908
2785.96	8774
2787.842	8814
2789.723	8986
2791.603	8779
2793.483	8765
2795.362	8655
2797.241	8793
2799.121	8710
2800.997	8631
2802.874	8894
2804.751	8702
2806.628	8811
2808.506	8784
2810.38	8674
2812.255	8845
2814.13	8788
2816.003	8764
2817.878	8670
2819.752	8798
2821.623	8882
2823.496	8677
2825.368	8733
2827.238	8664
2829.111	8616
2830.98	8726
2832.851	8724
2834.719	8672
2836.589	8666
2838.458	8888
2840.327	8811
2842.193	8747
2844.061	8762
2845.927	8744
2847.794	8677
2849.66	8619
2851.525	8764
2853.39	8638
2855.254	8771
2857.117	8564
2858.983	8809
2860.845	8926
2862.707	8794
2864.569	8870
2866.431	8784
2868.293	8873
2870.154	8892
2872.013	8910
2873.873	8960
2875.733	9077
2877.592	9031
2879.451	9170
2881.309	9231
2883.166	9027
2885.022	9160
2886.879	9023
2888.736	9135
2890.591	9137
2892.446	9254
2894.301	9271
2896.155	9280
2898.009	9111
2899.863	9238
2901.716	9065
2903.568	9187
2905.419	9152
2907.27	9290
2909.123	9190
2910.973	9248
2912.824	9265
2914.673	9252
2916.521	9356
2918.372	9296
2920.22	9411
2922.067	9296
2923.914	9497
2925.761	9542
2927.607	9663
2929.455	9440
2931.301	9796
2933.144	9842
2934.99	9814
2936.833	9715
2938.678	9750
2940.522	9844
2942.364	9814
2944.207	9971
2946.048	9919
2947.891	10035
2949.731	9921
2951.571	9879
2953.412	10014
2955.25	9826
2957.09	9749
2958.93	9702
2960.767	9858
2962.606	9765
2964.443	9539
2966.279	9583
2968.116	9486
2969.953	9424
2971.788	9474
2973.623	9182
2975.457	9168
2977.292	9122
2979.127	9089
2980.959	9126
2982.792	9084
2984.624	9065
2986.455	9167
2988.288	9066
2990.119	9015
2991.949	8998
2993.779	8815
2995.608	8828
2997.439	8858
2999.268	8857
3001.096	8753
3002.923	8709
3004.751	8715
3006.578	8692
3008.406	8728
3010.232	8424
3012.057	8432
3013.883	8461
3015.706	8363
3017.532	8259
3019.356	8372
3021.179	8370
3023.002	8339
3024.823	8268
3026.646	8322
3028.469	8304
3030.289	8233
3032.11	8180
3033.93	8195
3035.749	8350
3037.57	8004
3039.39	8134
3041.207	8056
3043.026	8243
3044.842	8006
3046.661	8078
3048.477	8161
3050.294	8110
3052.109	8161
3053.925	8056
3055.739	7968
3057.555	8255
3059.368	8118
3061.181	8058
3062.995	8033
3064.807	8138
3066.62	8036
3068.433	8043
3070.243	8037
3072.054	8249
3073.865	8084
3075.675	7942
3077.485	8083
3079.293	8044
3081.102	8007
3082.911	7944
3084.719	7873
3086.527	7906
3088.333	7933
3090.139	7944
3091.945	7776
3093.75	7823
3095.557	7793
3097.361	7870
3099.165	7845
3100.969	7748
3102.772	7852
3104.575	7821
3106.379	7873
3108.181	7874
3109.982	7797
3111.783	7709
3113.584	7817
3115.386	7608
3117.186	7759
3118.985	7609
3120.783	7743
3122.582	7688
3124.381	7783
3126.179	7745
3127.975	7737
3129.772	7655
3131.569	7643
3133.365	7764
3135.161	7680
3136.956	7694
3138.751	7668
3140.544	7578
3142.338	7480
3144.132	7520
3145.925	7613
3147.717	7591
3149.509	7636
3151.301	7567
3153.091	7585
3154.884	7586
3156.673	7695
3158.462	7654
3160.252	7715
3162.041	7629
3163.831	7554
3165.618	7650
3167.405	7544
3169.193	7567
3170.979	7516
3172.767	7409
3174.553	7570
3176.338	7499
3178.123	7608
3179.907	7570
3181.692	7521
3183.477	7414
3185.259	7549
3187.042	7538
3188.824	7533
3190.607	7386
3192.389	7460
3194.17	7453
3195.951	7474
3197.73	7428
3199.51	7454
3201.289	7343
3203.07	7491
3204.848	7542
3206.626	7395
3208.403	7488
3210.18	7471
3211.959	7390
3213.735	7420
3215.511	7365
3217.285	7451
3219.06	7534
3220.836	7377
3222.611	7369
3224.384	7546
3226.158	7314
3227.929	7377
3229.702	7481
3231.476	7375
3233.248	7363
3235.018	7337
3236.789	7476
3238.56	7474
3240.33	7454
3242.1	7376
3243.869	7371
3245.637	7381
3247.405	7363
3249.172	7403
3250.941	7322
3252.707	7409
3254.474	7362
3256.24	7377
3258.006	7260
3259.772	7312
3261.537	7478
3263.301	7366
3265.065	7387
3266.828	7386
3268.592	7359
3270.355	7372
3272.117	7317
3273.878	7396
3275.64	7339
3277.401	7370
3279.162	7331
3280.922	7286
3282.682	7271
3284.441	7234
3286.199	7447
3287.959	7216
3289.716	7308
3291.475	7346
3293.232	7304
3294.988	7335
3296.744	7334
3298.501	7355
3300.256	7253
3302.011	7362
3303.766	7318
3305.52	7277
3307.275	7133
3309.028	7339
3310.781	7295
3312.533	7274
3314.285	7288
3316.038	7226
3317.789	7179
3319.54	7294
3321.289	7131
3323.039	7287
3324.789	7200
3326.539	7203
3328.288	7204
3330.035	7376
3331.783	7285
3333.531	7249
3335.28	7108
3337.025	7281
3338.771	7104
3340.518	7128
3342.262	7113
3344.009	7152
3345.753	7107
3347.497	7303
3349.24	7165
3350.983	7148
3352.726	7101
3354.469	7087
3356.212	7188
3357.952	7160
3359.694	7053
3361.434	7200
3363.176	7052
3364.916	7237
3366.654	7017
3368.394	7119
3370.132	7054
3371.871	6943
3373.61	6949
3375.346	7035
3377.083	6978
3378.82	6972
3380.556	6971
3382.292	7010
3384.027	6998
3385.763	6947
3387.497	6989
3389.231	7110
3390.965	7088
3392.698	7062
3394.431	7069
3396.164	6971
3397.896	7088
3399.627	7045
3401.36	6902
3403.09	6897
3404.82	6924
3406.55	6981
3408.279	6926
3410.01	7063
3411.738	6903
3413.467	6859
3415.194	6805
3416.92	6922
3418.647	6916
3420.375	6821
3422.102	6727
3423.827	6833
3425.553	6754
3427.277	6820
3429.003	6840
3430.727	6837
3432.451	6802
3434.173	6718
3435.896	6771
3437.62	6790
3439.343	6800
3441.063	6749
3442.785	6742
3444.505	6783
3446.226	6824
3447.948	6748
3449.666	6732
3451.386	6772
3453.104	6819
3454.823	6644
3456.541	6672
3458.259	6687
3459.976	6743
3461.693	6706
3463.408	6713
3465.125	6674
3466.841	6626
3468.556	6656
3470.271	6647
3471.985	6677
3473.698	6522
3475.414	6597
3477.126	6576
3478.838	6525
3480.55	6460
3482.263	6574
3483.975	6523
3485.686	6555
3487.396	6440
3489.106	6599
3490.817	6492
3492.526	6528
3494.236	6505
3495.944	6432
3497.652	6365
3499.359	6425
3501.066	6564
3502.775	6402
3504.481	6463
3506.187	6389
3507.893	6432
3509.598	6478
3511.304	6312
3513.009	6465
3514.713	6368
3516.417	6355
3518.12	6322
3519.821	6501
3521.525	6334
3523.228	6251
3524.929	6360
3526.631	6308
3528.33	6255
3530.032	6303
3531.733	6390
3533.433	6333
3535.131	6282
3536.83	6366
3538.529	6281
3540.227	6351
3541.925	6257
3543.623	6355
3545.319	6306
3547.016	6306
3548.712	6187
3550.408	6228
3552.103	6204
3553.798	6232
3555.491	6245
3557.188	6156
3558.88	6281
3560.574	6269
3562.266	6210
3563.959	6210
3565.651	6218
3567.343	6207
3569.035	6221
3570.725	6141
3572.415	6140
3574.106	6271
3575.797	6173
3577.485	6156
3579.174	6261
3580.863	6064
3582.551	6196
3584.238	6154
3585.926	6004
3587.613	6140
3589.3	5983
3590.986	6113
3592.671	6023
3594.357	6201
3596.042	5982
3597.726	5990
3599.41	6138
3601.094	6000
3602.778	6062
3604.461	5954
3606.143	6072
3607.825	5968
3609.507	6120
3611.188	5866
3612.87	5908
3614.551	5951
3616.229	5958
3617.909	5961
3619.589	5928
3621.269	5871
3622.948	5880
3624.625	5850
3626.302	6026
3627.98	5843
3629.657	5849
3631.334	5833
3633.01	5818
3634.686	5837
3636.361	5821
3638.036	5825
3639.712	5768
3641.385	5804
3643.06	5794
3644.732	5744
3646.405	5777
3648.08	5809
3649.751	5887
3651.424	5739
3653.094	5773
3654.766	5754
3656.436	5827
3658.106	5787
3659.777	5686
3661.446	5699
3663.115	5738
3664.783	5759
3666.452	5775
3668.121	5740
3669.788	5551
3671.454	5655
3673.121	5727
3674.789	5668
3676.455	5638
3678.12	5583
3679.784	5614
3681.45	5606
3683.114	5616
3684.779	5667
3686.442	5580
3688.105	5527
3689.768	5598
3691.43	5703
3693.093	5612
3694.754	5659
3696.415	5559
3698.076	5607
3699.736	5633
3701.396	5565
3703.057	5640
3704.716	5575
3706.375	5557
3708.034	5560
3709.692	5591
3711.351	5569
3713.008	5551
3714.665	5580
3716.321	5533
3717.977	5504
3719.634	5563
3721.29	5604
3722.945	5526
3724.598	5606
3726.253	5519
3727.907	5437
3729.561	5486
3731.214	5518
3732.867	5474
3734.518	5428
3736.171	5504
3737.824	5544
3739.474	5414
3741.125	5463
3742.775	5466
3744.425	5463
3746.074	5525
3747.725	5480
3749.373	5441
3751.022	5373
3752.669	5507
3754.318	5476
3755.966	5421
3757.612	5467
3759.259	5426
3760.905	5344
3762.55	5385
3764.197	5382
3765.842	5331
3767.486	5345
3769.131	5411
3770.774	5354
3772.417	5371
3774.061	5329
3775.705	5362
3777.347	5436
3778.988	5332
3780.629	5370
3782.271	5380
3783.912	5345
3785.552	5272
3787.192	5279
3788.831	5281
3790.472	5286
3792.112	5341
3793.75	5279
3795.388	5303
3797.024	5299
3798.661	5281
3800.3	5184
3801.936	5266
3803.572	5342
3805.208	5241
3806.844	5311
3808.48	5229
3810.115	5174
3811.748	5229
3813.382	5167
3815.016	5128
3816.649	5228
3818.283	5216
3819.914	5218
3821.547	5203
3823.178	5275
3824.809	5115
3826.441	5158
3828.072	5213
3829.701	5188
3831.331	5132
3832.96	5198
3834.591	5115
3836.219	5140
3837.847	5163
3839.475	4980
3841.102	5122
3842.729	5039
3844.357	5129
3845.984	5141
3847.609	5130
3849.234	5136
3850.86	5121
3852.485	5022
3854.11	5094
3855.734	5069
3857.357	5055
3858.981	5104
3860.603	5127
3862.227	5092
3863.848	5012
3865.471	5114
3867.092	4994
3868.713	4978
3870.334	4941
3871.954	5098
3873.575	4981
3875.194	4989
3876.813	5058
3878.433	5025
3880.051	5060
3881.669	4944
3883.286	5057
3884.904	4908
3886.52	5043
3888.138	5081
3889.754	5033
3891.37	5038
3892.985	4865
3894.6	4982
3896.216	4959
3897.831	4893
3899.444	4909
3901.058	4868
3902.67	4816
3904.283	4882
3905.897	4834
3907.509	4903
3909.121	4853
3910.731	4844
3912.342	4859
3913.954	4950
3915.563	4875
3917.174	4923
3918.783	4911
3920.391	4872
3922.002	4837
3923.611	4922
3925.218	4839
3926.826	4893
3928.432	4839
3930.039	4863
3931.647	4827
3933.253	4910
3934.859	4803
3936.464	4890
3938.068	4875
3939.675	4792
3941.278	4869
3942.883	4790
3944.486	4861
3946.089	4857
3947.692	4892
3949.295	4965
3950.898	4791
3952.499	4735
3954.1	4822
3955.7	4782
3957.303	4814
3958.903	4741
3960.502	4734
3962.101	4711
3963.7	4800
3965.301	4700
3966.899	4715
3968.497	4770
3970.094	4652
3971.691	4790
3973.288	4735
3974.885	4681
3976.481	4712
3978.077	4652
3979.672	4708
3981.267	4692
3982.863	4657
3984.457	4818
3986.051	4711
3987.645	4704
3989.238	4731
3990.831	4625
3992.425	4640
3994.017	4609
3995.607	4684
3997.199	4572
3998.79	4583
4000.382	4665
4001.973	4620
4003.561	4569
4005.151	4573
4006.741	4562
4008.331	4586
4009.918	4581
4011.507	4649
4013.095	4618
4014.681	4521
4016.269	4583
4017.856	4543
4019.443	4577
4021.028	4545
4022.614	4387
4024.199	4455
4025.785	4421
4027.37	4550
4028.953	4467
4030.536	4556
4032.12	4534
4033.704	4486
4035.287	4447
4036.869	4518
4038.45	4467
4040.032	4515
4041.613	4521
4043.195	4413
4044.776	4420
4046.356	4409
4047.935	4490
4049.515	4504
4051.095	4491
4052.674	4433
4054.251	4465
4055.829	4421
4057.406	4339
4058.985	4411
4060.562	4438
4062.139	4416
4063.715	4347
4065.29	4377
4066.865	4321
4068.442	4270
4070.016	4427
4071.59	4316
4073.164	4325
4074.738	4428
4076.312	4374
4077.885	4306
4079.458	4259
4081.03	4326
4082.602	4276
4084.173	4248
4085.745	4326
4087.315	4319
4088.886	4355
4090.456	4382
4092.026	4336
4093.596	4245
4095.165	4365
4096.734	4280
4098.301	4247
4099.869	4228
4101.437	4240
4103.006	4319
4104.572	4236
4106.139	4186
4107.704	4236
4109.27	4210
4110.837	4245
4112.401	4183
4113.966	4245
4115.53	4273
4117.094	4192
4118.659	4266
4120.223	4228
4121.785	4176
4123.347	4210
4124.909	4237
4126.471	4246
4128.034	4183
4129.595	4307
4131.155	4186
4132.716	4213
4134.275	4173
4135.836	4201
4137.395	4079
4138.955	4110
4140.513	4139
4142.071	4090
4143.628	4160
4145.188	4122
4146.745	4053
4148.302	4054
4149.858	4111
4151.414	4228
4152.971	4072
4154.526	4067
4156.081	4150
4157.635	4201
4159.189	4144
4160.745	4018
4162.298	4072
4163.852	4020
4165.405	4015
4166.957	4178
4168.51	4017
4170.063	3998
4171.614	3994
4173.166	4098
4174.717	4003
4176.267	4124
4177.817	4092
4179.368	3980
4180.917	3972
4182.466	4005
4184.016	4008
4185.564	3895
4187.112	3929
4188.66	3928
4190.207	4047
4191.754	3940
4193.301	4019
4194.848	3892
4196.394	3872
4197.94	3900
4199.484	3944
4201.03	3931
4202.575	3866
4204.12	3881
4205.663	3940
4207.207	3846
4208.75	4018
4210.292	3939
4211.836	3857
4213.378	3836
4214.92	3972
4216.46	3876
4218.002	3969
4219.544	3872
4221.083	3896
4222.625	3833
4224.164	3938
4225.703	3877
4227.244	3863
4228.782	3943
4230.32	3897
4231.857	3850
4233.395	3811
4234.933	3803
4236.471	3794
4238.007	3899
4239.542	3832
4241.078	3865
4242.614	3785
4244.15	3782
4245.685	3806
4247.219	3837
4248.753	3777
4250.287	3814
4251.82	3879
4253.354	3746
4254.887	3725
4256.419	3792
4257.951	3745
4259.483	3858
4261.016	3876
4262.547	3801
4264.078	3774
4265.608	3777
4267.137	3762
4268.668	3741
4270.197	3791
4271.727	3786
4273.254	3806
4274.783	3867
4276.311	3690
4277.84	3752
4279.366	3763
4280.894	3681
4282.42	3655
4283.946	3800
4285.473	3741
4286.998	3706
4288.523	3680
4290.047	3717
4291.572	3744
4293.096	3640
4294.622	3661
4296.144	3713
4297.668	3699
4299.19	3726
4300.713	3713
4302.236	3702
4303.758	3605
4305.279	3681
4306.799	3585
4308.321	3629
4309.842	3621
4311.361	3688
4312.882	3681
4314.401	3703
