400.0961	3932
402.6185	3989
405.1424	3878
407.6635	3914
410.1838	3974
412.7035	3852
415.2225	3994
417.7388	3928
420.2585	4161
422.7754	4081
425.2917	4111
427.8072	4042
430.3221	4159
432.8363	4125
435.3498	4097
437.8626	4179
440.3727	4190
442.8841	4118
445.3969	4210
447.907	4241
450.4142	4128
452.9229	4070
455.4289	4152
457.9362	4155
460.4449	4117
462.9488	4132
465.454	4148
467.9566	4064
470.4604	4180
472.9637	4180
475.4662	4095
477.966	4230
480.4671	4261
482.9656	4251
485.4633	4288
487.9645	4245
490.4608	4212
492.9566	4219
495.4536	4243
497.948	4260
500.4437	4253
502.9387	4341
505.431	4309
507.9226	4324
510.4136	4292
512.9079	4321
515.3975	4320
517.8864	4393
520.3746	4319
522.8622	4241
525.3491	4316
527.8394	4350
530.3249	4218
532.8098	4323
535.2939	4392
537.7774	4281
540.2623	4277
542.7444	4306
545.2259	4398
547.7067	4419
550.1868	4406
552.6683	4462
555.147	4403
557.6231	4371
560.1005	4434
562.5773	4422
565.0534	4460
567.5308	4438
570.0056	4406
572.4776	4473
574.951	4462
577.4237	4484
579.8978	4512
582.3671	4523
584.8378	4454
587.3079	4533
589.7773	4500
592.244	4575
594.714	4537
597.1793	4533
599.6461	4545
602.1121	4572
604.5754	4565
607.0421	4549
609.5042	4408
611.9675	4575
614.4282	4576
616.8902	4547
619.3515	4484
621.8122	4529
624.2702	4562
626.7296	4470
629.1863	4476
631.6423	4566
634.1017	4397
636.5563	4560
639.0104	4535
641.4658	4536
643.9185	4537
646.3725	4505
648.8239	4483
651.2766	4609
653.7266	4552
656.176	4538
658.6247	4564
661.0748	4527
663.5242	4629
665.9709	4611
668.417	4567
670.8624	4601
673.3092	4577
675.7533	4635
678.1968	4683
680.6395	4691
683.0817	4680
685.5251	4606
687.9659	4700
690.4061	4661
692.8456	4692
695.2844	4633
697.7226	4722
700.1621	4616
702.599	4730
705.0332	4735
707.4688	4758
709.9036	4724
712.3399	4776
714.7735	4712
717.2044	4744
719.6367	4758
722.0683	4730
724.4993	4832
726.9296	4875
729.3593	4913
731.7883	4758
734.2147	4864
736.6423	4824
739.0714	4844
741.4958	4902
743.9216	4903
746.3447	4942
748.7691	4926
751.1929	4933
753.616	4914
756.0366	4945
758.4584	4907
760.8776	5001
763.2982	5034
765.718	4944
768.1373	4999
770.5539	4942
772.9698	4955
775.3871	4867
777.8038	4913
780.2178	5051
782.6332	5037
785.0459	4994
787.458	5012
789.8714	5017
792.2842	5005
794.6943	5071
797.1038	4953
799.5127	5051
801.9209	5056
804.3324	4992
806.7393	5164
809.1456	5076
811.5513	5026
813.9562	5023
816.3625	5075
818.7663	5048
821.1693	5152
823.5718	5097
825.9735	5186
828.3746	5047
830.7771	5098
833.177	5068
835.5762	5094
837.9747	5099
840.3727	5015
842.772	5216
845.1666	5218
847.5626	5154
849.958	5198
852.3527	5291
854.7488	5173
857.1403	5298
859.5331	5237
861.9253	5250
864.3168	5096
866.7057	5195
869.098	5143
871.4876	5213
873.8746	5168
876.263	5228
878.6487	5218
881.0378	5126
883.4243	5234
885.8081	5196
888.1933	5219
890.5759	5124
892.9598	5193
895.343	5082
897.7256	5224
900.1057	5078
902.4871	5217
904.8659	5153
907.246	5275
909.6254	5250
912.0023	5324
914.3786	5354
916.7562	5381
919.1331	5443
921.5074	5451
923.8831	5644
926.2562	5502
928.6287	5470
931.0005	5417
933.3757	5459
935.7462	5446
938.1162	5409
940.4855	5390
942.8542	5505
945.2242	5461
947.5916	5573
949.9584	5617
952.3266	5612
954.6921	5736
957.0571	5869
959.4233	6021
961.787	5942
964.15	5894
966.5125	5798
968.8742	5770
971.2354	5663
973.5959	5639
975.9559	5511
978.3151	5450
980.6738	5444
983.0338	5394
985.3912	5355
987.7461	5412
990.1022	5393
992.4578	5302
994.8127	5351
997.1689	5294
999.5207	5458
1001.874	5356
1004.226	5317
1006.576	5390
1008.929	5429
1011.28	5318
1013.628	5418
1015.977	5373
1018.324	5304
1020.674	5424
1023.019	5445
1025.366	5418
1027.713	5442
1030.056	5456
1032.399	5446
1034.746	5496
1037.087	5544
1039.431	5387
1041.771	5437
1044.113	5452
1046.454	5534
1048.793	5553
1051.133	5389
1053.471	5427
1055.807	5424
1058.146	5475
1060.483	5475
1062.818	5474
1065.153	5469
1067.489	5495
1069.822	5465
1072.156	5530
1074.488	5563
1076.82	5482
1079.15	5548
1081.48	5513
1083.814	5505
1086.143	5511
1088.471	5427
1090.799	5469
1093.126	5417
1095.452	5586
1097.78	5500
1100.105	5545
1102.43	5621
1104.754	5490
1107.077	5521
1109.4	5576
1111.722	5543
1114.044	5485
1116.365	5570
1118.685	5532
1121.005	5627
1123.324	5527
1125.643	5607
1127.961	5615
1130.278	5730
1132.595	5515
1134.911	5491
1137.226	5622
1139.541	5489
1141.854	5451
1144.167	5487
1146.482	5458
1148.793	5610
1151.105	5527
1153.414	5576
1155.725	5573
1158.033	5561
1160.344	5558
1162.651	5601
1164.959	5495
1167.265	5621
1169.572	5642
1171.878	5507
1174.184	5546
1176.488	5541
1178.79	5599
1181.094	5611
1183.396	5512
1185.699	5575
1188.001	5607
1190.301	5567
1192.6	5586
1194.9	5578
1197.2	5524
1199.497	5499
1201.794	5559
1204.09	5563
1206.387	5599
1208.684	5597
1210.978	5587
1213.272	5518
1215.565	5682
1217.858	5585
1220.15	5601
1222.443	5578
1224.734	5615
1227.024	5698
1229.313	5585
1231.602	5662
1233.892	5649
1236.18	5750
1238.467	5733
1240.754	5735
1243.04	5781
1245.325	5842
1247.612	5772
1249.896	5862
1252.178	5917
1254.461	5819
1256.743	5685
1259.027	5801
1261.308	5791
1263.587	5740
1265.867	5794
1268.146	5874
1270.425	5741
1272.703	5803
1274.981	5910
1277.256	5828
1279.532	5782
1281.808	5866
1284.083	5652
1286.358	5757
1288.63	5693
1290.904	5771
1293.175	5774
1295.449	5726
1297.719	5724
1299.99	5665
1302.259	5784
1304.529	5756
1306.798	5764
1309.065	5786
1311.333	5717
1313.599	5758
1315.866	5837
1318.131	5645
1320.396	5927
1322.66	5711
1324.925	5757
1327.187	5725
1329.448	5863
1331.711	5813
1333.974	5810
1336.234	5830
1338.493	5775
1340.752	5837
1343.01	5722
1345.269	5650
1347.526	5781
1349.784	5743
1352.04	5679
1354.295	5781
1356.552	5739
1358.806	5759
1361.059	5765
1363.312	5856
1365.564	5763
1367.818	5871
1370.069	5822
1372.318	5741
1374.568	5857
1376.817	5716
1379.066	5817
1381.316	5819
1383.564	5793
1385.809	5837
1388.056	5744
1390.301	5943
1392.549	5838
1394.793	5901
1397.036	6075
1399.279	6054
1401.522	5948
1403.763	6064
1406.007	6040
1408.248	6004
1410.487	6011
1412.727	5981
1414.965	5979
1417.205	5942
1419.442	6030
1421.68	5867
1423.915	5949
1426.152	5885
1428.388	5958
1430.623	5887
1432.857	6028
1435.091	6045
1437.323	5956
1439.556	6025
1441.789	6061
1444.019	6043
1446.25	6157
1448.48	6102
1450.708	6028
1452.938	6062
1455.167	6169
1457.394	6170
1459.62	6187
1461.846	5987
1464.073	6034
1466.299	5988
1468.523	6060
1470.746	5906
1472.969	5882
1475.191	5867
1477.415	5924
1479.636	5888
1481.858	5757
1484.078	5784
1486.298	5864
1488.518	5727
1490.736	5787
1492.954	5748
1495.169	5769
1497.386	5670
1499.602	5773
1501.819	5687
1504.034	5750
1506.248	5709
1508.462	5768
1510.675	5771
1512.888	5850
1515.1	5784
1517.311	5747
1519.522	5807
1521.732	5667
1523.942	5745
1526.151	5721
1528.36	5821
1530.566	5715
1532.773	5819
1534.98	5707
1537.187	5794
1539.392	5703
1541.596	5653
1543.801	5799
1546.005	5813
1548.208	5751
1550.411	5902
1552.612	5875
1554.814	5853
1557.013	5769
1559.212	5865
1561.414	5923
1563.612	5736
1565.811	5874
1568.007	5806
1570.203	5931
1572.403	5934
1574.598	5904
1576.792	5948
1578.988	5920
1581.181	5909
1583.376	5866
1585.568	5983
1587.761	5937
1589.952	5876
1592.143	5928
1594.333	5940
1596.524	6017
1598.715	5913
1600.903	6014
1603.091	5942
1605.278	6090
1607.466	5948
1609.652	6093
1611.838	5955
1614.023	5951
1616.207	5848
1618.391	6018
1620.576	5962
1622.759	6062
1624.941	6073
1627.123	5878
1629.304	6034
1631.484	6079
1633.664	5893
1635.844	6109
1638.022	5971
1640.201	5985
1642.38	6095
1644.556	5944
1646.732	5934
1648.908	6054
1651.084	6141
1653.257	5960
1655.433	6012
1657.607	6031
1659.779	6093
1661.951	6113
1664.122	6061
1666.295	6109
1668.467	6015
1670.635	6099
1672.805	6161
1674.973	6135
1677.142	6091
1679.31	6161
1681.478	6124
1683.644	6122
1685.81	5994
1687.975	6009
1690.142	6001
1692.305	6088
1694.468	5920
1696.632	5928
1698.794	5989
1700.957	5904
1703.119	6001
1705.279	5979
1707.439	5966
1709.598	5850
1711.758	5979
1713.917	5867
1716.075	6017
1718.231	5920
1720.388	5989
1722.543	5913
1724.702	5956
1726.856	5922
1729.01	5988
1731.164	5897
1733.317	5974
1735.471	5969
1737.623	5906
1739.774	5928
1741.925	6070
1744.075	5858
1746.225	5913
1748.376	5895
1750.524	5941
1752.672	5992
1754.82	5955
1756.965	5883
1759.113	5886
1761.259	6044
1763.405	6091
1765.549	6002
1767.694	5977
1769.836	6045
1771.981	6022
1774.123	5966
1776.264	5986
1778.405	6018
1780.546	5985
1782.687	5926
1784.827	6004
1786.966	5990
1789.103	6044
1791.242	5925
1793.381	5945
1795.517	6086
1797.653	5932
1799.788	6152
1801.923	6010
1804.057	6018
1806.193	6074
1808.326	6085
1810.457	5999
1812.59	5964
1814.721	6069
1816.855	6064
1818.984	6091
1821.113	5969
1823.244	5963
1825.372	6017
1827.499	5969
1829.63	5951
1831.756	5866
1833.882	5929
1836.007	5937
1838.132	6028
1840.26	5976
1842.384	5987
1844.507	6001
1846.63	5944
1848.752	5937
1850.875	5920
1852.996	6000
1855.118	5963
1857.238	5873
1859.358	5921
1861.477	5784
1863.597	5994
1865.715	5929
1867.832	5858
1869.948	5993
1872.064	5888
1874.181	5944
1876.297	6012
1878.411	5967
1880.526	5984
1882.639	5956
1884.752	6021
1886.865	6012
1888.977	6001
1891.089	6005
1893.2	6011
1895.308	5919
1897.42	5966
1899.53	5918
1901.639	6016
1903.745	5947
1905.853	6008
1907.962	6124
1910.067	5952
1912.174	5938
1914.278	6075
1916.383	6038
1918.486	5987
1920.592	6045
1922.694	6111
1924.797	5995
1926.898	6043
1929	6136
1931.102	6041
1933.203	6069
1935.301	6076
1937.401	6013
1939.499	6102
1941.598	6107
1943.697	6019
1945.793	6106
1947.888	6156
1949.985	6024
1952.08	6112
1954.176	6086
1956.269	5986
1958.364	6045
1960.457	6041
1962.549	6076
1964.642	5993
1966.733	6145
1968.823	6113
1970.913	5906
1973.005	6002
1975.093	6092
1977.184	5955
1979.271	6008
1981.359	6021
1983.446	5992
1985.532	6004
1987.619	6058
1989.705	6113
1991.789	6042
1993.874	5998
1995.956	6038
1998.041	6009
2000.123	6035
2002.206	6107
2004.287	5992
2006.368	6013
2008.449	5978
2010.529	6032
2012.609	5989
2014.688	5970
2016.766	5983
2018.843	5889
2020.922	5990
2022.999	6032
2025.074	5893
2027.15	5871
2029.225	5973
2031.299	6017
2033.375	6022
2035.447	6071
2037.52	5973
2039.592	5995
2041.664	5996
2043.736	6006
2045.807	5985
2047.876	6009
2049.947	6024
2052.015	5851
2054.086	5938
2056.153	5964
2058.221	5881
2060.288	5952
2062.353	5966
2064.42	5854
2066.486	5932
2068.55	5953
2070.614	6030
2072.678	6083
2074.741	5966
2076.805	5993
2078.866	5966
2080.929	5990
2082.99	5816
2085.049	5902
2087.109	5932
2089.17	5833
2091.228	5880
2093.286	5956
2095.344	6165
2097.4	5964
2099.46	5868
2101.516	5956
2103.572	5915
2105.626	5929
2107.679	5917
2109.735	5981
2111.788	5999
2113.841	6012
2115.894	5867
2117.945	5947
2119.997	5950
2122.049	6000
2124.1	6050
2126.148	5930
2128.197	5969
2130.246	5960
2132.296	5916
2134.342	6053
2136.39	5978
2138.437	5962
2140.483	6099
2142.527	5961
2144.574	5987
2146.619	5873
2148.661	5950
2150.705	5945
2152.747	6067
2154.792	5842
2156.832	6024
2158.874	5958
2160.915	5932
2162.954	5961
2164.995	5942
2167.034	5986
2169.072	5987
2171.111	5967
2173.148	5799
2175.186	6021
2177.223	5906
2179.258	5917
2181.294	5828
2183.328	5782
2185.362	5853
2187.398	5838
2189.431	5735
2191.463	5858
2193.495	5993
2195.528	5883
2197.56	5896
2199.59	5904
2201.62	5848
2203.649	5846
2205.678	5793
2207.708	5889
2209.737	5885
2211.764	5706
2213.791	5839
2215.817	5810
2217.843	5823
2219.87	5770
2221.895	5870
2223.919	5778
2225.942	5800
2227.966	5858
2229.988	5786
2232.012	5814
2234.032	5843
2236.054	5822
2238.074	5827
2240.095	5735
2242.116	5848
2244.135	5790
2246.153	5739
2248.171	5771
2250.188	5862
2252.208	5873
2254.223	5825
2256.239	5738
2258.255	5802
2260.269	5697
2262.283	5833
2264.3	5830
2266.312	5908
2268.325	5698
2270.336	5767
2272.349	5893
2274.362	5875
2276.372	5836
2278.383	5870
2280.392	5745
2282.402	5782
2284.409	5778
2286.418	5826
2288.427	5740
2290.433	5747
2292.441	5797
2294.446	5840
2296.453	5794
2298.459	5890
2300.463	5732
2302.466	5761
2304.471	5776
2306.475	5749
2308.477	5850
2310.478	5729
2312.481	5714
2314.481	5766
2316.481	5717
2318.482	5699
2320.482	5731
2322.48	5736
2324.48	5637
2326.478	5836
2328.476	5665
2330.473	5725
2332.469	5783
2334.465	5770
2336.46	5824
2338.454	5753
2340.45	5793
2342.444	5668
2344.437	5633
2346.43	5714
2348.421	5638
2350.414	5714
2352.405	5773
2354.396	5678
2356.386	5676
2358.376	5627
2360.366	5739
2362.355	5618
2364.343	5644
2366.331	5572
2368.317	5681
2370.304	5664
2372.292	5658
2374.278	5564
2376.262	5692
2378.247	5661
2380.23	5562
2382.216	5653
2384.199	5589
2386.181	5614
2388.163	5593
2390.144	5604
2392.127	5581
2394.107	5568
2396.087	5603
2398.066	5601
2400.046	5509
2402.023	5655
2404.004	5517
2405.981	5622
2407.957	5510
2409.934	5625
2411.91	5626
2413.886	5590
2415.862	5608
2417.836	5588
2419.809	5599
2421.784	5626
2423.756	5549
2425.73	5577
2427.701	5593
2429.672	5527
2431.644	5572
2433.615	5675
2435.586	5483
2437.555	5560
2439.523	5668
2441.491	5537
2443.459	5493
2445.428	5659
2447.395	5555
2449.361	5597
2451.327	5566
2453.292	5484
2455.257	5528
2457.223	5482
2459.187	5489
2461.15	5539
2463.113	5559
2465.076	5513
2467.039	5612
2468.999	5551
2470.96	5407
2472.921	5559
2474.881	5550
2476.841	5521
2478.8	5552
2480.759	5573
2482.717	5541
2484.675	5477
2486.63	5477
2488.589	5523
2490.545	5515
2492.5	5511
2494.455	5514
2496.408	5510
2498.364	5467
2500.318	5475
2502.27	5485
2504.223	5491
2506.174	5408
2508.126	5446
2510.078	5447
2512.03	5477
2513.979	5496
2515.927	5422
2517.877	5565
2519.826	5364
2521.775	5552
2523.722	5513
2525.668	5452
2527.616	5435
2529.561	5558
2531.508	5481
2533.452	5432
2535.398	5460
2537.342	5457
2539.284	5497
2541.229	5568
2543.173	5377
2545.114	5413
2547.055	5334
2548.996	5435
2550.938	5491
2552.878	5465
2554.817	5424
2556.756	5511
2558.695	5395
2560.633	5473
2562.572	5422
2564.509	5337
2566.445	5311
2568.382	5456
2570.317	5453
2572.254	5404
2574.189	5426
2576.123	5444
2578.057	5329
2579.99	5462
2581.923	5460
2583.855	5391
2585.788	5468
2587.719	5450
2589.65	5500
2591.579	5468
2593.511	5454
2595.44	5497
2597.37	5414
2599.297	5512
2601.225	5431
2603.153	5412
2605.08	5330
2607.007	5405
2608.932	5388
2610.858	5309
2612.782	5338
2614.709	5401
2616.632	5445
2618.556	5378
2620.478	5481
2622.401	5426
2624.324	5421
2626.247	5382
2628.167	5449
2630.088	5447
2632.008	5463
2633.928	5482
2635.848	5410
2637.766	5470
2639.684	5437
2641.603	5397
2643.519	5399
2645.437	5466
2647.353	5537
2649.27	5408
2651.184	5396
2653.099	5458
2655.014	5440
2656.928	5396
2658.842	5440
2660.755	5332
2662.667	5393
2664.579	5343
2666.491	5542
2668.402	5444
2670.312	5467
2672.222	5416
2674.132	5315
2676.042	5425
2677.951	5439
2679.859	5347
2681.766	5337
2683.674	5402
2685.582	5341
2687.488	5333
2689.392	5374
2691.298	5353
2693.202	5314
2695.107	5271
2697.012	5356
2698.914	5365
2700.817	5333
2702.72	5349
2704.622	5288
2706.524	5359
2708.425	5336
2710.326	5318
2712.225	5311
2714.125	5280
2716.024	5318
2717.923	5341
2719.822	5294
2721.719	5306
2723.616	5278
2725.512	5435
2727.41	5268
2729.305	5284
2731.201	5340
2733.095	5437
2734.99	5345
2736.884	5285
2738.778	5314
2740.67	5184
2742.562	5221
2744.455	5219
2746.346	5339
2748.238	5232
2750.129	5268
2752.018	5356
2753.907	5238
2755.797	5265
2757.687	5219
2759.575	5397
2761.462	5230
2763.349	5328
2765.237	5285
2767.124	5329
2769.009	5275
2770.894	5203
2772.779	5169
2774.663	5241
2776.547	5223
2778.431	5271
2780.314	5155
2782.197	5165
2784.078	5180
2785.96	5250
2787.842	5232
2789.723	5293
2791.603	5304
2793.483	5284
2795.362	5237
2797.241	5201
2799.121	5262
2800.997	5187
2802.874	5307
2804.751	5202
2806.628	5141
2808.506	5258
2810.38	5200
2812.255	5260
2814.13	5207
2816.003	5167
2817.878	5225
2819.752	5266
2821.623	5180
2823.496	5229
2825.368	5215
2827.238	5185
2829.111	5161
2830.98	5177
2832.851	5218
2834.719	5159
2836.589	5285
2838.458	5168
2840.327	5207
2842.193	5162
2844.061	5267
2845.927	5244
2847.794	5292
2849.66	5348
2851.525	5242
2853.39	5242
2855.254	5261
2857.117	5301
2858.983	5305
2860.845	5313
2862.707	5338
2864.569	5413
2866.431	5382
2868.293	5256
2870.154	5441
2872.013	5316
2873.873	5573
2875.733	5474
2877.592	5589
2879.451	5458
2881.309	5522
2883.166	5468
2885.022	5733
2886.879	5659
2888.736	5649
2890.591	5630
2892.446	5618
2894.301	5633
2896.155	5630
2898.009	5656
2899.863	5703
2901.716	5586
2903.568	5552
2905.419	5619
2907.27	5653
2909.123	5650
2910.973	5600
2912.824	5693
2914.673	5707
2916.521	5649
2918.372	5804
2920.22	5743
2922.067	5867
2923.914	5883
2925.761	5908
2927.607	5875
2929.455	5885
2931.301	5941
2933.144	5942
2934.99	5965
2936.833	6093
2938.678	6110
2940.522	6003
2942.364	6190
2944.207	6211
2946.048	6249
2947.891	6381
2949.731	6274
2951.571	6366
2953.412	6376
2955.25	6247
2957.09	6307
2958.93	6116
2960.767	6138
2962.606	6113
2964.443	6007
2966.279	6106
2968.116	5922
2969.953	5941
2971.788	5792
2973.623	5875
2975.457	5785
2977.292	5748
2979.127	5662
2980.959	5796
2982.792	5655
2984.624	5591
2986.455	5509
2988.288	5545
2990.119	5527
2991.949	5506
2993.779	5524
2995.608	5562
2997.439	5389
2999.268	5289
3001.096	5410
3002.923	5396
3004.751	5213
3006.578	5227
3008.406	5210
3010.232	5223
3012.057	5173
3013.883	5075
3015.706	5098
3017.532	5202
3019.356	5084
3021.179	5094
3023.002	5059
3024.823	4909
3026.646	4978
3028.469	4919
3030.289	5010
3032.11	4988
3033.93	4880
3035.749	4988
3037.57	4949
3039.39	4967
3041.207	4990
3043.026	4874
3044.842	4926
3046.661	4925
3048.477	4945
3050.294	4958
3052.109	4957
3053.925	4931
3055.739	4927
3057.555	4929
3059.368	4840
3061.181	4883
3062.995	4948
3064.807	4952
3066.62	4893
3068.433	4980
3070.243	4884
3072.054	4916
3073.865	4877
3075.675	4841
3077.485	4864
3079.293	4847
3081.102	4852
3082.911	4823
3084.719	4738
3086.527	4818
3088.333	4769
3090.139	4843
3091.945	4759
3093.75	4745
3095.557	4833
3097.361	4833
3099.165	4769
3100.969	4737
3102.772	4741
3104.575	4772
3106.379	4697
3108.181	4711
3109.982	4795
3111.783	4635
3113.584	4756
3115.386	4659
3117.186	4672
3118.985	4710
3120.783	4819
3122.582	4662
3124.381	4691
3126.179	4687
3127.975	4751
3129.772	4580
3131.569	4714
3133.365	4622
3135.161	4610
3136.956	4763
3138.751	4621
3140.544	4635
3142.338	4630
3144.132	4552
3145.925	4726
3147.717	4628
3149.509	4608
3151.301	4645
3153.091	4575
3154.884	4684
3156.673	4545
3158.462	4597
3160.252	4593
3162.041	4593
3163.831	4641
3165.618	4562
3167.405	4573
3169.193	4697
3170.979	4670
3172.767	4581
3174.553	4477
3176.338	4626
3178.123	4622
3179.907	4555
3181.692	4538
3183.477	4566
3185.259	4534
3187.042	4560
3188.824	4615
3190.607	4567
3192.389	4631
3194.17	4570
3195.951	4504
3197.73	4533
3199.51	4627
3201.289	4541
3203.07	4546
3204.848	4633
3206.626	4498
3208.403	4506
3210.18	4470
3211.959	4455
3213.735	4470
3215.511	4490
3217.285	4543
3219.06	4687
3220.836	4555
3222.611	4502
3224.384	4469
3226.158	4500
3227.929	4513
3229.702	4494
3231.476	4608
3233.248	4503
3235.018	4559
3236.789	4584
3238.56	4563
3240.33	4426
3242.1	4484
3243.869	4438
3245.637	4503
3247.405	4473
3249.172	4553
3250.941	4516
3252.707	4531
3254.474	4553
3256.24	4418
3258.006	4526
3259.772	4525
3261.537	4465
3263.301	4455
3265.065	4502
3266.828	4349
3268.592	4463
3270.355	4562
3272.117	4495
3273.878	4393
3275.64	4443
3277.401	4500
3279.162	4469
3280.922	4533
3282.682	4457
3284.441	4555
3286.199	4451
3287.959	4526
3289.716	4390
3291.475	4402
3293.232	4469
3294.988	4510
3296.744	4343
3298.501	4439
3300.256	4500
3302.011	4385
3303.766	4454
3305.52	4503
3307.275	4432
3309.028	4448
3310.781	4599
3312.533	4452
3314.285	4411
3316.038	4391
3317.789	4471
3319.54	4557
3321.289	4440
3323.039	4356
3324.789	4429
3326.539	4492
3328.288	4506
3330.035	4430
3331.783	4421
3333.531	4427
3335.28	4357
3337.025	4417
3338.771	4366
3340.518	4433
3342.262	4328
3344.009	4428
3345.753	4464
3347.497	4427
3349.24	4372
3350.983	4387
3352.726	4352
3354.469	4413
3356.212	4389
3357.952	4365
3359.694	4328
3361.434	4341
3363.176	4266
3364.916	4367
3366.654	4357
3368.394	4338
3370.132	4392
3371.871	4418
3373.61	4364
3375.346	4278
3377.083	4325
3378.82	4254
3380.556	4267
3382.292	4361
3384.027	4331
3385.763	4206
3387.497	4256
3389.231	4311
3390.965	4190
3392.698	4322
3394.431	4337
3396.164	4248
3397.896	4199
3399.627	4298
3401.36	4347
3403.09	4354
3404.82	4360
3406.55	4248
3408.279	4197
3410.01	4282
3411.738	4277
3413.467	4216
3415.194	4262
3416.92	4227
3418.647	4218
3420.375	4148
3422.102	4189
3423.827	4194
3425.553	4153
3427.277	4184
3429.003	4250
3430.727	4167
3432.451	4167
3434.173	4197
3435.896	4104
3437.62	4234
3439.343	4155
3441.063	4160
3442.785	4123
3444.505	4035
3446.226	4148
3447.948	4245
3449.666	4065
3451.386	4144
3453.104	4259
3454.823	4142
3456.541	4136
3458.259	4030
3459.976	4114
3461.693	4119
3463.408	4090
3465.125	4124
3466.841	4032
3468.556	4087
3470.271	4079
3471.985	4050
3473.698	3997
3475.414	4079
3477.126	4012
3478.838	4053
3480.55	4063
3482.263	4130
3483.975	3947
3485.686	4053
3487.396	4043
3489.106	4035
3490.817	3983
3492.526	4003
3494.236	3996
3495.944	4004
3497.652	3931
3499.359	4028
3501.066	3955
3502.775	3987
3504.481	3862
3506.187	3930
3507.893	4015
3509.598	3893
3511.304	3949
3513.009	3881
3514.713	4030
3516.417	3874
3518.12	3942
3519.821	3972
3521.525	3903
3523.228	3930
3524.929	3884
3526.631	3934
3528.33	3908
3530.032	3862
3531.733	3876
3533.433	3892
3535.131	3907
3536.83	3874
3538.529	3916
3540.227	3892
3541.925	3926
3543.623	3932
3545.319	3849
3547.016	3843
3548.712	3817
3550.408	3827
3552.103	3844
3553.798	3930
3555.491	3848
3557.188	3777
3558.88	3857
3560.574	3859
3562.266	3858
3563.959	3723
3565.651	3839
3567.343	3807
3569.035	3910
3570.725	3781
3572.415	3864
3574.106	3769
3575.797	3756
3577.485	3797
3579.174	3758
3580.863	3760
3582.551	3780
3584.238	3792
3585.926	3759
3587.613	3815
3589.3	3816
3590.986	3814
3592.671	3702
3594.357	3782
3596.042	3748
3597.726	3728
3599.41	3743
3601.094	3671
3602.778	3636
3604.461	3701
3606.143	3681
3607.825	3656
3609.507	3755
3611.188	3654
3612.87	3764
3614.551	3656
3616.229	3671
3617.909	3689
3619.589	3613
3621.269	3780
3622.948	3667
3624.625	3690
3626.302	3613
3627.98	3657
3629.657	3625
3631.334	3645
3633.01	3622
3634.686	3592
3636.361	3594
3638.036	3563
3639.712	3662
3641.385	3604
3643.06	3599
3644.732	3559
3646.405	3543
3648.08	3631
3649.751	3576
3651.424	3609
3653.094	3627
3654.766	3593
3656.436	3553
3658.106	3574
3659.777	3482
3661.446	3576
3663.115	3646
3664.783	3539
3666.452	3638
3668.121	3547
3669.788	3559
3671.454	3584
3673.121	3452
3674.789	3543
3676.455	3521
3678.12	3587
3679.784	3502
3681.45	3524
3683.114	3562
3684.779	3481
3686.442	3481
3688.105	3474
3689.768	3482
3691.43	3561
3693.093	3496
3694.754	3553
3696.415	3521
3698.076	3355
3699.736	3474
3701.396	3532
3703.057	3459
3704.716	3496
3706.375	3492
3708.034	3529
3709.692	3435
3711.351	3473
3713.008	3451
3714.665	3544
3716.321	3405
3717.977	3545
3719.634	3505
3721.29	3467
3722.945	3429
3724.598	3410
3726.253	3496
3727.907	3513
3729.561	3392
3731.214	3420
3732.867	3465
3734.518	3392
3736.171	3415
3737.824	3404
3739.474	3339
3741.125	3504
3742.775	3438
3744.425	3434
3746.074	3460
3747.725	3373
3749.373	3419
3751.022	3409
3752.669	3408
3754.318	3429
3755.966	3364
3757.612	3408
3759.259	3393
3760.905	3334
3762.55	3341
3764.197	3351
3765.842	3331
3767.486	3395
3769.131	3460
3770.774	3367
3772.417	3323
3774.061	3390
3775.705	3305
3777.347	3396
3778.988	3348
3780.629	3315
3782.271	3309
3783.912	3352
3785.552	3355
3787.192	3321
3788.831	3351
3790.472	3316
3792.112	3308
3793.75	3305
3795.388	3284
3797.024	3326
3798.661	3227
3800.3	3332
3801.936	3218
3803.572	3308
3805.208	3317
3806.844	3333
3808.48	3343
3810.115	3286
3811.748	3322
3813.382	3262
3815.016	3155
3816.649	3257
3818.283	3278
3819.914	3233
3821.547	3304
3823.178	3268
3824.809	3228
3826.441	3282
3828.072	3322
3829.701	3232
3831.331	3240
3832.96	3231
3834.591	3211
3836.219	3293
3837.847	3248
3839.475	3163
3841.102	3158
3842.729	3113
3844.357	3259
3845.984	3224
3847.609	3247
3849.234	3193
3850.86	3224
3852.485	3131
3854.11	3214
3855.734	3120
3857.357	3210
3858.981	3172
3860.603	3217
3862.227	3289
3863.848	3163
3865.471	3155
3867.092	3176
3868.713	3197
3870.334	3126
3871.954	3147
3873.575	3095
3875.194	3186
3876.813	3118
3878.433	3136
3880.051	3171
3881.669	3194
3883.286	3149
3884.904	3183
3886.52	3160
3888.138	3118
3889.754	3123
3891.37	3112
3892.985	3213
3894.6	3107
3896.216	3121
3897.831	3026
3899.444	3039
3901.058	3022
3902.67	3155
3904.283	3064
3905.897	3103
3907.509	3185
3909.121	3186
3910.731	3131
3912.342	3132
3913.954	3141
3915.563	3130
3917.174	3025
3918.783	3081
3920.391	3135
3922.002	3043
3923.611	3085
3925.218	3115
3926.826	3238
3928.432	3076
3930.039	3020
3931.647	3101
3933.253	3107
3934.859	2976
3936.464	3042
3938.068	3073
3939.675	3031
3941.278	3051
3942.883	3044
3944.486	3044
3946.089	3044
3947.692	2974
3949.295	3102
3950.898	3018
3952.499	3044
3954.1	3054
3955.7	3049
3957.303	2968
3958.903	3073
3960.502	2998
3962.101	2954
3963.7	2956
3965.301	2984
3966.899	3079
3968.497	3054
3970.094	2969
3971.691	3005
3973.288	2943
3974.885	2952
3976.481	2972
3978.077	2997
3979.672	2926
3981.267	2996
3982.863	2942
3984.457	2969
3986.051	3047
3987.645	2909
3989.238	3001
3990.831	2898
3992.425	3061
3994.017	2952
3995.607	2976
3997.199	2952
3998.79	3015
4000.382	2897
4001.973	2891
4003.561	2951
4005.151	2896
4006.741	2947
4008.331	2888
4009.918	2876
4011.507	2955
4013.095	2834
4014.681	2885
4016.269	2889
4017.856	2888
4019.443	2864
4021.028	2855
4022.614	2893
4024.199	2816
4025.785	2878
4027.37	2914
4028.953	2842
4030.536	2818
4032.12	2845
4033.704	2942
4035.287	2817
4036.869	2859
4038.45	2861
4040.032	2828
4041.613	2874
4043.195	2873
4044.776	2820
4046.356	2904
4047.935	2859
4049.515	2845
4051.095	2798
4052.674	2851
4054.251	2793
4055.829	2842
4057.406	2819
4058.985	2838
4060.562	2855
4062.139	2797
4063.715	2819
4065.29	2809
4066.865	2860
4068.442	2802
4070.016	2831
4071.59	2795
4073.164	2768
4074.738	2834
4076.312	2800
4077.885	2738
4079.458	2724
4081.03	2815
4082.602	2841
4084.173	2794
4085.745	2831
4087.315	2772
4088.886	2791
4090.456	2740
4092.026	2799
4093.596	2763
4095.165	2776
4096.734	2708
4098.301	2819
4099.869	2752
4101.437	2716
4103.006	2779
4104.572	2707
4106.139	2724
4107.704	2792
4109.27	2712
4110.837	2722
4112.401	2700
4113.966	2779
4115.53	2730
4117.094	2732
4118.659	2743
4120.223	2739
4121.785	2703
4123.347	2762
4124.909	2673
4126.471	2702
4128.034	2703
4129.595	2674
4131.155	2687
4132.716	2679
4134.275	2621
4135.836	2701
4137.395	2645
4138.955	2693
4140.513	2721
4142.071	2723
4143.628	2669
4145.188	2653
4146.745	2664
4148.302	2639
4149.858	2652
4151.414	2653
4152.971	2676
4154.526	2652
4156.081	2673
4157.635	2553
4159.189	2646
4160.745	2542
4162.298	2607
4163.852	2590
4165.405	2636
4166.957	2649
4168.51	2642
4170.063	2653
4171.614	2532
4173.166	2619
4174.717	2618
4176.267	2591
4177.817	2540
4179.368	2601
4180.917	2634
4182.466	2571
4184.016	2607
4185.564	2614
4187.112	2556
4188.66	2500
4190.207	2585
4191.754	2609
4193.301	2593
4194.848	2609
4196.394	2548
4197.94	2586
4199.484	2549
4201.03	2537
4202.575	2554
4204.12	2594
4205.663	2496
4207.207	2570
4208.75	2553
4210.292	2552
4211.836	2531
4213.378	2533
4214.92	2500
4216.46	2531
4218.002	2542
4219.544	2529
4221.083	2514
4222.625	2514
4224.164	2522
4225.703	2487
4227.244	2569
4228.782	2555
4230.32	2498
4231.857	2486
4233.395	2499
4234.933	2526
4236.471	2454
4238.007	2557
4239.542	2539
4241.078	2458
4242.614	2511
4244.15	2450
4245.685	2474
4247.219	2469
4248.753	2502
4250.287	2453
4251.82	2474
4253.354	2454
4254.887	2459
4256.419	2496
4257.951	2492
4259.483	2444
4261.016	2473
4262.547	2502
4264.078	2491
4265.608	2425
4267.137	2500
4268.668	2441
4270.197	2408
4271.727	2482
4273.254	2501
4274.783	2447
4276.311	2433
4277.84	2384
4279.366	2451
4280.894	2421
4282.42	2451
4283.946	2406
4285.473	2469
4286.998	2365
4288.523	2426
4290.047	2457
4291.572	2407
4293.096	2402
4294.622	2420
4296.144	2376
4297.668	2429
4299.19	2396
4300.713	2445
4302.236	2464
4303.758	2421
4305.279	2400
4306.799	2423
4308.321	2411
4309.842	2392
4311.361	2359
4312.882	2385
4314.401	2393
