400.0961	4998
402.6185	4925
405.1424	4994
407.6635	4993
410.1838	5092
412.7035	5147
415.2225	5085
417.7388	5085
420.2585	5195
422.7754	5211
425.2917	5263
427.8072	5188
430.3221	5272
432.8363	5354
435.3498	5274
437.8626	5347
440.3727	5382
442.8841	5338
445.3969	5335
447.907	5350
450.4142	5304
452.9229	5390
455.4289	5381
457.9362	5264
460.4449	5323
462.9488	5371
465.454	5349
467.9566	5364
470.4604	5307
472.9637	5348
475.4662	5337
477.966	5335
480.4671	5324
482.9656	5418
485.4633	5462
487.9645	5419
490.4608	5422
492.9566	5527
495.4536	5462
497.948	5524
500.4437	5446
502.9387	5470
505.431	5495
507.9226	5544
510.4136	5404
512.9079	5468
515.3975	5556
517.8864	5665
520.3746	5572
522.8622	5641
525.3491	5627
527.8394	5588
530.3249	5612
532.8098	5627
535.2939	5653
537.7774	5600
540.2623	5588
542.7444	5584
545.2259	5627
547.7067	5615
550.1868	5642
552.6683	5756
555.147	5741
557.6231	5538
560.1005	5605
562.5773	5642
565.0534	5620
567.5308	5733
570.0056	5704
572.4776	5760
574.951	5792
577.4237	5672
579.8978	5813
582.3671	5784
584.8378	5883
587.3079	5762
589.7773	5849
592.244	5805
594.714	5910
597.1793	5829
599.6461	5760
602.1121	5668
604.5754	5849
607.0421	5811
609.5042	5745
611.9675	5831
614.4282	5805
616.8902	5903
619.3515	5735
621.8122	5824
624.2702	5831
626.7296	5859
629.1863	5768
631.6423	5685
634.1017	5711
636.5563	5866
639.0104	5760
641.4658	5841
643.9185	5751
646.3725	5752
648.8239	5872
651.2766	5926
653.7266	5778
656.176	5799
658.6247	5809
661.0748	5869
663.5242	5944
665.9709	5955
668.417	5861
670.8624	5939
673.3092	6037
675.7533	5974
678.1968	5957
680.6395	5997
683.0817	6011
685.5251	6013
687.9659	6023
690.4061	6016
692.8456	6010
695.2844	6083
697.7226	6062
700.1621	6006
702.599	6073
705.0332	6162
707.4688	6091
709.9036	6134
712.3399	6143
714.7735	6119
717.2044	6165
719.6367	6069
722.0683	6216
724.4993	6272
726.9296	6268
729.3593	6163
731.7883	6167
734.2147	6201
736.6423	6189
739.0714	6351
741.4958	6265
743.9216	6226
746.3447	6249
748.7691	6314
751.1929	6407
753.616	6345
756.0366	6349
758.4584	6401
760.8776	6534
763.2982	6393
765.718	6464
768.1373	6465
770.5539	6433
772.9698	6466
775.3871	6455
777.8038	6356
780.2178	6471
782.6332	6570
785.0459	6382
787.458	6511
789.8714	6395
792.2842	6481
794.6943	6386
797.1038	6433
799.5127	6662
801.9209	6422
804.3324	6469
806.7393	6508
809.1456	6517
811.5513	6490
813.9562	6487
816.3625	6460
818.7663	6506
821.1693	6501
823.5718	6498
825.9735	6596
828.3746	6508
830.7771	6462
833.177	6559
835.5762	6614
837.9747	6527
840.3727	6608
842.772	6594
845.1666	6643
847.5626	6682
849.958	6672
852.3527	6846
854.7488	6587
857.1403	6752
859.5331	6612
861.9253	6681
864.3168	6781
866.7057	6664
869.098	6699
871.4876	6732
873.8746	6666
876.263	6623
878.6487	6613
881.0378	6733
883.4243	6627
885.8081	6717
888.1933	6675
890.5759	6599
892.9598	6586
895.343	6676
897.7256	6612
900.1057	6742
902.4871	6761
904.8659	6742
907.246	6704
909.6254	6730
912.0023	6796
914.3786	6771
916.7562	7012
919.1331	6975
921.5074	7057
923.8831	7120
926.2562	7121
928.6287	7042
931.0005	7006
933.3757	7072
935.7462	7074
938.1162	7104
940.4855	7152
942.8542	7150
945.2242	7113
947.5916	7249
949.9584	7273
952.3266	7457
954.6921	7574
957.0571	7885
959.4233	8029
961.787	7920
964.15	7922
966.5125	7851
968.8742	7371
971.2354	7302
973.5959	7229
975.9559	7043
978.3151	7080
980.6738	7052
983.0338	6920
985.3912	6970
987.7461	7025
990.1022	6848
992.4578	7042
994.8127	6910
997.1689	6918
999.5207	6976
1001.874	6953
1004.226	7022
1006.576	7012
1008.929	6912
1011.28	6954
1013.628	6874
1015.977	6929
1018.324	6979
1020.674	6938
1023.019	6946
1025.366	7019
1027.713	7028
1030.056	7031
1032.399	7044
1034.746	7066
1037.087	6915
1039.431	7156
1041.771	6991
1044.113	7001
1046.454	7051
1048.793	6945
1051.133	7087
1053.471	7003
1055.807	7009
1058.146	7040
1060.483	6967
1062.818	7081
1065.153	7142
1067.489	7033
1069.822	7156
1072.156	7222
1074.488	7237
1076.82	7177
1079.15	7294
1081.48	7126
1083.814	7117
1086.143	7157
1088.471	7160
1090.799	7075
1093.126	6995
1095.452	7002
1097.78	7144
1100.105	7004
1102.43	7153
1104.754	7020
1107.077	7112
1109.4	7006
1111.722	7100
1114.044	7085
1116.365	7155
1118.685	7072
1121.005	7167
1123.324	7087
1125.643	7154
1127.961	7191
1130.278	7199
1132.595	7200
1134.911	7153
1137.226	7162
1139.541	7147
1141.854	7148
1144.167	7145
1146.482	7130
1148.793	7126
1151.105	7100
1153.414	7072
1155.725	7163
1158.033	7110
1160.344	7006
1162.651	7165
1164.959	7060
1167.265	7187
1169.572	7130
1171.878	7172
1174.184	7160
1176.488	7202
1178.79	7262
1181.094	7279
1183.396	7203
1185.699	7170
1188.001	7155
1190.301	7192
1192.6	7219
1194.9	7230
1197.2	7127
1199.497	7045
1201.794	7230
1204.09	7218
1206.387	7173
1208.684	7160
1210.978	7179
1213.272	7217
1215.565	7092
1217.858	7213
1220.15	7288
1222.443	7201
1224.734	7311
1227.024	7281
1229.313	7233
1231.602	7350
1233.892	7231
1236.18	7364
1238.467	7339
1240.754	7250
1243.04	7443
1245.325	7386
1247.612	7510
1249.896	7493
1252.178	7412
1254.461	7485
1256.743	7515
1259.027	7464
1261.308	7413
1263.587	7492
1265.867	7483
1268.146	7545
1270.425	7590
1272.703	7364
1274.981	7627
1277.256	7507
1279.532	7394
1281.808	7502
1284.083	7527
1286.358	7331
1288.63	7340
1290.904	7290
1293.175	7219
1295.449	7378
1297.719	7462
1299.99	7346
1302.259	7423
1304.529	7319
1306.798	7375
1309.065	7285
1311.333	7446
1313.599	7335
1315.866	7399
1318.131	7350
1320.396	7346
1322.66	7244
1324.925	7445
1327.187	7298
1329.448	7372
1331.711	7489
1333.974	7405
1336.234	7280
1338.493	7364
1340.752	7493
1343.01	7295
1345.269	7432
1347.526	7525
1349.784	7429
1352.04	7432
1354.295	7296
1356.552	7357
1358.806	7362
1361.059	7251
1363.312	7339
1365.564	7252
1367.818	7336
1370.069	7550
1372.318	7322
1374.568	7352
1376.817	7536
1379.066	7339
1381.316	7393
1383.564	7537
1385.809	7516
1388.056	7507
1390.301	7564
1392.549	7502
1394.793	7650
1397.036	7639
1399.279	7517
1401.522	7708
1403.763	7704
1406.007	7682
1408.248	7560
1410.487	7674
1412.727	7708
1414.965	7535
1417.205	7705
1419.442	7653
1421.68	7527
1423.915	7661
1426.152	7670
1428.388	7737
1430.623	7629
1432.857	7594
1435.091	7740
1437.323	7829
1439.556	7661
1441.789	7645
1444.019	7698
1446.25	7709
1448.48	7770
1450.708	7874
1452.938	7868
1455.167	7825
1457.394	7908
1459.62	7730
1461.846	7699
1464.073	7793
1466.299	7747
1468.523	7606
1470.746	7614
1472.969	7613
1475.191	7506
1477.415	7631
1479.636	7525
1481.858	7472
1484.078	7444
1486.298	7504
1488.518	7482
1490.736	7395
1492.954	7437
1495.169	7405
1497.386	7344
1499.602	7550
1501.819	7421
1504.034	7372
1506.248	7322
1508.462	7394
1510.675	7306
1512.888	7324
1515.1	7432
1517.311	7281
1519.522	7430
1521.732	7382
1523.942	7304
1526.151	7412
1528.36	7334
1530.566	7245
1532.773	7374
1534.98	7297
1537.187	7434
1539.392	7370
1541.596	7358
1543.801	7413
1546.005	7367
1548.208	7452
1550.411	7579
1552.612	7422
1554.814	7457
1557.013	7411
1559.212	7475
1561.414	7496
1563.612	7558
1565.811	7539
1568.007	7513
1570.203	7582
1572.403	7568
1574.598	7523
1576.792	7580
1578.988	7625
1581.181	7629
1583.376	7513
1585.568	7616
1587.761	7524
1589.952	7590
1592.143	7546
1594.333	7617
1596.524	7624
1598.715	7471
1600.903	7504
1603.091	7713
1605.278	7550
1607.466	7747
1609.652	7602
1611.838	7485
1614.023	7710
1616.207	7815
1618.391	7705
1620.576	7619
1622.759	7667
1624.941	7641
1627.123	7659
1629.304	7675
1631.484	7760
1633.664	7748
1635.844	7749
1638.022	7838
1640.201	7535
1642.38	7710
1644.556	7761
1646.732	7760
1648.908	7688
1651.084	7615
1653.257	7688
1655.433	7615
1657.607	7731
1659.779	7835
1661.951	7750
1664.122	7790
1666.295	7861
1668.467	7799
1670.635	7942
1672.805	7829
1674.973	7795
1677.142	7825
1679.31	7825
1681.478	7749
1683.644	7724
1685.81	7692
1687.975	7778
1690.142	7709
1692.305	7746
1694.468	7633
1696.632	7567
1698.794	7694
1700.957	7582
1703.119	7671
1705.279	7574
1707.439	7592
1709.598	7518
1711.758	7672
1713.917	7636
1716.075	7638
1718.231	7586
1720.388	7694
1722.543	7611
1724.702	7466
1726.856	7590
1729.01	7628
1731.164	7512
1733.317	7621
1735.471	7709
1737.623	7539
1739.774	7492
1741.925	7597
1744.075	7722
1746.225	7700
1748.376	7558
1750.524	7558
1752.672	7664
1754.82	7586
1756.965	7632
1759.113	7630
1761.259	7626
1763.405	7592
1765.549	7605
1767.694	7540
1769.836	7657
1771.981	7645
1774.123	7703
1776.264	7695
1778.405	7623
1780.546	7673
1782.687	7716
1784.827	7651
1786.966	7708
1789.103	7699
1791.242	7726
1793.381	7649
1795.517	7680
1797.653	7791
1799.788	7547
1801.923	7624
1804.057	7640
1806.193	7673
1808.326	7711
1810.457	7637
1812.59	7624
1814.721	7685
1816.855	7576
1818.984	7710
1821.113	7644
1823.244	7640
1825.372	7739
1827.499	7775
1829.63	7602
1831.756	7643
1833.882	7547
1836.007	7698
1838.132	7659
1840.26	7538
1842.384	7678
1844.507	7663
1846.63	7645
1848.752	7629
1850.875	7584
1852.996	7646
1855.118	7575
1857.238	7604
1859.358	7607
1861.477	7596
1863.597	7589
1865.715	7585
1867.832	7672
1869.948	7561
1872.064	7518
1874.181	7505
1876.297	7583
1878.411	7594
1880.526	7639
1882.639	7601
1884.752	7663
1886.865	7707
1888.977	7575
1891.089	7526
1893.2	7600
1895.308	7648
1897.42	7679
1899.53	7580
1901.639	7693
1903.745	7579
1905.853	7597
1907.962	7746
1910.067	7571
1912.174	7645
1914.278	7839
1916.383	7652
1918.486	7663
1920.592	7705
1922.694	7722
1924.797	7730
1926.898	7732
1929	7799
1931.102	7713
1933.203	7600
1935.301	7600
1937.401	7699
1939.499	7576
1941.598	7655
1943.697	7645
1945.793	7682
1947.888	7661
1949.985	7734
1952.08	7617
1954.176	7769
1956.269	7726
1958.364	7668
1960.457	7596
1962.549	7679
1964.642	7556
1966.733	7648
1968.823	7594
1970.913	7643
1973.005	7684
1975.093	7694
1977.184	7686
1979.271	7581
1981.359	7783
1983.446	7695
1985.532	7613
1987.619	7677
1989.705	7787
1991.789	7553
1993.874	7690
1995.956	7616
1998.041	7624
2000.123	7657
2002.206	7696
2004.287	7654
2006.368	7643
2008.449	7592
2010.529	7594
2012.609	7645
2014.688	7619
2016.766	7521
2018.843	7558
2020.922	7640
2022.999	7587
2025.074	7626
2027.15	7617
2029.225	7603
2031.299	7647
2033.375	7566
2035.447	7530
2037.52	7514
2039.592	7692
2041.664	7686
2043.736	7597
2045.807	7683
2047.876	7617
2049.947	7608
2052.015	7652
2054.086	7555
2056.153	7491
2058.221	7555
2060.288	7618
2062.353	7646
2064.42	7598
2066.486	7537
2068.55	7695
2070.614	7683
2072.678	7626
2074.741	7638
2076.805	7586
2078.866	7528
2080.929	7689
2082.99	7561
2085.049	7684
2087.109	7706
2089.17	7519
2091.228	7679
2093.286	7592
2095.344	7678
2097.4	7671
2099.46	7682
2101.516	7602
2103.572	7558
2105.626	7642
2107.679	7574
2109.735	7602
2111.788	7508
2113.841	7643
2115.894	7487
2117.945	7599
2119.997	7615
2122.049	7648
2124.1	7632
2126.148	7474
2128.197	7731
2130.246	7584
2132.296	7581
2134.342	7559
2136.39	7524
2138.437	7612
2140.483	7561
2142.527	7640
2144.574	7525
2146.619	7445
2148.661	7626
2150.705	7448
2152.747	7576
2154.792	7441
2156.832	7570
2158.874	7562
2160.915	7543
2162.954	7528
2164.995	7483
2167.034	7511
2169.072	7627
2171.111	7489
2173.148	7439
2175.186	7573
2177.223	7495
2179.258	7302
2181.294	7491
2183.328	7489
2185.362	7455
2187.398	7325
2189.431	7380
2191.463	7389
2193.495	7378
2195.528	7390
2197.56	7460
2199.59	7276
2201.62	7419
2203.649	7477
2205.678	7323
2207.708	7495
2209.737	7344
2211.764	7319
2213.791	7343
2215.817	7456
2217.843	7341
2219.87	7363
2221.895	7393
2223.919	7379
2225.942	7329
2227.966	7330
2229.988	7363
2232.012	7335
2234.032	7333
2236.054	7406
2238.074	7497
2240.095	7333
2242.116	7318
2244.135	7376
2246.153	7311
2248.171	7376
2250.188	7353
2252.208	7339
2254.223	7314
2256.239	7289
2258.255	7402
2260.269	7327
2262.283	7311
2264.3	7303
2266.312	7198
2268.325	7412
2270.336	7398
2272.349	7416
2274.362	7410
2276.372	7467
2278.383	7216
2280.392	7355
2282.402	7198
2284.409	7396
2286.418	7377
2288.427	7383
2290.433	7262
2292.441	7231
2294.446	7250
2296.453	7289
2298.459	7208
2300.463	7252
2302.466	7288
2304.471	7214
2306.475	7295
2308.477	7243
2310.478	7237
2312.481	7348
2314.481	7353
2316.481	7402
2318.482	7344
2320.482	7314
2322.48	7327
2324.48	7181
2326.478	7186
2328.476	7273
2330.473	7301
2332.469	7230
2334.465	7259
2336.46	7167
2338.454	7051
2340.45	7255
2342.444	7158
2344.437	7219
2346.43	7188
2348.421	7187
2350.414	7125
2352.405	7248
2354.396	7096
2356.386	7205
2358.376	7140
2360.366	7187
2362.355	7157
2364.343	7170
2366.331	7136
2368.317	7184
2370.304	7103
2372.292	7143
2374.278	7179
2376.262	7212
2378.247	7107
2380.23	7131
2382.216	7138
2384.199	7126
2386.181	7131
2388.163	7096
2390.144	7107
2392.127	7078
2394.107	6978
2396.087	6944
2398.066	7098
2400.046	7176
2402.023	7057
2404.004	7001
2405.981	6986
2407.957	7085
2409.934	7064
2411.91	6944
2413.886	6960
2415.862	6970
2417.836	6934
2419.809	6996
2421.784	7001
2423.756	7003
2425.73	7047
2427.701	7056
2429.672	7125
2431.644	7150
2433.615	7013
2435.586	6937
2437.555	6966
2439.523	7015
2441.491	7050
2443.459	7038
2445.428	7097
2447.395	6933
2449.361	6867
2451.327	6953
2453.292	6995
2455.257	6883
2457.223	7102
2459.187	6955
2461.15	6916
2463.113	7005
2465.076	7033
2467.039	6908
2468.999	7080
2470.96	7054
2472.921	6882
2474.881	6959
2476.841	7055
2478.8	7024
2480.759	6990
2482.717	6859
2484.675	6978
2486.63	7070
2488.589	6840
2490.545	6925
2492.5	6771
2494.455	6904
2496.408	6844
2498.364	6799
2500.318	6930
2502.27	6883
2504.223	6878
2506.174	6900
2508.126	6806
2510.078	6961
2512.03	6925
2513.979	6843
2515.927	6836
2517.877	6925
2519.826	6834
2521.775	6857
2523.722	6892
2525.668	6812
2527.616	6806
2529.561	7000
2531.508	6775
2533.452	6809
2535.398	6837
2537.342	6835
2539.284	6807
2541.229	6994
2543.173	6801
2545.114	6803
2547.055	6963
2548.996	6908
2550.938	6794
2552.878	6864
2554.817	6785
2556.756	6976
2558.695	6857
2560.633	6961
2562.572	6814
2564.509	6820
2566.445	6820
2568.382	6865
2570.317	6764
2572.254	6798
2574.189	6882
2576.123	6863
2578.057	6826
2579.99	6782
2581.923	6772
2583.855	6786
2585.788	6986
2587.719	6732
2589.65	6836
2591.579	6855
2593.511	6977
2595.44	6818
2597.37	6815
2599.297	6833
2601.225	6934
2603.153	6808
2605.08	6898
2607.007	6895
2608.932	6826
2610.858	6734
2612.782	6900
2614.709	6876
2616.632	6906
2618.556	6779
2620.478	6690
2622.401	6798
2624.324	6874
2626.247	6858
2628.167	6787
2630.088	6909
2632.008	6981
2633.928	6848
2635.848	6633
2637.766	6859
2639.684	6781
2641.603	6756
2643.519	6883
2645.437	6766
2647.353	6796
2649.27	6894
2651.184	6911
2653.099	6707
2655.014	6907
2656.928	6922
2658.842	6817
2660.755	6867
2662.667	6903
2664.579	6737
2666.491	6865
2668.402	6799
2670.312	6846
2672.222	6726
2674.132	6793
2676.042	6875
2677.951	6834
2679.859	6728
2681.766	6632
2683.674	6827
2685.582	6742
2687.488	6661
2689.392	6617
2691.298	6842
2693.202	6613
2695.107	6754
2697.012	6680
2698.914	6673
2700.817	6722
2702.72	6642
2704.622	6758
2706.524	6664
2708.425	6644
2710.326	6699
2712.225	6733
2714.125	6598
2716.024	6685
2717.923	6788
2719.822	6673
2721.719	6633
2723.616	6608
2725.512	6726
2727.41	6590
2729.305	6682
2731.201	6554
2733.095	6662
2734.99	6690
2736.884	6573
2738.778	6682
2740.67	6607
2742.562	6616
2744.455	6708
2746.346	6671
2748.238	6697
2750.129	6680
2752.018	6635
2753.907	6643
2755.797	6708
2757.687	6640
2759.575	6781
2761.462	6566
2763.349	6483
2765.237	6527
2767.124	6592
2769.009	6571
2770.894	6771
2772.779	6512
2774.663	6635
2776.547	6627
2778.431	6545
2780.314	6598
2782.197	6669
2784.078	6658
2785.96	6545
2787.842	6660
2789.723	6514
2791.603	6460
2793.483	6507
2795.362	6608
2797.241	6510
2799.121	6615
2800.997	6489
2802.874	6579
2804.751	6441
2806.628	6596
2808.506	6588
2810.38	6522
2812.255	6406
2814.13	6568
2816.003	6446
2817.878	6526
2819.752	6541
2821.623	6390
2823.496	6532
2825.368	6443
2827.238	6490
2829.111	6536
2830.98	6577
2832.851	6583
2834.719	6535
2836.589	6585
2838.458	6597
2840.327	6578
2842.193	6549
2844.061	6653
2845.927	6514
2847.794	6544
2849.66	6673
2851.525	6649
2853.39	6615
2855.254	6675
2857.117	6580
2858.983	6644
2860.845	6677
2862.707	6667
2864.569	6869
2866.431	6757
2868.293	6731
2870.154	6872
2872.013	6855
2873.873	6809
2875.733	6940
2877.592	6956
2879.451	6925
2881.309	7057
2883.166	7011
2885.022	7087
2886.879	7124
2888.736	7101
2890.591	7181
2892.446	7216
2894.301	7149
2896.155	7176
2898.009	7193
2899.863	7078
2901.716	7102
2903.568	7085
2905.419	7027
2907.27	7065
2909.123	7162
2910.973	7129
2912.824	7201
2914.673	7098
2916.521	7299
2918.372	7130
2920.22	7398
2922.067	7235
2923.914	7368
2925.761	7431
2927.607	7679
2929.455	7385
2931.301	7505
2933.144	7590
2934.99	7435
2936.833	7575
2938.678	7574
2940.522	7659
2942.364	7973
2944.207	7797
2946.048	7899
2947.891	8049
2949.731	8031
2951.571	7992
2953.412	7988
2955.25	7887
2957.09	7873
2958.93	7754
2960.767	7786
2962.606	7757
2964.443	7754
2966.279	7563
2968.116	7512
2969.953	7471
2971.788	7360
2973.623	7317
2975.457	7203
2977.292	7186
2979.127	7269
2980.959	7181
2982.792	6985
2984.624	7145
2986.455	7015
2988.288	6895
2990.119	6928
2991.949	6875
2993.779	6887
2995.608	6724
2997.439	6762
2999.268	6798
3001.096	6665
3002.923	6658
3004.751	6611
3006.578	6551
3008.406	6503
3010.232	6527
3012.057	6369
3013.883	6342
3015.706	6351
3017.532	6328
3019.356	6432
3021.179	6228
3023.002	6299
3024.823	6311
3026.646	6237
3028.469	6245
3030.289	6249
3032.11	6238
3033.93	6189
3035.749	6232
3037.57	6169
3039.39	6153
3041.207	6201
3043.026	6121
3044.842	6184
3046.661	6232
3048.477	6151
3050.294	6099
3052.109	6153
3053.925	6211
3055.739	6140
3057.555	6140
3059.368	6186
3061.181	6033
3062.995	6156
3064.807	6080
3066.62	6090
3068.433	6071
3070.243	6118
3072.054	6064
3073.865	6118
3075.675	6055
3077.485	6083
3079.293	6082
3081.102	6045
3082.911	6045
3084.719	5962
3086.527	5967
3088.333	5974
3090.139	6047
3091.945	5903
3093.75	5990
3095.557	5816
3097.361	5962
3099.165	5912
3100.969	5883
3102.772	5797
3104.575	5925
3106.379	5933
3108.181	5867
3109.982	5905
3111.783	5924
3113.584	5932
3115.386	5863
3117.186	5961
3118.985	5770
3120.783	5908
3122.582	5874
3124.381	5753
3126.179	5891
3127.975	5913
3129.772	5815
3131.569	5821
3133.365	5846
3135.161	5903
3136.956	5887
3138.751	5729
3140.544	5765
3142.338	5786
3144.132	5667
3145.925	5799
3147.717	5782
3149.509	5686
3151.301	5706
3153.091	5795
3154.884	5690
3156.673	5793
3158.462	5690
3160.252	5735
3162.041	5604
3163.831	5755
3165.618	5723
3167.405	5730
3169.193	5773
3170.979	5626
3172.767	5739
3174.553	5679
3176.338	5684
3178.123	5824
3179.907	5629
3181.692	5748
3183.477	5707
3185.259	5656
3187.042	5658
3188.824	5706
3190.607	5676
3192.389	5584
3194.17	5582
3195.951	5609
3197.73	5648
3199.51	5659
3201.289	5593
3203.07	5746
3204.848	5679
3206.626	5621
3208.403	5615
3210.18	5573
3211.959	5698
3213.735	5772
3215.511	5547
3217.285	5653
3219.06	5688
3220.836	5684
3222.611	5616
3224.384	5571
3226.158	5658
3227.929	5535
3229.702	5528
3231.476	5605
3233.248	5646
3235.018	5668
3236.789	5642
3238.56	5643
3240.33	5661
3242.1	5610
3243.869	5544
3245.637	5505
3247.405	5708
3249.172	5641
3250.941	5553
3252.707	5543
3254.474	5562
3256.24	5596
3258.006	5594
3259.772	5608
3261.537	5678
3263.301	5570
3265.065	5577
3266.828	5661
3268.592	5651
3270.355	5594
3272.117	5547
3273.878	5589
3275.64	5651
3277.401	5549
3279.162	5533
3280.922	5494
3282.682	5550
3284.441	5707
3286.199	5696
3287.959	5434
3289.716	5604
3291.475	5565
3293.232	5523
3294.988	5406
3296.744	5556
3298.501	5627
3300.256	5618
3302.011	5538
3303.766	5597
3305.52	5575
3307.275	5597
3309.028	5487
3310.781	5429
3312.533	5484
3314.285	5525
3316.038	5559
3317.789	5517
3319.54	5547
3321.289	5655
3323.039	5510
3324.789	5521
3326.539	5541
3328.288	5536
3330.035	5541
3331.783	5393
3333.531	5547
3335.28	5471
3337.025	5549
3338.771	5419
3340.518	5475
3342.262	5600
3344.009	5486
3345.753	5463
3347.497	5519
3349.24	5476
3350.983	5348
3352.726	5430
3354.469	5448
3356.212	5512
3357.952	5358
3359.694	5381
3361.434	5490
3363.176	5450
3364.916	5393
3366.654	5392
3368.394	5394
3370.132	5423
3371.871	5348
3373.61	5406
3375.346	5457
3377.083	5292
3378.82	5269
3380.556	5269
3382.292	5385
3384.027	5342
3385.763	5249
3387.497	5294
3389.231	5250
3390.965	5392
3392.698	5285
3394.431	5353
3396.164	5291
3397.896	5338
3399.627	5288
3401.36	5316
3403.09	5331
3404.82	5312
3406.55	5267
3408.279	5272
3410.01	5342
3411.738	5274
3413.467	5178
3415.194	5179
3416.92	5243
3418.647	5241
3420.375	5290
3422.102	5217
3423.827	5239
3425.553	5255
3427.277	5226
3429.003	5151
3430.727	5158
3432.451	5172
3434.173	5180
3435.896	5185
3437.62	5221
3439.343	5096
3441.063	5183
3442.785	5219
3444.505	5134
3446.226	5083
3447.948	5232
3449.666	5142
3451.386	5130
3453.104	5149
3454.823	5119
3456.541	5057
3458.259	5099
3459.976	5003
3461.693	5002
3463.408	5087
3465.125	5041
3466.841	4975
3468.556	4989
3470.271	5121
3471.985	4956
3473.698	4948
3475.414	4976
3477.126	4942
3478.838	5020
3480.55	4955
3482.263	5051
3483.975	5041
3485.686	5007
3487.396	5020
3489.106	4978
3490.817	4949
3492.526	4938
3494.236	5023
3495.944	4965
3497.652	4931
3499.359	4960
3501.066	4834
3502.775	4847
3504.481	4957
3506.187	4920
3507.893	4919
3509.598	4862
3511.304	4786
3513.009	4829
3514.713	4891
3516.417	4774
3518.12	4836
3519.821	4890
3521.525	4942
3523.228	4816
3524.929	4868
3526.631	4745
3528.33	4818
3530.032	4777
3531.733	4841
3533.433	4826
3535.131	4833
3536.83	4745
3538.529	4700
3540.227	4812
3541.925	4760
3543.623	4814
3545.319	4863
3547.016	4829
3548.712	4762
3550.408	4691
3552.103	4698
3553.798	4779
3555.491	4807
3557.188	4788
3558.88	4708
3560.574	4732
3562.266	4778
3563.959	4808
3565.651	4725
3567.343	4684
3569.035	4602
3570.725	4689
3572.415	4741
3574.106	4701
3575.797	4593
3577.485	4645
3579.174	4615
3580.863	4621
3582.551	4609
3584.238	4644
3585.926	4571
3587.613	4587
3589.3	4646
3590.986	4738
3592.671	4614
3594.357	4618
3596.042	4460
3597.726	4533
3599.41	4599
3601.094	4601
3602.778	4596
3604.461	4558
3606.143	4483
3607.825	4566
3609.507	4517
3611.188	4549
3612.87	4581
3614.551	4518
3616.229	4539
3617.909	4457
3619.589	4421
3621.269	4468
3622.948	4479
3624.625	4481
3626.302	4391
3627.98	4473
3629.657	4484
3631.334	4468
3633.01	4531
3634.686	4420
3636.361	4459
3638.036	4446
3639.712	4476
3641.385	4439
3643.06	4376
3644.732	4325
3646.405	4445
3648.08	4483
3649.751	4414
3651.424	4325
3653.094	4394
3654.766	4405
3656.436	4373
3658.106	4377
3659.777	4444
3661.446	4309
3663.115	4350
3664.783	4330
3666.452	4354
3668.121	4273
3669.788	4369
3671.454	4335
3673.121	4270
3674.789	4352
3676.455	4233
3678.12	4324
3679.784	4332
3681.45	4371
3683.114	4393
3684.779	4300
3686.442	4233
3688.105	4301
3689.768	4217
3691.43	4446
3693.093	4229
3694.754	4324
3696.415	4194
3698.076	4255
3699.736	4225
3701.396	4267
3703.057	4288
3704.716	4234
3706.375	4225
3708.034	4255
3709.692	4271
3711.351	4208
3713.008	4173
3714.665	4218
3716.321	4209
3717.977	4171
3719.634	4199
3721.29	4209
3722.945	4164
3724.598	4204
3726.253	4244
3727.907	4165
3729.561	4281
3731.214	4207
3732.867	4146
3734.518	4238
3736.171	4189
3737.824	4232
3739.474	4131
3741.125	4204
3742.775	4085
3744.425	4109
3746.074	4234
3747.725	4146
3749.373	4134
3751.022	4077
3752.669	4085
3754.318	4106
3755.966	4188
3757.612	4206
3759.259	4159
3760.905	4102
3762.55	4128
3764.197	4057
3765.842	4043
3767.486	4145
3769.131	4087
3770.774	4127
3772.417	4126
3774.061	4080
3775.705	4056
3777.347	4171
3778.988	4039
3780.629	4085
3782.271	3989
3783.912	3986
3785.552	4026
3787.192	4145
3788.831	4126
3790.472	3948
3792.112	4119
3793.75	3964
3795.388	4054
3797.024	4011
3798.661	4030
3800.3	3998
3801.936	3970
3803.572	3987
3805.208	3971
3806.844	3966
3808.48	3977
3810.115	3994
3811.748	3945
3813.382	4141
3815.016	4031
3816.649	3919
3818.283	4010
3819.914	3933
3821.547	3931
3823.178	3990
3824.809	3991
3826.441	3939
3828.072	3898
3829.701	3904
3831.331	3937
3832.96	3937
3834.591	3888
3836.219	3897
3837.847	3971
3839.475	3925
3841.102	3888
3842.729	3838
3844.357	3902
3845.984	3879
3847.609	3941
3849.234	3853
3850.86	3872
3852.485	3873
3854.11	3849
3855.734	3918
3857.357	3822
3858.981	3830
3860.603	3813
3862.227	3854
3863.848	3925
3865.471	3863
3867.092	3767
3868.713	3831
3870.334	3776
3871.954	3823
3873.575	3836
3875.194	3841
3876.813	3830
3878.433	3792
3880.051	3764
3881.669	3780
3883.286	3737
3884.904	3874
3886.52	3842
3888.138	3755
3889.754	3768
3891.37	3801
3892.985	3799
3894.6	3772
3896.216	3763
3897.831	3781
3899.444	3725
3901.058	3804
3902.67	3775
3904.283	3738
3905.897	3672
3907.509	3783
3909.121	3775
3910.731	3739
3912.342	3731
3913.954	3775
3915.563	3791
3917.174	3767
3918.783	3771
3920.391	3722
3922.002	3675
3923.611	3806
3925.218	3753
3926.826	3746
3928.432	3688
3930.039	3760
3931.647	3772
3933.253	3689
3934.859	3665
3936.464	3725
3938.068	3640
3939.675	3803
3941.278	3680
3942.883	3687
3944.486	3681
3946.089	3733
3947.692	3651
3949.295	3685
3950.898	3769
3952.499	3741
3954.1	3670
3955.7	3719
3957.303	3663
3958.903	3653
3960.502	3703
3962.101	3690
3963.7	3674
3965.301	3729
3966.899	3708
3968.497	3715
3970.094	3687
3971.691	3652
3973.288	3659
3974.885	3647
3976.481	3592
3978.077	3588
3979.672	3619
3981.267	3588
3982.863	3642
3984.457	3585
3986.051	3511
3987.645	3579
3989.238	3577
3990.831	3568
3992.425	3563
3994.017	3568
3995.607	3566
3997.199	3567
3998.79	3574
4000.382	3524
4001.973	3448
4003.561	3532
4005.151	3549
4006.741	3490
4008.331	3562
4009.918	3441
4011.507	3500
4013.095	3487
4014.681	3477
4016.269	3516
4017.856	3433
4019.443	3521
4021.028	3455
4022.614	3491
4024.199	3445
4025.785	3404
4027.37	3458
4028.953	3493
4030.536	3498
4032.12	3395
4033.704	3474
4035.287	3412
4036.869	3482
4038.45	3417
4040.032	3446
4041.613	3445
4043.195	3435
4044.776	3437
4046.356	3401
4047.935	3376
4049.515	3371
4051.095	3353
4052.674	3430
4054.251	3414
4055.829	3403
4057.406	3409
4058.985	3351
4060.562	3433
4062.139	3308
4063.715	3347
4065.29	3388
4066.865	3343
4068.442	3413
4070.016	3411
4071.59	3407
4073.164	3330
4074.738	3359
4076.312	3265
4077.885	3330
4079.458	3376
4081.03	3380
4082.602	3369
4084.173	3318
4085.745	3386
4087.315	3318
4088.886	3327
4090.456	3341
4092.026	3255
4093.596	3316
4095.165	3291
4096.734	3343
4098.301	3328
4099.869	3279
4101.437	3270
4103.006	3334
4104.572	3277
4106.139	3303
4107.704	3368
4109.27	3259
4110.837	3265
4112.401	3235
4113.966	3272
4115.53	3326
4117.094	3353
4118.659	3191
4120.223	3199
4121.785	3281
4123.347	3291
4124.909	3206
4126.471	3256
4128.034	3172
4129.595	3211
4131.155	3213
4132.716	3262
4134.275	3227
4135.836	3185
4137.395	3142
4138.955	3206
4140.513	3207
4142.071	3197
4143.628	3211
4145.188	3086
4146.745	3169
4148.302	3182
4149.858	3113
4151.414	3179
4152.971	3198
4154.526	3143
4156.081	3208
4157.635	3223
4159.189	3190
4160.745	3158
4162.298	3152
4163.852	3104
4165.405	3147
4166.957	3145
4168.51	3106
4170.063	3117
4171.614	3095
4173.166	3108
4174.717	3120
4176.267	3014
4177.817	3126
4179.368	3096
4180.917	3070
4182.466	3091
4184.016	3111
4185.564	3066
4187.112	3025
4188.66	3050
4190.207	3111
4191.754	3000
4193.301	3106
4194.848	3037
4196.394	3024
4197.94	3034
4199.484	3108
4201.03	3049
4202.575	3035
4204.12	3022
4205.663	3025
4207.207	3015
4208.75	3015
4210.292	3029
4211.836	3075
4213.378	3004
4214.92	2994
4216.46	3025
4218.002	3060
4219.544	2964
4221.083	3056
4222.625	3011
4224.164	2965
4225.703	2992
4227.244	2993
4228.782	2989
4230.32	3037
4231.857	2987
4233.395	3011
4234.933	2976
4236.471	3062
4238.007	2894
4239.542	3050
4241.078	3018
4242.614	2973
4244.15	2971
4245.685	2969
4247.219	2945
4248.753	2991
4250.287	2924
4251.82	2945
4253.354	2942
4254.887	2955
4256.419	2883
4257.951	2944
4259.483	2948
4261.016	2969
4262.547	2847
4264.078	2993
4265.608	2954
4267.137	2894
4268.668	2936
4270.197	2940
4271.727	2923
4273.254	2946
4274.783	2862
4276.311	2903
4277.84	2904
4279.366	2939
4280.894	2917
4282.42	2864
4283.946	2859
4285.473	2873
4286.998	2875
4288.523	2955
4290.047	2862
4291.572	2902
4293.096	2843
4294.622	2942
4296.144	2835
4297.668	2873
4299.19	2859
4300.713	2905
4302.236	2867
4303.758	2849
4305.279	2805
4306.799	2901
4308.321	2825
4309.842	2796
4311.361	2816
4312.882	2839
4314.401	2866
