400.0961	4534
402.6185	4552
405.1424	4740
407.6635	4688
410.1838	4698
412.7035	4633
415.2225	4585
417.7388	4729
420.2585	4736
422.7754	4837
425.2917	4847
427.8072	4876
430.3221	4884
432.8363	4959
435.3498	4892
437.8626	5029
440.3727	5078
442.8841	4945
445.3969	4944
447.907	4966
450.4142	4930
452.9229	4954
455.4289	4953
457.9362	4927
460.4449	4939
462.9488	4862
465.454	4986
467.9566	4840
470.4604	4979
472.9637	4821
475.4662	4817
477.966	4891
480.4671	4879
482.9656	4946
485.4633	5053
487.9645	4945
490.4608	5037
492.9566	4958
495.4536	4993
497.948	5063
500.4437	5008
502.9387	5030
505.431	5125
507.9226	5017
510.4136	5082
512.9079	4923
515.3975	5074
517.8864	5101
520.3746	5052
522.8622	5009
525.3491	5115
527.8394	5149
530.3249	5141
532.8098	5103
535.2939	5070
537.7774	5191
540.2623	5107
542.7444	5123
545.2259	5133
547.7067	5090
550.1868	5089
552.6683	5181
555.147	5127
557.6231	5165
560.1005	5155
562.5773	5175
565.0534	5274
567.5308	5139
570.0056	5189
572.4776	5260
574.951	5286
577.4237	5311
579.8978	5414
582.3671	5290
584.8378	5329
587.3079	5364
589.7773	5276
592.244	5363
594.714	5310
597.1793	5381
599.6461	5390
602.1121	5306
604.5754	5390
607.0421	5331
609.5042	5337
611.9675	5317
614.4282	5395
616.8902	5364
619.3515	5255
621.8122	5249
624.2702	5372
626.7296	5187
629.1863	5296
631.6423	5226
634.1017	5265
636.5563	5256
639.0104	5325
641.4658	5346
643.9185	5226
646.3725	5300
648.8239	5342
651.2766	5419
653.7266	5238
656.176	5356
658.6247	5366
661.0748	5393
663.5242	5398
665.9709	5410
668.417	5319
670.8624	5492
673.3092	5417
675.7533	5467
678.1968	5401
680.6395	5367
683.0817	5434
685.5251	5518
687.9659	5551
690.4061	5441
692.8456	5517
695.2844	5494
697.7226	5567
700.1621	5557
702.599	5628
705.0332	5492
707.4688	5581
709.9036	5595
712.3399	5645
714.7735	5595
717.2044	5605
719.6367	5637
722.0683	5665
724.4993	5622
726.9296	5688
729.3593	5701
731.7883	5710
734.2147	5675
736.6423	5566
739.0714	5742
741.4958	5709
743.9216	5819
746.3447	5747
748.7691	5707
751.1929	5825
753.616	5796
756.0366	5838
758.4584	5778
760.8776	5839
763.2982	5903
765.718	5842
768.1373	5891
770.5539	5875
772.9698	5905
775.3871	5904
777.8038	5924
780.2178	5870
782.6332	5992
785.0459	5845
787.458	5940
789.8714	5923
792.2842	5954
794.6943	5868
797.1038	5858
799.5127	5925
801.9209	5960
804.3324	5815
806.7393	5940
809.1456	5801
811.5513	5938
813.9562	6002
816.3625	6020
818.7663	6050
821.1693	6017
823.5718	5931
825.9735	6037
828.3746	6010
830.7771	6096
833.177	5980
835.5762	5942
837.9747	6073
840.3727	5980
842.772	5925
845.1666	6124
847.5626	6200
849.958	6187
852.3527	6186
854.7488	6190
857.1403	6167
859.5331	6186
861.9253	6161
864.3168	6171
866.7057	6248
869.098	6211
871.4876	6123
873.8746	6063
876.263	6193
878.6487	6100
881.0378	6098
883.4243	6100
885.8081	6196
888.1933	6175
890.5759	6068
892.9598	6115
895.343	6059
897.7256	6090
900.1057	6123
902.4871	6064
904.8659	6194
907.246	6211
909.6254	6197
912.0023	6328
914.3786	6398
916.7562	6508
919.1331	6561
921.5074	6719
923.8831	6707
926.2562	6721
928.6287	6610
931.0005	6614
933.3757	6557
935.7462	6571
938.1162	6756
940.4855	6706
942.8542	6717
945.2242	6715
947.5916	6821
949.9584	6738
952.3266	7090
954.6921	7262
957.0571	7453
959.4233	7693
961.787	7942
964.15	7899
966.5125	7703
968.8742	7444
971.2354	7253
973.5959	6920
975.9559	6740
978.3151	6642
980.6738	6694
983.0338	6530
985.3912	6563
987.7461	6456
990.1022	6464
992.4578	6282
994.8127	6395
997.1689	6320
999.5207	6322
1001.874	6432
1004.226	6460
1006.576	6580
1008.929	6486
1011.28	6468
1013.628	6453
1015.977	6398
1018.324	6365
1020.674	6484
1023.019	6339
1025.366	6419
1027.713	6546
1030.056	6467
1032.399	6456
1034.746	6541
1037.087	6395
1039.431	6498
1041.771	6551
1044.113	6463
1046.454	6522
1048.793	6497
1051.133	6479
1053.471	6518
1055.807	6548
1058.146	6607
1060.483	6467
1062.818	6464
1065.153	6544
1067.489	6584
1069.822	6529
1072.156	6609
1074.488	6552
1076.82	6624
1079.15	6645
1081.48	6668
1083.814	6589
1086.143	6566
1088.471	6573
1090.799	6554
1093.126	6468
1095.452	6574
1097.78	6481
1100.105	6554
1102.43	6529
1104.754	6539
1107.077	6559
1109.4	6547
1111.722	6509
1114.044	6425
1116.365	6497
1118.685	6499
1121.005	6577
1123.324	6550
1125.643	6619
1127.961	6525
1130.278	6636
1132.595	6508
1134.911	6552
1137.226	6525
1139.541	6487
1141.854	6621
1144.167	6526
1146.482	6471
1148.793	6477
1151.105	6537
1153.414	6497
1155.725	6596
1158.033	6580
1160.344	6619
1162.651	6483
1164.959	6553
1167.265	6612
1169.572	6547
1171.878	6636
1174.184	6610
1176.488	6699
1178.79	6701
1181.094	6728
1183.396	6641
1185.699	6513
1188.001	6575
1190.301	6612
1192.6	6609
1194.9	6614
1197.2	6485
1199.497	6566
1201.794	6499
1204.09	6540
1206.387	6607
1208.684	6575
1210.978	6559
1213.272	6670
1215.565	6592
1217.858	6460
1220.15	6659
1222.443	6705
1224.734	6594
1227.024	6664
1229.313	6766
1231.602	6722
1233.892	6813
1236.18	6806
1238.467	6810
1240.754	6869
1243.04	6823
1245.325	7031
1247.612	6823
1249.896	6878
1252.178	6971
1254.461	6929
1256.743	6938
1259.027	7129
1261.308	6872
1263.587	6967
1265.867	6927
1268.146	6877
1270.425	7031
1272.703	6959
1274.981	7024
1277.256	6935
1279.532	6839
1281.808	6834
1284.083	6999
1286.358	6815
1288.63	6711
1290.904	6756
1293.175	6820
1295.449	6892
1297.719	6712
1299.99	6715
1302.259	6691
1304.529	6886
1306.798	6752
1309.065	6683
1311.333	6768
1313.599	6840
1315.866	6862
1318.131	6892
1320.396	6723
1322.66	6785
1324.925	6861
1327.187	6780
1329.448	7014
1331.711	6914
1333.974	6887
1336.234	6719
1338.493	6887
1340.752	6853
1343.01	6744
1345.269	6857
1347.526	6813
1349.784	6762
1352.04	6830
1354.295	6852
1356.552	6777
1358.806	6853
1361.059	6667
1363.312	6646
1365.564	6796
1367.818	6841
1370.069	6891
1372.318	6908
1374.568	6809
1376.817	6961
1379.066	6834
1381.316	6864
1383.564	6837
1385.809	6911
1388.056	6997
1390.301	7007
1392.549	7231
1394.793	7176
1397.036	7245
1399.279	7191
1401.522	7146
1403.763	7248
1406.007	7211
1408.248	7177
1410.487	7330
1412.727	7144
1414.965	7123
1417.205	7058
1419.442	7259
1421.68	7213
1423.915	7109
1426.152	7142
1428.388	7020
1430.623	7060
1432.857	7292
1435.091	7171
1437.323	7189
1439.556	7189
1441.789	7214
1444.019	7252
1446.25	7274
1448.48	7207
1450.708	7312
1452.938	7263
1455.167	7218
1457.394	7328
1459.62	7276
1461.846	7217
1464.073	7238
1466.299	7239
1468.523	7115
1470.746	7079
1472.969	7088
1475.191	6947
1477.415	7033
1479.636	6941
1481.858	6848
1484.078	6969
1486.298	6902
1488.518	6850
1490.736	6873
1492.954	6789
1495.169	6883
1497.386	6827
1499.602	6673
1501.819	6731
1504.034	6935
1506.248	6812
1508.462	6696
1510.675	6752
1512.888	6791
1515.1	6725
1517.311	6762
1519.522	6770
1521.732	6813
1523.942	6678
1526.151	6814
1528.36	6601
1530.566	6828
1532.773	6828
1534.98	6798
1537.187	6778
1539.392	6749
1541.596	6792
1543.801	6892
1546.005	6856
1548.208	6856
1550.411	6817
1552.612	6886
1554.814	6931
1557.013	6899
1559.212	6878
1561.414	6977
1563.612	6921
1565.811	6917
1568.007	6923
1570.203	6987
1572.403	6863
1574.598	6861
1576.792	6949
1578.988	7011
1581.181	6882
1583.376	6995
1585.568	6980
1587.761	7030
1589.952	6930
1592.143	6854
1594.333	6990
1596.524	7092
1598.715	7121
1600.903	6997
1603.091	7033
1605.278	7028
1607.466	7036
1609.652	6952
1611.838	7111
1614.023	6976
1616.207	7040
1618.391	7164
1620.576	7116
1622.759	7091
1624.941	7103
1627.123	7114
1629.304	7090
1631.484	7053
1633.664	7120
1635.844	7059
1638.022	7152
1640.201	7143
1642.38	7141
1644.556	7206
1646.732	7168
1648.908	7108
1651.084	7129
1653.257	7144
1655.433	7060
1657.607	7232
1659.779	7281
1661.951	7290
1664.122	7312
1666.295	7256
1668.467	7271
1670.635	7281
1672.805	7237
1674.973	7265
1677.142	7148
1679.31	7309
1681.478	7125
1683.644	7194
1685.81	7205
1687.975	7177
1690.142	7106
1692.305	7193
1694.468	7139
1696.632	7099
1698.794	7126
1700.957	7057
1703.119	7230
1705.279	7180
1707.439	7081
1709.598	7007
1711.758	7100
1713.917	6989
1716.075	7088
1718.231	7026
1720.388	6995
1722.543	7020
1724.702	6976
1726.856	6977
1729.01	7026
1731.164	7037
1733.317	6937
1735.471	6915
1737.623	6995
1739.774	7061
1741.925	6987
1744.075	6936
1746.225	6994
1748.376	6914
1750.524	6947
1752.672	7035
1754.82	6962
1756.965	7011
1759.113	7014
1761.259	7011
1763.405	6922
1765.549	7052
1767.694	6906
1769.836	7064
1771.981	7161
1774.123	7069
1776.264	7024
1778.405	7058
1780.546	7042
1782.687	7156
1784.827	7051
1786.966	7097
1789.103	7091
1791.242	7086
1793.381	6957
1795.517	7050
1797.653	6936
1799.788	6909
1801.923	7145
1804.057	7053
1806.193	7074
1808.326	7006
1810.457	6997
1812.59	7041
1814.721	7110
1816.855	7041
1818.984	7090
1821.113	6902
1823.244	6994
1825.372	6948
1827.499	6930
1829.63	7048
1831.756	7018
1833.882	7048
1836.007	6957
1838.132	6998
1840.26	6910
1842.384	6894
1844.507	6989
1846.63	6951
1848.752	6924
1850.875	6975
1852.996	6943
1855.118	7045
1857.238	6888
1859.358	6995
1861.477	6948
1863.597	7127
1865.715	7049
1867.832	6929
1869.948	6869
1872.064	6944
1874.181	6875
1876.297	7063
1878.411	6853
1880.526	7062
1882.639	6979
1884.752	6900
1886.865	6893
1888.977	7000
1891.089	6941
1893.2	6942
1895.308	7107
1897.42	7081
1899.53	6968
1901.639	6995
1903.745	7131
1905.853	7018
1907.962	7024
1910.067	7075
1912.174	7049
1914.278	7145
1916.383	7127
1918.486	7159
1920.592	6982
1922.694	6975
1924.797	6959
1926.898	7010
1929	7241
1931.102	7104
1933.203	7152
1935.301	7058
1937.401	7028
1939.499	6961
1941.598	7085
1943.697	7036
1945.793	7052
1947.888	7063
1949.985	7035
1952.08	7045
1954.176	7066
1956.269	7081
1958.364	7091
1960.457	7064
1962.549	7093
1964.642	7061
1966.733	7072
1968.823	6977
1970.913	7004
1973.005	7067
1975.093	7060
1977.184	6945
1979.271	7117
1981.359	7018
1983.446	6960
1985.532	7083
1987.619	7147
1989.705	7081
1991.789	7000
1993.874	7029
1995.956	6999
1998.041	7025
2000.123	6899
2002.206	6914
2004.287	6981
2006.368	7026
2008.449	6978
2010.529	7052
2012.609	7000
2014.688	7073
2016.766	6933
2018.843	6954
2020.922	6940
2022.999	7048
2025.074	7019
2027.15	6897
2029.225	6966
2031.299	7026
2033.375	6962
2035.447	7061
2037.52	7015
2039.592	6896
2041.664	6975
2043.736	7035
2045.807	7045
2047.876	6813
2049.947	7018
2052.015	6964
2054.086	7100
2056.153	7070
2058.221	7019
2060.288	7015
2062.353	7057
2064.42	6961
2066.486	6879
2068.55	6931
2070.614	6994
2072.678	6970
2074.741	6937
2076.805	7137
2078.866	7160
2080.929	7149
2082.99	6944
2085.049	6980
2087.109	6988
2089.17	6976
2091.228	6964
2093.286	7008
2095.344	7014
2097.4	7008
2099.46	6963
2101.516	6948
2103.572	7022
2105.626	6984
2107.679	6910
2109.735	7044
2111.788	7032
2113.841	7167
2115.894	7016
2117.945	6964
2119.997	6946
2122.049	7017
2124.1	6862
2126.148	7136
2128.197	6929
2130.246	6992
2132.296	6945
2134.342	7115
2136.39	6987
2138.437	6935
2140.483	6934
2142.527	7020
2144.574	7076
2146.619	6922
2148.661	7052
2150.705	6856
2152.747	6955
2154.792	6961
2156.832	6976
2158.874	7035
2160.915	6877
2162.954	6930
2164.995	6827
2167.034	6986
2169.072	7010
2171.111	6837
2173.148	6963
2175.186	6984
2177.223	6809
2179.258	6950
2181.294	6983
2183.328	6938
2185.362	6761
2187.398	6808
2189.431	6868
2191.463	6831
2193.495	6782
2195.528	6822
2197.56	6801
2199.59	6864
2201.62	6894
2203.649	6937
2205.678	6858
2207.708	6859
2209.737	6942
2211.764	6840
2213.791	6833
2215.817	6816
2217.843	6798
2219.87	6929
2221.895	6911
2223.919	6759
2225.942	6819
2227.966	6786
2229.988	6773
2232.012	6753
2234.032	6762
2236.054	6718
2238.074	6783
2240.095	6785
2242.116	6846
2244.135	6685
2246.153	6683
2248.171	6786
2250.188	6835
2252.208	6670
2254.223	6782
2256.239	6980
2258.255	6930
2260.269	6826
2262.283	6812
2264.3	6762
2266.312	6804
2268.325	6835
2270.336	6760
2272.349	6720
2274.362	6814
2276.372	6736
2278.383	6762
2280.392	6841
2282.402	6724
2284.409	6712
2286.418	6728
2288.427	6720
2290.433	6713
2292.441	6657
2294.446	6719
2296.453	6760
2298.459	6847
2300.463	6689
2302.466	6772
2304.471	6708
2306.475	6908
2308.477	6661
2310.478	6713
2312.481	6729
2314.481	6726
2316.481	6710
2318.482	6814
2320.482	6784
2322.48	6728
2324.48	6727
2326.478	6688
2328.476	6702
2330.473	6756
2332.469	6716
2334.465	6770
2336.46	6753
2338.454	6787
2340.45	6648
2342.444	6771
2344.437	6614
2346.43	6654
2348.421	6601
2350.414	6752
2352.405	6583
2354.396	6619
2356.386	6609
2358.376	6606
2360.366	6684
2362.355	6678
2364.343	6624
2366.331	6616
2368.317	6540
2370.304	6604
2372.292	6621
2374.278	6646
2376.262	6691
2378.247	6486
2380.23	6469
2382.216	6599
2384.199	6575
2386.181	6633
2388.163	6569
2390.144	6582
2392.127	6501
2394.107	6620
2396.087	6610
2398.066	6478
2400.046	6740
2402.023	6436
2404.004	6541
2405.981	6503
2407.957	6621
2409.934	6531
2411.91	6515
2413.886	6591
2415.862	6424
2417.836	6562
2419.809	6527
2421.784	6568
2423.756	6544
2425.73	6454
2427.701	6505
2429.672	6576
2431.644	6521
2433.615	6530
2435.586	6538
2437.555	6460
2439.523	6628
2441.491	6518
2443.459	6549
2445.428	6536
2447.395	6454
2449.361	6456
2451.327	6503
2453.292	6484
2455.257	6592
2457.223	6521
2459.187	6344
2461.15	6605
2463.113	6471
2465.076	6409
2467.039	6549
2468.999	6512
2470.96	6383
2472.921	6410
2474.881	6445
2476.841	6378
2478.8	6387
2480.759	6382
2482.717	6480
2484.675	6455
2486.63	6433
2488.589	6510
2490.545	6395
2492.5	6424
2494.455	6423
2496.408	6538
2498.364	6454
2500.318	6448
2502.27	6445
2504.223	6337
2506.174	6315
2508.126	6347
2510.078	6257
2512.03	6361
2513.979	6357
2515.927	6419
2517.877	6343
2519.826	6382
2521.775	6331
2523.722	6381
2525.668	6312
2527.616	6479
2529.561	6350
2531.508	6433
2533.452	6298
2535.398	6356
2537.342	6443
2539.284	6318
2541.229	6404
2543.173	6458
2545.114	6315
2547.055	6328
2548.996	6343
2550.938	6268
2552.878	6508
2554.817	6278
2556.756	6285
2558.695	6419
2560.633	6307
2562.572	6357
2564.509	6301
2566.445	6389
2568.382	6389
2570.317	6367
2572.254	6273
2574.189	6461
2576.123	6281
2578.057	6333
2579.99	6304
2581.923	6356
2583.855	6296
2585.788	6439
2587.719	6282
2589.65	6327
2591.579	6377
2593.511	6348
2595.44	6320
2597.37	6293
2599.297	6417
2601.225	6310
2603.153	6298
2605.08	6270
2607.007	6438
2608.932	6327
2610.858	6370
2612.782	6366
2614.709	6300
2616.632	6308
2618.556	6256
2620.478	6371
2622.401	6364
2624.324	6342
2626.247	6256
2628.167	6284
2630.088	6360
2632.008	6426
2633.928	6345
2635.848	6298
2637.766	6401
2639.684	6347
2641.603	6323
2643.519	6417
2645.437	6438
2647.353	6341
2649.27	6318
2651.184	6396
2653.099	6432
2655.014	6332
2656.928	6385
2658.842	6419
2660.755	6403
2662.667	6291
2664.579	6274
2666.491	6363
2668.402	6384
2670.312	6397
2672.222	6275
2674.132	6287
2676.042	6335
2677.951	6203
2679.859	6282
2681.766	6375
2683.674	6271
2685.582	6192
2687.488	6222
2689.392	6348
2691.298	6281
2693.202	6290
2695.107	6270
2697.012	6222
2698.914	6230
2700.817	6182
2702.72	6129
2704.622	6207
2706.524	6278
2708.425	6183
2710.326	6271
2712.225	6250
2714.125	6072
2716.024	6198
2717.923	6200
2719.822	6131
2721.719	6232
2723.616	6187
2725.512	6179
2727.41	6276
2729.305	6149
2731.201	6306
2733.095	6110
2734.99	6253
2736.884	6106
2738.778	6194
2740.67	6193
2742.562	6031
2744.455	6349
2746.346	6065
2748.238	6192
2750.129	6167
2752.018	6085
2753.907	6113
2755.797	6088
2757.687	6106
2759.575	6213
2761.462	6172
2763.349	6228
2765.237	6224
2767.124	6200
2769.009	6139
2770.894	6160
2772.779	6126
2774.663	6048
2776.547	6206
2778.431	6154
2780.314	6130
2782.197	6205
2784.078	6148
2785.96	6098
2787.842	6165
2789.723	6117
2791.603	6260
2793.483	6122
2795.362	6146
2797.241	6187
2799.121	6161
2800.997	6079
2802.874	6159
2804.751	5989
2806.628	6085
2808.506	6095
2810.38	6123
2812.255	6067
2814.13	6135
2816.003	6175
2817.878	6139
2819.752	6039
2821.623	6157
2823.496	6106
2825.368	6157
2827.238	6120
2829.111	6154
2830.98	6165
2832.851	6148
2834.719	6176
2836.589	6127
2838.458	6275
2840.327	6223
2842.193	6132
2844.061	6137
2845.927	6171
2847.794	6119
2849.66	6282
2851.525	6130
2853.39	6312
2855.254	6348
2857.117	6315
2858.983	6332
2860.845	6360
2862.707	6326
2864.569	6391
2866.431	6377
2868.293	6449
2870.154	6515
2872.013	6677
2873.873	6597
2875.733	6634
2877.592	6792
2879.451	6794
2881.309	6889
2883.166	6848
2885.022	7062
2886.879	6997
2888.736	6934
2890.591	7137
2892.446	6982
2894.301	7160
2896.155	6982
2898.009	7097
2899.863	7034
2901.716	7051
2903.568	7073
2905.419	6828
2907.27	6949
2909.123	7046
2910.973	7116
2912.824	7122
2914.673	7067
2916.521	7159
2918.372	7337
2920.22	7360
2922.067	7335
2923.914	7376
2925.761	7505
2927.607	7638
2929.455	7643
2931.301	7684
2933.144	7653
2934.99	7688
2936.833	7788
2938.678	7950
2940.522	7866
2942.364	8129
2944.207	8142
2946.048	8324
2947.891	8549
2949.731	8327
2951.571	8413
2953.412	8428
2955.25	8210
2957.09	8143
2958.93	8071
2960.767	8011
2962.606	7900
2964.443	7752
2966.279	7847
2968.116	7668
2969.953	7520
2971.788	7460
2973.623	7294
2975.457	7251
2977.292	7246
2979.127	7053
2980.959	7100
2982.792	7051
2984.624	7017
2986.455	6889
2988.288	6929
2990.119	6846
2991.949	6777
2993.779	6814
2995.608	6705
2997.439	6676
2999.268	6606
3001.096	6645
3002.923	6609
3004.751	6391
3006.578	6430
3008.406	6459
3010.232	6353
3012.057	6272
3013.883	6187
3015.706	6096
3017.532	6077
3019.356	5975
3021.179	6126
3023.002	6028
3024.823	5856
3026.646	5930
3028.469	5971
3030.289	5926
3032.11	5842
3033.93	5927
3035.749	5902
3037.57	5910
3039.39	5844
3041.207	5886
3043.026	5936
3044.842	5723
3046.661	5949
3048.477	5848
3050.294	5835
3052.109	5913
3053.925	5807
3055.739	5887
3057.555	5935
3059.368	5783
3061.181	5851
3062.995	5868
3064.807	5837
3066.62	5702
3068.433	5857
3070.243	5837
3072.054	5692
3073.865	5857
3075.675	5737
3077.485	5659
3079.293	5659
3081.102	5654
3082.911	5736
3084.719	5622
3086.527	5571
3088.333	5667
3090.139	5757
3091.945	5744
3093.75	5657
3095.557	5614
3097.361	5500
3099.165	5533
3100.969	5648
3102.772	5659
3104.575	5584
3106.379	5695
3108.181	5564
3109.982	5686
3111.783	5560
3113.584	5588
3115.386	5581
3117.186	5623
3118.985	5532
3120.783	5611
3122.582	5525
3124.381	5584
3126.179	5573
3127.975	5466
3129.772	5483
3131.569	5562
3133.365	5490
3135.161	5486
3136.956	5528
3138.751	5434
3140.544	5485
3142.338	5495
3144.132	5527
3145.925	5533
3147.717	5540
3149.509	5443
3151.301	5515
3153.091	5313
3154.884	5374
3156.673	5398
3158.462	5459
3160.252	5429
3162.041	5452
3163.831	5515
3165.618	5479
3167.405	5389
3169.193	5376
3170.979	5411
3172.767	5395
3174.553	5495
3176.338	5404
3178.123	5406
3179.907	5429
3181.692	5322
3183.477	5388
3185.259	5393
3187.042	5417
3188.824	5455
3190.607	5551
3192.389	5545
3194.17	5414
3195.951	5403
3197.73	5452
3199.51	5360
3201.289	5338
3203.07	5442
3204.848	5427
3206.626	5370
3208.403	5410
3210.18	5295
3211.959	5346
3213.735	5413
3215.511	5325
3217.285	5424
3219.06	5439
3220.836	5438
3222.611	5355
3224.384	5357
3226.158	5409
3227.929	5359
3229.702	5459
3231.476	5465
3233.248	5437
3235.018	5343
3236.789	5532
3238.56	5363
3240.33	5295
3242.1	5304
3243.869	5364
3245.637	5397
3247.405	5468
3249.172	5413
3250.941	5426
3252.707	5272
3254.474	5356
3256.24	5409
3258.006	5402
3259.772	5483
3261.537	5511
3263.301	5358
3265.065	5464
3266.828	5386
3268.592	5442
3270.355	5361
3272.117	5471
3273.878	5377
3275.64	5368
3277.401	5468
3279.162	5448
3280.922	5435
3282.682	5417
3284.441	5429
3286.199	5377
3287.959	5389
3289.716	5316
3291.475	5342
3293.232	5432
3294.988	5427
3296.744	5259
3298.501	5460
3300.256	5360
3302.011	5253
3303.766	5426
3305.52	5352
3307.275	5388
3309.028	5384
3310.781	5337
3312.533	5367
3314.285	5331
3316.038	5383
3317.789	5249
3319.54	5361
3321.289	5371
3323.039	5287
3324.789	5497
3326.539	5395
3328.288	5305
3330.035	5360
3331.783	5357
3333.531	5392
3335.28	5232
3337.025	5272
3338.771	5353
3340.518	5314
3342.262	5348
3344.009	5221
3345.753	5342
3347.497	5233
3349.24	5203
3350.983	5251
3352.726	5250
3354.469	5240
3356.212	5301
3357.952	5165
3359.694	5281
3361.434	5194
3363.176	5240
3364.916	5280
3366.654	5171
3368.394	5216
3370.132	5180
3371.871	5228
3373.61	5143
3375.346	5057
3377.083	5209
3378.82	5168
3380.556	5051
3382.292	5088
3384.027	5233
3385.763	5146
3387.497	5156
3389.231	5113
3390.965	5108
3392.698	5057
3394.431	5092
3396.164	5069
3397.896	5058
3399.627	5141
3401.36	5142
3403.09	5185
3404.82	5047
3406.55	5101
3408.279	5025
3410.01	5098
3411.738	5168
3413.467	5060
3415.194	5069
3416.92	5056
3418.647	4939
3420.375	5030
3422.102	4996
3423.827	5073
3425.553	5060
3427.277	5078
3429.003	4979
3430.727	5009
3432.451	5059
3434.173	5120
3435.896	5036
3437.62	5039
3439.343	4993
3441.063	4943
3442.785	4975
3444.505	4976
3446.226	5025
3447.948	4927
3449.666	4886
3451.386	4978
3453.104	4852
3454.823	4923
3456.541	4890
3458.259	4887
3459.976	4879
3461.693	4846
3463.408	4835
3465.125	4902
3466.841	4758
3468.556	4902
3470.271	4897
3471.985	4792
3473.698	4797
3475.414	4858
3477.126	4834
3478.838	4804
3480.55	4723
3482.263	4787
3483.975	4692
3485.686	4700
3487.396	4735
3489.106	4852
3490.817	4771
3492.526	4820
3494.236	4747
3495.944	4737
3497.652	4751
3499.359	4689
3501.066	4654
3502.775	4736
3504.481	4647
3506.187	4723
3507.893	4656
3509.598	4644
3511.304	4715
3513.009	4750
3514.713	4651
3516.417	4634
3518.12	4679
3519.821	4651
3521.525	4498
3523.228	4569
3524.929	4687
3526.631	4614
3528.33	4635
3530.032	4532
3531.733	4662
3533.433	4602
3535.131	4572
3536.83	4560
3538.529	4621
3540.227	4567
3541.925	4560
3543.623	4597
3545.319	4612
3547.016	4606
3548.712	4560
3550.408	4516
3552.103	4554
3553.798	4605
3555.491	4468
3557.188	4399
3558.88	4493
3560.574	4445
3562.266	4514
3563.959	4471
3565.651	4476
3567.343	4474
3569.035	4488
3570.725	4452
3572.415	4442
3574.106	4438
3575.797	4466
3577.485	4440
3579.174	4487
3580.863	4453
3582.551	4493
3584.238	4413
3585.926	4382
3587.613	4360
3589.3	4359
3590.986	4374
3592.671	4397
3594.357	4462
3596.042	4373
3597.726	4369
3599.41	4334
3601.094	4284
3602.778	4372
3604.461	4252
3606.143	4340
3607.825	4352
3609.507	4377
3611.188	4216
3612.87	4238
3614.551	4273
3616.229	4237
3617.909	4333
3619.589	4286
3621.269	4233
3622.948	4219
3624.625	4258
3626.302	4205
3627.98	4218
3629.657	4162
3631.334	4230
3633.01	4224
3634.686	4178
3636.361	4301
3638.036	4133
3639.712	4172
3641.385	4225
3643.06	4211
3644.732	4131
3646.405	4096
3648.08	4192
3649.751	4037
3651.424	4086
3653.094	4119
3654.766	4115
3656.436	4127
3658.106	4110
3659.777	4012
3661.446	4087
3663.115	4059
3664.783	4113
3666.452	4101
3668.121	4084
3669.788	4111
3671.454	4003
3673.121	4066
3674.789	4022
3676.455	4052
3678.12	4055
3679.784	4058
3681.45	4025
3683.114	4105
3684.779	4014
3686.442	4018
3688.105	4056
3689.768	4040
3691.43	4053
3693.093	3885
3694.754	4030
3696.415	4059
3698.076	4096
3699.736	4015
3701.396	3979
3703.057	4030
3704.716	3926
3706.375	4021
3708.034	4103
3709.692	3997
3711.351	4051
3713.008	3924
3714.665	3947
3716.321	3975
3717.977	3921
3719.634	4015
3721.29	3948
3722.945	4031
3724.598	4004
3726.253	3995
3727.907	3927
3729.561	3988
3731.214	4007
3732.867	3898
3734.518	3885
3736.171	3893
3737.824	3857
3739.474	3924
3741.125	3943
3742.775	3871
3744.425	3869
3746.074	3884
3747.725	3887
3749.373	3936
3751.022	3890
3752.669	3860
3754.318	3871
3755.966	3850
3757.612	3844
3759.259	3844
3760.905	3953
3762.55	3884
3764.197	3806
3765.842	3893
3767.486	3861
3769.131	3819
3770.774	3833
3772.417	3868
3774.061	3859
3775.705	3773
3777.347	3812
3778.988	3819
3780.629	3852
3782.271	3812
3783.912	3728
3785.552	3903
3787.192	3749
3788.831	3834
3790.472	3723
3792.112	3803
3793.75	3795
3795.388	3794
3797.024	3767
3798.661	3748
3800.3	3729
3801.936	3696
3803.572	3722
3805.208	3718
3806.844	3800
3808.48	3703
3810.115	3779
3811.748	3754
3813.382	3787
3815.016	3632
3816.649	3738
3818.283	3718
3819.914	3700
3821.547	3723
3823.178	3758
3824.809	3692
3826.441	3631
3828.072	3661
3829.701	3687
3831.331	3762
3832.96	3690
3834.591	3657
3836.219	3672
3837.847	3664
3839.475	3664
3841.102	3701
3842.729	3655
3844.357	3679
3845.984	3685
3847.609	3650
3849.234	3663
3850.86	3583
3852.485	3734
3854.11	3663
3855.734	3548
3857.357	3655
3858.981	3646
3860.603	3602
3862.227	3577
3863.848	3674
3865.471	3652
3867.092	3600
3868.713	3696
3870.334	3605
3871.954	3570
3873.575	3561
3875.194	3586
3876.813	3635
3878.433	3584
3880.051	3638
3881.669	3630
3883.286	3573
3884.904	3643
3886.52	3606
3888.138	3591
3889.754	3561
3891.37	3591
3892.985	3515
3894.6	3528
3896.216	3586
3897.831	3590
3899.444	3652
3901.058	3520
3902.67	3506
3904.283	3534
3905.897	3535
3907.509	3514
3909.121	3591
3910.731	3591
3912.342	3567
3913.954	3526
3915.563	3596
3917.174	3515
3918.783	3530
3920.391	3480
3922.002	3518
3923.611	3517
3925.218	3540
3926.826	3527
3928.432	3473
3930.039	3536
3931.647	3477
3933.253	3505
3934.859	3556
3936.464	3427
3938.068	3433
3939.675	3524
3941.278	3478
3942.883	3481
3944.486	3501
3946.089	3528
3947.692	3446
3949.295	3397
3950.898	3564
3952.499	3534
3954.1	3590
3955.7	3456
3957.303	3558
3958.903	3505
3960.502	3475
3962.101	3369
3963.7	3453
3965.301	3542
3966.899	3487
3968.497	3458
3970.094	3418
3971.691	3449
3973.288	3469
3974.885	3435
3976.481	3409
3978.077	3491
3979.672	3460
3981.267	3377
3982.863	3363
3984.457	3460
3986.051	3360
3987.645	3446
3989.238	3383
3990.831	3356
3992.425	3355
3994.017	3392
3995.607	3322
3997.199	3378
3998.79	3358
4000.382	3386
4001.973	3322
4003.561	3362
4005.151	3331
4006.741	3316
4008.331	3319
4009.918	3339
4011.507	3245
4013.095	3255
4014.681	3284
4016.269	3331
4017.856	3248
4019.443	3344
4021.028	3352
4022.614	3246
4024.199	3259
4025.785	3312
4027.37	3244
4028.953	3253
4030.536	3290
4032.12	3268
4033.704	3257
4035.287	3216
4036.869	3241
4038.45	3204
4040.032	3239
4041.613	3192
4043.195	3253
4044.776	3186
4046.356	3220
4047.935	3144
4049.515	3217
4051.095	3233
4052.674	3185
4054.251	3229
4055.829	3266
4057.406	3231
4058.985	3167
4060.562	3225
4062.139	3168
4063.715	3191
4065.29	3330
4066.865	3153
4068.442	3090
4070.016	3166
4071.59	3218
4073.164	3162
4074.738	3205
4076.312	3160
4077.885	3181
4079.458	3200
4081.03	3128
4082.602	3130
4084.173	3104
4085.745	3133
4087.315	3145
4088.886	3197
4090.456	3106
4092.026	3221
4093.596	3143
4095.165	3159
4096.734	3118
4098.301	3126
4099.869	3076
4101.437	3134
4103.006	3058
4104.572	3098
4106.139	3181
4107.704	3131
4109.27	3141
4110.837	3142
4112.401	3093
4113.966	3091
4115.53	3128
4117.094	3097
4118.659	3105
4120.223	3119
4121.785	3091
4123.347	3094
4124.909	3133
4126.471	3079
4128.034	3023
4129.595	3037
4131.155	3053
4132.716	3076
4134.275	3000
4135.836	3086
4137.395	3097
4138.955	3096
4140.513	3004
4142.071	3045
4143.628	2942
4145.188	3000
4146.745	3024
4148.302	2975
4149.858	2988
4151.414	3033
4152.971	3005
4154.526	3016
4156.081	3062
4157.635	3007
4159.189	3009
4160.745	2992
4162.298	2973
4163.852	2921
4165.405	2950
4166.957	3047
4168.51	2925
4170.063	2977
4171.614	2973
4173.166	2947
4174.717	2953
4176.267	2928
4177.817	2956
4179.368	2985
4180.917	2889
4182.466	3016
4184.016	2995
4185.564	2896
4187.112	2842
4188.66	2899
4190.207	2887
4191.754	2828
4193.301	2890
4194.848	2946
4196.394	2901
4197.94	2892
4199.484	2803
4201.03	2960
4202.575	2880
4204.12	2925
4205.663	2872
4207.207	2875
4208.75	2925
4210.292	2929
4211.836	2841
4213.378	2741
4214.92	2862
4216.46	2810
4218.002	2913
4219.544	2882
4221.083	2875
4222.625	2798
4224.164	2855
4225.703	2829
4227.244	2887
4228.782	2793
4230.32	2852
4231.857	2807
4233.395	2846
4234.933	2817
4236.471	2856
4238.007	2916
4239.542	2818
4241.078	2750
4242.614	2880
4244.15	2807
4245.685	2863
4247.219	2826
4248.753	2767
4250.287	2734
4251.82	2806
4253.354	2807
4254.887	2822
4256.419	2820
4257.951	2773
4259.483	2793
4261.016	2792
4262.547	2758
4264.078	2789
4265.608	2808
4267.137	2798
4268.668	2733
4270.197	2798
4271.727	2753
4273.254	2775
4274.783	2809
4276.311	2776
4277.84	2789
4279.366	2785
4280.894	2809
4282.42	2729
4283.946	2713
4285.473	2737
4286.998	2740
4288.523	2707
4290.047	2771
4291.572	2774
4293.096	2751
4294.622	2705
4296.144	2694
4297.668	2696
4299.19	2693
4300.713	2663
4302.236	2723
4303.758	2742
4305.279	2693
4306.799	2691
4308.321	2701
4309.842	2741
4311.361	2718
4312.882	2615
4314.401	2690
