400.0961	4935
402.6185	5137
405.1424	5114
407.6635	5075
410.1838	5063
412.7035	5140
415.2225	5210
417.7388	5300
420.2585	5318
422.7754	5257
425.2917	5303
427.8072	5520
430.3221	5490
432.8363	5484
435.3498	5542
437.8626	5437
440.3727	5388
442.8841	5465
445.3969	5625
447.907	5404
450.4142	5519
452.9229	5470
455.4289	5577
457.9362	5376
460.4449	5387
462.9488	5415
465.454	5406
467.9566	5405
470.4604	5385
472.9637	5473
475.4662	5587
477.966	5454
480.4671	5512
482.9656	5356
485.4633	5399
487.9645	5592
490.4608	5545
492.9566	5490
495.4536	5554
497.948	5522
500.4437	5570
502.9387	5589
505.431	5555
507.9226	5610
510.4136	5547
512.9079	5474
515.3975	5594
517.8864	5618
520.3746	5600
522.8622	5646
525.3491	5590
527.8394	5584
530.3249	5530
532.8098	5671
535.2939	5570
537.7774	5664
540.2623	5721
542.7444	5662
545.2259	5609
547.7067	5681
550.1868	5584
552.6683	5676
555.147	5643
557.6231	5634
560.1005	5629
562.5773	5733
565.0534	5825
567.5308	5764
570.0056	5778
572.4776	5794
574.951	5798
577.4237	5834
579.8978	5903
582.3671	5803
584.8378	5922
587.3079	5932
589.7773	5943
592.244	5959
594.714	5811
597.1793	5972
599.6461	5900
602.1121	5868
604.5754	5815
607.0421	5846
609.5042	5784
611.9675	5817
614.4282	5959
616.8902	5895
619.3515	5886
621.8122	5792
624.2702	5772
626.7296	5828
629.1863	5752
631.6423	5725
634.1017	5755
636.5563	5790
639.0104	5839
641.4658	5814
643.9185	5808
646.3725	5932
648.8239	5958
651.2766	5847
653.7266	5912
656.176	5879
658.6247	5818
661.0748	5989
663.5242	5956
665.9709	6033
668.417	5995
670.8624	6021
673.3092	5997
675.7533	5993
678.1968	6070
680.6395	5992
683.0817	5961
685.5251	6048
687.9659	6066
690.4061	6021
692.8456	5986
695.2844	6007
697.7226	6099
700.1621	6065
702.599	6022
705.0332	6103
707.4688	6157
709.9036	6041
712.3399	6139
714.7735	6186
717.2044	6110
719.6367	6251
722.0683	6249
724.4993	6324
726.9296	6283
729.3593	6281
731.7883	6222
734.2147	6249
736.6423	6344
739.0714	6256
741.4958	6309
743.9216	6382
746.3447	6323
748.7691	6448
751.1929	6359
753.616	6402
756.0366	6463
758.4584	6449
760.8776	6449
763.2982	6529
765.718	6439
768.1373	6524
770.5539	6466
772.9698	6488
775.3871	6526
777.8038	6530
780.2178	6431
782.6332	6478
785.0459	6505
787.458	6486
789.8714	6511
792.2842	6450
794.6943	6453
797.1038	6549
799.5127	6511
801.9209	6498
804.3324	6414
806.7393	6465
809.1456	6509
811.5513	6574
813.9562	6571
816.3625	6511
818.7663	6516
821.1693	6555
823.5718	6590
825.9735	6575
828.3746	6605
830.7771	6619
833.177	6656
835.5762	6702
837.9747	6626
840.3727	6711
842.772	6689
845.1666	6803
847.5626	6830
849.958	6774
852.3527	6939
854.7488	6816
857.1403	6810
859.5331	6792
861.9253	6847
864.3168	6816
866.7057	6887
869.098	6866
871.4876	6784
873.8746	6861
876.263	6875
878.6487	6687
881.0378	6718
883.4243	6698
885.8081	6745
888.1933	6794
890.5759	6794
892.9598	6720
895.343	6789
897.7256	6793
900.1057	6679
902.4871	6772
904.8659	6831
907.246	6917
909.6254	6904
912.0023	6912
914.3786	6965
916.7562	7086
919.1331	7068
921.5074	7182
923.8831	7341
926.2562	7201
928.6287	7200
931.0005	7391
933.3757	7226
935.7462	7246
938.1162	7245
940.4855	7148
942.8542	7390
945.2242	7540
947.5916	7598
949.9584	7627
952.3266	7935
954.6921	8236
957.0571	8536
959.4233	8979
961.787	8870
964.15	8891
966.5125	8623
968.8742	8295
971.2354	8063
973.5959	7675
975.9559	7530
978.3151	7371
980.6738	7242
983.0338	7328
985.3912	7166
987.7461	7098
990.1022	7099
992.4578	7059
994.8127	7078
997.1689	6925
999.5207	7016
1001.874	7121
1004.226	7042
1006.576	6975
1008.929	7137
1011.28	6998
1013.628	6971
1015.977	7161
1018.324	7053
1020.674	6952
1023.019	7091
1025.366	7044
1027.713	7060
1030.056	7131
1032.399	7096
1034.746	7134
1037.087	7062
1039.431	7310
1041.771	7224
1044.113	7180
1046.454	7125
1048.793	7179
1051.133	7154
1053.471	7297
1055.807	7241
1058.146	7276
1060.483	7136
1062.818	7259
1065.153	7351
1067.489	7345
1069.822	7269
1072.156	7243
1074.488	7408
1076.82	7384
1079.15	7346
1081.48	7230
1083.814	7273
1086.143	7221
1088.471	7272
1090.799	7194
1093.126	7139
1095.452	7231
1097.78	7171
1100.105	7155
1102.43	7127
1104.754	7147
1107.077	7298
1109.4	7074
1111.722	7196
1114.044	7093
1116.365	7255
1118.685	7217
1121.005	7229
1123.324	7297
1125.643	7213
1127.961	7288
1130.278	7247
1132.595	7221
1134.911	7145
1137.226	7215
1139.541	7186
1141.854	7210
1144.167	7151
1146.482	7316
1148.793	7140
1151.105	7256
1153.414	7272
1155.725	7222
1158.033	7308
1160.344	7180
1162.651	7178
1164.959	7119
1167.265	7278
1169.572	7218
1171.878	7163
1174.184	7202
1176.488	7208
1178.79	7338
1181.094	7265
1183.396	7301
1185.699	7275
1188.001	7338
1190.301	7137
1192.6	7216
1194.9	7130
1197.2	7084
1199.497	7193
1201.794	7184
1204.09	7247
1206.387	7311
1208.684	7272
1210.978	7266
1213.272	7209
1215.565	7262
1217.858	7343
1220.15	7321
1222.443	7261
1224.734	7327
1227.024	7361
1229.313	7359
1231.602	7365
1233.892	7474
1236.18	7424
1238.467	7493
1240.754	7549
1243.04	7533
1245.325	7657
1247.612	7594
1249.896	7664
1252.178	7571
1254.461	7607
1256.743	7700
1259.027	7656
1261.308	7484
1263.587	7538
1265.867	7649
1268.146	7636
1270.425	7723
1272.703	7751
1274.981	7600
1277.256	7559
1279.532	7569
1281.808	7509
1284.083	7517
1286.358	7483
1288.63	7525
1290.904	7527
1293.175	7496
1295.449	7474
1297.719	7412
1299.99	7445
1302.259	7459
1304.529	7478
1306.798	7476
1309.065	7477
1311.333	7425
1313.599	7391
1315.866	7502
1318.131	7488
1320.396	7454
1322.66	7490
1324.925	7584
1327.187	7447
1329.448	7542
1331.711	7559
1333.974	7648
1336.234	7584
1338.493	7454
1340.752	7619
1343.01	7471
1345.269	7414
1347.526	7497
1349.784	7380
1352.04	7445
1354.295	7390
1356.552	7519
1358.806	7400
1361.059	7459
1363.312	7384
1365.564	7371
1367.818	7431
1370.069	7570
1372.318	7582
1374.568	7504
1376.817	7559
1379.066	7617
1381.316	7543
1383.564	7506
1385.809	7615
1388.056	7469
1390.301	7612
1392.549	7680
1394.793	7900
1397.036	7714
1399.279	7898
1401.522	7819
1403.763	7846
1406.007	7900
1408.248	7780
1410.487	7752
1412.727	7674
1414.965	7738
1417.205	7812
1419.442	7841
1421.68	7820
1423.915	7827
1426.152	7704
1428.388	7750
1430.623	7817
1432.857	7889
1435.091	7858
1437.323	7956
1439.556	7866
1441.789	7857
1444.019	7913
1446.25	7901
1448.48	7883
1450.708	7920
1452.938	7849
1455.167	7973
1457.394	7996
1459.62	8027
1461.846	7890
1464.073	7825
1466.299	7840
1468.523	7833
1470.746	7753
1472.969	7968
1475.191	7610
1477.415	7638
1479.636	7617
1481.858	7616
1484.078	7505
1486.298	7565
1488.518	7562
1490.736	7522
1492.954	7527
1495.169	7468
1497.386	7483
1499.602	7412
1501.819	7456
1504.034	7552
1506.248	7382
1508.462	7355
1510.675	7476
1512.888	7460
1515.1	7450
1517.311	7545
1519.522	7429
1521.732	7292
1523.942	7526
1526.151	7428
1528.36	7401
1530.566	7327
1532.773	7603
1534.98	7408
1537.187	7488
1539.392	7465
1541.596	7625
1543.801	7520
1546.005	7495
1548.208	7503
1550.411	7467
1552.612	7544
1554.814	7620
1557.013	7392
1559.212	7514
1561.414	7610
1563.612	7524
1565.811	7646
1568.007	7659
1570.203	7713
1572.403	7511
1574.598	7611
1576.792	7709
1578.988	7483
1581.181	7608
1583.376	7598
1585.568	7664
1587.761	7575
1589.952	7703
1592.143	7716
1594.333	7853
1596.524	7789
1598.715	7744
1600.903	7665
1603.091	7782
1605.278	7807
1607.466	7684
1609.652	7715
1611.838	7754
1614.023	7882
1616.207	7533
1618.391	7759
1620.576	7711
1622.759	7742
1624.941	7698
1627.123	7681
1629.304	7868
1631.484	7739
1633.664	7934
1635.844	7841
1638.022	7802
1640.201	7763
1642.38	7937
1644.556	7708
1646.732	7885
1648.908	7761
1651.084	7736
1653.257	7879
1655.433	7958
1657.607	7893
1659.779	7920
1661.951	7893
1664.122	7952
1666.295	7900
1668.467	8036
1670.635	7982
1672.805	8044
1674.973	8036
1677.142	7900
1679.31	7985
1681.478	7856
1683.644	7974
1685.81	7902
1687.975	7897
1690.142	7874
1692.305	7779
1694.468	7881
1696.632	7802
1698.794	7775
1700.957	7665
1703.119	7698
1705.279	7728
1707.439	7641
1709.598	7634
1711.758	7811
1713.917	7598
1716.075	7814
1718.231	7549
1720.388	7651
1722.543	7727
1724.702	7751
1726.856	7700
1729.01	7691
1731.164	7533
1733.317	7688
1735.471	7537
1737.623	7509
1739.774	7687
1741.925	7642
1744.075	7585
1746.225	7642
1748.376	7656
1750.524	7562
1752.672	7757
1754.82	7563
1756.965	7621
1759.113	7735
1761.259	7760
1763.405	7708
1765.549	7597
1767.694	7719
1769.836	7733
1771.981	7593
1774.123	7678
1776.264	7774
1778.405	7753
1780.546	7707
1782.687	7843
1784.827	7802
1786.966	7790
1789.103	7792
1791.242	7859
1793.381	7752
1795.517	7747
1797.653	7682
1799.788	7802
1801.923	7765
1804.057	7760
1806.193	7765
1808.326	7840
1810.457	7751
1812.59	7623
1814.721	7755
1816.855	7708
1818.984	7591
1821.113	7625
1823.244	7748
1825.372	7750
1827.499	7755
1829.63	7720
1831.756	7667
1833.882	7668
1836.007	7736
1838.132	7755
1840.26	7758
1842.384	7515
1844.507	7672
1846.63	7635
1848.752	7625
1850.875	7670
1852.996	7642
1855.118	7736
1857.238	7584
1859.358	7487
1861.477	7638
1863.597	7507
1865.715	7699
1867.832	7743
1869.948	7614
1872.064	7588
1874.181	7637
1876.297	7719
1878.411	7542
1880.526	7592
1882.639	7650
1884.752	7822
1886.865	7669
1888.977	7558
1891.089	7704
1893.2	7632
1895.308	7781
1897.42	7670
1899.53	7762
1901.639	7676
1903.745	7698
1905.853	7715
1907.962	7716
1910.067	7710
1912.174	7690
1914.278	7724
1916.383	7688
1918.486	7761
1920.592	7627
1922.694	7667
1924.797	7751
1926.898	7781
1929	7795
1931.102	7729
1933.203	7802
1935.301	7748
1937.401	7847
1939.499	7811
1941.598	7754
1943.697	7877
1945.793	7730
1947.888	7702
1949.985	7855
1952.08	7841
1954.176	7804
1956.269	7752
1958.364	7808
1960.457	7878
1962.549	7774
1964.642	7733
1966.733	7772
1968.823	7669
1970.913	7777
1973.005	7756
1975.093	7661
1977.184	7688
1979.271	7717
1981.359	7641
1983.446	7768
1985.532	7739
1987.619	7721
1989.705	7648
1991.789	7627
1993.874	7738
1995.956	7657
1998.041	7686
2000.123	7764
2002.206	7729
2004.287	7714
2006.368	7604
2008.449	7612
2010.529	7679
2012.609	7671
2014.688	7637
2016.766	7649
2018.843	7667
2020.922	7602
2022.999	7639
2025.074	7686
2027.15	7766
2029.225	7680
2031.299	7617
2033.375	7605
2035.447	7719
2037.52	7717
2039.592	7720
2041.664	7675
2043.736	7678
2045.807	7612
2047.876	7696
2049.947	7742
2052.015	7625
2054.086	7621
2056.153	7689
2058.221	7662
2060.288	7791
2062.353	7627
2064.42	7662
2066.486	7714
2068.55	7647
2070.614	7708
2072.678	7624
2074.741	7517
2076.805	7647
2078.866	7657
2080.929	7709
2082.99	7677
2085.049	7569
2087.109	7587
2089.17	7585
2091.228	7658
2093.286	7619
2095.344	7812
2097.4	7890
2099.46	7637
2101.516	7650
2103.572	7611
2105.626	7648
2107.679	7633
2109.735	7554
2111.788	7626
2113.841	7664
2115.894	7611
2117.945	7583
2119.997	7679
2122.049	7597
2124.1	7586
2126.148	7728
2128.197	7749
2130.246	7746
2132.296	7638
2134.342	7641
2136.39	7607
2138.437	7710
2140.483	7555
2142.527	7634
2144.574	7592
2146.619	7628
2148.661	7664
2150.705	7583
2152.747	7597
2154.792	7549
2156.832	7590
2158.874	7553
2160.915	7578
2162.954	7514
2164.995	7617
2167.034	7567
2169.072	7547
2171.111	7526
2173.148	7590
2175.186	7559
2177.223	7463
2179.258	7601
2181.294	7533
2183.328	7475
2185.362	7543
2187.398	7469
2189.431	7555
2191.463	7509
2193.495	7494
2195.528	7478
2197.56	7487
2199.59	7388
2201.62	7358
2203.649	7462
2205.678	7480
2207.708	7456
2209.737	7468
2211.764	7449
2213.791	7582
2215.817	7488
2217.843	7560
2219.87	7363
2221.895	7398
2223.919	7418
2225.942	7438
2227.966	7370
2229.988	7467
2232.012	7320
2234.032	7572
2236.054	7365
2238.074	7384
2240.095	7488
2242.116	7360
2244.135	7308
2246.153	7320
2248.171	7469
2250.188	7443
2252.208	7439
2254.223	7468
2256.239	7495
2258.255	7393
2260.269	7389
2262.283	7426
2264.3	7335
2266.312	7370
2268.325	7457
2270.336	7420
2272.349	7468
2274.362	7390
2276.372	7449
2278.383	7339
2280.392	7296
2282.402	7312
2284.409	7370
2286.418	7391
2288.427	7302
2290.433	7436
2292.441	7365
2294.446	7403
2296.453	7365
2298.459	7463
2300.463	7403
2302.466	7414
2304.471	7370
2306.475	7422
2308.477	7460
2310.478	7364
2312.481	7410
2314.481	7326
2316.481	7356
2318.482	7214
2320.482	7209
2322.48	7315
2324.48	7302
2326.478	7223
2328.476	7395
2330.473	7386
2332.469	7253
2334.465	7226
2336.46	7396
2338.454	7186
2340.45	7258
2342.444	7152
2344.437	7240
2346.43	7328
2348.421	7344
2350.414	7243
2352.405	7210
2354.396	7202
2356.386	7280
2358.376	7249
2360.366	7308
2362.355	7157
2364.343	7154
2366.331	7340
2368.317	7219
2370.304	7175
2372.292	7243
2374.278	7196
2376.262	7259
2378.247	7144
2380.23	7186
2382.216	7150
2384.199	7238
2386.181	7174
2388.163	7246
2390.144	7165
2392.127	7260
2394.107	7105
2396.087	7016
2398.066	7136
2400.046	7161
2402.023	7142
2404.004	7222
2405.981	7133
2407.957	7126
2409.934	7052
2411.91	7144
2413.886	7075
2415.862	7129
2417.836	7070
2419.809	7112
2421.784	7081
2423.756	7102
2425.73	7020
2427.701	7054
2429.672	7215
2431.644	7170
2433.615	7213
2435.586	7093
2437.555	7208
2439.523	7148
2441.491	7022
2443.459	7021
2445.428	7148
2447.395	7118
2449.361	6969
2451.327	7073
2453.292	7125
2455.257	7066
2457.223	7055
2459.187	7029
2461.15	7023
2463.113	7108
2465.076	7088
2467.039	7126
2468.999	6985
2470.96	6960
2472.921	7064
2474.881	6956
2476.841	7060
2478.8	7067
2480.759	7014
2482.717	6923
2484.675	6948
2486.63	6897
2488.589	7070
2490.545	7029
2492.5	7025
2494.455	7026
2496.408	6944
2498.364	6993
2500.318	6915
2502.27	6840
2504.223	6888
2506.174	6954
2508.126	6970
2510.078	7050
2512.03	6887
2513.979	7031
2515.927	7038
2517.877	6944
2519.826	6888
2521.775	6916
2523.722	6926
2525.668	6976
2527.616	6983
2529.561	6962
2531.508	6778
2533.452	6917
2535.398	6968
2537.342	6932
2539.284	7025
2541.229	6934
2543.173	6990
2545.114	6922
2547.055	7014
2548.996	7040
2550.938	6826
2552.878	6910
2554.817	6953
2556.756	6933
2558.695	7048
2560.633	6867
2562.572	6977
2564.509	7132
2566.445	6988
2568.382	6943
2570.317	6967
2572.254	7001
2574.189	6996
2576.123	6912
2578.057	6900
2579.99	6916
2581.923	6958
2583.855	6950
2585.788	6976
2587.719	6926
2589.65	7047
2591.579	6832
2593.511	7018
2595.44	6985
2597.37	6921
2599.297	6877
2601.225	6902
2603.153	6962
2605.08	6815
2607.007	6934
2608.932	6981
2610.858	6982
2612.782	7024
2614.709	7004
2616.632	6949
2618.556	6898
2620.478	6932
2622.401	7017
2624.324	7076
2626.247	6970
2628.167	7018
2630.088	6975
2632.008	7001
2633.928	6926
2635.848	6980
2637.766	7018
2639.684	6961
2641.603	6997
2643.519	6976
2645.437	7063
2647.353	6894
2649.27	6932
2651.184	6917
2653.099	6978
2655.014	6923
2656.928	6894
2658.842	6957
2660.755	6902
2662.667	6859
2664.579	6918
2666.491	6910
2668.402	6855
2670.312	6942
2672.222	6836
2674.132	6915
2676.042	6870
2677.951	6908
2679.859	6901
2681.766	6960
2683.674	6902
2685.582	6902
2687.488	6789
2689.392	6929
2691.298	6823
2693.202	6850
2695.107	6864
2697.012	6775
2698.914	6922
2700.817	6792
2702.72	6826
2704.622	6867
2706.524	6847
2708.425	6711
2710.326	6839
2712.225	6825
2714.125	6795
2716.024	6687
2717.923	6809
2719.822	6699
2721.719	6909
2723.616	6802
2725.512	6757
2727.41	6807
2729.305	6842
2731.201	6759
2733.095	6803
2734.99	6741
2736.884	6909
2738.778	6917
2740.67	6860
2742.562	6765
2744.455	6837
2746.346	6785
2748.238	6807
2750.129	6762
2752.018	6863
2753.907	6624
2755.797	6784
2757.687	6850
2759.575	6773
2761.462	6745
2763.349	6752
2765.237	6735
2767.124	6747
2769.009	6699
2770.894	6700
2772.779	6753
2774.663	6854
2776.547	6765
2778.431	6791
2780.314	6756
2782.197	6761
2784.078	6665
2785.96	6717
2787.842	6628
2789.723	6683
2791.603	6663
2793.483	6634
2795.362	6543
2797.241	6683
2799.121	6736
2800.997	6578
2802.874	6781
2804.751	6696
2806.628	6680
2808.506	6749
2810.38	6632
2812.255	6678
2814.13	6729
2816.003	6656
2817.878	6691
2819.752	6797
2821.623	6650
2823.496	6772
2825.368	6731
2827.238	6638
2829.111	6737
2830.98	6543
2832.851	6645
2834.719	6689
2836.589	6640
2838.458	6709
2840.327	6670
2842.193	6743
2844.061	6672
2845.927	6768
2847.794	6737
2849.66	6834
2851.525	6883
2853.39	6894
2855.254	6824
2857.117	6849
2858.983	6853
2860.845	6825
2862.707	6856
2864.569	6959
2866.431	7014
2868.293	7008
2870.154	7073
2872.013	7079
2873.873	7148
2875.733	7179
2877.592	7306
2879.451	7565
2881.309	7495
2883.166	7616
2885.022	7615
2886.879	7583
2888.736	7513
2890.591	7723
2892.446	7671
2894.301	7668
2896.155	7657
2898.009	7671
2899.863	7674
2901.716	7541
2903.568	7422
2905.419	7495
2907.27	7496
2909.123	7623
2910.973	7599
2912.824	7704
2914.673	7521
2916.521	7684
2918.372	7806
2920.22	7885
2922.067	7975
2923.914	7934
2925.761	8160
2927.607	8132
2929.455	8062
2931.301	8145
2933.144	8216
2934.99	8297
2936.833	8371
2938.678	8502
2940.522	8423
2942.364	8585
2944.207	8697
2946.048	8978
2947.891	8963
2949.731	8884
2951.571	8883
2953.412	8862
2955.25	8733
2957.09	8599
2958.93	8635
2960.767	8608
2962.606	8677
2964.443	8323
2966.279	8413
2968.116	8213
2969.953	8064
2971.788	7961
2973.623	7922
2975.457	7834
2977.292	7885
2979.127	7736
2980.959	7746
2982.792	7664
2984.624	7464
2986.455	7540
2988.288	7579
2990.119	7427
2991.949	7426
2993.779	7343
2995.608	7358
2997.439	7164
2999.268	7084
3001.096	7140
3002.923	7125
3004.751	7027
3006.578	6927
3008.406	6843
3010.232	6876
3012.057	6764
3013.883	6670
3015.706	6738
3017.532	6530
3019.356	6651
3021.179	6472
3023.002	6638
3024.823	6503
3026.646	6394
3028.469	6490
3030.289	6452
3032.11	6310
3033.93	6471
3035.749	6384
3037.57	6468
3039.39	6418
3041.207	6349
3043.026	6398
3044.842	6448
3046.661	6297
3048.477	6400
3050.294	6254
3052.109	6362
3053.925	6442
3055.739	6318
3057.555	6407
3059.368	6282
3061.181	6440
3062.995	6338
3064.807	6355
3066.62	6416
3068.433	6266
3070.243	6286
3072.054	6368
3073.865	6342
3075.675	6253
3077.485	6263
3079.293	6301
3081.102	6196
3082.911	6290
3084.719	6189
3086.527	6250
3088.333	6138
3090.139	6182
3091.945	6082
3093.75	6229
3095.557	6105
3097.361	6286
3099.165	6120
3100.969	6215
3102.772	6016
3104.575	6148
3106.379	6076
3108.181	6095
3109.982	6066
3111.783	5950
3113.584	6120
3115.386	5997
3117.186	6097
3118.985	6036
3120.783	5997
3122.582	6036
3124.381	6078
3126.179	6108
3127.975	6013
3129.772	6015
3131.569	6001
3133.365	5875
3135.161	6007
3136.956	5926
3138.751	5840
3140.544	5982
3142.338	5908
3144.132	6005
3145.925	5977
3147.717	5939
3149.509	5897
3151.301	6060
3153.091	5962
3154.884	5896
3156.673	5957
3158.462	6080
3160.252	5990
3162.041	5944
3163.831	5924
3165.618	5878
3167.405	5963
3169.193	5829
3170.979	5874
3172.767	5966
3174.553	5930
3176.338	5940
3178.123	5912
3179.907	5797
3181.692	5807
3183.477	5834
3185.259	5932
3187.042	5963
3188.824	5931
3190.607	5923
3192.389	5896
3194.17	5882
3195.951	5859
3197.73	5942
3199.51	5896
3201.289	5811
3203.07	5877
3204.848	5884
3206.626	5923
3208.403	5904
3210.18	5939
3211.959	5875
3213.735	5809
3215.511	5775
3217.285	5805
3219.06	5914
3220.836	5835
3222.611	5728
3224.384	5916
3226.158	5787
3227.929	5860
3229.702	5909
3231.476	5873
3233.248	5817
3235.018	5906
3236.789	5844
3238.56	5868
3240.33	5908
3242.1	5890
3243.869	5870
3245.637	5925
3247.405	5856
3249.172	5761
3250.941	5882
3252.707	5892
3254.474	5890
3256.24	5846
3258.006	5761
3259.772	5870
3261.537	5887
3263.301	5814
3265.065	5838
3266.828	5728
3268.592	5873
3270.355	5904
3272.117	5875
3273.878	5781
3275.64	5886
3277.401	5803
3279.162	5767
3280.922	5849
3282.682	5859
3284.441	5782
3286.199	5929
3287.959	5710
3289.716	5796
3291.475	5903
3293.232	5779
3294.988	5825
3296.744	5794
3298.501	5826
3300.256	5770
3302.011	5791
3303.766	5708
3305.52	5946
3307.275	5833
3309.028	5763
3310.781	5803
3312.533	5796
3314.285	5821
3316.038	5809
3317.789	5919
3319.54	5805
3321.289	5916
3323.039	5729
3324.789	5757
3326.539	5777
3328.288	5705
3330.035	5818
3331.783	5774
3333.531	5728
3335.28	5820
3337.025	5848
3338.771	5792
3340.518	5734
3342.262	5733
3344.009	5762
3345.753	5858
3347.497	5829
3349.24	5708
3350.983	5699
3352.726	5765
3354.469	5711
3356.212	5617
3357.952	5759
3359.694	5725
3361.434	5754
3363.176	5699
3364.916	5723
3366.654	5664
3368.394	5658
3370.132	5737
3371.871	5581
3373.61	5636
3375.346	5547
3377.083	5678
3378.82	5688
3380.556	5608
3382.292	5657
3384.027	5703
3385.763	5601
3387.497	5592
3389.231	5550
3390.965	5597
3392.698	5529
3394.431	5508
3396.164	5600
3397.896	5570
3399.627	5584
3401.36	5463
3403.09	5579
3404.82	5581
3406.55	5579
3408.279	5533
3410.01	5515
3411.738	5489
3413.467	5560
3415.194	5521
3416.92	5596
3418.647	5542
3420.375	5422
3422.102	5471
3423.827	5547
3425.553	5452
3427.277	5445
3429.003	5551
3430.727	5480
3432.451	5550
3434.173	5438
3435.896	5359
3437.62	5508
3439.343	5447
3441.063	5344
3442.785	5479
3444.505	5325
3446.226	5284
3447.948	5397
3449.666	5313
3451.386	5497
3453.104	5345
3454.823	5417
3456.541	5333
3458.259	5324
3459.976	5265
3461.693	5350
3463.408	5362
3465.125	5302
3466.841	5336
3468.556	5302
3470.271	5271
3471.985	5211
3473.698	5386
3475.414	5280
3477.126	5222
3478.838	5240
3480.55	5288
3482.263	5209
3483.975	5203
3485.686	5127
3487.396	5183
3489.106	5194
3490.817	5151
3492.526	5196
3494.236	5110
3495.944	5202
3497.652	5141
3499.359	5139
3501.066	5061
3502.775	5165
3504.481	5054
3506.187	5143
3507.893	5134
3509.598	5077
3511.304	5131
3513.009	5138
3514.713	5105
3516.417	5158
3518.12	4991
3519.821	5092
3521.525	5014
3523.228	5071
3524.929	5173
3526.631	5040
3528.33	5029
3530.032	4949
3531.733	5050
3533.433	5042
3535.131	5017
3536.83	4945
3538.529	5049
3540.227	4985
3541.925	5003
3543.623	4956
3545.319	4951
3547.016	4918
3548.712	4934
3550.408	4918
3552.103	4883
3553.798	5043
3555.491	4864
3557.188	4986
3558.88	4873
3560.574	4899
3562.266	4832
3563.959	4853
3565.651	4890
3567.343	4910
3569.035	4815
3570.725	4868
3572.415	4860
3574.106	4853
3575.797	4823
3577.485	4902
3579.174	4944
3580.863	4806
3582.551	4875
3584.238	4731
3585.926	4790
3587.613	4767
3589.3	4808
3590.986	4814
3592.671	4752
3594.357	4740
3596.042	4748
3597.726	4667
3599.41	4781
3601.094	4776
3602.778	4825
3604.461	4732
3606.143	4668
3607.825	4696
3609.507	4680
3611.188	4675
3612.87	4572
3614.551	4653
3616.229	4691
3617.909	4665
3619.589	4611
3621.269	4632
3622.948	4659
3624.625	4547
3626.302	4563
3627.98	4625
3629.657	4535
3631.334	4583
3633.01	4640
3634.686	4597
3636.361	4559
3638.036	4444
3639.712	4546
3641.385	4503
3643.06	4447
3644.732	4459
3646.405	4552
3648.08	4476
3649.751	4546
3651.424	4514
3653.094	4485
3654.766	4542
3656.436	4559
3658.106	4425
3659.777	4423
3661.446	4440
3663.115	4446
3664.783	4440
3666.452	4377
3668.121	4480
3669.788	4433
3671.454	4479
3673.121	4388
3674.789	4460
3676.455	4366
3678.12	4428
3679.784	4443
3681.45	4402
3683.114	4445
3684.779	4450
3686.442	4408
3688.105	4424
3689.768	4408
3691.43	4351
3693.093	4335
3694.754	4282
3696.415	4337
3698.076	4358
3699.736	4412
3701.396	4479
3703.057	4406
3704.716	4374
3706.375	4424
3708.034	4399
3709.692	4307
3711.351	4354
3713.008	4325
3714.665	4256
3716.321	4310
3717.977	4325
3719.634	4374
3721.29	4270
3722.945	4357
3724.598	4368
3726.253	4297
3727.907	4315
3729.561	4327
3731.214	4348
3732.867	4275
3734.518	4317
3736.171	4334
3737.824	4274
3739.474	4246
3741.125	4244
3742.775	4231
3744.425	4276
3746.074	4143
3747.725	4278
3749.373	4276
3751.022	4242
3752.669	4158
3754.318	4248
3755.966	4201
3757.612	4284
3759.259	4210
3760.905	4284
3762.55	4155
3764.197	4229
3765.842	4116
3767.486	4171
3769.131	4219
3770.774	4154
3772.417	4171
3774.061	4160
3775.705	4243
3777.347	4193
3778.988	4202
3780.629	4156
3782.271	4244
3783.912	4115
3785.552	4234
3787.192	4184
3788.831	4154
3790.472	4149
3792.112	4150
3793.75	4112
3795.388	4054
3797.024	4076
3798.661	4057
3800.3	4117
3801.936	4053
3803.572	4118
3805.208	4184
3806.844	4158
3808.48	4098
3810.115	4085
3811.748	4109
3813.382	4058
3815.016	4055
3816.649	4160
3818.283	4079
3819.914	4205
3821.547	4146
3823.178	4036
3824.809	3936
3826.441	4034
3828.072	3950
3829.701	4019
3831.331	3981
3832.96	4056
3834.591	3998
3836.219	4107
3837.847	3973
3839.475	4032
3841.102	3994
3842.729	3985
3844.357	4046
3845.984	4053
3847.609	4033
3849.234	3960
3850.86	3988
3852.485	3876
3854.11	3932
3855.734	3984
3857.357	3925
3858.981	3940
3860.603	3899
3862.227	4000
3863.848	3979
3865.471	3867
3867.092	3918
3868.713	3949
3870.334	3962
3871.954	3938
3873.575	3820
3875.194	3972
3876.813	3878
3878.433	3946
3880.051	3953
3881.669	3917
3883.286	3935
3884.904	3811
3886.52	3902
3888.138	3908
3889.754	3872
3891.37	3876
3892.985	3916
3894.6	3927
3896.216	3868
3897.831	3962
3899.444	3918
3901.058	3941
3902.67	3942
3904.283	3791
3905.897	3908
3907.509	3891
3909.121	3848
3910.731	3976
3912.342	3826
3913.954	3833
3915.563	3933
3917.174	3798
3918.783	3770
3920.391	3826
3922.002	3813
3923.611	3849
3925.218	3866
3926.826	3840
3928.432	3870
3930.039	3890
3931.647	3816
3933.253	3823
3934.859	3786
3936.464	3791
3938.068	3823
3939.675	3743
3941.278	3778
3942.883	3814
3944.486	3811
3946.089	3888
3947.692	3787
3949.295	3809
3950.898	3807
3952.499	3738
3954.1	3910
3955.7	3772
3957.303	3791
3958.903	3723
3960.502	3826
3962.101	3799
3963.7	3796
3965.301	3790
3966.899	3768
3968.497	3736
3970.094	3732
3971.691	3710
3973.288	3761
3974.885	3783
3976.481	3738
3978.077	3622
3979.672	3655
3981.267	3658
3982.863	3671
3984.457	3718
3986.051	3648
3987.645	3657
3989.238	3671
3990.831	3705
3992.425	3605
3994.017	3657
3995.607	3684
3997.199	3594
3998.79	3629
4000.382	3718
4001.973	3667
4003.561	3669
4005.151	3592
4006.741	3652
4008.331	3639
4009.918	3654
4011.507	3493
4013.095	3540
4014.681	3586
4016.269	3569
4017.856	3556
4019.443	3554
4021.028	3550
4022.614	3505
4024.199	3596
4025.785	3547
4027.37	3562
4028.953	3664
4030.536	3554
4032.12	3536
4033.704	3453
4035.287	3528
4036.869	3532
4038.45	3509
4040.032	3623
4041.613	3515
4043.195	3601
4044.776	3544
4046.356	3539
4047.935	3435
4049.515	3460
4051.095	3487
4052.674	3471
4054.251	3532
4055.829	3501
4057.406	3515
4058.985	3518
4060.562	3408
4062.139	3456
4063.715	3508
4065.29	3512
4066.865	3470
4068.442	3509
4070.016	3475
4071.59	3453
4073.164	3492
4074.738	3558
4076.312	3487
4077.885	3435
4079.458	3418
4081.03	3428
4082.602	3395
4084.173	3477
4085.745	3472
4087.315	3440
4088.886	3462
4090.456	3446
4092.026	3421
4093.596	3444
4095.165	3362
4096.734	3436
4098.301	3421
4099.869	3484
4101.437	3361
4103.006	3434
4104.572	3400
4106.139	3357
4107.704	3369
4109.27	3322
4110.837	3326
4112.401	3366
4113.966	3380
4115.53	3357
4117.094	3399
4118.659	3341
4120.223	3325
4121.785	3318
4123.347	3344
4124.909	3380
4126.471	3270
4128.034	3355
4129.595	3354
4131.155	3335
4132.716	3334
4134.275	3287
4135.836	3298
4137.395	3303
4138.955	3252
4140.513	3354
4142.071	3217
4143.628	3317
4145.188	3273
4146.745	3273
4148.302	3226
4149.858	3249
4151.414	3284
4152.971	3205
4154.526	3251
4156.081	3223
4157.635	3253
4159.189	3220
4160.745	3236
4162.298	3189
4163.852	3194
4165.405	3224
4166.957	3185
4168.51	3205
4170.063	3221
4171.614	3321
4173.166	3172
4174.717	3133
4176.267	3185
4177.817	3136
4179.368	3201
4180.917	3251
4182.466	3229
4184.016	3200
4185.564	3185
4187.112	3163
4188.66	3175
4190.207	3175
4191.754	3125
4193.301	3098
4194.848	3152
4196.394	3199
4197.94	3158
4199.484	3178
4201.03	3129
4202.575	3144
4204.12	3231
4205.663	3143
4207.207	3118
4208.75	3165
4210.292	3100
4211.836	3183
4213.378	3072
4214.92	3155
4216.46	3083
4218.002	3074
4219.544	3102
4221.083	3096
4222.625	3112
4224.164	3025
4225.703	3091
4227.244	3124
4228.782	3111
4230.32	3084
4231.857	3126
4233.395	3084
4234.933	3108
4236.471	3074
4238.007	3173
4239.542	3075
4241.078	3153
4242.614	3094
4244.15	3047
4245.685	3101
4247.219	3028
4248.753	2970
4250.287	3004
4251.82	3093
4253.354	3091
4254.887	3043
4256.419	3057
4257.951	3052
4259.483	3031
4261.016	3071
4262.547	3002
4264.078	3052
4265.608	3023
4267.137	3001
4268.668	3063
4270.197	3054
4271.727	2992
4273.254	3073
4274.783	2987
4276.311	2987
4277.84	3009
4279.366	2999
4280.894	2993
4282.42	3020
4283.946	2932
4285.473	2974
4286.998	3029
4288.523	2974
4290.047	2975
4291.572	3019
4293.096	2974
4294.622	3001
4296.144	2943
4297.668	2946
4299.19	2932
4300.713	2965
4302.236	2952
4303.758	2882
4305.279	2903
4306.799	2943
4308.321	2921
4309.842	2962
4311.361	2939
4312.882	2923
4314.401	2907
