400.0961	3874
402.6185	3927
405.1424	3932
407.6635	3944
410.1838	3938
412.7035	3917
415.2225	3980
417.7388	4001
420.2585	3894
422.7754	4065
425.2917	4033
427.8072	4086
430.3221	4094
432.8363	4094
435.3498	4101
437.8626	4050
440.3727	4038
442.8841	4120
445.3969	4122
447.907	4138
450.4142	3994
452.9229	4045
455.4289	4122
457.9362	4077
460.4449	4146
462.9488	4121
465.454	4144
467.9566	4205
470.4604	4058
472.9637	4129
475.4662	4133
477.966	4249
480.4671	4255
482.9656	4217
485.4633	4206
487.9645	4207
490.4608	4272
492.9566	4222
495.4536	4230
497.948	4307
500.4437	4172
502.9387	4200
505.431	4341
507.9226	4315
510.4136	4242
512.9079	4246
515.3975	4290
517.8864	4245
520.3746	4233
522.8622	4302
525.3491	4344
527.8394	4312
530.3249	4382
532.8098	4303
535.2939	4288
537.7774	4341
540.2623	4170
542.7444	4306
545.2259	4327
547.7067	4403
550.1868	4375
552.6683	4237
555.147	4280
557.6231	4399
560.1005	4284
562.5773	4327
565.0534	4332
567.5308	4405
570.0056	4405
572.4776	4363
574.951	4449
577.4237	4413
579.8978	4426
582.3671	4488
584.8378	4406
587.3079	4457
589.7773	4473
592.244	4416
594.714	4494
597.1793	4484
599.6461	4468
602.1121	4414
604.5754	4398
607.0421	4449
609.5042	4474
611.9675	4390
614.4282	4559
616.8902	4370
619.3515	4406
621.8122	4440
624.2702	4448
626.7296	4433
629.1863	4439
631.6423	4438
634.1017	4523
636.5563	4459
639.0104	4479
641.4658	4342
643.9185	4477
646.3725	4498
648.8239	4517
651.2766	4466
653.7266	4472
656.176	4514
658.6247	4649
661.0748	4514
663.5242	4607
665.9709	4562
668.417	4582
670.8624	4514
673.3092	4627
675.7533	4522
678.1968	4562
680.6395	4641
683.0817	4644
685.5251	4567
687.9659	4633
690.4061	4568
692.8456	4577
695.2844	4628
697.7226	4630
700.1621	4702
702.599	4694
705.0332	4659
707.4688	4645
709.9036	4663
712.3399	4618
714.7735	4714
717.2044	4792
719.6367	4650
722.0683	4695
724.4993	4796
726.9296	4774
729.3593	4732
731.7883	4784
734.2147	4818
736.6423	4795
739.0714	4836
741.4958	4764
743.9216	4871
746.3447	4820
748.7691	4785
751.1929	4874
753.616	4798
756.0366	5006
758.4584	4883
760.8776	4885
763.2982	4859
765.718	4889
768.1373	4932
770.5539	5002
772.9698	4867
775.3871	4975
777.8038	4846
780.2178	5025
782.6332	4932
785.0459	4890
787.458	4842
789.8714	4990
792.2842	4863
794.6943	4912
797.1038	4880
799.5127	4904
801.9209	4903
804.3324	5096
806.7393	5016
809.1456	4926
811.5513	5056
813.9562	5034
816.3625	4973
818.7663	5037
821.1693	5034
823.5718	5110
825.9735	4972
828.3746	5013
830.7771	5018
833.177	5125
835.5762	5024
837.9747	5001
840.3727	5118
842.772	5036
845.1666	5049
847.5626	5069
849.958	5079
852.3527	4985
854.7488	5194
857.1403	5097
859.5331	5152
861.9253	5139
864.3168	5187
866.7057	5180
869.098	5128
871.4876	5284
873.8746	5070
876.263	5109
878.6487	5025
881.0378	5095
883.4243	5089
885.8081	5049
888.1933	5139
890.5759	5095
892.9598	5106
895.343	5109
897.7256	5103
900.1057	5146
902.4871	5139
904.8659	5284
907.246	5170
909.6254	5176
912.0023	5196
914.3786	5278
916.7562	5376
919.1331	5342
921.5074	5458
923.8831	5364
926.2562	5417
928.6287	5523
931.0005	5358
933.3757	5359
935.7462	5459
938.1162	5295
940.4855	5456
942.8542	5493
945.2242	5433
947.5916	5464
949.9584	5538
952.3266	5634
954.6921	5662
957.0571	5823
959.4233	5957
961.787	5930
964.15	5884
966.5125	5763
968.8742	5739
971.2354	5575
973.5959	5579
975.9559	5424
978.3151	5446
980.6738	5348
983.0338	5379
985.3912	5439
987.7461	5373
990.1022	5207
992.4578	5325
994.8127	5263
997.1689	5221
999.5207	5278
1001.874	5339
1004.226	5277
1006.576	5291
1008.929	5360
1011.28	5266
1013.628	5299
1015.977	5386
1018.324	5329
1020.674	5383
1023.019	5316
1025.366	5389
1027.713	5279
1030.056	5358
1032.399	5397
1034.746	5225
1037.087	5434
1039.431	5465
1041.771	5293
1044.113	5349
1046.454	5414
1048.793	5299
1051.133	5418
1053.471	5341
1055.807	5353
1058.146	5428
1060.483	5384
1062.818	5380
1065.153	5443
1067.489	5484
1069.822	5405
1072.156	5523
1074.488	5472
1076.82	5505
1079.15	5566
1081.48	5393
1083.814	5485
1086.143	5488
1088.471	5450
1090.799	5371
1093.126	5395
1095.452	5537
1097.78	5478
1100.105	5478
1102.43	5447
1104.754	5482
1107.077	5481
1109.4	5620
1111.722	5448
1114.044	5404
1116.365	5324
1118.685	5591
1121.005	5494
1123.324	5566
1125.643	5482
1127.961	5571
1130.278	5509
1132.595	5507
1134.911	5498
1137.226	5500
1139.541	5483
1141.854	5492
1144.167	5478
1146.482	5479
1148.793	5415
1151.105	5488
1153.414	5482
1155.725	5462
1158.033	5438
1160.344	5472
1162.651	5614
1164.959	5454
1167.265	5553
1169.572	5536
1171.878	5453
1174.184	5463
1176.488	5597
1178.79	5506
1181.094	5573
1183.396	5674
1185.699	5564
1188.001	5444
1190.301	5492
1192.6	5609
1194.9	5476
1197.2	5643
1199.497	5534
1201.794	5546
1204.09	5506
1206.387	5529
1208.684	5581
1210.978	5560
1213.272	5505
1215.565	5476
1217.858	5563
1220.15	5658
1222.443	5523
1224.734	5570
1227.024	5518
1229.313	5637
1231.602	5707
1233.892	5679
1236.18	5687
1238.467	5746
1240.754	5666
1243.04	5788
1245.325	5775
1247.612	5716
1249.896	5794
1252.178	5661
1254.461	5869
1256.743	5722
1259.027	5671
1261.308	5731
1263.587	5772
1265.867	5745
1268.146	5721
1270.425	5788
1272.703	5789
1274.981	5810
1277.256	5804
1279.532	5599
1281.808	5661
1284.083	5633
1286.358	5788
1288.63	5671
1290.904	5519
1293.175	5656
1295.449	5737
1297.719	5703
1299.99	5712
1302.259	5654
1304.529	5617
1306.798	5763
1309.065	5621
1311.333	5673
1313.599	5619
1315.866	5598
1318.131	5636
1320.396	5678
1322.66	5670
1324.925	5811
1327.187	5705
1329.448	5800
1331.711	5827
1333.974	5758
1336.234	5843
1338.493	5704
1340.752	5787
1343.01	5729
1345.269	5661
1347.526	5635
1349.784	5674
1352.04	5725
1354.295	5650
1356.552	5731
1358.806	5639
1361.059	5598
1363.312	5627
1365.564	5666
1367.818	5816
1370.069	5732
1372.318	5773
1374.568	5814
1376.817	5728
1379.066	5770
1381.316	5735
1383.564	5651
1385.809	5751
1388.056	5788
1390.301	5887
1392.549	5935
1394.793	5974
1397.036	5859
1399.279	6004
1401.522	6088
1403.763	5999
1406.007	5944
1408.248	5964
1410.487	5976
1412.727	5916
1414.965	5971
1417.205	6006
1419.442	5867
1421.68	6094
1423.915	5890
1426.152	5830
1428.388	5816
1430.623	5934
1432.857	5938
1435.091	5882
1437.323	5899
1439.556	5968
1441.789	6012
1444.019	6030
1446.25	5959
1448.48	6002
1450.708	5941
1452.938	6010
1455.167	6095
1457.394	5934
1459.62	6067
1461.846	6057
1464.073	5932
1466.299	5968
1468.523	5909
1470.746	5875
1472.969	5854
1475.191	5845
1477.415	5908
1479.636	5788
1481.858	5797
1484.078	5833
1486.298	5648
1488.518	5790
1490.736	5678
1492.954	5675
1495.169	5837
1497.386	5766
1499.602	5834
1501.819	5604
1504.034	5655
1506.248	5737
1508.462	5751
1510.675	5631
1512.888	5746
1515.1	5776
1517.311	5684
1519.522	5774
1521.732	5650
1523.942	5635
1526.151	5715
1528.36	5672
1530.566	5698
1532.773	5660
1534.98	5708
1537.187	5699
1539.392	5680
1541.596	5723
1543.801	5664
1546.005	5895
1548.208	5660
1550.411	5746
1552.612	5738
1554.814	5782
1557.013	5771
1559.212	5834
1561.414	5835
1563.612	5847
1565.811	5764
1568.007	5948
1570.203	5926
1572.403	5864
1574.598	5922
1576.792	5906
1578.988	5966
1581.181	5775
1583.376	5808
1585.568	5837
1587.761	5855
1589.952	5879
1592.143	5881
1594.333	5890
1596.524	5861
1598.715	5970
1600.903	5859
1603.091	5935
1605.278	6000
1607.466	5929
1609.652	6042
1611.838	5896
1614.023	5906
1616.207	6047
1618.391	5962
1620.576	5898
1622.759	5833
1624.941	5978
1627.123	5912
1629.304	6008
1631.484	5984
1633.664	6098
1635.844	5953
1638.022	5960
1640.201	9834
1642.38	5870
1644.556	6031
1646.732	5985
1648.908	5980
1651.084	6054
1653.257	5905
1655.433	6011
1657.607	6082
1659.779	6020
1661.951	6150
1664.122	6059
1666.295	6025
1668.467	6137
1670.635	6002
1672.805	6168
1674.973	5998
1677.142	6181
1679.31	6016
1681.478	5991
1683.644	5980
1685.81	6052
1687.975	5893
1690.142	6038
1692.305	6034
1694.468	5923
1696.632	6057
1698.794	5916
1700.957	5918
1703.119	5893
1705.279	5816
1707.439	5897
1709.598	5964
1711.758	6015
1713.917	5895
1716.075	5959
1718.231	5976
1720.388	5924
1722.543	5917
1724.702	5995
1726.856	5933
1729.01	6042
1731.164	5850
1733.317	5884
1735.471	5878
1737.623	5833
1739.774	6023
1741.925	5857
1744.075	5977
1746.225	5944
1748.376	5873
1750.524	5939
1752.672	5845
1754.82	5876
1756.965	5963
1759.113	5976
1761.259	5947
1763.405	6065
1765.549	6027
1767.694	5923
1769.836	6035
1771.981	5970
1774.123	5939
1776.264	6015
1778.405	5962
1780.546	6037
1782.687	5957
1784.827	5996
1786.966	6012
1789.103	5993
1791.242	5931
1793.381	6042
1795.517	5952
1797.653	5939
1799.788	6094
1801.923	6024
1804.057	6036
1806.193	5910
1808.326	6063
1810.457	5999
1812.59	5968
1814.721	6104
1816.855	6010
1818.984	6031
1821.113	5977
1823.244	5938
1825.372	5962
1827.499	5898
1829.63	5926
1831.756	5912
1833.882	5941
1836.007	5956
1838.132	5918
1840.26	5875
1842.384	5899
1844.507	5916
1846.63	5934
1848.752	5951
1850.875	5961
1852.996	5977
1855.118	5921
1857.238	5909
1859.358	5907
1861.477	5939
1863.597	5918
1865.715	5919
1867.832	5919
1869.948	5900
1872.064	5947
1874.181	5975
1876.297	5922
1878.411	6016
1880.526	5982
1882.639	5906
1884.752	5961
1886.865	5896
1888.977	5994
1891.089	5993
1893.2	5981
1895.308	5923
1897.42	5945
1899.53	5965
1901.639	6021
1903.745	5863
1905.853	6050
1907.962	5981
1910.067	5990
1912.174	5905
1914.278	6003
1916.383	6116
1918.486	6026
1920.592	6024
1922.694	6102
1924.797	5981
1926.898	5991
1929	5985
1931.102	5994
1933.203	6073
1935.301	6037
1937.401	6009
1939.499	5950
1941.598	6055
1943.697	6079
1945.793	6032
1947.888	6009
1949.985	6032
1952.08	6000
1954.176	5982
1956.269	6052
1958.364	5997
1960.457	5983
1962.549	6003
1964.642	6049
1966.733	6011
1968.823	5935
1970.913	6086
1973.005	5971
1975.093	6007
1977.184	5968
1979.271	6030
1981.359	5994
1983.446	5978
1985.532	6016
1987.619	5911
1989.705	6029
1991.789	5972
1993.874	5892
1995.956	5978
1998.041	5933
2000.123	5929
2002.206	6047
2004.287	5953
2006.368	5943
2008.449	5901
2010.529	5987
2012.609	6054
2014.688	5821
2016.766	5902
2018.843	5953
2020.922	6033
2022.999	5864
2025.074	6016
2027.15	5891
2029.225	5855
2031.299	5973
2033.375	5862
2035.447	6093
2037.52	5872
2039.592	5962
2041.664	5999
2043.736	5880
2045.807	5942
2047.876	5982
2049.947	6002
2052.015	5893
2054.086	5960
2056.153	5952
2058.221	6057
2060.288	6048
2062.353	5974
2064.42	5954
2066.486	6035
2068.55	6004
2070.614	5993
2072.678	5972
2074.741	5902
2076.805	5947
2078.866	5950
2080.929	5937
2082.99	5939
2085.049	5942
2087.109	6032
2089.17	5888
2091.228	5901
2093.286	5926
2095.344	6018
2097.4	5929
2099.46	5857
2101.516	6098
2103.572	6023
2105.626	5867
2107.679	5942
2109.735	6014
2111.788	5950
2113.841	5904
2115.894	5961
2117.945	5890
2119.997	5907
2122.049	5945
2124.1	5979
2126.148	5896
2128.197	5843
2130.246	5990
2132.296	5887
2134.342	5882
2136.39	5918
2138.437	5925
2140.483	5876
2142.527	5867
2144.574	5978
2146.619	5964
2148.661	5896
2150.705	5885
2152.747	5892
2154.792	5879
2156.832	6001
2158.874	5928
2160.915	5942
2162.954	5936
2164.995	5863
2167.034	5922
2169.072	5861
2171.111	5892
2173.148	5832
2175.186	5818
2177.223	5883
2179.258	5832
2181.294	5825
2183.328	5744
2185.362	5877
2187.398	5777
2189.431	5902
2191.463	5853
2193.495	5850
2195.528	5881
2197.56	5816
2199.59	5725
2201.62	5838
2203.649	5839
2205.678	5890
2207.708	5829
2209.737	5803
2211.764	5853
2213.791	5791
2215.817	5788
2217.843	5780
2219.87	5852
2221.895	5747
2223.919	5743
2225.942	5746
2227.966	5819
2229.988	5765
2232.012	5734
2234.032	5830
2236.054	5831
2238.074	5695
2240.095	5784
2242.116	5766
2244.135	5812
2246.153	5798
2248.171	5741
2250.188	5728
2252.208	5776
2254.223	5814
2256.239	5782
2258.255	5776
2260.269	5700
2262.283	5775
2264.3	5837
2266.312	5790
2268.325	5778
2270.336	5761
2272.349	5804
2274.362	5824
2276.372	5790
2278.383	5768
2280.392	5772
2282.402	5870
2284.409	5804
2286.418	5817
2288.427	5775
2290.433	5732
2292.441	5776
2294.446	5692
2296.453	5782
2298.459	5891
2300.463	5700
2302.466	5816
2304.471	5753
2306.475	5715
2308.477	5710
2310.478	5805
2312.481	5816
2314.481	5736
2316.481	5669
2318.482	5683
2320.482	5692
2322.48	5795
2324.48	5717
2326.478	5636
2328.476	5801
2330.473	5741
2332.469	5666
2334.465	5699
2336.46	5589
2338.454	5707
2340.45	5751
2342.444	5621
2344.437	5773
2346.43	5721
2348.421	5683
2350.414	5778
2352.405	5737
2354.396	5710
2356.386	5680
2358.376	5648
2360.366	5610
2362.355	5666
2364.343	5718
2366.331	5642
2368.317	5618
2370.304	5719
2372.292	5579
2374.278	5583
2376.262	5650
2378.247	5543
2380.23	5669
2382.216	5604
2384.199	5524
2386.181	5618
2388.163	5592
2390.144	5557
2392.127	5681
2394.107	5558
2396.087	5582
2398.066	5584
2400.046	5494
2402.023	5599
2404.004	5584
2405.981	5632
2407.957	5602
2409.934	5570
2411.91	5563
2413.886	5691
2415.862	5674
2417.836	5629
2419.809	5559
2421.784	5469
2423.756	5571
2425.73	5539
2427.701	5551
2429.672	5479
2431.644	5620
2433.615	5547
2435.586	5531
2437.555	5566
2439.523	5638
2441.491	5563
2443.459	5512
2445.428	5464
2447.395	5445
2449.361	5537
2451.327	5639
2453.292	5591
2455.257	5518
2457.223	5529
2459.187	5529
2461.15	5553
2463.113	5613
2465.076	5452
2467.039	5447
2468.999	5495
2470.96	5520
2472.921	5554
2474.881	5533
2476.841	5418
2478.8	5444
2480.759	5448
2482.717	5478
2484.675	5552
2486.63	5446
2488.589	5470
2490.545	5479
2492.5	5488
2494.455	5414
2496.408	5555
2498.364	5386
2500.318	5456
2502.27	5378
2504.223	5559
2506.174	5444
2508.126	5442
2510.078	5559
2512.03	5492
2513.979	5413
2515.927	5527
2517.877	5451
2519.826	5506
2521.775	5443
2523.722	5462
2525.668	5472
2527.616	5503
2529.561	5538
2531.508	5409
2533.452	5462
2535.398	5484
2537.342	5421
2539.284	5349
2541.229	5438
2543.173	5377
2545.114	5453
2547.055	5517
2548.996	5471
2550.938	5397
2552.878	5384
2554.817	5463
2556.756	5367
2558.695	5313
2560.633	5415
2562.572	5405
2564.509	5539
2566.445	5445
2568.382	5454
2570.317	5428
2572.254	5404
2574.189	5494
2576.123	5480
2578.057	5375
2579.99	5369
2581.923	5438
2583.855	5425
2585.788	5435
2587.719	5440
2589.65	5408
2591.579	5452
2593.511	5454
2595.44	5371
2597.37	5495
2599.297	5454
2601.225	5434
2603.153	5351
2605.08	5406
2607.007	5511
2608.932	5398
2610.858	5463
2612.782	5455
2614.709	5451
2616.632	5375
2618.556	5450
2620.478	5387
2622.401	5401
2624.324	5438
2626.247	5371
2628.167	5520
2630.088	5442
2632.008	5283
2633.928	5419
2635.848	5448
2637.766	5363
2639.684	5482
2641.603	5452
2643.519	5483
2645.437	5414
2647.353	5479
2649.27	5383
2651.184	5556
2653.099	5566
2655.014	5385
2656.928	5475
2658.842	5440
2660.755	5435
2662.667	5333
2664.579	5379
2666.491	5481
2668.402	5334
2670.312	5370
2672.222	5334
2674.132	5368
2676.042	5373
2677.951	5391
2679.859	5309
2681.766	5429
2683.674	5489
2685.582	5370
2687.488	5409
2689.392	5346
2691.298	5344
2693.202	5367
2695.107	5355
2697.012	5359
2698.914	5375
2700.817	5297
2702.72	5305
2704.622	5232
2706.524	5410
2708.425	5326
2710.326	5367
2712.225	5310
2714.125	5298
2716.024	5367
2717.923	5300
2719.822	5363
2721.719	5279
2723.616	5306
2725.512	5398
2727.41	5300
2729.305	5297
2731.201	5326
2733.095	5310
2734.99	5246
2736.884	5384
2738.778	5345
2740.67	5305
2742.562	5341
2744.455	5384
2746.346	5252
2748.238	5257
2750.129	5412
2752.018	5334
2753.907	5243
2755.797	5271
2757.687	5212
2759.575	5319
2761.462	5246
2763.349	5268
2765.237	5273
2767.124	5301
2769.009	5244
2770.894	5271
2772.779	5356
2774.663	5242
2776.547	5301
2778.431	5181
2780.314	5279
2782.197	5294
2784.078	5177
2785.96	5197
2787.842	5266
2789.723	5268
2791.603	5208
2793.483	5252
2795.362	5276
2797.241	5279
2799.121	5206
2800.997	5189
2802.874	5288
2804.751	5248
2806.628	5304
2808.506	5179
2810.38	5373
2812.255	5176
2814.13	5218
2816.003	5195
2817.878	5173
2819.752	5229
2821.623	5127
2823.496	5232
2825.368	5220
2827.238	5230
2829.111	5235
2830.98	5212
2832.851	5256
2834.719	5111
2836.589	5159
2838.458	5236
2840.327	5243
2842.193	5256
2844.061	5198
2845.927	5238
2847.794	5231
2849.66	5240
2851.525	5222
2853.39	5263
2855.254	5263
2857.117	5262
2858.983	5332
2860.845	5271
2862.707	5308
2864.569	5387
2866.431	5312
2868.293	5366
2870.154	5431
2872.013	5388
2873.873	5451
2875.733	5447
2877.592	5446
2879.451	5524
2881.309	5612
2883.166	5518
2885.022	5570
2886.879	5689
2888.736	5486
2890.591	5730
2892.446	5598
2894.301	5653
2896.155	5695
2898.009	5524
2899.863	5726
2901.716	5723
2903.568	5589
2905.419	5637
2907.27	5530
2909.123	5699
2910.973	5660
2912.824	5575
2914.673	5734
2916.521	5654
2918.372	5745
2920.22	5830
2922.067	5866
2923.914	5797
2925.761	5745
2927.607	5870
2929.455	5804
2931.301	5891
2933.144	6011
2934.99	5988
2936.833	5963
2938.678	6059
2940.522	6090
2942.364	6120
2944.207	6216
2946.048	6216
2947.891	6306
2949.731	6254
2951.571	6335
2953.412	6286
2955.25	6096
2957.09	6134
2958.93	6204
2960.767	6161
2962.606	6069
2964.443	6119
2966.279	6054
2968.116	5926
2969.953	5833
2971.788	5819
2973.623	5753
2975.457	5656
2977.292	5675
2979.127	5678
2980.959	5615
2982.792	5611
2984.624	5561
2986.455	5537
2988.288	5519
2990.119	5426
2991.949	5419
2993.779	5450
2995.608	5442
2997.439	5389
2999.268	5386
3001.096	5436
3002.923	5355
3004.751	5252
3006.578	5170
3008.406	5196
3010.232	5155
3012.057	5162
3013.883	5124
3015.706	5187
3017.532	5056
3019.356	5003
3021.179	5014
3023.002	5025
3024.823	4990
3026.646	5064
3028.469	4953
3030.289	4982
3032.11	4930
3033.93	4958
3035.749	4897
3037.57	4928
3039.39	4931
3041.207	4911
3043.026	4944
3044.842	4833
3046.661	4906
3048.477	4999
3050.294	5002
3052.109	4832
3053.925	4952
3055.739	4895
3057.555	4909
3059.368	4952
3061.181	4897
3062.995	4909
3064.807	4910
3066.62	4970
3068.433	4985
3070.243	4855
3072.054	4894
3073.865	4857
3075.675	4934
3077.485	4867
3079.293	4871
3081.102	4848
3082.911	4863
3084.719	4829
3086.527	4828
3088.333	4815
3090.139	4864
3091.945	4773
3093.75	4791
3095.557	4726
3097.361	4778
3099.165	4805
3100.969	4777
3102.772	4646
3104.575	4725
3106.379	4761
3108.181	4724
3109.982	4756
3111.783	4664
3113.584	4819
3115.386	4688
3117.186	4733
3118.985	4701
3120.783	4752
3122.582	4685
3124.381	4780
3126.179	4669
3127.975	4669
3129.772	4650
3131.569	4709
3133.365	4712
3135.161	4655
3136.956	4736
3138.751	4652
3140.544	4648
3142.338	4616
3144.132	4706
3145.925	4674
3147.717	4634
3149.509	4586
3151.301	4635
3153.091	4605
3154.884	4603
3156.673	4599
3158.462	4649
3160.252	4617
3162.041	4603
3163.831	4635
3165.618	4623
3167.405	4637
3169.193	4604
3170.979	4607
3172.767	4592
3174.553	4569
3176.338	4594
3178.123	4637
3179.907	4532
3181.692	4460
3183.477	4603
3185.259	4556
3187.042	4548
3188.824	4588
3190.607	4560
3192.389	4573
3194.17	4552
3195.951	4662
3197.73	4645
3199.51	4629
3201.289	4580
3203.07	4607
3204.848	4532
3206.626	4553
3208.403	4648
3210.18	4489
3211.959	4565
3213.735	4663
3215.511	4513
3217.285	4470
3219.06	4619
3220.836	4649
3222.611	4560
3224.384	4543
3226.158	4482
3227.929	4571
3229.702	4587
3231.476	4495
3233.248	4503
3235.018	4519
3236.789	4534
3238.56	4513
3240.33	4481
3242.1	4416
3243.869	4576
3245.637	4548
3247.405	4487
3249.172	4515
3250.941	4414
3252.707	4473
3254.474	4471
3256.24	4594
3258.006	4549
3259.772	4538
3261.537	4525
3263.301	4626
3265.065	4582
3266.828	4491
3268.592	4500
3270.355	4497
3272.117	4512
3273.878	4398
3275.64	4526
3277.401	4504
3279.162	4599
3280.922	4484
3282.682	4446
3284.441	4513
3286.199	4458
3287.959	4504
3289.716	4505
3291.475	4533
3293.232	4418
3294.988	4473
3296.744	4545
3298.501	4470
3300.256	4524
3302.011	4515
3303.766	4410
3305.52	4494
3307.275	4388
3309.028	4451
3310.781	4514
3312.533	4436
3314.285	4536
3316.038	4397
3317.789	4456
3319.54	4367
3321.289	4456
3323.039	4456
3324.789	4391
3326.539	4410
3328.288	4402
3330.035	4437
3331.783	4402
3333.531	4417
3335.28	4406
3337.025	4444
3338.771	4368
3340.518	4405
3342.262	4415
3344.009	4434
3345.753	4464
3347.497	4389
3349.24	4370
3350.983	4461
3352.726	4447
3354.469	4327
3356.212	4328
3357.952	4488
3359.694	4291
3361.434	4407
3363.176	4330
3364.916	4390
3366.654	4335
3368.394	4463
3370.132	4365
3371.871	4330
3373.61	4339
3375.346	4288
3377.083	4356
3378.82	4346
3380.556	4263
3382.292	4308
3384.027	4329
3385.763	4281
3387.497	4248
3389.231	4224
3390.965	4315
3392.698	4319
3394.431	4365
3396.164	4218
3397.896	4411
3399.627	4249
3401.36	4345
3403.09	4223
3404.82	4270
3406.55	4307
3408.279	4252
3410.01	4331
3411.738	4234
3413.467	4306
3415.194	4262
3416.92	4280
3418.647	4287
3420.375	4288
3422.102	4274
3423.827	4224
3425.553	4247
3427.277	4231
3429.003	4241
3430.727	4201
3432.451	4213
3434.173	4189
3435.896	4209
3437.62	4184
3439.343	4154
3441.063	4154
3442.785	4233
3444.505	4063
3446.226	4149
3447.948	4070
3449.666	4131
3451.386	4111
3453.104	4204
3454.823	4155
3456.541	4073
3458.259	4122
3459.976	4127
3461.693	4152
3463.408	4067
3465.125	4053
3466.841	4068
3468.556	4159
3470.271	4066
3471.985	4139
3473.698	4057
3475.414	4125
3477.126	4104
3478.838	4096
3480.55	4024
3482.263	4034
3483.975	4034
3485.686	4079
3487.396	4079
3489.106	4047
3490.817	3974
3492.526	4004
3494.236	4029
3495.944	4003
3497.652	3983
3499.359	4076
3501.066	4042
3502.775	3947
3504.481	3933
3506.187	4068
3507.893	4014
3509.598	3946
3511.304	3958
3513.009	4055
3514.713	3953
3516.417	3998
3518.12	4049
3519.821	3898
3521.525	3934
3523.228	4016
3524.929	3963
3526.631	3923
3528.33	3970
3530.032	3975
3531.733	3965
3533.433	3992
3535.131	3840
3536.83	3877
3538.529	3918
3540.227	3876
3541.925	3942
3543.623	3823
3545.319	3932
3547.016	3876
3548.712	3893
3550.408	3861
3552.103	3935
3553.798	3877
3555.491	3850
3557.188	3909
3558.88	3860
3560.574	3853
3562.266	3895
3563.959	3914
3565.651	3710
3567.343	3914
3569.035	3832
3570.725	3886
3572.415	3851
3574.106	3815
3575.797	3760
3577.485	3808
3579.174	3847
3580.863	3840
3582.551	3817
3584.238	3809
3585.926	3862
3587.613	3797
3589.3	3812
3590.986	3865
3592.671	3686
3594.357	3819
3596.042	3788
3597.726	3711
3599.41	3735
3601.094	3716
3602.778	3761
3604.461	3650
3606.143	3716
3607.825	3750
3609.507	3621
3611.188	3757
3612.87	3705
3614.551	3576
3616.229	3698
3617.909	3675
3619.589	3649
3621.269	3672
3622.948	3646
3624.625	3665
3626.302	3690
3627.98	3708
3629.657	3648
3631.334	3677
3633.01	3662
3634.686	3646
3636.361	3671
3638.036	3708
3639.712	3629
3641.385	3616
3643.06	3638
3644.732	3490
3646.405	3605
3648.08	3605
3649.751	3633
3651.424	3611
3653.094	3668
3654.766	3556
3656.436	3601
3658.106	3602
3659.777	3475
3661.446	3578
3663.115	3525
3664.783	3605
3666.452	3542
3668.121	3538
3669.788	3493
3671.454	3571
3673.121	3586
3674.789	3606
3676.455	3509
3678.12	3568
3679.784	3532
3681.45	3593
3683.114	3589
3684.779	3582
3686.442	3544
3688.105	3590
3689.768	3506
3691.43	3538
3693.093	3611
3694.754	3511
3696.415	3475
3698.076	3472
3699.736	3484
3701.396	3475
3703.057	3498
3704.716	3570
3706.375	3556
3708.034	3517
3709.692	3536
3711.351	3578
3713.008	3417
3714.665	3511
3716.321	3517
3717.977	3450
3719.634	3498
3721.29	3524
3722.945	3428
3724.598	3428
3726.253	3522
3727.907	3458
3729.561	3468
3731.214	3466
3732.867	3520
3734.518	3497
3736.171	3451
3737.824	3421
3739.474	3416
3741.125	3388
3742.775	3481
3744.425	3333
3746.074	3385
3747.725	3415
3749.373	3391
3751.022	3450
3752.669	3448
3754.318	3397
3755.966	3321
3757.612	3399
3759.259	3469
3760.905	3414
3762.55	3433
3764.197	3426
3765.842	3333
3767.486	3347
3769.131	3395
3770.774	3366
3772.417	3305
3774.061	3391
3775.705	3315
3777.347	3374
3778.988	3443
3780.629	3303
3782.271	3395
3783.912	3289
3785.552	3354
3787.192	3297
3788.831	3340
3790.472	3274
3792.112	3348
3793.75	3351
3795.388	3444
3797.024	3291
3798.661	3328
3800.3	3353
3801.936	3372
3803.572	3297
3805.208	3359
3806.844	3251
3808.48	3322
3810.115	3287
3811.748	3282
3813.382	3238
3815.016	3306
3816.649	3318
3818.283	3383
3819.914	3224
3821.547	3314
3823.178	3239
3824.809	3233
3826.441	3213
3828.072	3215
3829.701	3363
3831.331	3275
3832.96	3239
3834.591	3229
3836.219	3291
3837.847	3324
3839.475	3231
3841.102	3199
3842.729	3262
3844.357	3242
3845.984	3311
3847.609	3275
3849.234	3299
3850.86	3264
3852.485	3168
3854.11	3199
3855.734	3245
3857.357	3191
3858.981	3184
3860.603	3221
3862.227	3229
3863.848	3168
3865.471	3194
3867.092	3168
3868.713	3119
3870.334	3339
3871.954	3238
3873.575	3308
3875.194	3168
3876.813	3242
3878.433	3099
3880.051	3212
3881.669	3258
3883.286	3240
3884.904	3249
3886.52	3159
3888.138	3177
3889.754	3152
3891.37	3135
3892.985	3132
3894.6	3176
3896.216	3131
3897.831	3171
3899.444	3083
3901.058	3167
3902.67	3096
3904.283	3109
3905.897	3157
3907.509	3184
3909.121	3107
3910.731	3129
3912.342	3136
3913.954	3100
3915.563	3146
3917.174	3166
3918.783	3148
3920.391	3140
3922.002	3071
3923.611	3101
3925.218	3126
3926.826	3033
3928.432	3104
3930.039	3083
3931.647	3178
3933.253	3131
3934.859	3089
3936.464	3039
3938.068	3052
3939.675	3182
3941.278	3117
3942.883	3077
3944.486	3069
3946.089	3109
3947.692	3039
3949.295	3053
3950.898	3070
3952.499	3051
3954.1	3139
3955.7	2988
3957.303	3142
3958.903	3041
3960.502	2964
3962.101	3057
3963.7	3081
3965.301	3043
3966.899	2940
3968.497	3017
3970.094	3047
3971.691	3013
3973.288	2978
3974.885	3007
3976.481	3017
3978.077	2984
3979.672	2967
3981.267	3002
3982.863	3036
3984.457	2973
3986.051	3006
3987.645	2981
3989.238	3047
3990.831	2985
3992.425	2952
3994.017	3021
3995.607	2932
3997.199	2982
3998.79	2912
4000.382	3027
4001.973	2952
4003.561	2901
4005.151	2925
4006.741	2904
4008.331	2985
4009.918	2938
4011.507	2948
4013.095	2895
4014.681	2936
4016.269	2915
4017.856	2916
4019.443	2961
4021.028	2878
4022.614	2873
4024.199	2994
4025.785	2895
4027.37	2868
4028.953	2902
4030.536	2926
4032.12	2901
4033.704	2920
4035.287	2916
4036.869	2874
4038.45	2862
4040.032	2846
4041.613	2865
4043.195	2918
4044.776	2782
4046.356	2820
4047.935	2890
4049.515	2923
4051.095	2903
4052.674	2817
4054.251	2806
4055.829	2837
4057.406	2804
4058.985	2852
4060.562	2829
4062.139	2786
4063.715	2777
4065.29	2849
4066.865	2885
4068.442	2790
4070.016	2785
4071.59	2772
4073.164	2775
4074.738	2775
4076.312	2775
4077.885	2780
4079.458	2774
4081.03	2773
4082.602	2771
4084.173	2808
4085.745	2774
4087.315	2818
4088.886	2742
4090.456	2751
4092.026	2821
4093.596	2825
4095.165	2782
4096.734	2780
4098.301	2767
4099.869	2761
4101.437	2797
4103.006	2762
4104.572	2796
4106.139	2768
4107.704	2739
4109.27	2767
4110.837	2717
4112.401	2774
4113.966	2696
4115.53	2724
4117.094	2754
4118.659	2748
4120.223	2695
4121.785	2724
4123.347	2757
4124.909	2719
4126.471	2772
4128.034	2660
4129.595	2741
4131.155	2649
4132.716	2703
4134.275	2691
4135.836	2744
4137.395	2709
4138.955	2631
4140.513	2712
4142.071	2674
4143.628	2671
4145.188	2688
4146.745	2681
4148.302	2678
4149.858	2654
4151.414	2610
4152.971	2659
4154.526	2663
4156.081	2661
4157.635	2723
4159.189	2666
4160.745	2658
4162.298	2652
4163.852	2614
4165.405	2585
4166.957	2652
4168.51	2640
4170.063	2603
4171.614	2612
4173.166	2641
4174.717	2573
4176.267	2637
4177.817	2588
4179.368	2548
4180.917	2625
4182.466	2542
4184.016	2617
4185.564	2574
4187.112	2592
4188.66	2577
4190.207	2581
4191.754	2603
4193.301	2634
4194.848	2565
4196.394	2592
4197.94	2600
4199.484	2579
4201.03	2588
4202.575	2499
4204.12	2642
4205.663	2524
4207.207	2545
4208.75	2561
4210.292	2519
4211.836	2558
4213.378	2621
4214.92	2481
4216.46	2608
4218.002	2614
4219.544	2600
4221.083	2583
4222.625	2569
4224.164	2580
4225.703	2497
4227.244	2497
4228.782	2578
4230.32	2547
4231.857	2524
4233.395	2491
4234.933	2519
4236.471	2549
4238.007	2470
4239.542	2461
4241.078	2490
4242.614	2542
4244.15	2566
4245.685	2496
4247.219	2536
4248.753	2539
4250.287	2470
4251.82	2475
4253.354	2507
4254.887	2517
4256.419	2474
4257.951	2465
4259.483	2508
4261.016	2449
4262.547	2591
4264.078	2442
4265.608	2449
4267.137	2485
4268.668	2466
4270.197	2506
4271.727	2486
4273.254	2454
4274.783	2425
4276.311	2437
4277.84	2474
4279.366	2538
4280.894	2434
4282.42	2418
4283.946	2475
4285.473	2417
4286.998	2399
4288.523	2461
4290.047	2433
4291.572	2432
4293.096	2383
4294.622	2471
4296.144	2487
4297.668	2395
4299.19	2445
4300.713	2471
4302.236	2415
4303.758	2425
4305.279	2464
4306.799	2502
4308.321	2400
4309.842	2409
4311.361	2412
4312.882	2342
4314.401	2377
