400.0961	6544
402.6185	6554
405.1424	6579
407.6635	6625
410.1838	6679
412.7035	6515
415.2225	6632
417.7388	6659
420.2585	6698
422.7754	6859
425.2917	6988
427.8072	6827
430.3221	6904
432.8363	7020
435.3498	7062
437.8626	7021
440.3727	7103
442.8841	6928
445.3969	7069
447.907	6990
450.4142	6935
452.9229	6996
455.4289	7090
457.9362	7015
460.4449	7138
462.9488	7029
465.454	7069
467.9566	7031
470.4604	7234
472.9637	7093
475.4662	7029
477.966	7046
480.4671	7090
482.9656	7081
485.4633	7127
487.9645	7249
490.4608	7310
492.9566	7209
495.4536	7276
497.948	7147
500.4437	7265
502.9387	7222
505.431	7394
507.9226	7361
510.4136	7408
512.9079	7317
515.3975	7325
517.8864	7334
520.3746	7333
522.8622	7363
525.3491	7401
527.8394	7366
530.3249	7362
532.8098	7382
535.2939	7368
537.7774	7358
540.2623	7504
542.7444	7533
545.2259	7388
547.7067	7570
550.1868	7458
552.6683	7533
555.147	7486
557.6231	7374
560.1005	7399
562.5773	7515
565.0534	7428
567.5308	7482
570.0056	7539
572.4776	7669
574.951	7605
577.4237	7726
579.8978	7636
582.3671	7812
584.8378	7616
587.3079	7686
589.7773	7649
592.244	7715
594.714	7661
597.1793	7648
599.6461	7544
602.1121	7703
604.5754	7757
607.0421	7630
609.5042	7707
611.9675	7718
614.4282	7670
616.8902	7655
619.3515	7661
621.8122	7726
624.2702	7554
626.7296	7735
629.1863	7680
631.6423	7713
634.1017	7658
636.5563	7632
639.0104	7694
641.4658	7579
643.9185	7778
646.3725	7609
648.8239	7673
651.2766	7790
653.7266	7832
656.176	7944
658.6247	7907
661.0748	7924
663.5242	7708
665.9709	7881
668.417	7897
670.8624	8010
673.3092	7977
675.7533	7946
678.1968	8019
680.6395	7957
683.0817	8054
685.5251	7984
687.9659	7978
690.4061	7882
692.8456	7968
695.2844	7989
697.7226	8121
700.1621	8101
702.599	8095
705.0332	8117
707.4688	8280
709.9036	8016
712.3399	8208
714.7735	8039
717.2044	8099
719.6367	8126
722.0683	8216
724.4993	8240
726.9296	8248
729.3593	8260
731.7883	8212
734.2147	8347
736.6423	8258
739.0714	8365
741.4958	8329
743.9216	8385
746.3447	8444
748.7691	8359
751.1929	8475
753.616	8424
756.0366	8447
758.4584	8500
760.8776	8409
763.2982	8547
765.718	8549
768.1373	8583
770.5539	8509
772.9698	8707
775.3871	8482
777.8038	8510
780.2178	8469
782.6332	8633
785.0459	8605
787.458	8652
789.8714	8523
792.2842	8577
794.6943	8541
797.1038	8493
799.5127	8585
801.9209	8752
804.3324	8819
806.7393	8626
809.1456	8593
811.5513	8686
813.9562	8692
816.3625	8792
818.7663	8734
821.1693	8789
823.5718	8791
825.9735	8772
828.3746	8798
830.7771	8731
833.177	8783
835.5762	8616
837.9747	8833
840.3727	8658
842.772	8730
845.1666	8916
847.5626	8783
849.958	8775
852.3527	8901
854.7488	8904
857.1403	8891
859.5331	9025
861.9253	8819
864.3168	8849
866.7057	8664
869.098	9042
871.4876	8841
873.8746	8885
876.263	8962
878.6487	8687
881.0378	8852
883.4243	8863
885.8081	8847
888.1933	8778
890.5759	8765
892.9598	8797
895.343	8882
897.7256	8910
900.1057	8891
902.4871	8882
904.8659	8909
907.246	8992
909.6254	9039
912.0023	9033
914.3786	9157
916.7562	9195
919.1331	9274
921.5074	9299
923.8831	9340
926.2562	9399
928.6287	9280
931.0005	9363
933.3757	9232
935.7462	9267
938.1162	9250
940.4855	9422
942.8542	9468
945.2242	9338
947.5916	9627
949.9584	9669
952.3266	10014
954.6921	10026
957.0571	10292
959.4233	10609
961.787	10817
964.15	10540
966.5125	10413
968.8742	10181
971.2354	9821
973.5959	9749
975.9559	9533
978.3151	9496
980.6738	9338
983.0338	9310
985.3912	9334
987.7461	9205
990.1022	9134
992.4578	9359
994.8127	9205
997.1689	9103
999.5207	9218
1001.874	9206
1004.226	9277
1006.576	9185
1008.929	9330
1011.28	9168
1013.628	9253
1015.977	9088
1018.324	9202
1020.674	9140
1023.019	9285
1025.366	9287
1027.713	9285
1030.056	9349
1032.399	9205
1034.746	9328
1037.087	9310
1039.431	9208
1041.771	9339
1044.113	9361
1046.454	9300
1048.793	9335
1051.133	9415
1053.471	9423
1055.807	9315
1058.146	9326
1060.483	9236
1062.818	9411
1065.153	9480
1067.489	9429
1069.822	9473
1072.156	9457
1074.488	9561
1076.82	9463
1079.15	9423
1081.48	9563
1083.814	9537
1086.143	9574
1088.471	9386
1090.799	9333
1093.126	9257
1095.452	9493
1097.78	9394
1100.105	9396
1102.43	9453
1104.754	9402
1107.077	9416
1109.4	9557
1111.722	9452
1114.044	9559
1116.365	9518
1118.685	9473
1121.005	9575
1123.324	9553
1125.643	9312
1127.961	9508
1130.278	9450
1132.595	9448
1134.911	9498
1137.226	9357
1139.541	9428
1141.854	9508
1144.167	9323
1146.482	9563
1148.793	9599
1151.105	9456
1153.414	9486
1155.725	9415
1158.033	9430
1160.344	9467
1162.651	9669
1164.959	9528
1167.265	9537
1169.572	9633
1171.878	9440
1174.184	9404
1176.488	9408
1178.79	9532
1181.094	9606
1183.396	9701
1185.699	9507
1188.001	9527
1190.301	9529
1192.6	9591
1194.9	9406
1197.2	9462
1199.497	9456
1201.794	9541
1204.09	9476
1206.387	9607
1208.684	9330
1210.978	9602
1213.272	9491
1215.565	9576
1217.858	9623
1220.15	9688
1222.443	9577
1224.734	9613
1227.024	9655
1229.313	9671
1231.602	9659
1233.892	9594
1236.18	9799
1238.467	9835
1240.754	9926
1243.04	10023
1245.325	9852
1247.612	9783
1249.896	9820
1252.178	9927
1254.461	9911
1256.743	9939
1259.027	9759
1261.308	9655
1263.587	9779
1265.867	9844
1268.146	9896
1270.425	9854
1272.703	9732
1274.981	9845
1277.256	9871
1279.532	9901
1281.808	9821
1284.083	9810
1286.358	9697
1288.63	9687
1290.904	9606
1293.175	9676
1295.449	9705
1297.719	9862
1299.99	9663
1302.259	9616
1304.529	9828
1306.798	9687
1309.065	9838
1311.333	9667
1313.599	9705
1315.866	9882
1318.131	9714
1320.396	9632
1322.66	9670
1324.925	9750
1327.187	9703
1329.448	9624
1331.711	9865
1333.974	9934
1336.234	9710
1338.493	9881
1340.752	9735
1343.01	9708
1345.269	9813
1347.526	9725
1349.784	9752
1352.04	9905
1354.295	9521
1356.552	9674
1358.806	9611
1361.059	9713
1363.312	9741
1365.564	9790
1367.818	9796
1370.069	9755
1372.318	9841
1374.568	9825
1376.817	9807
1379.066	9717
1381.316	9787
1383.564	9751
1385.809	9799
1388.056	9818
1390.301	9895
1392.549	9944
1394.793	10123
1397.036	9999
1399.279	10122
1401.522	10074
1403.763	10146
1406.007	10070
1408.248	9989
1410.487	10041
1412.727	10096
1414.965	10221
1417.205	10085
1419.442	10102
1421.68	10118
1423.915	10066
1426.152	10141
1428.388	10169
1430.623	9997
1432.857	10057
1435.091	10021
1437.323	10131
1439.556	10261
1441.789	10207
1444.019	10353
1446.25	10171
1448.48	10174
1450.708	10179
1452.938	10204
1455.167	10207
1457.394	10219
1459.62	10309
1461.846	10368
1464.073	10082
1466.299	10228
1468.523	10207
1470.746	10047
1472.969	10004
1475.191	10029
1477.415	9967
1479.636	9935
1481.858	9819
1484.078	9727
1486.298	9800
1488.518	9872
1490.736	9936
1492.954	9670
1495.169	9866
1497.386	9773
1499.602	9796
1501.819	9744
1504.034	9847
1506.248	9713
1508.462	9713
1510.675	9761
1512.888	9828
1515.1	9736
1517.311	9635
1519.522	9818
1521.732	9758
1523.942	9691
1526.151	9755
1528.36	9676
1530.566	9758
1532.773	9703
1534.98	9924
1537.187	9765
1539.392	9836
1541.596	9861
1543.801	9824
1546.005	9694
1548.208	9728
1550.411	9923
1552.612	9892
1554.814	9918
1557.013	9871
1559.212	9967
1561.414	10029
1563.612	10067
1565.811	9965
1568.007	10019
1570.203	9924
1572.403	9856
1574.598	10015
1576.792	10093
1578.988	10020
1581.181	9962
1583.376	9990
1585.568	10146
1587.761	10022
1589.952	10048
1592.143	9978
1594.333	10111
1596.524	10195
1598.715	10078
1600.903	10082
1603.091	9915
1605.278	10206
1607.466	10185
1609.652	10051
1611.838	10066
1614.023	10257
1616.207	10240
1618.391	10077
1620.576	10091
1622.759	10005
1624.941	10284
1627.123	10151
1629.304	10010
1631.484	10169
1633.664	10095
1635.844	10150
1638.022	10112
1640.201	10106
1642.38	10247
1644.556	10270
1646.732	10102
1648.908	10204
1651.084	10404
1653.257	10245
1655.433	10251
1657.607	10232
1659.779	10344
1661.951	10238
1664.122	10327
1666.295	10335
1668.467	10234
1670.635	10338
1672.805	10180
1674.973	10190
1677.142	10242
1679.31	10168
1681.478	10171
1683.644	10256
1685.81	10391
1687.975	10159
1690.142	10236
1692.305	10054
1694.468	10202
1696.632	10162
1698.794	10279
1700.957	10037
1703.119	10185
1705.279	10149
1707.439	10068
1709.598	10014
1711.758	10023
1713.917	10088
1716.075	9968
1718.231	10029
1720.388	10029
1722.543	10134
1724.702	10047
1726.856	10065
1729.01	10037
1731.164	10149
1733.317	9968
1735.471	10131
1737.623	9948
1739.774	10007
1741.925	9877
1744.075	10112
1746.225	10121
1748.376	10046
1750.524	10208
1752.672	10037
1754.82	10103
1756.965	10185
1759.113	10090
1761.259	10218
1763.405	10173
1765.549	10159
1767.694	10077
1769.836	10022
1771.981	10092
1774.123	10141
1776.264	9968
1778.405	10239
1780.546	10215
1782.687	10266
1784.827	10075
1786.966	10128
1789.103	10292
1791.242	10116
1793.381	10092
1795.517	10132
1797.653	10176
1799.788	10102
1801.923	10220
1804.057	10187
1806.193	10069
1808.326	10191
1810.457	9973
1812.59	10070
1814.721	10187
1816.855	10047
1818.984	10020
1821.113	10229
1823.244	10055
1825.372	10126
1827.499	10150
1829.63	10040
1831.756	10047
1833.882	10223
1836.007	10091
1838.132	9913
1840.26	9969
1842.384	10135
1844.507	10123
1846.63	10080
1848.752	9896
1850.875	9937
1852.996	10024
1855.118	9951
1857.238	9985
1859.358	10003
1861.477	9988
1863.597	10106
1865.715	10084
1867.832	10006
1869.948	10037
1872.064	9984
1874.181	9914
1876.297	9996
1878.411	9934
1880.526	9955
1882.639	9959
1884.752	10031
1886.865	10149
1888.977	10002
1891.089	10038
1893.2	9945
1895.308	9908
1897.42	10048
1899.53	10042
1901.639	10271
1903.745	9940
1905.853	10121
1907.962	10117
1910.067	9980
1912.174	10046
1914.278	10184
1916.383	10149
1918.486	10041
1920.592	10134
1922.694	10109
1924.797	10136
1926.898	10126
1929	10103
1931.102	10248
1933.203	10064
1935.301	10199
1937.401	10092
1939.499	10269
1941.598	10125
1943.697	10319
1945.793	10160
1947.888	10324
1949.985	10181
1952.08	10141
1954.176	10147
1956.269	10199
1958.364	10028
1960.457	10233
1962.549	10314
1964.642	10022
1966.733	10009
1968.823	10089
1970.913	10097
1973.005	10006
1975.093	10010
1977.184	10145
1979.271	10100
1981.359	10050
1983.446	9982
1985.532	10029
1987.619	9959
1989.705	10061
1991.789	10049
1993.874	10184
1995.956	10055
1998.041	9926
2000.123	10052
2002.206	10021
2004.287	10052
2006.368	10003
2008.449	10047
2010.529	9985
2012.609	9954
2014.688	10022
2016.766	10050
2018.843	9960
2020.922	10005
2022.999	9934
2025.074	9975
2027.15	9913
2029.225	9946
2031.299	10094
2033.375	10080
2035.447	10058
2037.52	10105
2039.592	9976
2041.664	10054
2043.736	10031
2045.807	10105
2047.876	9851
2049.947	10046
2052.015	9836
2054.086	10068
2056.153	9942
2058.221	10071
2060.288	9928
2062.353	10096
2064.42	10187
2066.486	10037
2068.55	10082
2070.614	9994
2072.678	10164
2074.741	10037
2076.805	9999
2078.866	9979
2080.929	10022
2082.99	10029
2085.049	9954
2087.109	9856
2089.17	10133
2091.228	9996
2093.286	10037
2095.344	9954
2097.4	10090
2099.46	9936
2101.516	10114
2103.572	9999
2105.626	9910
2107.679	10096
2109.735	9994
2111.788	10020
2113.841	10004
2115.894	10020
2117.945	9992
2119.997	10050
2122.049	10048
2124.1	10103
2126.148	9878
2128.197	9912
2130.246	10091
2132.296	9957
2134.342	9983
2136.39	9959
2138.437	9824
2140.483	9921
2142.527	9937
2144.574	9775
2146.619	9818
2148.661	9900
2150.705	9931
2152.747	9865
2154.792	9892
2156.832	9974
2158.874	9815
2160.915	9793
2162.954	9971
2164.995	9897
2167.034	9888
2169.072	9977
2171.111	9885
2173.148	9756
2175.186	9819
2177.223	9964
2179.258	9659
2181.294	9849
2183.328	9753
2185.362	9849
2187.398	9657
2189.431	9926
2191.463	9720
2193.495	9841
2195.528	9788
2197.56	9667
2199.59	9625
2201.62	9582
2203.649	9585
2205.678	9838
2207.708	9618
2209.737	9578
2211.764	9744
2213.791	9602
2215.817	9817
2217.843	9739
2219.87	9567
2221.895	9831
2223.919	9663
2225.942	9659
2227.966	9611
2229.988	9567
2232.012	9713
2234.032	9724
2236.054	9716
2238.074	9651
2240.095	9653
2242.116	9586
2244.135	9664
2246.153	9529
2248.171	9582
2250.188	9600
2252.208	9596
2254.223	9503
2256.239	9606
2258.255	9657
2260.269	9610
2262.283	9543
2264.3	9684
2266.312	9654
2268.325	9682
2270.336	9744
2272.349	9565
2274.362	9733
2276.372	9486
2278.383	9593
2280.392	9566
2282.402	9765
2284.409	9524
2286.418	9508
2288.427	9584
2290.433	9551
2292.441	9528
2294.446	9501
2296.453	9460
2298.459	9493
2300.463	9507
2302.466	9590
2304.471	9482
2306.475	9583
2308.477	9568
2310.478	9504
2312.481	9555
2314.481	9566
2316.481	9387
2318.482	9632
2320.482	9640
2322.48	9594
2324.48	9558
2326.478	9516
2328.476	9539
2330.473	9453
2332.469	9460
2334.465	9467
2336.46	9472
2338.454	9500
2340.45	9441
2342.444	9379
2344.437	9469
2346.43	9331
2348.421	9191
2350.414	9480
2352.405	9295
2354.396	9319
2356.386	9254
2358.376	9328
2360.366	9479
2362.355	9392
2364.343	9230
2366.331	9396
2368.317	9347
2370.304	9269
2372.292	9310
2374.278	9124
2376.262	9459
2378.247	9218
2380.23	9253
2382.216	9402
2384.199	9349
2386.181	9130
2388.163	9265
2390.144	9178
2392.127	9398
2394.107	9253
2396.087	9298
2398.066	9214
2400.046	9184
2402.023	9092
2404.004	9337
2405.981	9335
2407.957	9230
2409.934	9193
2411.91	9216
2413.886	9233
2415.862	9227
2417.836	9202
2419.809	9246
2421.784	9132
2423.756	9163
2425.73	9102
2427.701	9137
2429.672	9311
2431.644	9239
2433.615	9065
2435.586	9154
2437.555	9245
2439.523	9301
2441.491	9078
2443.459	9256
2445.428	9263
2447.395	9289
2449.361	9099
2451.327	9230
2453.292	9072
2455.257	9172
2457.223	9231
2459.187	9134
2461.15	9198
2463.113	9186
2465.076	9179
2467.039	9139
2468.999	9105
2470.96	8932
2472.921	9081
2474.881	9001
2476.841	9021
2478.8	9061
2480.759	8994
2482.717	9059
2484.675	9055
2486.63	8939
2488.589	9044
2490.545	9071
2492.5	9103
2494.455	9020
2496.408	9027
2498.364	8957
2500.318	9048
2502.27	8900
2504.223	8995
2506.174	9074
2508.126	9063
2510.078	8898
2512.03	8978
2513.979	9100
2515.927	9099
2517.877	9048
2519.826	8934
2521.775	9000
2523.722	8913
2525.668	8993
2527.616	8916
2529.561	8923
2531.508	9034
2533.452	8873
2535.398	8871
2537.342	9008
2539.284	8809
2541.229	8920
2543.173	8849
2545.114	8969
2547.055	8971
2548.996	8955
2550.938	8958
2552.878	8929
2554.817	8876
2556.756	8963
2558.695	8865
2560.633	8910
2562.572	8728
2564.509	8972
2566.445	8943
2568.382	8898
2570.317	8739
2572.254	8808
2574.189	8805
2576.123	8816
2578.057	8889
2579.99	8724
2581.923	8881
2583.855	8796
2585.788	9014
2587.719	8935
2589.65	8920
2591.579	8992
2593.511	8908
2595.44	8938
2597.37	8909
2599.297	8939
2601.225	8951
2603.153	8899
2605.08	8817
2607.007	8863
2608.932	8766
2610.858	9068
2612.782	8800
2614.709	8856
2616.632	8819
2618.556	8907
2620.478	8864
2622.401	8775
2624.324	8894
2626.247	8837
2628.167	8866
2630.088	8964
2632.008	8877
2633.928	8946
2635.848	8869
2637.766	8898
2639.684	8890
2641.603	8731
2643.519	8818
2645.437	8817
2647.353	8880
2649.27	8816
2651.184	8984
2653.099	8929
2655.014	8912
2656.928	8819
2658.842	8912
2660.755	8915
2662.667	8850
2664.579	8657
2666.491	8768
2668.402	8843
2670.312	8852
2672.222	8840
2674.132	8842
2676.042	8811
2677.951	8731
2679.859	8745
2681.766	8776
2683.674	8785
2685.582	8759
2687.488	8733
2689.392	8645
2691.298	8755
2693.202	8733
2695.107	8677
2697.012	8666
2698.914	8686
2700.817	8704
2702.72	8589
2704.622	8614
2706.524	8667
2708.425	8593
2710.326	8827
2712.225	8764
2714.125	8765
2716.024	8588
2717.923	8552
2719.822	8638
2721.719	8732
2723.616	8614
2725.512	8551
2727.41	8549
2729.305	8684
2731.201	8631
2733.095	8613
2734.99	8822
2736.884	8668
2738.778	8601
2740.67	8601
2742.562	8605
2744.455	8597
2746.346	8510
2748.238	8574
2750.129	8609
2752.018	8614
2753.907	8577
2755.797	8551
2757.687	8540
2759.575	8377
2761.462	8673
2763.349	8545
2765.237	8570
2767.124	8528
2769.009	8442
2770.894	8597
2772.779	8542
2774.663	8600
2776.547	8568
2778.431	8451
2780.314	8515
2782.197	8432
2784.078	8493
2785.96	8484
2787.842	8468
2789.723	8419
2791.603	8407
2793.483	8479
2795.362	8504
2797.241	8513
2799.121	8390
2800.997	8458
2802.874	8428
2804.751	8337
2806.628	8583
2808.506	8453
2810.38	8305
2812.255	8390
2814.13	8377
2816.003	8487
2817.878	8498
2819.752	8430
2821.623	8483
2823.496	8471
2825.368	8431
2827.238	8288
2829.111	8409
2830.98	8481
2832.851	8224
2834.719	8294
2836.589	8535
2838.458	8539
2840.327	8538
2842.193	8622
2844.061	8492
2845.927	8451
2847.794	8393
2849.66	8390
2851.525	8581
2853.39	8501
2855.254	8523
2857.117	8431
2858.983	8509
2860.845	8595
2862.707	8548
2864.569	8613
2866.431	8674
2868.293	8603
2870.154	8732
2872.013	8668
2873.873	8742
2875.733	8736
2877.592	8919
2879.451	8801
2881.309	8849
2883.166	8906
2885.022	9151
2886.879	9164
2888.736	9122
2890.591	8961
2892.446	8945
2894.301	8994
2896.155	9006
2898.009	9067
2899.863	9075
2901.716	8931
2903.568	8955
2905.419	8933
2907.27	9017
2909.123	9102
2910.973	8955
2912.824	8972
2914.673	9088
2916.521	9177
2918.372	9248
2920.22	9378
2922.067	9436
2923.914	9291
2925.761	9397
2927.607	9459
2929.455	9517
2931.301	9500
2933.144	9462
2934.99	9623
2936.833	9688
2938.678	9716
2940.522	9642
2942.364	9834
2944.207	10047
2946.048	9862
2947.891	10038
2949.731	10191
2951.571	10040
2953.412	10116
2955.25	9905
2957.09	9788
2958.93	9735
2960.767	9728
2962.606	9653
2964.443	9644
2966.279	9406
2968.116	9406
2969.953	9247
2971.788	9112
2973.623	9074
2975.457	9086
2977.292	9180
2979.127	8898
2980.959	9040
2982.792	8845
2984.624	8889
2986.455	8764
2988.288	9005
2990.119	8751
2991.949	8783
2993.779	8721
2995.608	8706
2997.439	8547
2999.268	8652
3001.096	8584
3002.923	8437
3004.751	8500
3006.578	8365
3008.406	8222
3010.232	8172
3012.057	8336
3013.883	8163
3015.706	8173
3017.532	8109
3019.356	8135
3021.179	8093
3023.002	8136
3024.823	8041
3026.646	8120
3028.469	8005
3030.289	8078
3032.11	7857
3033.93	7928
3035.749	7923
3037.57	7928
3039.39	8020
3041.207	7919
3043.026	7953
3044.842	7902
3046.661	7885
3048.477	7844
3050.294	7963
3052.109	7867
3053.925	7867
3055.739	8081
3057.555	7858
3059.368	7937
3061.181	7795
3062.995	7929
3064.807	7822
3066.62	7649
3068.433	7781
3070.243	7867
3072.054	7824
3073.865	7704
3075.675	7833
3077.485	7809
3079.293	7769
3081.102	7804
3082.911	7832
3084.719	7709
3086.527	7675
3088.333	7660
3090.139	7708
3091.945	7458
3093.75	7717
3095.557	7551
3097.361	7745
3099.165	7619
3100.969	7519
3102.772	7617
3104.575	7667
3106.379	7566
3108.181	7553
3109.982	7594
3111.783	7570
3113.584	7620
3115.386	7555
3117.186	7490
3118.985	7435
3120.783	7432
3122.582	7618
3124.381	7451
3126.179	7438
3127.975	7613
3129.772	7290
3131.569	7454
3133.365	7403
3135.161	7409
3136.956	7379
3138.751	7409
3140.544	7328
3142.338	7517
3144.132	7446
3145.925	7385
3147.717	7424
3149.509	7310
3151.301	7475
3153.091	7481
3154.884	7354
3156.673	7226
3158.462	7337
3160.252	7424
3162.041	7413
3163.831	7368
3165.618	7205
3167.405	7344
3169.193	7348
3170.979	7314
3172.767	7313
3174.553	7286
3176.338	7280
3178.123	7307
3179.907	7177
3181.692	7245
3183.477	7269
3185.259	7243
3187.042	7195
3188.824	7225
3190.607	7321
3192.389	7265
3194.17	7353
3195.951	7255
3197.73	7170
3199.51	7279
3201.289	7070
3203.07	7279
3204.848	7300
3206.626	7160
3208.403	7172
3210.18	7196
3211.959	7246
3213.735	7246
3215.511	7159
3217.285	7132
3219.06	7110
3220.836	7182
3222.611	7193
3224.384	7064
3226.158	7038
3227.929	7150
3229.702	7126
3231.476	7118
3233.248	7053
3235.018	7141
3236.789	7151
3238.56	7202
3240.33	7028
3242.1	7212
3243.869	7097
3245.637	7201
3247.405	7025
3249.172	7120
3250.941	7159
3252.707	6965
3254.474	7170
3256.24	7132
3258.006	7066
3259.772	7170
3261.537	7035
3263.301	7174
3265.065	7144
3266.828	7061
3268.592	7103
3270.355	7102
3272.117	7032
3273.878	7112
3275.64	6999
3277.401	7099
3279.162	7113
3280.922	7116
3282.682	7107
3284.441	7125
3286.199	7036
3287.959	7063
3289.716	7028
3291.475	7072
3293.232	7114
3294.988	7033
3296.744	7092
3298.501	6957
3300.256	6988
3302.011	7100
3303.766	6950
3305.52	7055
3307.275	6986
3309.028	7030
3310.781	7096
3312.533	6995
3314.285	7086
3316.038	7045
3317.789	7076
3319.54	6854
3321.289	7040
3323.039	6991
3324.789	7015
3326.539	6996
3328.288	6987
3330.035	7107
3331.783	6879
3333.531	7071
3335.28	6907
3337.025	6892
3338.771	7052
3340.518	6972
3342.262	6844
3344.009	6994
3345.753	6912
3347.497	6896
3349.24	6885
3350.983	6860
3352.726	6925
3354.469	6876
3356.212	6959
3357.952	6781
3359.694	6834
3361.434	6906
3363.176	6778
3364.916	6856
3366.654	6863
3368.394	6791
3370.132	6902
3371.871	6784
3373.61	6880
3375.346	6814
3377.083	6799
3378.82	6834
3380.556	6821
3382.292	6752
3384.027	6751
3385.763	6700
3387.497	6891
3389.231	6786
3390.965	6703
3392.698	6833
3394.431	6597
3396.164	6785
3397.896	6764
3399.627	6711
3401.36	6562
3403.09	6698
3404.82	6703
3406.55	6681
3408.279	6588
3410.01	6781
3411.738	6704
3413.467	6691
3415.194	6687
3416.92	6664
3418.647	6672
3420.375	6593
3422.102	6760
3423.827	6699
3425.553	6583
3427.277	6585
3429.003	6601
3430.727	6506
3432.451	6639
3434.173	6643
3435.896	6553
3437.62	6679
3439.343	6607
3441.063	6488
3442.785	6590
3444.505	6548
3446.226	6541
3447.948	6425
3449.666	6382
3451.386	6504
3453.104	6556
3454.823	6573
3456.541	6520
3458.259	6611
3459.976	6386
3461.693	6516
3463.408	6402
3465.125	6448
3466.841	6356
3468.556	6350
3470.271	6522
3471.985	6344
3473.698	6377
3475.414	6550
3477.126	6386
3478.838	6338
3480.55	6353
3482.263	6387
3483.975	6322
3485.686	6254
3487.396	6323
3489.106	6314
3490.817	6189
3492.526	6286
3494.236	6249
3495.944	6177
3497.652	6130
3499.359	6222
3501.066	6263
3502.775	6203
3504.481	6205
3506.187	6346
3507.893	6210
3509.598	6221
3511.304	6178
3513.009	6119
3514.713	6040
3516.417	6153
3518.12	6075
3519.821	6080
3521.525	6096
3523.228	6158
3524.929	6185
3526.631	6150
3528.33	6085
3530.032	6136
3531.733	6099
3533.433	5966
3535.131	6027
3536.83	6019
3538.529	6064
3540.227	6163
3541.925	6128
3543.623	6104
3545.319	6142
3547.016	6018
3548.712	5881
3550.408	5926
3552.103	6095
3553.798	5938
3555.491	6100
3557.188	6013
3558.88	5995
3560.574	5968
3562.266	5994
3563.959	5912
3565.651	6013
3567.343	6007
3569.035	5993
3570.725	5936
3572.415	5877
3574.106	5958
3575.797	5938
3577.485	5894
3579.174	5878
3580.863	5880
3582.551	5938
3584.238	5881
3585.926	5953
3587.613	5862
3589.3	5782
3590.986	5885
3592.671	5890
3594.357	5846
3596.042	5778
3597.726	5734
3599.41	5808
3601.094	5786
3602.778	5704
3604.461	5826
3606.143	5813
3607.825	5829
3609.507	5684
3611.188	5850
3612.87	5691
3614.551	5577
3616.229	5723
3617.909	5747
3619.589	5692
3621.269	5710
3622.948	5712
3624.625	5647
3626.302	5776
3627.98	5682
3629.657	5565
3631.334	5617
3633.01	5603
3634.686	5558
3636.361	5624
3638.036	5597
3639.712	5528
3641.385	5574
3643.06	5564
3644.732	5646
3646.405	5586
3648.08	5495
3649.751	5586
3651.424	5403
3653.094	5481
3654.766	5500
3656.436	5533
3658.106	5456
3659.777	5487
3661.446	5501
3663.115	5472
3664.783	5393
3666.452	5503
3668.121	5593
3669.788	5451
3671.454	5512
3673.121	5421
3674.789	5368
3676.455	5482
3678.12	5460
3679.784	5380
3681.45	5356
3683.114	5422
3684.779	5376
3686.442	5423
3688.105	5499
3689.768	5514
3691.43	5534
3693.093	5371
3694.754	5369
3696.415	5431
3698.076	5402
3699.736	5400
3701.396	5335
3703.057	5399
3704.716	5361
3706.375	5236
3708.034	5403
3709.692	5268
3711.351	5205
3713.008	5414
3714.665	5424
3716.321	5321
3717.977	5307
3719.634	5323
3721.29	5263
3722.945	5194
3724.598	5265
3726.253	5333
3727.907	5304
3729.561	5372
3731.214	5261
3732.867	5275
3734.518	5320
3736.171	5265
3737.824	5193
3739.474	5253
3741.125	5209
3742.775	5171
3744.425	5261
3746.074	5074
3747.725	5239
3749.373	5115
3751.022	5130
3752.669	5147
3754.318	5204
3755.966	5291
3757.612	5162
3759.259	5230
3760.905	5165
3762.55	5165
3764.197	5223
3765.842	5158
3767.486	5161
3769.131	5148
3770.774	5024
3772.417	5217
3774.061	5109
3775.705	5055
3777.347	5103
3778.988	5058
3780.629	5129
3782.271	5047
3783.912	5078
3785.552	5140
3787.192	5217
3788.831	5052
3790.472	5093
3792.112	5074
3793.75	5041
3795.388	5000
3797.024	5199
3798.661	5085
3800.3	5061
3801.936	5057
3803.572	5050
3805.208	5167
3806.844	5082
3808.48	4905
3810.115	4950
3811.748	5028
3813.382	4963
3815.016	4938
3816.649	4978
3818.283	4966
3819.914	5053
3821.547	4925
3823.178	4910
3824.809	5040
3826.441	4956
3828.072	4997
3829.701	4923
3831.331	4877
3832.96	4914
3834.591	4916
3836.219	4997
3837.847	4900
3839.475	4838
3841.102	4845
3842.729	4948
3844.357	4858
3845.984	4867
3847.609	4967
3849.234	4891
3850.86	4910
3852.485	4891
3854.11	4809
3855.734	4888
3857.357	4783
3858.981	4821
3860.603	4861
3862.227	4817
3863.848	4914
3865.471	4823
3867.092	4761
3868.713	4800
3870.334	4887
3871.954	4772
3873.575	4807
3875.194	4723
3876.813	4881
3878.433	4741
3880.051	4771
3881.669	4721
3883.286	4825
3884.904	4761
3886.52	4851
3888.138	4870
3889.754	4820
3891.37	4729
3892.985	4888
3894.6	4779
3896.216	4684
3897.831	4655
3899.444	4792
3901.058	4778
3902.67	4775
3904.283	4733
3905.897	4713
3907.509	4788
3909.121	4668
3910.731	4691
3912.342	4712
3913.954	4750
3915.563	4694
3917.174	4708
3918.783	4675
3920.391	4804
3922.002	4774
3923.611	4737
3925.218	4683
3926.826	4689
3928.432	4628
3930.039	4658
3931.647	4660
3933.253	4676
3934.859	4676
3936.464	4656
3938.068	4595
3939.675	4614
3941.278	4692
3942.883	4627
3944.486	4634
3946.089	4670
3947.692	4635
3949.295	4614
3950.898	4580
3952.499	4523
3954.1	4712
3955.7	4500
3957.303	4625
3958.903	4591
3960.502	4565
3962.101	4501
3963.7	4497
3965.301	4561
3966.899	4593
3968.497	4596
3970.094	4580
3971.691	4615
3973.288	4486
3974.885	4490
3976.481	4615
3978.077	4406
3979.672	4505
3981.267	4448
3982.863	4551
3984.457	4463
3986.051	4502
3987.645	4485
3989.238	4498
3990.831	4507
3992.425	4477
3994.017	4454
3995.607	4452
3997.199	4476
3998.79	4452
4000.382	4333
4001.973	4410
4003.561	4451
4005.151	4415
4006.741	4426
4008.331	4382
4009.918	4381
4011.507	4447
4013.095	4295
4014.681	4359
4016.269	4337
4017.856	4469
4019.443	4438
4021.028	4327
4022.614	4317
4024.199	4352
4025.785	4299
4027.37	4231
4028.953	4337
4030.536	4336
4032.12	4388
4033.704	4247
4035.287	4203
4036.869	4314
4038.45	4268
4040.032	4346
4041.613	4292
4043.195	4286
4044.776	4305
4046.356	4296
4047.935	4213
4049.515	4231
4051.095	4243
4052.674	4268
4054.251	4219
4055.829	4190
4057.406	4206
4058.985	4315
4060.562	4240
4062.139	4193
4063.715	4304
4065.29	4267
4066.865	4151
4068.442	4211
4070.016	4238
4071.59	4118
4073.164	4158
4074.738	4244
4076.312	4122
4077.885	4177
4079.458	4207
4081.03	4210
4082.602	4147
4084.173	4163
4085.745	4184
4087.315	4158
4088.886	4073
4090.456	4139
4092.026	4199
4093.596	4128
4095.165	4240
4096.734	4088
4098.301	4066
4099.869	4155
4101.437	4129
4103.006	4156
4104.572	4109
4106.139	4095
4107.704	4045
4109.27	4099
4110.837	4094
4112.401	4085
4113.966	4015
4115.53	4076
4117.094	3982
4118.659	4034
4120.223	4014
4121.785	3973
4123.347	4016
4124.909	3997
4126.471	4113
4128.034	4032
4129.595	3979
4131.155	4005
4132.716	4108
4134.275	3870
4135.836	4083
4137.395	3991
4138.955	4027
4140.513	4014
4142.071	4023
4143.628	3966
4145.188	3978
4146.745	3939
4148.302	4000
4149.858	3929
4151.414	3947
4152.971	3950
4154.526	3851
4156.081	3933
4157.635	3956
4159.189	3955
4160.745	3990
4162.298	3960
4163.852	3881
4165.405	3831
4166.957	3881
4168.51	3909
4170.063	3870
4171.614	3902
4173.166	3891
4174.717	3865
4176.267	3853
4177.817	3885
4179.368	3854
4180.917	3754
4182.466	3916
4184.016	3812
4185.564	3874
4187.112	3754
4188.66	3793
4190.207	3850
4191.754	3795
4193.301	3789
4194.848	3813
4196.394	3752
4197.94	3828
4199.484	3795
4201.03	3839
4202.575	3782
4204.12	3796
4205.663	3764
4207.207	3764
4208.75	3793
4210.292	3692
4211.836	3781
4213.378	3710
4214.92	3890
4216.46	3689
4218.002	3821
4219.544	3636
4221.083	3727
4222.625	3675
4224.164	3693
4225.703	3674
4227.244	3798
4228.782	3706
4230.32	3623
4231.857	3703
4233.395	3758
4234.933	3633
4236.471	3683
4238.007	3700
4239.542	3681
4241.078	3718
4242.614	3693
4244.15	3683
4245.685	3627
4247.219	3708
4248.753	3710
4250.287	3671
4251.82	3671
4253.354	3671
4254.887	3608
4256.419	3605
4257.951	3594
4259.483	3630
4261.016	3660
4262.547	3669
4264.078	3574
4265.608	3510
4267.137	3614
4268.668	3602
4270.197	3571
4271.727	3612
4273.254	3616
4274.783	3579
4276.311	3606
4277.84	3639
4279.366	3564
4280.894	3587
4282.42	3647
4283.946	3598
4285.473	3568
4286.998	3581
4288.523	3515
4290.047	3656
4291.572	3562
4293.096	3453
4294.622	3468
4296.144	3655
4297.668	3485
4299.19	3511
4300.713	3587
4302.236	3505
4303.758	3527
4305.279	3472
4306.799	3559
4308.321	3527
4309.842	3518
4311.361	3512
4312.882	3423
4314.401	3443
