400.0961	3739
402.6185	3781
405.1424	3782
407.6635	3820
410.1838	3816
412.7035	3898
415.2225	3924
417.7388	3935
420.2585	4015
422.7754	3983
425.2917	4022
427.8072	4113
430.3221	4044
432.8363	4126
435.3498	4143
437.8626	4151
440.3727	4145
442.8841	4119
445.3969	4089
447.907	4136
450.4142	4156
452.9229	4046
455.4289	4102
457.9362	4095
460.4449	4103
462.9488	4130
465.454	4104
467.9566	4097
470.4604	4195
472.9637	4104
475.4662	4127
477.966	4151
480.4671	4094
482.9656	4161
485.4633	4172
487.9645	4181
490.4608	4206
492.9566	4243
495.4536	4278
497.948	4260
500.4437	4234
502.9387	4239
505.431	4315
507.9226	4263
510.4136	4225
512.9079	4258
515.3975	4208
517.8864	4310
520.3746	4238
522.8622	4308
525.3491	4234
527.8394	4225
530.3249	4239
532.8098	4283
535.2939	4216
537.7774	4260
540.2623	4261
542.7444	4303
545.2259	4318
547.7067	4160
550.1868	4385
552.6683	4383
555.147	4286
557.6231	4325
560.1005	4286
562.5773	4298
565.0534	4405
567.5308	4419
570.0056	4319
572.4776	4409
574.951	4440
577.4237	4470
579.8978	4519
582.3671	4366
584.8378	4568
587.3079	4517
589.7773	4509
592.244	4548
594.714	4540
597.1793	4376
599.6461	4405
602.1121	4495
604.5754	4452
607.0421	4429
609.5042	4450
611.9675	4528
614.4282	4408
616.8902	4464
619.3515	4456
621.8122	4356
624.2702	4315
626.7296	4506
629.1863	4492
631.6423	4400
634.1017	4395
636.5563	4489
639.0104	4310
641.4658	4487
643.9185	4523
646.3725	4479
648.8239	4459
651.2766	4440
653.7266	4440
656.176	4562
658.6247	4603
661.0748	4584
663.5242	4564
665.9709	4480
668.417	4597
670.8624	4554
673.3092	4454
675.7533	4609
678.1968	4516
680.6395	4603
683.0817	4604
685.5251	4641
687.9659	4574
690.4061	4679
692.8456	4630
695.2844	4524
697.7226	4612
700.1621	4664
702.599	4628
705.0332	4739
707.4688	4612
709.9036	4665
712.3399	4651
714.7735	4692
717.2044	4689
719.6367	4663
722.0683	4768
724.4993	4700
726.9296	4696
729.3593	4677
731.7883	4809
734.2147	4796
736.6423	4735
739.0714	4722
741.4958	4814
743.9216	4804
746.3447	4808
748.7691	4834
751.1929	4822
753.616	4852
756.0366	4912
758.4584	5018
760.8776	4959
763.2982	4893
765.718	4937
768.1373	4912
770.5539	4958
772.9698	4922
775.3871	4939
777.8038	4982
780.2178	4930
782.6332	4888
785.0459	4954
787.458	4985
789.8714	4911
792.2842	4899
794.6943	5051
797.1038	4767
799.5127	4942
801.9209	4899
804.3324	4911
806.7393	4909
809.1456	4806
811.5513	4970
813.9562	5055
816.3625	4989
818.7663	5007
821.1693	4929
823.5718	4940
825.9735	5105
828.3746	5030
830.7771	5016
833.177	5029
835.5762	5029
837.9747	5067
840.3727	5016
842.772	4990
845.1666	5137
847.5626	5156
849.958	5128
852.3527	5102
854.7488	5176
857.1403	5091
859.5331	5071
861.9253	5145
864.3168	5169
866.7057	5045
869.098	5006
871.4876	5086
873.8746	5026
876.263	5206
878.6487	5128
881.0378	5106
883.4243	5124
885.8081	5153
888.1933	5162
890.5759	5011
892.9598	5048
895.343	5155
897.7256	5150
900.1057	5027
902.4871	5149
904.8659	5201
907.246	5172
909.6254	5180
912.0023	5156
914.3786	5220
916.7562	5122
919.1331	5227
921.5074	5260
923.8831	5241
926.2562	5340
928.6287	5409
931.0005	5302
933.3757	5279
935.7462	5394
938.1162	5328
940.4855	5408
942.8542	5505
945.2242	5479
947.5916	5593
949.9584	5693
952.3266	5813
954.6921	5905
957.0571	5958
959.4233	6341
961.787	6496
964.15	6371
966.5125	6214
968.8742	6050
971.2354	5872
973.5959	5771
975.9559	5555
978.3151	5387
980.6738	5353
983.0338	5406
985.3912	5334
987.7461	5278
990.1022	5313
992.4578	5392
994.8127	5384
997.1689	5328
999.5207	5316
1001.874	5324
1004.226	5322
1006.576	5309
1008.929	5197
1011.28	5333
1013.628	5355
1015.977	5343
1018.324	5359
1020.674	5373
1023.019	5320
1025.366	5361
1027.713	5374
1030.056	5413
1032.399	5394
1034.746	5294
1037.087	5375
1039.431	5364
1041.771	5335
1044.113	5466
1046.454	5497
1048.793	5459
1051.133	5365
1053.471	5430
1055.807	5417
1058.146	5427
1060.483	5414
1062.818	5543
1065.153	5484
1067.489	5500
1069.822	5558
1072.156	5536
1074.488	5603
1076.82	5499
1079.15	5481
1081.48	5385
1083.814	5463
1086.143	5461
1088.471	5493
1090.799	5517
1093.126	5500
1095.452	5519
1097.78	5450
1100.105	5408
1102.43	5445
1104.754	5418
1107.077	5363
1109.4	5483
1111.722	5468
1114.044	5467
1116.365	5527
1118.685	5436
1121.005	5409
1123.324	5478
1125.643	5467
1127.961	5456
1130.278	5471
1132.595	5492
1134.911	5443
1137.226	5450
1139.541	5472
1141.854	5584
1144.167	5570
1146.482	5352
1148.793	5442
1151.105	5422
1153.414	5411
1155.725	5426
1158.033	5509
1160.344	5525
1162.651	5510
1164.959	5493
1167.265	5440
1169.572	5596
1171.878	5457
1174.184	5512
1176.488	5541
1178.79	5456
1181.094	5572
1183.396	5398
1185.699	5480
1188.001	5473
1190.301	5473
1192.6	5493
1194.9	5502
1197.2	5454
1199.497	5515
1201.794	5547
1204.09	5531
1206.387	5533
1208.684	5453
1210.978	5444
1213.272	5441
1215.565	5424
1217.858	5553
1220.15	5602
1222.443	5542
1224.734	5589
1227.024	5581
1229.313	5688
1231.602	5630
1233.892	5580
1236.18	5621
1238.467	5691
1240.754	5647
1243.04	5674
1245.325	5625
1247.612	5618
1249.896	5667
1252.178	5724
1254.461	5667
1256.743	5721
1259.027	5699
1261.308	5589
1263.587	5545
1265.867	5619
1268.146	5745
1270.425	5645
1272.703	5642
1274.981	5619
1277.256	5637
1279.532	5617
1281.808	5717
1284.083	5683
1286.358	5532
1288.63	5677
1290.904	5535
1293.175	5702
1295.449	5637
1297.719	5646
1299.99	5555
1302.259	5597
1304.529	5627
1306.798	5696
1309.065	5690
1311.333	5612
1313.599	5597
1315.866	5605
1318.131	5692
1320.396	5663
1322.66	5652
1324.925	5625
1327.187	5602
1329.448	5634
1331.711	5697
1333.974	5646
1336.234	5666
1338.493	5569
1340.752	5721
1343.01	5592
1345.269	5679
1347.526	5703
1349.784	5702
1352.04	5657
1354.295	5701
1356.552	5638
1358.806	5770
1361.059	5708
1363.312	5618
1365.564	5657
1367.818	5696
1370.069	5661
1372.318	5643
1374.568	5582
1376.817	5773
1379.066	5746
1381.316	5647
1383.564	5634
1385.809	5693
1388.056	5719
1390.301	5694
1392.549	5726
1394.793	5830
1397.036	5834
1399.279	5717
1401.522	5762
1403.763	5802
1406.007	5794
1408.248	5702
1410.487	5752
1412.727	5786
1414.965	5837
1417.205	5812
1419.442	5789
1421.68	5809
1423.915	5732
1426.152	5762
1428.388	5889
1430.623	5774
1432.857	5799
1435.091	5774
1437.323	5844
1439.556	5836
1441.789	5846
1444.019	5877
1446.25	5891
1448.48	5946
1450.708	5882
1452.938	5957
1455.167	5970
1457.394	5866
1459.62	5822
1461.846	5925
1464.073	5955
1466.299	5932
1468.523	5906
1470.746	5854
1472.969	5860
1475.191	5761
1477.415	5858
1479.636	5779
1481.858	5696
1484.078	5774
1486.298	5833
1488.518	5689
1490.736	5682
1492.954	5690
1495.169	5738
1497.386	5660
1499.602	5767
1501.819	5744
1504.034	5734
1506.248	5638
1508.462	5674
1510.675	5622
1512.888	5615
1515.1	5649
1517.311	5658
1519.522	5640
1521.732	5787
1523.942	5669
1526.151	5623
1528.36	5651
1530.566	5780
1532.773	5758
1534.98	5794
1537.187	5668
1539.392	5670
1541.596	5670
1543.801	5690
1546.005	5651
1548.208	5656
1550.411	5808
1552.612	5785
1554.814	5751
1557.013	5690
1559.212	5837
1561.414	5761
1563.612	5794
1565.811	5816
1568.007	5820
1570.203	5809
1572.403	5820
1574.598	5829
1576.792	5893
1578.988	5818
1581.181	5883
1583.376	5768
1585.568	5916
1587.761	5721
1589.952	5876
1592.143	5817
1594.333	5921
1596.524	5808
1598.715	5921
1600.903	5947
1603.091	5823
1605.278	5906
1607.466	5852
1609.652	5962
1611.838	5932
1614.023	5852
1616.207	6019
1618.391	5968
1620.576	5904
1622.759	5875
1624.941	5888
1627.123	6020
1629.304	5937
1631.484	5887
1633.664	5880
1635.844	5949
1638.022	5864
1640.201	5857
1642.38	5949
1644.556	5977
1646.732	6053
1648.908	5947
1651.084	5902
1653.257	5904
1655.433	5931
1657.607	5897
1659.779	6091
1661.951	5971
1664.122	5988
1666.295	6003
1668.467	6001
1670.635	5906
1672.805	5978
1674.973	5971
1677.142	5950
1679.31	6021
1681.478	5907
1683.644	5953
1685.81	5909
1687.975	6059
1690.142	5970
1692.305	5919
1694.468	5949
1696.632	5880
1698.794	6037
1700.957	5882
1703.119	5939
1705.279	5850
1707.439	5932
1709.598	5939
1711.758	5870
1713.917	5878
1716.075	5863
1718.231	5904
1720.388	5853
1722.543	5849
1724.702	5813
1726.856	5842
1729.01	5806
1731.164	5858
1733.317	5816
1735.471	5916
1737.623	5822
1739.774	5835
1741.925	5941
1744.075	5933
1746.225	5861
1748.376	5866
1750.524	5872
1752.672	5946
1754.82	5841
1756.965	5924
1759.113	5958
1761.259	5987
1763.405	5917
1765.549	5964
1767.694	5937
1769.836	5969
1771.981	5965
1774.123	5960
1776.264	5888
1778.405	5927
1780.546	5968
1782.687	5962
1784.827	5952
1786.966	6007
1789.103	5923
1791.242	5932
1793.381	6012
1795.517	6002
1797.653	5937
1799.788	5904
1801.923	6029
1804.057	5920
1806.193	5930
1808.326	5897
1810.457	5905
1812.59	5861
1814.721	5909
1816.855	5941
1818.984	5967
1821.113	5897
1823.244	5919
1825.372	5821
1827.499	5882
1829.63	5960
1831.756	5985
1833.882	5960
1836.007	5961
1838.132	5909
1840.26	5879
1842.384	5974
1844.507	5895
1846.63	5861
1848.752	5967
1850.875	5929
1852.996	5952
1855.118	5955
1857.238	5829
1859.358	5963
1861.477	5937
1863.597	5855
1865.715	5813
1867.832	5886
1869.948	5795
1872.064	5883
1874.181	5892
1876.297	5838
1878.411	6029
1880.526	5738
1882.639	5848
1884.752	5927
1886.865	5894
1888.977	5908
1891.089	5919
1893.2	5939
1895.308	5907
1897.42	5894
1899.53	5918
1901.639	5939
1903.745	5919
1905.853	6094
1907.962	5980
1910.067	5922
1912.174	5979
1914.278	5940
1916.383	6003
1918.486	5965
1920.592	5945
1922.694	5987
1924.797	6022
1926.898	5960
1929	6066
1931.102	5971
1933.203	6065
1935.301	6000
1937.401	6061
1939.499	5996
1941.598	5950
1943.697	6055
1945.793	5969
1947.888	5944
1949.985	5916
1952.08	6018
1954.176	5911
1956.269	5965
1958.364	5934
1960.457	5913
1962.549	5939
1964.642	5908
1966.733	5978
1968.823	5978
1970.913	5966
1973.005	5977
1975.093	5992
1977.184	5942
1979.271	5946
1981.359	5938
1983.446	6021
1985.532	5991
1987.619	5929
1989.705	5982
1991.789	6016
1993.874	5949
1995.956	5969
1998.041	5850
2000.123	5918
2002.206	5923
2004.287	5895
2006.368	5892
2008.449	5903
2010.529	5887
2012.609	5817
2014.688	5952
2016.766	5874
2018.843	5903
2020.922	5982
2022.999	5919
2025.074	5942
2027.15	5900
2029.225	5874
2031.299	5949
2033.375	5907
2035.447	5854
2037.52	5889
2039.592	5821
2041.664	5773
2043.736	6009
2045.807	5887
2047.876	5859
2049.947	5823
2052.015	5959
2054.086	5980
2056.153	5915
2058.221	5946
2060.288	5956
2062.353	5970
2064.42	5949
2066.486	5965
2068.55	5957
2070.614	5979
2072.678	6066
2074.741	5849
2076.805	5927
2078.866	5907
2080.929	6001
2082.99	5844
2085.049	5903
2087.109	5886
2089.17	5906
2091.228	5953
2093.286	5897
2095.344	5980
2097.4	5813
2099.46	6005
2101.516	6007
2103.572	5961
2105.626	5924
2107.679	5844
2109.735	5862
2111.788	5878
2113.841	5881
2115.894	5919
2117.945	5989
2119.997	5865
2122.049	5905
2124.1	5899
2126.148	5966
2128.197	5800
2130.246	5883
2132.296	5934
2134.342	5947
2136.39	5766
2138.437	5870
2140.483	5871
2142.527	5940
2144.574	5866
2146.619	5863
2148.661	5903
2150.705	5862
2152.747	5847
2154.792	5843
2156.832	5831
2158.874	5861
2160.915	5862
2162.954	5816
2164.995	5892
2167.034	5902
2169.072	5816
2171.111	5894
2173.148	5901
2175.186	5834
2177.223	5868
2179.258	5671
2181.294	5896
2183.328	5800
2185.362	5917
2187.398	5743
2189.431	5814
2191.463	5737
2193.495	5869
2195.528	5789
2197.56	5772
2199.59	5774
2201.62	5718
2203.649	5693
2205.678	5937
2207.708	5737
2209.737	5763
2211.764	5778
2213.791	5785
2215.817	5706
2217.843	5738
2219.87	5768
2221.895	5791
2223.919	5737
2225.942	5737
2227.966	5726
2229.988	5765
2232.012	5657
2234.032	5764
2236.054	5682
2238.074	5691
2240.095	5706
2242.116	5738
2244.135	5763
2246.153	5805
2248.171	5763
2250.188	5769
2252.208	5772
2254.223	5777
2256.239	5754
2258.255	5702
2260.269	5731
2262.283	5840
2264.3	5631
2266.312	5740
2268.325	5718
2270.336	5586
2272.349	5751
2274.362	5695
2276.372	5860
2278.383	5671
2280.392	5629
2282.402	5625
2284.409	5818
2286.418	5745
2288.427	5795
2290.433	5747
2292.441	5658
2294.446	5805
2296.453	5663
2298.459	5706
2300.463	5665
2302.466	5705
2304.471	5810
2306.475	5708
2308.477	5730
2310.478	5655
2312.481	5606
2314.481	5711
2316.481	5697
2318.482	5654
2320.482	5767
2322.48	5682
2324.48	5551
2326.478	5705
2328.476	5821
2330.473	5704
2332.469	5652
2334.465	5753
2336.46	5738
2338.454	5759
2340.45	5759
2342.444	5636
2344.437	5598
2346.43	5648
2348.421	5632
2350.414	5594
2352.405	5667
2354.396	5584
2356.386	5661
2358.376	5595
2360.366	5540
2362.355	5609
2364.343	5567
2366.331	5652
2368.317	5537
2370.304	5647
2372.292	5666
2374.278	5618
2376.262	5614
2378.247	5472
2380.23	5573
2382.216	5614
2384.199	5609
2386.181	5572
2388.163	5584
2390.144	5592
2392.127	5554
2394.107	5568
2396.087	5543
2398.066	5607
2400.046	5568
2402.023	5547
2404.004	5435
2405.981	5464
2407.957	5446
2409.934	5465
2411.91	5468
2413.886	5538
2415.862	5522
2417.836	5541
2419.809	5603
2421.784	5499
2423.756	5576
2425.73	5489
2427.701	5661
2429.672	5520
2431.644	5643
2433.615	5445
2435.586	5457
2437.555	5517
2439.523	5467
2441.491	5547
2443.459	5540
2445.428	5529
2447.395	5401
2449.361	5558
2451.327	5564
2453.292	5458
2455.257	5444
2457.223	5421
2459.187	5482
2461.15	5556
2463.113	5455
2465.076	5444
2467.039	5383
2468.999	5447
2470.96	5497
2472.921	5492
2474.881	5463
2476.841	5419
2478.8	5416
2480.759	5419
2482.717	5410
2484.675	5492
2486.63	5340
2488.589	5404
2490.545	5580
2492.5	5511
2494.455	5405
2496.408	5434
2498.364	5523
2500.318	5500
2502.27	5500
2504.223	5402
2506.174	5440
2508.126	5506
2510.078	5290
2512.03	5403
2513.979	5384
2515.927	5427
2517.877	5424
2519.826	5389
2521.775	5464
2523.722	5417
2525.668	5360
2527.616	5395
2529.561	5398
2531.508	5435
2533.452	5444
2535.398	5403
2537.342	5236
2539.284	5434
2541.229	5389
2543.173	5420
2545.114	5442
2547.055	5433
2548.996	5349
2550.938	5326
2552.878	5426
2554.817	5405
2556.756	5478
2558.695	5246
2560.633	5335
2562.572	5390
2564.509	5508
2566.445	5326
2568.382	5355
2570.317	5420
2572.254	5402
2574.189	5371
2576.123	5322
2578.057	5393
2579.99	5341
2581.923	5442
2583.855	5337
2585.788	5374
2587.719	5361
2589.65	5442
2591.579	5347
2593.511	5321
2595.44	5381
2597.37	5391
2599.297	5469
2601.225	5368
2603.153	5432
2605.08	5326
2607.007	5434
2608.932	5296
2610.858	5356
2612.782	5347
2614.709	5358
2616.632	5391
2618.556	5405
2620.478	5417
2622.401	5378
2624.324	5389
2626.247	5373
2628.167	5474
2630.088	5337
2632.008	5288
2633.928	5378
2635.848	5437
2637.766	5406
2639.684	5389
2641.603	5518
2643.519	5321
2645.437	5440
2647.353	5400
2649.27	5308
2651.184	5374
2653.099	5510
2655.014	5287
2656.928	5399
2658.842	5315
2660.755	5307
2662.667	5504
2664.579	5308
2666.491	5385
2668.402	5304
2670.312	5397
2672.222	5306
2674.132	5244
2676.042	5361
2677.951	5336
2679.859	5336
2681.766	5338
2683.674	5299
2685.582	5348
2687.488	5387
2689.392	5277
2691.298	5233
2693.202	5333
2695.107	5307
2697.012	5217
2698.914	5426
2700.817	5301
2702.72	5279
2704.622	5239
2706.524	5282
2708.425	5176
2710.326	5209
2712.225	5292
2714.125	5200
2716.024	5360
2717.923	5296
2719.822	5270
2721.719	5377
2723.616	5340
2725.512	5163
2727.41	5238
2729.305	5176
2731.201	5233
2733.095	5238
2734.99	5290
2736.884	5132
2738.778	5215
2740.67	5282
2742.562	5271
2744.455	5108
2746.346	5219
2748.238	5286
2750.129	5237
2752.018	5270
2753.907	5181
2755.797	5260
2757.687	5149
2759.575	5183
2761.462	5254
2763.349	5249
2765.237	5170
2767.124	5159
2769.009	5178
2770.894	5209
2772.779	5152
2774.663	5172
2776.547	5250
2778.431	5139
2780.314	5192
2782.197	5075
2784.078	5185
2785.96	5171
2787.842	5107
2789.723	5337
2791.603	5270
2793.483	5074
2795.362	5051
2797.241	5126
2799.121	5144
2800.997	5122
2802.874	5127
2804.751	5183
2806.628	5109
2808.506	5156
2810.38	5033
2812.255	5068
2814.13	5203
2816.003	5198
2817.878	5179
2819.752	5110
2821.623	5140
2823.496	4999
2825.368	5101
2827.238	5083
2829.111	5074
2830.98	5056
2832.851	5075
2834.719	5085
2836.589	5160
2838.458	5118
2840.327	5023
2842.193	5191
2844.061	5184
2845.927	5142
2847.794	5125
2849.66	5071
2851.525	5192
2853.39	5136
2855.254	5041
2857.117	5118
2858.983	5163
2860.845	5121
2862.707	5103
2864.569	5120
2866.431	5151
2868.293	5149
2870.154	5137
2872.013	5212
2873.873	5155
2875.733	5283
2877.592	5233
2879.451	5331
2881.309	5328
2883.166	5293
2885.022	5247
2886.879	5402
2888.736	5251
2890.591	5280
2892.446	5302
2894.301	5296
2896.155	5406
2898.009	5351
2899.863	5297
2901.716	5325
2903.568	5366
2905.419	5215
2907.27	5407
2909.123	5420
2910.973	5322
2912.824	5409
2914.673	5352
2916.521	5420
2918.372	5425
2920.22	5419
2922.067	5413
2923.914	5465
2925.761	5572
2927.607	5437
2929.455	5552
2931.301	5597
2933.144	5512
2934.99	5618
2936.833	5633
2938.678	5597
2940.522	5677
2942.364	5717
2944.207	5682
2946.048	5790
2947.891	5732
2949.731	5759
2951.571	5662
2953.412	5722
2955.25	5644
2957.09	5614
2958.93	5634
2960.767	5618
2962.606	5576
2964.443	5608
2966.279	5629
2968.116	5527
2969.953	5549
2971.788	5380
2973.623	5418
2975.457	5345
2977.292	5381
2979.127	5307
2980.959	5357
2982.792	5380
2984.624	5223
2986.455	5345
2988.288	5289
2990.119	5285
2991.949	5297
2993.779	5333
2995.608	5203
2997.439	5223
2999.268	5210
3001.096	5085
3002.923	5098
3004.751	5079
3006.578	5036
3008.406	4988
3010.232	5076
3012.057	4914
3013.883	5009
3015.706	4951
3017.532	4954
3019.356	4975
3021.179	4886
3023.002	4958
3024.823	4821
3026.646	4861
3028.469	4899
3030.289	4806
3032.11	4773
3033.93	4908
3035.749	4846
3037.57	4839
3039.39	4866
3041.207	4845
3043.026	4865
3044.842	4830
3046.661	4785
3048.477	4808
3050.294	4758
3052.109	4876
3053.925	4736
3055.739	4739
3057.555	4860
3059.368	4810
3061.181	4814
3062.995	4828
3064.807	4692
3066.62	4762
3068.433	4758
3070.243	4689
3072.054	4817
3073.865	4805
3075.675	4749
3077.485	4865
3079.293	4793
3081.102	4717
3082.911	4725
3084.719	4685
3086.527	4713
3088.333	4700
3090.139	4717
3091.945	4657
3093.75	4738
3095.557	4771
3097.361	4641
3099.165	4604
3100.969	4550
3102.772	4708
3104.575	4695
3106.379	4671
3108.181	4643
3109.982	4606
3111.783	4664
3113.584	4650
3115.386	4680
3117.186	4568
3118.985	4594
3120.783	4619
3122.582	4527
3124.381	4579
3126.179	4577
3127.975	4603
3129.772	4591
3131.569	4637
3133.365	4502
3135.161	4651
3136.956	4523
3138.751	4634
3140.544	4505
3142.338	4592
3144.132	4652
3145.925	4573
3147.717	4477
3149.509	4586
3151.301	4571
3153.091	4477
3154.884	4515
3156.673	4519
3158.462	4521
3160.252	4516
3162.041	4483
3163.831	4488
3165.618	4513
3167.405	4404
3169.193	4460
3170.979	4465
3172.767	4525
3174.553	4587
3176.338	4420
3178.123	4523
3179.907	4419
3181.692	4447
3183.477	4522
3185.259	4488
3187.042	4436
3188.824	4441
3190.607	4416
3192.389	4476
3194.17	4367
3195.951	4410
3197.73	4469
3199.51	4471
3201.289	4438
3203.07	4455
3204.848	4463
3206.626	4411
3208.403	4488
3210.18	4406
3211.959	4404
3213.735	4416
3215.511	4437
3217.285	4423
3219.06	4378
3220.836	4453
3222.611	4441
3224.384	4487
3226.158	4490
3227.929	4398
3229.702	4411
3231.476	4438
3233.248	4461
3235.018	4385
3236.789	4452
3238.56	4378
3240.33	4435
3242.1	4391
3243.869	4357
3245.637	4400
3247.405	4395
3249.172	4339
3250.941	4328
3252.707	4316
3254.474	4402
3256.24	4333
3258.006	4417
3259.772	4331
3261.537	4415
3263.301	4412
3265.065	4411
3266.828	4463
3268.592	4410
3270.355	4368
3272.117	4385
3273.878	4340
3275.64	4381
3277.401	4414
3279.162	4376
3280.922	4306
3282.682	4464
3284.441	4384
3286.199	4330
3287.959	4456
3289.716	4374
3291.475	4339
3293.232	4372
3294.988	4409
3296.744	4258
3298.501	4418
3300.256	4344
3302.011	4361
3303.766	4375
3305.52	4332
3307.275	4445
3309.028	4359
3310.781	4249
3312.533	4329
3314.285	4384
3316.038	4307
3317.789	4253
3319.54	4356
3321.289	4367
3323.039	4413
3324.789	4304
3326.539	4354
3328.288	4380
3330.035	4327
3331.783	4284
3333.531	4382
3335.28	4257
3337.025	4317
3338.771	4354
3340.518	4321
3342.262	4259
3344.009	4323
3345.753	4254
3347.497	4235
3349.24	4287
3350.983	4318
3352.726	4363
3354.469	4340
3356.212	4290
3357.952	4275
3359.694	4145
3361.434	4281
3363.176	4191
3364.916	4334
3366.654	4274
3368.394	4221
3370.132	4247
3371.871	4244
3373.61	4273
3375.346	4160
3377.083	4226
3378.82	4176
3380.556	4228
3382.292	4267
3384.027	4174
3385.763	4207
3387.497	4235
3389.231	4156
3390.965	4242
3392.698	4277
3394.431	4207
3396.164	4138
3397.896	4191
3399.627	4218
3401.36	4225
3403.09	4248
3404.82	4105
3406.55	4144
3408.279	4149
3410.01	4151
3411.738	4127
3413.467	4154
3415.194	4185
3416.92	4167
3418.647	4177
3420.375	4149
3422.102	4024
3423.827	4112
3425.553	4132
3427.277	4115
3429.003	4149
3430.727	4207
3432.451	4212
3434.173	4085
3435.896	4089
3437.62	4171
3439.343	4083
3441.063	4129
3442.785	3999
3444.505	4028
3446.226	4129
3447.948	4146
3449.666	4074
3451.386	4039
3453.104	4030
3454.823	4129
3456.541	4113
3458.259	4008
3459.976	4053
3461.693	3999
3463.408	4076
3465.125	3974
3466.841	3920
3468.556	4007
3470.271	4042
3471.985	4033
3473.698	4013
3475.414	3972
3477.126	4034
3478.838	3982
3480.55	3998
3482.263	3957
3483.975	4004
3485.686	3966
3487.396	3985
3489.106	4017
3490.817	3915
3492.526	3955
3494.236	3974
3495.944	3949
3497.652	4021
3499.359	3926
3501.066	3932
3502.775	3975
3504.481	3894
3506.187	3917
3507.893	3821
3509.598	3853
3511.304	3898
3513.009	3886
3514.713	3836
3516.417	3934
3518.12	3936
3519.821	3849
3521.525	3855
3523.228	3841
3524.929	3877
3526.631	3857
3528.33	3992
3530.032	3836
3531.733	3826
3533.433	3898
3535.131	3812
3536.83	3780
3538.529	3838
3540.227	3795
3541.925	3875
3543.623	3778
3545.319	3840
3547.016	3776
3548.712	3889
3550.408	3819
3552.103	3841
3553.798	3855
3555.491	3830
3557.188	3786
3558.88	3786
3560.574	3694
3562.266	3671
3563.959	3803
3565.651	3764
3567.343	3767
3569.035	3773
3570.725	3773
3572.415	3721
3574.106	3801
3575.797	3756
3577.485	3782
3579.174	3781
3580.863	3746
3582.551	3789
3584.238	3787
3585.926	3717
3587.613	3708
3589.3	3732
3590.986	3751
3592.671	3624
3594.357	3796
3596.042	3814
3597.726	3732
3599.41	3749
3601.094	3697
3602.778	3589
3604.461	3676
3606.143	3618
3607.825	3718
3609.507	3648
3611.188	3712
3612.87	3605
3614.551	3556
3616.229	3638
3617.909	3553
3619.589	3715
3621.269	3607
3622.948	3626
3624.625	3648
3626.302	3656
3627.98	3618
3629.657	3568
3631.334	3556
3633.01	3637
3634.686	3606
3636.361	3562
3638.036	3619
3639.712	3605
3641.385	3544
3643.06	3500
3644.732	3561
3646.405	3544
3648.08	3577
3649.751	3570
3651.424	3560
3653.094	3587
3654.766	3576
3656.436	3512
3658.106	3508
3659.777	3499
3661.446	3541
3663.115	3531
3664.783	3459
3666.452	3539
3668.121	3557
3669.788	3546
3671.454	3587
3673.121	3506
3674.789	3459
3676.455	3438
3678.12	3519
3679.784	3494
3681.45	3450
3683.114	3470
3684.779	3401
3686.442	3491
3688.105	3523
3689.768	3488
3691.43	3519
3693.093	3448
3694.754	3470
3696.415	3516
3698.076	3464
3699.736	3514
3701.396	3402
3703.057	3410
3704.716	3411
3706.375	3471
3708.034	3387
3709.692	3408
3711.351	3441
3713.008	3450
3714.665	3428
3716.321	3450
3717.977	3411
3719.634	3379
3721.29	3372
3722.945	3434
3724.598	3457
3726.253	3423
3727.907	3456
3729.561	3423
3731.214	3396
3732.867	3358
3734.518	3322
3736.171	3337
3737.824	3344
3739.474	3369
3741.125	3363
3742.775	3461
3744.425	3382
3746.074	3432
3747.725	3347
3749.373	3310
3751.022	3410
3752.669	3365
3754.318	3380
3755.966	3352
3757.612	3287
3759.259	3355
3760.905	3433
3762.55	3367
3764.197	3267
3765.842	3305
3767.486	3327
3769.131	3288
3770.774	3368
3772.417	3304
3774.061	3287
3775.705	3279
3777.347	3360
3778.988	3347
3780.629	3344
3782.271	3333
3783.912	3267
3785.552	3190
3787.192	3239
3788.831	3227
3790.472	3292
3792.112	3215
3793.75	3274
3795.388	3224
3797.024	3214
3798.661	3245
3800.3	3271
3801.936	3335
3803.572	3259
3805.208	3234
3806.844	3218
3808.48	3246
3810.115	3265
3811.748	3310
3813.382	3190
3815.016	3196
3816.649	3196
3818.283	3242
3819.914	3279
3821.547	3197
3823.178	3252
3824.809	3139
3826.441	3139
3828.072	3172
3829.701	3227
3831.331	3213
3832.96	3243
3834.591	3176
3836.219	3230
3837.847	3172
3839.475	3172
3841.102	3146
3842.729	3221
3844.357	3183
3845.984	3117
3847.609	3177
3849.234	3191
3850.86	3190
3852.485	3170
3854.11	3189
3855.734	3141
3857.357	3132
3858.981	3179
3860.603	3157
3862.227	3161
3863.848	3094
3865.471	3124
3867.092	3050
3868.713	3122
3870.334	3136
3871.954	3127
3873.575	3122
3875.194	3066
3876.813	3123
3878.433	3114
3880.051	3116
3881.669	3081
3883.286	3053
3884.904	3147
3886.52	3054
3888.138	3108
3889.754	3124
3891.37	3084
3892.985	3162
3894.6	3109
3896.216	3013
3897.831	3105
3899.444	3109
3901.058	3068
3902.67	3012
3904.283	3106
3905.897	3033
3907.509	3048
3909.121	3070
3910.731	3099
3912.342	3067
3913.954	3091
3915.563	3046
3917.174	3058
3918.783	3046
3920.391	3082
3922.002	3078
3923.611	3034
3925.218	3070
3926.826	3076
3928.432	3030
3930.039	3098
3931.647	3078
3933.253	3090
3934.859	2963
3936.464	3066
3938.068	3091
3939.675	2987
3941.278	3025
3942.883	3012
3944.486	3027
3946.089	3037
3947.692	2928
3949.295	2979
3950.898	2969
3952.499	2989
3954.1	3039
3955.7	2932
3957.303	3025
3958.903	2965
3960.502	3018
3962.101	3000
3963.7	2935
3965.301	2975
3966.899	3019
3968.497	2950
3970.094	2960
3971.691	2967
3973.288	2934
3974.885	2965
3976.481	2978
3978.077	2925
3979.672	2965
3981.267	2948
3982.863	2961
3984.457	2852
3986.051	2906
3987.645	2998
3989.238	2937
3990.831	2921
3992.425	2918
3994.017	2922
3995.607	2976
3997.199	2934
3998.79	2843
4000.382	2892
4001.973	2880
4003.561	2842
4005.151	2843
4006.741	2822
4008.331	2899
4009.918	2822
4011.507	2872
4013.095	2850
4014.681	2890
4016.269	2921
4017.856	2788
4019.443	2771
4021.028	2842
4022.614	2862
4024.199	2861
4025.785	2778
4027.37	2840
4028.953	2814
4030.536	2853
4032.12	2848
4033.704	2844
4035.287	2862
4036.869	2811
4038.45	2763
4040.032	2785
4041.613	2852
4043.195	2800
4044.776	2852
4046.356	2778
4047.935	2765
4049.515	2831
4051.095	2767
4052.674	2839
4054.251	2789
4055.829	2822
4057.406	2766
4058.985	2802
4060.562	2792
4062.139	2826
4063.715	2807
4065.29	2827
4066.865	2789
4068.442	2685
4070.016	2726
4071.59	2795
4073.164	2723
4074.738	2701
4076.312	2776
4077.885	2733
4079.458	2788
4081.03	2767
4082.602	2735
4084.173	2762
4085.745	2710
4087.315	2752
4088.886	2811
4090.456	2684
4092.026	2640
4093.596	2776
4095.165	2741
4096.734	2748
4098.301	2793
4099.869	2693
4101.437	2720
4103.006	2674
4104.572	2691
4106.139	2681
4107.704	2691
4109.27	2690
4110.837	2684
4112.401	2640
4113.966	2664
4115.53	2617
4117.094	2637
4118.659	2743
4120.223	2696
4121.785	2636
4123.347	2671
4124.909	2701
4126.471	2684
4128.034	2701
4129.595	2633
4131.155	2664
4132.716	2630
4134.275	2689
4135.836	2660
4137.395	2621
4138.955	2673
4140.513	2606
4142.071	2565
4143.628	2584
4145.188	2646
4146.745	2580
4148.302	2697
4149.858	2635
4151.414	2605
4152.971	2688
4154.526	2580
4156.081	2611
4157.635	2612
4159.189	2625
4160.745	2643
4162.298	2618
4163.852	2545
4165.405	2514
4166.957	2605
4168.51	2585
4170.063	2546
4171.614	2554
4173.166	2480
4174.717	2494
4176.267	2534
4177.817	2526
4179.368	2562
4180.917	2474
4182.466	2557
4184.016	2588
4185.564	2569
4187.112	2546
4188.66	2537
4190.207	2528
4191.754	2554
4193.301	2494
4194.848	2605
4196.394	2481
4197.94	2492
4199.484	2574
4201.03	2547
4202.575	2542
4204.12	2514
4205.663	2554
4207.207	2531
4208.75	2553
4210.292	2535
4211.836	2525
4213.378	2512
4214.92	2486
4216.46	2470
4218.002	2492
4219.544	2537
4221.083	2431
4222.625	2525
4224.164	2531
4225.703	2554
4227.244	2483
4228.782	2442
4230.32	2472
4231.857	2498
4233.395	2454
4234.933	2463
4236.471	2521
4238.007	2474
4239.542	2474
4241.078	2493
4242.614	2462
4244.15	2394
4245.685	2474
4247.219	2409
4248.753	2464
4250.287	2469
4251.82	2473
4253.354	2462
4254.887	2460
4256.419	2410
4257.951	2487
4259.483	2458
4261.016	2500
4262.547	2456
4264.078	2441
4265.608	2445
4267.137	2411
4268.668	2415
4270.197	2376
4271.727	2397
4273.254	2482
4274.783	2392
4276.311	2414
4277.84	2392
4279.366	2455
4280.894	2360
4282.42	2451
4283.946	2382
4285.473	2397
4286.998	2382
4288.523	2426
4290.047	2457
4291.572	2386
4293.096	2388
4294.622	2410
4296.144	2388
4297.668	2377
4299.19	2399
4300.713	2379
4302.236	2334
4303.758	2343
4305.279	2390
4306.799	2354
4308.321	2373
4309.842	2378
4311.361	2408
4312.882	2326
4314.401	2383
