400.0961	4254
402.6185	4208
405.1424	4235
407.6635	4233
410.1838	4184
412.7035	4219
415.2225	4288
417.7388	4263
420.2585	4337
422.7754	4304
425.2917	4439
427.8072	4506
430.3221	4406
432.8363	4506
435.3498	4515
437.8626	4564
440.3727	4581
442.8841	4432
445.3969	4569
447.907	4548
450.4142	4458
452.9229	4484
455.4289	4475
457.9362	4405
460.4449	4464
462.9488	4443
465.454	4472
467.9566	4441
470.4604	4333
472.9637	4363
475.4662	4434
477.966	4440
480.4671	4447
482.9656	4489
485.4633	4420
487.9645	4493
490.4608	4457
492.9566	4514
495.4536	4476
497.948	4476
500.4437	4481
502.9387	4583
505.431	4578
507.9226	4517
510.4136	4498
512.9079	4616
515.3975	4634
517.8864	4627
520.3746	4567
522.8622	4546
525.3491	4640
527.8394	4592
530.3249	4601
532.8098	4615
535.2939	4593
537.7774	4610
540.2623	4582
542.7444	4550
545.2259	4612
547.7067	4591
550.1868	4646
552.6683	4617
555.147	4710
557.6231	4538
560.1005	4751
562.5773	4744
565.0534	4670
567.5308	4661
570.0056	4671
572.4776	4784
574.951	4758
577.4237	4848
579.8978	4923
582.3671	4920
584.8378	4786
587.3079	4826
589.7773	4906
592.244	4829
594.714	4806
597.1793	4835
599.6461	4890
602.1121	4939
604.5754	4689
607.0421	4788
609.5042	4784
611.9675	4738
614.4282	4906
616.8902	4756
619.3515	4783
621.8122	4739
624.2702	4715
626.7296	4743
629.1863	4771
631.6423	4802
634.1017	4724
636.5563	4720
639.0104	4745
641.4658	4736
643.9185	4695
646.3725	4704
648.8239	4791
651.2766	4874
653.7266	4823
656.176	4777
658.6247	4771
661.0748	4806
663.5242	4869
665.9709	4869
668.417	4852
670.8624	4834
673.3092	4941
675.7533	4937
678.1968	4909
680.6395	4896
683.0817	4927
685.5251	4887
687.9659	4881
690.4061	5014
692.8456	4887
695.2844	4968
697.7226	5009
700.1621	4868
702.599	4977
705.0332	4928
707.4688	5034
709.9036	4982
712.3399	5054
714.7735	4919
717.2044	4989
719.6367	5036
722.0683	4973
724.4993	5222
726.9296	5153
729.3593	5038
731.7883	5076
734.2147	5153
736.6423	5100
739.0714	5115
741.4958	5125
743.9216	5237
746.3447	5195
748.7691	5138
751.1929	5233
753.616	5301
756.0366	5349
758.4584	5270
760.8776	5201
763.2982	5210
765.718	5283
768.1373	5279
770.5539	5208
772.9698	5377
775.3871	5317
777.8038	5296
780.2178	5308
782.6332	5466
785.0459	5321
787.458	5297
789.8714	5265
792.2842	5344
794.6943	5227
797.1038	5242
799.5127	5254
801.9209	5274
804.3324	5258
806.7393	5315
809.1456	5453
811.5513	5448
813.9562	5335
816.3625	5416
818.7663	5446
821.1693	5343
823.5718	5353
825.9735	5363
828.3746	5424
830.7771	5408
833.177	5377
835.5762	5311
837.9747	5403
840.3727	5358
842.772	5439
845.1666	5512
847.5626	5516
849.958	5431
852.3527	5577
854.7488	5627
857.1403	5621
859.5331	5593
861.9253	5608
864.3168	5570
866.7057	5621
869.098	5535
871.4876	5498
873.8746	5542
876.263	5587
878.6487	5497
881.0378	5499
883.4243	5564
885.8081	5632
888.1933	5633
890.5759	5492
892.9598	5463
895.343	5473
897.7256	5596
900.1057	5524
902.4871	5559
904.8659	5561
907.246	5565
909.6254	5618
912.0023	5671
914.3786	5658
916.7562	5938
919.1331	5882
921.5074	5959
923.8831	6011
926.2562	5968
928.6287	5962
931.0005	5970
933.3757	5993
935.7462	6037
938.1162	5894
940.4855	5923
942.8542	5964
945.2242	6046
947.5916	6166
949.9584	6385
952.3266	6530
954.6921	6729
957.0571	6967
959.4233	7292
961.787	7521
964.15	7305
966.5125	7140
968.8742	6911
971.2354	6668
973.5959	6362
975.9559	6145
978.3151	5994
980.6738	5969
983.0338	5922
985.3912	5800
987.7461	5775
990.1022	5795
992.4578	5709
994.8127	5752
997.1689	5685
999.5207	5878
1001.874	5737
1004.226	5863
1006.576	5883
1008.929	5769
1011.28	5750
1013.628	5753
1015.977	5819
1018.324	5700
1020.674	5868
1023.019	5738
1025.366	5785
1027.713	5879
1030.056	5908
1032.399	5713
1034.746	5811
1037.087	5769
1039.431	5769
1041.771	5892
1044.113	5907
1046.454	5802
1048.793	5871
1051.133	5902
1053.471	5842
1055.807	5929
1058.146	5819
1060.483	5961
1062.818	5939
1065.153	5987
1067.489	6117
1069.822	5968
1072.156	6017
1074.488	6137
1076.82	6016
1079.15	6031
1081.48	5975
1083.814	5956
1086.143	5953
1088.471	5852
1090.799	5901
1093.126	5968
1095.452	5902
1097.78	5826
1100.105	5924
1102.43	5827
1104.754	5794
1107.077	5864
1109.4	5837
1111.722	5843
1114.044	5953
1116.365	5873
1118.685	5964
1121.005	5881
1123.324	5987
1125.643	5942
1127.961	5928
1130.278	5864
1132.595	5922
1134.911	5847
1137.226	5953
1139.541	5923
1141.854	5943
1144.167	5891
1146.482	5859
1148.793	5804
1151.105	5859
1153.414	5746
1155.725	5819
1158.033	5806
1160.344	5832
1162.651	5826
1164.959	5758
1167.265	5770
1169.572	5938
1171.878	5731
1174.184	5961
1176.488	5936
1178.79	5925
1181.094	5982
1183.396	6042
1185.699	5846
1188.001	5884
1190.301	5877
1192.6	5833
1194.9	5842
1197.2	5781
1199.497	5810
1201.794	5860
1204.09	6039
1206.387	5951
1208.684	5846
1210.978	5878
1213.272	5900
1215.565	6029
1217.858	5918
1220.15	5905
1222.443	5975
1224.734	5920
1227.024	6002
1229.313	5996
1231.602	6055
1233.892	6085
1236.18	6014
1238.467	6164
1240.754	6291
1243.04	6254
1245.325	6258
1247.612	6091
1249.896	6145
1252.178	6326
1254.461	6201
1256.743	6173
1259.027	6273
1261.308	6196
1263.587	6324
1265.867	6250
1268.146	6244
1270.425	6292
1272.703	6135
1274.981	6376
1277.256	6230
1279.532	6242
1281.808	6274
1284.083	6153
1286.358	6152
1288.63	6177
1290.904	6142
1293.175	6083
1295.449	6102
1297.719	6101
1299.99	6016
1302.259	6164
1304.529	6075
1306.798	6110
1309.065	6099
1311.333	6206
1313.599	6126
1315.866	6088
1318.131	6159
1320.396	6119
1322.66	6153
1324.925	6195
1327.187	6089
1329.448	6114
1331.711	6156
1333.974	6193
1336.234	6134
1338.493	6198
1340.752	6063
1343.01	6120
1345.269	6075
1347.526	6146
1349.784	6160
1352.04	6042
1354.295	6091
1356.552	6090
1358.806	6015
1361.059	6070
1363.312	6024
1365.564	6164
1367.818	6161
1370.069	6059
1372.318	6066
1374.568	6147
1376.817	6230
1379.066	6227
1381.316	6136
1383.564	6263
1385.809	6080
1388.056	6106
1390.301	6245
1392.549	6450
1394.793	6472
1397.036	6511
1399.279	6417
1401.522	6398
1403.763	6532
1406.007	6479
1408.248	6455
1410.487	6336
1412.727	6432
1414.965	6370
1417.205	6469
1419.442	6350
1421.68	6463
1423.915	6372
1426.152	6408
1428.388	6268
1430.623	6413
1432.857	6316
1435.091	6360
1437.323	6407
1439.556	6439
1441.789	6546
1444.019	6578
1446.25	6462
1448.48	6595
1450.708	6559
1452.938	6560
1455.167	6562
1457.394	6512
1459.62	6549
1461.846	6640
1464.073	6466
1466.299	6543
1468.523	6458
1470.746	6483
1472.969	6388
1475.191	6309
1477.415	6363
1479.636	6186
1481.858	6153
1484.078	6162
1486.298	6201
1488.518	6073
1490.736	6105
1492.954	6179
1495.169	6034
1497.386	6138
1499.602	6131
1501.819	6023
1504.034	6142
1506.248	6027
1508.462	6051
1510.675	6092
1512.888	5989
1515.1	6083
1517.311	5989
1519.522	6047
1521.732	6144
1523.942	6091
1526.151	6086
1528.36	6039
1530.566	5980
1532.773	6018
1534.98	6053
1537.187	6026
1539.392	6116
1541.596	6193
1543.801	6096
1546.005	6099
1548.208	6182
1550.411	6134
1552.612	6160
1554.814	6155
1557.013	6100
1559.212	6130
1561.414	6225
1563.612	6239
1565.811	6121
1568.007	6235
1570.203	6245
1572.403	6206
1574.598	6241
1576.792	6220
1578.988	6279
1581.181	6260
1583.376	6240
1585.568	6276
1587.761	6217
1589.952	6253
1592.143	6212
1594.333	6228
1596.524	6314
1598.715	6389
1600.903	6350
1603.091	6284
1605.278	6219
1607.466	6245
1609.652	6359
1611.838	6262
1614.023	6328
1616.207	6346
1618.391	6329
1620.576	6383
1622.759	6433
1624.941	6345
1627.123	6251
1629.304	6315
1631.484	6430
1633.664	6420
1635.844	6501
1638.022	6445
1640.201	6403
1642.38	6388
1644.556	6365
1646.732	6423
1648.908	6387
1651.084	6492
1653.257	6578
1655.433	6460
1657.607	6539
1659.779	6536
1661.951	6360
1664.122	6526
1666.295	6461
1668.467	6408
1670.635	6472
1672.805	6544
1674.973	6573
1677.142	6479
1679.31	6484
1681.478	6542
1683.644	6466
1685.81	6459
1687.975	6481
1690.142	6385
1692.305	6437
1694.468	6430
1696.632	6424
1698.794	6482
1700.957	6299
1703.119	6266
1705.279	6279
1707.439	6258
1709.598	6324
1711.758	6249
1713.917	6274
1716.075	6184
1718.231	6326
1720.388	6360
1722.543	6323
1724.702	6304
1726.856	6272
1729.01	6272
1731.164	6301
1733.317	6079
1735.471	6289
1737.623	6192
1739.774	6218
1741.925	6266
1744.075	6184
1746.225	6299
1748.376	6195
1750.524	6303
1752.672	6351
1754.82	6292
1756.965	6266
1759.113	6309
1761.259	6339
1763.405	6203
1765.549	6386
1767.694	6261
1769.836	6381
1771.981	6299
1774.123	6295
1776.264	6382
1778.405	6369
1780.546	6331
1782.687	6296
1784.827	6303
1786.966	6330
1789.103	6195
1791.242	6364
1793.381	6392
1795.517	6313
1797.653	6365
1799.788	6207
1801.923	6268
1804.057	6327
1806.193	6493
1808.326	6319
1810.457	6405
1812.59	6344
1814.721	6338
1816.855	6326
1818.984	6371
1821.113	6398
1823.244	6294
1825.372	6381
1827.499	6260
1829.63	6333
1831.756	6267
1833.882	6282
1836.007	6363
1838.132	6207
1840.26	6317
1842.384	6348
1844.507	6215
1846.63	6292
1848.752	6252
1850.875	6299
1852.996	6261
1855.118	6277
1857.238	6274
1859.358	6308
1861.477	6208
1863.597	6235
1865.715	6251
1867.832	6262
1869.948	6246
1872.064	6224
1874.181	6075
1876.297	6292
1878.411	6329
1880.526	6338
1882.639	6405
1884.752	6228
1886.865	6253
1888.977	6190
1891.089	6261
1893.2	6143
1895.308	6345
1897.42	6203
1899.53	6286
1901.639	6250
1903.745	6202
1905.853	6385
1907.962	6339
1910.067	6343
1912.174	6388
1914.278	6385
1916.383	6426
1918.486	6277
1920.592	6381
1922.694	6356
1924.797	6391
1926.898	6278
1929	6456
1931.102	6456
1933.203	6309
1935.301	6339
1937.401	6352
1939.499	6306
1941.598	6351
1943.697	6477
1945.793	6385
1947.888	6258
1949.985	6452
1952.08	6286
1954.176	6457
1956.269	6323
1958.364	6406
1960.457	6305
1962.549	6498
1964.642	6231
1966.733	6255
1968.823	6252
1970.913	6354
1973.005	6356
1975.093	6227
1977.184	6341
1979.271	6233
1981.359	6384
1983.446	6261
1985.532	6346
1987.619	6287
1989.705	6390
1991.789	6242
1993.874	6275
1995.956	6327
1998.041	6341
2000.123	6276
2002.206	6309
2004.287	6250
2006.368	6202
2008.449	6332
2010.529	6404
2012.609	6288
2014.688	6229
2016.766	6289
2018.843	6346
2020.922	6239
2022.999	6224
2025.074	6256
2027.15	6312
2029.225	6358
2031.299	6308
2033.375	6235
2035.447	6224
2037.52	6190
2039.592	6289
2041.664	6362
2043.736	6274
2045.807	6305
2047.876	6209
2049.947	6338
2052.015	6279
2054.086	6196
2056.153	6195
2058.221	6274
2060.288	6379
2062.353	6337
2064.42	6352
2066.486	6279
2068.55	6333
2070.614	6219
2072.678	6400
2074.741	6389
2076.805	6203
2078.866	6303
2080.929	6293
2082.99	6271
2085.049	6263
2087.109	6223
2089.17	6388
2091.228	6222
2093.286	6363
2095.344	6376
2097.4	6332
2099.46	6316
2101.516	6244
2103.572	6317
2105.626	6313
2107.679	6227
2109.735	6398
2111.788	6308
2113.841	6305
2115.894	6326
2117.945	6264
2119.997	6367
2122.049	6348
2124.1	6185
2126.148	6312
2128.197	6280
2130.246	6175
2132.296	6283
2134.342	6295
2136.39	6262
2138.437	6335
2140.483	6393
2142.527	6313
2144.574	6277
2146.619	6214
2148.661	6212
2150.705	6302
2152.747	6239
2154.792	6295
2156.832	6235
2158.874	6214
2160.915	6308
2162.954	6268
2164.995	6219
2167.034	6276
2169.072	6320
2171.111	6176
2173.148	6127
2175.186	6233
2177.223	6178
2179.258	6165
2181.294	6304
2183.328	6116
2185.362	6121
2187.398	6174
2189.431	6195
2191.463	6194
2193.495	6200
2195.528	6157
2197.56	6149
2199.59	6130
2201.62	6149
2203.649	6017
2205.678	6091
2207.708	6073
2209.737	6238
2211.764	6086
2213.791	6199
2215.817	6154
2217.843	6108
2219.87	6140
2221.895	6180
2223.919	6115
2225.942	6150
2227.966	6087
2229.988	6053
2232.012	6130
2234.032	6128
2236.054	6172
2238.074	6067
2240.095	6038
2242.116	6080
2244.135	6054
2246.153	6171
2248.171	6024
2250.188	6232
2252.208	6044
2254.223	6123
2256.239	6045
2258.255	6182
2260.269	6006
2262.283	6226
2264.3	6121
2266.312	6082
2268.325	6139
2270.336	6127
2272.349	6044
2274.362	6054
2276.372	6192
2278.383	6018
2280.392	6009
2282.402	6057
2284.409	6065
2286.418	6031
2288.427	6104
2290.433	6112
2292.441	6122
2294.446	6034
2296.453	6085
2298.459	6134
2300.463	6156
2302.466	6027
2304.471	6078
2306.475	6052
2308.477	6084
2310.478	6043
2312.481	6105
2314.481	6047
2316.481	5920
2318.482	6024
2320.482	6108
2322.48	6050
2324.48	6011
2326.478	6073
2328.476	5959
2330.473	6075
2332.469	5946
2334.465	6019
2336.46	5924
2338.454	5967
2340.45	6024
2342.444	5972
2344.437	6006
2346.43	6058
2348.421	5923
2350.414	5981
2352.405	5944
2354.396	5970
2356.386	5950
2358.376	6011
2360.366	5909
2362.355	5887
2364.343	5929
2366.331	5963
2368.317	6065
2370.304	5973
2372.292	5932
2374.278	5844
2376.262	5909
2378.247	5947
2380.23	6031
2382.216	5869
2384.199	5976
2386.181	5938
2388.163	5984
2390.144	5978
2392.127	5907
2394.107	5939
2396.087	5941
2398.066	5873
2400.046	5974
2402.023	5792
2404.004	5818
2405.981	5842
2407.957	5929
2409.934	5829
2411.91	5882
2413.886	5878
2415.862	5857
2417.836	5833
2419.809	5805
2421.784	5828
2423.756	5892
2425.73	5899
2427.701	5842
2429.672	5952
2431.644	6000
2433.615	5877
2435.586	5835
2437.555	5895
2439.523	5860
2441.491	5843
2443.459	5887
2445.428	5853
2447.395	5832
2449.361	5874
2451.327	5867
2453.292	5781
2455.257	5807
2457.223	5873
2459.187	5802
2461.15	5800
2463.113	5789
2465.076	5884
2467.039	5839
2468.999	5870
2470.96	5726
2472.921	5824
2474.881	5792
2476.841	5790
2478.8	5818
2480.759	5686
2482.717	5888
2484.675	5805
2486.63	5846
2488.589	5795
2490.545	5804
2492.5	5795
2494.455	5830
2496.408	5801
2498.364	5808
2500.318	5734
2502.27	5705
2504.223	5829
2506.174	5739
2508.126	5832
2510.078	5847
2512.03	5786
2513.979	5786
2515.927	5748
2517.877	5658
2519.826	5717
2521.775	5717
2523.722	5628
2525.668	5740
2527.616	5763
2529.561	5704
2531.508	5680
2533.452	5870
2535.398	5662
2537.342	5598
2539.284	5699
2541.229	5808
2543.173	5742
2545.114	5663
2547.055	5730
2548.996	5771
2550.938	5690
2552.878	5734
2554.817	5774
2556.756	5765
2558.695	5716
2560.633	5725
2562.572	5698
2564.509	5673
2566.445	5781
2568.382	5728
2570.317	5711
2572.254	5718
2574.189	5708
2576.123	5658
2578.057	5793
2579.99	5748
2581.923	5705
2583.855	5657
2585.788	5802
2587.719	5755
2589.65	5820
2591.579	5623
2593.511	5722
2595.44	5721
2597.37	5543
2599.297	5646
2601.225	5727
2603.153	5770
2605.08	5825
2607.007	5730
2608.932	5779
2610.858	5750
2612.782	5658
2614.709	5727
2616.632	5693
2618.556	5717
2620.478	5756
2622.401	5693
2624.324	5768
2626.247	5799
2628.167	5635
2630.088	5757
2632.008	5729
2633.928	5745
2635.848	5719
2637.766	5748
2639.684	5809
2641.603	5709
2643.519	5818
2645.437	5739
2647.353	5851
2649.27	5772
2651.184	5763
2653.099	5766
2655.014	5689
2656.928	5821
2658.842	5821
2660.755	5783
2662.667	5703
2664.579	5678
2666.491	5712
2668.402	5779
2670.312	5602
2672.222	5655
2674.132	5746
2676.042	5689
2677.951	5731
2679.859	5669
2681.766	5691
2683.674	5711
2685.582	5606
2687.488	5570
2689.392	5695
2691.298	5584
2693.202	5637
2695.107	5600
2697.012	5688
2698.914	5724
2700.817	5550
2702.72	5575
2704.622	5656
2706.524	5623
2708.425	5477
2710.326	5673
2712.225	5755
2714.125	5589
2716.024	5696
2717.923	5680
2719.822	5574
2721.719	5801
2723.616	5607
2725.512	5580
2727.41	5581
2729.305	5559
2731.201	5561
2733.095	5606
2734.99	5688
2736.884	5586
2738.778	5589
2740.67	5598
2742.562	5661
2744.455	5579
2746.346	5661
2748.238	5656
2750.129	5645
2752.018	5653
2753.907	5555
2755.797	5607
2757.687	5651
2759.575	5509
2761.462	5680
2763.349	5618
2765.237	5461
2767.124	5544
2769.009	5568
2770.894	5418
2772.779	5548
2774.663	5530
2776.547	5565
2778.431	5572
2780.314	5447
2782.197	5520
2784.078	5677
2785.96	5444
2787.842	5615
2789.723	5509
2791.603	5617
2793.483	5519
2795.362	5529
2797.241	5544
2799.121	5633
2800.997	5562
2802.874	5538
2804.751	5469
2806.628	5631
2808.506	5579
2810.38	5491
2812.255	5495
2814.13	5589
2816.003	5562
2817.878	5465
2819.752	5549
2821.623	5546
2823.496	5465
2825.368	5584
2827.238	5511
2829.111	5600
2830.98	5445
2832.851	5529
2834.719	5614
2836.589	5555
2838.458	5556
2840.327	5591
2842.193	5605
2844.061	5619
2845.927	5683
2847.794	5556
2849.66	5550
2851.525	5729
2853.39	5656
2855.254	5681
2857.117	5735
2858.983	5827
2860.845	5646
2862.707	5800
2864.569	5838
2866.431	5679
2868.293	5822
2870.154	5883
2872.013	5895
2873.873	5908
2875.733	6083
2877.592	6130
2879.451	6177
2881.309	6240
2883.166	6257
2885.022	6350
2886.879	6271
2888.736	6354
2890.591	6541
2892.446	6373
2894.301	6521
2896.155	6393
2898.009	6427
2899.863	6360
2901.716	6342
2903.568	6425
2905.419	6352
2907.27	6385
2909.123	6407
2910.973	6351
2912.824	6500
2914.673	6582
2916.521	6527
2918.372	6650
2920.22	6669
2922.067	6754
2923.914	6760
2925.761	6842
2927.607	6863
2929.455	6926
2931.301	7007
2933.144	6987
2934.99	7215
2936.833	7216
2938.678	7268
2940.522	7302
2942.364	7417
2944.207	7358
2946.048	7607
2947.891	7593
2949.731	7654
2951.571	7553
2953.412	7661
2955.25	7506
2957.09	7373
2958.93	7517
2960.767	7327
2962.606	7181
2964.443	7163
2966.279	7104
2968.116	6894
2969.953	6837
2971.788	6750
2973.623	6647
2975.457	6699
2977.292	6469
2979.127	6643
2980.959	6575
2982.792	6341
2984.624	6359
2986.455	6365
2988.288	6289
2990.119	6338
2991.949	6113
2993.779	6114
2995.608	6159
2997.439	6262
2999.268	5955
3001.096	5937
3002.923	5906
3004.751	5889
3006.578	5844
3008.406	5758
3010.232	5554
3012.057	5643
3013.883	5548
3015.706	5613
3017.532	5465
3019.356	5547
3021.179	5473
3023.002	5457
3024.823	5535
3026.646	5413
3028.469	5507
3030.289	5456
3032.11	5317
3033.93	5315
3035.749	5366
3037.57	5351
3039.39	5366
3041.207	5371
3043.026	5268
3044.842	5473
3046.661	5363
3048.477	5345
3050.294	5284
3052.109	5296
3053.925	5328
3055.739	5299
3057.555	5330
3059.368	5320
3061.181	5279
3062.995	5199
3064.807	5240
3066.62	5306
3068.433	5471
3070.243	5361
3072.054	5287
3073.865	5197
3075.675	5217
3077.485	5249
3079.293	5222
3081.102	5289
3082.911	5205
3084.719	5209
3086.527	5154
3088.333	5222
3090.139	5169
3091.945	5100
3093.75	5173
3095.557	5238
3097.361	5178
3099.165	5143
3100.969	5164
3102.772	5061
3104.575	5102
3106.379	5052
3108.181	5035
3109.982	5227
3111.783	5039
3113.584	5057
3115.386	5069
3117.186	5048
3118.985	5002
3120.783	5049
3122.582	5050
3124.381	5048
3126.179	5010
3127.975	5087
3129.772	5044
3131.569	5117
3133.365	4961
3135.161	5051
3136.956	5038
3138.751	4989
3140.544	5045
3142.338	4913
3144.132	5040
3145.925	5101
3147.717	4987
3149.509	5065
3151.301	5006
3153.091	4963
3154.884	5006
3156.673	4979
3158.462	4891
3160.252	4934
3162.041	4983
3163.831	5057
3165.618	4952
3167.405	4946
3169.193	5040
3170.979	4994
3172.767	4902
3174.553	4961
3176.338	4980
3178.123	5006
3179.907	4985
3181.692	4897
3183.477	4961
3185.259	4962
3187.042	4917
3188.824	5040
3190.607	5014
3192.389	4944
3194.17	4966
3195.951	4986
3197.73	4891
3199.51	5044
3201.289	4891
3203.07	4923
3204.848	5009
3206.626	4904
3208.403	4974
3210.18	4869
3211.959	4946
3213.735	4949
3215.511	4964
3217.285	4997
3219.06	4921
3220.836	4903
3222.611	4892
3224.384	4956
3226.158	4871
3227.929	4811
3229.702	4874
3231.476	4938
3233.248	4911
3235.018	4882
3236.789	4885
3238.56	4938
3240.33	4912
3242.1	4921
3243.869	4921
3245.637	4946
3247.405	4923
3249.172	4909
3250.941	4920
3252.707	4877
3254.474	4874
3256.24	4885
3258.006	4865
3259.772	4843
3261.537	4903
3263.301	4981
3265.065	4942
3266.828	4899
3268.592	5019
3270.355	4898
3272.117	4973
3273.878	4900
3275.64	4903
3277.401	4893
3279.162	4930
3280.922	4951
3282.682	4855
3284.441	4915
3286.199	4947
3287.959	4827
3289.716	4945
3291.475	4947
3293.232	4940
3294.988	4909
3296.744	4836
3298.501	4923
3300.256	4965
3302.011	4909
3303.766	4918
3305.52	4897
3307.275	4881
3309.028	4943
3310.781	4918
3312.533	4982
3314.285	4918
3316.038	4920
3317.789	4866
3319.54	4935
3321.289	4810
3323.039	4910
3324.789	4885
3326.539	4982
3328.288	4930
3330.035	5014
3331.783	4808
3333.531	4830
3335.28	4822
3337.025	4801
3338.771	4922
3340.518	4820
3342.262	4833
3344.009	4830
3345.753	4866
3347.497	4872
3349.24	4827
3350.983	4821
3352.726	4815
3354.469	4842
3356.212	4864
3357.952	4762
3359.694	4677
3361.434	4807
3363.176	4862
3364.916	4775
3366.654	4789
3368.394	4713
3370.132	4768
3371.871	4721
3373.61	4778
3375.346	4757
3377.083	4682
3378.82	4689
3380.556	4755
3382.292	4699
3384.027	4762
3385.763	4731
3387.497	4720
3389.231	4708
3390.965	4696
3392.698	4726
3394.431	4665
3396.164	4716
3397.896	4748
3399.627	4679
3401.36	4617
3403.09	4643
3404.82	4700
3406.55	4700
3408.279	4616
3410.01	4696
3411.738	4698
3413.467	4583
3415.194	4653
3416.92	4605
3418.647	4661
3420.375	4635
3422.102	4680
3423.827	4574
3425.553	4578
3427.277	4570
3429.003	4540
3430.727	4568
3432.451	4633
3434.173	4494
3435.896	4584
3437.62	4694
3439.343	4555
3441.063	4654
3442.785	4537
3444.505	4573
3446.226	4582
3447.948	4571
3449.666	4614
3451.386	4547
3453.104	4548
3454.823	4503
3456.541	4363
3458.259	4507
3459.976	4419
3461.693	4476
3463.408	4500
3465.125	4428
3466.841	4468
3468.556	4433
3470.271	4475
3471.985	4420
3473.698	4441
3475.414	4490
3477.126	4360
3478.838	4385
3480.55	4443
3482.263	4339
3483.975	4415
3485.686	4447
3487.396	4268
3489.106	4312
3490.817	4344
3492.526	4431
3494.236	4451
3495.944	4279
3497.652	4226
3499.359	4378
3501.066	4311
3502.775	4293
3504.481	4301
3506.187	4299
3507.893	4285
3509.598	4288
3511.304	4316
3513.009	4192
3514.713	4296
3516.417	4279
3518.12	4194
3519.821	4243
3521.525	4187
3523.228	4297
3524.929	4268
3526.631	4160
3528.33	4242
3530.032	4250
3531.733	4168
3533.433	4270
3535.131	4177
3536.83	4227
3538.529	4206
3540.227	4233
3541.925	4116
3543.623	4226
3545.319	4093
3547.016	4120
3548.712	4042
3550.408	4143
3552.103	4103
3553.798	4060
3555.491	4079
3557.188	4162
3558.88	4130
3560.574	4079
3562.266	4098
3563.959	4105
3565.651	4071
3567.343	4123
3569.035	4096
3570.725	4027
3572.415	4100
3574.106	4103
3575.797	4097
3577.485	4107
3579.174	4039
3580.863	4065
3582.551	4021
3584.238	4132
3585.926	4006
3587.613	4019
3589.3	4053
3590.986	4046
3592.671	3934
3594.357	4008
3596.042	3997
3597.726	4002
3599.41	3957
3601.094	3969
3602.778	3996
3604.461	3970
3606.143	3884
3607.825	3900
3609.507	3947
3611.188	3960
3612.87	3863
3614.551	3971
3616.229	3892
3617.909	3797
3619.589	3873
3621.269	3921
3622.948	3774
3624.625	3894
3626.302	3929
3627.98	3850
3629.657	3893
3631.334	3900
3633.01	3818
3634.686	3795
3636.361	3807
3638.036	3865
3639.712	3858
3641.385	3810
3643.06	3798
3644.732	3788
3646.405	3770
3648.08	3771
3649.751	3761
3651.424	3719
3653.094	3805
3654.766	3834
3656.436	3700
3658.106	3739
3659.777	3717
3661.446	3810
3663.115	3676
3664.783	3672
3666.452	3713
3668.121	3744
3669.788	3698
3671.454	3776
3673.121	3710
3674.789	3710
3676.455	3697
3678.12	3768
3679.784	3761
3681.45	3770
3683.114	3711
3684.779	3678
3686.442	3703
3688.105	3679
3689.768	3771
3691.43	3646
3693.093	3612
3694.754	3659
3696.415	3686
3698.076	3760
3699.736	3673
3701.396	3683
3703.057	3607
3704.716	3597
3706.375	3705
3708.034	3624
3709.692	3687
3711.351	3611
3713.008	3642
3714.665	3643
3716.321	3637
3717.977	3643
3719.634	3643
3721.29	3653
3722.945	3629
3724.598	3606
3726.253	3654
3727.907	3588
3729.561	3517
3731.214	3622
3732.867	3527
3734.518	3491
3736.171	3618
3737.824	3554
3739.474	3615
3741.125	3545
3742.775	3575
3744.425	3617
3746.074	3552
3747.725	3572
3749.373	3606
3751.022	3554
3752.669	3588
3754.318	3581
3755.966	3519
3757.612	3534
3759.259	3516
3760.905	3523
3762.55	3620
3764.197	3587
3765.842	3559
3767.486	3508
3769.131	3552
3770.774	3517
3772.417	3572
3774.061	3578
3775.705	3427
3777.347	3552
3778.988	3544
3780.629	3503
3782.271	3553
3783.912	3540
3785.552	3585
3787.192	3524
3788.831	3487
3790.472	3413
3792.112	3503
3793.75	3468
3795.388	3355
3797.024	3361
3798.661	3494
3800.3	3448
3801.936	3400
3803.572	3493
3805.208	3421
3806.844	3517
3808.48	3443
3810.115	3474
3811.748	3481
3813.382	3467
3815.016	3309
3816.649	3433
3818.283	3349
3819.914	3401
3821.547	3389
3823.178	3402
3824.809	3338
3826.441	3376
3828.072	3412
3829.701	3365
3831.331	3347
3832.96	3386
3834.591	3331
3836.219	3407
3837.847	3367
3839.475	3411
3841.102	3304
3842.729	3384
3844.357	3368
3845.984	3328
3847.609	3386
3849.234	3360
3850.86	3335
3852.485	3387
3854.11	3405
3855.734	3286
3857.357	3296
3858.981	3362
3860.603	3311
3862.227	3254
3863.848	3269
3865.471	3319
3867.092	3309
3868.713	3272
3870.334	3291
3871.954	3261
3873.575	3300
3875.194	3323
3876.813	3334
3878.433	3290
3880.051	3249
3881.669	3344
3883.286	3280
3884.904	3310
3886.52	3210
3888.138	3308
3889.754	3287
3891.37	3230
3892.985	3275
3894.6	3262
3896.216	3292
3897.831	3258
3899.444	3298
3901.058	3292
3902.67	3264
3904.283	3231
3905.897	3299
3907.509	3199
3909.121	3244
3910.731	3265
3912.342	3243
3913.954	3196
3915.563	3266
3917.174	3308
3918.783	3181
3920.391	3217
3922.002	3292
3923.611	3215
3925.218	3287
3926.826	3199
3928.432	3242
3930.039	3264
3931.647	3255
3933.253	3193
3934.859	3171
3936.464	3210
3938.068	3187
3939.675	3268
3941.278	3131
3942.883	3237
3944.486	3182
3946.089	3251
3947.692	3197
3949.295	3175
3950.898	3197
3952.499	3157
3954.1	3184
3955.7	3183
3957.303	3153
3958.903	3138
3960.502	3141
3962.101	3172
3963.7	3188
3965.301	3098
3966.899	3213
3968.497	3117
3970.094	3158
3971.691	3095
3973.288	3173
3974.885	3186
3976.481	3157
3978.077	3124
3979.672	3192
3981.267	3102
3982.863	3035
3984.457	3042
3986.051	3118
3987.645	3119
3989.238	3107
3990.831	3115
3992.425	3033
3994.017	3051
3995.607	3083
3997.199	3017
3998.79	3086
4000.382	3059
4001.973	3118
4003.561	3116
4005.151	3059
4006.741	3153
4008.331	3090
4009.918	3020
4011.507	2994
4013.095	3107
4014.681	2967
4016.269	2976
4017.856	3052
4019.443	3062
4021.028	2968
4022.614	2998
4024.199	3068
4025.785	2997
4027.37	3005
4028.953	2988
4030.536	2988
4032.12	2902
4033.704	2945
4035.287	3029
4036.869	2985
4038.45	2950
4040.032	3026
4041.613	2966
4043.195	2951
4044.776	2943
4046.356	2978
4047.935	3010
4049.515	2925
4051.095	3036
4052.674	2955
4054.251	2950
4055.829	2963
4057.406	2931
4058.985	2940
4060.562	2918
4062.139	2885
4063.715	2961
4065.29	2969
4066.865	3016
4068.442	2941
4070.016	2897
4071.59	2912
4073.164	2904
4074.738	2905
4076.312	2899
4077.885	2900
4079.458	2886
4081.03	2868
4082.602	2943
4084.173	2975
4085.745	2973
4087.315	2923
4088.886	2821
4090.456	2942
4092.026	2819
4093.596	2827
4095.165	2892
4096.734	2908
4098.301	2821
4099.869	2974
4101.437	2902
4103.006	2932
4104.572	2818
4106.139	2907
4107.704	2897
4109.27	2809
4110.837	2828
4112.401	2877
4113.966	2826
4115.53	2849
4117.094	2788
4118.659	2852
4120.223	2741
4121.785	2839
4123.347	2837
4124.909	2803
4126.471	2774
4128.034	2844
4129.595	2753
4131.155	2887
4132.716	2750
4134.275	2762
4135.836	2770
4137.395	2744
4138.955	2807
4140.513	2793
4142.071	2779
4143.628	2711
4145.188	2868
4146.745	2750
4148.302	2754
4149.858	2719
4151.414	2756
4152.971	2806
4154.526	2700
4156.081	2760
4157.635	2733
4159.189	2754
4160.745	2707
4162.298	2716
4163.852	2683
4165.405	2738
4166.957	2732
4168.51	2704
4170.063	2721
4171.614	2762
4173.166	2728
4174.717	2677
4176.267	2674
4177.817	2673
4179.368	2690
4180.917	2667
4182.466	2724
4184.016	2674
4185.564	2772
4187.112	2751
4188.66	2667
4190.207	2684
4191.754	2677
4193.301	2753
4194.848	2569
4196.394	2661
4197.94	2714
4199.484	2699
4201.03	2643
4202.575	2629
4204.12	2605
4205.663	2658
4207.207	2622
4208.75	2643
4210.292	2629
4211.836	2657
4213.378	2600
4214.92	2624
4216.46	2641
4218.002	2653
4219.544	2603
4221.083	2683
4222.625	2645
4224.164	2617
4225.703	2610
4227.244	2607
4228.782	2572
4230.32	2647
4231.857	2558
4233.395	2649
4234.933	2663
4236.471	2579
4238.007	2567
4239.542	2524
4241.078	2604
4242.614	2605
4244.15	2560
4245.685	2604
4247.219	2578
4248.753	2614
4250.287	2558
4251.82	2613
4253.354	2592
4254.887	2532
4256.419	2567
4257.951	2568
4259.483	2508
4261.016	2599
4262.547	2530
4264.078	2553
4265.608	2537
4267.137	2591
4268.668	2544
4270.197	2600
4271.727	2580
4273.254	2544
4274.783	2514
4276.311	2523
4277.84	2553
4279.366	2549
4280.894	2538
4282.42	2569
4283.946	2557
4285.473	2506
4286.998	2449
4288.523	2522
4290.047	2467
4291.572	2527
4293.096	2514
4294.622	2532
4296.144	2518
4297.668	2491
4299.19	2528
4300.713	2522
4302.236	2525
4303.758	2510
4305.279	2543
4306.799	2475
4308.321	2454
4309.842	2479
4311.361	2467
4312.882	2480
4314.401	2458
