400.0961	6848
402.6185	6706
405.1424	6697
407.6635	6720
410.1838	6711
412.7035	6804
415.2225	6839
417.7388	6779
420.2585	6985
422.7754	6830
425.2917	7092
427.8072	6945
430.3221	7103
432.8363	7085
435.3498	7163
437.8626	7138
440.3727	7180
442.8841	7159
445.3969	7108
447.907	7184
450.4142	7129
452.9229	7195
455.4289	7139
457.9362	7173
460.4449	7168
462.9488	7107
465.454	7081
467.9566	7090
470.4604	7191
472.9637	7141
475.4662	7185
477.966	7198
480.4671	7162
482.9656	7290
485.4633	7212
487.9645	7347
490.4608	7321
492.9566	7208
495.4536	7322
497.948	7380
500.4437	7372
502.9387	7338
505.431	7522
507.9226	7313
510.4136	7408
512.9079	7271
515.3975	7437
517.8864	7394
520.3746	7608
522.8622	7572
525.3491	7482
527.8394	7413
530.3249	7596
532.8098	7397
535.2939	7469
537.7774	7439
540.2623	7453
542.7444	7399
545.2259	7556
547.7067	7592
550.1868	7608
552.6683	7601
555.147	7543
557.6231	7461
560.1005	7530
562.5773	7618
565.0534	7632
567.5308	7467
570.0056	7598
572.4776	7649
574.951	7602
577.4237	7787
579.8978	7589
582.3671	7829
584.8378	7887
587.3079	7784
589.7773	7767
592.244	7884
594.714	7753
597.1793	7793
599.6461	7676
602.1121	7775
604.5754	7722
607.0421	7746
609.5042	7759
611.9675	7826
614.4282	7769
616.8902	7735
619.3515	7856
621.8122	7710
624.2702	7836
626.7296	7871
629.1863	7652
631.6423	7712
634.1017	7777
636.5563	7773
639.0104	7727
641.4658	7806
643.9185	7639
646.3725	7885
648.8239	7801
651.2766	7969
653.7266	7900
656.176	7888
658.6247	7960
661.0748	7941
663.5242	7950
665.9709	7896
668.417	7892
670.8624	8029
673.3092	7869
675.7533	7990
678.1968	7945
680.6395	8062
683.0817	8047
685.5251	7960
687.9659	8008
690.4061	8107
692.8456	8135
695.2844	8221
697.7226	8176
700.1621	8058
702.599	8237
705.0332	8285
707.4688	8209
709.9036	8253
712.3399	8074
714.7735	8120
717.2044	8300
719.6367	8329
722.0683	8092
724.4993	8258
726.9296	8323
729.3593	8391
731.7883	8309
734.2147	8327
736.6423	8402
739.0714	8526
741.4958	8449
743.9216	8454
746.3447	8520
748.7691	8605
751.1929	8595
753.616	8641
756.0366	8584
758.4584	8527
760.8776	8542
763.2982	8625
765.718	8718
768.1373	8686
770.5539	8500
772.9698	8735
775.3871	8545
777.8038	8699
780.2178	8663
782.6332	8697
785.0459	8575
787.458	8551
789.8714	8741
792.2842	8623
794.6943	8675
797.1038	8620
799.5127	8599
801.9209	8637
804.3324	8673
806.7393	8709
809.1456	8779
811.5513	8644
813.9562	8795
816.3625	8768
818.7663	8731
821.1693	8704
823.5718	8821
825.9735	8871
828.3746	8777
830.7771	8753
833.177	8707
835.5762	8782
837.9747	8910
840.3727	8888
842.772	8927
845.1666	8963
847.5626	8978
849.958	9121
852.3527	9000
854.7488	9042
857.1403	9080
859.5331	8992
861.9253	8959
864.3168	9023
866.7057	8994
869.098	8955
871.4876	8945
873.8746	9009
876.263	9082
878.6487	8988
881.0378	8795
883.4243	8936
885.8081	9053
888.1933	8997
890.5759	8862
892.9598	9057
895.343	8825
897.7256	9045
900.1057	8818
902.4871	8957
904.8659	8952
907.246	9115
909.6254	9171
912.0023	9226
914.3786	9384
916.7562	9451
919.1331	9489
921.5074	9539
923.8831	9786
926.2562	9826
928.6287	9670
931.0005	9556
933.3757	9552
935.7462	9606
938.1162	9571
940.4855	9405
942.8542	9631
945.2242	9546
947.5916	9773
949.9584	9715
952.3266	9819
954.6921	10084
957.0571	10051
959.4233	10355
961.787	10490
964.15	10283
966.5125	10255
968.8742	10048
971.2354	9824
973.5959	9674
975.9559	9570
978.3151	9611
980.6738	9385
983.0338	9444
985.3912	9427
987.7461	9339
990.1022	9417
992.4578	9368
994.8127	9215
997.1689	9260
999.5207	9339
1001.874	9378
1004.226	9370
1006.576	9242
1008.929	9416
1011.28	9262
1013.628	9333
1015.977	9097
1018.324	9136
1020.674	9294
1023.019	9314
1025.366	9324
1027.713	9375
1030.056	9423
1032.399	9370
1034.746	9333
1037.087	9482
1039.431	9551
1041.771	9341
1044.113	9368
1046.454	9319
1048.793	9362
1051.133	9438
1053.471	9497
1055.807	9462
1058.146	9466
1060.483	9430
1062.818	9485
1065.153	9422
1067.489	9478
1069.822	9521
1072.156	9501
1074.488	9518
1076.82	9499
1079.15	9501
1081.48	9625
1083.814	9436
1086.143	9642
1088.471	9572
1090.799	9327
1093.126	9515
1095.452	9542
1097.78	9519
1100.105	9505
1102.43	9538
1104.754	9449
1107.077	9491
1109.4	9443
1111.722	9456
1114.044	9427
1116.365	9608
1118.685	9492
1121.005	9476
1123.324	9616
1125.643	9607
1127.961	9578
1130.278	9728
1132.595	9566
1134.911	9694
1137.226	9606
1139.541	9454
1141.854	9428
1144.167	9441
1146.482	9538
1148.793	9339
1151.105	9584
1153.414	9651
1155.725	9450
1158.033	9451
1160.344	9660
1162.651	9638
1164.959	9649
1167.265	9529
1169.572	9696
1171.878	9610
1174.184	9626
1176.488	9508
1178.79	9752
1181.094	9794
1183.396	9701
1185.699	9627
1188.001	9536
1190.301	9542
1192.6	9540
1194.9	9505
1197.2	9495
1199.497	9631
1201.794	9577
1204.09	9550
1206.387	9590
1208.684	9604
1210.978	9539
1213.272	9560
1215.565	9556
1217.858	9659
1220.15	9622
1222.443	9506
1224.734	9524
1227.024	9796
1229.313	9616
1231.602	9784
1233.892	9689
1236.18	9832
1238.467	9929
1240.754	9876
1243.04	10098
1245.325	9924
1247.612	9954
1249.896	10082
1252.178	10014
1254.461	10123
1256.743	10006
1259.027	9991
1261.308	9916
1263.587	9841
1265.867	10166
1268.146	9973
1270.425	10100
1272.703	10248
1274.981	10026
1277.256	10004
1279.532	10099
1281.808	9927
1284.083	9865
1286.358	9887
1288.63	9906
1290.904	9716
1293.175	9801
1295.449	9817
1297.719	9877
1299.99	9872
1302.259	9932
1304.529	9934
1306.798	9773
1309.065	9809
1311.333	9960
1313.599	9833
1315.866	9895
1318.131	9961
1320.396	10034
1322.66	9789
1324.925	9915
1327.187	10047
1329.448	10002
1331.711	10187
1333.974	10115
1336.234	10036
1338.493	10003
1340.752	9906
1343.01	9924
1345.269	9843
1347.526	9855
1349.784	9854
1352.04	9717
1354.295	9938
1356.552	9713
1358.806	9847
1361.059	9820
1363.312	9633
1365.564	9855
1367.818	9912
1370.069	9960
1372.318	9949
1374.568	9971
1376.817	9922
1379.066	9904
1381.316	9935
1383.564	10042
1385.809	10129
1388.056	10106
1390.301	10214
1392.549	10292
1394.793	10431
1397.036	10397
1399.279	10742
1401.522	10615
1403.763	10477
1406.007	10481
1408.248	10370
1410.487	10334
1412.727	10445
1414.965	10361
1417.205	10430
1419.442	10350
1421.68	10396
1423.915	10255
1426.152	10315
1428.388	10342
1430.623	10222
1432.857	10373
1435.091	10313
1437.323	10440
1439.556	10405
1441.789	10476
1444.019	10326
1446.25	10443
1448.48	10393
1450.708	10320
1452.938	10545
1455.167	10580
1457.394	10485
1459.62	10525
1461.846	10356
1464.073	10421
1466.299	10388
1468.523	10273
1470.746	10105
1472.969	10195
1475.191	10058
1477.415	10234
1479.636	10062
1481.858	10065
1484.078	10059
1486.298	9986
1488.518	9912
1490.736	10008
1492.954	9647
1495.169	9952
1497.386	9864
1499.602	9782
1501.819	9879
1504.034	9917
1506.248	9831
1508.462	9789
1510.675	9988
1512.888	9807
1515.1	9799
1517.311	9842
1519.522	9890
1521.732	9611
1523.942	9866
1526.151	9764
1528.36	9878
1530.566	9758
1532.773	9817
1534.98	9943
1537.187	9786
1539.392	9908
1541.596	9857
1543.801	9905
1546.005	10033
1548.208	10040
1550.411	9845
1552.612	10106
1554.814	10081
1557.013	9993
1559.212	10005
1561.414	10213
1563.612	10000
1565.811	10097
1568.007	10038
1570.203	10082
1572.403	10078
1574.598	10054
1576.792	10150
1578.988	10131
1581.181	10088
1583.376	10030
1585.568	10163
1587.761	10152
1589.952	10116
1592.143	10175
1594.333	10075
1596.524	10116
1598.715	10257
1600.903	10183
1603.091	10113
1605.278	10171
1607.466	10148
1609.652	10214
1611.838	10410
1614.023	10300
1616.207	10221
1618.391	10236
1620.576	10233
1622.759	10095
1624.941	10197
1627.123	10086
1629.304	10142
1631.484	10265
1633.664	10276
1635.844	10311
1638.022	10274
1640.201	10207
1642.38	10261
1644.556	10379
1646.732	10247
1648.908	10256
1651.084	10289
1653.257	10224
1655.433	10364
1657.607	10254
1659.779	10358
1661.951	10310
1664.122	10477
1666.295	10523
1668.467	10391
1670.635	10362
1672.805	10366
1674.973	10364
1677.142	10479
1679.31	10275
1681.478	10184
1683.644	10278
1685.81	10197
1687.975	10283
1690.142	10306
1692.305	10193
1694.468	10385
1696.632	10362
1698.794	10254
1700.957	10238
1703.119	10033
1705.279	10237
1707.439	10101
1709.598	10233
1711.758	10059
1713.917	10045
1716.075	10058
1718.231	10030
1720.388	10189
1722.543	10037
1724.702	10197
1726.856	9935
1729.01	10263
1731.164	10149
1733.317	10066
1735.471	10123
1737.623	9976
1739.774	10244
1741.925	10109
1744.075	10085
1746.225	10158
1748.376	10227
1750.524	10078
1752.672	10249
1754.82	10130
1756.965	10251
1759.113	10242
1761.259	10126
1763.405	10170
1765.549	10268
1767.694	10255
1769.836	10178
1771.981	10095
1774.123	10246
1776.264	10129
1778.405	10167
1780.546	10222
1782.687	10155
1784.827	10273
1786.966	10219
1789.103	10181
1791.242	10278
1793.381	10167
1795.517	10186
1797.653	10238
1799.788	10175
1801.923	10154
1804.057	10209
1806.193	10189
1808.326	10285
1810.457	10209
1812.59	10244
1814.721	10243
1816.855	10387
1818.984	10227
1821.113	10001
1823.244	10073
1825.372	10207
1827.499	10310
1829.63	10176
1831.756	10270
1833.882	10211
1836.007	10030
1838.132	10103
1840.26	10215
1842.384	10142
1844.507	10044
1846.63	10038
1848.752	10167
1850.875	10163
1852.996	10062
1855.118	9944
1857.238	9900
1859.358	9951
1861.477	10192
1863.597	10125
1865.715	10083
1867.832	10091
1869.948	10075
1872.064	10074
1874.181	10083
1876.297	10068
1878.411	9950
1880.526	10097
1882.639	9960
1884.752	10230
1886.865	10144
1888.977	10136
1891.089	10026
1893.2	10201
1895.308	9986
1897.42	10085
1899.53	10178
1901.639	10134
1903.745	10377
1905.853	10293
1907.962	10238
1910.067	10140
1912.174	10068
1914.278	10218
1916.383	10207
1918.486	10222
1920.592	10203
1922.694	10178
1924.797	10200
1926.898	10358
1929	10240
1931.102	10297
1933.203	10216
1935.301	10322
1937.401	10149
1939.499	10266
1941.598	10346
1943.697	10231
1945.793	10223
1947.888	10365
1949.985	10150
1952.08	10272
1954.176	10214
1956.269	10137
1958.364	10295
1960.457	10237
1962.549	10212
1964.642	10228
1966.733	10327
1968.823	10227
1970.913	10091
1973.005	10314
1975.093	10131
1977.184	10108
1979.271	10218
1981.359	10135
1983.446	10230
1985.532	10065
1987.619	10216
1989.705	10124
1991.789	10068
1993.874	10044
1995.956	10017
1998.041	10170
2000.123	10290
2002.206	10147
2004.287	10248
2006.368	9970
2008.449	10127
2010.529	10070
2012.609	10000
2014.688	10099
2016.766	10084
2018.843	10076
2020.922	10062
2022.999	9897
2025.074	10132
2027.15	10178
2029.225	9963
2031.299	10187
2033.375	10135
2035.447	10091
2037.52	10013
2039.592	9998
2041.664	10057
2043.736	9997
2045.807	10201
2047.876	10050
2049.947	10040
2052.015	9995
2054.086	9979
2056.153	10159
2058.221	9958
2060.288	10046
2062.353	10141
2064.42	10011
2066.486	9992
2068.55	10010
2070.614	10022
2072.678	10155
2074.741	9981
2076.805	10080
2078.866	10060
2080.929	10033
2082.99	10020
2085.049	10017
2087.109	10147
2089.17	10100
2091.228	10100
2093.286	10033
2095.344	10155
2097.4	10142
2099.46	9975
2101.516	10075
2103.572	9938
2105.626	9981
2107.679	10023
2109.735	10181
2111.788	10090
2113.841	10114
2115.894	10056
2117.945	10026
2119.997	10059
2122.049	10030
2124.1	10190
2126.148	10009
2128.197	10097
2130.246	10035
2132.296	10077
2134.342	10077
2136.39	10097
2138.437	10071
2140.483	10029
2142.527	10031
2144.574	10019
2146.619	10103
2148.661	10059
2150.705	10054
2152.747	10062
2154.792	9913
2156.832	9965
2158.874	10046
2160.915	9976
2162.954	9910
2164.995	10045
2167.034	9951
2169.072	10013
2171.111	9905
2173.148	9871
2175.186	9834
2177.223	9857
2179.258	9857
2181.294	9926
2183.328	9855
2185.362	9694
2187.398	9823
2189.431	9751
2191.463	9767
2193.495	9917
2195.528	9811
2197.56	9710
2199.59	9897
2201.62	9818
2203.649	9725
2205.678	9684
2207.708	9673
2209.737	9881
2211.764	9792
2213.791	9741
2215.817	9646
2217.843	9839
2219.87	9730
2221.895	9716
2223.919	9861
2225.942	9724
2227.966	9714
2229.988	9679
2232.012	9726
2234.032	9720
2236.054	9759
2238.074	9616
2240.095	9727
2242.116	9703
2244.135	9776
2246.153	9800
2248.171	9636
2250.188	9744
2252.208	9657
2254.223	9780
2256.239	9688
2258.255	9670
2260.269	9616
2262.283	9799
2264.3	9730
2266.312	9709
2268.325	9615
2270.336	9650
2272.349	9785
2274.362	9805
2276.372	9829
2278.383	9687
2280.392	9735
2282.402	9798
2284.409	9720
2286.418	9635
2288.427	9779
2290.433	9734
2292.441	9571
2294.446	9612
2296.453	9662
2298.459	9685
2300.463	9538
2302.466	9498
2304.471	9543
2306.475	9718
2308.477	9559
2310.478	9554
2312.481	9666
2314.481	9638
2316.481	9537
2318.482	9553
2320.482	9588
2322.48	9554
2324.48	9613
2326.478	9655
2328.476	9489
2330.473	9541
2332.469	9512
2334.465	9514
2336.46	9537
2338.454	9658
2340.45	9491
2342.444	9342
2344.437	9413
2346.43	9569
2348.421	9470
2350.414	9399
2352.405	9439
2354.396	9521
2356.386	9456
2358.376	9350
2360.366	9321
2362.355	9531
2364.343	9397
2366.331	9472
2368.317	9546
2370.304	9409
2372.292	9281
2374.278	9382
2376.262	9363
2378.247	9278
2380.23	9343
2382.216	9397
2384.199	9321
2386.181	9351
2388.163	9272
2390.144	9431
2392.127	9270
2394.107	9370
2396.087	9342
2398.066	9330
2400.046	9303
2402.023	9375
2404.004	9194
2405.981	9323
2407.957	9414
2409.934	9301
2411.91	9250
2413.886	9401
2415.862	9193
2417.836	9257
2419.809	9233
2421.784	9330
2423.756	9289
2425.73	9201
2427.701	9268
2429.672	9358
2431.644	9312
2433.615	9286
2435.586	9208
2437.555	9271
2439.523	9298
2441.491	9147
2443.459	9313
2445.428	9292
2447.395	9078
2449.361	9240
2451.327	9262
2453.292	9053
2455.257	9287
2457.223	9180
2459.187	9260
2461.15	9293
2463.113	8953
2465.076	9173
2467.039	9195
2468.999	9204
2470.96	9113
2472.921	9132
2474.881	9201
2476.841	9186
2478.8	9171
2480.759	9162
2482.717	9250
2484.675	9194
2486.63	9103
2488.589	9194
2490.545	9190
2492.5	9047
2494.455	9174
2496.408	8967
2498.364	9091
2500.318	9280
2502.27	8912
2504.223	9066
2506.174	9120
2508.126	8993
2510.078	8999
2512.03	8903
2513.979	9117
2515.927	9064
2517.877	9077
2519.826	9024
2521.775	8996
2523.722	9059
2525.668	9098
2527.616	9204
2529.561	9164
2531.508	9023
2533.452	8948
2535.398	9036
2537.342	8923
2539.284	8855
2541.229	8915
2543.173	9087
2545.114	8873
2547.055	9091
2548.996	9078
2550.938	8892
2552.878	8952
2554.817	8975
2556.756	8992
2558.695	9017
2560.633	8949
2562.572	9006
2564.509	8997
2566.445	8943
2568.382	8889
2570.317	9018
2572.254	9071
2574.189	9014
2576.123	9008
2578.057	8940
2579.99	8905
2581.923	9004
2583.855	8942
2585.788	9017
2587.719	8972
2589.65	9060
2591.579	9002
2593.511	8941
2595.44	9002
2597.37	8961
2599.297	8976
2601.225	9075
2603.153	8879
2605.08	9046
2607.007	8914
2608.932	8912
2610.858	8965
2612.782	8908
2614.709	9154
2616.632	8829
2618.556	8871
2620.478	9035
2622.401	8934
2624.324	8967
2626.247	8995
2628.167	8894
2630.088	8987
2632.008	8982
2633.928	9023
2635.848	8866
2637.766	9016
2639.684	8869
2641.603	9057
2643.519	9021
2645.437	9009
2647.353	9110
2649.27	8932
2651.184	9013
2653.099	9002
2655.014	8867
2656.928	8973
2658.842	8940
2660.755	8863
2662.667	8818
2664.579	9052
2666.491	9120
2668.402	8958
2670.312	8888
2672.222	8811
2674.132	8865
2676.042	8915
2677.951	8738
2679.859	8852
2681.766	8990
2683.674	8747
2685.582	8939
2687.488	8710
2689.392	8971
2691.298	8822
2693.202	8784
2695.107	8908
2697.012	8828
2698.914	8793
2700.817	8713
2702.72	8875
2704.622	8807
2706.524	8849
2708.425	8834
2710.326	8892
2712.225	8804
2714.125	8755
2716.024	8720
2717.923	8727
2719.822	8706
2721.719	8675
2723.616	8858
2725.512	8883
2727.41	8866
2729.305	8631
2731.201	8746
2733.095	8669
2734.99	8690
2736.884	8790
2738.778	8763
2740.67	8802
2742.562	8639
2744.455	8738
2746.346	8787
2748.238	8720
2750.129	8606
2752.018	8602
2753.907	8559
2755.797	8750
2757.687	8606
2759.575	8716
2761.462	8743
2763.349	8737
2765.237	8746
2767.124	8601
2769.009	8747
2770.894	8677
2772.779	8746
2774.663	8669
2776.547	8504
2778.431	8598
2780.314	8662
2782.197	8637
2784.078	8569
2785.96	8581
2787.842	8713
2789.723	8619
2791.603	8616
2793.483	8475
2795.362	8721
2797.241	8689
2799.121	8579
2800.997	8603
2802.874	8639
2804.751	8529
2806.628	8614
2808.506	8547
2810.38	8583
2812.255	8715
2814.13	8564
2816.003	8622
2817.878	8600
2819.752	8590
2821.623	8751
2823.496	8687
2825.368	8656
2827.238	8624
2829.111	8654
2830.98	8643
2832.851	8618
2834.719	8576
2836.589	8454
2838.458	8761
2840.327	8662
2842.193	8757
2844.061	8654
2845.927	8740
2847.794	8646
2849.66	8747
2851.525	8774
2853.39	8690
2855.254	8698
2857.117	8763
2858.983	8927
2860.845	8733
2862.707	8843
2864.569	8927
2866.431	8936
2868.293	8931
2870.154	8964
2872.013	9056
2873.873	9022
2875.733	9184
2877.592	9187
2879.451	9279
2881.309	9302
2883.166	9445
2885.022	9466
2886.879	9528
2888.736	9458
2890.591	9788
2892.446	9727
2894.301	9802
2896.155	9637
2898.009	9908
2899.863	9764
2901.716	9720
2903.568	9624
2905.419	9602
2907.27	9587
2909.123	9609
2910.973	9642
2912.824	9580
2914.673	9731
2916.521	9719
2918.372	9776
2920.22	9883
2922.067	10020
2923.914	9861
2925.761	10089
2927.607	10134
2929.455	10121
2931.301	9976
2933.144	10004
2934.99	10027
2936.833	10360
2938.678	10317
2940.522	10220
2942.364	10341
2944.207	10684
2946.048	10855
2947.891	10951
2949.731	11055
2951.571	11119
2953.412	11342
2955.25	10947
2957.09	10920
2958.93	10951
2960.767	10779
2962.606	10698
2964.443	10783
2966.279	10623
2968.116	10333
2969.953	10020
2971.788	10025
2973.623	9723
2975.457	9633
2977.292	9535
2979.127	9473
2980.959	9562
2982.792	9373
2984.624	9237
2986.455	9125
2988.288	9025
2990.119	9074
2991.949	8943
2993.779	9122
2995.608	8887
2997.439	8883
2999.268	9043
3001.096	8853
3002.923	8653
3004.751	8646
3006.578	8567
3008.406	8548
3010.232	8651
3012.057	8514
3013.883	8397
3015.706	8508
3017.532	8354
3019.356	8328
3021.179	8284
3023.002	8479
3024.823	8246
3026.646	8203
3028.469	8313
3030.289	8255
3032.11	8219
3033.93	8172
3035.749	8144
3037.57	8042
3039.39	8106
3041.207	8171
3043.026	8146
3044.842	8116
3046.661	8139
3048.477	8040
3050.294	8199
3052.109	8114
3053.925	8026
3055.739	8074
3057.555	8101
3059.368	8147
3061.181	8163
3062.995	8015
3064.807	8095
3066.62	7940
3068.433	8068
3070.243	7976
3072.054	7871
3073.865	8072
3075.675	7947
3077.485	8095
3079.293	8011
3081.102	8028
3082.911	8022
3084.719	7866
3086.527	7803
3088.333	7853
3090.139	7918
3091.945	7760
3093.75	7972
3095.557	7857
3097.361	7808
3099.165	7948
3100.969	7756
3102.772	7803
3104.575	7776
3106.379	7767
3108.181	7785
3109.982	7809
3111.783	7776
3113.584	7719
3115.386	7771
3117.186	7574
3118.985	7721
3120.783	7695
3122.582	7695
3124.381	7713
3126.179	7535
3127.975	7587
3129.772	7676
3131.569	7676
3133.365	7573
3135.161	7788
3136.956	7646
3138.751	7478
3140.544	7561
3142.338	7562
3144.132	7620
3145.925	7700
3147.717	7564
3149.509	7705
3151.301	7647
3153.091	7568
3154.884	7623
3156.673	7605
3158.462	7574
3160.252	7508
3162.041	7453
3163.831	7424
3165.618	7595
3167.405	7482
3169.193	7430
3170.979	7516
3172.767	7538
3174.553	7409
3176.338	7462
3178.123	7419
3179.907	7458
3181.692	7472
3183.477	7518
3185.259	7543
3187.042	7402
3188.824	7398
3190.607	7699
3192.389	7599
3194.17	7569
3195.951	7378
3197.73	7429
3199.51	7425
3201.289	7459
3203.07	7532
3204.848	7627
3206.626	7367
3208.403	7477
3210.18	7363
3211.959	7430
3213.735	7391
3215.511	7381
3217.285	7428
3219.06	7424
3220.836	7393
3222.611	7439
3224.384	7461
3226.158	7400
3227.929	7347
3229.702	7444
3231.476	7379
3233.248	7368
3235.018	7413
3236.789	7395
3238.56	7402
3240.33	7346
3242.1	7410
3243.869	7273
3245.637	7329
3247.405	7375
3249.172	7423
3250.941	7313
3252.707	7306
3254.474	7362
3256.24	7336
3258.006	7351
3259.772	7266
3261.537	7415
3263.301	7515
3265.065	7368
3266.828	7336
3268.592	7304
3270.355	7371
3272.117	7297
3273.878	7342
3275.64	7402
3277.401	7340
3279.162	7360
3280.922	7353
3282.682	7198
3284.441	7344
3286.199	7306
3287.959	7329
3289.716	7293
3291.475	7294
3293.232	7323
3294.988	7217
3296.744	7229
3298.501	7210
3300.256	7173
3302.011	7281
3303.766	7224
3305.52	7236
3307.275	7282
3309.028	7227
3310.781	7254
3312.533	7338
3314.285	7239
3316.038	7119
3317.789	7225
3319.54	7294
3321.289	7191
3323.039	7395
3324.789	7177
3326.539	7218
3328.288	7104
3330.035	7156
3331.783	7071
3333.531	7145
3335.28	7240
3337.025	7116
3338.771	7225
3340.518	7168
3342.262	7128
3344.009	7172
3345.753	7243
3347.497	7162
3349.24	7052
3350.983	7075
3352.726	7085
3354.469	7088
3356.212	7016
3357.952	7021
3359.694	7043
3361.434	7070
3363.176	6984
3364.916	7107
3366.654	6946
3368.394	7066
3370.132	7072
3371.871	7076
3373.61	6967
3375.346	6904
3377.083	6967
3378.82	6824
3380.556	7003
3382.292	6864
3384.027	7055
3385.763	6873
3387.497	6979
3389.231	6876
3390.965	6871
3392.698	6923
3394.431	6974
3396.164	6935
3397.896	6885
3399.627	6929
3401.36	6994
3403.09	6907
3404.82	6932
3406.55	6943
3408.279	6848
3410.01	6853
3411.738	6935
3413.467	6762
3415.194	6857
3416.92	7047
3418.647	6781
3420.375	6739
3422.102	6862
3423.827	6858
3425.553	6978
3427.277	6867
3429.003	6770
3430.727	6739
3432.451	6781
3434.173	6817
3435.896	6690
3437.62	6659
3439.343	6614
3441.063	6803
3442.785	6788
3444.505	6727
3446.226	6689
3447.948	6661
3449.666	6627
3451.386	6728
3453.104	6703
3454.823	6784
3456.541	6605
3458.259	6588
3459.976	6501
3461.693	6521
3463.408	6657
3465.125	6612
3466.841	6563
3468.556	6523
3470.271	6484
3471.985	6530
3473.698	6486
3475.414	6512
3477.126	6501
3478.838	6510
3480.55	6468
3482.263	6554
3483.975	6541
3485.686	6513
3487.396	6425
3489.106	6525
3490.817	6352
3492.526	6530
3494.236	6325
3495.944	6439
3497.652	6348
3499.359	6346
3501.066	6381
3502.775	6379
3504.481	6341
3506.187	6417
3507.893	6331
3509.598	6249
3511.304	6325
3513.009	6300
3514.713	6250
3516.417	6207
3518.12	6286
3519.821	6381
3521.525	6222
3523.228	6259
3524.929	6170
3526.631	6330
3528.33	6194
3530.032	6268
3531.733	6226
3533.433	6134
3535.131	6117
3536.83	6249
3538.529	6306
3540.227	6140
3541.925	6146
3543.623	6221
3545.319	6181
3547.016	6183
3548.712	5947
3550.408	6098
3552.103	6160
3553.798	6130
3555.491	6087
3557.188	5974
3558.88	6049
3560.574	6111
3562.266	6106
3563.959	6099
3565.651	6075
3567.343	6127
3569.035	6133
3570.725	6027
3572.415	6027
3574.106	6031
3575.797	6032
3577.485	5985
3579.174	6069
3580.863	6061
3582.551	6115
3584.238	5980
3585.926	6020
3587.613	5921
3589.3	6007
3590.986	6058
3592.671	5938
3594.357	5942
3596.042	5908
3597.726	5870
3599.41	5914
3601.094	5797
3602.778	5880
3604.461	5861
3606.143	5876
3607.825	5865
3609.507	5804
3611.188	5848
3612.87	5690
3614.551	5716
3616.229	5823
3617.909	5708
3619.589	5761
3621.269	5827
3622.948	5781
3624.625	5705
3626.302	5669
3627.98	5767
3629.657	5764
3631.334	5690
3633.01	5767
3634.686	5655
3636.361	5565
3638.036	5656
3639.712	5719
3641.385	5781
3643.06	5604
3644.732	5587
3646.405	5648
3648.08	5668
3649.751	5632
3651.424	5693
3653.094	5527
3654.766	5630
3656.436	5630
3658.106	5606
3659.777	5519
3661.446	5468
3663.115	5562
3664.783	5665
3666.452	5560
3668.121	5549
3669.788	5506
3671.454	5569
3673.121	5477
3674.789	5448
3676.455	5406
3678.12	5510
3679.784	5604
3681.45	5604
3683.114	5486
3684.779	5482
3686.442	5505
3688.105	5513
3689.768	5458
3691.43	5639
3693.093	5488
3694.754	5552
3696.415	5414
3698.076	5445
3699.736	5412
3701.396	5432
3703.057	5399
3704.716	5462
3706.375	5508
3708.034	5429
3709.692	5406
3711.351	5434
3713.008	5473
3714.665	5490
3716.321	5390
3717.977	5438
3719.634	5360
3721.29	5304
3722.945	5372
3724.598	5418
3726.253	5390
3727.907	5299
3729.561	5364
3731.214	5392
3732.867	5385
3734.518	5314
3736.171	5366
3737.824	5333
3739.474	5342
3741.125	5298
3742.775	5314
3744.425	5285
3746.074	5390
3747.725	5298
3749.373	5239
3751.022	5297
3752.669	5304
3754.318	5209
3755.966	5290
3757.612	5303
3759.259	5224
3760.905	5130
3762.55	5316
3764.197	5222
3765.842	5330
3767.486	5267
3769.131	5144
3770.774	5229
3772.417	5078
3774.061	5380
3775.705	5089
3777.347	5153
3778.988	5189
3780.629	5293
3782.271	5159
3783.912	5240
3785.552	5155
3787.192	5221
3788.831	5194
3790.472	5163
3792.112	5134
3793.75	5186
3795.388	5150
3797.024	5107
3798.661	5144
3800.3	5092
3801.936	5064
3803.572	5074
3805.208	5058
3806.844	5092
3808.48	5048
3810.115	5101
3811.748	5032
3813.382	5043
3815.016	5013
3816.649	5018
3818.283	4982
3819.914	5001
3821.547	5133
3823.178	4954
3824.809	5033
3826.441	4911
3828.072	4987
3829.701	5027
3831.331	4991
3832.96	4982
3834.591	5010
3836.219	4988
3837.847	5017
3839.475	4926
3841.102	4990
3842.729	5025
3844.357	5045
3845.984	4984
3847.609	5040
3849.234	4951
3850.86	4970
3852.485	4988
3854.11	4901
3855.734	4882
3857.357	4966
3858.981	5013
3860.603	4939
3862.227	4968
3863.848	4830
3865.471	4830
3867.092	4918
3868.713	4886
3870.334	4868
3871.954	4844
3873.575	4886
3875.194	4850
3876.813	4861
3878.433	4757
3880.051	4833
3881.669	4833
3883.286	4864
3884.904	4786
3886.52	4886
3888.138	4804
3889.754	4882
3891.37	4899
3892.985	4831
3894.6	4847
3896.216	4863
3897.831	4748
3899.444	4842
3901.058	4871
3902.67	4875
3904.283	4828
3905.897	4772
3907.509	4843
3909.121	4895
3910.731	4823
3912.342	4816
3913.954	4863
3915.563	4623
3917.174	4748
3918.783	4822
3920.391	4805
3922.002	4777
3923.611	4815
3925.218	4758
3926.826	4800
3928.432	4812
3930.039	4849
3931.647	4723
3933.253	4642
3934.859	4700
3936.464	4738
3938.068	4734
3939.675	4754
3941.278	4646
3942.883	4667
3944.486	4820
3946.089	4714
3947.692	4630
3949.295	4675
3950.898	4574
3952.499	4569
3954.1	4610
3955.7	4608
3957.303	4583
3958.903	4643
3960.502	4801
3962.101	4653
3963.7	4570
3965.301	4663
3966.899	4584
3968.497	4673
3970.094	4662
3971.691	4635
3973.288	4480
3974.885	4660
3976.481	4657
3978.077	4600
3979.672	4523
3981.267	4497
3982.863	4538
3984.457	4628
3986.051	4615
3987.645	4556
3989.238	4516
3990.831	4570
3992.425	4569
3994.017	4546
3995.607	4496
3997.199	4492
3998.79	4489
4000.382	4456
4001.973	4467
4003.561	4451
4005.151	4477
4006.741	4468
4008.331	4479
4009.918	4385
4011.507	4459
4013.095	4457
4014.681	4403
4016.269	4380
4017.856	4408
4019.443	4429
4021.028	4487
4022.614	4491
4024.199	4406
4025.785	4439
4027.37	4401
4028.953	4393
4030.536	4410
4032.12	4324
4033.704	4419
4035.287	4411
4036.869	4424
4038.45	4459
4040.032	4329
4041.613	4291
4043.195	4384
4044.776	4284
4046.356	4368
4047.935	4297
4049.515	4237
4051.095	4346
4052.674	4260
4054.251	4236
4055.829	4257
4057.406	4283
4058.985	4269
4060.562	4206
4062.139	4302
4063.715	4272
4065.29	4262
4066.865	4204
4068.442	4268
4070.016	4289
4071.59	4252
4073.164	4251
4074.738	4255
4076.312	4249
4077.885	4274
4079.458	4207
4081.03	4198
4082.602	4245
4084.173	4239
4085.745	4115
4087.315	4203
4088.886	4222
4090.456	4210
4092.026	4227
4093.596	4226
4095.165	4183
4096.734	4322
4098.301	4272
4099.869	4163
4101.437	4130
4103.006	4190
4104.572	4191
4106.139	4207
4107.704	4159
4109.27	4075
4110.837	4074
4112.401	4106
4113.966	4082
4115.53	4090
4117.094	4029
4118.659	4173
4120.223	4074
4121.785	4226
4123.347	4172
4124.909	4109
4126.471	4100
4128.034	4131
4129.595	4151
4131.155	4058
4132.716	4074
4134.275	4023
4135.836	4066
4137.395	4078
4138.955	4047
4140.513	4063
4142.071	4173
4143.628	4002
4145.188	3953
4146.745	4039
4148.302	4016
4149.858	4064
4151.414	3953
4152.971	4103
4154.526	4003
4156.081	4003
4157.635	4013
4159.189	3985
4160.745	3897
4162.298	3972
4163.852	3929
4165.405	4021
4166.957	3944
4168.51	4006
4170.063	3987
4171.614	3976
4173.166	3917
4174.717	3832
4176.267	3953
4177.817	3929
4179.368	3975
4180.917	3888
4182.466	3940
4184.016	3959
4185.564	3900
4187.112	3846
4188.66	3850
4190.207	3863
4191.754	3897
4193.301	3862
4194.848	3825
4196.394	3852
4197.94	3892
4199.484	3789
4201.03	3880
4202.575	3906
4204.12	3890
4205.663	3862
4207.207	3812
4208.75	3867
4210.292	3715
4211.836	3873
4213.378	3723
4214.92	3736
4216.46	3812
4218.002	3812
4219.544	3822
4221.083	3675
4222.625	3798
4224.164	3713
4225.703	3756
4227.244	3763
4228.782	3774
4230.32	3836
4231.857	3723
4233.395	3706
4234.933	3844
4236.471	3791
4238.007	3761
4239.542	3759
4241.078	3807
4242.614	3741
4244.15	3733
4245.685	3795
4247.219	3733
4248.753	3754
4250.287	3713
4251.82	3646
4253.354	3717
4254.887	3781
4256.419	3737
4257.951	3735
4259.483	3717
4261.016	3706
4262.547	3734
4264.078	3694
4265.608	3723
4267.137	3623
4268.668	3812
4270.197	3633
4271.727	3719
4273.254	3602
4274.783	3688
4276.311	3631
4277.84	3607
4279.366	3646
4280.894	3580
4282.42	3633
4283.946	3709
4285.473	3632
4286.998	3637
4288.523	3635
4290.047	3608
4291.572	3580
4293.096	3535
4294.622	3698
4296.144	3620
4297.668	3624
4299.19	3566
4300.713	3660
4302.236	3617
4303.758	3620
4305.279	3564
4306.799	3637
4308.321	3519
4309.842	3478
4311.361	3600
4312.882	3576
4314.401	3592
