400.0961	4200
402.6185	4215
405.1424	4205
407.6635	4177
410.1838	4212
412.7035	4255
415.2225	4186
417.7388	4235
420.2585	4080
422.7754	4299
425.2917	4473
427.8072	4396
430.3221	4394
432.8363	4423
435.3498	4467
437.8626	4384
440.3727	4520
442.8841	4559
445.3969	4524
447.907	4530
450.4142	4491
452.9229	4386
455.4289	4460
457.9362	4473
460.4449	4453
462.9488	4381
465.454	4471
467.9566	4449
470.4604	4427
472.9637	4405
475.4662	4472
477.966	4496
480.4671	4512
482.9656	4580
485.4633	4554
487.9645	4640
490.4608	4528
492.9566	4607
495.4536	4514
497.948	4640
500.4437	4579
502.9387	4666
505.431	4586
507.9226	4702
510.4136	4560
512.9079	4685
515.3975	4692
517.8864	4643
520.3746	4648
522.8622	4681
525.3491	4637
527.8394	4739
530.3249	4774
532.8098	4639
535.2939	4663
537.7774	4721
540.2623	4674
542.7444	4638
545.2259	4808
547.7067	4730
550.1868	4694
552.6683	4726
555.147	4712
557.6231	4743
560.1005	4803
562.5773	4726
565.0534	4768
567.5308	4851
570.0056	4856
572.4776	4818
574.951	4801
577.4237	4787
579.8978	4845
582.3671	4757
584.8378	4827
587.3079	4887
589.7773	4837
592.244	4913
594.714	4906
597.1793	4930
599.6461	4856
602.1121	4831
604.5754	4847
607.0421	4811
609.5042	4812
611.9675	4909
614.4282	4826
616.8902	4858
619.3515	4892
621.8122	4856
624.2702	4890
626.7296	4826
629.1863	4803
631.6423	4933
634.1017	4856
636.5563	4773
639.0104	4796
641.4658	4850
643.9185	4836
646.3725	4926
648.8239	4924
651.2766	4905
653.7266	4852
656.176	4921
658.6247	4903
661.0748	4948
663.5242	5027
665.9709	4996
668.417	5033
670.8624	4982
673.3092	4938
675.7533	4905
678.1968	4925
680.6395	5039
683.0817	4946
685.5251	5042
687.9659	5052
690.4061	4959
692.8456	5028
695.2844	5046
697.7226	5091
700.1621	5060
702.599	5040
705.0332	4991
707.4688	5054
709.9036	5175
712.3399	5119
714.7735	5060
717.2044	5123
719.6367	5143
722.0683	5066
724.4993	5237
726.9296	5129
729.3593	5149
731.7883	5202
734.2147	5173
736.6423	5269
739.0714	5226
741.4958	5264
743.9216	5254
746.3447	5359
748.7691	5246
751.1929	5295
753.616	5271
756.0366	5414
758.4584	5411
760.8776	5382
763.2982	5386
765.718	5377
768.1373	5504
770.5539	5513
772.9698	5359
775.3871	5358
777.8038	5383
780.2178	5448
782.6332	5427
785.0459	5463
787.458	5448
789.8714	5405
792.2842	5474
794.6943	5435
797.1038	5339
799.5127	5447
801.9209	5359
804.3324	5477
806.7393	5539
809.1456	5519
811.5513	5456
813.9562	5343
816.3625	5502
818.7663	5486
821.1693	5589
823.5718	5503
825.9735	5530
828.3746	5418
830.7771	5471
833.177	5515
835.5762	5462
837.9747	5443
840.3727	5491
842.772	5615
845.1666	5534
847.5626	5616
849.958	5522
852.3527	5608
854.7488	5644
857.1403	5655
859.5331	5619
861.9253	5437
864.3168	5520
866.7057	5546
869.098	5651
871.4876	5586
873.8746	5672
876.263	5618
878.6487	5615
881.0378	5568
883.4243	5602
885.8081	5490
888.1933	5504
890.5759	5611
892.9598	5596
895.343	5536
897.7256	5595
900.1057	5632
902.4871	5446
904.8659	5649
907.246	5646
909.6254	5744
912.0023	5675
914.3786	5790
916.7562	5790
919.1331	5829
921.5074	5862
923.8831	5937
926.2562	5957
928.6287	5844
931.0005	5920
933.3757	5925
935.7462	5972
938.1162	5931
940.4855	5924
942.8542	5901
945.2242	5876
947.5916	5855
949.9584	6008
952.3266	6057
954.6921	6318
957.0571	6383
959.4233	6514
961.787	6529
964.15	6474
966.5125	6413
968.8742	6357
971.2354	6220
973.5959	6004
975.9559	5878
978.3151	5838
980.6738	5961
983.0338	5855
985.3912	5766
987.7461	5822
990.1022	5915
992.4578	5877
994.8127	5675
997.1689	5872
999.5207	5807
1001.874	5863
1004.226	5842
1006.576	5701
1008.929	5784
1011.28	5832
1013.628	5811
1015.977	5790
1018.324	5743
1020.674	5792
1023.019	5757
1025.366	5864
1027.713	5755
1030.056	5780
1032.399	5831
1034.746	5838
1037.087	5916
1039.431	5794
1041.771	5843
1044.113	5885
1046.454	5801
1048.793	5844
1051.133	5893
1053.471	5836
1055.807	5876
1058.146	5867
1060.483	5849
1062.818	5875
1065.153	5992
1067.489	5989
1069.822	5901
1072.156	5930
1074.488	5862
1076.82	6067
1079.15	5871
1081.48	5876
1083.814	5768
1086.143	5895
1088.471	5979
1090.799	5966
1093.126	5932
1095.452	5975
1097.78	6022
1100.105	5861
1102.43	5968
1104.754	5881
1107.077	5953
1109.4	5909
1111.722	5972
1114.044	5909
1116.365	5884
1118.685	5992
1121.005	5988
1123.324	6002
1125.643	6012
1127.961	5981
1130.278	5999
1132.595	5949
1134.911	5979
1137.226	5900
1139.541	6013
1141.854	5931
1144.167	5957
1146.482	6053
1148.793	6084
1151.105	6024
1153.414	5969
1155.725	5994
1158.033	5953
1160.344	6009
1162.651	6026
1164.959	5951
1167.265	5991
1169.572	5950
1171.878	6114
1174.184	5941
1176.488	5995
1178.79	6114
1181.094	6075
1183.396	6023
1185.699	6044
1188.001	6067
1190.301	5947
1192.6	6025
1194.9	5984
1197.2	6049
1199.497	5986
1201.794	6078
1204.09	6020
1206.387	6069
1208.684	5987
1210.978	5969
1213.272	6100
1215.565	5994
1217.858	6047
1220.15	6080
1222.443	6132
1224.734	6077
1227.024	6125
1229.313	6060
1231.602	6093
1233.892	6086
1236.18	6247
1238.467	6174
1240.754	6232
1243.04	6094
1245.325	6223
1247.612	6258
1249.896	6206
1252.178	6245
1254.461	6168
1256.743	6381
1259.027	6228
1261.308	6138
1263.587	6119
1265.867	6336
1268.146	6322
1270.425	6449
1272.703	6284
1274.981	6376
1277.256	6219
1279.532	6207
1281.808	6168
1284.083	6183
1286.358	6234
1288.63	6200
1290.904	6250
1293.175	6150
1295.449	6186
1297.719	6281
1299.99	6178
1302.259	6280
1304.529	6172
1306.798	6260
1309.065	6050
1311.333	6181
1313.599	6119
1315.866	6186
1318.131	6306
1320.396	6254
1322.66	6212
1324.925	6080
1327.187	6207
1329.448	6318
1331.711	6240
1333.974	6305
1336.234	6215
1338.493	6228
1340.752	6275
1343.01	6082
1345.269	6179
1347.526	6262
1349.784	6204
1352.04	6135
1354.295	6163
1356.552	6248
1358.806	6249
1361.059	6259
1363.312	6220
1365.564	6211
1367.818	6139
1370.069	6264
1372.318	6180
1374.568	6276
1376.817	6186
1379.066	6126
1381.316	6298
1383.564	6228
1385.809	6242
1388.056	6259
1390.301	6335
1392.549	6332
1394.793	6549
1397.036	6336
1399.279	6417
1401.522	6483
1403.763	6419
1406.007	6626
1408.248	6593
1410.487	6483
1412.727	6536
1414.965	6431
1417.205	6480
1419.442	6522
1421.68	6509
1423.915	6406
1426.152	6392
1428.388	6359
1430.623	6394
1432.857	6537
1435.091	6378
1437.323	6541
1439.556	6447
1441.789	6623
1444.019	6504
1446.25	6381
1448.48	6514
1450.708	6558
1452.938	6648
1455.167	6610
1457.394	6595
1459.62	6458
1461.846	6506
1464.073	6424
1466.299	6455
1468.523	6505
1470.746	6501
1472.969	6355
1475.191	6407
1477.415	6302
1479.636	6369
1481.858	6336
1484.078	6304
1486.298	6239
1488.518	6283
1490.736	6155
1492.954	6279
1495.169	6136
1497.386	6274
1499.602	6312
1501.819	6202
1504.034	6244
1506.248	6088
1508.462	6133
1510.675	6266
1512.888	6269
1515.1	6242
1517.311	6291
1519.522	6169
1521.732	6184
1523.942	6130
1526.151	6083
1528.36	6182
1530.566	6325
1532.773	6248
1534.98	6200
1537.187	6261
1539.392	6241
1541.596	6291
1543.801	6203
1546.005	6294
1548.208	6266
1550.411	6315
1552.612	6207
1554.814	6380
1557.013	6268
1559.212	6284
1561.414	6251
1563.612	6287
1565.811	6381
1568.007	6410
1570.203	6349
1572.403	6368
1574.598	6341
1576.792	6320
1578.988	6398
1581.181	6307
1583.376	6479
1585.568	6327
1587.761	6452
1589.952	6383
1592.143	6432
1594.333	6375
1596.524	6433
1598.715	6444
1600.903	6361
1603.091	6322
1605.278	6452
1607.466	6424
1609.652	6444
1611.838	6465
1614.023	6501
1616.207	6516
1618.391	6463
1620.576	6463
1622.759	6474
1624.941	6431
1627.123	6320
1629.304	6414
1631.484	6500
1633.664	6532
1635.844	6493
1638.022	6507
1640.201	6557
1642.38	6539
1644.556	6574
1646.732	6508
1648.908	6484
1651.084	6487
1653.257	6475
1655.433	6551
1657.607	6476
1659.779	6575
1661.951	6528
1664.122	6530
1666.295	6501
1668.467	6566
1670.635	6483
1672.805	6657
1674.973	6590
1677.142	6544
1679.31	6456
1681.478	6576
1683.644	6638
1685.81	6544
1687.975	6492
1690.142	6551
1692.305	6616
1694.468	6438
1696.632	6526
1698.794	6442
1700.957	6575
1703.119	6469
1705.279	6421
1707.439	6482
1709.598	6489
1711.758	6512
1713.917	6535
1716.075	6415
1718.231	6609
1720.388	6402
1722.543	6466
1724.702	6383
1726.856	6344
1729.01	6478
1731.164	6483
1733.317	6522
1735.471	6370
1737.623	6395
1739.774	6466
1741.925	6465
1744.075	6524
1746.225	6557
1748.376	6497
1750.524	6382
1752.672	6389
1754.82	6388
1756.965	6498
1759.113	6470
1761.259	6456
1763.405	6418
1765.549	6463
1767.694	6461
1769.836	6515
1771.981	6542
1774.123	6514
1776.264	6373
1778.405	6527
1780.546	6546
1782.687	6476
1784.827	6611
1786.966	6551
1789.103	6354
1791.242	6511
1793.381	6523
1795.517	6552
1797.653	6566
1799.788	6542
1801.923	6523
1804.057	6456
1806.193	6359
1808.326	6449
1810.457	6494
1812.59	6477
1814.721	6518
1816.855	6460
1818.984	6418
1821.113	6360
1823.244	6550
1825.372	6559
1827.499	6376
1829.63	6459
1831.756	6372
1833.882	6449
1836.007	6549
1838.132	6430
1840.26	6488
1842.384	6498
1844.507	6492
1846.63	6421
1848.752	6468
1850.875	6527
1852.996	6449
1855.118	6530
1857.238	6316
1859.358	6505
1861.477	6302
1863.597	6439
1865.715	6482
1867.832	6481
1869.948	6437
1872.064	6366
1874.181	6485
1876.297	6491
1878.411	6429
1880.526	6498
1882.639	6418
1884.752	6409
1886.865	6446
1888.977	6432
1891.089	6459
1893.2	6435
1895.308	6430
1897.42	6482
1899.53	6423
1901.639	6483
1903.745	6450
1905.853	6541
1907.962	6412
1910.067	6485
1912.174	6577
1914.278	6551
1916.383	6593
1918.486	6543
1920.592	6487
1922.694	6611
1924.797	6568
1926.898	6519
1929	6484
1931.102	6580
1933.203	6606
1935.301	6492
1937.401	6566
1939.499	6695
1941.598	6481
1943.697	6653
1945.793	6537
1947.888	6559
1949.985	6560
1952.08	6466
1954.176	6613
1956.269	6404
1958.364	6572
1960.457	6594
1962.549	6605
1964.642	6460
1966.733	6601
1968.823	6471
1970.913	6566
1973.005	6570
1975.093	6485
1977.184	6566
1979.271	6484
1981.359	6442
1983.446	6574
1985.532	6556
1987.619	6466
1989.705	6538
1991.789	6481
1993.874	6450
1995.956	6514
1998.041	6438
2000.123	6449
2002.206	6548
2004.287	6473
2006.368	6513
2008.449	6378
2010.529	6498
2012.609	6418
2014.688	6492
2016.766	6496
2018.843	6402
2020.922	6420
2022.999	6384
2025.074	6479
2027.15	6478
2029.225	6487
2031.299	6420
2033.375	6496
2035.447	6440
2037.52	6288
2039.592	6420
2041.664	6524
2043.736	6502
2045.807	6384
2047.876	6394
2049.947	6487
2052.015	6448
2054.086	6395
2056.153	6470
2058.221	6471
2060.288	6359
2062.353	6459
2064.42	6416
2066.486	6538
2068.55	6472
2070.614	6481
2072.678	6534
2074.741	6380
2076.805	6417
2078.866	6485
2080.929	6482
2082.99	6507
2085.049	6638
2087.109	6577
2089.17	6586
2091.228	6494
2093.286	6421
2095.344	6477
2097.4	6504
2099.46	6433
2101.516	6496
2103.572	6499
2105.626	6465
2107.679	6499
2109.735	6514
2111.788	6510
2113.841	6536
2115.894	6334
2117.945	6502
2119.997	6394
2122.049	6425
2124.1	6522
2126.148	6646
2128.197	6421
2130.246	6432
2132.296	6462
2134.342	6473
2136.39	6486
2138.437	6516
2140.483	6465
2142.527	6445
2144.574	6403
2146.619	6458
2148.661	6535
2150.705	6391
2152.747	6560
2154.792	6451
2156.832	6343
2158.874	6415
2160.915	6458
2162.954	6343
2164.995	6486
2167.034	6486
2169.072	6414
2171.111	6388
2173.148	6373
2175.186	6370
2177.223	6362
2179.258	6315
2181.294	6377
2183.328	6316
2185.362	6444
2187.398	6371
2189.431	6373
2191.463	6282
2193.495	6332
2195.528	6415
2197.56	6287
2199.59	6366
2201.62	6336
2203.649	6343
2205.678	6324
2207.708	6357
2209.737	6328
2211.764	6300
2213.791	6245
2215.817	6294
2217.843	6204
2219.87	6157
2221.895	6266
2223.919	6271
2225.942	6323
2227.966	6380
2229.988	6331
2232.012	6284
2234.032	6293
2236.054	6255
2238.074	6226
2240.095	6295
2242.116	6364
2244.135	6248
2246.153	6366
2248.171	6248
2250.188	6388
2252.208	6345
2254.223	6196
2256.239	6288
2258.255	6291
2260.269	6270
2262.283	6288
2264.3	6171
2266.312	6335
2268.325	6327
2270.336	6186
2272.349	6228
2274.362	6368
2276.372	6328
2278.383	6209
2280.392	6301
2282.402	6264
2284.409	6281
2286.418	6288
2288.427	6266
2290.433	6251
2292.441	6253
2294.446	6220
2296.453	6282
2298.459	6306
2300.463	6185
2302.466	6162
2304.471	6170
2306.475	6289
2308.477	6239
2310.478	6297
2312.481	6308
2314.481	6235
2316.481	6329
2318.482	6087
2320.482	6272
2322.48	6219
2324.48	6236
2326.478	6161
2328.476	6194
2330.473	6291
2332.469	6150
2334.465	6158
2336.46	6201
2338.454	6228
2340.45	6161
2342.444	6153
2344.437	6159
2346.43	6135
2348.421	6162
2350.414	6205
2352.405	6147
2354.396	6103
2356.386	6137
2358.376	6116
2360.366	6088
2362.355	6125
2364.343	6100
2366.331	6094
2368.317	6069
2370.304	6076
2372.292	6110
2374.278	6021
2376.262	6118
2378.247	6006
2380.23	6010
2382.216	6173
2384.199	6110
2386.181	6081
2388.163	6009
2390.144	6132
2392.127	6116
2394.107	6017
2396.087	6034
2398.066	6050
2400.046	6077
2402.023	6111
2404.004	6032
2405.981	6056
2407.957	6063
2409.934	6081
2411.91	5996
2413.886	6020
2415.862	6160
2417.836	6058
2419.809	6024
2421.784	5983
2423.756	5993
2425.73	6050
2427.701	5955
2429.672	6041
2431.644	6059
2433.615	5898
2435.586	6091
2437.555	6025
2439.523	6015
2441.491	6012
2443.459	6030
2445.428	6057
2447.395	6109
2449.361	6018
2451.327	5961
2453.292	6009
2455.257	5944
2457.223	5993
2459.187	5969
2461.15	5962
2463.113	5917
2465.076	6022
2467.039	6082
2468.999	6050
2470.96	5908
2472.921	5894
2474.881	6062
2476.841	5835
2478.8	5876
2480.759	6031
2482.717	5941
2484.675	5975
2486.63	5886
2488.589	6033
2490.545	5884
2492.5	5813
2494.455	6071
2496.408	5927
2498.364	5864
2500.318	6000
2502.27	5911
2504.223	5899
2506.174	5917
2508.126	5832
2510.078	5949
2512.03	5882
2513.979	5903
2515.927	5983
2517.877	5862
2519.826	5924
2521.775	5924
2523.722	5754
2525.668	5730
2527.616	5900
2529.561	5855
2531.508	5899
2533.452	5864
2535.398	6000
2537.342	5855
2539.284	5857
2541.229	5903
2543.173	5829
2545.114	5876
2547.055	5941
2548.996	5828
2550.938	5900
2552.878	5802
2554.817	5870
2556.756	5901
2558.695	5864
2560.633	5890
2562.572	5715
2564.509	5785
2566.445	5786
2568.382	5843
2570.317	5852
2572.254	5850
2574.189	5834
2576.123	5800
2578.057	5801
2579.99	5918
2581.923	5797
2583.855	5742
2585.788	5833
2587.719	5969
2589.65	5884
2591.579	5913
2593.511	5861
2595.44	5837
2597.37	5789
2599.297	5887
2601.225	5898
2603.153	5941
2605.08	5869
2607.007	5869
2608.932	5890
2610.858	5901
2612.782	5848
2614.709	5928
2616.632	5763
2618.556	5851
2620.478	5819
2622.401	5882
2624.324	5878
2626.247	5772
2628.167	5895
2630.088	5892
2632.008	5867
2633.928	5824
2635.848	5860
2637.766	5909
2639.684	5867
2641.603	5841
2643.519	5964
2645.437	5780
2647.353	5884
2649.27	5832
2651.184	5812
2653.099	5828
2655.014	5856
2656.928	5737
2658.842	5882
2660.755	5943
2662.667	5881
2664.579	5804
2666.491	5856
2668.402	5761
2670.312	5870
2672.222	5889
2674.132	5814
2676.042	5823
2677.951	5829
2679.859	5729
2681.766	5823
2683.674	5844
2685.582	5863
2687.488	5831
2689.392	5819
2691.298	5805
2693.202	5648
2695.107	5787
2697.012	5713
2698.914	5754
2700.817	5810
2702.72	5805
2704.622	5788
2706.524	5735
2708.425	5652
2710.326	5729
2712.225	5760
2714.125	5774
2716.024	5803
2717.923	5731
2719.822	5838
2721.719	5591
2723.616	5741
2725.512	5727
2727.41	5638
2729.305	5709
2731.201	5706
2733.095	5831
2734.99	5741
2736.884	5699
2738.778	5689
2740.67	5728
2742.562	5730
2744.455	5661
2746.346	5675
2748.238	5600
2750.129	5612
2752.018	5696
2753.907	5629
2755.797	5636
2757.687	5780
2759.575	5725
2761.462	5696
2763.349	5670
2765.237	5602
2767.124	5668
2769.009	5755
2770.894	5649
2772.779	5661
2774.663	5713
2776.547	5679
2778.431	5614
2780.314	5673
2782.197	5685
2784.078	5597
2785.96	5615
2787.842	5628
2789.723	5628
2791.603	5601
2793.483	5608
2795.362	5617
2797.241	5610
2799.121	5714
2800.997	5574
2802.874	5523
2804.751	5625
2806.628	5723
2808.506	5655
2810.38	5654
2812.255	5641
2814.13	5597
2816.003	5678
2817.878	5661
2819.752	5596
2821.623	5638
2823.496	5603
2825.368	5574
2827.238	5525
2829.111	5655
2830.98	5618
2832.851	5611
2834.719	5521
2836.589	5589
2838.458	5590
2840.327	5637
2842.193	5741
2844.061	5655
2845.927	5481
2847.794	5611
2849.66	5649
2851.525	5694
2853.39	5573
2855.254	5749
2857.117	5654
2858.983	5731
2860.845	5685
2862.707	5745
2864.569	5794
2866.431	5670
2868.293	5706
2870.154	5721
2872.013	5898
2873.873	5819
2875.733	5814
2877.592	5915
2879.451	5927
2881.309	5934
2883.166	5949
2885.022	6146
2886.879	6119
2888.736	6175
2890.591	6120
2892.446	6050
2894.301	5974
2896.155	6085
2898.009	6102
2899.863	6045
2901.716	6007
2903.568	6036
2905.419	6020
2907.27	6060
2909.123	6159
2910.973	6038
2912.824	6099
2914.673	6177
2916.521	6057
2918.372	6128
2920.22	6263
2922.067	6247
2923.914	6235
2925.761	6366
2927.607	6388
2929.455	6336
2931.301	6455
2933.144	6413
2934.99	6459
2936.833	6428
2938.678	6543
2940.522	6478
2942.364	6593
2944.207	6609
2946.048	6768
2947.891	6673
2949.731	6785
2951.571	6716
2953.412	6877
2955.25	6756
2957.09	6747
2958.93	6652
2960.767	6513
2962.606	6537
2964.443	6520
2966.279	6537
2968.116	6392
2969.953	6377
2971.788	6250
2973.623	6207
2975.457	6091
2977.292	6070
2979.127	6054
2980.959	6166
2982.792	6029
2984.624	5929
2986.455	5842
2988.288	5926
2990.119	5917
2991.949	5786
2993.779	5844
2995.608	5811
2997.439	5768
2999.268	5716
3001.096	5684
3002.923	5680
3004.751	5711
3006.578	5455
3008.406	5624
3010.232	5541
3012.057	5576
3013.883	5520
3015.706	5468
3017.532	5522
3019.356	5513
3021.179	5437
3023.002	5533
3024.823	5447
3026.646	5340
3028.469	5412
3030.289	5420
3032.11	5273
3033.93	5229
3035.749	5353
3037.57	5314
3039.39	5279
3041.207	5318
3043.026	5315
3044.842	5320
3046.661	5397
3048.477	5305
3050.294	5314
3052.109	5341
3053.925	5370
3055.739	5290
3057.555	5361
3059.368	5270
3061.181	5324
3062.995	5289
3064.807	5335
3066.62	5317
3068.433	5280
3070.243	5240
3072.054	5273
3073.865	5197
3075.675	5220
3077.485	5254
3079.293	5257
3081.102	5166
3082.911	5146
3084.719	5157
3086.527	5102
3088.333	5190
3090.139	5153
3091.945	5167
3093.75	5094
3095.557	5115
3097.361	5150
3099.165	5123
3100.969	5073
3102.772	5072
3104.575	5072
3106.379	5044
3108.181	5109
3109.982	5098
3111.783	5054
3113.584	5009
3115.386	5031
3117.186	5044
3118.985	5094
3120.783	5071
3122.582	5026
3124.381	5150
3126.179	5058
3127.975	5057
3129.772	5072
3131.569	5053
3133.365	4945
3135.161	4963
3136.956	4965
3138.751	4945
3140.544	4983
3142.338	4993
3144.132	4963
3145.925	5005
3147.717	5023
3149.509	4911
3151.301	4967
3153.091	4953
3154.884	4917
3156.673	5054
3158.462	4975
3160.252	4983
3162.041	4987
3163.831	4900
3165.618	4951
3167.405	4977
3169.193	4989
3170.979	4793
3172.767	4911
3174.553	4891
3176.338	4910
3178.123	4765
3179.907	4895
3181.692	4843
3183.477	4947
3185.259	4961
3187.042	4898
3188.824	4948
3190.607	4934
3192.389	4906
3194.17	4891
3195.951	4879
3197.73	4912
3199.51	4925
3201.289	4789
3203.07	4893
3204.848	4842
3206.626	4868
3208.403	4924
3210.18	4869
3211.959	4905
3213.735	4784
3215.511	4867
3217.285	4902
3219.06	4896
3220.836	4898
3222.611	4907
3224.384	4923
3226.158	4904
3227.929	4908
3229.702	4782
3231.476	4841
3233.248	4833
3235.018	4866
3236.789	4869
3238.56	4766
3240.33	4852
3242.1	4892
3243.869	4898
3245.637	4901
3247.405	4767
3249.172	4822
3250.941	4750
3252.707	4798
3254.474	4817
3256.24	4876
3258.006	4720
3259.772	4804
3261.537	4828
3263.301	4857
3265.065	4780
3266.828	4844
3268.592	4781
3270.355	4859
3272.117	4757
3273.878	4830
3275.64	4838
3277.401	4754
3279.162	4755
3280.922	4824
3282.682	4749
3284.441	4841
3286.199	4897
3287.959	4773
3289.716	4711
3291.475	4797
3293.232	4776
3294.988	4803
3296.744	4848
3298.501	4851
3300.256	4711
3302.011	4801
3303.766	4804
3305.52	4854
3307.275	4865
3309.028	4787
3310.781	4783
3312.533	4783
3314.285	4826
3316.038	4699
3317.789	4856
3319.54	4683
3321.289	4722
3323.039	4719
3324.789	4741
3326.539	4652
3328.288	4769
3330.035	4755
3331.783	4703
3333.531	4735
3335.28	4731
3337.025	4791
3338.771	4718
3340.518	4724
3342.262	4652
3344.009	4810
3345.753	4670
3347.497	4607
3349.24	4723
3350.983	4680
3352.726	4617
3354.469	4660
3356.212	4674
3357.952	4742
3359.694	4650
3361.434	4637
3363.176	4635
3364.916	4738
3366.654	4633
3368.394	4642
3370.132	4659
3371.871	4691
3373.61	4703
3375.346	4621
3377.083	4637
3378.82	4490
3380.556	4584
3382.292	4686
3384.027	4614
3385.763	4644
3387.497	4535
3389.231	4584
3390.965	4661
3392.698	4662
3394.431	4581
3396.164	4547
3397.896	4579
3399.627	4639
3401.36	4598
3403.09	4571
3404.82	4608
3406.55	4548
3408.279	4537
3410.01	4570
3411.738	4561
3413.467	4618
3415.194	4587
3416.92	4529
3418.647	4491
3420.375	4521
3422.102	4532
3423.827	4504
3425.553	4535
3427.277	4492
3429.003	4530
3430.727	4524
3432.451	4561
3434.173	4485
3435.896	4547
3437.62	4486
3439.343	4597
3441.063	4518
3442.785	4451
3444.505	4461
3446.226	4370
3447.948	4483
3449.666	4470
3451.386	4465
3453.104	4415
3454.823	4451
3456.541	4471
3458.259	4400
3459.976	4353
3461.693	4448
3463.408	4327
3465.125	4421
3466.841	4431
3468.556	4363
3470.271	4324
3471.985	4451
3473.698	4303
3475.414	4348
3477.126	4237
3478.838	4351
3480.55	4245
3482.263	4375
3483.975	4317
3485.686	4392
3487.396	4329
3489.106	4250
3490.817	4362
3492.526	4276
3494.236	4352
3495.944	4325
3497.652	4168
3499.359	4254
3501.066	4317
3502.775	4100
3504.481	4207
3506.187	4278
3507.893	4355
3509.598	4259
3511.304	4214
3513.009	4199
3514.713	4215
3516.417	4278
3518.12	4230
3519.821	4158
3521.525	4193
3523.228	4206
3524.929	4237
3526.631	4102
3528.33	4158
3530.032	4189
3531.733	4168
3533.433	4145
3535.131	4218
3536.83	4131
3538.529	4257
3540.227	4116
3541.925	4227
3543.623	4207
3545.319	4169
3547.016	4210
3548.712	4132
3550.408	4151
3552.103	4124
3553.798	4132
3555.491	4092
3557.188	4154
3558.88	4161
3560.574	4082
3562.266	4178
3563.959	4088
3565.651	4143
3567.343	4042
3569.035	4164
3570.725	4092
3572.415	4167
3574.106	4124
3575.797	4126
3577.485	4017
3579.174	4097
3580.863	4101
3582.551	4008
3584.238	4116
3585.926	4072
3587.613	4049
3589.3	3985
3590.986	4023
3592.671	4039
3594.357	4080
3596.042	3975
3597.726	4037
3599.41	4003
3601.094	3992
3602.778	3984
3604.461	3982
3606.143	3929
3607.825	3996
3609.507	3892
3611.188	3912
3612.87	3939
3614.551	3941
3616.229	3944
3617.909	4016
3619.589	3939
3621.269	3966
3622.948	3909
3624.625	3963
3626.302	3970
3627.98	3946
3629.657	3925
3631.334	3912
3633.01	3871
3634.686	3817
3636.361	3851
3638.036	3848
3639.712	3892
3641.385	3837
3643.06	3848
3644.732	3867
3646.405	3819
3648.08	3857
3649.751	3887
3651.424	3860
3653.094	3896
3654.766	3753
3656.436	3810
3658.106	3823
3659.777	3819
3661.446	3796
3663.115	3873
3664.783	3754
3666.452	3820
3668.121	3729
3669.788	3760
3671.454	3764
3673.121	3758
3674.789	3740
3676.455	3725
3678.12	3824
3679.784	3765
3681.45	3776
3683.114	3728
3684.779	3831
3686.442	3789
3688.105	3714
3689.768	3761
3691.43	3780
3693.093	3746
3694.754	3735
3696.415	3707
3698.076	3699
3699.736	3691
3701.396	3694
3703.057	3717
3704.716	3795
3706.375	3687
3708.034	3786
3709.692	3648
3711.351	3681
3713.008	3705
3714.665	3657
3716.321	3661
3717.977	3698
3719.634	3745
3721.29	3577
3722.945	3763
3724.598	3722
3726.253	3660
3727.907	3700
3729.561	3742
3731.214	3635
3732.867	3663
3734.518	3626
3736.171	3618
3737.824	3759
3739.474	3707
3741.125	3650
3742.775	3640
3744.425	3631
3746.074	3608
3747.725	3606
3749.373	3588
3751.022	3694
3752.669	3696
3754.318	3657
3755.966	3700
3757.612	3601
3759.259	3551
3760.905	3649
3762.55	3665
3764.197	3575
3765.842	3587
3767.486	3523
3769.131	3602
3770.774	3595
3772.417	3602
3774.061	3585
3775.705	3499
3777.347	3621
3778.988	3601
3780.629	3512
3782.271	3584
3783.912	3480
3785.552	3508
3787.192	3528
3788.831	3508
3790.472	3582
3792.112	3498
3793.75	3487
3795.388	3589
3797.024	3530
3798.661	3561
3800.3	3571
3801.936	3507
3803.572	3514
3805.208	3533
3806.844	3511
3808.48	3490
3810.115	3474
3811.748	3473
3813.382	3475
3815.016	3509
3816.649	3467
3818.283	3460
3819.914	3442
3821.547	3548
3823.178	3478
3824.809	3512
3826.441	3487
3828.072	3443
3829.701	3358
3831.331	3459
3832.96	3399
3834.591	3459
3836.219	3513
3837.847	3506
3839.475	3407
3841.102	3492
3842.729	3419
3844.357	3451
3845.984	3435
3847.609	3447
3849.234	3390
3850.86	3479
3852.485	3413
3854.11	3422
3855.734	3310
3857.357	3342
3858.981	3362
3860.603	3346
3862.227	3376
3863.848	3331
3865.471	3354
3867.092	3364
3868.713	3268
3870.334	3417
3871.954	3432
3873.575	3382
3875.194	3363
3876.813	3308
3878.433	3335
3880.051	3350
3881.669	3321
3883.286	3383
3884.904	3403
3886.52	3311
3888.138	3288
3889.754	3396
3891.37	3363
3892.985	3296
3894.6	3316
3896.216	3426
3897.831	3301
3899.444	3278
3901.058	3346
3902.67	3216
3904.283	3302
3905.897	3260
3907.509	3339
3909.121	3366
3910.731	3277
3912.342	3321
3913.954	3341
3915.563	3302
3917.174	3325
3918.783	3308
3920.391	3209
3922.002	3229
3923.611	3260
3925.218	3290
3926.826	3246
3928.432	3261
3930.039	3301
3931.647	3252
3933.253	3283
3934.859	3368
3936.464	3240
3938.068	3252
3939.675	3275
3941.278	3207
3942.883	3288
3944.486	3349
3946.089	3211
3947.692	3195
3949.295	3166
3950.898	3234
3952.499	3261
3954.1	3223
3955.7	3199
3957.303	3295
3958.903	3220
3960.502	3218
3962.101	3171
3963.7	3253
3965.301	3181
3966.899	3167
3968.497	3211
3970.094	3241
3971.691	3160
3973.288	3133
3974.885	3199
3976.481	3217
3978.077	3206
3979.672	3187
3981.267	3081
3982.863	3106
3984.457	3138
3986.051	3151
3987.645	3149
3989.238	3176
3990.831	3189
3992.425	3107
3994.017	3099
3995.607	3176
3997.199	3104
3998.79	3134
4000.382	3119
4001.973	3118
4003.561	3114
4005.151	3080
4006.741	3197
4008.331	3102
4009.918	3133
4011.507	3091
4013.095	3100
4014.681	3065
4016.269	3074
4017.856	3070
4019.443	3027
4021.028	3038
4022.614	3035
4024.199	3076
4025.785	3094
4027.37	3146
4028.953	3005
4030.536	3057
4032.12	3023
4033.704	2992
4035.287	3064
4036.869	3043
4038.45	3014
4040.032	2998
4041.613	3030
4043.195	3110
4044.776	3061
4046.356	3078
4047.935	2967
4049.515	2959
4051.095	3042
4052.674	2972
4054.251	2999
4055.829	3065
4057.406	3013
4058.985	3006
4060.562	2972
4062.139	2986
4063.715	2927
4065.29	2995
4066.865	3040
4068.442	3008
4070.016	2959
4071.59	3006
4073.164	2983
4074.738	2916
4076.312	2990
4077.885	2902
4079.458	2912
4081.03	2950
4082.602	2943
4084.173	2916
4085.745	3029
4087.315	2946
4088.886	2950
4090.456	2899
4092.026	2946
4093.596	2926
4095.165	2927
4096.734	2892
4098.301	2916
4099.869	2980
4101.437	2896
4103.006	2892
4104.572	2956
4106.139	2938
4107.704	2928
4109.27	2880
4110.837	2921
4112.401	2849
4113.966	2866
4115.53	2926
4117.094	2855
4118.659	2954
4120.223	2913
4121.785	2949
4123.347	2884
4124.909	2863
4126.471	2823
4128.034	2814
4129.595	2782
4131.155	2875
4132.716	2921
4134.275	2843
4135.836	2817
4137.395	2800
4138.955	2820
4140.513	2851
4142.071	2834
4143.628	2850
4145.188	2898
4146.745	2776
4148.302	2823
4149.858	2813
4151.414	2759
4152.971	2800
4154.526	2839
4156.081	2755
4157.635	2828
4159.189	2762
4160.745	2766
4162.298	2808
4163.852	2805
4165.405	2717
4166.957	2777
4168.51	2782
4170.063	2740
4171.614	2706
4173.166	2747
4174.717	2821
4176.267	2772
4177.817	2738
4179.368	2690
4180.917	2745
4182.466	2752
4184.016	2761
4185.564	2732
4187.112	2714
4188.66	2656
4190.207	2807
4191.754	2642
4193.301	2692
4194.848	2723
4196.394	2706
4197.94	2732
4199.484	2643
4201.03	2705
4202.575	2665
4204.12	2696
4205.663	2673
4207.207	2621
4208.75	2634
4210.292	2679
4211.836	2702
4213.378	2726
4214.92	2641
4216.46	2683
4218.002	2635
4219.544	2707
4221.083	2693
4222.625	2690
4224.164	2648
4225.703	2650
4227.244	2618
4228.782	2634
4230.32	2693
4231.857	2646
4233.395	2648
4234.933	2642
4236.471	2657
4238.007	2630
4239.542	2605
4241.078	2645
4242.614	2649
4244.15	2670
4245.685	2653
4247.219	2631
4248.753	2619
4250.287	2621
4251.82	2709
4253.354	2591
4254.887	2610
4256.419	2635
4257.951	2624
4259.483	2563
4261.016	2644
4262.547	2569
4264.078	2596
4265.608	2563
4267.137	2621
4268.668	2613
4270.197	2591
4271.727	2532
4273.254	2627
4274.783	2649
4276.311	2501
4277.84	2655
4279.366	2561
4280.894	2616
4282.42	2585
4283.946	2629
4285.473	2564
4286.998	2582
4288.523	2545
4290.047	2595
4291.572	2485
4293.096	2549
4294.622	2504
4296.144	2524
4297.668	2559
4299.19	2561
4300.713	2568
4302.236	2483
4303.758	2545
4305.279	2591
4306.799	2589
4308.321	2552
4309.842	2505
4311.361	2474
4312.882	2510
4314.401	2606
