400.0961	4124
402.6185	4137
405.1424	4093
407.6635	4146
410.1838	4078
412.7035	4092
415.2225	4127
417.7388	4112
420.2585	4158
422.7754	4172
425.2917	4284
427.8072	4150
430.3221	4300
432.8363	4328
435.3498	4343
437.8626	4314
440.3727	4361
442.8841	4300
445.3969	4354
447.907	4346
450.4142	4280
452.9229	4231
455.4289	4263
457.9362	4277
460.4449	4183
462.9488	4206
465.454	4220
467.9566	4301
470.4604	4216
472.9637	4221
475.4662	4215
477.966	4356
480.4671	4192
482.9656	4229
485.4633	4375
487.9645	4389
490.4608	4273
492.9566	4324
495.4536	4255
497.948	4356
500.4437	4334
502.9387	4358
505.431	4388
507.9226	4349
510.4136	4387
512.9079	4414
515.3975	4415
517.8864	4480
520.3746	4497
522.8622	4417
525.3491	4336
527.8394	4396
530.3249	4486
532.8098	4392
535.2939	4512
537.7774	4445
540.2623	4450
542.7444	4478
545.2259	4431
547.7067	4473
550.1868	4431
552.6683	4535
555.147	4490
557.6231	4489
560.1005	4451
562.5773	4543
565.0534	4512
567.5308	4554
570.0056	4520
572.4776	4444
574.951	4651
577.4237	4491
579.8978	4598
582.3671	4517
584.8378	4658
587.3079	4573
589.7773	4570
592.244	4574
594.714	4546
597.1793	4685
599.6461	4606
602.1121	4680
604.5754	4560
607.0421	4572
609.5042	4654
611.9675	4618
614.4282	4595
616.8902	4553
619.3515	4607
621.8122	4612
624.2702	4584
626.7296	4591
629.1863	4595
631.6423	4519
634.1017	4554
636.5563	4572
639.0104	4537
641.4658	4531
643.9185	4552
646.3725	4614
648.8239	4593
651.2766	4713
653.7266	4538
656.176	4636
658.6247	4658
661.0748	4649
663.5242	4668
665.9709	4634
668.417	4622
670.8624	4627
673.3092	4708
675.7533	4594
678.1968	4758
680.6395	4706
683.0817	4648
685.5251	4656
687.9659	4711
690.4061	4659
692.8456	4687
695.2844	4664
697.7226	4819
700.1621	4742
702.599	4718
705.0332	4823
707.4688	4778
709.9036	4885
712.3399	4833
714.7735	4885
717.2044	4820
719.6367	4941
722.0683	4922
724.4993	4885
726.9296	4971
729.3593	5013
731.7883	4908
734.2147	4915
736.6423	4935
739.0714	4963
741.4958	4958
743.9216	5030
746.3447	5020
748.7691	5062
751.1929	4933
753.616	5072
756.0366	5011
758.4584	5042
760.8776	5008
763.2982	4996
765.718	5024
768.1373	5090
770.5539	5081
772.9698	5066
775.3871	5155
777.8038	4976
780.2178	5093
782.6332	5027
785.0459	5136
787.458	5131
789.8714	5183
792.2842	5023
794.6943	5044
797.1038	5103
799.5127	5086
801.9209	5117
804.3324	5085
806.7393	5177
809.1456	5121
811.5513	5159
813.9562	5140
816.3625	5110
818.7663	5209
821.1693	5219
823.5718	5146
825.9735	5100
828.3746	5244
830.7771	5107
833.177	5151
835.5762	5207
837.9747	5181
840.3727	5099
842.772	5239
845.1666	5216
847.5626	5271
849.958	5263
852.3527	5394
854.7488	5354
857.1403	5398
859.5331	5361
861.9253	5328
864.3168	5369
866.7057	5321
869.098	5326
871.4876	5334
873.8746	5347
876.263	5335
878.6487	5354
881.0378	5238
883.4243	5325
885.8081	5305
888.1933	5299
890.5759	5277
892.9598	5309
895.343	5353
897.7256	5311
900.1057	5265
902.4871	5326
904.8659	5313
907.246	5386
909.6254	5373
912.0023	5404
914.3786	5542
916.7562	5651
919.1331	5721
921.5074	5896
923.8831	6011
926.2562	5879
928.6287	5883
931.0005	5799
933.3757	5707
935.7462	5773
938.1162	5732
940.4855	5803
942.8542	5730
945.2242	5837
947.5916	5931
949.9584	6001
952.3266	6019
954.6921	6196
957.0571	6336
959.4233	6552
961.787	6721
964.15	6649
966.5125	6565
968.8742	6329
971.2354	6065
973.5959	5988
975.9559	5860
978.3151	5758
980.6738	5700
983.0338	5700
985.3912	5663
987.7461	5618
990.1022	5481
992.4578	5447
994.8127	5498
997.1689	5572
999.5207	5586
1001.874	5577
1004.226	5588
1006.576	5470
1008.929	5660
1011.28	5461
1013.628	5620
1015.977	5532
1018.324	5506
1020.674	5449
1023.019	5552
1025.366	5515
1027.713	5635
1030.056	5584
1032.399	5678
1034.746	5566
1037.087	5574
1039.431	5523
1041.771	5559
1044.113	5594
1046.454	5650
1048.793	5571
1051.133	5625
1053.471	5617
1055.807	5536
1058.146	5639
1060.483	5513
1062.818	5539
1065.153	5571
1067.489	5753
1069.822	5609
1072.156	5683
1074.488	5632
1076.82	5738
1079.15	5544
1081.48	5642
1083.814	5564
1086.143	5742
1088.471	5544
1090.799	5573
1093.126	5630
1095.452	5675
1097.78	5625
1100.105	5633
1102.43	5629
1104.754	5647
1107.077	5606
1109.4	5611
1111.722	5668
1114.044	5589
1116.365	5723
1118.685	5689
1121.005	5715
1123.324	5631
1125.643	5781
1127.961	5694
1130.278	5717
1132.595	5685
1134.911	5590
1137.226	5679
1139.541	5609
1141.854	5588
1144.167	5623
1146.482	5615
1148.793	5530
1151.105	5582
1153.414	5621
1155.725	5587
1158.033	5545
1160.344	5657
1162.651	5674
1164.959	5703
1167.265	5706
1169.572	5691
1171.878	5647
1174.184	5656
1176.488	5713
1178.79	5828
1181.094	5775
1183.396	5716
1185.699	5733
1188.001	5696
1190.301	5588
1192.6	5517
1194.9	5690
1197.2	5607
1199.497	5549
1201.794	5713
1204.09	5559
1206.387	5630
1208.684	5660
1210.978	5734
1213.272	5688
1215.565	5665
1217.858	5660
1220.15	5670
1222.443	5760
1224.734	5611
1227.024	5701
1229.313	5680
1231.602	5823
1233.892	5895
1236.18	5980
1238.467	5846
1240.754	5935
1243.04	6001
1245.325	5888
1247.612	6008
1249.896	6016
1252.178	5966
1254.461	6043
1256.743	6015
1259.027	6005
1261.308	5986
1263.587	5991
1265.867	6098
1268.146	6032
1270.425	6209
1272.703	6062
1274.981	6206
1277.256	6098
1279.532	5989
1281.808	5879
1284.083	5973
1286.358	5959
1288.63	5812
1290.904	5767
1293.175	5826
1295.449	5770
1297.719	5823
1299.99	5818
1302.259	5849
1304.529	5914
1306.798	5886
1309.065	5933
1311.333	6006
1313.599	5958
1315.866	5962
1318.131	5922
1320.396	5749
1322.66	5857
1324.925	5987
1327.187	5914
1329.448	5910
1331.711	6057
1333.974	6044
1336.234	6027
1338.493	5941
1340.752	5925
1343.01	5880
1345.269	5918
1347.526	5869
1349.784	5844
1352.04	5849
1354.295	5849
1356.552	5878
1358.806	5901
1361.059	5761
1363.312	5858
1365.564	5981
1367.818	5875
1370.069	5855
1372.318	5984
1374.568	5931
1376.817	5931
1379.066	5859
1381.316	5957
1383.564	5993
1385.809	6021
1388.056	5875
1390.301	6054
1392.549	6183
1394.793	6196
1397.036	6303
1399.279	6450
1401.522	6420
1403.763	6326
1406.007	6300
1408.248	6339
1410.487	6369
1412.727	6294
1414.965	6349
1417.205	6431
1419.442	6344
1421.68	6220
1423.915	6190
1426.152	6256
1428.388	6227
1430.623	6201
1432.857	6196
1435.091	6176
1437.323	6267
1439.556	6290
1441.789	6365
1444.019	6258
1446.25	6317
1448.48	6342
1450.708	6370
1452.938	6392
1455.167	6353
1457.394	6462
1459.62	6475
1461.846	6295
1464.073	6324
1466.299	6212
1468.523	6293
1470.746	6260
1472.969	6092
1475.191	6016
1477.415	6028
1479.636	5936
1481.858	6028
1484.078	5837
1486.298	5852
1488.518	5864
1490.736	5842
1492.954	5777
1495.169	5777
1497.386	5837
1499.602	5847
1501.819	5811
1504.034	5909
1506.248	5822
1508.462	5752
1510.675	5792
1512.888	5833
1515.1	5848
1517.311	5874
1519.522	5749
1521.732	5736
1523.942	5913
1526.151	5830
1528.36	5805
1530.566	5719
1532.773	5816
1534.98	5924
1537.187	5792
1539.392	5895
1541.596	5876
1543.801	5844
1546.005	5886
1548.208	5975
1550.411	5842
1552.612	5899
1554.814	5987
1557.013	5911
1559.212	5864
1561.414	6009
1563.612	5955
1565.811	5888
1568.007	6014
1570.203	6140
1572.403	5950
1574.598	6004
1576.792	5966
1578.988	5905
1581.181	5948
1583.376	6051
1585.568	6029
1587.761	5941
1589.952	5913
1592.143	5929
1594.333	5910
1596.524	6003
1598.715	5934
1600.903	6069
1603.091	6038
1605.278	5978
1607.466	5994
1609.652	6028
1611.838	6103
1614.023	6037
1616.207	6078
1618.391	6120
1620.576	6007
1622.759	6156
1624.941	6108
1627.123	6110
1629.304	6097
1631.484	6104
1633.664	6164
1635.844	6149
1638.022	6216
1640.201	6100
1642.38	6154
1644.556	6192
1646.732	6232
1648.908	6107
1651.084	6121
1653.257	6260
1655.433	6203
1657.607	6215
1659.779	6271
1661.951	6175
1664.122	6286
1666.295	6281
1668.467	6267
1670.635	6127
1672.805	6293
1674.973	6241
1677.142	6250
1679.31	6199
1681.478	6182
1683.644	6301
1685.81	6188
1687.975	6151
1690.142	6173
1692.305	6155
1694.468	6102
1696.632	6095
1698.794	6080
1700.957	6153
1703.119	6145
1705.279	5971
1707.439	6062
1709.598	6020
1711.758	5920
1713.917	5987
1716.075	6109
1718.231	6056
1720.388	6085
1722.543	6008
1724.702	5903
1726.856	5993
1729.01	6084
1731.164	5956
1733.317	5925
1735.471	6019
1737.623	6045
1739.774	6014
1741.925	5916
1744.075	6093
1746.225	5983
1748.376	5941
1750.524	5994
1752.672	6045
1754.82	5936
1756.965	6095
1759.113	5980
1761.259	6011
1763.405	6109
1765.549	6037
1767.694	5974
1769.836	5951
1771.981	5955
1774.123	6016
1776.264	6010
1778.405	5955
1780.546	5986
1782.687	6026
1784.827	6021
1786.966	6046
1789.103	5977
1791.242	5973
1793.381	6015
1795.517	6074
1797.653	6029
1799.788	6038
1801.923	6157
1804.057	6064
1806.193	5941
1808.326	6041
1810.457	6020
1812.59	6034
1814.721	6116
1816.855	6002
1818.984	6026
1821.113	6116
1823.244	5926
1825.372	6139
1827.499	5971
1829.63	5968
1831.756	6015
1833.882	5953
1836.007	6062
1838.132	5972
1840.26	5978
1842.384	6056
1844.507	5960
1846.63	5881
1848.752	6008
1850.875	5993
1852.996	5971
1855.118	5884
1857.238	6001
1859.358	6002
1861.477	6043
1863.597	5999
1865.715	5962
1867.832	5995
1869.948	5994
1872.064	5955
1874.181	5923
1876.297	5966
1878.411	5998
1880.526	6000
1882.639	6004
1884.752	6011
1886.865	6099
1888.977	6011
1891.089	5949
1893.2	5932
1895.308	5988
1897.42	6024
1899.53	5984
1901.639	6028
1903.745	5989
1905.853	6081
1907.962	6047
1910.067	6073
1912.174	6101
1914.278	5989
1916.383	5997
1918.486	6117
1920.592	6107
1922.694	6057
1924.797	6061
1926.898	6180
1929	6096
1931.102	6127
1933.203	6105
1935.301	6033
1937.401	5963
1939.499	6130
1941.598	6011
1943.697	6187
1945.793	6002
1947.888	6021
1949.985	6043
1952.08	6161
1954.176	6069
1956.269	6025
1958.364	6148
1960.457	6007
1962.549	6102
1964.642	6058
1966.733	5901
1968.823	6099
1970.913	6061
1973.005	6100
1975.093	6012
1977.184	5972
1979.271	5942
1981.359	6005
1983.446	6020
1985.532	6083
1987.619	5960
1989.705	6051
1991.789	5942
1993.874	6023
1995.956	6047
1998.041	6026
2000.123	5994
2002.206	5994
2004.287	5992
2006.368	5950
2008.449	5996
2010.529	5996
2012.609	6059
2014.688	6020
2016.766	5961
2018.843	6014
2020.922	5921
2022.999	6056
2025.074	5964
2027.15	6088
2029.225	5972
2031.299	5916
2033.375	5923
2035.447	6027
2037.52	5898
2039.592	6030
2041.664	6047
2043.736	5974
2045.807	5933
2047.876	5948
2049.947	6079
2052.015	6024
2054.086	5901
2056.153	6022
2058.221	6071
2060.288	6019
2062.353	5950
2064.42	5903
2066.486	5989
2068.55	5877
2070.614	6108
2072.678	5956
2074.741	6043
2076.805	5973
2078.866	5996
2080.929	5957
2082.99	6029
2085.049	6028
2087.109	6069
2089.17	5901
2091.228	5910
2093.286	5856
2095.344	6019
2097.4	6102
2099.46	5957
2101.516	5996
2103.572	5983
2105.626	5973
2107.679	5880
2109.735	6022
2111.788	5946
2113.841	5832
2115.894	5960
2117.945	6008
2119.997	5992
2122.049	6025
2124.1	6057
2126.148	5957
2128.197	6024
2130.246	6041
2132.296	5891
2134.342	5945
2136.39	5980
2138.437	6022
2140.483	6073
2142.527	5902
2144.574	6066
2146.619	6090
2148.661	5875
2150.705	5939
2152.747	6078
2154.792	5883
2156.832	5987
2158.874	5986
2160.915	5953
2162.954	5829
2164.995	5962
2167.034	5960
2169.072	5880
2171.111	5908
2173.148	5877
2175.186	5888
2177.223	5877
2179.258	5965
2181.294	5927
2183.328	5911
2185.362	5891
2187.398	5810
2189.431	5882
2191.463	5808
2193.495	5898
2195.528	5988
2197.56	5937
2199.59	5789
2201.62	5865
2203.649	5892
2205.678	5907
2207.708	5742
2209.737	5929
2211.764	5881
2213.791	5846
2215.817	5809
2217.843	5780
2219.87	5870
2221.895	5816
2223.919	5920
2225.942	5870
2227.966	5819
2229.988	5870
2232.012	5734
2234.032	5799
2236.054	5766
2238.074	5727
2240.095	5723
2242.116	5837
2244.135	5831
2246.153	5782
2248.171	5788
2250.188	5929
2252.208	5857
2254.223	5717
2256.239	5831
2258.255	5833
2260.269	5783
2262.283	5812
2264.3	5842
2266.312	5825
2268.325	5829
2270.336	5887
2272.349	5792
2274.362	5734
2276.372	5861
2278.383	5728
2280.392	5815
2282.402	5861
2284.409	5863
2286.418	5819
2288.427	5848
2290.433	5665
2292.441	5816
2294.446	5802
2296.453	5820
2298.459	5888
2300.463	5764
2302.466	5738
2304.471	5783
2306.475	5820
2308.477	5806
2310.478	5698
2312.481	5813
2314.481	5785
2316.481	5749
2318.482	5755
2320.482	5752
2322.48	5795
2324.48	5741
2326.478	5761
2328.476	5684
2330.473	5918
2332.469	5719
2334.465	5862
2336.46	5811
2338.454	5752
2340.45	5716
2342.444	5704
2344.437	5822
2346.43	5825
2348.421	5662
2350.414	5660
2352.405	5824
2354.396	5737
2356.386	5751
2358.376	5667
2360.366	5824
2362.355	5667
2364.343	5639
2366.331	5681
2368.317	5769
2370.304	5527
2372.292	5705
2374.278	5785
2376.262	5749
2378.247	5646
2380.23	5621
2382.216	5679
2384.199	5504
2386.181	5725
2388.163	5606
2390.144	5648
2392.127	5630
2394.107	5559
2396.087	5733
2398.066	5622
2400.046	5582
2402.023	5591
2404.004	5599
2405.981	5643
2407.957	5680
2409.934	5616
2411.91	5687
2413.886	5655
2415.862	5631
2417.836	5512
2419.809	5578
2421.784	5596
2423.756	5603
2425.73	5576
2427.701	5670
2429.672	5703
2431.644	5681
2433.615	5696
2435.586	5520
2437.555	5621
2439.523	5636
2441.491	5646
2443.459	5594
2445.428	5554
2447.395	5594
2449.361	5500
2451.327	5657
2453.292	5705
2455.257	5575
2457.223	5616
2459.187	5547
2461.15	5505
2463.113	5546
2465.076	5647
2467.039	5462
2468.999	5544
2470.96	5509
2472.921	5566
2474.881	5546
2476.841	5549
2478.8	5516
2480.759	5573
2482.717	5531
2484.675	5505
2486.63	5511
2488.589	5621
2490.545	5502
2492.5	5510
2494.455	5592
2496.408	5483
2498.364	5489
2500.318	5482
2502.27	5510
2504.223	5540
2506.174	5430
2508.126	5552
2510.078	5498
2512.03	5631
2513.979	5537
2515.927	5472
2517.877	5439
2519.826	5473
2521.775	5563
2523.722	5498
2525.668	5565
2527.616	5499
2529.561	5507
2531.508	5550
2533.452	5449
2535.398	5461
2537.342	5504
2539.284	5508
2541.229	5493
2543.173	5466
2545.114	5548
2547.055	5517
2548.996	5510
2550.938	5473
2552.878	5468
2554.817	5500
2556.756	5478
2558.695	5514
2560.633	5533
2562.572	5446
2564.509	5522
2566.445	5422
2568.382	5430
2570.317	5427
2572.254	5470
2574.189	5449
2576.123	5363
2578.057	5487
2579.99	5468
2581.923	5385
2583.855	5459
2585.788	5555
2587.719	5413
2589.65	5583
2591.579	5449
2593.511	5548
2595.44	5498
2597.37	5424
2599.297	5446
2601.225	5511
2603.153	5468
2605.08	5498
2607.007	5436
2608.932	5429
2610.858	5370
2612.782	5416
2614.709	5528
2616.632	5448
2618.556	5474
2620.478	5504
2622.401	5411
2624.324	5490
2626.247	5380
2628.167	5427
2630.088	5478
2632.008	5538
2633.928	5516
2635.848	5446
2637.766	5428
2639.684	5542
2641.603	5536
2643.519	5432
2645.437	5493
2647.353	5464
2649.27	5429
2651.184	5470
2653.099	5419
2655.014	5394
2656.928	5436
2658.842	5506
2660.755	5381
2662.667	5456
2664.579	5419
2666.491	5463
2668.402	5445
2670.312	5391
2672.222	5313
2674.132	5499
2676.042	5417
2677.951	5483
2679.859	5517
2681.766	5384
2683.674	5522
2685.582	5479
2687.488	5445
2689.392	5529
2691.298	5486
2693.202	5366
2695.107	5490
2697.012	5391
2698.914	5384
2700.817	5413
2702.72	5428
2704.622	5411
2706.524	5385
2708.425	5386
2710.326	5395
2712.225	5410
2714.125	5339
2716.024	5515
2717.923	5331
2719.822	5392
2721.719	5367
2723.616	5339
2725.512	5344
2727.41	5406
2729.305	5335
2731.201	5329
2733.095	5331
2734.99	5393
2736.884	5407
2738.778	5356
2740.67	5468
2742.562	5350
2744.455	5431
2746.346	5375
2748.238	5350
2750.129	5434
2752.018	5322
2753.907	5374
2755.797	5437
2757.687	5294
2759.575	5316
2761.462	5422
2763.349	5355
2765.237	5432
2767.124	5406
2769.009	5324
2770.894	5383
2772.779	5388
2774.663	5349
2776.547	5286
2778.431	5441
2780.314	5417
2782.197	5361
2784.078	5380
2785.96	5328
2787.842	5367
2789.723	5333
2791.603	5324
2793.483	5364
2795.362	5319
2797.241	5362
2799.121	5355
2800.997	5329
2802.874	5365
2804.751	5297
2806.628	5365
2808.506	5276
2810.38	5348
2812.255	5278
2814.13	5196
2816.003	5285
2817.878	5346
2819.752	5379
2821.623	5356
2823.496	5398
2825.368	5372
2827.238	5271
2829.111	5435
2830.98	5310
2832.851	5313
2834.719	5397
2836.589	5344
2838.458	5407
2840.327	5452
2842.193	5349
2844.061	5478
2845.927	5535
2847.794	5514
2849.66	5448
2851.525	5451
2853.39	5530
2855.254	5526
2857.117	5544
2858.983	5547
2860.845	5534
2862.707	5586
2864.569	5777
2866.431	5708
2868.293	5732
2870.154	5764
2872.013	5891
2873.873	5857
2875.733	5960
2877.592	5846
2879.451	6054
2881.309	6137
2883.166	6131
2885.022	6172
2886.879	6265
2888.736	6228
2890.591	6450
2892.446	6370
2894.301	6293
2896.155	6470
2898.009	6353
2899.863	6469
2901.716	6393
2903.568	6387
2905.419	6277
2907.27	6244
2909.123	6417
2910.973	6324
2912.824	6409
2914.673	6509
2916.521	6550
2918.372	6629
2920.22	6684
2922.067	6742
2923.914	6667
2925.761	6703
2927.607	6815
2929.455	6675
2931.301	6914
2933.144	7004
2934.99	6972
2936.833	7129
2938.678	7156
2940.522	7240
2942.364	7357
2944.207	7403
2946.048	7506
2947.891	7898
2949.731	7767
2951.571	7765
2953.412	7794
2955.25	7693
2957.09	7514
2958.93	7532
2960.767	7420
2962.606	7407
2964.443	7399
2966.279	7185
2968.116	7048
2969.953	6877
2971.788	6837
2973.623	6714
2975.457	6686
2977.292	6547
2979.127	6501
2980.959	6358
2982.792	6301
2984.624	6336
2986.455	6123
2988.288	6204
2990.119	6152
2991.949	6175
2993.779	6020
2995.608	6001
2997.439	5922
2999.268	5809
3001.096	5831
3002.923	5736
3004.751	5698
3006.578	5718
3008.406	5665
3010.232	5451
3012.057	5601
3013.883	5490
3015.706	5485
3017.532	5379
3019.356	5323
3021.179	5245
3023.002	5361
3024.823	5286
3026.646	5321
3028.469	5292
3030.289	5196
3032.11	5221
3033.93	5145
3035.749	5230
3037.57	5156
3039.39	5213
3041.207	5128
3043.026	5088
3044.842	5222
3046.661	5062
3048.477	5206
3050.294	5125
3052.109	5172
3053.925	5136
3055.739	5111
3057.555	5134
3059.368	5064
3061.181	5134
3062.995	5064
3064.807	5184
3066.62	5174
3068.433	5201
3070.243	5105
3072.054	5093
3073.865	5132
3075.675	5042
3077.485	5118
3079.293	5118
3081.102	5014
3082.911	5071
3084.719	5025
3086.527	5011
3088.333	5115
3090.139	4999
3091.945	5014
3093.75	5055
3095.557	4917
3097.361	4965
3099.165	5110
3100.969	4859
3102.772	4894
3104.575	4877
3106.379	4875
3108.181	4944
3109.982	4872
3111.783	4924
3113.584	4923
3115.386	4961
3117.186	4807
3118.985	4913
3120.783	4877
3122.582	4811
3124.381	4867
3126.179	4809
3127.975	4784
3129.772	4675
3131.569	4877
3133.365	4758
3135.161	4863
3136.956	4782
3138.751	4880
3140.544	4796
3142.338	4846
3144.132	4824
3145.925	4824
3147.717	4808
3149.509	4836
3151.301	4685
3153.091	4854
3154.884	4805
3156.673	4810
3158.462	4797
3160.252	4903
3162.041	4737
3163.831	4719
3165.618	4717
3167.405	4809
3169.193	4742
3170.979	4716
3172.767	4791
3174.553	4734
3176.338	4764
3178.123	4765
3179.907	4745
3181.692	4783
3183.477	4733
3185.259	4728
3187.042	4784
3188.824	4657
3190.607	4755
3192.389	4788
3194.17	4758
3195.951	4800
3197.73	4764
3199.51	4721
3201.289	4766
3203.07	4786
3204.848	4779
3206.626	4752
3208.403	4709
3210.18	4727
3211.959	4795
3213.735	4741
3215.511	4745
3217.285	4716
3219.06	4747
3220.836	4631
3222.611	4704
3224.384	4875
3226.158	4749
3227.929	4739
3229.702	4737
3231.476	4842
3233.248	4732
3235.018	4833
3236.789	4842
3238.56	4728
3240.33	4741
3242.1	4698
3243.869	4842
3245.637	4789
3247.405	4638
3249.172	4826
3250.941	4750
3252.707	4735
3254.474	4778
3256.24	4727
3258.006	4731
3259.772	4637
3261.537	4723
3263.301	4769
3265.065	4680
3266.828	4659
3268.592	4727
3270.355	4740
3272.117	4723
3273.878	4725
3275.64	4728
3277.401	4781
3279.162	4664
3280.922	4792
3282.682	4814
3284.441	4756
3286.199	4806
3287.959	4738
3289.716	4834
3291.475	4779
3293.232	4691
3294.988	4789
3296.744	4724
3298.501	4686
3300.256	4750
3302.011	4693
3303.766	4797
3305.52	4680
3307.275	4770
3309.028	4650
3310.781	4703
3312.533	4697
3314.285	4680
3316.038	4719
3317.789	4733
3319.54	4614
3321.289	4732
3323.039	4736
3324.789	4711
3326.539	4744
3328.288	4727
3330.035	4723
3331.783	4608
3333.531	4640
3335.28	4721
3337.025	4718
3338.771	4675
3340.518	4708
3342.262	4660
3344.009	4726
3345.753	4561
3347.497	4620
3349.24	4628
3350.983	4638
3352.726	4571
3354.469	4607
3356.212	4734
3357.952	4636
3359.694	4558
3361.434	4660
3363.176	4590
3364.916	4647
3366.654	4565
3368.394	4645
3370.132	4569
3371.871	4475
3373.61	4576
3375.346	4486
3377.083	4645
3378.82	4588
3380.556	4523
3382.292	4494
3384.027	4544
3385.763	4500
3387.497	4561
3389.231	4559
3390.965	4443
3392.698	4482
3394.431	4481
3396.164	4510
3397.896	4445
3399.627	4508
3401.36	4509
3403.09	4533
3404.82	4604
3406.55	4442
3408.279	4406
3410.01	4458
3411.738	4466
3413.467	4455
3415.194	4459
3416.92	4426
3418.647	4504
3420.375	4511
3422.102	4388
3423.827	4409
3425.553	4450
3427.277	4383
3429.003	4367
3430.727	4358
3432.451	4494
3434.173	4330
3435.896	4386
3437.62	4434
3439.343	4434
3441.063	4363
3442.785	4396
3444.505	4438
3446.226	4354
3447.948	4385
3449.666	4324
3451.386	4378
3453.104	4475
3454.823	4380
3456.541	4220
3458.259	4329
3459.976	4153
3461.693	4349
3463.408	4201
3465.125	4365
3466.841	4214
3468.556	4382
3470.271	4275
3471.985	4280
3473.698	4248
3475.414	4209
3477.126	4216
3478.838	4281
3480.55	4254
3482.263	4218
3483.975	4182
3485.686	4227
3487.396	4274
3489.106	4213
3490.817	4187
3492.526	4181
3494.236	4175
3495.944	4193
3497.652	4167
3499.359	4153
3501.066	4067
3502.775	4174
3504.481	4188
3506.187	4123
3507.893	4107
3509.598	4075
3511.304	4105
3513.009	4081
3514.713	4040
3516.417	4072
3518.12	4007
3519.821	4156
3521.525	4042
3523.228	4081
3524.929	4059
3526.631	4051
3528.33	4064
3530.032	3996
3531.733	4156
3533.433	4026
3535.131	4002
3536.83	3940
3538.529	4020
3540.227	4019
3541.925	4000
3543.623	4053
3545.319	3961
3547.016	4007
3548.712	4037
3550.408	3929
3552.103	3978
3553.798	3914
3555.491	3975
3557.188	3925
3558.88	3883
3560.574	3950
3562.266	3855
3563.959	4019
3565.651	4000
3567.343	3927
3569.035	3916
3570.725	3934
3572.415	3944
3574.106	3992
3575.797	3795
3577.485	3869
3579.174	3900
3580.863	3825
3582.551	3881
3584.238	3841
3585.926	3915
3587.613	3850
3589.3	3884
3590.986	3880
3592.671	3798
3594.357	3846
3596.042	3821
3597.726	3728
3599.41	3838
3601.094	3798
3602.778	3782
3604.461	3789
3606.143	3725
3607.825	3762
3609.507	3735
3611.188	3772
3612.87	3751
3614.551	3788
3616.229	3763
3617.909	3753
3619.589	3684
3621.269	3744
3622.948	3811
3624.625	3686
3626.302	3740
3627.98	3720
3629.657	3637
3631.334	3719
3633.01	3690
3634.686	3697
3636.361	3675
3638.036	3684
3639.712	3777
3641.385	3690
3643.06	3662
3644.732	3632
3646.405	3708
3648.08	3623
3649.751	3661
3651.424	3514
3653.094	3679
3654.766	3647
3656.436	3594
3658.106	3643
3659.777	3573
3661.446	3601
3663.115	3660
3664.783	3541
3666.452	3607
3668.121	3567
3669.788	3530
3671.454	3551
3673.121	3501
3674.789	3572
3676.455	3525
3678.12	3563
3679.784	3534
3681.45	3440
3683.114	3552
3684.779	3536
3686.442	3465
3688.105	3603
3689.768	3472
3691.43	3550
3693.093	3529
3694.754	3525
3696.415	3485
3698.076	3573
3699.736	3478
3701.396	3535
3703.057	3508
3704.716	3469
3706.375	3507
3708.034	3456
3709.692	3452
3711.351	3444
3713.008	3491
3714.665	3473
3716.321	3414
3717.977	3515
3719.634	3443
3721.29	3548
3722.945	3469
3724.598	3366
3726.253	3541
3727.907	3455
3729.561	3431
3731.214	3429
3732.867	3438
3734.518	3473
3736.171	3412
3737.824	3432
3739.474	3437
3741.125	3381
3742.775	3451
3744.425	3463
3746.074	3455
3747.725	3372
3749.373	3401
3751.022	3419
3752.669	3400
3754.318	3357
3755.966	3375
3757.612	3322
3759.259	3380
3760.905	3481
3762.55	3307
3764.197	3388
3765.842	3339
3767.486	3418
3769.131	3347
3770.774	3322
3772.417	3355
3774.061	3350
3775.705	3419
3777.347	3413
3778.988	3351
3780.629	3425
3782.271	3286
3783.912	3368
3785.552	3282
3787.192	3292
3788.831	3337
3790.472	3309
3792.112	3307
3793.75	3301
3795.388	3348
3797.024	3369
3798.661	3335
3800.3	3323
3801.936	3335
3803.572	3340
3805.208	3267
3806.844	3292
3808.48	3255
3810.115	3259
3811.748	3210
3813.382	3324
3815.016	3253
3816.649	3270
3818.283	3239
3819.914	3185
3821.547	3186
3823.178	3235
3824.809	3164
3826.441	3253
3828.072	3178
3829.701	3226
3831.331	3153
3832.96	3209
3834.591	3253
3836.219	3229
3837.847	3264
3839.475	3251
3841.102	3187
3842.729	3206
3844.357	3203
3845.984	3194
3847.609	3244
3849.234	3179
3850.86	3214
3852.485	3185
3854.11	3146
3855.734	3246
3857.357	3109
3858.981	3174
3860.603	3136
3862.227	3115
3863.848	3248
3865.471	3173
3867.092	3170
3868.713	3186
3870.334	3188
3871.954	3160
3873.575	3125
3875.194	3071
3876.813	3136
3878.433	3167
3880.051	3138
3881.669	3187
3883.286	3153
3884.904	3152
3886.52	3141
3888.138	3126
3889.754	3198
3891.37	3122
3892.985	3109
3894.6	3173
3896.216	3179
3897.831	3119
3899.444	3112
3901.058	3096
3902.67	3050
3904.283	3114
3905.897	3132
3907.509	3157
3909.121	3130
3910.731	3090
3912.342	3036
3913.954	3128
3915.563	3064
3917.174	3074
3918.783	3033
3920.391	3026
3922.002	3079
3923.611	3130
3925.218	3142
3926.826	3062
3928.432	3086
3930.039	3129
3931.647	3163
3933.253	3032
3934.859	3082
3936.464	3062
3938.068	3114
3939.675	3105
3941.278	3082
3942.883	3036
3944.486	3063
3946.089	3104
3947.692	3044
3949.295	3080
3950.898	3027
3952.499	3084
3954.1	2986
3955.7	3090
3957.303	3051
3958.903	3042
3960.502	3012
3962.101	2963
3963.7	2980
3965.301	2974
3966.899	2968
3968.497	3071
3970.094	3097
3971.691	2961
3973.288	3023
3974.885	3049
3976.481	2998
3978.077	3014
3979.672	2942
3981.267	2940
3982.863	3019
3984.457	2992
3986.051	2969
3987.645	2904
3989.238	2920
3990.831	2962
3992.425	2933
3994.017	2990
3995.607	2915
3997.199	2965
3998.79	2965
4000.382	2947
4001.973	3007
4003.561	2885
4005.151	2881
4006.741	2952
4008.331	2981
4009.918	2932
4011.507	2953
4013.095	2880
4014.681	2859
4016.269	2954
4017.856	2865
4019.443	2856
4021.028	2947
4022.614	2823
4024.199	2865
4025.785	2879
4027.37	2951
4028.953	2856
4030.536	2846
4032.12	2838
4033.704	2865
4035.287	2823
4036.869	2896
4038.45	2881
4040.032	2862
4041.613	2854
4043.195	2847
4044.776	2865
4046.356	2867
4047.935	2772
4049.515	2823
4051.095	2871
4052.674	2824
4054.251	2798
4055.829	2851
4057.406	2820
4058.985	2792
4060.562	2797
4062.139	2810
4063.715	2784
4065.29	2775
4066.865	2846
4068.442	2799
4070.016	2791
4071.59	2779
4073.164	2733
4074.738	2825
4076.312	2769
4077.885	2734
4079.458	2762
4081.03	2834
4082.602	2782
4084.173	2793
4085.745	2798
4087.315	2746
4088.886	2806
4090.456	2813
4092.026	2771
4093.596	2748
4095.165	2787
4096.734	2716
4098.301	2832
4099.869	2816
4101.437	2715
4103.006	2707
4104.572	2748
4106.139	2729
4107.704	2723
4109.27	2770
4110.837	2738
4112.401	2776
4113.966	2794
4115.53	2635
4117.094	2700
4118.659	2711
4120.223	2754
4121.785	2637
4123.347	2707
4124.909	2660
4126.471	2703
4128.034	2734
4129.595	2679
4131.155	2685
4132.716	2692
4134.275	2670
4135.836	2693
4137.395	2694
4138.955	2668
4140.513	2626
4142.071	2684
4143.628	2674
4145.188	2660
4146.745	2623
4148.302	2614
4149.858	2587
4151.414	2639
4152.971	2598
4154.526	2651
4156.081	2606
4157.635	2624
4159.189	2611
4160.745	2575
4162.298	2584
4163.852	2629
4165.405	2627
4166.957	2595
4168.51	2569
4170.063	2586
4171.614	2640
4173.166	2574
4174.717	2630
4176.267	2593
4177.817	2576
4179.368	2611
4180.917	2612
4182.466	2562
4184.016	2585
4185.564	2554
4187.112	2560
4188.66	2506
4190.207	2578
4191.754	2605
4193.301	2541
4194.848	2510
4196.394	2521
4197.94	2504
4199.484	2555
4201.03	2540
4202.575	2528
4204.12	2497
4205.663	2582
4207.207	2593
4208.75	2520
4210.292	2508
4211.836	2514
4213.378	2535
4214.92	2483
4216.46	2545
4218.002	2511
4219.544	2510
4221.083	2506
4222.625	2516
4224.164	2507
4225.703	2459
4227.244	2500
4228.782	2520
4230.32	2585
4231.857	2481
4233.395	2507
4234.933	2479
4236.471	2434
4238.007	2517
4239.542	2435
4241.078	2507
4242.614	2507
4244.15	2460
4245.685	2540
4247.219	2477
4248.753	2450
4250.287	2486
4251.82	2489
4253.354	2499
4254.887	2476
4256.419	2437
4257.951	2498
4259.483	2411
4261.016	2448
4262.547	2529
4264.078	2440
4265.608	2484
4267.137	2394
4268.668	2497
4270.197	2443
4271.727	2428
4273.254	2511
4274.783	2438
4276.311	2424
4277.84	2437
4279.366	2438
4280.894	2499
4282.42	2449
4283.946	2431
4285.473	2463
4286.998	2409
4288.523	2425
4290.047	2450
4291.572	2425
4293.096	2377
4294.622	2386
4296.144	2368
4297.668	2419
4299.19	2427
4300.713	2409
4302.236	2378
4303.758	2390
4305.279	2365
4306.799	2435
4308.321	2389
4309.842	2397
4311.361	2373
4312.882	2373
4314.401	2428
