400.0961	4369
402.6185	4411
405.1424	4380
407.6635	4357
410.1838	4408
412.7035	4424
415.2225	4462
417.7388	4510
420.2585	4604
422.7754	4611
425.2917	4695
427.8072	4677
430.3221	4682
432.8363	4663
435.3498	4662
437.8626	4675
440.3727	4784
442.8841	4719
445.3969	4583
447.907	4632
450.4142	4705
452.9229	4681
455.4289	4647
457.9362	4600
460.4449	4637
462.9488	4559
465.454	4649
467.9566	4694
470.4604	4690
472.9637	4708
475.4662	4747
477.966	4703
480.4671	4614
482.9656	4793
485.4633	4744
487.9645	4798
490.4608	4786
492.9566	4694
495.4536	4767
497.948	4706
500.4437	4807
502.9387	4796
505.431	4724
507.9226	4751
510.4136	4770
512.9079	4808
515.3975	4889
517.8864	4786
520.3746	4903
522.8622	4795
525.3491	4944
527.8394	4821
530.3249	4858
532.8098	4855
535.2939	4845
537.7774	4874
540.2623	4900
542.7444	4844
545.2259	4806
547.7067	4933
550.1868	4884
552.6683	4886
555.147	4901
557.6231	4828
560.1005	4904
562.5773	4978
565.0534	5014
567.5308	5022
570.0056	4889
572.4776	4998
574.951	5064
577.4237	5075
579.8978	5046
582.3671	5215
584.8378	5076
587.3079	5078
589.7773	5084
592.244	5115
594.714	5074
597.1793	5181
599.6461	5061
602.1121	5004
604.5754	5137
607.0421	5076
609.5042	5031
611.9675	5087
614.4282	5122
616.8902	5082
619.3515	4997
621.8122	5056
624.2702	5024
626.7296	5052
629.1863	4923
631.6423	4914
634.1017	4956
636.5563	5046
639.0104	5047
641.4658	5076
643.9185	5013
646.3725	5063
648.8239	5081
651.2766	5104
653.7266	5063
656.176	5087
658.6247	5121
661.0748	5081
663.5242	5220
665.9709	5139
668.417	5085
670.8624	5276
673.3092	5082
675.7533	5143
678.1968	5106
680.6395	5179
683.0817	5133
685.5251	5223
687.9659	5194
690.4061	5170
692.8456	5360
695.2844	5180
697.7226	5266
700.1621	5180
702.599	5233
705.0332	5238
707.4688	5264
709.9036	5237
712.3399	5280
714.7735	5257
717.2044	5196
719.6367	5385
722.0683	5342
724.4993	5354
726.9296	5352
729.3593	5398
731.7883	5396
734.2147	5473
736.6423	5440
739.0714	5424
741.4958	5413
743.9216	5427
746.3447	5425
748.7691	5509
751.1929	5507
753.616	5585
756.0366	5558
758.4584	5490
760.8776	5580
763.2982	5563
765.718	5618
768.1373	5626
770.5539	5576
772.9698	5580
775.3871	5580
777.8038	5630
780.2178	5698
782.6332	5581
785.0459	5626
787.458	5608
789.8714	5552
792.2842	5620
794.6943	5590
797.1038	5635
799.5127	5634
801.9209	5510
804.3324	5571
806.7393	5756
809.1456	5645
811.5513	5652
813.9562	5624
816.3625	5789
818.7663	5609
821.1693	5665
823.5718	5693
825.9735	5629
828.3746	5671
830.7771	5519
833.177	5654
835.5762	5695
837.9747	5711
840.3727	5713
842.772	5661
845.1666	5847
847.5626	5894
849.958	5823
852.3527	5861
854.7488	5905
857.1403	5905
859.5331	5941
861.9253	5813
864.3168	5822
866.7057	5762
869.098	5794
871.4876	5824
873.8746	5751
876.263	5837
878.6487	5734
881.0378	5811
883.4243	5883
885.8081	5833
888.1933	5867
890.5759	5795
892.9598	5704
895.343	5769
897.7256	5808
900.1057	5817
902.4871	5971
904.8659	5786
907.246	5873
909.6254	5859
912.0023	5892
914.3786	5920
916.7562	6069
919.1331	6169
921.5074	6172
923.8831	6228
926.2562	6254
928.6287	6143
931.0005	6163
933.3757	6161
935.7462	6264
938.1162	6201
940.4855	6240
942.8542	6254
945.2242	6398
947.5916	6548
949.9584	6530
952.3266	6798
954.6921	6946
957.0571	7457
959.4233	7691
961.787	7609
964.15	7639
966.5125	7446
968.8742	7113
971.2354	6917
973.5959	6585
975.9559	6363
978.3151	6402
980.6738	6291
983.0338	6202
985.3912	6071
987.7461	6119
990.1022	5986
992.4578	5950
994.8127	6026
997.1689	6198
999.5207	6097
1001.874	6149
1004.226	6146
1006.576	6084
1008.929	6151
1011.28	6112
1013.628	6090
1015.977	6010
1018.324	6016
1020.674	6074
1023.019	6121
1025.366	6093
1027.713	6081
1030.056	6122
1032.399	6190
1034.746	6116
1037.087	6041
1039.431	6135
1041.771	6087
1044.113	6148
1046.454	6235
1048.793	6310
1051.133	6094
1053.471	6045
1055.807	6223
1058.146	6254
1060.483	6133
1062.818	6166
1065.153	6181
1067.489	6362
1069.822	6247
1072.156	6319
1074.488	6265
1076.82	6398
1079.15	6155
1081.48	6314
1083.814	6303
1086.143	6196
1088.471	6297
1090.799	6234
1093.126	6162
1095.452	6317
1097.78	6202
1100.105	6311
1102.43	6246
1104.754	6226
1107.077	6148
1109.4	6149
1111.722	6221
1114.044	6307
1116.365	6171
1118.685	6099
1121.005	6274
1123.324	6305
1125.643	6168
1127.961	6339
1130.278	6241
1132.595	6270
1134.911	6213
1137.226	6109
1139.541	6183
1141.854	6265
1144.167	6206
1146.482	6214
1148.793	6291
1151.105	6108
1153.414	6310
1155.725	6322
1158.033	6155
1160.344	6241
1162.651	6321
1164.959	6195
1167.265	6207
1169.572	6304
1171.878	6194
1174.184	6282
1176.488	6217
1178.79	6313
1181.094	6375
1183.396	6180
1185.699	6163
1188.001	6092
1190.301	6205
1192.6	6135
1194.9	6197
1197.2	6146
1199.497	6141
1201.794	6313
1204.09	6203
1206.387	6326
1208.684	6230
1210.978	6362
1213.272	6352
1215.565	6347
1217.858	6288
1220.15	6299
1222.443	6280
1224.734	6245
1227.024	6341
1229.313	6279
1231.602	6410
1233.892	6332
1236.18	6375
1238.467	6514
1240.754	6339
1243.04	6485
1245.325	6411
1247.612	6667
1249.896	6513
1252.178	6543
1254.461	6599
1256.743	6458
1259.027	6535
1261.308	6559
1263.587	6496
1265.867	6644
1268.146	6487
1270.425	6445
1272.703	6479
1274.981	6456
1277.256	6476
1279.532	6544
1281.808	6463
1284.083	6524
1286.358	6411
1288.63	6453
1290.904	6407
1293.175	6503
1295.449	6402
1297.719	6546
1299.99	6460
1302.259	6442
1304.529	6332
1306.798	6324
1309.065	6436
1311.333	6408
1313.599	6467
1315.866	6449
1318.131	6547
1320.396	6434
1322.66	6480
1324.925	6480
1327.187	6499
1329.448	6505
1331.711	6530
1333.974	6468
1336.234	6368
1338.493	6539
1340.752	6494
1343.01	6423
1345.269	6447
1347.526	6542
1349.784	6468
1352.04	6394
1354.295	6495
1356.552	6366
1358.806	6337
1361.059	6435
1363.312	6451
1365.564	6463
1367.818	6424
1370.069	6488
1372.318	6468
1374.568	6515
1376.817	6491
1379.066	6435
1381.316	6561
1383.564	6552
1385.809	6550
1388.056	6524
1390.301	6631
1392.549	6605
1394.793	6628
1397.036	6593
1399.279	6777
1401.522	6681
1403.763	6822
1406.007	6670
1408.248	6705
1410.487	6640
1412.727	6688
1414.965	6648
1417.205	6705
1419.442	6711
1421.68	6681
1423.915	6768
1426.152	6567
1428.388	6620
1430.623	6682
1432.857	6696
1435.091	6749
1437.323	6662
1439.556	6713
1441.789	6743
1444.019	6791
1446.25	6645
1448.48	6813
1450.708	6774
1452.938	6813
1455.167	6874
1457.394	6933
1459.62	6844
1461.846	6800
1464.073	6806
1466.299	6773
1468.523	6690
1470.746	6614
1472.969	6722
1475.191	6574
1477.415	6598
1479.636	6610
1481.858	6519
1484.078	6460
1486.298	6503
1488.518	6559
1490.736	6485
1492.954	6518
1495.169	6410
1497.386	6528
1499.602	6342
1501.819	6495
1504.034	6420
1506.248	6507
1508.462	6432
1510.675	6497
1512.888	6413
1515.1	6491
1517.311	6561
1519.522	6387
1521.732	6469
1523.942	6543
1526.151	6442
1528.36	6445
1530.566	6451
1532.773	6551
1534.98	6442
1537.187	6477
1539.392	6520
1541.596	6419
1543.801	6406
1546.005	6439
1548.208	6467
1550.411	6545
1552.612	6521
1554.814	6553
1557.013	6485
1559.212	6563
1561.414	6537
1563.612	6534
1565.811	6589
1568.007	6594
1570.203	6600
1572.403	6516
1574.598	6654
1576.792	6607
1578.988	6683
1581.181	6588
1583.376	6562
1585.568	6514
1587.761	6634
1589.952	6595
1592.143	6519
1594.333	6654
1596.524	6647
1598.715	6738
1600.903	6680
1603.091	6678
1605.278	6699
1607.466	6752
1609.652	6682
1611.838	6709
1614.023	6612
1616.207	6695
1618.391	6720
1620.576	6709
1622.759	6813
1624.941	6739
1627.123	6724
1629.304	6719
1631.484	6741
1633.664	6717
1635.844	6848
1638.022	6818
1640.201	6708
1642.38	6694
1644.556	6783
1646.732	6853
1648.908	6904
1651.084	6828
1653.257	6666
1655.433	6814
1657.607	6824
1659.779	6845
1661.951	6702
1664.122	6753
1666.295	6911
1668.467	6873
1670.635	6851
1672.805	6895
1674.973	6738
1677.142	6905
1679.31	6842
1681.478	6801
1683.644	6826
1685.81	6814
1687.975	6699
1690.142	6918
1692.305	6743
1694.468	6724
1696.632	6694
1698.794	6686
1700.957	6677
1703.119	6718
1705.279	6516
1707.439	6704
1709.598	6689
1711.758	6598
1713.917	6729
1716.075	6593
1718.231	6652
1720.388	6616
1722.543	6679
1724.702	6669
1726.856	6704
1729.01	6707
1731.164	6704
1733.317	6724
1735.471	6696
1737.623	6657
1739.774	6613
1741.925	6731
1744.075	6548
1746.225	6741
1748.376	6659
1750.524	6617
1752.672	6690
1754.82	6657
1756.965	6668
1759.113	6711
1761.259	6747
1763.405	6787
1765.549	6822
1767.694	6688
1769.836	6801
1771.981	6645
1774.123	6673
1776.264	6739
1778.405	6810
1780.546	6717
1782.687	6623
1784.827	6754
1786.966	6693
1789.103	6794
1791.242	6684
1793.381	6758
1795.517	6672
1797.653	6664
1799.788	6747
1801.923	6758
1804.057	6722
1806.193	6725
1808.326	6701
1810.457	6667
1812.59	6692
1814.721	6855
1816.855	6661
1818.984	6650
1821.113	6766
1823.244	6784
1825.372	6592
1827.499	6730
1829.63	6745
1831.756	6719
1833.882	6806
1836.007	6597
1838.132	6669
1840.26	6808
1842.384	6571
1844.507	6652
1846.63	6587
1848.752	6656
1850.875	6641
1852.996	6660
1855.118	6625
1857.238	6675
1859.358	6614
1861.477	6530
1863.597	6635
1865.715	6700
1867.832	6742
1869.948	6633
1872.064	6671
1874.181	6575
1876.297	6615
1878.411	6680
1880.526	6628
1882.639	6663
1884.752	6676
1886.865	6812
1888.977	6764
1891.089	6613
1893.2	6704
1895.308	6716
1897.42	6742
1899.53	6598
1901.639	6691
1903.745	6712
1905.853	6714
1907.962	6834
1910.067	6672
1912.174	6784
1914.278	6769
1916.383	6705
1918.486	6831
1920.592	6714
1922.694	6783
1924.797	6768
1926.898	6825
1929	6802
1931.102	6837
1933.203	6755
1935.301	6756
1937.401	6700
1939.499	6698
1941.598	6803
1943.697	6781
1945.793	6802
1947.888	6891
1949.985	6744
1952.08	6848
1954.176	6647
1956.269	6693
1958.364	6749
1960.457	6795
1962.549	6758
1964.642	6732
1966.733	6667
1968.823	6899
1970.913	6745
1973.005	6696
1975.093	6705
1977.184	6689
1979.271	6697
1981.359	6762
1983.446	6766
1985.532	6640
1987.619	6628
1989.705	6746
1991.789	6705
1993.874	6736
1995.956	6625
1998.041	6809
2000.123	6646
2002.206	6707
2004.287	6746
2006.368	6756
2008.449	6601
2010.529	6692
2012.609	6595
2014.688	6649
2016.766	6617
2018.843	6666
2020.922	6627
2022.999	6776
2025.074	6630
2027.15	6576
2029.225	6633
2031.299	6602
2033.375	6663
2035.447	6591
2037.52	6696
2039.592	6803
2041.664	6681
2043.736	6595
2045.807	6555
2047.876	6669
2049.947	6582
2052.015	6666
2054.086	6682
2056.153	6627
2058.221	6696
2060.288	6710
2062.353	6644
2064.42	6783
2066.486	6588
2068.55	6698
2070.614	6588
2072.678	6547
2074.741	6579
2076.805	6767
2078.866	6788
2080.929	6872
2082.99	6681
2085.049	6693
2087.109	6726
2089.17	6710
2091.228	6677
2093.286	6738
2095.344	6681
2097.4	6755
2099.46	6622
2101.516	6607
2103.572	6776
2105.626	6663
2107.679	6698
2109.735	6677
2111.788	6688
2113.841	6761
2115.894	6538
2117.945	6606
2119.997	6678
2122.049	6679
2124.1	6677
2126.148	6638
2128.197	6730
2130.246	6744
2132.296	6727
2134.342	6821
2136.39	6693
2138.437	6689
2140.483	6626
2142.527	6622
2144.574	6656
2146.619	6484
2148.661	6647
2150.705	6581
2152.747	6728
2154.792	6602
2156.832	6585
2158.874	6646
2160.915	6654
2162.954	6637
2164.995	6620
2167.034	6715
2169.072	6608
2171.111	6620
2173.148	6492
2175.186	6534
2177.223	6562
2179.258	6601
2181.294	6600
2183.328	6552
2185.362	6669
2187.398	6417
2189.431	6626
2191.463	6534
2193.495	6533
2195.528	6456
2197.56	6463
2199.59	6557
2201.62	6472
2203.649	6585
2205.678	6419
2207.708	6486
2209.737	6510
2211.764	6447
2213.791	6473
2215.817	6520
2217.843	6508
2219.87	6374
2221.895	6632
2223.919	6384
2225.942	6508
2227.966	6475
2229.988	6478
2232.012	6524
2234.032	6566
2236.054	6478
2238.074	6493
2240.095	6540
2242.116	6512
2244.135	6428
2246.153	6360
2248.171	6448
2250.188	6478
2252.208	6449
2254.223	6518
2256.239	6506
2258.255	6407
2260.269	6519
2262.283	6476
2264.3	6469
2266.312	6470
2268.325	6543
2270.336	6467
2272.349	6576
2274.362	6448
2276.372	6571
2278.383	6425
2280.392	6437
2282.402	6531
2284.409	6587
2286.418	6484
2288.427	6568
2290.433	6598
2292.441	6374
2294.446	6407
2296.453	6542
2298.459	6511
2300.463	6459
2302.466	6473
2304.471	6414
2306.475	6391
2308.477	6505
2310.478	6378
2312.481	6472
2314.481	6604
2316.481	6418
2318.482	6458
2320.482	6375
2322.48	6440
2324.48	6453
2326.478	6448
2328.476	6521
2330.473	6546
2332.469	6395
2334.465	6372
2336.46	6378
2338.454	6277
2340.45	6345
2342.444	6336
2344.437	6436
2346.43	6424
2348.421	6409
2350.414	6336
2352.405	6351
2354.396	6429
2356.386	6455
2358.376	6441
2360.366	6357
2362.355	6396
2364.343	6297
2366.331	6278
2368.317	6280
2370.304	6280
2372.292	6388
2374.278	6337
2376.262	6346
2378.247	6417
2380.23	6363
2382.216	6391
2384.199	6362
2386.181	6233
2388.163	6273
2390.144	6235
2392.127	6289
2394.107	6267
2396.087	6227
2398.066	6244
2400.046	6173
2402.023	6286
2404.004	6193
2405.981	6243
2407.957	6152
2409.934	6276
2411.91	6331
2413.886	6302
2415.862	6240
2417.836	6194
2419.809	6265
2421.784	6173
2423.756	6187
2425.73	6121
2427.701	6291
2429.672	6295
2431.644	6285
2433.615	6299
2435.586	6273
2437.555	6279
2439.523	6179
2441.491	6207
2443.459	6164
2445.428	6216
2447.395	6096
2449.361	6114
2451.327	6246
2453.292	6128
2455.257	6168
2457.223	6155
2459.187	6109
2461.15	6194
2463.113	6246
2465.076	6070
2467.039	6190
2468.999	6042
2470.96	6205
2472.921	6175
2474.881	6220
2476.841	6099
2478.8	6048
2480.759	6236
2482.717	6151
2484.675	6188
2486.63	6216
2488.589	6075
2490.545	6181
2492.5	6070
2494.455	6179
2496.408	6093
2498.364	6289
2500.318	6100
2502.27	6127
2504.223	6046
2506.174	6139
2508.126	6081
2510.078	6085
2512.03	6120
2513.979	6187
2515.927	6063
2517.877	6103
2519.826	6176
2521.775	6045
2523.722	6005
2525.668	6130
2527.616	6111
2529.561	6028
2531.508	6036
2533.452	6141
2535.398	6068
2537.342	6137
2539.284	6081
2541.229	6157
2543.173	6037
2545.114	6030
2547.055	5987
2548.996	6016
2550.938	6049
2552.878	6103
2554.817	6075
2556.756	6047
2558.695	6167
2560.633	5932
2562.572	6033
2564.509	6056
2566.445	6061
2568.382	6044
2570.317	6001
2572.254	6137
2574.189	6071
2576.123	5918
2578.057	6158
2579.99	6036
2581.923	6152
2583.855	6068
2585.788	5983
2587.719	6098
2589.65	6102
2591.579	6156
2593.511	6127
2595.44	6014
2597.37	6041
2599.297	5975
2601.225	6034
2603.153	5952
2605.08	6122
2607.007	6085
2608.932	6020
2610.858	6039
2612.782	6038
2614.709	6179
2616.632	6114
2618.556	6099
2620.478	6119
2622.401	6132
2624.324	6079
2626.247	6047
2628.167	6098
2630.088	6048
2632.008	6157
2633.928	6057
2635.848	5993
2637.766	6153
2639.684	6111
2641.603	6053
2643.519	6090
2645.437	6108
2647.353	6202
2649.27	6159
2651.184	6089
2653.099	6116
2655.014	6063
2656.928	6059
2658.842	6132
2660.755	6003
2662.667	5962
2664.579	6063
2666.491	6037
2668.402	6062
2670.312	6154
2672.222	5951
2674.132	6053
2676.042	6030
2677.951	6056
2679.859	5995
2681.766	6019
2683.674	6037
2685.582	5973
2687.488	6066
2689.392	5935
2691.298	6022
2693.202	6043
2695.107	5983
2697.012	5901
2698.914	6064
2700.817	5860
2702.72	5896
2704.622	5994
2706.524	5844
2708.425	5916
2710.326	5920
2712.225	6006
2714.125	5975
2716.024	5971
2717.923	5895
2719.822	5983
2721.719	5820
2723.616	5858
2725.512	6035
2727.41	5959
2729.305	5923
2731.201	5923
2733.095	6022
2734.99	5973
2736.884	5972
2738.778	5997
2740.67	5941
2742.562	5847
2744.455	5948
2746.346	5854
2748.238	5882
2750.129	5797
2752.018	5922
2753.907	5964
2755.797	5938
2757.687	5905
2759.575	5883
2761.462	5849
2763.349	5891
2765.237	5896
2767.124	5971
2769.009	5902
2770.894	5883
2772.779	5914
2774.663	5896
2776.547	5834
2778.431	5798
2780.314	5850
2782.197	5837
2784.078	5840
2785.96	5900
2787.842	5954
2789.723	5916
2791.603	5912
2793.483	5878
2795.362	5799
2797.241	5842
2799.121	5923
2800.997	5833
2802.874	5965
2804.751	5795
2806.628	5929
2808.506	5946
2810.38	5655
2812.255	5914
2814.13	5790
2816.003	5897
2817.878	5908
2819.752	5796
2821.623	5908
2823.496	5753
2825.368	5925
2827.238	5774
2829.111	5886
2830.98	5798
2832.851	5889
2834.719	5814
2836.589	5796
2838.458	5831
2840.327	5761
2842.193	5865
2844.061	5835
2845.927	5907
2847.794	5894
2849.66	5954
2851.525	5906
2853.39	5898
2855.254	5898
2857.117	5975
2858.983	5945
2860.845	5940
2862.707	6005
2864.569	6087
2866.431	6076
2868.293	5946
2870.154	6177
2872.013	6263
2873.873	6181
2875.733	6272
2877.592	6347
2879.451	6287
2881.309	6378
2883.166	6383
2885.022	6429
2886.879	6411
2888.736	6525
2890.591	6576
2892.446	6514
2894.301	6562
2896.155	6463
2898.009	6454
2899.863	6400
2901.716	6438
2903.568	6425
2905.419	6427
2907.27	6456
2909.123	6470
2910.973	6466
2912.824	6581
2914.673	6542
2916.521	6623
2918.372	6759
2920.22	6799
2922.067	6752
2923.914	6787
2925.761	6893
2927.607	6919
2929.455	6874
2931.301	6934
2933.144	6965
2934.99	7088
2936.833	7161
2938.678	7237
2940.522	7127
2942.364	7333
2944.207	7324
2946.048	7517
2947.891	7419
2949.731	7434
2951.571	7331
2953.412	7456
2955.25	7428
2957.09	7297
2958.93	7180
2960.767	7033
2962.606	7056
2964.443	6948
2966.279	7016
2968.116	6789
2969.953	6719
2971.788	6687
2973.623	6680
2975.457	6584
2977.292	6595
2979.127	6582
2980.959	6529
2982.792	6492
2984.624	6409
2986.455	6480
2988.288	6446
2990.119	6358
2991.949	6426
2993.779	6272
2995.608	6209
2997.439	6290
2999.268	6205
3001.096	6197
3002.923	6083
3004.751	6097
3006.578	5995
3008.406	6060
3010.232	5924
3012.057	5927
3013.883	5852
3015.706	5879
3017.532	5743
3019.356	5746
3021.179	5693
3023.002	5728
3024.823	5699
3026.646	5633
3028.469	5609
3030.289	5736
3032.11	5595
3033.93	5624
3035.749	5541
3037.57	5629
3039.39	5550
3041.207	5636
3043.026	5555
3044.842	5605
3046.661	5634
3048.477	5634
3050.294	5535
3052.109	5575
3053.925	5570
3055.739	5546
3057.555	5665
3059.368	5505
3061.181	5548
3062.995	5528
3064.807	5470
3066.62	5564
3068.433	5447
3070.243	5499
3072.054	5583
3073.865	5498
3075.675	5399
3077.485	5481
3079.293	5488
3081.102	5490
3082.911	5516
3084.719	5424
3086.527	5440
3088.333	5526
3090.139	5381
3091.945	5310
3093.75	5350
3095.557	5431
3097.361	5399
3099.165	5459
3100.969	5335
3102.772	5335
3104.575	5373
3106.379	5369
3108.181	5370
3109.982	5373
3111.783	5300
3113.584	5366
3115.386	5269
3117.186	5378
3118.985	5398
3120.783	5298
3122.582	5339
3124.381	5246
3126.179	5273
3127.975	5399
3129.772	5278
3131.569	5271
3133.365	5268
3135.161	5214
3136.956	5220
3138.751	5277
3140.544	5249
3142.338	5320
3144.132	5288
3145.925	5254
3147.717	5236
3149.509	5261
3151.301	5159
3153.091	5247
3154.884	5141
3156.673	5181
3158.462	5143
3160.252	5158
3162.041	5191
3163.831	5149
3165.618	5136
3167.405	5227
3169.193	5269
3170.979	5159
3172.767	5215
3174.553	5199
3176.338	5138
3178.123	5193
3179.907	5235
3181.692	5203
3183.477	5113
3185.259	5142
3187.042	5035
3188.824	5208
3190.607	5216
3192.389	5175
3194.17	5159
3195.951	5105
3197.73	5203
3199.51	5106
3201.289	5140
3203.07	5221
3204.848	5072
3206.626	5113
3208.403	5110
3210.18	5121
3211.959	5097
3213.735	5100
3215.511	5158
3217.285	5155
3219.06	5098
3220.836	5048
3222.611	5174
3224.384	5006
3226.158	5164
3227.929	5114
3229.702	5176
3231.476	5143
3233.248	5124
3235.018	5098
3236.789	5098
3238.56	5166
3240.33	5043
3242.1	5145
3243.869	5079
3245.637	5117
3247.405	5135
3249.172	5111
3250.941	5179
3252.707	5046
3254.474	5077
3256.24	5150
3258.006	5066
3259.772	5102
3261.537	5170
3263.301	5170
3265.065	5080
3266.828	5144
3268.592	4993
3270.355	5176
3272.117	5187
3273.878	5204
3275.64	5150
3277.401	5057
3279.162	5103
3280.922	5114
3282.682	4969
3284.441	5205
3286.199	5156
3287.959	5117
3289.716	5080
3291.475	5161
3293.232	5088
3294.988	5086
3296.744	5084
3298.501	5139
3300.256	5112
3302.011	5063
3303.766	5111
3305.52	5223
3307.275	5081
3309.028	5033
3310.781	5076
3312.533	5040
3314.285	5074
3316.038	5030
3317.789	5164
3319.54	5133
3321.289	5033
3323.039	4981
3324.789	5046
3326.539	5085
3328.288	4982
3330.035	5114
3331.783	5029
3333.531	5150
3335.28	5117
3337.025	4978
3338.771	5066
3340.518	4970
3342.262	5063
3344.009	5090
3345.753	5075
3347.497	5015
3349.24	5073
3350.983	4965
3352.726	4979
3354.469	4953
3356.212	5005
3357.952	4929
3359.694	4979
3361.434	4928
3363.176	4968
3364.916	4934
3366.654	5015
3368.394	4872
3370.132	4978
3371.871	4879
3373.61	4942
3375.346	4937
3377.083	4939
3378.82	5007
3380.556	4961
3382.292	5011
3384.027	4842
3385.763	4892
3387.497	4934
3389.231	4899
3390.965	4805
3392.698	4910
3394.431	4794
3396.164	4890
3397.896	4929
3399.627	4752
3401.36	4908
3403.09	4866
3404.82	4832
3406.55	4870
3408.279	4837
3410.01	4852
3411.738	4887
3413.467	4859
3415.194	4887
3416.92	4875
3418.647	4943
3420.375	4721
3422.102	4885
3423.827	4874
3425.553	4861
3427.277	4766
3429.003	4678
3430.727	4748
3432.451	4723
3434.173	4739
3435.896	4784
3437.62	4695
3439.343	4716
3441.063	4750
3442.785	4627
3444.505	4721
3446.226	4746
3447.948	4756
3449.666	4746
3451.386	4748
3453.104	4634
3454.823	4672
3456.541	4694
3458.259	4653
3459.976	4617
3461.693	4636
3463.408	4665
3465.125	4628
3466.841	4598
3468.556	4604
3470.271	4622
3471.985	4614
3473.698	4617
3475.414	4670
3477.126	4622
3478.838	4526
3480.55	4570
3482.263	4556
3483.975	4540
3485.686	4597
3487.396	4503
3489.106	4582
3490.817	4624
3492.526	4541
3494.236	4583
3495.944	4519
3497.652	4628
3499.359	4647
3501.066	4476
3502.775	4520
3504.481	4475
3506.187	4422
3507.893	4511
3509.598	4540
3511.304	4496
3513.009	4546
3514.713	4459
3516.417	4439
3518.12	4432
3519.821	4362
3521.525	4492
3523.228	4422
3524.929	4423
3526.631	4405
3528.33	4416
3530.032	4512
3531.733	4468
3533.433	4524
3535.131	4298
3536.83	4357
3538.529	4417
3540.227	4350
3541.925	4466
3543.623	4399
3545.319	4324
3547.016	4436
3548.712	4353
3550.408	4306
3552.103	4361
3553.798	4303
3555.491	4362
3557.188	4401
3558.88	4319
3560.574	4363
3562.266	4293
3563.959	4307
3565.651	4245
3567.343	4302
3569.035	4302
3570.725	4401
3572.415	4333
3574.106	4281
3575.797	4295
3577.485	4333
3579.174	4341
3580.863	4295
3582.551	4277
3584.238	4337
3585.926	4275
3587.613	4291
3589.3	4155
3590.986	4237
3592.671	4152
3594.357	4293
3596.042	4209
3597.726	4305
3599.41	4190
3601.094	4157
3602.778	4204
3604.461	4148
3606.143	4064
3607.825	4124
3609.507	4152
3611.188	4083
3612.87	4157
3614.551	4044
3616.229	4072
3617.909	4081
3619.589	4185
3621.269	4173
3622.948	4039
3624.625	4034
3626.302	4097
3627.98	4135
3629.657	4082
3631.334	4088
3633.01	4024
3634.686	4008
3636.361	4062
3638.036	4030
3639.712	4045
3641.385	4101
3643.06	4090
3644.732	4007
3646.405	4087
3648.08	4008
3649.751	4026
3651.424	4000
3653.094	4010
3654.766	4035
3656.436	3915
3658.106	3922
3659.777	3948
3661.446	3916
3663.115	4006
3664.783	3917
3666.452	4022
3668.121	4074
3669.788	4028
3671.454	4014
3673.121	4050
3674.789	3876
3676.455	3910
3678.12	3996
3679.784	3954
3681.45	3876
3683.114	3922
3684.779	3921
3686.442	3920
3688.105	3853
3689.768	3916
3691.43	3945
3693.093	3877
3694.754	3937
3696.415	3936
3698.076	3942
3699.736	3929
3701.396	3921
3703.057	3867
3704.716	3816
3706.375	3894
3708.034	3948
3709.692	3848
3711.351	3884
3713.008	3860
3714.665	3890
3716.321	3912
3717.977	3885
3719.634	3789
3721.29	3855
3722.945	3813
3724.598	3851
3726.253	3773
3727.907	3801
3729.561	3828
3731.214	3839
3732.867	3778
3734.518	3814
3736.171	3756
3737.824	3809
3739.474	3743
3741.125	3829
3742.775	3771
3744.425	3767
3746.074	3752
3747.725	3814
3749.373	3743
3751.022	3802
3752.669	3693
3754.318	3791
3755.966	3712
3757.612	3790
3759.259	3784
3760.905	3764
3762.55	3739
3764.197	3796
3765.842	3712
3767.486	3733
3769.131	3768
3770.774	3725
3772.417	3833
3774.061	3738
3775.705	3764
3777.347	3739
3778.988	3666
3780.629	3691
3782.271	3668
3783.912	3678
3785.552	3680
3787.192	3766
3788.831	3722
3790.472	3663
3792.112	3722
3793.75	3599
3795.388	3649
3797.024	3625
3798.661	3573
3800.3	3690
3801.936	3659
3803.572	3677
3805.208	3623
3806.844	3621
3808.48	3699
3810.115	3515
3811.748	3686
3813.382	3698
3815.016	3601
3816.649	3651
3818.283	3647
3819.914	3585
3821.547	3652
3823.178	3670
3824.809	3628
3826.441	3585
3828.072	3600
3829.701	3583
3831.331	3607
3832.96	3617
3834.591	3633
3836.219	3567
3837.847	3590
3839.475	3556
3841.102	3534
3842.729	3567
3844.357	3605
3845.984	3576
3847.609	3566
3849.234	3502
3850.86	3605
3852.485	3586
3854.11	3533
3855.734	3527
3857.357	3565
3858.981	3553
3860.603	3534
3862.227	3544
3863.848	3499
3865.471	3488
3867.092	3471
3868.713	3488
3870.334	3537
3871.954	3486
3873.575	3501
3875.194	3454
3876.813	3450
3878.433	3480
3880.051	3421
3881.669	3504
3883.286	3483
3884.904	3509
3886.52	3453
3888.138	3505
3889.754	3507
3891.37	3518
3892.985	3447
3894.6	3484
3896.216	3434
3897.831	3419
3899.444	3444
3901.058	3504
3902.67	3435
3904.283	3447
3905.897	3463
3907.509	3488
3909.121	3524
3910.731	3452
3912.342	3493
3913.954	3434
3915.563	3440
3917.174	3470
3918.783	3437
3920.391	3368
3922.002	3426
3923.611	3436
3925.218	3445
3926.826	3474
3928.432	3470
3930.039	3417
3931.647	3478
3933.253	3424
3934.859	3386
3936.464	3413
3938.068	3451
3939.675	3369
3941.278	3357
3942.883	3367
3944.486	3388
3946.089	3423
3947.692	3414
3949.295	3332
3950.898	3290
3952.499	3341
3954.1	3365
3955.7	3371
3957.303	3362
3958.903	3401
3960.502	3340
3962.101	3343
3963.7	3316
3965.301	3273
3966.899	3273
3968.497	3339
3970.094	3329
3971.691	3297
3973.288	3337
3974.885	3320
3976.481	3363
3978.077	3372
3979.672	3251
3981.267	3359
3982.863	3268
3984.457	3267
3986.051	3326
3987.645	3308
3989.238	3202
3990.831	3353
3992.425	3310
3994.017	3294
3995.607	3282
3997.199	3265
3998.79	3287
4000.382	3239
4001.973	3282
4003.561	3242
4005.151	3194
4006.741	3220
4008.331	3186
4009.918	3265
4011.507	3222
4013.095	3204
4014.681	3158
4016.269	3256
4017.856	3189
4019.443	3135
4021.028	3159
4022.614	3136
4024.199	3222
4025.785	3206
4027.37	3130
4028.953	3214
4030.536	3153
4032.12	3118
4033.704	3174
4035.287	3140
4036.869	3119
4038.45	3146
4040.032	3091
4041.613	3168
4043.195	3149
4044.776	3139
4046.356	3176
4047.935	3134
4049.515	3159
4051.095	3117
4052.674	3159
4054.251	3136
4055.829	3113
4057.406	3079
4058.985	3100
4060.562	3197
4062.139	3165
4063.715	3099
4065.29	3077
4066.865	3084
4068.442	3068
4070.016	3044
4071.59	3124
4073.164	2985
4074.738	3069
4076.312	3034
4077.885	3098
4079.458	3137
4081.03	3041
4082.602	3072
4084.173	3106
4085.745	3010
4087.315	3049
4088.886	3146
4090.456	3083
4092.026	3114
4093.596	3120
4095.165	3011
4096.734	3006
4098.301	3052
4099.869	3041
4101.437	2956
4103.006	3005
4104.572	2999
4106.139	3037
4107.704	2958
4109.27	3070
4110.837	3058
4112.401	2969
4113.966	3016
4115.53	3015
4117.094	3025
4118.659	3065
4120.223	3081
4121.785	2943
4123.347	3037
4124.909	2992
4126.471	3024
4128.034	2945
4129.595	2948
4131.155	2992
4132.716	2939
4134.275	2916
4135.836	3000
4137.395	3023
4138.955	2912
4140.513	2971
4142.071	2963
4143.628	2918
4145.188	2934
4146.745	2982
4148.302	2966
4149.858	2946
4151.414	2948
4152.971	2949
4154.526	2947
4156.081	2951
4157.635	2914
4159.189	2876
4160.745	2816
4162.298	2909
4163.852	2869
4165.405	2907
4166.957	2847
4168.51	2895
4170.063	2882
4171.614	2838
4173.166	2872
4174.717	2897
4176.267	2854
4177.817	2882
4179.368	2847
4180.917	2800
4182.466	2826
4184.016	2847
4185.564	2798
4187.112	2789
4188.66	2834
4190.207	2771
4191.754	2811
4193.301	2811
4194.848	2838
4196.394	2838
4197.94	2813
4199.484	2827
4201.03	2806
4202.575	2851
4204.12	2748
4205.663	2758
4207.207	2844
4208.75	2790
4210.292	2844
4211.836	2818
4213.378	2806
4214.92	2746
4216.46	2794
4218.002	2742
4219.544	2783
4221.083	2820
4222.625	2716
4224.164	2818
4225.703	2763
4227.244	2783
4228.782	2744
4230.32	2746
4231.857	2816
4233.395	2778
4234.933	2740
4236.471	2831
4238.007	2778
4239.542	2699
4241.078	2722
4242.614	2727
4244.15	2790
4245.685	2766
4247.219	2765
4248.753	2768
4250.287	2716
4251.82	2736
4253.354	2688
4254.887	2740
4256.419	2736
4257.951	2699
4259.483	2704
4261.016	2706
4262.547	2778
4264.078	2759
4265.608	2724
4267.137	2737
4268.668	2674
4270.197	2665
4271.727	2770
4273.254	2631
4274.783	2684
4276.311	2685
4277.84	2648
4279.366	2636
4280.894	2666
4282.42	2680
4283.946	2655
4285.473	2761
4286.998	2649
4288.523	2675
4290.047	2603
4291.572	2651
4293.096	2648
4294.622	2669
4296.144	2659
4297.668	2642
4299.19	2676
4300.713	2676
4302.236	2597
4303.758	2669
4305.279	2685
4306.799	2611
4308.321	2594
4309.842	2630
4311.361	2678
4312.882	2613
4314.401	2595
