400.0961	3832
402.6185	3813
405.1424	3727
407.6635	3803
410.1838	3832
412.7035	3773
415.2225	3844
417.7388	3831
420.2585	3804
422.7754	3923
425.2917	3900
427.8072	3909
430.3221	3919
432.8363	4019
435.3498	4005
437.8626	3967
440.3727	4025
442.8841	4006
445.3969	3997
447.907	3950
450.4142	4046
452.9229	3985
455.4289	3978
457.9362	3938
460.4449	3963
462.9488	3913
465.454	3942
467.9566	3902
470.4604	3894
472.9637	3973
475.4662	3956
477.966	3893
480.4671	3985
482.9656	3999
485.4633	3967
487.9645	4051
490.4608	4057
492.9566	4035
495.4536	4049
497.948	4017
500.4437	4070
502.9387	4029
505.431	4010
507.9226	4017
510.4136	4130
512.9079	4096
515.3975	4036
517.8864	4131
520.3746	4178
522.8622	4026
525.3491	4042
527.8394	4112
530.3249	4093
532.8098	4193
535.2939	4160
537.7774	4175
540.2623	4182
542.7444	4152
545.2259	4221
547.7067	4167
550.1868	4225
552.6683	4096
555.147	4175
557.6231	4142
560.1005	4111
562.5773	4222
565.0534	4133
567.5308	4238
570.0056	4264
572.4776	4229
574.951	4250
577.4237	4320
579.8978	4237
582.3671	4326
584.8378	4214
587.3079	4229
589.7773	4225
592.244	4246
594.714	4279
597.1793	4320
599.6461	4231
602.1121	4209
604.5754	4241
607.0421	4223
609.5042	4298
611.9675	4325
614.4282	4274
616.8902	4228
619.3515	4310
621.8122	4251
624.2702	4227
626.7296	4207
629.1863	4242
631.6423	4274
634.1017	4257
636.5563	4264
639.0104	4272
641.4658	4320
643.9185	4343
646.3725	4278
648.8239	4276
651.2766	4291
653.7266	4286
656.176	4294
658.6247	4364
661.0748	4289
663.5242	4344
665.9709	4339
668.417	4298
670.8624	4352
673.3092	4458
675.7533	4305
678.1968	4415
680.6395	4402
683.0817	4407
685.5251	4422
687.9659	4481
690.4061	4414
692.8456	4432
695.2844	4489
697.7226	4426
700.1621	4497
702.599	4557
705.0332	4493
707.4688	4477
709.9036	4452
712.3399	4607
714.7735	4433
717.2044	4539
719.6367	4628
722.0683	4517
724.4993	4483
726.9296	4528
729.3593	4592
731.7883	4530
734.2147	4580
736.6423	4654
739.0714	4613
741.4958	4706
743.9216	4647
746.3447	4580
748.7691	4691
751.1929	4698
753.616	4600
756.0366	4728
758.4584	4667
760.8776	4683
763.2982	4717
765.718	4751
768.1373	4718
770.5539	4791
772.9698	4839
775.3871	4661
777.8038	4807
780.2178	4697
782.6332	4721
785.0459	4720
787.458	4652
789.8714	4728
792.2842	4715
794.6943	4785
797.1038	4741
799.5127	4772
801.9209	4731
804.3324	4759
806.7393	4804
809.1456	4763
811.5513	4806
813.9562	4738
816.3625	4710
818.7663	4861
821.1693	4910
823.5718	4804
825.9735	4759
828.3746	4897
830.7771	4774
833.177	4810
835.5762	4746
837.9747	4860
840.3727	4848
842.772	4811
845.1666	4922
847.5626	4940
849.958	4880
852.3527	4956
854.7488	5029
857.1403	4908
859.5331	4899
861.9253	4944
864.3168	4979
866.7057	4945
869.098	4922
871.4876	4881
873.8746	4956
876.263	4911
878.6487	4837
881.0378	4965
883.4243	4916
885.8081	4848
888.1933	4842
890.5759	4910
892.9598	4979
895.343	4764
897.7256	4900
900.1057	4839
902.4871	4952
904.8659	5007
907.246	4967
909.6254	5030
912.0023	5074
914.3786	5107
916.7562	5216
919.1331	5332
921.5074	5378
923.8831	5443
926.2562	5379
928.6287	5341
931.0005	5325
933.3757	5344
935.7462	5267
938.1162	5148
940.4855	5256
942.8542	5213
945.2242	5201
947.5916	5112
949.9584	5240
952.3266	5254
954.6921	5353
957.0571	5435
959.4233	5431
961.787	5514
964.15	5472
966.5125	5396
968.8742	5402
971.2354	5304
973.5959	5185
975.9559	5170
978.3151	5093
980.6738	5171
983.0338	5278
985.3912	5204
987.7461	5157
990.1022	5126
992.4578	5063
994.8127	5096
997.1689	5167
999.5207	5155
1001.874	5209
1004.226	5207
1006.576	5094
1008.929	5040
1011.28	5061
1013.628	5179
1015.977	5048
1018.324	4986
1020.674	5139
1023.019	5128
1025.366	5080
1027.713	5141
1030.056	5114
1032.399	5133
1034.746	5166
1037.087	5149
1039.431	5122
1041.771	5088
1044.113	5147
1046.454	5190
1048.793	5195
1051.133	5093
1053.471	5105
1055.807	5149
1058.146	5062
1060.483	5177
1062.818	5134
1065.153	5119
1067.489	5187
1069.822	5195
1072.156	5194
1074.488	5223
1076.82	5269
1079.15	5137
1081.48	5209
1083.814	5157
1086.143	5158
1088.471	5275
1090.799	5238
1093.126	5179
1095.452	5152
1097.78	5134
1100.105	5209
1102.43	5240
1104.754	5261
1107.077	5166
1109.4	5141
1111.722	5261
1114.044	5264
1116.365	5169
1118.685	5241
1121.005	5255
1123.324	5306
1125.643	5415
1127.961	5417
1130.278	5340
1132.595	5295
1134.911	5279
1137.226	5246
1139.541	5298
1141.854	5230
1144.167	5229
1146.482	5226
1148.793	5251
1151.105	5322
1153.414	5342
1155.725	5197
1158.033	5166
1160.344	5306
1162.651	5243
1164.959	5264
1167.265	5241
1169.572	5245
1171.878	5366
1174.184	5306
1176.488	5139
1178.79	5368
1181.094	5276
1183.396	5333
1185.699	5295
1188.001	5147
1190.301	5311
1192.6	5317
1194.9	5246
1197.2	5329
1199.497	5297
1201.794	5205
1204.09	5235
1206.387	5376
1208.684	5258
1210.978	5249
1213.272	5319
1215.565	5268
1217.858	5249
1220.15	5363
1222.443	5271
1224.734	5316
1227.024	5308
1229.313	5324
1231.602	5405
1233.892	5542
1236.18	5523
1238.467	5453
1240.754	5389
1243.04	5553
1245.325	5546
1247.612	5631
1249.896	5591
1252.178	5486
1254.461	5493
1256.743	5583
1259.027	5511
1261.308	5611
1263.587	5595
1265.867	5575
1268.146	5643
1270.425	5555
1272.703	5625
1274.981	5673
1277.256	5628
1279.532	5535
1281.808	5558
1284.083	5521
1286.358	5490
1288.63	5509
1290.904	5550
1293.175	5467
1295.449	5440
1297.719	5529
1299.99	5464
1302.259	5434
1304.529	5377
1306.798	5433
1309.065	5532
1311.333	5527
1313.599	5444
1315.866	5628
1318.131	5565
1320.396	5431
1322.66	5578
1324.925	5577
1327.187	5455
1329.448	5524
1331.711	5542
1333.974	5550
1336.234	5566
1338.493	5616
1340.752	5500
1343.01	5467
1345.269	5440
1347.526	5511
1349.784	5441
1352.04	5494
1354.295	5373
1356.552	5463
1358.806	5514
1361.059	5482
1363.312	5367
1365.564	5496
1367.818	5605
1370.069	5512
1372.318	5396
1374.568	5519
1376.817	5554
1379.066	5473
1381.316	5495
1383.564	5549
1385.809	5464
1388.056	5616
1390.301	5690
1392.549	5742
1394.793	5833
1397.036	6016
1399.279	5890
1401.522	5904
1403.763	5973
1406.007	6037
1408.248	5876
1410.487	5910
1412.727	5939
1414.965	5849
1417.205	5801
1419.442	5789
1421.68	5763
1423.915	5726
1426.152	5732
1428.388	5869
1430.623	5734
1432.857	5847
1435.091	5853
1437.323	5874
1439.556	5890
1441.789	5895
1444.019	5884
1446.25	5913
1448.48	5780
1450.708	5878
1452.938	5907
1455.167	5959
1457.394	5917
1459.62	5971
1461.846	5889
1464.073	5808
1466.299	5798
1468.523	5818
1470.746	5715
1472.969	5739
1475.191	5641
1477.415	5673
1479.636	5594
1481.858	5638
1484.078	5557
1486.298	5603
1488.518	5544
1490.736	5574
1492.954	5348
1495.169	5395
1497.386	5407
1499.602	5468
1501.819	5456
1504.034	5402
1506.248	5530
1508.462	5387
1510.675	5400
1512.888	5402
1515.1	5509
1517.311	5388
1519.522	5470
1521.732	5474
1523.942	5416
1526.151	5418
1528.36	5458
1530.566	5477
1532.773	5454
1534.98	5480
1537.187	5486
1539.392	5465
1541.596	5556
1543.801	5378
1546.005	5508
1548.208	5438
1550.411	5481
1552.612	5538
1554.814	5576
1557.013	5527
1559.212	5498
1561.414	5500
1563.612	5592
1565.811	5586
1568.007	5616
1570.203	5640
1572.403	5555
1574.598	5586
1576.792	5517
1578.988	5620
1581.181	5627
1583.376	5614
1585.568	5573
1587.761	5636
1589.952	5680
1592.143	5697
1594.333	5559
1596.524	5605
1598.715	5749
1600.903	5798
1603.091	5673
1605.278	5651
1607.466	5608
1609.652	5668
1611.838	5707
1614.023	5636
1616.207	5722
1618.391	5694
1620.576	5689
1622.759	5686
1624.941	5779
1627.123	5702
1629.304	5622
1631.484	5618
1633.664	5705
1635.844	5678
1638.022	5725
1640.201	5722
1642.38	5654
1644.556	5801
1646.732	5800
1648.908	5597
1651.084	5784
1653.257	5831
1655.433	5725
1657.607	5745
1659.779	5791
1661.951	5793
1664.122	5835
1666.295	5808
1668.467	5807
1670.635	5908
1672.805	5852
1674.973	5908
1677.142	5875
1679.31	5711
1681.478	5744
1683.644	5767
1685.81	5868
1687.975	5748
1690.142	5817
1692.305	5785
1694.468	5689
1696.632	5800
1698.794	5725
1700.957	5669
1703.119	5728
1705.279	5610
1707.439	5625
1709.598	5698
1711.758	5730
1713.917	5671
1716.075	5623
1718.231	5496
1720.388	5531
1722.543	5630
1724.702	5567
1726.856	5583
1729.01	5501
1731.164	5597
1733.317	5654
1735.471	5621
1737.623	5543
1739.774	5584
1741.925	5618
1744.075	5551
1746.225	5616
1748.376	5603
1750.524	5673
1752.672	5613
1754.82	5583
1756.965	5627
1759.113	5602
1761.259	5664
1763.405	5618
1765.549	5613
1767.694	5580
1769.836	5613
1771.981	5622
1774.123	5740
1776.264	5694
1778.405	5548
1780.546	5710
1782.687	5609
1784.827	5688
1786.966	5536
1789.103	5634
1791.242	5740
1793.381	5602
1795.517	5704
1797.653	5725
1799.788	5543
1801.923	5700
1804.057	5690
1806.193	5635
1808.326	5650
1810.457	5705
1812.59	5649
1814.721	5799
1816.855	5600
1818.984	5712
1821.113	5663
1823.244	5564
1825.372	5587
1827.499	5758
1829.63	5682
1831.756	5592
1833.882	5619
1836.007	5606
1838.132	5648
1840.26	5658
1842.384	5608
1844.507	5491
1846.63	5653
1848.752	5596
1850.875	5601
1852.996	5619
1855.118	5659
1857.238	5638
1859.358	5689
1861.477	5655
1863.597	5602
1865.715	5553
1867.832	5686
1869.948	5644
1872.064	5515
1874.181	5618
1876.297	5598
1878.411	5547
1880.526	5573
1882.639	5540
1884.752	5770
1886.865	5685
1888.977	5723
1891.089	5600
1893.2	5595
1895.308	5664
1897.42	5664
1899.53	5646
1901.639	5684
1903.745	5672
1905.853	5778
1907.962	5666
1910.067	5730
1912.174	5707
1914.278	5668
1916.383	5758
1918.486	5698
1920.592	5709
1922.694	5549
1924.797	5673
1926.898	5777
1929	5666
1931.102	5716
1933.203	5727
1935.301	5668
1937.401	5779
1939.499	5721
1941.598	5697
1943.697	5650
1945.793	5733
1947.888	5784
1949.985	5771
1952.08	5686
1954.176	5703
1956.269	5730
1958.364	5613
1960.457	5793
1962.549	5673
1964.642	5690
1966.733	5736
1968.823	5653
1970.913	5673
1973.005	5739
1975.093	5704
1977.184	5754
1979.271	5632
1981.359	5756
1983.446	5635
1985.532	5721
1987.619	5720
1989.705	5680
1991.789	5693
1993.874	5668
1995.956	5644
1998.041	5672
2000.123	5700
2002.206	5660
2004.287	5670
2006.368	5618
2008.449	5629
2010.529	5609
2012.609	5631
2014.688	5571
2016.766	5779
2018.843	5647
2020.922	5707
2022.999	5591
2025.074	5625
2027.15	5592
2029.225	5614
2031.299	5554
2033.375	5646
2035.447	5588
2037.52	5700
2039.592	5677
2041.664	5547
2043.736	5616
2045.807	5628
2047.876	5654
2049.947	5633
2052.015	5673
2054.086	5682
2056.153	5698
2058.221	5669
2060.288	5625
2062.353	5689
2064.42	5600
2066.486	5631
2068.55	5606
2070.614	5675
2072.678	5640
2074.741	5712
2076.805	5575
2078.866	5592
2080.929	5571
2082.99	5607
2085.049	5586
2087.109	5644
2089.17	5687
2091.228	5611
2093.286	5746
2095.344	5675
2097.4	5632
2099.46	5821
2101.516	5641
2103.572	5680
2105.626	5651
2107.679	5608
2109.735	5717
2111.788	5767
2113.841	5623
2115.894	5564
2117.945	5705
2119.997	5634
2122.049	5660
2124.1	5734
2126.148	5756
2128.197	5725
2130.246	5666
2132.296	5714
2134.342	5670
2136.39	5578
2138.437	5620
2140.483	5617
2142.527	5663
2144.574	5672
2146.619	5643
2148.661	5564
2150.705	5601
2152.747	5587
2154.792	5634
2156.832	5659
2158.874	5633
2160.915	5680
2162.954	5578
2164.995	5637
2167.034	5580
2169.072	5613
2171.111	5413
2173.148	5594
2175.186	5557
2177.223	5513
2179.258	5573
2181.294	5599
2183.328	5558
2185.362	5600
2187.398	5583
2189.431	5547
2191.463	5623
2193.495	5594
2195.528	5522
2197.56	5520
2199.59	5515
2201.62	5545
2203.649	5570
2205.678	5522
2207.708	5503
2209.737	5495
2211.764	5470
2213.791	5711
2215.817	5480
2217.843	5550
2219.87	5500
2221.895	5551
2223.919	5382
2225.942	5474
2227.966	5461
2229.988	5450
2232.012	5506
2234.032	5496
2236.054	5545
2238.074	5488
2240.095	5541
2242.116	5508
2244.135	5516
2246.153	5566
2248.171	5459
2250.188	5465
2252.208	5535
2254.223	5463
2256.239	5406
2258.255	5460
2260.269	5494
2262.283	5485
2264.3	5487
2266.312	5548
2268.325	5486
2270.336	5428
2272.349	5523
2274.362	5440
2276.372	5523
2278.383	5519
2280.392	5460
2282.402	5527
2284.409	5464
2286.418	5516
2288.427	5499
2290.433	5467
2292.441	5480
2294.446	5411
2296.453	5478
2298.459	5459
2300.463	5454
2302.466	5532
2304.471	5493
2306.475	5477
2308.477	5409
2310.478	5429
2312.481	5445
2314.481	5307
2316.481	5489
2318.482	5369
2320.482	5410
2322.48	5486
2324.48	5357
2326.478	5424
2328.476	5407
2330.473	5402
2332.469	5448
2334.465	5334
2336.46	5394
2338.454	5418
2340.45	5364
2342.444	5431
2344.437	5371
2346.43	5353
2348.421	5314
2350.414	5387
2352.405	5486
2354.396	5366
2356.386	5394
2358.376	5347
2360.366	5477
2362.355	5318
2364.343	5324
2366.331	5364
2368.317	5401
2370.304	5213
2372.292	5244
2374.278	5413
2376.262	5304
2378.247	5388
2380.23	5294
2382.216	5436
2384.199	5279
2386.181	5326
2388.163	5254
2390.144	5202
2392.127	5366
2394.107	5287
2396.087	5256
2398.066	5242
2400.046	5406
2402.023	5416
2404.004	5348
2405.981	5309
2407.957	5410
2409.934	5315
2411.91	5330
2413.886	5225
2415.862	5250
2417.836	5225
2419.809	5329
2421.784	5241
2423.756	5313
2425.73	5245
2427.701	5220
2429.672	5292
2431.644	5323
2433.615	5227
2435.586	5227
2437.555	5207
2439.523	5365
2441.491	5267
2443.459	5335
2445.428	5255
2447.395	5278
2449.361	5232
2451.327	5257
2453.292	5305
2455.257	5197
2457.223	5219
2459.187	5133
2461.15	5219
2463.113	5293
2465.076	5428
2467.039	5190
2468.999	5249
2470.96	5277
2472.921	5310
2474.881	5237
2476.841	5224
2478.8	5091
2480.759	5249
2482.717	5192
2484.675	5247
2486.63	5272
2488.589	5233
2490.545	5323
2492.5	5220
2494.455	5151
2496.408	5126
2498.364	5176
2500.318	5174
2502.27	5235
2504.223	5112
2506.174	5175
2508.126	5323
2510.078	5076
2512.03	5207
2513.979	5143
2515.927	5190
2517.877	5146
2519.826	5212
2521.775	5112
2523.722	5153
2525.668	5113
2527.616	5125
2529.561	5185
2531.508	5077
2533.452	5119
2535.398	5215
2537.342	5218
2539.284	5110
2541.229	5163
2543.173	5162
2545.114	5191
2547.055	5261
2548.996	5139
2550.938	5188
2552.878	5098
2554.817	5034
2556.756	5190
2558.695	5179
2560.633	5065
2562.572	5071
2564.509	5181
2566.445	5229
2568.382	5157
2570.317	5218
2572.254	5127
2574.189	5219
2576.123	5173
2578.057	5166
2579.99	5106
2581.923	5101
2583.855	5086
2585.788	5189
2587.719	5106
2589.65	5160
2591.579	5115
2593.511	5174
2595.44	5157
2597.37	5131
2599.297	5200
2601.225	5136
2603.153	5095
2605.08	5159
2607.007	5225
2608.932	5112
2610.858	5079
2612.782	5142
2614.709	5146
2616.632	5158
2618.556	5163
2620.478	5099
2622.401	5071
2624.324	5184
2626.247	5128
2628.167	5020
2630.088	5259
2632.008	5298
2633.928	5201
2635.848	5087
2637.766	5159
2639.684	5204
2641.603	5109
2643.519	5130
2645.437	5190
2647.353	5145
2649.27	5140
2651.184	5102
2653.099	5184
2655.014	5200
2656.928	5132
2658.842	5119
2660.755	5129
2662.667	5068
2664.579	5179
2666.491	5146
2668.402	5039
2670.312	5085
2672.222	5129
2674.132	5075
2676.042	5075
2677.951	5176
2679.859	5104
2681.766	5114
2683.674	5169
2685.582	5096
2687.488	5038
2689.392	5068
2691.298	5082
2693.202	5119
2695.107	4993
2697.012	5038
2698.914	4963
2700.817	5057
2702.72	5105
2704.622	5048
2706.524	5031
2708.425	5037
2710.326	5047
2712.225	5052
2714.125	5145
2716.024	5131
2717.923	4980
2719.822	4970
2721.719	5060
2723.616	4972
2725.512	4989
2727.41	4985
2729.305	5016
2731.201	4984
2733.095	5060
2734.99	4998
2736.884	5094
2738.778	4992
2740.67	4986
2742.562	5094
2744.455	5076
2746.346	4985
2748.238	5040
2750.129	5008
2752.018	5107
2753.907	5055
2755.797	5043
2757.687	4937
2759.575	5033
2761.462	5072
2763.349	4938
2765.237	5025
2767.124	4991
2769.009	5028
2770.894	4904
2772.779	4921
2774.663	5056
2776.547	5096
2778.431	4954
2780.314	4993
2782.197	5168
2784.078	5018
2785.96	5049
2787.842	5025
2789.723	5048
2791.603	5045
2793.483	4973
2795.362	4984
2797.241	4954
2799.121	5039
2800.997	4961
2802.874	5013
2804.751	4966
2806.628	4989
2808.506	5031
2810.38	4944
2812.255	5031
2814.13	4959
2816.003	4962
2817.878	4912
2819.752	4935
2821.623	5009
2823.496	4998
2825.368	5015
2827.238	5045
2829.111	5030
2830.98	5041
2832.851	5068
2834.719	5002
2836.589	5004
2838.458	4925
2840.327	5015
2842.193	4997
2844.061	4983
2845.927	5062
2847.794	5115
2849.66	5103
2851.525	5152
2853.39	5167
2855.254	5153
2857.117	5183
2858.983	5309
2860.845	5229
2862.707	5161
2864.569	5286
2866.431	5286
2868.293	5291
2870.154	5336
2872.013	5363
2873.873	5492
2875.733	5396
2877.592	5449
2879.451	5568
2881.309	5502
2883.166	5689
2885.022	5723
2886.879	5648
2888.736	5812
2890.591	5802
2892.446	5893
2894.301	5774
2896.155	5921
2898.009	5748
2899.863	5813
2901.716	5785
2903.568	5853
2905.419	5682
2907.27	5699
2909.123	5836
2910.973	5841
2912.824	5765
2914.673	5871
2916.521	5790
2918.372	5866
2920.22	5970
2922.067	5959
2923.914	6034
2925.761	6055
2927.607	6099
2929.455	6136
2931.301	6060
2933.144	6250
2934.99	6157
2936.833	6230
2938.678	6360
2940.522	6436
2942.364	6591
2944.207	6482
2946.048	6631
2947.891	6758
2949.731	6962
2951.571	6794
2953.412	6916
2955.25	6787
2957.09	6614
2958.93	6750
2960.767	6629
2962.606	6653
2964.443	6504
2966.279	6538
2968.116	6387
2969.953	6235
2971.788	6061
2973.623	6074
2975.457	6063
2977.292	5914
2979.127	5811
2980.959	5790
2982.792	5656
2984.624	5691
2986.455	5604
2988.288	5575
2990.119	5597
2991.949	5478
2993.779	5433
2995.608	5355
2997.439	5330
2999.268	5315
3001.096	5305
3002.923	5203
3004.751	5282
3006.578	5157
3008.406	5154
3010.232	5013
3012.057	5049
3013.883	4912
3015.706	4996
3017.532	5000
3019.356	4888
3021.179	5019
3023.002	4925
3024.823	4874
3026.646	4852
3028.469	4752
3030.289	4928
3032.11	4810
3033.93	4846
3035.749	4828
3037.57	4728
3039.39	4794
3041.207	4812
3043.026	4798
3044.842	4785
3046.661	4857
3048.477	4783
3050.294	4751
3052.109	4763
3053.925	4727
3055.739	4829
3057.555	4784
3059.368	4770
3061.181	4788
3062.995	4759
3064.807	4803
3066.62	4705
3068.433	4785
3070.243	4672
3072.054	4845
3073.865	4750
3075.675	4734
3077.485	4661
3079.293	4616
3081.102	4648
3082.911	4783
3084.719	4663
3086.527	4667
3088.333	4612
3090.139	4588
3091.945	4553
3093.75	4665
3095.557	4667
3097.361	4640
3099.165	4574
3100.969	4552
3102.772	4527
3104.575	4648
3106.379	4592
3108.181	4647
3109.982	4538
3111.783	4632
3113.584	4547
3115.386	4475
3117.186	4542
3118.985	4546
3120.783	4622
3122.582	4538
3124.381	4575
3126.179	4498
3127.975	4484
3129.772	4540
3131.569	4469
3133.365	4546
3135.161	4525
3136.956	4536
3138.751	4435
3140.544	4512
3142.338	4402
3144.132	4539
3145.925	4509
3147.717	4379
3149.509	4543
3151.301	4469
3153.091	4452
3154.884	4363
3156.673	4456
3158.462	4436
3160.252	4457
3162.041	4415
3163.831	4440
3165.618	4442
3167.405	4511
3169.193	4495
3170.979	4450
3172.767	4404
3174.553	4428
3176.338	4395
3178.123	4430
3179.907	4391
3181.692	4461
3183.477	4470
3185.259	4478
3187.042	4393
3188.824	4398
3190.607	4445
3192.389	4413
3194.17	4459
3195.951	4353
3197.73	4387
3199.51	4429
3201.289	4415
3203.07	4338
3204.848	4331
3206.626	4314
3208.403	4355
3210.18	4392
3211.959	4456
3213.735	4354
3215.511	4512
3217.285	4364
3219.06	4433
3220.836	4338
3222.611	4364
3224.384	4514
3226.158	4367
3227.929	4372
3229.702	4386
3231.476	4332
3233.248	4379
3235.018	4352
3236.789	4365
3238.56	4409
3240.33	4349
3242.1	4413
3243.869	4443
3245.637	4384
3247.405	4394
3249.172	4422
3250.941	4332
3252.707	4367
3254.474	4318
3256.24	4396
3258.006	4455
3259.772	4338
3261.537	4439
3263.301	4346
3265.065	4490
3266.828	4333
3268.592	4391
3270.355	4487
3272.117	4391
3273.878	4327
3275.64	4288
3277.401	4344
3279.162	4304
3280.922	4428
3282.682	4271
3284.441	4309
3286.199	4391
3287.959	4467
3289.716	4359
3291.475	4363
3293.232	4363
3294.988	4442
3296.744	4285
3298.501	4347
3300.256	4355
3302.011	4397
3303.766	4293
3305.52	4246
3307.275	4336
3309.028	4284
3310.781	4382
3312.533	4326
3314.285	4338
3316.038	4397
3317.789	4328
3319.54	4385
3321.289	4346
3323.039	4342
3324.789	4342
3326.539	4322
3328.288	4365
3330.035	4448
3331.783	4350
3333.531	4217
3335.28	4298
3337.025	4291
3338.771	4354
3340.518	4393
3342.262	4263
3344.009	4320
3345.753	4269
3347.497	4292
3349.24	4209
3350.983	4306
3352.726	4265
3354.469	4279
3356.212	4220
3357.952	4289
3359.694	4212
3361.434	4267
3363.176	4201
3364.916	4334
3366.654	4168
3368.394	4192
3370.132	4187
3371.871	4203
3373.61	4257
3375.346	4177
3377.083	4179
3378.82	4114
3380.556	4180
3382.292	4152
3384.027	4192
3385.763	4164
3387.497	4175
3389.231	4261
3390.965	4180
3392.698	4137
3394.431	4187
3396.164	4188
3397.896	4127
3399.627	4124
3401.36	4176
3403.09	4125
3404.82	4132
3406.55	4282
3408.279	4107
3410.01	4126
3411.738	4185
3413.467	4151
3415.194	4039
3416.92	4076
3418.647	4104
3420.375	4085
3422.102	4069
3423.827	4056
3425.553	4107
3427.277	4114
3429.003	4051
3430.727	4073
3432.451	4068
3434.173	4046
3435.896	4045
3437.62	4057
3439.343	3968
3441.063	4105
3442.785	4086
3444.505	4079
3446.226	3992
3447.948	4034
3449.666	4011
3451.386	4053
3453.104	4017
3454.823	4044
3456.541	3969
3458.259	3996
3459.976	3918
3461.693	4014
3463.408	4001
3465.125	3985
3466.841	3860
3468.556	3909
3470.271	3917
3471.985	3953
3473.698	3940
3475.414	3885
3477.126	3908
3478.838	3892
3480.55	3901
3482.263	3980
3483.975	3927
3485.686	3897
3487.396	3914
3489.106	3862
3490.817	3845
3492.526	3848
3494.236	3848
3495.944	3887
3497.652	3823
3499.359	3886
3501.066	3807
3502.775	3912
3504.481	3794
3506.187	3881
3507.893	3809
3509.598	3847
3511.304	3811
3513.009	3813
3514.713	3816
3516.417	3825
3518.12	3808
3519.821	3821
3521.525	3761
3523.228	3787
3524.929	3759
3526.631	3764
3528.33	3718
3530.032	3810
3531.733	3729
3533.433	3778
3535.131	3814
3536.83	3590
3538.529	3702
3540.227	3767
3541.925	3759
3543.623	3766
3545.319	3708
3547.016	3748
3548.712	3632
3550.408	3720
3552.103	3835
3553.798	3746
3555.491	3671
3557.188	3679
3558.88	3706
3560.574	3627
3562.266	3723
3563.959	3634
3565.651	3645
3567.343	3613
3569.035	3690
3570.725	3645
3572.415	3705
3574.106	3600
3575.797	3712
3577.485	3612
3579.174	3601
3580.863	3634
3582.551	3594
3584.238	3578
3585.926	3638
3587.613	3523
3589.3	3599
3590.986	3607
3592.671	3596
3594.357	3636
3596.042	3602
3597.726	3548
3599.41	3610
3601.094	3573
3602.778	3583
3604.461	3506
3606.143	3556
3607.825	3633
3609.507	3540
3611.188	3465
3612.87	3519
3614.551	3555
3616.229	3464
3617.909	3525
3619.589	3448
3621.269	3506
3622.948	3424
3624.625	3464
3626.302	3443
3627.98	3487
3629.657	3496
3631.334	3507
3633.01	3459
3634.686	3454
3636.361	3422
3638.036	3526
3639.712	3403
3641.385	3444
3643.06	3526
3644.732	3412
3646.405	3497
3648.08	3430
3649.751	3461
3651.424	3453
3653.094	3439
3654.766	3333
3656.436	3306
3658.106	3352
3659.777	3356
3661.446	3384
3663.115	3306
3664.783	3357
3666.452	3380
3668.121	3274
3669.788	3303
3671.454	3343
3673.121	3313
3674.789	3409
3676.455	3377
3678.12	3375
3679.784	3377
3681.45	3365
3683.114	3327
3684.779	3418
3686.442	3444
3688.105	3407
3689.768	3359
3691.43	3323
3693.093	3337
3694.754	3346
3696.415	3321
3698.076	3384
3699.736	3323
3701.396	3375
3703.057	3309
3704.716	3341
3706.375	3288
3708.034	3289
3709.692	3349
3711.351	3252
3713.008	3336
3714.665	3358
3716.321	3273
3717.977	3297
3719.634	3232
3721.29	3313
3722.945	3317
3724.598	3316
3726.253	3197
3727.907	3264
3729.561	3216
3731.214	3231
3732.867	3266
3734.518	3226
3736.171	3273
3737.824	3329
3739.474	3218
3741.125	3267
3742.775	3281
3744.425	3228
3746.074	3278
3747.725	3225
3749.373	3262
3751.022	3240
3752.669	3267
3754.318	3257
3755.966	3287
3757.612	3199
3759.259	3228
3760.905	3201
3762.55	3220
3764.197	3151
3765.842	3220
3767.486	3217
3769.131	3151
3770.774	3194
3772.417	3166
3774.061	3230
3775.705	3209
3777.347	3124
3778.988	3191
3780.629	3227
3782.271	3246
3783.912	3150
3785.552	3233
3787.192	3147
3788.831	3141
3790.472	3130
3792.112	3103
3793.75	3182
3795.388	3105
3797.024	3176
3798.661	3236
3800.3	3132
3801.936	3166
3803.572	3096
3805.208	3090
3806.844	3119
3808.48	3080
3810.115	3098
3811.748	3098
3813.382	3194
3815.016	3099
3816.649	3063
3818.283	3095
3819.914	3067
3821.547	3099
3823.178	3090
3824.809	3093
3826.441	3111
3828.072	3051
3829.701	3037
3831.331	3133
3832.96	3077
3834.591	3010
3836.219	3126
3837.847	3140
3839.475	3051
3841.102	3145
3842.729	3100
3844.357	3027
3845.984	3013
3847.609	3106
3849.234	3064
3850.86	3009
3852.485	3076
3854.11	2997
3855.734	3095
3857.357	2990
3858.981	3103
3860.603	2992
3862.227	2994
3863.848	2964
3865.471	3033
3867.092	2995
3868.713	3068
3870.334	3081
3871.954	3043
3873.575	3024
3875.194	2995
3876.813	2975
3878.433	2936
3880.051	2961
3881.669	3033
3883.286	2980
3884.904	3080
3886.52	2918
3888.138	2964
3889.754	2946
3891.37	2905
3892.985	2939
3894.6	2927
3896.216	3008
3897.831	2938
3899.444	2978
3901.058	3006
3902.67	2979
3904.283	2948
3905.897	2975
3907.509	2972
3909.121	2918
3910.731	3005
3912.342	3021
3913.954	2985
3915.563	2981
3917.174	2961
3918.783	2975
3920.391	2977
3922.002	2929
3923.611	2953
3925.218	2939
3926.826	2927
3928.432	2830
3930.039	2947
3931.647	2904
3933.253	2888
3934.859	2874
3936.464	2953
3938.068	2954
3939.675	2892
3941.278	2916
3942.883	2913
3944.486	2907
3946.089	2905
3947.692	2909
3949.295	2936
3950.898	2900
3952.499	2900
3954.1	2863
3955.7	2823
3957.303	2896
3958.903	2875
3960.502	2897
3962.101	2901
3963.7	2873
3965.301	2899
3966.899	2877
3968.497	2926
3970.094	2859
3971.691	2775
3973.288	2889
3974.885	2882
3976.481	2791
3978.077	2835
3979.672	2848
3981.267	2854
3982.863	2851
3984.457	2874
3986.051	2838
3987.645	2842
3989.238	2774
3990.831	2823
3992.425	2832
3994.017	2796
3995.607	2843
3997.199	2779
3998.79	2764
4000.382	2751
4001.973	2799
4003.561	2789
4005.151	2853
4006.741	2772
4008.331	2733
4009.918	2734
4011.507	2749
4013.095	2678
4014.681	2753
4016.269	2764
4017.856	2793
4019.443	2719
4021.028	2762
4022.614	2692
4024.199	2759
4025.785	2721
4027.37	2714
4028.953	2673
4030.536	2717
4032.12	2687
4033.704	2717
4035.287	2682
4036.869	2725
4038.45	2762
4040.032	2716
4041.613	2661
4043.195	2723
4044.776	2658
4046.356	2654
4047.935	2654
4049.515	2710
4051.095	2666
4052.674	2718
4054.251	2656
4055.829	2710
4057.406	2669
4058.985	2697
4060.562	2673
4062.139	2629
4063.715	2651
4065.29	2684
4066.865	2668
4068.442	2653
4070.016	2627
4071.59	2677
4073.164	2610
4074.738	2631
4076.312	2626
4077.885	2630
4079.458	2645
4081.03	2601
4082.602	2637
4084.173	2617
4085.745	2647
4087.315	2618
4088.886	2677
4090.456	2606
4092.026	2603
4093.596	2688
4095.165	2668
4096.734	2633
4098.301	2619
4099.869	2599
4101.437	2615
4103.006	2657
4104.572	2599
4106.139	2613
4107.704	2671
4109.27	2582
4110.837	2610
4112.401	2634
4113.966	2640
4115.53	2625
4117.094	2600
4118.659	2654
4120.223	2566
4121.785	2617
4123.347	2615
4124.909	2590
4126.471	2633
4128.034	2573
4129.595	2578
4131.155	2546
4132.716	2570
4134.275	2549
4135.836	2549
4137.395	2559
4138.955	2559
4140.513	2581
4142.071	2556
4143.628	2519
4145.188	2550
4146.745	2571
4148.302	2563
4149.858	2543
4151.414	2547
4152.971	2523
4154.526	2485
4156.081	2535
4157.635	2509
4159.189	2503
4160.745	2457
4162.298	2498
4163.852	2443
4165.405	2530
4166.957	2482
4168.51	2497
4170.063	2478
4171.614	2436
4173.166	2525
4174.717	2521
4176.267	2508
4177.817	2439
4179.368	2487
4180.917	2495
4182.466	2485
4184.016	2473
4185.564	2501
4187.112	2426
4188.66	2414
4190.207	2484
4191.754	2474
4193.301	2487
4194.848	2405
4196.394	2422
4197.94	2467
4199.484	2413
4201.03	2437
4202.575	2418
4204.12	2413
4205.663	2451
4207.207	2415
4208.75	2425
4210.292	2421
4211.836	2466
4213.378	2389
4214.92	2412
4216.46	2355
4218.002	2445
4219.544	2371
4221.083	2411
4222.625	2393
4224.164	2378
4225.703	2383
4227.244	2393
4228.782	2353
4230.32	2375
4231.857	2346
4233.395	2425
4234.933	2407
4236.471	2373
4238.007	2375
4239.542	2412
4241.078	2351
4242.614	2414
4244.15	2410
4245.685	2364
4247.219	2388
4248.753	2400
4250.287	2358
4251.82	2401
4253.354	2347
4254.887	2337
4256.419	2316
4257.951	2417
4259.483	2339
4261.016	2353
4262.547	2373
4264.078	2384
4265.608	2360
4267.137	2320
4268.668	2319
4270.197	2384
4271.727	2395
4273.254	2374
4274.783	2337
4276.311	2308
4277.84	2336
4279.366	2332
4280.894	2323
4282.42	2371
4283.946	2317
4285.473	2327
4286.998	2307
4288.523	2309
4290.047	2343
4291.572	2267
4293.096	2296
4294.622	2308
4296.144	2257
4297.668	2299
4299.19	2302
4300.713	2300
4302.236	2286
4303.758	2341
4305.279	2264
4306.799	2341
4308.321	2283
4309.842	2287
4311.361	2267
4312.882	2263
4314.401	2266
