400.0961	4381
402.6185	4262
405.1424	4453
407.6635	4364
410.1838	4394
412.7035	4467
415.2225	4512
417.7388	4459
420.2585	4493
422.7754	4532
425.2917	4752
427.8072	4625
430.3221	4642
432.8363	4714
435.3498	4640
437.8626	4746
440.3727	4710
442.8841	4674
445.3969	4712
447.907	4643
450.4142	4654
452.9229	4709
455.4289	4668
457.9362	4684
460.4449	4685
462.9488	4715
465.454	4666
467.9566	4714
470.4604	4716
472.9637	4654
475.4662	4671
477.966	4769
480.4671	4634
482.9656	4732
485.4633	4770
487.9645	4775
490.4608	4851
492.9566	4870
495.4536	4783
497.948	4865
500.4437	4803
502.9387	4842
505.431	4928
507.9226	4858
510.4136	4776
512.9079	4827
515.3975	4853
517.8864	4818
520.3746	4863
522.8622	4821
525.3491	4931
527.8394	4745
530.3249	4886
532.8098	4929
535.2939	4905
537.7774	4878
540.2623	4824
542.7444	5019
545.2259	4938
547.7067	4841
550.1868	4901
552.6683	4910
555.147	4931
557.6231	5014
560.1005	4966
562.5773	4882
565.0534	4995
567.5308	5006
570.0056	5015
572.4776	5042
574.951	5084
577.4237	5059
579.8978	5116
582.3671	5091
584.8378	5099
587.3079	5165
589.7773	5099
592.244	5171
594.714	5153
597.1793	5190
599.6461	5214
602.1121	5147
604.5754	5022
607.0421	5020
609.5042	5084
611.9675	5056
614.4282	5143
616.8902	5108
619.3515	5085
621.8122	5094
624.2702	5043
626.7296	5067
629.1863	4989
631.6423	5109
634.1017	5130
636.5563	5084
639.0104	5046
641.4658	5092
643.9185	5059
646.3725	5108
648.8239	5091
651.2766	5123
653.7266	5078
656.176	5168
658.6247	5164
661.0748	5197
663.5242	5078
665.9709	5163
668.417	5206
670.8624	5265
673.3092	5237
675.7533	5207
678.1968	5220
680.6395	5190
683.0817	5303
685.5251	5260
687.9659	5243
690.4061	5301
692.8456	5343
695.2844	5277
697.7226	5380
700.1621	5305
702.599	5255
705.0332	5262
707.4688	5292
709.9036	5323
712.3399	5327
714.7735	5316
717.2044	5410
719.6367	5418
722.0683	5422
724.4993	5399
726.9296	5393
729.3593	5409
731.7883	5544
734.2147	5467
736.6423	5433
739.0714	5459
741.4958	5476
743.9216	5432
746.3447	5471
748.7691	5516
751.1929	5614
753.616	5564
756.0366	5558
758.4584	5647
760.8776	5647
763.2982	5598
765.718	5632
768.1373	5582
770.5539	5704
772.9698	5699
775.3871	5701
777.8038	5630
780.2178	5648
782.6332	5776
785.0459	5633
787.458	5732
789.8714	5668
792.2842	5608
794.6943	5650
797.1038	5764
799.5127	5630
801.9209	5715
804.3324	5736
806.7393	5664
809.1456	5706
811.5513	5728
813.9562	5737
816.3625	5759
818.7663	5680
821.1693	5672
823.5718	5807
825.9735	5797
828.3746	5790
830.7771	5746
833.177	5761
835.5762	5812
837.9747	5896
840.3727	5810
842.772	5775
845.1666	5813
847.5626	5845
849.958	5835
852.3527	5974
854.7488	5949
857.1403	5826
859.5331	5899
861.9253	5789
864.3168	5853
866.7057	5833
869.098	5870
871.4876	5952
873.8746	5771
876.263	5826
878.6487	5899
881.0378	5861
883.4243	5835
885.8081	5803
888.1933	5892
890.5759	5853
892.9598	5753
895.343	5813
897.7256	5990
900.1057	5786
902.4871	5720
904.8659	5843
907.246	5992
909.6254	5840
912.0023	5977
914.3786	6061
916.7562	5979
919.1331	6070
921.5074	6086
923.8831	6004
926.2562	6194
928.6287	6088
931.0005	6030
933.3757	6135
935.7462	6105
938.1162	6262
940.4855	6121
942.8542	6242
945.2242	6290
947.5916	6377
949.9584	6430
952.3266	6585
954.6921	6837
957.0571	7066
959.4233	7275
961.787	7352
964.15	7354
966.5125	7068
968.8742	6870
971.2354	6634
973.5959	6559
975.9559	6387
978.3151	6175
980.6738	6216
983.0338	6032
985.3912	6186
987.7461	6123
990.1022	6109
992.4578	6140
994.8127	6118
997.1689	6021
999.5207	6131
1001.874	6163
1004.226	6191
1006.576	6103
1008.929	6140
1011.28	6095
1013.628	6203
1015.977	6194
1018.324	6128
1020.674	6172
1023.019	6104
1025.366	6134
1027.713	6218
1030.056	6238
1032.399	6183
1034.746	6239
1037.087	6293
1039.431	6211
1041.771	6229
1044.113	6269
1046.454	6210
1048.793	6212
1051.133	6087
1053.471	6123
1055.807	6221
1058.146	6214
1060.483	6293
1062.818	6263
1065.153	6289
1067.489	6293
1069.822	6369
1072.156	6377
1074.488	6339
1076.82	6418
1079.15	6247
1081.48	6332
1083.814	6312
1086.143	6450
1088.471	6254
1090.799	6270
1093.126	6337
1095.452	6228
1097.78	6186
1100.105	6192
1102.43	6192
1104.754	6195
1107.077	6127
1109.4	6355
1111.722	6192
1114.044	6239
1116.365	6240
1118.685	6284
1121.005	6165
1123.324	6412
1125.643	6309
1127.961	6249
1130.278	6335
1132.595	6220
1134.911	6251
1137.226	6292
1139.541	6159
1141.854	6419
1144.167	6251
1146.482	6348
1148.793	6179
1151.105	6302
1153.414	6284
1155.725	6375
1158.033	6318
1160.344	6346
1162.651	6390
1164.959	6361
1167.265	6296
1169.572	6282
1171.878	6256
1174.184	6325
1176.488	6258
1178.79	6260
1181.094	6282
1183.396	6252
1185.699	6332
1188.001	6282
1190.301	6322
1192.6	6280
1194.9	6343
1197.2	6298
1199.497	6409
1201.794	6385
1204.09	6293
1206.387	6335
1208.684	6281
1210.978	6355
1213.272	6454
1215.565	6203
1217.858	6387
1220.15	6427
1222.443	6255
1224.734	6395
1227.024	6456
1229.313	6363
1231.602	6369
1233.892	6506
1236.18	6468
1238.467	6486
1240.754	6470
1243.04	6533
1245.325	6480
1247.612	6449
1249.896	6452
1252.178	6515
1254.461	6500
1256.743	6508
1259.027	6502
1261.308	6588
1263.587	6567
1265.867	6436
1268.146	6563
1270.425	6354
1272.703	6534
1274.981	6550
1277.256	6565
1279.532	6540
1281.808	6419
1284.083	6482
1286.358	6525
1288.63	6510
1290.904	6432
1293.175	6469
1295.449	6458
1297.719	6504
1299.99	6416
1302.259	6438
1304.529	6344
1306.798	6507
1309.065	6383
1311.333	6449
1313.599	6467
1315.866	6487
1318.131	6430
1320.396	6540
1322.66	6452
1324.925	6601
1327.187	6490
1329.448	6409
1331.711	6409
1333.974	6555
1336.234	6504
1338.493	6616
1340.752	6581
1343.01	6546
1345.269	6498
1347.526	6516
1349.784	6286
1352.04	6426
1354.295	6457
1356.552	6469
1358.806	6432
1361.059	6472
1363.312	6447
1365.564	6448
1367.818	6591
1370.069	6549
1372.318	6477
1374.568	6429
1376.817	6556
1379.066	6506
1381.316	6536
1383.564	6494
1385.809	6446
1388.056	6584
1390.301	6700
1392.549	6678
1394.793	6641
1397.036	6531
1399.279	6587
1401.522	6644
1403.763	6657
1406.007	6595
1408.248	6734
1410.487	6602
1412.727	6677
1414.965	6662
1417.205	6677
1419.442	6606
1421.68	6594
1423.915	6627
1426.152	6611
1428.388	6594
1430.623	6540
1432.857	6693
1435.091	6723
1437.323	6725
1439.556	6674
1441.789	6761
1444.019	6831
1446.25	6746
1448.48	6616
1450.708	6715
1452.938	6794
1455.167	6921
1457.394	6776
1459.62	6720
1461.846	6712
1464.073	6781
1466.299	6728
1468.523	6691
1470.746	6648
1472.969	6683
1475.191	6663
1477.415	6702
1479.636	6605
1481.858	6595
1484.078	6547
1486.298	6560
1488.518	6599
1490.736	6662
1492.954	6581
1495.169	6470
1497.386	6530
1499.602	6621
1501.819	6495
1504.034	6456
1506.248	6544
1508.462	6563
1510.675	6526
1512.888	6580
1515.1	6544
1517.311	6538
1519.522	6379
1521.732	6611
1523.942	6546
1526.151	6417
1528.36	6513
1530.566	6512
1532.773	6634
1534.98	6485
1537.187	6556
1539.392	6553
1541.596	6511
1543.801	6612
1546.005	6548
1548.208	6515
1550.411	6553
1552.612	6522
1554.814	6516
1557.013	6529
1559.212	6614
1561.414	6584
1563.612	6626
1565.811	6662
1568.007	6758
1570.203	6659
1572.403	6654
1574.598	6667
1576.792	6740
1578.988	6765
1581.181	6700
1583.376	6679
1585.568	6802
1587.761	6694
1589.952	6680
1592.143	6808
1594.333	6649
1596.524	6835
1598.715	6687
1600.903	6700
1603.091	6776
1605.278	6663
1607.466	6697
1609.652	6807
1611.838	6682
1614.023	6741
1616.207	6764
1618.391	6750
1620.576	6815
1622.759	6796
1624.941	6747
1627.123	6681
1629.304	6866
1631.484	6801
1633.664	6904
1635.844	6831
1638.022	6932
1640.201	6760
1642.38	6855
1644.556	6731
1646.732	6817
1648.908	6877
1651.084	6878
1653.257	6765
1655.433	6840
1657.607	6825
1659.779	6757
1661.951	6778
1664.122	6822
1666.295	6787
1668.467	6906
1670.635	6794
1672.805	6855
1674.973	6757
1677.142	6746
1679.31	6831
1681.478	6817
1683.644	6801
1685.81	6748
1687.975	6866
1690.142	6921
1692.305	6842
1694.468	6817
1696.632	6714
1698.794	6767
1700.957	6792
1703.119	6762
1705.279	6684
1707.439	6794
1709.598	6739
1711.758	6732
1713.917	6758
1716.075	6819
1718.231	6671
1720.388	6674
1722.543	6729
1724.702	6773
1726.856	6742
1729.01	6681
1731.164	6765
1733.317	6741
1735.471	6763
1737.623	6767
1739.774	6829
1741.925	6746
1744.075	6742
1746.225	6697
1748.376	6799
1750.524	6689
1752.672	6841
1754.82	6758
1756.965	6627
1759.113	6701
1761.259	6710
1763.405	6665
1765.549	6723
1767.694	6743
1769.836	6807
1771.981	6840
1774.123	6798
1776.264	6755
1778.405	6875
1780.546	6883
1782.687	6760
1784.827	6824
1786.966	6829
1789.103	6731
1791.242	6880
1793.381	6772
1795.517	6821
1797.653	6858
1799.788	6843
1801.923	6874
1804.057	6803
1806.193	6819
1808.326	6889
1810.457	6742
1812.59	6826
1814.721	6791
1816.855	6698
1818.984	6784
1821.113	6742
1823.244	6742
1825.372	6801
1827.499	6837
1829.63	6856
1831.756	6620
1833.882	6854
1836.007	6825
1838.132	6668
1840.26	6697
1842.384	6771
1844.507	6716
1846.63	6839
1848.752	6742
1850.875	6826
1852.996	6729
1855.118	6672
1857.238	6731
1859.358	6758
1861.477	6634
1863.597	6664
1865.715	6836
1867.832	6772
1869.948	6671
1872.064	6850
1874.181	6784
1876.297	6730
1878.411	6778
1880.526	6760
1882.639	6772
1884.752	6719
1886.865	6802
1888.977	6862
1891.089	6666
1893.2	6741
1895.308	6721
1897.42	6703
1899.53	6799
1901.639	6734
1903.745	6710
1905.853	6777
1907.962	6930
1910.067	6851
1912.174	6732
1914.278	6821
1916.383	6764
1918.486	6809
1920.592	6876
1922.694	6840
1924.797	6774
1926.898	6843
1929	6809
1931.102	6797
1933.203	6857
1935.301	6907
1937.401	6852
1939.499	6736
1941.598	6856
1943.697	6793
1945.793	6832
1947.888	6842
1949.985	6810
1952.08	6789
1954.176	6886
1956.269	6708
1958.364	6793
1960.457	6792
1962.549	6901
1964.642	6891
1966.733	6861
1968.823	6732
1970.913	6863
1973.005	6737
1975.093	6826
1977.184	6719
1979.271	6800
1981.359	6740
1983.446	6830
1985.532	6745
1987.619	6879
1989.705	6877
1991.789	6740
1993.874	6888
1995.956	6840
1998.041	6726
2000.123	6682
2002.206	6829
2004.287	6677
2006.368	6706
2008.449	6676
2010.529	6712
2012.609	6793
2014.688	6775
2016.766	6753
2018.843	6636
2020.922	6795
2022.999	6743
2025.074	6815
2027.15	6643
2029.225	6720
2031.299	6798
2033.375	6768
2035.447	6794
2037.52	6648
2039.592	6700
2041.664	6655
2043.736	6820
2045.807	6795
2047.876	6722
2049.947	6709
2052.015	6761
2054.086	6754
2056.153	6710
2058.221	6811
2060.288	6772
2062.353	6745
2064.42	6833
2066.486	6711
2068.55	6750
2070.614	6840
2072.678	6740
2074.741	6748
2076.805	6738
2078.866	6766
2080.929	6716
2082.99	6820
2085.049	6689
2087.109	6738
2089.17	6663
2091.228	6694
2093.286	6754
2095.344	6754
2097.4	6817
2099.46	6665
2101.516	6755
2103.572	6622
2105.626	6832
2107.679	6784
2109.735	6675
2111.788	6639
2113.841	6801
2115.894	6815
2117.945	6736
2119.997	6786
2122.049	6612
2124.1	6733
2126.148	6768
2128.197	6678
2130.246	6809
2132.296	6695
2134.342	6668
2136.39	6759
2138.437	6735
2140.483	6796
2142.527	6620
2144.574	6648
2146.619	6702
2148.661	6780
2150.705	6664
2152.747	6669
2154.792	6664
2156.832	6654
2158.874	6702
2160.915	6715
2162.954	6673
2164.995	6664
2167.034	6642
2169.072	6501
2171.111	6673
2173.148	6673
2175.186	6632
2177.223	6597
2179.258	6633
2181.294	6682
2183.328	6734
2185.362	6595
2187.398	6452
2189.431	6602
2191.463	6586
2193.495	6645
2195.528	6540
2197.56	6618
2199.59	6483
2201.62	6610
2203.649	6756
2205.678	6583
2207.708	6615
2209.737	6661
2211.764	6577
2213.791	6603
2215.817	6629
2217.843	6641
2219.87	6532
2221.895	6479
2223.919	6600
2225.942	6509
2227.966	6484
2229.988	6598
2232.012	6354
2234.032	6564
2236.054	6515
2238.074	6409
2240.095	6451
2242.116	6525
2244.135	6505
2246.153	6580
2248.171	6559
2250.188	6555
2252.208	6590
2254.223	6380
2256.239	6575
2258.255	6560
2260.269	6527
2262.283	6550
2264.3	6518
2266.312	6592
2268.325	6474
2270.336	6527
2272.349	6389
2274.362	6598
2276.372	6416
2278.383	6533
2280.392	6495
2282.402	6358
2284.409	6494
2286.418	6512
2288.427	6442
2290.433	6403
2292.441	6565
2294.446	6504
2296.453	6494
2298.459	6582
2300.463	6551
2302.466	6518
2304.471	6539
2306.475	6389
2308.477	6378
2310.478	6469
2312.481	6500
2314.481	6405
2316.481	6470
2318.482	6383
2320.482	6487
2322.48	6378
2324.48	6495
2326.478	6445
2328.476	6365
2330.473	6516
2332.469	6468
2334.465	6336
2336.46	6304
2338.454	6427
2340.45	6452
2342.444	6449
2344.437	6338
2346.43	6378
2348.421	6355
2350.414	6464
2352.405	6324
2354.396	6419
2356.386	6290
2358.376	6331
2360.366	6452
2362.355	6458
2364.343	6399
2366.331	6324
2368.317	6460
2370.304	6416
2372.292	6425
2374.278	6321
2376.262	6304
2378.247	6287
2380.23	6271
2382.216	6386
2384.199	6289
2386.181	6252
2388.163	6216
2390.144	6212
2392.127	6334
2394.107	6154
2396.087	6215
2398.066	6261
2400.046	6247
2402.023	6293
2404.004	6271
2405.981	6269
2407.957	6328
2409.934	6252
2411.91	6166
2413.886	6213
2415.862	6273
2417.836	6160
2419.809	6430
2421.784	6126
2423.756	6291
2425.73	6280
2427.701	6265
2429.672	6260
2431.644	6281
2433.615	6210
2435.586	6280
2437.555	6326
2439.523	6304
2441.491	6251
2443.459	6218
2445.428	6229
2447.395	6198
2449.361	6198
2451.327	6185
2453.292	6237
2455.257	6209
2457.223	6206
2459.187	6141
2461.15	6239
2463.113	6217
2465.076	6235
2467.039	6224
2468.999	6060
2470.96	6288
2472.921	6180
2474.881	6169
2476.841	6135
2478.8	6227
2480.759	6080
2482.717	6155
2484.675	6142
2486.63	6098
2488.589	6081
2490.545	6124
2492.5	6114
2494.455	6233
2496.408	6142
2498.364	6190
2500.318	6139
2502.27	6215
2504.223	6131
2506.174	6163
2508.126	6120
2510.078	6062
2512.03	6135
2513.979	6184
2515.927	6046
2517.877	6218
2519.826	5957
2521.775	6130
2523.722	6213
2525.668	6140
2527.616	6132
2529.561	6012
2531.508	6147
2533.452	6154
2535.398	6062
2537.342	6015
2539.284	5999
2541.229	6142
2543.173	6136
2545.114	6039
2547.055	6133
2548.996	5985
2550.938	6016
2552.878	6096
2554.817	6050
2556.756	6054
2558.695	6005
2560.633	6072
2562.572	6041
2564.509	6090
2566.445	6115
2568.382	6034
2570.317	6090
2572.254	5976
2574.189	6123
2576.123	6041
2578.057	6118
2579.99	5987
2581.923	6086
2583.855	6097
2585.788	6042
2587.719	5917
2589.65	6121
2591.579	6021
2593.511	6084
2595.44	6049
2597.37	6215
2599.297	6184
2601.225	6114
2603.153	6045
2605.08	6071
2607.007	6124
2608.932	6226
2610.858	6087
2612.782	6061
2614.709	6098
2616.632	5932
2618.556	6162
2620.478	6044
2622.401	6063
2624.324	5984
2626.247	6093
2628.167	6038
2630.088	6132
2632.008	6081
2633.928	6129
2635.848	6052
2637.766	6077
2639.684	6012
2641.603	5901
2643.519	6047
2645.437	6047
2647.353	6030
2649.27	6003
2651.184	6015
2653.099	6018
2655.014	5994
2656.928	6122
2658.842	6064
2660.755	6063
2662.667	6054
2664.579	5952
2666.491	6013
2668.402	6034
2670.312	6110
2672.222	5874
2674.132	6058
2676.042	5983
2677.951	6025
2679.859	5987
2681.766	5859
2683.674	6007
2685.582	5968
2687.488	5891
2689.392	5881
2691.298	5890
2693.202	5944
2695.107	5957
2697.012	5950
2698.914	6029
2700.817	5943
2702.72	5987
2704.622	5889
2706.524	6057
2708.425	5870
2710.326	5852
2712.225	5980
2714.125	5906
2716.024	5923
2717.923	5967
2719.822	5835
2721.719	5862
2723.616	5921
2725.512	5981
2727.41	5877
2729.305	5804
2731.201	5923
2733.095	5872
2734.99	6043
2736.884	5947
2738.778	5816
2740.67	5968
2742.562	5878
2744.455	5911
2746.346	5840
2748.238	5896
2750.129	5868
2752.018	6011
2753.907	5915
2755.797	5859
2757.687	5758
2759.575	5918
2761.462	5907
2763.349	5921
2765.237	5827
2767.124	5880
2769.009	5931
2770.894	5893
2772.779	5848
2774.663	5823
2776.547	5908
2778.431	5725
2780.314	5716
2782.197	5761
2784.078	5941
2785.96	5792
2787.842	5796
2789.723	5710
2791.603	5825
2793.483	5833
2795.362	5788
2797.241	5762
2799.121	5806
2800.997	5877
2802.874	5786
2804.751	5814
2806.628	5720
2808.506	5861
2810.38	5743
2812.255	5766
2814.13	5792
2816.003	5851
2817.878	5709
2819.752	5683
2821.623	5788
2823.496	5816
2825.368	5807
2827.238	5840
2829.111	5735
2830.98	5786
2832.851	5677
2834.719	5736
2836.589	5703
2838.458	5819
2840.327	5756
2842.193	5751
2844.061	5672
2845.927	5803
2847.794	5820
2849.66	5853
2851.525	5809
2853.39	5703
2855.254	5698
2857.117	5779
2858.983	5796
2860.845	5872
2862.707	5717
2864.569	5799
2866.431	5794
2868.293	5858
2870.154	5905
2872.013	5980
2873.873	5977
2875.733	5870
2877.592	5948
2879.451	5960
2881.309	6024
2883.166	6017
2885.022	6103
2886.879	6017
2888.736	5990
2890.591	6069
2892.446	6063
2894.301	5959
2896.155	6191
2898.009	6015
2899.863	5982
2901.716	6075
2903.568	6050
2905.419	5961
2907.27	6083
2909.123	5980
2910.973	6108
2912.824	6097
2914.673	6069
2916.521	6123
2918.372	6225
2920.22	6141
2922.067	6200
2923.914	6339
2925.761	6376
2927.607	6334
2929.455	6326
2931.301	6377
2933.144	6435
2934.99	6374
2936.833	6500
2938.678	6525
2940.522	6476
2942.364	6486
2944.207	6588
2946.048	6616
2947.891	6616
2949.731	6615
2951.571	6517
2953.412	6638
2955.25	6428
2957.09	6463
2958.93	6358
2960.767	6400
2962.606	6332
2964.443	6280
2966.279	6339
2968.116	6207
2969.953	6140
2971.788	6071
2973.623	6103
2975.457	6068
2977.292	6080
2979.127	6075
2980.959	5975
2982.792	6012
2984.624	5952
2986.455	5921
2988.288	6045
2990.119	5865
2991.949	5897
2993.779	5959
2995.608	5827
2997.439	5774
2999.268	5792
3001.096	5657
3002.923	5815
3004.751	5660
3006.578	5641
3008.406	5704
3010.232	5615
3012.057	5613
3013.883	5583
3015.706	5596
3017.532	5583
3019.356	5620
3021.179	5565
3023.002	5495
3024.823	5441
3026.646	5440
3028.469	5481
3030.289	5438
3032.11	5522
3033.93	5509
3035.749	5417
3037.57	5379
3039.39	5368
3041.207	5332
3043.026	5397
3044.842	5373
3046.661	5372
3048.477	5401
3050.294	5391
3052.109	5500
3053.925	5449
3055.739	5307
3057.555	5459
3059.368	5379
3061.181	5388
3062.995	5381
3064.807	5396
3066.62	5343
3068.433	5338
3070.243	5440
3072.054	5297
3073.865	5363
3075.675	5318
3077.485	5329
3079.293	5318
3081.102	5443
3082.911	5260
3084.719	5264
3086.527	5387
3088.333	5201
3090.139	5383
3091.945	5169
3093.75	5262
3095.557	5241
3097.361	5313
3099.165	5259
3100.969	5245
3102.772	5209
3104.575	5270
3106.379	5229
3108.181	5155
3109.982	5293
3111.783	5288
3113.584	5170
3115.386	5139
3117.186	5194
3118.985	5141
3120.783	5158
3122.582	5174
3124.381	5229
3126.179	5088
3127.975	5208
3129.772	5139
3131.569	5068
3133.365	5183
3135.161	5074
3136.956	5113
3138.751	5067
3140.544	5076
3142.338	5090
3144.132	5091
3145.925	4991
3147.717	5056
3149.509	5081
3151.301	5071
3153.091	5147
3154.884	5125
3156.673	5133
3158.462	5160
3160.252	5137
3162.041	5139
3163.831	5095
3165.618	5070
3167.405	4990
3169.193	5093
3170.979	4977
3172.767	5036
3174.553	5027
3176.338	5027
3178.123	5139
3179.907	5060
3181.692	4996
3183.477	5128
3185.259	5060
3187.042	4985
3188.824	5007
3190.607	5055
3192.389	5003
3194.17	4956
3195.951	5010
3197.73	5002
3199.51	4831
3201.289	4926
3203.07	4968
3204.848	5035
3206.626	4969
3208.403	4965
3210.18	5074
3211.959	4887
3213.735	4985
3215.511	4935
3217.285	4874
3219.06	5027
3220.836	4975
3222.611	4994
3224.384	4897
3226.158	4897
3227.929	4889
3229.702	4896
3231.476	4879
3233.248	4842
3235.018	4867
3236.789	5043
3238.56	4950
3240.33	4930
3242.1	5044
3243.869	4974
3245.637	4963
3247.405	4945
3249.172	4872
3250.941	4941
3252.707	4863
3254.474	4876
3256.24	4806
3258.006	4835
3259.772	4978
3261.537	4895
3263.301	4958
3265.065	4819
3266.828	4832
3268.592	4861
3270.355	4994
3272.117	4864
3273.878	4841
3275.64	4965
3277.401	4974
3279.162	4892
3280.922	4931
3282.682	4782
3284.441	5015
3286.199	4846
3287.959	4828
3289.716	4859
3291.475	4970
3293.232	4924
3294.988	4971
3296.744	4862
3298.501	4798
3300.256	4923
3302.011	4877
3303.766	4876
3305.52	4856
3307.275	4875
3309.028	4880
3310.781	4800
3312.533	4873
3314.285	4842
3316.038	4775
3317.789	4788
3319.54	4829
3321.289	4948
3323.039	4787
3324.789	4757
3326.539	4811
3328.288	4734
3330.035	4764
3331.783	4820
3333.531	4828
3335.28	4824
3337.025	4734
3338.771	4860
3340.518	4763
3342.262	4845
3344.009	4740
3345.753	4880
3347.497	4876
3349.24	4777
3350.983	4747
3352.726	4741
3354.469	4803
3356.212	4810
3357.952	4726
3359.694	4723
3361.434	4715
3363.176	4715
3364.916	4804
3366.654	4710
3368.394	4699
3370.132	4752
3371.871	4767
3373.61	4693
3375.346	4747
3377.083	4739
3378.82	4759
3380.556	4703
3382.292	4692
3384.027	4664
3385.763	4734
3387.497	4777
3389.231	4678
3390.965	4702
3392.698	4665
3394.431	4707
3396.164	4652
3397.896	4702
3399.627	4638
3401.36	4705
3403.09	4603
3404.82	4586
3406.55	4653
3408.279	4693
3410.01	4666
3411.738	4625
3413.467	4599
3415.194	4614
3416.92	4680
3418.647	4704
3420.375	4586
3422.102	4642
3423.827	4576
3425.553	4599
3427.277	4588
3429.003	4576
3430.727	4613
3432.451	4632
3434.173	4625
3435.896	4602
3437.62	4534
3439.343	4582
3441.063	4574
3442.785	4586
3444.505	4530
3446.226	4530
3447.948	4644
3449.666	4527
3451.386	4523
3453.104	4478
3454.823	4571
3456.541	4484
3458.259	4467
3459.976	4519
3461.693	4467
3463.408	4532
3465.125	4391
3466.841	4459
3468.556	4433
3470.271	4506
3471.985	4505
3473.698	4488
3475.414	4461
3477.126	4472
3478.838	4428
3480.55	4383
3482.263	4385
3483.975	4459
3485.686	4425
3487.396	4366
3489.106	4419
3490.817	4392
3492.526	4418
3494.236	4400
3495.944	4380
3497.652	4407
3499.359	4403
3501.066	4410
3502.775	4295
3504.481	4371
3506.187	4340
3507.893	4411
3509.598	4322
3511.304	4344
3513.009	4327
3514.713	4346
3516.417	4283
3518.12	4310
3519.821	4418
3521.525	4276
3523.228	4294
3524.929	4290
3526.631	4245
3528.33	4212
3530.032	4276
3531.733	4238
3533.433	4320
3535.131	4219
3536.83	4363
3538.529	4292
3540.227	4274
3541.925	4242
3543.623	4287
3545.319	4208
3547.016	4307
3548.712	4297
3550.408	4204
3552.103	4228
3553.798	4292
3555.491	4208
3557.188	4177
3558.88	4190
3560.574	4196
3562.266	4113
3563.959	4230
3565.651	4153
3567.343	4175
3569.035	4103
3570.725	4188
3572.415	4199
3574.106	4142
3575.797	4141
3577.485	4136
3579.174	4190
3580.863	4167
3582.551	4123
3584.238	4112
3585.926	4053
3587.613	4154
3589.3	4138
3590.986	4115
3592.671	4060
3594.357	4140
3596.042	4119
3597.726	4000
3599.41	4135
3601.094	4087
3602.778	4068
3604.461	3996
3606.143	4057
3607.825	4058
3609.507	4085
3611.188	3959
3612.87	4000
3614.551	4063
3616.229	3912
3617.909	3951
3619.589	4108
3621.269	4015
3622.948	3994
3624.625	4077
3626.302	3950
3627.98	4035
3629.657	3928
3631.334	3981
3633.01	3969
3634.686	4003
3636.361	3961
3638.036	4011
3639.712	3971
3641.385	3899
3643.06	3894
3644.732	3933
3646.405	3972
3648.08	3963
3649.751	3913
3651.424	4046
3653.094	3882
3654.766	3865
3656.436	3942
3658.106	3781
3659.777	3965
3661.446	3846
3663.115	3868
3664.783	3847
3666.452	3883
3668.121	3929
3669.788	3862
3671.454	3822
3673.121	3826
3674.789	3820
3676.455	3791
3678.12	3862
3679.784	3899
3681.45	3820
3683.114	3818
3684.779	3772
3686.442	3815
3688.105	3732
3689.768	3828
3691.43	3776
3693.093	3722
3694.754	3801
3696.415	3871
3698.076	3835
3699.736	3848
3701.396	3864
3703.057	3782
3704.716	3830
3706.375	3822
3708.034	3845
3709.692	3789
3711.351	3712
3713.008	3768
3714.665	3825
3716.321	3775
3717.977	3836
3719.634	3754
3721.29	3722
3722.945	3708
3724.598	3725
3726.253	3720
3727.907	3739
3729.561	3805
3731.214	3790
3732.867	3701
3734.518	3764
3736.171	3756
3737.824	3746
3739.474	3729
3741.125	3713
3742.775	3643
3744.425	3725
3746.074	3781
3747.725	3778
3749.373	3701
3751.022	3727
3752.669	3723
3754.318	3657
3755.966	3692
3757.612	3708
3759.259	3665
3760.905	3748
3762.55	3655
3764.197	3719
3765.842	3605
3767.486	3618
3769.131	3620
3770.774	3681
3772.417	3681
3774.061	3769
3775.705	3654
3777.347	3672
3778.988	3619
3780.629	3712
3782.271	3635
3783.912	3660
3785.552	3613
3787.192	3638
3788.831	3646
3790.472	3618
3792.112	3661
3793.75	3503
3795.388	3533
3797.024	3573
3798.661	3550
3800.3	3676
3801.936	3607
3803.572	3657
3805.208	3558
3806.844	3616
3808.48	3620
3810.115	3630
3811.748	3578
3813.382	3509
3815.016	3577
3816.649	3519
3818.283	3507
3819.914	3514
3821.547	3419
3823.178	3602
3824.809	3509
3826.441	3556
3828.072	3491
3829.701	3532
3831.331	3453
3832.96	3561
3834.591	3497
3836.219	3542
3837.847	3512
3839.475	3510
3841.102	3571
3842.729	3446
3844.357	3447
3845.984	3505
3847.609	3436
3849.234	3378
3850.86	3463
3852.485	3418
3854.11	3465
3855.734	3528
3857.357	3437
3858.981	3431
3860.603	3482
3862.227	3452
3863.848	3509
3865.471	3382
3867.092	3407
3868.713	3454
3870.334	3455
3871.954	3422
3873.575	3470
3875.194	3461
3876.813	3475
3878.433	3461
3880.051	3395
3881.669	3512
3883.286	3327
3884.904	3407
3886.52	3420
3888.138	3413
3889.754	3405
3891.37	3430
3892.985	3317
3894.6	3439
3896.216	3331
3897.831	3375
3899.444	3340
3901.058	3373
3902.67	3382
3904.283	3347
3905.897	3333
3907.509	3422
3909.121	3387
3910.731	3370
3912.342	3302
3913.954	3421
3915.563	3376
3917.174	3366
3918.783	3421
3920.391	3362
3922.002	3361
3923.611	3359
3925.218	3330
3926.826	3423
3928.432	3371
3930.039	3372
3931.647	3483
3933.253	3327
3934.859	3383
3936.464	3324
3938.068	3330
3939.675	3342
3941.278	3253
3942.883	3366
3944.486	3404
3946.089	3354
3947.692	3332
3949.295	3353
3950.898	3300
3952.499	3267
3954.1	3312
3955.7	3366
3957.303	3255
3958.903	3268
3960.502	3306
3962.101	3290
3963.7	3279
3965.301	3297
3966.899	3290
3968.497	3269
3970.094	3198
3971.691	3199
3973.288	3291
3974.885	3246
3976.481	3184
3978.077	3258
3979.672	3304
3981.267	3308
3982.863	3224
3984.457	3247
3986.051	3193
3987.645	3256
3989.238	3208
3990.831	3201
3992.425	3257
3994.017	3257
3995.607	3198
3997.199	3086
3998.79	3191
4000.382	3157
4001.973	3220
4003.561	3167
4005.151	3181
4006.741	3107
4008.331	3063
4009.918	3102
4011.507	3126
4013.095	3060
4014.681	3142
4016.269	3111
4017.856	3133
4019.443	3158
4021.028	3180
4022.614	3074
4024.199	3118
4025.785	3143
4027.37	3114
4028.953	3157
4030.536	3098
4032.12	3113
4033.704	3106
4035.287	3057
4036.869	3081
4038.45	3052
4040.032	3100
4041.613	3061
4043.195	3052
4044.776	3121
4046.356	3041
4047.935	3145
4049.515	3064
4051.095	3077
4052.674	3049
4054.251	3019
4055.829	3042
4057.406	2990
4058.985	3071
4060.562	3020
4062.139	3035
4063.715	3041
4065.29	3049
4066.865	3145
4068.442	3085
4070.016	2989
4071.59	3095
4073.164	3085
4074.738	2983
4076.312	3007
4077.885	2948
4079.458	3003
4081.03	3007
4082.602	3025
4084.173	3003
4085.745	2947
4087.315	3003
4088.886	3056
4090.456	3015
4092.026	2974
4093.596	2955
4095.165	2955
4096.734	3007
4098.301	2987
4099.869	2956
4101.437	3016
4103.006	2940
4104.572	2961
4106.139	3020
4107.704	2947
4109.27	2950
4110.837	3006
4112.401	2947
4113.966	2980
4115.53	2893
4117.094	2940
4118.659	2965
4120.223	2897
4121.785	2902
4123.347	2970
4124.909	2898
4126.471	2916
4128.034	2941
4129.595	2955
4131.155	2819
4132.716	2859
4134.275	2912
4135.836	2926
4137.395	2927
4138.955	2873
4140.513	2914
4142.071	2898
4143.628	2840
4145.188	2826
4146.745	2888
4148.302	2907
4149.858	2796
4151.414	2886
4152.971	2789
4154.526	2802
4156.081	2937
4157.635	2877
4159.189	2866
4160.745	2870
4162.298	2825
4163.852	2719
4165.405	2822
4166.957	2869
4168.51	2846
4170.063	2818
4171.614	2759
4173.166	2821
4174.717	2785
4176.267	2806
4177.817	2819
4179.368	2781
4180.917	2791
4182.466	2793
4184.016	2772
4185.564	2775
4187.112	2816
4188.66	2737
4190.207	2781
4191.754	2755
4193.301	2760
4194.848	2804
4196.394	2728
4197.94	2772
4199.484	2790
4201.03	2787
4202.575	2802
4204.12	2738
4205.663	2691
4207.207	2779
4208.75	2687
4210.292	2718
4211.836	2751
4213.378	2679
4214.92	2721
4216.46	2724
4218.002	2762
4219.544	2704
4221.083	2692
4222.625	2699
4224.164	2808
4225.703	2701
4227.244	2662
4228.782	2785
4230.32	2711
4231.857	2729
4233.395	2617
4234.933	2719
4236.471	2731
4238.007	2641
4239.542	2687
4241.078	2670
4242.614	2638
4244.15	2683
4245.685	2729
4247.219	2681
4248.753	2694
4250.287	2587
4251.82	2615
4253.354	2742
4254.887	2630
4256.419	2701
4257.951	2689
4259.483	2678
4261.016	2686
4262.547	2568
4264.078	2640
4265.608	2661
4267.137	2583
4268.668	2622
4270.197	2633
4271.727	2619
4273.254	2569
4274.783	2691
4276.311	2597
4277.84	2629
4279.366	2630
4280.894	2640
4282.42	2504
4283.946	2590
4285.473	2728
4286.998	2602
4288.523	2584
4290.047	2644
4291.572	2540
4293.096	2548
4294.622	2611
4296.144	2609
4297.668	2598
4299.19	2547
4300.713	2551
4302.236	2534
4303.758	2529
4305.279	2538
4306.799	2578
4308.321	2553
4309.842	2567
4311.361	2554
4312.882	2548
4314.401	2608
