400.0961	5177
402.6185	5167
405.1424	5119
407.6635	5200
410.1838	5241
412.7035	5232
415.2225	5163
417.7388	5199
420.2585	5285
422.7754	5403
425.2917	5500
427.8072	5545
430.3221	5480
432.8363	5478
435.3498	5560
437.8626	5543
440.3727	5501
442.8841	5654
445.3969	5459
447.907	5591
450.4142	5483
452.9229	5507
455.4289	5533
457.9362	5545
460.4449	5513
462.9488	5511
465.454	5591
467.9566	5528
470.4604	5560
472.9637	5481
475.4662	5506
477.966	5399
480.4671	5544
482.9656	5479
485.4633	5541
487.9645	5635
490.4608	5474
492.9566	5548
495.4536	5642
497.948	5572
500.4437	5552
502.9387	5614
505.431	5667
507.9226	5758
510.4136	5679
512.9079	5593
515.3975	5664
517.8864	5696
520.3746	5622
522.8622	5684
525.3491	5750
527.8394	5743
530.3249	5674
532.8098	5711
535.2939	5828
537.7774	5735
540.2623	5766
542.7444	5765
545.2259	5733
547.7067	5802
550.1868	5741
552.6683	5619
555.147	5841
557.6231	5772
560.1005	5859
562.5773	5799
565.0534	5846
567.5308	5849
570.0056	5904
572.4776	5913
574.951	5967
577.4237	5875
579.8978	5986
582.3671	6106
584.8378	6010
587.3079	5970
589.7773	6037
592.244	6076
594.714	6021
597.1793	5949
599.6461	5895
602.1121	5940
604.5754	5946
607.0421	5951
609.5042	5916
611.9675	5964
614.4282	5998
616.8902	5981
619.3515	5943
621.8122	6053
624.2702	5912
626.7296	5978
629.1863	5859
631.6423	5861
634.1017	5927
636.5563	6003
639.0104	5921
641.4658	5853
643.9185	5935
646.3725	5934
648.8239	5970
651.2766	6040
653.7266	6036
656.176	6060
658.6247	6085
661.0748	6086
663.5242	6071
665.9709	6119
668.417	6118
670.8624	6058
673.3092	5937
675.7533	6084
678.1968	6141
680.6395	6090
683.0817	6197
685.5251	6158
687.9659	6193
690.4061	6227
692.8456	6161
695.2844	6190
697.7226	6123
700.1621	6288
702.599	6091
705.0332	6191
707.4688	6302
709.9036	6268
712.3399	6268
714.7735	6238
717.2044	6293
719.6367	6294
722.0683	6319
724.4993	6250
726.9296	6334
729.3593	6408
731.7883	6309
734.2147	6310
736.6423	6429
739.0714	6342
741.4958	6474
743.9216	6573
746.3447	6412
748.7691	6407
751.1929	6482
753.616	6554
756.0366	6504
758.4584	6435
760.8776	6500
763.2982	6667
765.718	6615
768.1373	6626
770.5539	6589
772.9698	6573
775.3871	6719
777.8038	6768
780.2178	6652
782.6332	6642
785.0459	6653
787.458	6707
789.8714	6543
792.2842	6577
794.6943	6643
797.1038	6639
799.5127	6661
801.9209	6484
804.3324	6633
806.7393	6688
809.1456	6695
811.5513	6726
813.9562	6789
816.3625	6813
818.7663	6620
821.1693	6655
823.5718	6667
825.9735	6784
828.3746	6641
830.7771	6665
833.177	6799
835.5762	6772
837.9747	6694
840.3727	6799
842.772	6754
845.1666	6815
847.5626	6832
849.958	6841
852.3527	6935
854.7488	6970
857.1403	6975
859.5331	6984
861.9253	6990
864.3168	6872
866.7057	6797
869.098	6901
871.4876	6851
873.8746	6995
876.263	6841
878.6487	6773
881.0378	6927
883.4243	6848
885.8081	6847
888.1933	6925
890.5759	6929
892.9598	6849
895.343	6885
897.7256	6874
900.1057	6816
902.4871	6835
904.8659	6950
907.246	6949
909.6254	7039
912.0023	7086
914.3786	7126
916.7562	7259
919.1331	7268
921.5074	7362
923.8831	7404
926.2562	7413
928.6287	7397
931.0005	7297
933.3757	7357
935.7462	7439
938.1162	7405
940.4855	7474
942.8542	7344
945.2242	7434
947.5916	7633
949.9584	7626
952.3266	8027
954.6921	8127
957.0571	8417
959.4233	8853
961.787	8760
964.15	8977
966.5125	8695
968.8742	8280
971.2354	8076
973.5959	7828
975.9559	7393
978.3151	7467
980.6738	7437
983.0338	7306
985.3912	7327
987.7461	7444
990.1022	7165
992.4578	7162
994.8127	7202
997.1689	7201
999.5207	7017
1001.874	7197
1004.226	7169
1006.576	6990
1008.929	7229
1011.28	7137
1013.628	7116
1015.977	7106
1018.324	7222
1020.674	7083
1023.019	7250
1025.366	7178
1027.713	7340
1030.056	7271
1032.399	7229
1034.746	7341
1037.087	7184
1039.431	7280
1041.771	7307
1044.113	7261
1046.454	7284
1048.793	7204
1051.133	7233
1053.471	7305
1055.807	7245
1058.146	7275
1060.483	7266
1062.818	7307
1065.153	7337
1067.489	7385
1069.822	7474
1072.156	7500
1074.488	7466
1076.82	7383
1079.15	7405
1081.48	7326
1083.814	7261
1086.143	7422
1088.471	7451
1090.799	7253
1093.126	7248
1095.452	7313
1097.78	7355
1100.105	7305
1102.43	7340
1104.754	7284
1107.077	7335
1109.4	7418
1111.722	7372
1114.044	7291
1116.365	7336
1118.685	7330
1121.005	7301
1123.324	7435
1125.643	7374
1127.961	7477
1130.278	7240
1132.595	7347
1134.911	7365
1137.226	7279
1139.541	7301
1141.854	7376
1144.167	7293
1146.482	7266
1148.793	7298
1151.105	7236
1153.414	7371
1155.725	7315
1158.033	7363
1160.344	7385
1162.651	7288
1164.959	7334
1167.265	7348
1169.572	7370
1171.878	7415
1174.184	7263
1176.488	7256
1178.79	7424
1181.094	7431
1183.396	7460
1185.699	7332
1188.001	7345
1190.301	7275
1192.6	7447
1194.9	7345
1197.2	7440
1199.497	7323
1201.794	7291
1204.09	7283
1206.387	7400
1208.684	7257
1210.978	7424
1213.272	7409
1215.565	7390
1217.858	7370
1220.15	7461
1222.443	7345
1224.734	7351
1227.024	7469
1229.313	7499
1231.602	7532
1233.892	7504
1236.18	7575
1238.467	7553
1240.754	7689
1243.04	7639
1245.325	7658
1247.612	7738
1249.896	7785
1252.178	7666
1254.461	7685
1256.743	7687
1259.027	7616
1261.308	7743
1263.587	7695
1265.867	7683
1268.146	7829
1270.425	7746
1272.703	7811
1274.981	7645
1277.256	7693
1279.532	7546
1281.808	7772
1284.083	7653
1286.358	7580
1288.63	7522
1290.904	7443
1293.175	7639
1295.449	7638
1297.719	7410
1299.99	7479
1302.259	7566
1304.529	7693
1306.798	7677
1309.065	7508
1311.333	7620
1313.599	7650
1315.866	7598
1318.131	7568
1320.396	7508
1322.66	7620
1324.925	7589
1327.187	7660
1329.448	7599
1331.711	7788
1333.974	7621
1336.234	7638
1338.493	7650
1340.752	7572
1343.01	7481
1345.269	7598
1347.526	7552
1349.784	7531
1352.04	7520
1354.295	7556
1356.552	7610
1358.806	7484
1361.059	7566
1363.312	7585
1365.564	7499
1367.818	7598
1370.069	7670
1372.318	7696
1374.568	7642
1376.817	7598
1379.066	7597
1381.316	7612
1383.564	7670
1385.809	7673
1388.056	7570
1390.301	7752
1392.549	7676
1394.793	7874
1397.036	7976
1399.279	7837
1401.522	7956
1403.763	7938
1406.007	8002
1408.248	7989
1410.487	7877
1412.727	7903
1414.965	7842
1417.205	8042
1419.442	7935
1421.68	7839
1423.915	7776
1426.152	7863
1428.388	7778
1430.623	7870
1432.857	7779
1435.091	7873
1437.323	8038
1439.556	7987
1441.789	8068
1444.019	8017
1446.25	8089
1448.48	7975
1450.708	8042
1452.938	8095
1455.167	8220
1457.394	8159
1459.62	8145
1461.846	8093
1464.073	7994
1466.299	7963
1468.523	7870
1470.746	7893
1472.969	7821
1475.191	7805
1477.415	7926
1479.636	7791
1481.858	7668
1484.078	7785
1486.298	7639
1488.518	7628
1490.736	7537
1492.954	7570
1495.169	7546
1497.386	7511
1499.602	7517
1501.819	7596
1504.034	7604
1506.248	7617
1508.462	7552
1510.675	7623
1512.888	7473
1515.1	7564
1517.311	7540
1519.522	7571
1521.732	7537
1523.942	7547
1526.151	7500
1528.36	7533
1530.566	7633
1532.773	7493
1534.98	7477
1537.187	7507
1539.392	7533
1541.596	7608
1543.801	7593
1546.005	7418
1548.208	7604
1550.411	7649
1552.612	7771
1554.814	7740
1557.013	7621
1559.212	7656
1561.414	7693
1563.612	7705
1565.811	7638
1568.007	7852
1570.203	7759
1572.403	7673
1574.598	7766
1576.792	7735
1578.988	7858
1581.181	7710
1583.376	7724
1585.568	7911
1587.761	7784
1589.952	7860
1592.143	7872
1594.333	7818
1596.524	7735
1598.715	7876
1600.903	7878
1603.091	7910
1605.278	7935
1607.466	7838
1609.652	7918
1611.838	7836
1614.023	7940
1616.207	7743
1618.391	7954
1620.576	7856
1622.759	7805
1624.941	7801
1627.123	7906
1629.304	8013
1631.484	7784
1633.664	7831
1635.844	7977
1638.022	7940
1640.201	7927
1642.38	8073
1644.556	7962
1646.732	7942
1648.908	8041
1651.084	7892
1653.257	7819
1655.433	7894
1657.607	7930
1659.779	8007
1661.951	8068
1664.122	8001
1666.295	8144
1668.467	7961
1670.635	7982
1672.805	8129
1674.973	8042
1677.142	7982
1679.31	7950
1681.478	8021
1683.644	8054
1685.81	8080
1687.975	7930
1690.142	7907
1692.305	7976
1694.468	7940
1696.632	7853
1698.794	7924
1700.957	7832
1703.119	7823
1705.279	7778
1707.439	7957
1709.598	7848
1711.758	7805
1713.917	7696
1716.075	7809
1718.231	7804
1720.388	7861
1722.543	7654
1724.702	7840
1726.856	7705
1729.01	7744
1731.164	7717
1733.317	7794
1735.471	7813
1737.623	7747
1739.774	7947
1741.925	7754
1744.075	7913
1746.225	7777
1748.376	7816
1750.524	7804
1752.672	7780
1754.82	7884
1756.965	7766
1759.113	7857
1761.259	7707
1763.405	7842
1765.549	7927
1767.694	7874
1769.836	7796
1771.981	7806
1774.123	7902
1776.264	7796
1778.405	7923
1780.546	7964
1782.687	7747
1784.827	7865
1786.966	7888
1789.103	7834
1791.242	7847
1793.381	7796
1795.517	7816
1797.653	7940
1799.788	7963
1801.923	7824
1804.057	7929
1806.193	7860
1808.326	7755
1810.457	7861
1812.59	7771
1814.721	7846
1816.855	7786
1818.984	7915
1821.113	7820
1823.244	7808
1825.372	7837
1827.499	7913
1829.63	7803
1831.756	7700
1833.882	7917
1836.007	7761
1838.132	7705
1840.26	7729
1842.384	7844
1844.507	7793
1846.63	7770
1848.752	7786
1850.875	7770
1852.996	7760
1855.118	7719
1857.238	7837
1859.358	7758
1861.477	7762
1863.597	7765
1865.715	7781
1867.832	8040
1869.948	7763
1872.064	7689
1874.181	7847
1876.297	7806
1878.411	7725
1880.526	7779
1882.639	7635
1884.752	7710
1886.865	7768
1888.977	7785
1891.089	7893
1893.2	7847
1895.308	7793
1897.42	7867
1899.53	7809
1901.639	7895
1903.745	7753
1905.853	7854
1907.962	7974
1910.067	7832
1912.174	7943
1914.278	7948
1916.383	7847
1918.486	7828
1920.592	7893
1922.694	7954
1924.797	7904
1926.898	7878
1929	7781
1931.102	7858
1933.203	7786
1935.301	7901
1937.401	7844
1939.499	7813
1941.598	7825
1943.697	7929
1945.793	7869
1947.888	7749
1949.985	7900
1952.08	7924
1954.176	7878
1956.269	7869
1958.364	7923
1960.457	7964
1962.549	7872
1964.642	7746
1966.733	7833
1968.823	8026
1970.913	7865
1973.005	7862
1975.093	7831
1977.184	7706
1979.271	7780
1981.359	7820
1983.446	7875
1985.532	7904
1987.619	7929
1989.705	7762
1991.789	7839
1993.874	7816
1995.956	7909
1998.041	7807
2000.123	7752
2002.206	7865
2004.287	7878
2006.368	7810
2008.449	7681
2010.529	7798
2012.609	7783
2014.688	7772
2016.766	7797
2018.843	7798
2020.922	7815
2022.999	7797
2025.074	7806
2027.15	7763
2029.225	7824
2031.299	7602
2033.375	7865
2035.447	7716
2037.52	7810
2039.592	7808
2041.664	7777
2043.736	7767
2045.807	7843
2047.876	7706
2049.947	7795
2052.015	7863
2054.086	7763
2056.153	7692
2058.221	7834
2060.288	7762
2062.353	7786
2064.42	7826
2066.486	7827
2068.55	7711
2070.614	7820
2072.678	7831
2074.741	7684
2076.805	7701
2078.866	7920
2080.929	7711
2082.99	7745
2085.049	7912
2087.109	7814
2089.17	7826
2091.228	7704
2093.286	7768
2095.344	7911
2097.4	7815
2099.46	7853
2101.516	7768
2103.572	7837
2105.626	7746
2107.679	7781
2109.735	7804
2111.788	7774
2113.841	7887
2115.894	7741
2117.945	7707
2119.997	7707
2122.049	7743
2124.1	7901
2126.148	7741
2128.197	7784
2130.246	7794
2132.296	7720
2134.342	7759
2136.39	7692
2138.437	7844
2140.483	7696
2142.527	7678
2144.574	7669
2146.619	7694
2148.661	7754
2150.705	7809
2152.747	7845
2154.792	7660
2156.832	7766
2158.874	7647
2160.915	7684
2162.954	7781
2164.995	7685
2167.034	7702
2169.072	7615
2171.111	7647
2173.148	7763
2175.186	7658
2177.223	7569
2179.258	7564
2181.294	7711
2183.328	7495
2185.362	7638
2187.398	7556
2189.431	7732
2191.463	7611
2193.495	7682
2195.528	7698
2197.56	7564
2199.59	7598
2201.62	7556
2203.649	7646
2205.678	7613
2207.708	7585
2209.737	7475
2211.764	7588
2213.791	7541
2215.817	7658
2217.843	7454
2219.87	7595
2221.895	7554
2223.919	7490
2225.942	7453
2227.966	7543
2229.988	7537
2232.012	7497
2234.032	7590
2236.054	7572
2238.074	7480
2240.095	7500
2242.116	7515
2244.135	7499
2246.153	7560
2248.171	7434
2250.188	7418
2252.208	7541
2254.223	7503
2256.239	7558
2258.255	7500
2260.269	7464
2262.283	7508
2264.3	7527
2266.312	7520
2268.325	7477
2270.336	7492
2272.349	7546
2274.362	7616
2276.372	7639
2278.383	7487
2280.392	7475
2282.402	7423
2284.409	7533
2286.418	7430
2288.427	7565
2290.433	7551
2292.441	7466
2294.446	7287
2296.453	7475
2298.459	7576
2300.463	7483
2302.466	7547
2304.471	7481
2306.475	7531
2308.477	7506
2310.478	7489
2312.481	7485
2314.481	7379
2316.481	7504
2318.482	7264
2320.482	7500
2322.48	7557
2324.48	7449
2326.478	7439
2328.476	7501
2330.473	7344
2332.469	7290
2334.465	7330
2336.46	7297
2338.454	7416
2340.45	7282
2342.444	7439
2344.437	7478
2346.43	7331
2348.421	7364
2350.414	7376
2352.405	7308
2354.396	7444
2356.386	7280
2358.376	7404
2360.366	7398
2362.355	7349
2364.343	7349
2366.331	7342
2368.317	7366
2370.304	7207
2372.292	7379
2374.278	7313
2376.262	7305
2378.247	7278
2380.23	7248
2382.216	7328
2384.199	7285
2386.181	7402
2388.163	7143
2390.144	7350
2392.127	7294
2394.107	7320
2396.087	7246
2398.066	7175
2400.046	7224
2402.023	7234
2404.004	7244
2405.981	7158
2407.957	7319
2409.934	7190
2411.91	7248
2413.886	7243
2415.862	7347
2417.836	7189
2419.809	7246
2421.784	7270
2423.756	7171
2425.73	7064
2427.701	7131
2429.672	7223
2431.644	7121
2433.615	7229
2435.586	7210
2437.555	7281
2439.523	7194
2441.491	7263
2443.459	7149
2445.428	7229
2447.395	7135
2449.361	7191
2451.327	7097
2453.292	7174
2455.257	7146
2457.223	7191
2459.187	7139
2461.15	7106
2463.113	7102
2465.076	7245
2467.039	7112
2468.999	7215
2470.96	7075
2472.921	7038
2474.881	7147
2476.841	7140
2478.8	7123
2480.759	7213
2482.717	7108
2484.675	7213
2486.63	7032
2488.589	7104
2490.545	7076
2492.5	7005
2494.455	7031
2496.408	7053
2498.364	7042
2500.318	7013
2502.27	7029
2504.223	7054
2506.174	7096
2508.126	7137
2510.078	7063
2512.03	7137
2513.979	7024
2515.927	6968
2517.877	7098
2519.826	6950
2521.775	7109
2523.722	7031
2525.668	6949
2527.616	7037
2529.561	6980
2531.508	7001
2533.452	7012
2535.398	6927
2537.342	7159
2539.284	6990
2541.229	7203
2543.173	7119
2545.114	6894
2547.055	6975
2548.996	7034
2550.938	7020
2552.878	7031
2554.817	7040
2556.756	7025
2558.695	7080
2560.633	7010
2562.572	7036
2564.509	6882
2566.445	6981
2568.382	6966
2570.317	7073
2572.254	7028
2574.189	7061
2576.123	7016
2578.057	6932
2579.99	7029
2581.923	6984
2583.855	7044
2585.788	6907
2587.719	7038
2589.65	7094
2591.579	6922
2593.511	6985
2595.44	6874
2597.37	6970
2599.297	7075
2601.225	6861
2603.153	6940
2605.08	7026
2607.007	7039
2608.932	7047
2610.858	7028
2612.782	6898
2614.709	7040
2616.632	7021
2618.556	6992
2620.478	7004
2622.401	7022
2624.324	6956
2626.247	7027
2628.167	7017
2630.088	6906
2632.008	7069
2633.928	7061
2635.848	7042
2637.766	7013
2639.684	7073
2641.603	7105
2643.519	6945
2645.437	7109
2647.353	7015
2649.27	6867
2651.184	7134
2653.099	6966
2655.014	6990
2656.928	7054
2658.842	7048
2660.755	6935
2662.667	6906
2664.579	6914
2666.491	6936
2668.402	7033
2670.312	7041
2672.222	6986
2674.132	6932
2676.042	6846
2677.951	6957
2679.859	6972
2681.766	6815
2683.674	6907
2685.582	6871
2687.488	6932
2689.392	6919
2691.298	6947
2693.202	6948
2695.107	6938
2697.012	6987
2698.914	6928
2700.817	6932
2702.72	6876
2704.622	6824
2706.524	6835
2708.425	6912
2710.326	6803
2712.225	6927
2714.125	6875
2716.024	6769
2717.923	6901
2719.822	6863
2721.719	6788
2723.616	6695
2725.512	6827
2727.41	6835
2729.305	6831
2731.201	6765
2733.095	6904
2734.99	6909
2736.884	6895
2738.778	6809
2740.67	6875
2742.562	6812
2744.455	6771
2746.346	6832
2748.238	6884
2750.129	6847
2752.018	6854
2753.907	6818
2755.797	6704
2757.687	6783
2759.575	6629
2761.462	6752
2763.349	6792
2765.237	6769
2767.124	6803
2769.009	6766
2770.894	6845
2772.779	6782
2774.663	6804
2776.547	6796
2778.431	6841
2780.314	6783
2782.197	6859
2784.078	6861
2785.96	6839
2787.842	6815
2789.723	6745
2791.603	6780
2793.483	6791
2795.362	6747
2797.241	6728
2799.121	6737
2800.997	6739
2802.874	6715
2804.751	6736
2806.628	6602
2808.506	6739
2810.38	6729
2812.255	6775
2814.13	6656
2816.003	6752
2817.878	6721
2819.752	6764
2821.623	6781
2823.496	6687
2825.368	6923
2827.238	6652
2829.111	6701
2830.98	6691
2832.851	6789
2834.719	6750
2836.589	6802
2838.458	6887
2840.327	6775
2842.193	6796
2844.061	6713
2845.927	6841
2847.794	6739
2849.66	6876
2851.525	6823
2853.39	6772
2855.254	6754
2857.117	6981
2858.983	6929
2860.845	7004
2862.707	6929
2864.569	6844
2866.431	6981
2868.293	7031
2870.154	7010
2872.013	7166
2873.873	7086
2875.733	7242
2877.592	7307
2879.451	7346
2881.309	7374
2883.166	7363
2885.022	7490
2886.879	7515
2888.736	7591
2890.591	7520
2892.446	7713
2894.301	7748
2896.155	7648
2898.009	7705
2899.863	7593
2901.716	7575
2903.568	7433
2905.419	7632
2907.27	7557
2909.123	7549
2910.973	7525
2912.824	7679
2914.673	7746
2916.521	7584
2918.372	7865
2920.22	7904
2922.067	7789
2923.914	8064
2925.761	8043
2927.607	8028
2929.455	7960
2931.301	8012
2933.144	8115
2934.99	8041
2936.833	8296
2938.678	8321
2940.522	8457
2942.364	8547
2944.207	8590
2946.048	8724
2947.891	8797
2949.731	8822
2951.571	8939
2953.412	8831
2955.25	8712
2957.09	8630
2958.93	8598
2960.767	8642
2962.606	8524
2964.443	8470
2966.279	8383
2968.116	8036
2969.953	8097
2971.788	7867
2973.623	7881
2975.457	7726
2977.292	7743
2979.127	7680
2980.959	7612
2982.792	7463
2984.624	7525
2986.455	7517
2988.288	7409
2990.119	7331
2991.949	7299
2993.779	7315
2995.608	7183
2997.439	7165
2999.268	7134
3001.096	7091
3002.923	7010
3004.751	6949
3006.578	6909
3008.406	6893
3010.232	6815
3012.057	6766
3013.883	6696
3015.706	6607
3017.532	6583
3019.356	6685
3021.179	6601
3023.002	6434
3024.823	6595
3026.646	6515
3028.469	6406
3030.289	6496
3032.11	6432
3033.93	6469
3035.749	6479
3037.57	6324
3039.39	6428
3041.207	6448
3043.026	6419
3044.842	6508
3046.661	6432
3048.477	6427
3050.294	6430
3052.109	6362
3053.925	6358
3055.739	6392
3057.555	6313
3059.368	6360
3061.181	8091
3062.995	9077
3064.807	6342
3066.62	6477
3068.433	6398
3070.243	6307
3072.054	6387
3073.865	6281
3075.675	6246
3077.485	6335
3079.293	6348
3081.102	6313
3082.911	6293
3084.719	6213
3086.527	6192
3088.333	6295
3090.139	6262
3091.945	6204
3093.75	6258
3095.557	6213
3097.361	6145
3099.165	6112
3100.969	6063
3102.772	6248
3104.575	6020
3106.379	6212
3108.181	6111
3109.982	6094
3111.783	6090
3113.584	6253
3115.386	5945
3117.186	6130
3118.985	6048
3120.783	6236
3122.582	6021
3124.381	5961
3126.179	6046
3127.975	6066
3129.772	6035
3131.569	6012
3133.365	6051
3135.161	6021
3136.956	6042
3138.751	5991
3140.544	6026
3142.338	5942
3144.132	6085
3145.925	6029
3147.717	5927
3149.509	6007
3151.301	6037
3153.091	5927
3154.884	6021
3156.673	5939
3158.462	5969
3160.252	5946
3162.041	5941
3163.831	5957
3165.618	5954
3167.405	5909
3169.193	5923
3170.979	5922
3172.767	5962
3174.553	5916
3176.338	5857
3178.123	5974
3179.907	5962
3181.692	5796
3183.477	5900
3185.259	5866
3187.042	5995
3188.824	5920
3190.607	5836
3192.389	5952
3194.17	5853
3195.951	5871
3197.73	5908
3199.51	5980
3201.289	5819
3203.07	5853
3204.848	5879
3206.626	5930
3208.403	5886
3210.18	5951
3211.959	5950
3213.735	5862
3215.511	5931
3217.285	5778
3219.06	5966
3220.836	5804
3222.611	5937
3224.384	5852
3226.158	5806
3227.929	5693
3229.702	5796
3231.476	5865
3233.248	5885
3235.018	5907
3236.789	5783
3238.56	5841
3240.33	5795
3242.1	5831
3243.869	5867
3245.637	5794
3247.405	5799
3249.172	5930
3250.941	5958
3252.707	5815
3254.474	5805
3256.24	5867
3258.006	5767
3259.772	5866
3261.537	5737
3263.301	5863
3265.065	5800
3266.828	5873
3268.592	5787
3270.355	5907
3272.117	5755
3273.878	5901
3275.64	5955
3277.401	5803
3279.162	5820
3280.922	5960
3282.682	5873
3284.441	5892
3286.199	5746
3287.959	5858
3289.716	5804
3291.475	5840
3293.232	5856
3294.988	5808
3296.744	5777
3298.501	5846
3300.256	5827
3302.011	5917
3303.766	5862
3305.52	5863
3307.275	5784
3309.028	5747
3310.781	5822
3312.533	5762
3314.285	5893
3316.038	5748
3317.789	5720
3319.54	5857
3321.289	5786
3323.039	5753
3324.789	5821
3326.539	5864
3328.288	5864
3330.035	5795
3331.783	5596
3333.531	5740
3335.28	5800
3337.025	5736
3338.771	5799
3340.518	5732
3342.262	5652
3344.009	5815
3345.753	5757
3347.497	5661
3349.24	5787
3350.983	5663
3352.726	5769
3354.469	5676
3356.212	5727
3357.952	5706
3359.694	5603
3361.434	5747
3363.176	5584
3364.916	5779
3366.654	5607
3368.394	5725
3370.132	5571
3371.871	5577
3373.61	5612
3375.346	5614
3377.083	5716
3378.82	5675
3380.556	5611
3382.292	5594
3384.027	5655
3385.763	5632
3387.497	5565
3389.231	5648
3390.965	5532
3392.698	5566
3394.431	5554
3396.164	5630
3397.896	5566
3399.627	5480
3401.36	5448
3403.09	5473
3404.82	5595
3406.55	5491
3408.279	5440
3410.01	5515
3411.738	5591
3413.467	5503
3415.194	5339
3416.92	5489
3418.647	5568
3420.375	5459
3422.102	5437
3423.827	5550
3425.553	5508
3427.277	5365
3429.003	5496
3430.727	5458
3432.451	5439
3434.173	5397
3435.896	5504
3437.62	5509
3439.343	5489
3441.063	5439
3442.785	5474
3444.505	5275
3446.226	5401
3447.948	5396
3449.666	5273
3451.386	5375
3453.104	5300
3454.823	5291
3456.541	5335
3458.259	5310
3459.976	5264
3461.693	5335
3463.408	5393
3465.125	5301
3466.841	5227
3468.556	5257
3470.271	5207
3471.985	5352
3473.698	5203
3475.414	5189
3477.126	5313
3478.838	5158
3480.55	5166
3482.263	5212
3483.975	5203
3485.686	5202
3487.396	5168
3489.106	5164
3490.817	5227
3492.526	5209
3494.236	5157
3495.944	5132
3497.652	5126
3499.359	5195
3501.066	5227
3502.775	5119
3504.481	5163
3506.187	5011
3507.893	5036
3509.598	5024
3511.304	5185
3513.009	5035
3514.713	5040
3516.417	5047
3518.12	5057
3519.821	5131
3521.525	5015
3523.228	5064
3524.929	5015
3526.631	5041
3528.33	4923
3530.032	4997
3531.733	5017
3533.433	5031
3535.131	4937
3536.83	4948
3538.529	4909
3540.227	4968
3541.925	4974
3543.623	4951
3545.319	4952
3547.016	4977
3548.712	4979
3550.408	4946
3552.103	4871
3553.798	4896
3555.491	5043
3557.188	4907
3558.88	5016
3560.574	4874
3562.266	4880
3563.959	4892
3565.651	4815
3567.343	4957
3569.035	4859
3570.725	4897
3572.415	4734
3574.106	4875
3575.797	4809
3577.485	4918
3579.174	4797
3580.863	4934
3582.551	4815
3584.238	4826
3585.926	4801
3587.613	4759
3589.3	4825
3590.986	4762
3592.671	4658
3594.357	4803
3596.042	4852
3597.726	4704
3599.41	4788
3601.094	4754
3602.778	4649
3604.461	4724
3606.143	4697
3607.825	4753
3609.507	4687
3611.188	4637
3612.87	4549
3614.551	4604
3616.229	4621
3617.909	4666
3619.589	4605
3621.269	4651
3622.948	4587
3624.625	4601
3626.302	4658
3627.98	4552
3629.657	4550
3631.334	4601
3633.01	4593
3634.686	4548
3636.361	4484
3638.036	4525
3639.712	4626
3641.385	4521
3643.06	4567
3644.732	4463
3646.405	4538
3648.08	4489
3649.751	4551
3651.424	4491
3653.094	4537
3654.766	4446
3656.436	4555
3658.106	4360
3659.777	4459
3661.446	4581
3663.115	4492
3664.783	4514
3666.452	4453
3668.121	4432
3669.788	4405
3671.454	4351
3673.121	4484
3674.789	4330
3676.455	4394
3678.12	4498
3679.784	4464
3681.45	4441
3683.114	4407
3684.779	4421
3686.442	4372
3688.105	4425
3689.768	4404
3691.43	4479
3693.093	4385
3694.754	4364
3696.415	4411
3698.076	4316
3699.736	4295
3701.396	4439
3703.057	4368
3704.716	4405
3706.375	4315
3708.034	4241
3709.692	4210
3711.351	4418
3713.008	4299
3714.665	4351
3716.321	4341
3717.977	4349
3719.634	4298
3721.29	4263
3722.945	4239
3724.598	4255
3726.253	4355
3727.907	4264
3729.561	4331
3731.214	4325
3732.867	4320
3734.518	4224
3736.171	4128
3737.824	4233
3739.474	4279
3741.125	4249
3742.775	4376
3744.425	4215
3746.074	4243
3747.725	4236
3749.373	4263
3751.022	4190
3752.669	4239
3754.318	4238
3755.966	4300
3757.612	4185
3759.259	4216
3760.905	4214
3762.55	4218
3764.197	4198
3765.842	4162
3767.486	4243
3769.131	4108
3770.774	4222
3772.417	4188
3774.061	4201
3775.705	4178
3777.347	4220
3778.988	4171
3780.629	4230
3782.271	4217
3783.912	4157
3785.552	4120
3787.192	4047
3788.831	4180
3790.472	4182
3792.112	4103
3793.75	4061
3795.388	4115
3797.024	4127
3798.661	4109
3800.3	4048
3801.936	4098
3803.572	4061
3805.208	4076
3806.844	4058
3808.48	4115
3810.115	4017
3811.748	4086
3813.382	4155
3815.016	4025
3816.649	4033
3818.283	4057
3819.914	4091
3821.547	4150
3823.178	4038
3824.809	4008
3826.441	4144
3828.072	4024
3829.701	4074
3831.331	3936
3832.96	3964
3834.591	3993
3836.219	4032
3837.847	3982
3839.475	4068
3841.102	3969
3842.729	4053
3844.357	4067
3845.984	3984
3847.609	3988
3849.234	4066
3850.86	3966
3852.485	4000
3854.11	3952
3855.734	3889
3857.357	3901
3858.981	4017
3860.603	3968
3862.227	3925
3863.848	3866
3865.471	3907
3867.092	3962
3868.713	3974
3870.334	3877
3871.954	3930
3873.575	3909
3875.194	3882
3876.813	3917
3878.433	3948
3880.051	3940
3881.669	3903
3883.286	3889
3884.904	3889
3886.52	3932
3888.138	3878
3889.754	3846
3891.37	3957
3892.985	3865
3894.6	3944
3896.216	3911
3897.831	3911
3899.444	3828
3901.058	3917
3902.67	3851
3904.283	3838
3905.897	3878
3907.509	3837
3909.121	3841
3910.731	3879
3912.342	3845
3913.954	3798
3915.563	3922
3917.174	3810
3918.783	3823
3920.391	3852
3922.002	3906
3923.611	3812
3925.218	3842
3926.826	3819
3928.432	3829
3930.039	3835
3931.647	3790
3933.253	3818
3934.859	3739
3936.464	3828
3938.068	3800
3939.675	3930
3941.278	3794
3942.883	3846
3944.486	3766
3946.089	3671
3947.692	3707
3949.295	3728
3950.898	3747
3952.499	3780
3954.1	3779
3955.7	3749
3957.303	3748
3958.903	3666
3960.502	3788
3962.101	3722
3963.7	3724
3965.301	3722
3966.899	3791
3968.497	3778
3970.094	3744
3971.691	3694
3973.288	3729
3974.885	3734
3976.481	3673
3978.077	3651
3979.672	3618
3981.267	3726
3982.863	3694
3984.457	3662
3986.051	3682
3987.645	3692
3989.238	3682
3990.831	3756
3992.425	3607
3994.017	3653
3995.607	3622
3997.199	3659
3998.79	3567
4000.382	3549
4001.973	3627
4003.561	3620
4005.151	3623
4006.741	3573
4008.331	3601
4009.918	3594
4011.507	3605
4013.095	3590
4014.681	3652
4016.269	3656
4017.856	3466
4019.443	3499
4021.028	3588
4022.614	3655
4024.199	3463
4025.785	3610
4027.37	3536
4028.953	3544
4030.536	3482
4032.12	3569
4033.704	3566
4035.287	3525
4036.869	3429
4038.45	3504
4040.032	3479
4041.613	3492
4043.195	3410
4044.776	3508
4046.356	3486
4047.935	3529
4049.515	3472
4051.095	3545
4052.674	3517
4054.251	3480
4055.829	3515
4057.406	3448
4058.985	3477
4060.562	3465
4062.139	3426
4063.715	3469
4065.29	3488
4066.865	3435
4068.442	3457
4070.016	3371
4071.59	3433
4073.164	3436
4074.738	3458
4076.312	3418
4077.885	3442
4079.458	3429
4081.03	3453
4082.602	3428
4084.173	3445
4085.745	3434
4087.315	3395
4088.886	3547
4090.456	3323
4092.026	3442
4093.596	3424
4095.165	3406
4096.734	3367
4098.301	3366
4099.869	3414
4101.437	3342
4103.006	3366
4104.572	3397
4106.139	3371
4107.704	3282
4109.27	3349
4110.837	3394
4112.401	3395
4113.966	3375
4115.53	3359
4117.094	3394
4118.659	3332
4120.223	3366
4121.785	3292
4123.347	3378
4124.909	3328
4126.471	3348
4128.034	3269
4129.595	3360
4131.155	3236
4132.716	3299
4134.275	3285
4135.836	3312
4137.395	3221
4138.955	3318
4140.513	3264
4142.071	3278
4143.628	3256
4145.188	3318
4146.745	3286
4148.302	3246
4149.858	3222
4151.414	3286
4152.971	3212
4154.526	3238
4156.081	3252
4157.635	3247
4159.189	3214
4160.745	3178
4162.298	3219
4163.852	3316
4165.405	3356
4166.957	3166
4168.51	3162
4170.063	3262
4171.614	3140
4173.166	3176
4174.717	3234
4176.267	3173
4177.817	3254
4179.368	3170
4180.917	3173
4182.466	3232
4184.016	3129
4185.564	3154
4187.112	3160
4188.66	3162
4190.207	3187
4191.754	3125
4193.301	3148
4194.848	3167
4196.394	3150
4197.94	3104
4199.484	3127
4201.03	3162
4202.575	3101
4204.12	3083
4205.663	3163
4207.207	3117
4208.75	3107
4210.292	3114
4211.836	3083
4213.378	3057
4214.92	3039
4216.46	3041
4218.002	3088
4219.544	3100
4221.083	3074
4222.625	3087
4224.164	3070
4225.703	3024
4227.244	3025
4228.782	3053
4230.32	3059
4231.857	3116
4233.395	3023
4234.933	3072
4236.471	3107
4238.007	3018
4239.542	3067
4241.078	3041
4242.614	3061
4244.15	3021
4245.685	3059
4247.219	3075
4248.753	3037
4250.287	3128
4251.82	3118
4253.354	3027
4254.887	3097
4256.419	3013
4257.951	3089
4259.483	3037
4261.016	2978
4262.547	3051
4264.078	2958
4265.608	3023
4267.137	3015
4268.668	2962
4270.197	3031
4271.727	2956
4273.254	3049
4274.783	3008
4276.311	2957
4277.84	2979
4279.366	2981
4280.894	3083
4282.42	2909
4283.946	2984
4285.473	2997
4286.998	2977
4288.523	2968
4290.047	2934
4291.572	2980
4293.096	2952
4294.622	2964
4296.144	2905
4297.668	2932
4299.19	2959
4300.713	2899
4302.236	2940
4303.758	2919
4305.279	2895
4306.799	2906
4308.321	2897
4309.842	2880
4311.361	2950
4312.882	2888
4314.401	2920
