400.0961	6191
402.6185	6198
405.1424	6213
407.6635	6219
410.1838	6365
412.7035	6287
415.2225	6305
417.7388	6197
420.2585	6378
422.7754	6452
425.2917	6441
427.8072	6438
430.3221	6604
432.8363	6567
435.3498	6557
437.8626	6536
440.3727	6522
442.8841	6551
445.3969	6603
447.907	6669
450.4142	6672
452.9229	6592
455.4289	6591
457.9362	6686
460.4449	6547
462.9488	6554
465.454	6653
467.9566	6695
470.4604	6689
472.9637	6682
475.4662	6726
477.966	6647
480.4671	6763
482.9656	6757
485.4633	6739
487.9645	6726
490.4608	6752
492.9566	6854
495.4536	6775
497.948	6900
500.4437	6838
502.9387	6706
505.431	6966
507.9226	6798
510.4136	6842
512.9079	6987
515.3975	6885
517.8864	6870
520.3746	6961
522.8622	6991
525.3491	6953
527.8394	6949
530.3249	6994
532.8098	6963
535.2939	6961
537.7774	7006
540.2623	6907
542.7444	6929
545.2259	6886
547.7067	7020
550.1868	7024
552.6683	6967
555.147	7046
557.6231	7047
560.1005	7035
562.5773	7070
565.0534	7172
567.5308	7071
570.0056	7113
572.4776	7139
574.951	7260
577.4237	7207
579.8978	7293
582.3671	7172
584.8378	7271
587.3079	7378
589.7773	7266
592.244	7260
594.714	7335
597.1793	7336
599.6461	7246
602.1121	7163
604.5754	7210
607.0421	7150
609.5042	7346
611.9675	7135
614.4282	7208
616.8902	7115
619.3515	7258
621.8122	7242
624.2702	7181
626.7296	7313
629.1863	7136
631.6423	7117
634.1017	7294
636.5563	7119
639.0104	7167
641.4658	7258
643.9185	7299
646.3725	7303
648.8239	7309
651.2766	7152
653.7266	7376
656.176	7348
658.6247	7356
661.0748	7409
663.5242	7504
665.9709	7312
668.417	7345
670.8624	7384
673.3092	7366
675.7533	7428
678.1968	7465
680.6395	7352
683.0817	7435
685.5251	7495
687.9659	7482
690.4061	7447
692.8456	7609
695.2844	7576
697.7226	7590
700.1621	7479
702.599	7576
705.0332	7596
707.4688	7484
709.9036	7606
712.3399	7635
714.7735	7654
717.2044	7582
719.6367	7674
722.0683	7617
724.4993	7642
726.9296	7773
729.3593	7765
731.7883	7809
734.2147	7677
736.6423	7828
739.0714	7888
741.4958	7869
743.9216	7881
746.3447	7905
748.7691	7929
751.1929	7729
753.616	7974
756.0366	7956
758.4584	8096
760.8776	7883
763.2982	8143
765.718	8025
768.1373	8082
770.5539	7954
772.9698	8135
775.3871	8126
777.8038	7981
780.2178	8008
782.6332	8138
785.0459	8154
787.458	8008
789.8714	8159
792.2842	7994
794.6943	8161
797.1038	8189
799.5127	8104
801.9209	8092
804.3324	8022
806.7393	8217
809.1456	8112
811.5513	8114
813.9562	8213
816.3625	8119
818.7663	8219
821.1693	8213
823.5718	8211
825.9735	8303
828.3746	8240
830.7771	8263
833.177	8303
835.5762	8284
837.9747	8082
840.3727	8261
842.772	8264
845.1666	8297
847.5626	8307
849.958	8328
852.3527	8396
854.7488	8497
857.1403	8433
859.5331	8286
861.9253	8273
864.3168	8303
866.7057	8213
869.098	8342
871.4876	8227
873.8746	8290
876.263	8365
878.6487	8284
881.0378	8331
883.4243	8329
885.8081	8307
888.1933	8270
890.5759	8389
892.9598	8319
895.343	8317
897.7256	8402
900.1057	8252
902.4871	8392
904.8659	8386
907.246	8493
909.6254	8401
912.0023	8600
914.3786	8693
916.7562	8608
919.1331	8587
921.5074	8772
923.8831	8860
926.2562	8706
928.6287	8895
931.0005	8653
933.3757	8770
935.7462	8797
938.1162	8814
940.4855	8841
942.8542	8940
945.2242	9044
947.5916	8877
949.9584	9193
952.3266	9309
954.6921	9645
957.0571	9815
959.4233	10004
961.787	10103
964.15	10177
966.5125	10065
968.8742	9681
971.2354	9394
973.5959	9063
975.9559	8955
978.3151	8880
980.6738	8934
983.0338	8770
985.3912	8701
987.7461	8610
990.1022	8665
992.4578	8549
994.8127	8697
997.1689	8655
999.5207	8676
1001.874	8793
1004.226	8734
1006.576	8747
1008.929	8620
1011.28	8729
1013.628	8716
1015.977	8703
1018.324	8612
1020.674	8713
1023.019	8624
1025.366	8754
1027.713	8762
1030.056	8792
1032.399	8824
1034.746	8710
1037.087	8874
1039.431	8636
1041.771	8880
1044.113	8755
1046.454	8754
1048.793	8693
1051.133	8826
1053.471	8867
1055.807	8870
1058.146	8834
1060.483	8816
1062.818	8893
1065.153	8942
1067.489	8815
1069.822	9025
1072.156	9031
1074.488	8879
1076.82	9003
1079.15	8927
1081.48	8936
1083.814	8924
1086.143	8803
1088.471	8870
1090.799	8826
1093.126	8930
1095.452	8826
1097.78	8824
1100.105	8943
1102.43	8956
1104.754	8822
1107.077	8936
1109.4	8819
1111.722	8919
1114.044	8946
1116.365	8890
1118.685	8785
1121.005	9029
1123.324	8774
1125.643	8908
1127.961	9021
1130.278	8999
1132.595	8914
1134.911	8893
1137.226	8837
1139.541	9014
1141.854	8906
1144.167	8828
1146.482	8914
1148.793	8977
1151.105	8869
1153.414	8993
1155.725	8928
1158.033	8997
1160.344	8785
1162.651	9095
1164.959	8947
1167.265	8937
1169.572	8908
1171.878	8987
1174.184	9032
1176.488	9005
1178.79	9030
1181.094	9020
1183.396	8987
1185.699	8953
1188.001	8995
1190.301	8965
1192.6	8967
1194.9	9127
1197.2	8799
1199.497	8908
1201.794	9019
1204.09	8996
1206.387	9005
1208.684	9010
1210.978	8906
1213.272	8944
1215.565	8906
1217.858	9063
1220.15	9194
1222.443	8986
1224.734	9092
1227.024	9115
1229.313	9060
1231.602	9094
1233.892	9171
1236.18	9298
1238.467	9194
1240.754	9281
1243.04	9229
1245.325	9393
1247.612	9379
1249.896	9090
1252.178	9267
1254.461	9226
1256.743	9400
1259.027	9319
1261.308	9267
1263.587	9343
1265.867	9210
1268.146	9346
1270.425	9305
1272.703	9294
1274.981	9359
1277.256	9259
1279.532	9243
1281.808	9309
1284.083	9218
1286.358	9201
1288.63	9188
1290.904	9212
1293.175	9224
1295.449	9342
1297.719	9143
1299.99	9128
1302.259	9124
1304.529	9122
1306.798	9157
1309.065	9152
1311.333	9155
1313.599	9141
1315.866	9239
1318.131	9125
1320.396	8980
1322.66	9106
1324.925	9238
1327.187	9173
1329.448	9205
1331.711	9120
1333.974	9252
1336.234	9300
1338.493	9162
1340.752	9185
1343.01	9119
1345.269	9249
1347.526	9186
1349.784	9185
1352.04	9166
1354.295	9352
1356.552	9135
1358.806	9185
1361.059	9100
1363.312	9249
1365.564	9130
1367.818	9110
1370.069	9178
1372.318	9176
1374.568	9321
1376.817	9225
1379.066	9166
1381.316	9308
1383.564	9351
1385.809	9189
1388.056	9269
1390.301	9314
1392.549	9424
1394.793	9383
1397.036	9502
1399.279	9377
1401.522	9308
1403.763	9501
1406.007	9357
1408.248	9368
1410.487	9525
1412.727	9515
1414.965	9475
1417.205	9363
1419.442	9490
1421.68	9478
1423.915	9489
1426.152	9649
1428.388	9574
1430.623	9346
1432.857	9553
1435.091	9530
1437.323	9424
1439.556	9545
1441.789	9687
1444.019	9533
1446.25	9602
1448.48	9403
1450.708	9716
1452.938	9570
1455.167	9582
1457.394	9776
1459.62	9491
1461.846	9616
1464.073	9688
1466.299	9582
1468.523	9489
1470.746	9554
1472.969	9652
1475.191	9425
1477.415	9374
1479.636	9339
1481.858	9345
1484.078	9455
1486.298	9235
1488.518	9266
1490.736	9232
1492.954	9272
1495.169	9273
1497.386	9251
1499.602	9307
1501.819	9101
1504.034	9188
1506.248	9243
1508.462	9112
1510.675	9224
1512.888	9200
1515.1	9105
1517.311	9195
1519.522	9137
1521.732	9210
1523.942	9321
1526.151	9001
1528.36	9140
1530.566	9151
1532.773	9112
1534.98	9261
1537.187	9205
1539.392	9173
1541.596	9381
1543.801	9225
1546.005	9344
1548.208	9308
1550.411	9391
1552.612	9297
1554.814	9304
1557.013	9271
1559.212	9307
1561.414	9373
1563.612	9327
1565.811	9408
1568.007	9328
1570.203	9422
1572.403	9480
1574.598	9410
1576.792	9390
1578.988	9529
1581.181	9505
1583.376	9483
1585.568	9508
1587.761	9584
1589.952	9488
1592.143	9506
1594.333	9429
1596.524	9439
1598.715	9619
1600.903	9421
1603.091	9571
1605.278	9490
1607.466	9480
1609.652	9435
1611.838	9575
1614.023	9446
1616.207	9517
1618.391	9436
1620.576	9486
1622.759	9602
1624.941	9535
1627.123	9525
1629.304	9584
1631.484	9550
1633.664	9662
1635.844	9633
1638.022	9620
1640.201	9613
1642.38	9692
1644.556	9725
1646.732	9619
1648.908	9528
1651.084	9582
1653.257	9531
1655.433	9613
1657.607	9630
1659.779	9753
1661.951	9660
1664.122	9653
1666.295	9602
1668.467	9813
1670.635	9694
1672.805	9692
1674.973	9767
1677.142	9866
1679.31	9843
1681.478	9663
1683.644	9802
1685.81	9513
1687.975	9629
1690.142	9658
1692.305	9540
1694.468	9673
1696.632	9584
1698.794	9625
1700.957	9536
1703.119	9445
1705.279	9599
1707.439	9518
1709.598	9488
1711.758	9493
1713.917	9382
1716.075	9551
1718.231	9418
1720.388	9516
1722.543	9560
1724.702	9509
1726.856	9550
1729.01	9478
1731.164	9437
1733.317	9502
1735.471	9581
1737.623	9306
1739.774	9474
1741.925	9449
1744.075	9532
1746.225	9505
1748.376	9543
1750.524	9593
1752.672	9477
1754.82	9572
1756.965	9596
1759.113	9519
1761.259	9621
1763.405	9512
1765.549	9500
1767.694	9564
1769.836	9567
1771.981	9510
1774.123	9572
1776.264	9413
1778.405	9568
1780.546	9623
1782.687	9627
1784.827	9566
1786.966	9603
1789.103	9676
1791.242	9638
1793.381	9558
1795.517	9548
1797.653	9671
1799.788	9560
1801.923	9600
1804.057	9510
1806.193	9629
1808.326	9535
1810.457	9571
1812.59	9512
1814.721	9767
1816.855	9633
1818.984	9625
1821.113	9718
1823.244	9572
1825.372	9582
1827.499	9471
1829.63	9528
1831.756	9582
1833.882	9593
1836.007	9639
1838.132	9568
1840.26	9577
1842.384	9576
1844.507	9497
1846.63	9420
1848.752	9440
1850.875	9492
1852.996	9512
1855.118	9475
1857.238	9557
1859.358	9560
1861.477	9434
1863.597	9596
1865.715	9540
1867.832	9357
1869.948	9425
1872.064	9427
1874.181	9583
1876.297	9426
1878.411	9371
1880.526	9443
1882.639	9415
1884.752	9505
1886.865	9507
1888.977	9466
1891.089	9401
1893.2	9549
1895.308	9530
1897.42	9530
1899.53	9514
1901.639	9511
1903.745	9586
1905.853	9483
1907.962	9708
1910.067	9598
1912.174	9399
1914.278	9512
1916.383	9591
1918.486	9751
1920.592	9605
1922.694	9683
1924.797	9708
1926.898	9681
1929	9631
1931.102	9677
1933.203	9566
1935.301	9651
1937.401	9571
1939.499	9732
1941.598	9810
1943.697	9618
1945.793	9688
1947.888	9622
1949.985	9557
1952.08	9445
1954.176	9685
1956.269	9591
1958.364	9509
1960.457	9621
1962.549	9513
1964.642	9588
1966.733	9634
1968.823	9575
1970.913	9531
1973.005	9538
1975.093	9646
1977.184	9663
1979.271	9646
1981.359	9545
1983.446	9741
1985.532	9614
1987.619	9632
1989.705	9567
1991.789	9601
1993.874	9472
1995.956	9531
1998.041	9435
2000.123	9423
2002.206	9512
2004.287	9440
2006.368	9361
2008.449	9348
2010.529	9554
2012.609	9588
2014.688	9557
2016.766	9663
2018.843	9669
2020.922	9387
2022.999	9500
2025.074	9552
2027.15	9451
2029.225	9461
2031.299	9545
2033.375	9505
2035.447	9526
2037.52	9526
2039.592	9406
2041.664	9596
2043.736	9503
2045.807	9517
2047.876	9503
2049.947	9479
2052.015	9527
2054.086	9367
2056.153	9484
2058.221	9425
2060.288	9468
2062.353	9481
2064.42	9484
2066.486	9463
2068.55	9556
2070.614	9515
2072.678	9431
2074.741	9556
2076.805	9500
2078.866	9504
2080.929	9480
2082.99	9525
2085.049	9502
2087.109	9628
2089.17	9604
2091.228	9335
2093.286	9449
2095.344	9539
2097.4	9415
2099.46	9509
2101.516	9402
2103.572	9379
2105.626	9476
2107.679	9460
2109.735	9474
2111.788	9451
2113.841	9608
2115.894	9416
2117.945	9621
2119.997	9473
2122.049	9500
2124.1	9653
2126.148	9610
2128.197	9383
2130.246	9235
2132.296	9334
2134.342	9415
2136.39	9607
2138.437	9498
2140.483	9467
2142.527	9433
2144.574	9453
2146.619	9423
2148.661	9395
2150.705	9309
2152.747	9306
2154.792	9389
2156.832	9386
2158.874	9423
2160.915	9341
2162.954	9548
2164.995	9281
2167.034	9370
2169.072	9300
2171.111	9358
2173.148	9169
2175.186	9369
2177.223	9214
2179.258	9299
2181.294	9397
2183.328	9299
2185.362	9402
2187.398	9179
2189.431	9346
2191.463	9190
2193.495	9214
2195.528	9288
2197.56	9118
2199.59	9300
2201.62	9359
2203.649	9235
2205.678	9353
2207.708	9091
2209.737	9140
2211.764	9257
2213.791	9153
2215.817	9096
2217.843	9077
2219.87	9278
2221.895	9219
2223.919	9090
2225.942	9175
2227.966	9203
2229.988	9085
2232.012	9088
2234.032	9404
2236.054	9134
2238.074	9220
2240.095	9243
2242.116	9153
2244.135	9212
2246.153	9023
2248.171	9148
2250.188	9230
2252.208	9144
2254.223	9181
2256.239	9201
2258.255	9138
2260.269	8996
2262.283	9295
2264.3	9208
2266.312	9002
2268.325	9240
2270.336	9087
2272.349	8943
2274.362	9115
2276.372	9132
2278.383	9136
2280.392	9203
2282.402	9119
2284.409	9184
2286.418	9146
2288.427	9157
2290.433	9173
2292.441	9149
2294.446	9141
2296.453	9091
2298.459	9138
2300.463	9020
2302.466	9084
2304.471	9136
2306.475	9005
2308.477	9036
2310.478	9166
2312.481	8991
2314.481	9181
2316.481	8987
2318.482	9044
2320.482	9090
2322.48	9135
2324.48	9202
2326.478	9076
2328.476	9018
2330.473	9187
2332.469	8919
2334.465	8933
2336.46	9039
2338.454	8903
2340.45	8854
2342.444	8810
2344.437	8821
2346.43	8983
2348.421	8964
2350.414	9081
2352.405	8982
2354.396	9034
2356.386	9035
2358.376	8969
2360.366	8882
2362.355	8840
2364.343	8941
2366.331	8904
2368.317	8905
2370.304	8965
2372.292	8838
2374.278	8877
2376.262	8952
2378.247	8707
2380.23	8838
2382.216	8888
2384.199	8847
2386.181	8923
2388.163	8842
2390.144	8894
2392.127	8860
2394.107	8723
2396.087	8875
2398.066	8834
2400.046	8946
2402.023	8758
2404.004	8794
2405.981	8831
2407.957	8960
2409.934	8700
2411.91	8701
2413.886	8813
2415.862	8567
2417.836	8754
2419.809	8767
2421.784	8756
2423.756	8826
2425.73	8802
2427.701	8816
2429.672	8772
2431.644	8875
2433.615	8700
2435.586	8724
2437.555	8724
2439.523	8713
2441.491	8796
2443.459	8884
2445.428	8805
2447.395	8722
2449.361	8724
2451.327	8758
2453.292	8658
2455.257	8598
2457.223	8835
2459.187	8681
2461.15	8569
2463.113	8682
2465.076	8708
2467.039	8773
2468.999	8749
2470.96	8664
2472.921	8716
2474.881	8575
2476.841	8586
2478.8	8616
2480.759	8640
2482.717	8590
2484.675	8696
2486.63	8588
2488.589	8610
2490.545	8544
2492.5	8660
2494.455	8668
2496.408	8615
2498.364	8478
2500.318	8548
2502.27	8734
2504.223	8545
2506.174	8573
2508.126	8637
2510.078	8583
2512.03	8563
2513.979	8556
2515.927	8623
2517.877	8556
2519.826	8420
2521.775	8542
2523.722	8564
2525.668	8470
2527.616	8490
2529.561	8527
2531.508	8407
2533.452	8563
2535.398	8616
2537.342	8505
2539.284	8537
2541.229	8513
2543.173	8633
2545.114	8417
2547.055	8515
2548.996	8439
2550.938	8550
2552.878	8525
2554.817	8435
2556.756	8453
2558.695	8461
2560.633	8476
2562.572	8517
2564.509	8418
2566.445	8413
2568.382	8487
2570.317	8466
2572.254	8330
2574.189	8521
2576.123	8451
2578.057	8388
2579.99	8451
2581.923	8582
2583.855	8405
2585.788	8516
2587.719	8487
2589.65	8538
2591.579	8443
2593.511	8438
2595.44	8495
2597.37	8468
2599.297	8439
2601.225	8626
2603.153	8582
2605.08	8578
2607.007	8464
2608.932	8610
2610.858	8386
2612.782	8581
2614.709	8431
2616.632	8407
2618.556	8530
2620.478	8390
2622.401	8623
2624.324	8538
2626.247	8604
2628.167	8352
2630.088	8518
2632.008	8425
2633.928	8479
2635.848	8498
2637.766	8621
2639.684	8605
2641.603	8477
2643.519	8453
2645.437	8452
2647.353	8512
2649.27	8458
2651.184	8426
2653.099	8552
2655.014	8378
2656.928	8428
2658.842	8492
2660.755	8507
2662.667	8444
2664.579	8418
2666.491	8448
2668.402	8398
2670.312	8472
2672.222	8414
2674.132	8411
2676.042	8435
2677.951	8430
2679.859	8385
2681.766	8344
2683.674	8352
2685.582	8354
2687.488	8199
2689.392	8461
2691.298	8389
2693.202	8385
2695.107	8344
2697.012	8421
2698.914	8336
2700.817	8316
2702.72	8331
2704.622	8473
2706.524	8311
2708.425	8306
2710.326	8188
2712.225	8363
2714.125	8148
2716.024	8326
2717.923	8274
2719.822	8136
2721.719	8268
2723.616	8259
2725.512	8250
2727.41	8222
2729.305	8215
2731.201	8253
2733.095	8194
2734.99	8279
2736.884	8250
2738.778	8282
2740.67	8254
2742.562	8112
2744.455	8267
2746.346	8221
2748.238	8253
2750.129	8123
2752.018	8243
2753.907	8181
2755.797	8099
2757.687	8189
2759.575	8157
2761.462	8263
2763.349	8173
2765.237	8344
2767.124	8174
2769.009	8119
2770.894	8076
2772.779	8128
2774.663	8284
2776.547	8146
2778.431	8069
2780.314	8051
2782.197	8154
2784.078	8175
2785.96	8152
2787.842	8157
2789.723	8180
2791.603	8159
2793.483	8113
2795.362	8083
2797.241	8182
2799.121	8114
2800.997	8077
2802.874	8144
2804.751	8149
2806.628	7915
2808.506	8184
2810.38	8023
2812.255	8045
2814.13	8063
2816.003	8005
2817.878	8026
2819.752	8081
2821.623	8173
2823.496	8086
2825.368	8129
2827.238	8051
2829.111	7985
2830.98	7971
2832.851	8011
2834.719	7973
2836.589	8066
2838.458	8051
2840.327	8119
2842.193	8049
2844.061	7978
2845.927	8168
2847.794	8112
2849.66	8028
2851.525	8047
2853.39	8212
2855.254	8152
2857.117	8069
2858.983	8125
2860.845	8286
2862.707	8136
2864.569	8267
2866.431	8015
2868.293	8279
2870.154	8183
2872.013	8355
2873.873	8401
2875.733	8415
2877.592	8444
2879.451	8452
2881.309	8521
2883.166	8548
2885.022	8739
2886.879	8638
2888.736	8476
2890.591	8623
2892.446	8626
2894.301	8612
2896.155	8465
2898.009	8510
2899.863	8664
2901.716	8638
2903.568	8482
2905.419	8517
2907.27	8533
2909.123	8511
2910.973	8597
2912.824	8614
2914.673	8587
2916.521	8625
2918.372	8662
2920.22	8888
2922.067	8833
2923.914	8941
2925.761	8729
2927.607	9052
2929.455	8987
2931.301	8808
2933.144	9133
2934.99	9143
2936.833	9171
2938.678	9177
2940.522	9233
2942.364	9287
2944.207	9255
2946.048	9448
2947.891	9527
2949.731	9459
2951.571	9327
2953.412	9499
2955.25	9314
2957.09	9199
2958.93	9082
2960.767	9123
2962.606	9109
2964.443	8983
2966.279	9052
2968.116	8841
2969.953	8964
2971.788	8734
2973.623	8621
2975.457	8732
2977.292	8561
2979.127	8566
2980.959	8610
2982.792	8478
2984.624	8599
2986.455	8359
2988.288	8403
2990.119	8329
2991.949	8448
2993.779	8286
2995.608	8364
2997.439	8227
2999.268	8013
3001.096	8284
3002.923	8063
3004.751	8029
3006.578	8054
3008.406	7943
3010.232	7905
3012.057	7885
3013.883	7913
3015.706	7835
3017.532	7775
3019.356	7780
3021.179	7838
3023.002	7684
3024.823	7705
3026.646	7705
3028.469	7599
3030.289	7693
3032.11	7547
3033.93	7683
3035.749	7532
3037.57	7652
3039.39	7634
3041.207	7465
3043.026	7552
3044.842	7510
3046.661	7468
3048.477	7527
3050.294	7570
3052.109	7421
3053.925	7495
3055.739	7406
3057.555	7470
3059.368	7508
3061.181	7528
3062.995	7473
3064.807	7541
3066.62	7433
3068.433	7509
3070.243	7428
3072.054	7378
3073.865	7448
3075.675	7379
3077.485	7388
3079.293	7382
3081.102	7507
3082.911	7387
3084.719	7423
3086.527	7404
3088.333	7415
3090.139	7418
3091.945	7344
3093.75	7340
3095.557	7331
3097.361	7334
3099.165	7375
3100.969	7214
3102.772	7116
3104.575	7241
3106.379	7308
3108.181	7201
3109.982	7245
3111.783	7296
3113.584	7318
3115.386	7205
3117.186	7265
3118.985	7214
3120.783	7173
3122.582	7160
3124.381	7143
3126.179	7087
3127.975	7123
3129.772	7143
3131.569	7163
3133.365	7161
3135.161	7239
3136.956	7052
3138.751	6984
3140.544	7108
3142.338	7148
3144.132	7188
3145.925	7129
3147.717	7098
3149.509	7112
3151.301	7210
3153.091	7248
3154.884	7011
3156.673	7029
3158.462	7045
3160.252	7157
3162.041	6915
3163.831	7001
3165.618	6941
3167.405	7018
3169.193	7082
3170.979	7020
3172.767	6983
3174.553	7023
3176.338	6925
3178.123	6989
3179.907	6839
3181.692	6953
3183.477	6985
3185.259	6949
3187.042	6919
3188.824	7030
3190.607	6905
3192.389	6922
3194.17	6976
3195.951	6906
3197.73	6877
3199.51	6924
3201.289	6877
3203.07	6854
3204.848	6878
3206.626	6986
3208.403	6954
3210.18	6902
3211.959	6879
3213.735	6855
3215.511	6914
3217.285	6945
3219.06	6938
3220.836	6921
3222.611	6880
3224.384	6858
3226.158	6882
3227.929	7015
3229.702	6828
3231.476	6803
3233.248	6963
3235.018	6763
3236.789	6893
3238.56	6920
3240.33	6905
3242.1	6865
3243.869	6891
3245.637	6799
3247.405	6767
3249.172	6895
3250.941	6863
3252.707	6750
3254.474	6856
3256.24	6801
3258.006	6788
3259.772	6791
3261.537	6786
3263.301	6916
3265.065	6734
3266.828	6802
3268.592	6819
3270.355	6735
3272.117	6683
3273.878	6816
3275.64	6852
3277.401	6824
3279.162	6670
3280.922	6762
3282.682	6807
3284.441	6894
3286.199	6842
3287.959	6844
3289.716	6767
3291.475	6806
3293.232	6783
3294.988	6868
3296.744	6813
3298.501	6661
3300.256	6831
3302.011	6730
3303.766	6653
3305.52	6706
3307.275	6749
3309.028	6804
3310.781	6712
3312.533	6674
3314.285	6803
3316.038	6716
3317.789	6762
3319.54	6656
3321.289	6848
3323.039	6724
3324.789	6739
3326.539	6715
3328.288	6764
3330.035	6767
3331.783	6642
3333.531	6700
3335.28	6747
3337.025	6699
3338.771	6689
3340.518	6695
3342.262	6774
3344.009	6779
3345.753	6753
3347.497	6518
3349.24	6803
3350.983	6625
3352.726	6554
3354.469	6655
3356.212	6643
3357.952	6663
3359.694	6636
3361.434	6641
3363.176	6641
3364.916	6587
3366.654	6630
3368.394	6678
3370.132	6622
3371.871	6493
3373.61	6564
3375.346	6561
3377.083	6657
3378.82	6500
3380.556	6513
3382.292	6612
3384.027	6527
3385.763	6506
3387.497	6496
3389.231	6464
3390.965	6544
3392.698	6581
3394.431	6464
3396.164	6473
3397.896	6452
3399.627	6394
3401.36	6521
3403.09	6358
3404.82	6528
3406.55	6452
3408.279	6428
3410.01	6390
3411.738	6401
3413.467	6358
3415.194	6436
3416.92	6397
3418.647	6476
3420.375	6409
3422.102	6469
3423.827	6411
3425.553	6303
3427.277	6374
3429.003	6414
3430.727	6345
3432.451	6295
3434.173	6254
3435.896	6343
3437.62	6329
3439.343	6310
3441.063	6329
3442.785	6248
3444.505	6186
3446.226	6319
3447.948	6297
3449.666	6361
3451.386	6223
3453.104	6280
3454.823	6246
3456.541	6300
3458.259	6225
3459.976	6296
3461.693	6146
3463.408	6197
3465.125	6199
3466.841	6219
3468.556	6244
3470.271	6155
3471.985	6129
3473.698	6232
3475.414	6186
3477.126	6101
3478.838	6103
3480.55	6115
3482.263	6229
3483.975	6203
3485.686	6060
3487.396	6004
3489.106	5982
3490.817	6023
3492.526	6170
3494.236	6119
3495.944	6016
3497.652	6023
3499.359	5927
3501.066	5989
3502.775	5955
3504.481	6006
3506.187	5949
3507.893	5998
3509.598	5970
3511.304	5955
3513.009	5948
3514.713	5928
3516.417	5927
3518.12	5909
3519.821	5909
3521.525	5798
3523.228	5927
3524.929	5983
3526.631	5841
3528.33	5839
3530.032	5870
3531.733	5870
3533.433	5915
3535.131	5891
3536.83	5867
3538.529	5847
3540.227	5822
3541.925	5803
3543.623	5844
3545.319	5919
3547.016	5821
3548.712	5883
3550.408	5855
3552.103	5847
3553.798	5894
3555.491	5864
3557.188	5762
3558.88	5808
3560.574	5709
3562.266	5787
3563.959	5765
3565.651	5751
3567.343	5751
3569.035	5795
3570.725	5747
3572.415	5742
3574.106	5721
3575.797	5734
3577.485	5610
3579.174	5705
3580.863	5739
3582.551	5666
3584.238	5589
3585.926	5686
3587.613	5630
3589.3	5636
3590.986	5527
3592.671	5751
3594.357	5589
3596.042	5653
3597.726	5626
3599.41	5515
3601.094	5600
3602.778	5647
3604.461	5572
3606.143	5546
3607.825	5608
3609.507	5464
3611.188	5512
3612.87	5545
3614.551	5469
3616.229	5499
3617.909	5338
3619.589	5508
3621.269	5581
3622.948	5492
3624.625	5496
3626.302	5427
3627.98	5433
3629.657	5358
3631.334	5395
3633.01	5505
3634.686	5415
3636.361	5375
3638.036	5459
3639.712	5480
3641.385	5467
3643.06	5384
3644.732	5454
3646.405	5363
3648.08	5357
3649.751	5482
3651.424	5322
3653.094	5262
3654.766	5345
3656.436	5300
3658.106	5183
3659.777	5370
3661.446	5343
3663.115	5296
3664.783	5308
3666.452	5332
3668.121	5250
3669.788	5225
3671.454	5255
3673.121	5341
3674.789	5294
3676.455	5282
3678.12	5266
3679.784	5182
3681.45	5352
3683.114	5253
3684.779	5223
3686.442	5222
3688.105	5211
3689.768	5102
3691.43	5216
3693.093	5244
3694.754	5161
3696.415	5252
3698.076	5182
3699.736	5172
3701.396	5169
3703.057	5143
3704.716	5171
3706.375	5266
3708.034	5112
3709.692	5115
3711.351	5178
3713.008	5088
3714.665	5169
3716.321	5135
3717.977	5124
3719.634	5174
3721.29	5186
3722.945	5146
3724.598	5054
3726.253	5200
3727.907	5124
3729.561	5059
3731.214	5141
3732.867	5051
3734.518	5069
3736.171	5096
3737.824	5123
3739.474	4993
3741.125	5053
3742.775	5161
3744.425	5034
3746.074	5050
3747.725	5101
3749.373	5061
3751.022	5120
3752.669	5008
3754.318	5081
3755.966	5067
3757.612	4985
3759.259	4963
3760.905	4983
3762.55	5011
3764.197	5132
3765.842	5011
3767.486	4943
3769.131	4962
3770.774	5014
3772.417	4917
3774.061	4971
3775.705	4955
3777.347	4944
3778.988	4985
3780.629	4841
3782.271	4975
3783.912	4909
3785.552	4868
3787.192	4924
3788.831	4905
3790.472	4871
3792.112	4903
3793.75	4973
3795.388	4957
3797.024	4849
3798.661	4945
3800.3	4864
3801.936	4866
3803.572	4859
3805.208	4832
3806.844	4913
3808.48	4853
3810.115	4824
3811.748	4858
3813.382	4853
3815.016	4843
3816.649	4733
3818.283	4871
3819.914	4881
3821.547	4759
3823.178	4827
3824.809	4914
3826.441	4888
3828.072	4788
3829.701	4802
3831.331	4791
3832.96	4808
3834.591	4696
3836.219	4734
3837.847	4719
3839.475	4800
3841.102	4774
3842.729	4712
3844.357	4865
3845.984	4652
3847.609	4764
3849.234	4707
3850.86	4720
3852.485	4800
3854.11	4620
3855.734	4657
3857.357	4672
3858.981	4656
3860.603	4659
3862.227	4698
3863.848	4709
3865.471	4671
3867.092	4633
3868.713	4643
3870.334	4654
3871.954	4648
3873.575	4724
3875.194	4661
3876.813	4620
3878.433	4621
3880.051	4626
3881.669	4643
3883.286	4661
3884.904	4594
3886.52	4632
3888.138	4643
3889.754	4635
3891.37	4661
3892.985	4553
3894.6	4631
3896.216	4625
3897.831	4576
3899.444	4548
3901.058	4551
3902.67	4550
3904.283	4675
3905.897	4464
3907.509	4593
3909.121	4548
3910.731	4477
3912.342	4581
3913.954	4588
3915.563	4501
3917.174	4613
3918.783	4586
3920.391	4550
3922.002	4594
3923.611	4535
3925.218	4509
3926.826	4554
3928.432	4481
3930.039	4582
3931.647	4591
3933.253	4536
3934.859	4494
3936.464	4510
3938.068	4538
3939.675	4559
3941.278	4506
3942.883	4538
3944.486	4447
3946.089	4503
3947.692	4487
3949.295	4462
3950.898	4433
3952.499	4454
3954.1	4545
3955.7	4410
3957.303	4485
3958.903	4498
3960.502	4397
3962.101	4492
3963.7	4400
3965.301	4442
3966.899	4408
3968.497	4429
3970.094	4445
3971.691	4456
3973.288	4435
3974.885	4418
3976.481	4340
3978.077	4375
3979.672	4391
3981.267	4429
3982.863	4397
3984.457	4326
3986.051	4407
3987.645	4285
3989.238	4403
3990.831	4356
3992.425	4177
3994.017	4380
3995.607	4311
3997.199	4378
3998.79	4272
4000.382	4341
4001.973	4375
4003.561	4252
4005.151	4236
4006.741	4353
4008.331	4248
4009.918	4256
4011.507	4226
4013.095	4257
4014.681	4207
4016.269	4258
4017.856	4230
4019.443	4202
4021.028	4246
4022.614	4213
4024.199	4247
4025.785	4207
4027.37	4151
4028.953	4229
4030.536	4133
4032.12	4216
4033.704	4221
4035.287	4136
4036.869	4213
4038.45	4228
4040.032	4178
4041.613	4167
4043.195	4084
4044.776	4150
4046.356	4156
4047.935	4055
4049.515	4180
4051.095	4173
4052.674	4142
4054.251	4087
4055.829	4121
4057.406	4086
4058.985	4041
4060.562	4228
4062.139	4122
4063.715	4109
4065.29	4077
4066.865	4129
4068.442	4083
4070.016	4038
4071.59	4107
4073.164	4022
4074.738	3959
4076.312	4090
4077.885	4043
4079.458	4053
4081.03	4062
4082.602	3985
4084.173	4019
4085.745	4028
4087.315	4010
4088.886	4014
4090.456	4069
4092.026	4021
4093.596	4032
4095.165	4032
4096.734	4040
4098.301	4033
4099.869	3975
4101.437	4037
4103.006	4011
4104.572	3947
4106.139	3907
4107.704	4005
4109.27	3981
4110.837	3980
4112.401	4022
4113.966	4013
4115.53	3824
4117.094	4018
4118.659	4040
4120.223	3847
4121.785	3938
4123.347	3966
4124.909	3923
4126.471	3910
4128.034	3918
4129.595	3942
4131.155	3846
4132.716	3856
4134.275	3947
4135.836	3942
4137.395	3881
4138.955	3874
4140.513	3878
4142.071	3883
4143.628	3880
4145.188	3827
4146.745	3870
4148.302	3897
4149.858	3806
4151.414	3769
4152.971	3856
4154.526	3875
4156.081	3812
4157.635	3840
4159.189	3839
4160.745	3780
4162.298	3771
4163.852	3821
4165.405	3780
4166.957	3718
4168.51	3761
4170.063	3740
4171.614	3759
4173.166	3770
4174.717	3733
4176.267	3778
4177.817	3761
4179.368	3778
4180.917	3764
4182.466	3781
4184.016	3763
4185.564	3725
4187.112	3711
4188.66	3727
4190.207	3717
4191.754	3705
4193.301	3768
4194.848	3679
4196.394	3759
4197.94	3588
4199.484	3650
4201.03	3726
4202.575	3645
4204.12	3626
4205.663	3644
4207.207	3741
4208.75	3703
4210.292	3638
4211.836	3676
4213.378	3637
4214.92	3656
4216.46	3615
4218.002	3673
4219.544	3646
4221.083	3606
4222.625	3609
4224.164	3667
4225.703	3591
4227.244	3757
4228.782	3621
4230.32	3691
4231.857	3621
4233.395	3612
4234.933	3583
4236.471	3509
4238.007	3616
4239.542	3619
4241.078	3537
4242.614	3578
4244.15	3572
4245.685	3581
4247.219	3583
4248.753	3539
4250.287	3586
4251.82	3510
4253.354	3457
4254.887	3503
4256.419	3528
4257.951	3524
4259.483	3616
4261.016	3612
4262.547	3501
4264.078	3481
4265.608	3564
4267.137	3550
4268.668	3511
4270.197	3493
4271.727	3604
4273.254	3570
4274.783	3497
4276.311	3493
4277.84	3454
4279.366	3496
4280.894	3515
4282.42	3566
4283.946	3497
4285.473	3479
4286.998	3558
4288.523	3455
4290.047	3446
4291.572	3477
4293.096	3496
4294.622	3460
4296.144	3493
4297.668	3448
4299.19	3526
4300.713	3476
4302.236	3488
4303.758	3405
4305.279	3475
4306.799	3405
4308.321	3404
4309.842	3472
4311.361	3379
4312.882	3436
4314.401	3429
