400.0961	6490
402.6185	6552
405.1424	6625
407.6635	6613
410.1838	6719
412.7035	6681
415.2225	6693
417.7388	6869
420.2585	6737
422.7754	6873
425.2917	6869
427.8072	6887
430.3221	6816
432.8363	6997
435.3498	6930
437.8626	6997
440.3727	7070
442.8841	7023
445.3969	6892
447.907	6962
450.4142	7027
452.9229	6996
455.4289	6960
457.9362	7064
460.4449	6996
462.9488	6947
465.454	7051
467.9566	7031
470.4604	7050
472.9637	7095
475.4662	7045
477.966	7119
480.4671	7091
482.9656	7137
485.4633	7192
487.9645	7301
490.4608	7220
492.9566	7186
495.4536	7198
497.948	7188
500.4437	7291
502.9387	7252
505.431	7295
507.9226	7277
510.4136	7347
512.9079	7271
515.3975	7332
517.8864	7305
520.3746	7183
522.8622	7344
525.3491	7369
527.8394	7401
530.3249	7317
532.8098	7464
535.2939	7469
537.7774	7271
540.2623	7243
542.7444	7445
545.2259	7486
547.7067	7468
550.1868	7374
552.6683	7402
555.147	7343
557.6231	7411
560.1005	7480
562.5773	7589
565.0534	7457
567.5308	7606
570.0056	7493
572.4776	7556
574.951	7625
577.4237	7626
579.8978	7510
582.3671	7697
584.8378	7567
587.3079	7677
589.7773	7633
592.244	7770
594.714	7659
597.1793	7678
599.6461	7576
602.1121	7667
604.5754	7640
607.0421	7676
609.5042	7762
611.9675	7615
614.4282	7689
616.8902	7588
619.3515	7579
621.8122	7615
624.2702	7733
626.7296	7664
629.1863	7702
631.6423	7696
634.1017	7678
636.5563	7586
639.0104	7654
641.4658	7604
643.9185	7606
646.3725	7615
648.8239	7719
651.2766	7848
653.7266	7804
656.176	7759
658.6247	7705
661.0748	7708
663.5242	7709
665.9709	7820
668.417	7832
670.8624	7834
673.3092	7756
675.7533	7796
678.1968	7897
680.6395	7840
683.0817	7925
685.5251	7950
687.9659	7934
690.4061	7888
692.8456	7869
695.2844	7990
697.7226	7988
700.1621	8005
702.599	7968
705.0332	8059
707.4688	8027
709.9036	8142
712.3399	8045
714.7735	8052
717.2044	8133
719.6367	8255
722.0683	8132
724.4993	8292
726.9296	8155
729.3593	8233
731.7883	8288
734.2147	8334
736.6423	8375
739.0714	8286
741.4958	8288
743.9216	8216
746.3447	8340
748.7691	8408
751.1929	8464
753.616	8474
756.0366	8447
758.4584	8474
760.8776	8455
763.2982	8562
765.718	8558
768.1373	8502
770.5539	8569
772.9698	8479
775.3871	8564
777.8038	8468
780.2178	8533
782.6332	8518
785.0459	8472
787.458	8436
789.8714	8641
792.2842	8464
794.6943	8524
797.1038	8604
799.5127	8567
801.9209	8620
804.3324	8536
806.7393	8602
809.1456	8593
811.5513	8624
813.9562	8473
816.3625	8709
818.7663	8645
821.1693	8752
823.5718	8685
825.9735	8816
828.3746	8631
830.7771	8688
833.177	8622
835.5762	8750
837.9747	8668
840.3727	8713
842.772	8714
845.1666	8629
847.5626	8859
849.958	8690
852.3527	8908
854.7488	8896
857.1403	8902
859.5331	8930
861.9253	8841
864.3168	8894
866.7057	8756
869.098	8834
871.4876	8848
873.8746	8930
876.263	8993
878.6487	8814
881.0378	8736
883.4243	8896
885.8081	8692
888.1933	8855
890.5759	8930
892.9598	8747
895.343	8686
897.7256	9057
900.1057	8805
902.4871	8669
904.8659	8908
907.246	8797
909.6254	8936
912.0023	8776
914.3786	9100
916.7562	9112
919.1331	9219
921.5074	9409
923.8831	9245
926.2562	9199
928.6287	9243
931.0005	9232
933.3757	9133
935.7462	9281
938.1162	9353
940.4855	9383
942.8542	9495
945.2242	9669
947.5916	9562
949.9584	9745
952.3266	9988
954.6921	10225
957.0571	10465
959.4233	10768
961.787	10828
964.15	10747
966.5125	10518
968.8742	10328
971.2354	9976
973.5959	9806
975.9559	9608
978.3151	9401
980.6738	9390
983.0338	9341
985.3912	9299
987.7461	9251
990.1022	9075
992.4578	9205
994.8127	9120
997.1689	9086
999.5207	9098
1001.874	9286
1004.226	9217
1006.576	9266
1008.929	9161
1011.28	9204
1013.628	9179
1015.977	9099
1018.324	9057
1020.674	9191
1023.019	9153
1025.366	9255
1027.713	9152
1030.056	9302
1032.399	9170
1034.746	9307
1037.087	9269
1039.431	9330
1041.771	9372
1044.113	9212
1046.454	9232
1048.793	9288
1051.133	9264
1053.471	9396
1055.807	9315
1058.146	9394
1060.483	9384
1062.818	9363
1065.153	9343
1067.489	9448
1069.822	9493
1072.156	9579
1074.488	9325
1076.82	9504
1079.15	9449
1081.48	9452
1083.814	9336
1086.143	9438
1088.471	9299
1090.799	9314
1093.126	9369
1095.452	9513
1097.78	9389
1100.105	9258
1102.43	9352
1104.754	9420
1107.077	9387
1109.4	9452
1111.722	9395
1114.044	9284
1116.365	9446
1118.685	9360
1121.005	9496
1123.324	9384
1125.643	9423
1127.961	9505
1130.278	9390
1132.595	9359
1134.911	9226
1137.226	9541
1139.541	9417
1141.854	9359
1144.167	9409
1146.482	9444
1148.793	9435
1151.105	9344
1153.414	9581
1155.725	9334
1158.033	9481
1160.344	9493
1162.651	9449
1164.959	9262
1167.265	9491
1169.572	9536
1171.878	9503
1174.184	9522
1176.488	9514
1178.79	9464
1181.094	9511
1183.396	9538
1185.699	9404
1188.001	9378
1190.301	9363
1192.6	9453
1194.9	9310
1197.2	9288
1199.497	9441
1201.794	9465
1204.09	9388
1206.387	9375
1208.684	9313
1210.978	9490
1213.272	9537
1215.565	9345
1217.858	9375
1220.15	9408
1222.443	9467
1224.734	9464
1227.024	9629
1229.313	9575
1231.602	9592
1233.892	9764
1236.18	9595
1238.467	9711
1240.754	9835
1243.04	9794
1245.325	9879
1247.612	9778
1249.896	9848
1252.178	9711
1254.461	9832
1256.743	9734
1259.027	9825
1261.308	9810
1263.587	9754
1265.867	9746
1268.146	9835
1270.425	9822
1272.703	9750
1274.981	9967
1277.256	9755
1279.532	9611
1281.808	9751
1284.083	9637
1286.358	9784
1288.63	9803
1290.904	9561
1293.175	9553
1295.449	9630
1297.719	9675
1299.99	9667
1302.259	9705
1304.529	9565
1306.798	9540
1309.065	9735
1311.333	9825
1313.599	9697
1315.866	9712
1318.131	9744
1320.396	9659
1322.66	9641
1324.925	9699
1327.187	9838
1329.448	9751
1331.711	9852
1333.974	9740
1336.234	9746
1338.493	9815
1340.752	9739
1343.01	9705
1345.269	9745
1347.526	9574
1349.784	9872
1352.04	9631
1354.295	9573
1356.552	9746
1358.806	9613
1361.059	9728
1363.312	9768
1365.564	9646
1367.818	9887
1370.069	9750
1372.318	9705
1374.568	9730
1376.817	9749
1379.066	9787
1381.316	9827
1383.564	9830
1385.809	9803
1388.056	9737
1390.301	9905
1392.549	9980
1394.793	9950
1397.036	10032
1399.279	10028
1401.522	9977
1403.763	10063
1406.007	9889
1408.248	10007
1410.487	10038
1412.727	10018
1414.965	10029
1417.205	9966
1419.442	10096
1421.68	10018
1423.915	10103
1426.152	10028
1428.388	9923
1430.623	10004
1432.857	9998
1435.091	10085
1437.323	10099
1439.556	10227
1441.789	10201
1444.019	10224
1446.25	10281
1448.48	10155
1450.708	10240
1452.938	10277
1455.167	10158
1457.394	10229
1459.62	10307
1461.846	10293
1464.073	10092
1466.299	10132
1468.523	10006
1470.746	9921
1472.969	10023
1475.191	9933
1477.415	10098
1479.636	10000
1481.858	9651
1484.078	9967
1486.298	9785
1488.518	9897
1490.736	9859
1492.954	9787
1495.169	9847
1497.386	9533
1499.602	9704
1501.819	9577
1504.034	9619
1506.248	9941
1508.462	9598
1510.675	9650
1512.888	9675
1515.1	9631
1517.311	9669
1519.522	9775
1521.732	9639
1523.942	9738
1526.151	9564
1528.36	9790
1530.566	9578
1532.773	9893
1534.98	9698
1537.187	9727
1539.392	9629
1541.596	9677
1543.801	9709
1546.005	9566
1548.208	9732
1550.411	9812
1552.612	9702
1554.814	9832
1557.013	9903
1559.212	9734
1561.414	9878
1563.612	9907
1565.811	9812
1568.007	9917
1570.203	9773
1572.403	9896
1574.598	9924
1576.792	9905
1578.988	9946
1581.181	9859
1583.376	9999
1585.568	9855
1587.761	10002
1589.952	9931
1592.143	9944
1594.333	9892
1596.524	10015
1598.715	10055
1600.903	10063
1603.091	10127
1605.278	10175
1607.466	9971
1609.652	10009
1611.838	9967
1614.023	10122
1616.207	10034
1618.391	9974
1620.576	10022
1622.759	10144
1624.941	10002
1627.123	9959
1629.304	10156
1631.484	10102
1633.664	10108
1635.844	10099
1638.022	10218
1640.201	10059
1642.38	10179
1644.556	10101
1646.732	10183
1648.908	10179
1651.084	10274
1653.257	10052
1655.433	10170
1657.607	10218
1659.779	10323
1661.951	10120
1664.122	10232
1666.295	10186
1668.467	10290
1670.635	10319
1672.805	10131
1674.973	10308
1677.142	10178
1679.31	10209
1681.478	10054
1683.644	10248
1685.81	10212
1687.975	10238
1690.142	10132
1692.305	10195
1694.468	10118
1696.632	10185
1698.794	10080
1700.957	10073
1703.119	10068
1705.279	9931
1707.439	10070
1709.598	10043
1711.758	9904
1713.917	10028
1716.075	9993
1718.231	9975
1720.388	9937
1722.543	9977
1724.702	9895
1726.856	9880
1729.01	10031
1731.164	9905
1733.317	9878
1735.471	9979
1737.623	9934
1739.774	10030
1741.925	9816
1744.075	9964
1746.225	9825
1748.376	9922
1750.524	9942
1752.672	9854
1754.82	10074
1756.965	10085
1759.113	9997
1761.259	9933
1763.405	10166
1765.549	10047
1767.694	9881
1769.836	10044
1771.981	10005
1774.123	10005
1776.264	10081
1778.405	10002
1780.546	10157
1782.687	10011
1784.827	10041
1786.966	10121
1789.103	10075
1791.242	10092
1793.381	10136
1795.517	10110
1797.653	10062
1799.788	10124
1801.923	10098
1804.057	10106
1806.193	10100
1808.326	10077
1810.457	10047
1812.59	10027
1814.721	10171
1816.855	10122
1818.984	9940
1821.113	10046
1823.244	10008
1825.372	10049
1827.499	10064
1829.63	9850
1831.756	10115
1833.882	9944
1836.007	9949
1838.132	10028
1840.26	9920
1842.384	9898
1844.507	9852
1846.63	10100
1848.752	9986
1850.875	9840
1852.996	10086
1855.118	9788
1857.238	9954
1859.358	9997
1861.477	9914
1863.597	9988
1865.715	10023
1867.832	10007
1869.948	9856
1872.064	10021
1874.181	9871
1876.297	9997
1878.411	9986
1880.526	9934
1882.639	10017
1884.752	9891
1886.865	9944
1888.977	9835
1891.089	10002
1893.2	10023
1895.308	9960
1897.42	10052
1899.53	10042
1901.639	9963
1903.745	10038
1905.853	10053
1907.962	9960
1910.067	9970
1912.174	10165
1914.278	10040
1916.383	10007
1918.486	10119
1920.592	10015
1922.694	10207
1924.797	9983
1926.898	10052
1929	10142
1931.102	10224
1933.203	10087
1935.301	10052
1937.401	10186
1939.499	9977
1941.598	10058
1943.697	10187
1945.793	10086
1947.888	10041
1949.985	10151
1952.08	10047
1954.176	10078
1956.269	10003
1958.364	10020
1960.457	10015
1962.549	10055
1964.642	10123
1966.733	10011
1968.823	10123
1970.913	10061
1973.005	9841
1975.093	10055
1977.184	9947
1979.271	10089
1981.359	10150
1983.446	9884
1985.532	9922
1987.619	9984
1989.705	9988
1991.789	9959
1993.874	9935
1995.956	9969
1998.041	10023
2000.123	9800
2002.206	9911
2004.287	10055
2006.368	9639
2008.449	9975
2010.529	9913
2012.609	9858
2014.688	9817
2016.766	9714
2018.843	9926
2020.922	9943
2022.999	9871
2025.074	9950
2027.15	9924
2029.225	9941
2031.299	10013
2033.375	9870
2035.447	9881
2037.52	9881
2039.592	9882
2041.664	9938
2043.736	10001
2045.807	9875
2047.876	9935
2049.947	9929
2052.015	10017
2054.086	10090
2056.153	9856
2058.221	9852
2060.288	9935
2062.353	9858
2064.42	9920
2066.486	9846
2068.55	9938
2070.614	9874
2072.678	9948
2074.741	9798
2076.805	9963
2078.866	9857
2080.929	9865
2082.99	9953
2085.049	9955
2087.109	9904
2089.17	9988
2091.228	9928
2093.286	9880
2095.344	10000
2097.4	9916
2099.46	9884
2101.516	9998
2103.572	9831
2105.626	9973
2107.679	9871
2109.735	9949
2111.788	10045
2113.841	9946
2115.894	9868
2117.945	9893
2119.997	9900
2122.049	9889
2124.1	9925
2126.148	10034
2128.197	9914
2130.246	9789
2132.296	9939
2134.342	9993
2136.39	9855
2138.437	10008
2140.483	9786
2142.527	9725
2144.574	9749
2146.619	9865
2148.661	9848
2150.705	9804
2152.747	9971
2154.792	9768
2156.832	9928
2158.874	9846
2160.915	9792
2162.954	9852
2164.995	9678
2167.034	9882
2169.072	9715
2171.111	9859
2173.148	9910
2175.186	9747
2177.223	9780
2179.258	9565
2181.294	9716
2183.328	9689
2185.362	9702
2187.398	9725
2189.431	9703
2191.463	9754
2193.495	9676
2195.528	9611
2197.56	9567
2199.59	9630
2201.62	9774
2203.649	9634
2205.678	9664
2207.708	9682
2209.737	9618
2211.764	9617
2213.791	9551
2215.817	9476
2217.843	9565
2219.87	9421
2221.895	9631
2223.919	9495
2225.942	9570
2227.966	9607
2229.988	9595
2232.012	9616
2234.032	9510
2236.054	9546
2238.074	9520
2240.095	9611
2242.116	9485
2244.135	9571
2246.153	9402
2248.171	9595
2250.188	9629
2252.208	9454
2254.223	9535
2256.239	9611
2258.255	9619
2260.269	9507
2262.283	9691
2264.3	9624
2266.312	9600
2268.325	9522
2270.336	9665
2272.349	9449
2274.362	9494
2276.372	9478
2278.383	9647
2280.392	9572
2282.402	9630
2284.409	9546
2286.418	9482
2288.427	9650
2290.433	9484
2292.441	9739
2294.446	9419
2296.453	9320
2298.459	9577
2300.463	9513
2302.466	9618
2304.471	9496
2306.475	9463
2308.477	9573
2310.478	9398
2312.481	9514
2314.481	9456
2316.481	9618
2318.482	9471
2320.482	9384
2322.48	9483
2324.48	9303
2326.478	9309
2328.476	9420
2330.473	9400
2332.469	9454
2334.465	9406
2336.46	9417
2338.454	9347
2340.45	9286
2342.444	9320
2344.437	9241
2346.43	9408
2348.421	9436
2350.414	9259
2352.405	9270
2354.396	9359
2356.386	9312
2358.376	9357
2360.366	9266
2362.355	9248
2364.343	9328
2366.331	9206
2368.317	9304
2370.304	9211
2372.292	9172
2374.278	9151
2376.262	9273
2378.247	9166
2380.23	9135
2382.216	9428
2384.199	9186
2386.181	9287
2388.163	9232
2390.144	9234
2392.127	9291
2394.107	9142
2396.087	9191
2398.066	9095
2400.046	9138
2402.023	9157
2404.004	9170
2405.981	9107
2407.957	9182
2409.934	9171
2411.91	9207
2413.886	9280
2415.862	9131
2417.836	9058
2419.809	9139
2421.784	9065
2423.756	9202
2425.73	9134
2427.701	9006
2429.672	9048
2431.644	9197
2433.615	9089
2435.586	9248
2437.555	9236
2439.523	9138
2441.491	9184
2443.459	9146
2445.428	9059
2447.395	9196
2449.361	9136
2451.327	8995
2453.292	8987
2455.257	9172
2457.223	8975
2459.187	9067
2461.15	9009
2463.113	8969
2465.076	9094
2467.039	9056
2468.999	9012
2470.96	8999
2472.921	9128
2474.881	9023
2476.841	8929
2478.8	9062
2480.759	8906
2482.717	8838
2484.675	9163
2486.63	8914
2488.589	9021
2490.545	8956
2492.5	8960
2494.455	8890
2496.408	8895
2498.364	8887
2500.318	8984
2502.27	9045
2504.223	9023
2506.174	9027
2508.126	9019
2510.078	8955
2512.03	8997
2513.979	8888
2515.927	8854
2517.877	8927
2519.826	8789
2521.775	8914
2523.722	8745
2525.668	8965
2527.616	8844
2529.561	8915
2531.508	8935
2533.452	8982
2535.398	8978
2537.342	8758
2539.284	8850
2541.229	8798
2543.173	8827
2545.114	8719
2547.055	8906
2548.996	8891
2550.938	8827
2552.878	8845
2554.817	8924
2556.756	8825
2558.695	8946
2560.633	8882
2562.572	8777
2564.509	8949
2566.445	8907
2568.382	8819
2570.317	8848
2572.254	8856
2574.189	9017
2576.123	8633
2578.057	8860
2579.99	8883
2581.923	8859
2583.855	8827
2585.788	8844
2587.719	8759
2589.65	8904
2591.579	8648
2593.511	8906
2595.44	8834
2597.37	8866
2599.297	8889
2601.225	8868
2603.153	8879
2605.08	8810
2607.007	8805
2608.932	8901
2610.858	8701
2612.782	8831
2614.709	8799
2616.632	8905
2618.556	8874
2620.478	8966
2622.401	8728
2624.324	8855
2626.247	8763
2628.167	8886
2630.088	8852
2632.008	8869
2633.928	8799
2635.848	8981
2637.766	8776
2639.684	8823
2641.603	8811
2643.519	8779
2645.437	8871
2647.353	8869
2649.27	8849
2651.184	8895
2653.099	8835
2655.014	8753
2656.928	8751
2658.842	8860
2660.755	8792
2662.667	8839
2664.579	8664
2666.491	8798
2668.402	8810
2670.312	8857
2672.222	8738
2674.132	8712
2676.042	8747
2677.951	8699
2679.859	8745
2681.766	8692
2683.674	8715
2685.582	8569
2687.488	8715
2689.392	8671
2691.298	8742
2693.202	8628
2695.107	8751
2697.012	8629
2698.914	8665
2700.817	8692
2702.72	8609
2704.622	8643
2706.524	8760
2708.425	8539
2710.326	8820
2712.225	8693
2714.125	8637
2716.024	8669
2717.923	8480
2719.822	8457
2721.719	8673
2723.616	8596
2725.512	8678
2727.41	8527
2729.305	8470
2731.201	8686
2733.095	8604
2734.99	8603
2736.884	8490
2738.778	8523
2740.67	8562
2742.562	8574
2744.455	8530
2746.346	8542
2748.238	8490
2750.129	8484
2752.018	8645
2753.907	8537
2755.797	8617
2757.687	8550
2759.575	8627
2761.462	8401
2763.349	8432
2765.237	8460
2767.124	8615
2769.009	8473
2770.894	8502
2772.779	8542
2774.663	8493
2776.547	8610
2778.431	8385
2780.314	8559
2782.197	8512
2784.078	8571
2785.96	8401
2787.842	8546
2789.723	8564
2791.603	8559
2793.483	8306
2795.362	8326
2797.241	8471
2799.121	8387
2800.997	8481
2802.874	8539
2804.751	8359
2806.628	8500
2808.506	8546
2810.38	8396
2812.255	8393
2814.13	8318
2816.003	8522
2817.878	8307
2819.752	8364
2821.623	8285
2823.496	8283
2825.368	8422
2827.238	8248
2829.111	8354
2830.98	8377
2832.851	8448
2834.719	8502
2836.589	8436
2838.458	8329
2840.327	8441
2842.193	8452
2844.061	8452
2845.927	8428
2847.794	8420
2849.66	8514
2851.525	8591
2853.39	8558
2855.254	8403
2857.117	8350
2858.983	8599
2860.845	8521
2862.707	8588
2864.569	8645
2866.431	8611
2868.293	8665
2870.154	8662
2872.013	8830
2873.873	8801
2875.733	8795
2877.592	8887
2879.451	9129
2881.309	9071
2883.166	9097
2885.022	9151
2886.879	9186
2888.736	9166
2890.591	9239
2892.446	9147
2894.301	9126
2896.155	9302
2898.009	9242
2899.863	9214
2901.716	9280
2903.568	9110
2905.419	9012
2907.27	9115
2909.123	9170
2910.973	9106
2912.824	9345
2914.673	9401
2916.521	9256
2918.372	9437
2920.22	9480
2922.067	9438
2923.914	9422
2925.761	9550
2927.607	9650
2929.455	9630
2931.301	9783
2933.144	9854
2934.99	9798
2936.833	9867
2938.678	10004
2940.522	9906
2942.364	10200
2944.207	10132
2946.048	10173
2947.891	10451
2949.731	10257
2951.571	10352
2953.412	10295
2955.25	10213
2957.09	10123
2958.93	10124
2960.767	9965
2962.606	9772
2964.443	9763
2966.279	9753
2968.116	9614
2969.953	9486
2971.788	9408
2973.623	9354
2975.457	9187
2977.292	9109
2979.127	9098
2980.959	9136
2982.792	9060
2984.624	9115
2986.455	9067
2988.288	8929
2990.119	9001
2991.949	8712
2993.779	8869
2995.608	8912
2997.439	8689
2999.268	8797
3001.096	8658
3002.923	8582
3004.751	8513
3006.578	8492
3008.406	8304
3010.232	8435
3012.057	8276
3013.883	8298
3015.706	8327
3017.532	8245
3019.356	8205
3021.179	8066
3023.002	8045
3024.823	8053
3026.646	8122
3028.469	7939
3030.289	8027
3032.11	8056
3033.93	7970
3035.749	7928
3037.57	8021
3039.39	7974
3041.207	7945
3043.026	7888
3044.842	8026
3046.661	7826
3048.477	7922
3050.294	7853
3052.109	7869
3053.925	7854
3055.739	7739
3057.555	7940
3059.368	7830
3061.181	7775
3062.995	7940
3064.807	7887
3066.62	7773
3068.433	7815
3070.243	7776
3072.054	7851
3073.865	7907
3075.675	7719
3077.485	7872
3079.293	7767
3081.102	7883
3082.911	7696
3084.719	7543
3086.527	7716
3088.333	7649
3090.139	7887
3091.945	7666
3093.75	7806
3095.557	7557
3097.361	7565
3099.165	7690
3100.969	7571
3102.772	7516
3104.575	7597
3106.379	7645
3108.181	7579
3109.982	7633
3111.783	7535
3113.584	7539
3115.386	7581
3117.186	7452
3118.985	7373
3120.783	7466
3122.582	7466
3124.381	7384
3126.179	7368
3127.975	7496
3129.772	7443
3131.569	7422
3133.365	7411
3135.161	7359
3136.956	7375
3138.751	7449
3140.544	7395
3142.338	7488
3144.132	7417
3145.925	7421
3147.717	7447
3149.509	7378
3151.301	7436
3153.091	7398
3154.884	7405
3156.673	7357
3158.462	7320
3160.252	7452
3162.041	7292
3163.831	7185
3165.618	7378
3167.405	7255
3169.193	7207
3170.979	7355
3172.767	7275
3174.553	7284
3176.338	7323
3178.123	7281
3179.907	7360
3181.692	7371
3183.477	7290
3185.259	7229
3187.042	7212
3188.824	7238
3190.607	7315
3192.389	7404
3194.17	7235
3195.951	7259
3197.73	7144
3199.51	7146
3201.289	7245
3203.07	7261
3204.848	7270
3206.626	7104
3208.403	7325
3210.18	7230
3211.959	7285
3213.735	7162
3215.511	7244
3217.285	7231
3219.06	7245
3220.836	7212
3222.611	7211
3224.384	7226
3226.158	7104
3227.929	7265
3229.702	7232
3231.476	7192
3233.248	7355
3235.018	7281
3236.789	7253
3238.56	7185
3240.33	7173
3242.1	7082
3243.869	7145
3245.637	7246
3247.405	7048
3249.172	7243
3250.941	7224
3252.707	7120
3254.474	7160
3256.24	7080
3258.006	7058
3259.772	7189
3261.537	7123
3263.301	7250
3265.065	7091
3266.828	7135
3268.592	7131
3270.355	7072
3272.117	7145
3273.878	7157
3275.64	7064
3277.401	7184
3279.162	7265
3280.922	7173
3282.682	7141
3284.441	7218
3286.199	7224
3287.959	7101
3289.716	7043
3291.475	7185
3293.232	7192
3294.988	7060
3296.744	7143
3298.501	7122
3300.256	7140
3302.011	7153
3303.766	7130
3305.52	7141
3307.275	7148
3309.028	7182
3310.781	7143
3312.533	7086
3314.285	7080
3316.038	7110
3317.789	7237
3319.54	7198
3321.289	6999
3323.039	7090
3324.789	7110
3326.539	7011
3328.288	7026
3330.035	7062
3331.783	7019
3333.531	7154
3335.28	6988
3337.025	7025
3338.771	7035
3340.518	7006
3342.262	6970
3344.009	7032
3345.753	7058
3347.497	6907
3349.24	7076
3350.983	6809
3352.726	6955
3354.469	7033
3356.212	6969
3357.952	6963
3359.694	6856
3361.434	6847
3363.176	6902
3364.916	6923
3366.654	6799
3368.394	6921
3370.132	6900
3371.871	6880
3373.61	6867
3375.346	6846
3377.083	6768
3378.82	6699
3380.556	6815
3382.292	6785
3384.027	6808
3385.763	6775
3387.497	6721
3389.231	6686
3390.965	6870
3392.698	6881
3394.431	6739
3396.164	6766
3397.896	6846
3399.627	6885
3401.36	6886
3403.09	6836
3404.82	6768
3406.55	6697
3408.279	6688
3410.01	6676
3411.738	6736
3413.467	6675
3415.194	6755
3416.92	6711
3418.647	6673
3420.375	6677
3422.102	6782
3423.827	6680
3425.553	6671
3427.277	6729
3429.003	6705
3430.727	6665
3432.451	6577
3434.173	6491
3435.896	6617
3437.62	6599
3439.343	6621
3441.063	6589
3442.785	6474
3444.505	6578
3446.226	6489
3447.948	6551
3449.666	6464
3451.386	6587
3453.104	6538
3454.823	6637
3456.541	6498
3458.259	6504
3459.976	6493
3461.693	6366
3463.408	6472
3465.125	6507
3466.841	6537
3468.556	6466
3470.271	6411
3471.985	6453
3473.698	6274
3475.414	6389
3477.126	6486
3478.838	6327
3480.55	6403
3482.263	6311
3483.975	6376
3485.686	6303
3487.396	6399
3489.106	6409
3490.817	6328
3492.526	6327
3494.236	6212
3495.944	6303
3497.652	6338
3499.359	6475
3501.066	6231
3502.775	6192
3504.481	6349
3506.187	6187
3507.893	6287
3509.598	6178
3511.304	6290
3513.009	6302
3514.713	6162
3516.417	6195
3518.12	6305
3519.821	6156
3521.525	6132
3523.228	6215
3524.929	6058
3526.631	6203
3528.33	6143
3530.032	6217
3531.733	6139
3533.433	6067
3535.131	6164
3536.83	6041
3538.529	6180
3540.227	5995
3541.925	6109
3543.623	6081
3545.319	6043
3547.016	6129
3548.712	6148
3550.408	6004
3552.103	6114
3553.798	6182
3555.491	5914
3557.188	6021
3558.88	6112
3560.574	6047
3562.266	5934
3563.959	6060
3565.651	6040
3567.343	5924
3569.035	5995
3570.725	5996
3572.415	5843
3574.106	5951
3575.797	5839
3577.485	5954
3579.174	5857
3580.863	6039
3582.551	5965
3584.238	5901
3585.926	5910
3587.613	5930
3589.3	5868
3590.986	5908
3592.671	5921
3594.357	5851
3596.042	5863
3597.726	5904
3599.41	5798
3601.094	5776
3602.778	5743
3604.461	5688
3606.143	5837
3607.825	5724
3609.507	5664
3611.188	5652
3612.87	5752
3614.551	5709
3616.229	5748
3617.909	5685
3619.589	5740
3621.269	5713
3622.948	5668
3624.625	5644
3626.302	5717
3627.98	5670
3629.657	5536
3631.334	5688
3633.01	5599
3634.686	5597
3636.361	5513
3638.036	5608
3639.712	5629
3641.385	5626
3643.06	5598
3644.732	5574
3646.405	5515
3648.08	5445
3649.751	5463
3651.424	5694
3653.094	5526
3654.766	5563
3656.436	5533
3658.106	5549
3659.777	5561
3661.446	5512
3663.115	5496
3664.783	5468
3666.452	5565
3668.121	5531
3669.788	5464
3671.454	5498
3673.121	5422
3674.789	5501
3676.455	5511
3678.12	5507
3679.784	5417
3681.45	5470
3683.114	5360
3684.779	5413
3686.442	5377
3688.105	5429
3689.768	5492
3691.43	5306
3693.093	5380
3694.754	5327
3696.415	5398
3698.076	5405
3699.736	5328
3701.396	5491
3703.057	5367
3704.716	5360
3706.375	5323
3708.034	5384
3709.692	5368
3711.351	5301
3713.008	5315
3714.665	5422
3716.321	5306
3717.977	5298
3719.634	5297
3721.29	5292
3722.945	5269
3724.598	5363
3726.253	5416
3727.907	5222
3729.561	5202
3731.214	5299
3732.867	5262
3734.518	5313
3736.171	5200
3737.824	5243
3739.474	5268
3741.125	5313
3742.775	5245
3744.425	5349
3746.074	5232
3747.725	5186
3749.373	5282
3751.022	5184
3752.669	5168
3754.318	5242
3755.966	5283
3757.612	5281
3759.259	5212
3760.905	5149
3762.55	5231
3764.197	5142
3765.842	5251
3767.486	5084
3769.131	5145
3770.774	5192
3772.417	5149
3774.061	5102
3775.705	5107
3777.347	5160
3778.988	5131
3780.629	5152
3782.271	5138
3783.912	5051
3785.552	5006
3787.192	5007
3788.831	5059
3790.472	4886
3792.112	5080
3793.75	5075
3795.388	5036
3797.024	5060
3798.661	5037
3800.3	4941
3801.936	5113
3803.572	5097
3805.208	5062
3806.844	5015
3808.48	4968
3810.115	5048
3811.748	4991
3813.382	4995
3815.016	4978
3816.649	4984
3818.283	4885
3819.914	5073
3821.547	4912
3823.178	4973
3824.809	4881
3826.441	4999
3828.072	4938
3829.701	4972
3831.331	5021
3832.96	4941
3834.591	4865
3836.219	4953
3837.847	4969
3839.475	4974
3841.102	4892
3842.729	4862
3844.357	4960
3845.984	4874
3847.609	4839
3849.234	4866
3850.86	4894
3852.485	4867
3854.11	4868
3855.734	4914
3857.357	4776
3858.981	4808
3860.603	4889
3862.227	4880
3863.848	4806
3865.471	4854
3867.092	4754
3868.713	4728
3870.334	4795
3871.954	4783
3873.575	4825
3875.194	4914
3876.813	4764
3878.433	4737
3880.051	4823
3881.669	4878
3883.286	4760
3884.904	4799
3886.52	4661
3888.138	4741
3889.754	4778
3891.37	4787
3892.985	4850
3894.6	4717
3896.216	4752
3897.831	4706
3899.444	4755
3901.058	4662
3902.67	4777
3904.283	4744
3905.897	4680
3907.509	4810
3909.121	4639
3910.731	4737
3912.342	4702
3913.954	4599
3915.563	4629
3917.174	4702
3918.783	4735
3920.391	4752
3922.002	4655
3923.611	4599
3925.218	4766
3926.826	4625
3928.432	4763
3930.039	4667
3931.647	4613
3933.253	4621
3934.859	4578
3936.464	4740
3938.068	4629
3939.675	4684
3941.278	4626
3942.883	4603
3944.486	4628
3946.089	4637
3947.692	4707
3949.295	4603
3950.898	4686
3952.499	4606
3954.1	4602
3955.7	4617
3957.303	4580
3958.903	4625
3960.502	4604
3962.101	4612
3963.7	4528
3965.301	4560
3966.899	4500
3968.497	4603
3970.094	4641
3971.691	4466
3973.288	4602
3974.885	4433
3976.481	4589
3978.077	4550
3979.672	4457
3981.267	4536
3982.863	4565
3984.457	4561
3986.051	4545
3987.645	4471
3989.238	4507
3990.831	4519
3992.425	4357
3994.017	4478
3995.607	4422
3997.199	4368
3998.79	4513
4000.382	4414
4001.973	4458
4003.561	4417
4005.151	4425
4006.741	4495
4008.331	4518
4009.918	4419
4011.507	4429
4013.095	4396
4014.681	4407
4016.269	4364
4017.856	4374
4019.443	4340
4021.028	4402
4022.614	4245
4024.199	4339
4025.785	4313
4027.37	4367
4028.953	4306
4030.536	4379
4032.12	4319
4033.704	4257
4035.287	4333
4036.869	4296
4038.45	4366
4040.032	4236
4041.613	4225
4043.195	4208
4044.776	4233
4046.356	4217
4047.935	4241
4049.515	4324
4051.095	4264
4052.674	4294
4054.251	4295
4055.829	4246
4057.406	4250
4058.985	4186
4060.562	4241
4062.139	4252
4063.715	4207
4065.29	4215
4066.865	4229
4068.442	4181
4070.016	4212
4071.59	4126
4073.164	4179
4074.738	4217
4076.312	4216
4077.885	4227
4079.458	4152
4081.03	4192
4082.602	4039
4084.173	4147
4085.745	4169
4087.315	4153
4088.886	4226
4090.456	4110
4092.026	4069
4093.596	4143
4095.165	4101
4096.734	4097
4098.301	4120
4099.869	4067
4101.437	4066
4103.006	4144
4104.572	4059
4106.139	4110
4107.704	4133
4109.27	4027
4110.837	4129
4112.401	4115
4113.966	4008
4115.53	4108
4117.094	4062
4118.659	4051
4120.223	4045
4121.785	4129
4123.347	3998
4124.909	3994
4126.471	4044
4128.034	4068
4129.595	4005
4131.155	3989
4132.716	3976
4134.275	4100
4135.836	4020
4137.395	3981
4138.955	3935
4140.513	3977
4142.071	3976
4143.628	3978
4145.188	3960
4146.745	3945
4148.302	4015
4149.858	3913
4151.414	3999
4152.971	3996
4154.526	3931
4156.081	3969
4157.635	3914
4159.189	3899
4160.745	3806
4162.298	3911
4163.852	3923
4165.405	4007
4166.957	3821
4168.51	3915
4170.063	3930
4171.614	3886
4173.166	3869
4174.717	3940
4176.267	3818
4177.817	3842
4179.368	3878
4180.917	3826
4182.466	3870
4184.016	3873
4185.564	3879
4187.112	3877
4188.66	3874
4190.207	3780
4191.754	3825
4193.301	3862
4194.848	3758
4196.394	3843
4197.94	3744
4199.484	3874
4201.03	3762
4202.575	3870
4204.12	3767
4205.663	3871
4207.207	3682
4208.75	3778
4210.292	3781
4211.836	3777
4213.378	3766
4214.92	3724
4216.46	3760
4218.002	3760
4219.544	3720
4221.083	3717
4222.625	3691
4224.164	3771
4225.703	3680
4227.244	3751
4228.782	3677
4230.32	3701
4231.857	3754
4233.395	3687
4234.933	3623
4236.471	3751
4238.007	3684
4239.542	3733
4241.078	3719
4242.614	3706
4244.15	3687
4245.685	3646
4247.219	3718
4248.753	3676
4250.287	3605
4251.82	3696
4253.354	3634
4254.887	3632
4256.419	3678
4257.951	3630
4259.483	3653
4261.016	3670
4262.547	3616
4264.078	3647
4265.608	3595
4267.137	3612
4268.668	3763
4270.197	3642
4271.727	3587
4273.254	3591
4274.783	3708
4276.311	3528
4277.84	3625
4279.366	3618
4280.894	3619
4282.42	3545
4283.946	3560
4285.473	3569
4286.998	3523
4288.523	3645
4290.047	3620
4291.572	3638
4293.096	3556
4294.622	3632
4296.144	3640
4297.668	3517
4299.19	3402
4300.713	3592
4302.236	3567
4303.758	3524
4305.279	3669
4306.799	3559
4308.321	3495
4309.842	3492
4311.361	3496
4312.882	3571
4314.401	3476
