400.0961	4260
402.6185	4317
405.1424	4293
407.6635	4317
410.1838	4326
412.7035	4256
415.2225	4355
417.7388	4368
420.2585	4476
422.7754	4502
425.2917	4534
427.8072	4621
430.3221	4614
432.8363	4564
435.3498	4660
437.8626	4581
440.3727	4567
442.8841	4618
445.3969	4613
447.907	4635
450.4142	4654
452.9229	4659
455.4289	4534
457.9362	4663
460.4449	4627
462.9488	4590
465.454	4630
467.9566	4526
470.4604	4519
472.9637	4606
475.4662	4569
477.966	4531
480.4671	4630
482.9656	4622
485.4633	4557
487.9645	4586
490.4608	4654
492.9566	4617
495.4536	4723
497.948	4703
500.4437	4669
502.9387	4696
505.431	4661
507.9226	4737
510.4136	4826
512.9079	4684
515.3975	4725
517.8864	4797
520.3746	4748
522.8622	4748
525.3491	4754
527.8394	4716
530.3249	4719
532.8098	4781
535.2939	4785
537.7774	4755
540.2623	4818
542.7444	4752
545.2259	4796
547.7067	4852
550.1868	4701
552.6683	4756
555.147	4753
557.6231	4837
560.1005	4722
562.5773	4887
565.0534	4839
567.5308	4852
570.0056	4784
572.4776	4941
574.951	4887
577.4237	4957
579.8978	4955
582.3671	4989
584.8378	4936
587.3079	4972
589.7773	4885
592.244	5103
594.714	5035
597.1793	4944
599.6461	4948
602.1121	4857
604.5754	4970
607.0421	4984
609.5042	4940
611.9675	4863
614.4282	4986
616.8902	4975
619.3515	4957
621.8122	4908
624.2702	4908
626.7296	4823
629.1863	4837
631.6423	4968
634.1017	4950
636.5563	4879
639.0104	4922
641.4658	4911
643.9185	4913
646.3725	4912
648.8239	5011
651.2766	4880
653.7266	4933
656.176	4880
658.6247	5009
661.0748	5015
663.5242	4916
665.9709	4989
668.417	5042
670.8624	5008
673.3092	5026
675.7533	5078
678.1968	5059
680.6395	5045
683.0817	5152
685.5251	5017
687.9659	5025
690.4061	5099
692.8456	5099
695.2844	5108
697.7226	5168
700.1621	5103
702.599	5156
705.0332	5164
707.4688	5091
709.9036	5093
712.3399	5207
714.7735	5125
717.2044	5161
719.6367	5233
722.0683	5270
724.4993	5180
726.9296	5317
729.3593	5331
731.7883	5321
734.2147	5271
736.6423	5327
739.0714	5275
741.4958	5287
743.9216	5372
746.3447	5295
748.7691	5288
751.1929	5476
753.616	5371
756.0366	5406
758.4584	5474
760.8776	5381
763.2982	5432
765.718	5404
768.1373	5268
770.5539	5422
772.9698	5391
775.3871	5422
777.8038	5418
780.2178	5550
782.6332	5468
785.0459	5400
787.458	5387
789.8714	5474
792.2842	5478
794.6943	5436
797.1038	5509
799.5127	5490
801.9209	5478
804.3324	5465
806.7393	5302
809.1456	5502
811.5513	5569
813.9562	5586
816.3625	5568
818.7663	5510
821.1693	5620
823.5718	5584
825.9735	5520
828.3746	5522
830.7771	5672
833.177	5543
835.5762	5596
837.9747	5583
840.3727	5575
842.772	5577
845.1666	5678
847.5626	5718
849.958	5686
852.3527	5708
854.7488	5658
857.1403	5667
859.5331	5700
861.9253	5666
864.3168	5764
866.7057	5643
869.098	5734
871.4876	5776
873.8746	5615
876.263	5659
878.6487	5666
881.0378	5673
883.4243	5639
885.8081	5706
888.1933	5650
890.5759	5682
892.9598	5637
895.343	5626
897.7256	5616
900.1057	5581
902.4871	5772
904.8659	5728
907.246	5807
909.6254	5728
912.0023	5836
914.3786	5782
916.7562	5949
919.1331	5969
921.5074	6107
923.8831	6128
926.2562	6074
928.6287	6080
931.0005	6079
933.3757	6048
935.7462	6127
938.1162	6091
940.4855	6057
942.8542	6119
945.2242	6097
947.5916	6310
949.9584	6430
952.3266	6606
954.6921	6847
957.0571	6954
959.4233	7196
961.787	7483
964.15	7406
966.5125	7299
968.8742	7050
971.2354	6597
973.5959	6529
975.9559	6363
978.3151	6119
980.6738	6116
983.0338	6063
985.3912	5944
987.7461	5897
990.1022	5905
992.4578	5899
994.8127	5941
997.1689	5876
999.5207	5952
1001.874	5990
1004.226	5962
1006.576	5870
1008.929	5907
1011.28	5966
1013.628	6053
1015.977	5957
1018.324	5868
1020.674	5814
1023.019	5864
1025.366	5969
1027.713	6005
1030.056	5995
1032.399	5886
1034.746	5975
1037.087	6056
1039.431	5969
1041.771	6048
1044.113	6023
1046.454	6110
1048.793	6052
1051.133	5975
1053.471	5941
1055.807	6109
1058.146	5996
1060.483	6043
1062.818	6120
1065.153	6132
1067.489	6058
1069.822	6067
1072.156	6131
1074.488	6041
1076.82	6195
1079.15	6141
1081.48	6203
1083.814	6075
1086.143	6086
1088.471	6038
1090.799	6037
1093.126	5982
1095.452	6060
1097.78	6076
1100.105	6123
1102.43	6090
1104.754	6044
1107.077	6056
1109.4	5955
1111.722	6023
1114.044	6115
1116.365	5983
1118.685	5972
1121.005	6087
1123.324	5985
1125.643	6105
1127.961	6153
1130.278	6020
1132.595	6042
1134.911	6099
1137.226	6060
1139.541	6118
1141.854	5921
1144.167	6049
1146.482	6041
1148.793	6093
1151.105	6077
1153.414	5944
1155.725	5991
1158.033	6068
1160.344	6060
1162.651	6075
1164.959	5958
1167.265	6099
1169.572	6064
1171.878	5975
1174.184	6101
1176.488	6047
1178.79	6158
1181.094	6233
1183.396	6137
1185.699	6113
1188.001	6167
1190.301	6061
1192.6	5996
1194.9	6070
1197.2	5913
1199.497	6111
1201.794	6189
1204.09	6119
1206.387	6079
1208.684	6157
1210.978	6156
1213.272	6040
1215.565	6139
1217.858	6050
1220.15	6082
1222.443	6099
1224.734	6190
1227.024	6238
1229.313	6167
1231.602	6241
1233.892	6300
1236.18	6232
1238.467	6255
1240.754	6297
1243.04	6435
1245.325	6385
1247.612	6336
1249.896	6400
1252.178	6386
1254.461	6460
1256.743	6425
1259.027	6446
1261.308	6426
1263.587	6396
1265.867	6295
1268.146	6409
1270.425	6419
1272.703	6405
1274.981	6397
1277.256	6388
1279.532	6316
1281.808	6298
1284.083	6325
1286.358	6335
1288.63	6381
1290.904	6326
1293.175	6344
1295.449	6313
1297.719	6406
1299.99	6279
1302.259	6328
1304.529	6247
1306.798	6255
1309.065	6214
1311.333	6239
1313.599	6241
1315.866	6231
1318.131	6211
1320.396	6391
1322.66	6296
1324.925	6249
1327.187	6094
1329.448	6321
1331.711	6393
1333.974	6288
1336.234	6315
1338.493	6304
1340.752	6366
1343.01	6234
1345.269	6279
1347.526	6288
1349.784	6346
1352.04	6344
1354.295	6323
1356.552	6312
1358.806	6195
1361.059	6336
1363.312	6269
1365.564	6247
1367.818	6360
1370.069	6294
1372.318	6339
1374.568	6287
1376.817	6398
1379.066	6363
1381.316	6374
1383.564	6375
1385.809	6298
1388.056	6427
1390.301	6481
1392.549	6439
1394.793	6578
1397.036	6545
1399.279	6564
1401.522	6581
1403.763	6656
1406.007	6508
1408.248	6595
1410.487	6654
1412.727	6728
1414.965	6632
1417.205	6534
1419.442	6572
1421.68	6529
1423.915	6493
1426.152	6561
1428.388	6577
1430.623	6450
1432.857	6551
1435.091	6518
1437.323	6648
1439.556	6571
1441.789	6669
1444.019	6532
1446.25	6620
1448.48	6780
1450.708	6653
1452.938	6736
1455.167	6734
1457.394	6905
1459.62	6688
1461.846	6773
1464.073	6665
1466.299	6543
1468.523	6689
1470.746	6511
1472.969	6400
1475.191	6494
1477.415	6503
1479.636	6345
1481.858	6409
1484.078	6514
1486.298	6419
1488.518	6285
1490.736	6377
1492.954	6416
1495.169	6271
1497.386	6317
1499.602	6319
1501.819	6345
1504.034	6331
1506.248	6281
1508.462	6344
1510.675	6334
1512.888	6177
1515.1	6376
1517.311	6337
1519.522	6199
1521.732	6278
1523.942	6230
1526.151	6255
1528.36	6263
1530.566	6262
1532.773	6301
1534.98	6235
1537.187	6320
1539.392	6315
1541.596	6348
1543.801	6352
1546.005	6300
1548.208	6221
1550.411	6364
1552.612	6275
1554.814	6320
1557.013	6324
1559.212	6388
1561.414	6502
1563.612	6348
1565.811	6405
1568.007	6456
1570.203	6357
1572.403	6402
1574.598	6356
1576.792	6428
1578.988	6442
1581.181	6399
1583.376	6570
1585.568	6572
1587.761	6503
1589.952	6488
1592.143	6424
1594.333	6523
1596.524	6474
1598.715	6550
1600.903	6493
1603.091	6615
1605.278	6502
1607.466	6478
1609.652	6707
1611.838	6479
1614.023	6572
1616.207	6460
1618.391	6524
1620.576	6345
1622.759	6606
1624.941	6579
1627.123	6483
1629.304	6525
1631.484	6711
1633.664	6575
1635.844	6669
1638.022	6667
1640.201	6572
1642.38	6511
1644.556	6660
1646.732	6695
1648.908	6472
1651.084	6654
1653.257	6654
1655.433	6635
1657.607	6592
1659.779	6820
1661.951	6656
1664.122	6781
1666.295	6674
1668.467	6740
1670.635	6724
1672.805	6627
1674.973	6561
1677.142	6693
1679.31	6795
1681.478	6649
1683.644	6658
1685.81	6627
1687.975	6613
1690.142	6644
1692.305	6597
1694.468	6544
1696.632	6610
1698.794	6623
1700.957	6569
1703.119	6524
1705.279	6588
1707.439	6467
1709.598	6576
1711.758	6480
1713.917	6585
1716.075	6465
1718.231	6504
1720.388	6403
1722.543	6451
1724.702	6524
1726.856	6421
1729.01	6480
1731.164	6396
1733.317	6528
1735.471	6579
1737.623	6571
1739.774	6469
1741.925	6552
1744.075	6493
1746.225	6367
1748.376	6383
1750.524	6685
1752.672	6593
1754.82	6441
1756.965	6406
1759.113	6411
1761.259	6470
1763.405	6538
1765.549	6449
1767.694	6470
1769.836	6479
1771.981	6538
1774.123	6424
1776.264	6601
1778.405	6589
1780.546	6545
1782.687	6451
1784.827	6616
1786.966	6601
1789.103	6549
1791.242	6629
1793.381	6487
1795.517	6568
1797.653	6534
1799.788	6561
1801.923	6680
1804.057	6638
1806.193	6536
1808.326	6661
1810.457	6558
1812.59	6507
1814.721	6576
1816.855	6627
1818.984	6443
1821.113	6544
1823.244	6499
1825.372	6594
1827.499	6522
1829.63	6432
1831.756	6591
1833.882	6579
1836.007	6342
1838.132	6557
1840.26	6531
1842.384	6399
1844.507	6505
1846.63	6409
1848.752	6518
1850.875	6540
1852.996	6457
1855.118	6537
1857.238	6464
1859.358	6486
1861.477	6432
1863.597	6413
1865.715	6445
1867.832	6540
1869.948	6452
1872.064	6428
1874.181	6483
1876.297	6392
1878.411	6567
1880.526	6486
1882.639	6522
1884.752	6537
1886.865	6486
1888.977	6395
1891.089	6567
1893.2	6545
1895.308	6490
1897.42	6540
1899.53	6595
1901.639	6569
1903.745	6458
1905.853	6644
1907.962	6565
1910.067	6412
1912.174	6517
1914.278	6598
1916.383	6690
1918.486	6498
1920.592	6663
1922.694	6656
1924.797	6524
1926.898	6553
1929	6601
1931.102	6571
1933.203	6553
1935.301	6643
1937.401	6567
1939.499	6643
1941.598	6514
1943.697	6559
1945.793	6496
1947.888	6546
1949.985	6565
1952.08	6698
1954.176	6608
1956.269	6496
1958.364	6554
1960.457	6615
1962.549	6634
1964.642	6671
1966.733	6653
1968.823	6551
1970.913	6607
1973.005	6671
1975.093	6597
1977.184	6511
1979.271	6568
1981.359	6507
1983.446	6536
1985.532	6497
1987.619	6545
1989.705	6585
1991.789	6538
1993.874	6557
1995.956	6460
1998.041	6528
2000.123	6513
2002.206	6582
2004.287	6661
2006.368	6545
2008.449	6542
2010.529	6594
2012.609	6526
2014.688	6458
2016.766	6540
2018.843	6523
2020.922	6607
2022.999	6576
2025.074	6522
2027.15	6611
2029.225	6538
2031.299	6564
2033.375	6484
2035.447	6490
2037.52	6516
2039.592	6479
2041.664	6559
2043.736	6466
2045.807	6619
2047.876	6533
2049.947	6573
2052.015	6584
2054.086	6475
2056.153	6522
2058.221	6471
2060.288	6550
2062.353	6553
2064.42	6361
2066.486	6551
2068.55	6539
2070.614	6433
2072.678	6574
2074.741	6521
2076.805	6480
2078.866	6563
2080.929	6490
2082.99	6549
2085.049	6568
2087.109	6528
2089.17	6555
2091.228	6538
2093.286	6663
2095.344	6427
2097.4	6535
2099.46	6514
2101.516	6500
2103.572	6639
2105.626	6558
2107.679	6648
2109.735	6405
2111.788	6591
2113.841	6602
2115.894	6558
2117.945	6634
2119.997	6503
2122.049	6461
2124.1	6512
2126.148	6490
2128.197	6536
2130.246	6660
2132.296	6533
2134.342	6512
2136.39	6604
2138.437	6521
2140.483	6523
2142.527	6450
2144.574	6520
2146.619	6541
2148.661	6452
2150.705	6489
2152.747	6534
2154.792	6529
2156.832	6563
2158.874	6554
2160.915	6543
2162.954	6355
2164.995	6506
2167.034	6526
2169.072	6481
2171.111	6524
2173.148	6388
2175.186	6422
2177.223	6434
2179.258	6340
2181.294	6477
2183.328	6463
2185.362	6484
2187.398	6309
2189.431	6439
2191.463	6462
2193.495	6520
2195.528	6350
2197.56	6376
2199.59	6419
2201.62	6484
2203.649	6289
2205.678	6282
2207.708	6385
2209.737	6535
2211.764	6344
2213.791	6276
2215.817	6355
2217.843	6285
2219.87	6293
2221.895	6317
2223.919	6382
2225.942	6285
2227.966	6485
2229.988	6328
2232.012	6237
2234.032	6326
2236.054	6327
2238.074	6253
2240.095	6375
2242.116	6331
2244.135	6364
2246.153	6315
2248.171	6340
2250.188	6288
2252.208	6324
2254.223	6388
2256.239	6264
2258.255	6340
2260.269	6408
2262.283	6307
2264.3	6340
2266.312	6323
2268.325	6285
2270.336	6355
2272.349	6389
2274.362	6359
2276.372	6387
2278.383	6393
2280.392	6311
2282.402	6392
2284.409	6322
2286.418	6265
2288.427	6371
2290.433	6238
2292.441	6281
2294.446	6354
2296.453	6249
2298.459	6392
2300.463	6255
2302.466	6323
2304.471	6406
2306.475	6312
2308.477	6291
2310.478	6246
2312.481	6342
2314.481	6359
2316.481	6221
2318.482	6300
2320.482	6351
2322.48	6248
2324.48	6336
2326.478	6167
2328.476	6211
2330.473	6281
2332.469	6209
2334.465	6293
2336.46	6267
2338.454	6240
2340.45	6272
2342.444	6166
2344.437	6221
2346.43	6168
2348.421	6260
2350.414	6210
2352.405	6300
2354.396	6265
2356.386	6243
2358.376	6218
2360.366	6239
2362.355	6175
2364.343	6170
2366.331	6149
2368.317	6103
2370.304	6199
2372.292	6160
2374.278	6097
2376.262	6260
2378.247	6127
2380.23	6122
2382.216	6158
2384.199	6101
2386.181	6143
2388.163	6239
2390.144	6151
2392.127	6049
2394.107	6045
2396.087	6130
2398.066	6195
2400.046	6155
2402.023	6021
2404.004	6102
2405.981	6028
2407.957	6129
2409.934	6114
2411.91	6074
2413.886	6131
2415.862	6197
2417.836	6033
2419.809	6087
2421.784	6070
2423.756	6107
2425.73	5974
2427.701	6120
2429.672	6144
2431.644	6100
2433.615	5987
2435.586	6087
2437.555	6129
2439.523	6111
2441.491	6073
2443.459	6172
2445.428	6154
2447.395	6001
2449.361	6129
2451.327	6163
2453.292	6083
2455.257	6051
2457.223	6190
2459.187	6013
2461.15	6146
2463.113	6004
2465.076	6194
2467.039	5980
2468.999	6041
2470.96	5984
2472.921	6133
2474.881	6030
2476.841	6000
2478.8	6167
2480.759	6083
2482.717	5994
2484.675	6052
2486.63	5923
2488.589	6080
2490.545	6012
2492.5	5973
2494.455	6116
2496.408	5932
2498.364	5942
2500.318	6054
2502.27	6037
2504.223	5910
2506.174	5983
2508.126	6058
2510.078	6015
2512.03	6056
2513.979	5902
2515.927	5916
2517.877	6012
2519.826	6000
2521.775	6043
2523.722	6009
2525.668	6089
2527.616	5977
2529.561	5919
2531.508	6028
2533.452	5993
2535.398	5950
2537.342	5855
2539.284	5898
2541.229	6115
2543.173	6041
2545.114	5955
2547.055	5927
2548.996	6030
2550.938	5821
2552.878	6004
2554.817	5953
2556.756	5946
2558.695	5869
2560.633	5956
2562.572	5849
2564.509	6074
2566.445	5995
2568.382	5950
2570.317	6009
2572.254	5948
2574.189	6046
2576.123	5868
2578.057	5984
2579.99	5939
2581.923	5884
2583.855	5881
2585.788	6001
2587.719	5890
2589.65	5981
2591.579	5948
2593.511	6022
2595.44	6018
2597.37	5899
2599.297	6113
2601.225	5972
2603.153	5892
2605.08	6037
2607.007	5973
2608.932	5984
2610.858	6026
2612.782	6028
2614.709	5944
2616.632	5903
2618.556	5857
2620.478	5855
2622.401	5898
2624.324	5984
2626.247	5956
2628.167	6025
2630.088	5955
2632.008	5938
2633.928	6026
2635.848	5929
2637.766	6082
2639.684	5948
2641.603	5931
2643.519	5989
2645.437	6032
2647.353	6033
2649.27	5807
2651.184	5913
2653.099	6126
2655.014	5967
2656.928	5967
2658.842	6071
2660.755	5971
2662.667	5972
2664.579	5967
2666.491	5875
2668.402	5976
2670.312	5925
2672.222	5898
2674.132	5904
2676.042	5946
2677.951	5952
2679.859	5956
2681.766	5980
2683.674	5948
2685.582	5902
2687.488	5843
2689.392	5979
2691.298	5945
2693.202	5895
2695.107	5896
2697.012	5966
2698.914	5932
2700.817	5821
2702.72	5849
2704.622	5924
2706.524	5886
2708.425	5892
2710.326	5959
2712.225	6035
2714.125	5646
2716.024	5914
2717.923	5885
2719.822	5807
2721.719	5826
2723.616	5839
2725.512	5933
2727.41	5787
2729.305	5845
2731.201	5762
2733.095	5862
2734.99	5967
2736.884	5904
2738.778	5733
2740.67	5892
2742.562	5763
2744.455	5898
2746.346	5883
2748.238	5811
2750.129	5845
2752.018	5743
2753.907	5851
2755.797	5786
2757.687	5854
2759.575	5738
2761.462	5897
2763.349	5891
2765.237	5814
2767.124	5882
2769.009	5785
2770.894	5724
2772.779	5691
2774.663	5853
2776.547	5864
2778.431	5783
2780.314	5745
2782.197	5730
2784.078	5751
2785.96	5696
2787.842	5812
2789.723	5802
2791.603	5750
2793.483	5766
2795.362	5876
2797.241	5833
2799.121	5723
2800.997	5752
2802.874	5882
2804.751	5677
2806.628	5797
2808.506	5812
2810.38	5688
2812.255	5756
2814.13	5753
2816.003	5670
2817.878	5676
2819.752	5841
2821.623	5758
2823.496	5707
2825.368	5770
2827.238	5751
2829.111	5865
2830.98	5712
2832.851	5688
2834.719	5865
2836.589	5737
2838.458	5744
2840.327	5821
2842.193	5871
2844.061	5741
2845.927	5766
2847.794	5820
2849.66	5882
2851.525	5953
2853.39	5807
2855.254	5850
2857.117	5955
2858.983	5906
2860.845	5905
2862.707	5959
2864.569	6074
2866.431	6133
2868.293	6085
2870.154	6048
2872.013	6146
2873.873	6151
2875.733	6189
2877.592	6339
2879.451	6243
2881.309	6291
2883.166	6362
2885.022	6534
2886.879	6486
2888.736	6423
2890.591	6594
2892.446	6519
2894.301	6574
2896.155	6479
2898.009	6535
2899.863	6437
2901.716	6510
2903.568	6410
2905.419	6478
2907.27	6475
2909.123	6630
2910.973	6457
2912.824	6607
2914.673	6511
2916.521	6663
2918.372	6589
2920.22	6927
2922.067	6749
2923.914	6858
2925.761	6814
2927.607	7028
2929.455	7060
2931.301	7127
2933.144	7109
2934.99	7174
2936.833	7239
2938.678	7368
2940.522	7221
2942.364	7485
2944.207	7500
2946.048	7449
2947.891	7600
2949.731	7570
2951.571	7620
2953.412	7566
2955.25	7403
2957.09	7443
2958.93	7297
2960.767	7323
2962.606	7242
2964.443	7075
2966.279	7167
2968.116	6943
2969.953	6861
2971.788	6898
2973.623	6730
2975.457	6725
2977.292	6700
2979.127	6618
2980.959	6475
2982.792	6386
2984.624	6467
2986.455	6536
2988.288	6331
2990.119	6389
2991.949	6300
2993.779	6414
2995.608	6212
2997.439	6175
2999.268	6231
3001.096	6031
3002.923	6093
3004.751	5959
3006.578	5951
3008.406	5954
3010.232	5881
3012.057	5912
3013.883	5813
3015.706	5808
3017.532	5763
3019.356	5727
3021.179	5659
3023.002	5651
3024.823	5567
3026.646	5735
3028.469	5546
3030.289	5542
3032.11	5548
3033.93	5651
3035.749	5438
3037.57	5520
3039.39	5482
3041.207	5610
3043.026	5485
3044.842	5513
3046.661	5498
3048.477	5510
3050.294	5527
3052.109	5435
3053.925	5494
3055.739	5445
3057.555	5558
3059.368	5486
3061.181	5436
3062.995	5492
3064.807	5531
3066.62	5356
3068.433	5437
3070.243	5504
3072.054	5418
3073.865	5502
3075.675	5400
3077.485	5433
3079.293	5351
3081.102	5429
3082.911	5447
3084.719	5298
3086.527	5320
3088.333	5388
3090.139	5416
3091.945	5325
3093.75	5344
3095.557	5424
3097.361	5440
3099.165	5385
3100.969	5377
3102.772	5308
3104.575	5314
3106.379	5354
3108.181	5232
3109.982	5342
3111.783	5204
3113.584	5378
3115.386	5342
3117.186	5240
3118.985	5338
3120.783	5252
3122.582	5212
3124.381	5257
3126.179	5181
3127.975	5250
3129.772	5122
3131.569	5251
3133.365	5187
3135.161	5332
3136.956	5245
3138.751	5321
3140.544	5137
3142.338	5228
3144.132	5137
3145.925	5124
3147.717	5143
3149.509	5229
3151.301	5235
3153.091	5227
3154.884	5115
3156.673	5222
3158.462	5134
3160.252	5203
3162.041	5143
3163.831	5137
3165.618	5132
3167.405	5110
3169.193	5095
3170.979	5114
3172.767	5204
3174.553	5172
3176.338	5145
3178.123	5191
3179.907	5221
3181.692	5253
3183.477	5100
3185.259	5099
3187.042	5106
3188.824	5171
3190.607	5152
3192.389	5184
3194.17	5152
3195.951	5107
3197.73	5104
3199.51	5164
3201.289	5093
3203.07	5031
3204.848	5016
3206.626	5120
3208.403	5135
3210.18	5202
3211.959	5052
3213.735	5120
3215.511	5110
3217.285	5111
3219.06	5221
3220.836	5147
3222.611	4994
3224.384	5039
3226.158	5046
3227.929	5166
3229.702	5077
3231.476	5055
3233.248	5074
3235.018	5039
3236.789	5174
3238.56	5149
3240.33	5103
3242.1	5061
3243.869	5140
3245.637	5067
3247.405	5047
3249.172	5185
3250.941	5024
3252.707	5027
3254.474	5079
3256.24	5086
3258.006	5067
3259.772	5127
3261.537	5061
3263.301	5153
3265.065	5021
3266.828	4968
3268.592	5080
3270.355	5186
3272.117	5005
3273.878	5026
3275.64	5145
3277.401	5024
3279.162	5148
3280.922	5091
3282.682	5092
3284.441	5209
3286.199	5135
3287.959	5088
3289.716	5066
3291.475	5206
3293.232	5083
3294.988	5081
3296.744	5045
3298.501	5102
3300.256	5000
3302.011	5074
3303.766	5108
3305.52	5163
3307.275	5171
3309.028	5089
3310.781	5028
3312.533	5062
3314.285	5037
3316.038	5021
3317.789	5004
3319.54	4998
3321.289	5090
3323.039	4994
3324.789	5066
3326.539	5030
3328.288	5051
3330.035	5076
3331.783	5044
3333.531	5144
3335.28	5128
3337.025	5046
3338.771	5035
3340.518	5080
3342.262	5029
3344.009	5096
3345.753	5117
3347.497	4965
3349.24	5031
3350.983	5002
3352.726	4970
3354.469	4940
3356.212	4994
3357.952	5003
3359.694	5034
3361.434	4989
3363.176	4866
3364.916	5017
3366.654	4926
3368.394	4945
3370.132	4966
3371.871	4938
3373.61	4944
3375.346	4900
3377.083	4867
3378.82	4920
3380.556	4898
3382.292	4853
3384.027	4910
3385.763	4845
3387.497	4859
3389.231	5010
3390.965	4923
3392.698	4858
3394.431	4840
3396.164	4904
3397.896	4771
3399.627	4741
3401.36	4843
3403.09	4871
3404.82	4811
3406.55	4840
3408.279	4876
3410.01	4795
3411.738	4845
3413.467	4880
3415.194	4815
3416.92	4829
3418.647	4937
3420.375	4831
3422.102	4773
3423.827	4787
3425.553	4857
3427.277	4866
3429.003	4779
3430.727	4709
3432.451	4750
3434.173	4779
3435.896	4757
3437.62	4770
3439.343	4760
3441.063	4802
3442.785	4741
3444.505	4714
3446.226	4756
3447.948	4725
3449.666	4721
3451.386	4756
3453.104	4797
3454.823	4661
3456.541	4658
3458.259	4680
3459.976	4666
3461.693	4678
3463.408	4651
3465.125	4661
3466.841	4597
3468.556	4611
3470.271	4706
3471.985	4648
3473.698	4663
3475.414	4641
3477.126	4591
3478.838	4615
3480.55	4547
3482.263	4596
3483.975	4644
3485.686	4611
3487.396	4640
3489.106	4608
3490.817	4568
3492.526	4632
3494.236	4543
3495.944	4552
3497.652	4482
3499.359	4555
3501.066	4542
3502.775	4464
3504.481	4414
3506.187	4493
3507.893	4529
3509.598	4378
3511.304	4515
3513.009	4460
3514.713	4498
3516.417	4407
3518.12	4467
3519.821	4453
3521.525	4453
3523.228	4506
3524.929	4390
3526.631	4373
3528.33	4459
3530.032	4403
3531.733	4421
3533.433	4514
3535.131	4397
3536.83	4590
3538.529	4412
3540.227	4433
3541.925	4376
3543.623	4421
3545.319	4385
3547.016	4461
3548.712	4379
3550.408	4319
3552.103	4352
3553.798	4424
3555.491	4383
3557.188	4369
3558.88	4311
3560.574	4314
3562.266	4414
3563.959	4426
3565.651	4324
3567.343	4307
3569.035	4243
3570.725	4403
3572.415	4286
3574.106	4341
3575.797	4221
3577.485	4226
3579.174	4296
3580.863	4196
3582.551	4188
3584.238	4241
3585.926	4284
3587.613	4311
3589.3	4086
3590.986	4209
3592.671	4256
3594.357	4175
3596.042	4253
3597.726	4175
3599.41	4201
3601.094	4157
3602.778	4119
3604.461	4200
3606.143	4156
3607.825	4087
3609.507	4165
3611.188	4112
3612.87	4130
3614.551	4190
3616.229	4085
3617.909	4019
3619.589	4054
3621.269	4176
3622.948	4141
3624.625	4028
3626.302	4039
3627.98	4063
3629.657	4054
3631.334	3937
3633.01	4043
3634.686	4151
3636.361	3951
3638.036	4114
3639.712	4064
3641.385	4032
3643.06	4005
3644.732	4093
3646.405	4033
3648.08	3977
3649.751	4055
3651.424	3976
3653.094	3998
3654.766	3967
3656.436	4033
3658.106	3976
3659.777	3955
3661.446	3880
3663.115	3918
3664.783	3990
3666.452	3962
3668.121	3922
3669.788	3934
3671.454	3957
3673.121	3924
3674.789	3895
3676.455	3919
3678.12	3908
3679.784	3880
3681.45	3948
3683.114	3948
3684.779	3897
3686.442	3948
3688.105	3926
3689.768	3879
3691.43	3908
3693.093	3945
3694.754	3977
3696.415	3880
3698.076	3941
3699.736	3902
3701.396	3906
3703.057	3891
3704.716	3808
3706.375	3857
3708.034	3853
3709.692	3799
3711.351	3808
3713.008	3944
3714.665	3891
3716.321	3850
3717.977	3862
3719.634	3766
3721.29	3812
3722.945	3919
3724.598	3860
3726.253	3905
3727.907	3808
3729.561	3859
3731.214	3828
3732.867	3807
3734.518	3871
3736.171	3792
3737.824	3763
3739.474	3822
3741.125	3892
3742.775	3789
3744.425	3833
3746.074	3769
3747.725	3846
3749.373	3852
3751.022	3799
3752.669	3810
3754.318	3798
3755.966	3814
3757.612	3779
3759.259	3819
3760.905	3731
3762.55	3808
3764.197	3729
3765.842	3792
3767.486	3723
3769.131	3698
3770.774	3826
3772.417	3754
3774.061	3643
3775.705	3750
3777.347	3670
3778.988	3776
3780.629	3794
3782.271	3710
3783.912	3675
3785.552	3718
3787.192	3729
3788.831	3746
3790.472	3711
3792.112	3732
3793.75	3627
3795.388	3642
3797.024	3609
3798.661	3657
3800.3	3668
3801.936	3672
3803.572	3663
3805.208	3522
3806.844	3662
3808.48	3638
3810.115	3686
3811.748	3576
3813.382	3632
3815.016	3673
3816.649	3629
3818.283	3679
3819.914	3567
3821.547	3631
3823.178	3603
3824.809	3648
3826.441	3703
3828.072	3619
3829.701	3615
3831.331	3647
3832.96	3588
3834.591	3627
3836.219	3550
3837.847	3712
3839.475	3576
3841.102	3570
3842.729	3589
3844.357	3570
3845.984	3551
3847.609	3550
3849.234	3537
3850.86	3569
3852.485	3537
3854.11	3526
3855.734	3599
3857.357	3635
3858.981	3553
3860.603	3581
3862.227	3597
3863.848	3516
3865.471	3545
3867.092	3527
3868.713	3520
3870.334	3456
3871.954	3576
3873.575	3499
3875.194	3502
3876.813	3449
3878.433	3536
3880.051	3469
3881.669	3513
3883.286	3537
3884.904	3516
3886.52	3529
3888.138	3443
3889.754	3489
3891.37	3498
3892.985	3483
3894.6	3570
3896.216	3496
3897.831	3501
3899.444	3520
3901.058	3484
3902.67	3499
3904.283	3487
3905.897	3509
3907.509	3499
3909.121	3476
3910.731	3469
3912.342	3440
3913.954	3452
3915.563	3485
3917.174	3546
3918.783	3502
3920.391	3487
3922.002	3454
3923.611	3393
3925.218	3425
3926.826	3475
3928.432	3403
3930.039	3511
3931.647	3523
3933.253	3435
3934.859	3438
3936.464	3510
3938.068	3394
3939.675	3418
3941.278	3365
3942.883	3463
3944.486	3445
3946.089	3495
3947.692	3452
3949.295	3417
3950.898	3382
3952.499	3415
3954.1	3409
3955.7	3406
3957.303	3397
3958.903	3329
3960.502	3535
3962.101	3395
3963.7	3358
3965.301	3378
3966.899	3362
3968.497	3441
3970.094	3320
3971.691	3366
3973.288	3411
3974.885	3369
3976.481	3359
3978.077	3340
3979.672	3298
3981.267	3387
3982.863	3339
3984.457	3371
3986.051	3334
3987.645	3264
3989.238	3313
3990.831	3325
3992.425	3249
3994.017	3334
3995.607	3322
3997.199	3297
3998.79	3283
4000.382	3271
4001.973	3289
4003.561	3285
4005.151	3270
4006.741	3295
4008.331	3340
4009.918	3266
4011.507	3243
4013.095	3287
4014.681	3323
4016.269	3156
4017.856	3229
4019.443	3236
4021.028	3246
4022.614	3166
4024.199	3188
4025.785	3205
4027.37	3203
4028.953	3181
4030.536	3197
4032.12	3170
4033.704	3184
4035.287	3213
4036.869	3242
4038.45	3147
4040.032	3199
4041.613	3186
4043.195	3236
4044.776	3231
4046.356	3198
4047.935	3111
4049.515	3137
4051.095	3114
4052.674	3213
4054.251	3091
4055.829	3199
4057.406	3149
4058.985	3219
4060.562	3177
4062.139	3072
4063.715	3195
4065.29	3112
4066.865	3144
4068.442	3075
4070.016	3202
4071.59	3165
4073.164	3192
4074.738	3147
4076.312	3144
4077.885	3070
4079.458	3121
4081.03	3139
4082.602	3149
4084.173	3186
4085.745	3039
4087.315	3095
4088.886	3140
4090.456	3220
4092.026	3065
4093.596	3045
4095.165	3167
4096.734	3103
4098.301	3083
4099.869	3129
4101.437	3105
4103.006	3030
4104.572	3029
4106.139	3093
4107.704	3123
4109.27	3085
4110.837	3040
4112.401	3063
4113.966	3128
4115.53	3009
4117.094	3009
4118.659	3068
4120.223	3012
4121.785	2971
4123.347	3071
4124.909	2986
4126.471	2992
4128.034	3010
4129.595	3039
4131.155	2975
4132.716	3033
4134.275	3009
4135.836	2989
4137.395	2998
4138.955	2993
4140.513	2912
4142.071	2993
4143.628	2924
4145.188	2929
4146.745	2987
4148.302	2877
4149.858	2992
4151.414	2882
4152.971	3023
4154.526	2944
4156.081	2971
4157.635	2993
4159.189	2923
4160.745	2915
4162.298	2943
4163.852	2953
4165.405	2978
4166.957	2909
4168.51	2956
4170.063	2978
4171.614	2923
4173.166	2861
4174.717	2910
4176.267	2872
4177.817	2924
4179.368	2922
4180.917	2882
4182.466	2987
4184.016	2873
4185.564	2947
4187.112	2902
4188.66	2863
4190.207	2843
4191.754	2843
4193.301	2887
4194.848	2848
4196.394	2891
4197.94	2881
4199.484	2893
4201.03	2921
4202.575	2820
4204.12	2845
4205.663	2808
4207.207	2857
4208.75	2881
4210.292	2848
4211.836	2849
4213.378	2842
4214.92	2880
4216.46	2795
4218.002	2887
4219.544	2804
4221.083	2847
4222.625	2729
4224.164	2833
4225.703	2810
4227.244	2767
4228.782	2818
4230.32	2849
4231.857	2768
4233.395	2846
4234.933	2818
4236.471	2825
4238.007	2823
4239.542	2846
4241.078	2774
4242.614	2802
4244.15	2783
4245.685	2786
4247.219	2800
4248.753	2842
4250.287	2765
4251.82	2829
4253.354	2784
4254.887	2749
4256.419	2775
4257.951	2845
4259.483	2752
4261.016	2750
4262.547	2774
4264.078	2748
4265.608	2752
4267.137	2732
4268.668	2853
4270.197	2778
4271.727	2676
4273.254	2784
4274.783	2773
4276.311	2671
4277.84	2800
4279.366	2700
4280.894	2676
4282.42	2753
4283.946	2778
4285.473	2703
4286.998	2758
4288.523	2761
4290.047	2798
4291.572	2733
4293.096	2721
4294.622	2721
4296.144	2711
4297.668	2721
4299.19	2680
4300.713	2702
4302.236	2758
4303.758	2722
4305.279	2691
4306.799	2683
4308.321	2714
4309.842	2734
4311.361	2685
4312.882	2718
4314.401	2683
