400.0961	4177
402.6185	4099
405.1424	4072
407.6635	4101
410.1838	4070
412.7035	4106
415.2225	4185
417.7388	4220
420.2585	4228
422.7754	4236
425.2917	4231
427.8072	4337
430.3221	4453
432.8363	4422
435.3498	4347
437.8626	4446
440.3727	4433
442.8841	4403
445.3969	4448
447.907	4421
450.4142	4303
452.9229	4395
455.4289	4315
457.9362	4343
460.4449	4316
462.9488	4399
465.454	4374
467.9566	4360
470.4604	4353
472.9637	4329
475.4662	4371
477.966	4362
480.4671	4409
482.9656	4404
485.4633	4497
487.9645	4396
490.4608	4401
492.9566	4431
495.4536	4456
497.948	4463
500.4437	4538
502.9387	4446
505.431	4578
507.9226	4431
510.4136	4417
512.9079	4483
515.3975	4470
517.8864	4427
520.3746	4449
522.8622	4495
525.3491	4438
527.8394	4454
530.3249	4636
532.8098	4582
535.2939	4544
537.7774	4556
540.2623	4624
542.7444	4574
545.2259	4542
547.7067	4508
550.1868	4606
552.6683	4549
555.147	4486
557.6231	4526
560.1005	4502
562.5773	4535
565.0534	4478
567.5308	4552
570.0056	4641
572.4776	4703
574.951	4691
577.4237	4703
579.8978	4703
582.3671	4789
584.8378	4814
587.3079	4807
589.7773	4692
592.244	4689
594.714	4706
597.1793	4780
599.6461	4769
602.1121	4625
604.5754	4673
607.0421	4801
609.5042	4607
611.9675	4702
614.4282	4656
616.8902	4703
619.3515	4663
621.8122	4664
624.2702	4657
626.7296	4698
629.1863	4667
631.6423	4644
634.1017	4642
636.5563	4720
639.0104	4665
641.4658	4657
643.9185	4722
646.3725	4738
648.8239	4741
651.2766	4688
653.7266	4633
656.176	4822
658.6247	4696
661.0748	4702
663.5242	4690
665.9709	4822
668.417	4780
670.8624	4803
673.3092	4912
675.7533	4767
678.1968	4731
680.6395	4887
683.0817	4779
685.5251	4807
687.9659	4878
690.4061	4822
692.8456	4887
695.2844	4865
697.7226	4860
700.1621	4905
702.599	4912
705.0332	4884
707.4688	4876
709.9036	4861
712.3399	4953
714.7735	4861
717.2044	4919
719.6367	5036
722.0683	4896
724.4993	5048
726.9296	5014
729.3593	4981
731.7883	5062
734.2147	5013
736.6423	5047
739.0714	5142
741.4958	5125
743.9216	5079
746.3447	5073
748.7691	5112
751.1929	5051
753.616	5192
756.0366	5157
758.4584	5258
760.8776	5117
763.2982	5193
765.718	5138
768.1373	5177
770.5539	5223
772.9698	5169
775.3871	5232
777.8038	5168
780.2178	5210
782.6332	5163
785.0459	5145
787.458	5143
789.8714	5232
792.2842	5252
794.6943	5301
797.1038	5223
799.5127	5210
801.9209	5223
804.3324	5153
806.7393	5254
809.1456	5227
811.5513	5355
813.9562	5173
816.3625	5258
818.7663	5256
821.1693	5302
823.5718	5264
825.9735	5345
828.3746	5256
830.7771	5339
833.177	5163
835.5762	5343
837.9747	5400
840.3727	5227
842.772	5299
845.1666	5347
847.5626	5424
849.958	5437
852.3527	5489
854.7488	5517
857.1403	5497
859.5331	5516
861.9253	5509
864.3168	5475
866.7057	5517
869.098	5546
871.4876	5443
873.8746	5387
876.263	5458
878.6487	5386
881.0378	5440
883.4243	5445
885.8081	5374
888.1933	5365
890.5759	5456
892.9598	5400
895.343	5301
897.7256	5402
900.1057	5396
902.4871	5281
904.8659	5363
907.246	5513
909.6254	5531
912.0023	5504
914.3786	5626
916.7562	5667
919.1331	5819
921.5074	5871
923.8831	5978
926.2562	5966
928.6287	5958
931.0005	5925
933.3757	5876
935.7462	5770
938.1162	5796
940.4855	5920
942.8542	5824
945.2242	6083
947.5916	6055
949.9584	6095
952.3266	6127
954.6921	6525
957.0571	6699
959.4233	6867
961.787	7135
964.15	7043
966.5125	6995
968.8742	6723
971.2354	6386
973.5959	6201
975.9559	6000
978.3151	5853
980.6738	5802
983.0338	5740
985.3912	5673
987.7461	5689
990.1022	5630
992.4578	5602
994.8127	5628
997.1689	5648
999.5207	5599
1001.874	5638
1004.226	5708
1006.576	5787
1008.929	5758
1011.28	5700
1013.628	5656
1015.977	5557
1018.324	5546
1020.674	5656
1023.019	5692
1025.366	5708
1027.713	5706
1030.056	5718
1032.399	5783
1034.746	5838
1037.087	5840
1039.431	5763
1041.771	5737
1044.113	5738
1046.454	5676
1048.793	5770
1051.133	5690
1053.471	5824
1055.807	5766
1058.146	5736
1060.483	5633
1062.818	5819
1065.153	5820
1067.489	5818
1069.822	5870
1072.156	5793
1074.488	5819
1076.82	5797
1079.15	5844
1081.48	5765
1083.814	5717
1086.143	5745
1088.471	5750
1090.799	5818
1093.126	5640
1095.452	5733
1097.78	5808
1100.105	5747
1102.43	5740
1104.754	5731
1107.077	5737
1109.4	5775
1111.722	5695
1114.044	5675
1116.365	5786
1118.685	5735
1121.005	5711
1123.324	5813
1125.643	5787
1127.961	5903
1130.278	5722
1132.595	5818
1134.911	5820
1137.226	5774
1139.541	5718
1141.854	5824
1144.167	5689
1146.482	5812
1148.793	5806
1151.105	5771
1153.414	5747
1155.725	5821
1158.033	5768
1160.344	5724
1162.651	5791
1164.959	5772
1167.265	5714
1169.572	5763
1171.878	5745
1174.184	5839
1176.488	5880
1178.79	5844
1181.094	5846
1183.396	5867
1185.699	5775
1188.001	5800
1190.301	5768
1192.6	5771
1194.9	5731
1197.2	5868
1199.497	5897
1201.794	5886
1204.09	5734
1206.387	5789
1208.684	5811
1210.978	5710
1213.272	5762
1215.565	5825
1217.858	5728
1220.15	5875
1222.443	5805
1224.734	5889
1227.024	5955
1229.313	5921
1231.602	6021
1233.892	5981
1236.18	6056
1238.467	5995
1240.754	6145
1243.04	6135
1245.325	6065
1247.612	6009
1249.896	6168
1252.178	6226
1254.461	6235
1256.743	6173
1259.027	6111
1261.308	6025
1263.587	6125
1265.867	6183
1268.146	6182
1270.425	6218
1272.703	6102
1274.981	6206
1277.256	6131
1279.532	6046
1281.808	6074
1284.083	6088
1286.358	6025
1288.63	6071
1290.904	6031
1293.175	6131
1295.449	5970
1297.719	6008
1299.99	5980
1302.259	6030
1304.529	5986
1306.798	6083
1309.065	5969
1311.333	6110
1313.599	5997
1315.866	6037
1318.131	6025
1320.396	5958
1322.66	6061
1324.925	6094
1327.187	6047
1329.448	6173
1331.711	6195
1333.974	6219
1336.234	6112
1338.493	6155
1340.752	6131
1343.01	5899
1345.269	6085
1347.526	6031
1349.784	5993
1352.04	5986
1354.295	6047
1356.552	6104
1358.806	6014
1361.059	6096
1363.312	6025
1365.564	6053
1367.818	6121
1370.069	6042
1372.318	6038
1374.568	6059
1376.817	6021
1379.066	6127
1381.316	6060
1383.564	6137
1385.809	6083
1388.056	6124
1390.301	6214
1392.549	6256
1394.793	6454
1397.036	6359
1399.279	6475
1401.522	6494
1403.763	6508
1406.007	6440
1408.248	6452
1410.487	6348
1412.727	6411
1414.965	6321
1417.205	6349
1419.442	6297
1421.68	6303
1423.915	6391
1426.152	6280
1428.388	6320
1430.623	6240
1432.857	6336
1435.091	6426
1437.323	6378
1439.556	6347
1441.789	6395
1444.019	6414
1446.25	6373
1448.48	6465
1450.708	6515
1452.938	6491
1455.167	6606
1457.394	6475
1459.62	6599
1461.846	6423
1464.073	6294
1466.299	6384
1468.523	6400
1470.746	6263
1472.969	6214
1475.191	6174
1477.415	6216
1479.636	6092
1481.858	6128
1484.078	6046
1486.298	6001
1488.518	5987
1490.736	6104
1492.954	6049
1495.169	6029
1497.386	6034
1499.602	6039
1501.819	5946
1504.034	6017
1506.248	5933
1508.462	5889
1510.675	5986
1512.888	6039
1515.1	6006
1517.311	6045
1519.522	5991
1521.732	5958
1523.942	6018
1526.151	6099
1528.36	5954
1530.566	6067
1532.773	6008
1534.98	5923
1537.187	5984
1539.392	6036
1541.596	6036
1543.801	6097
1546.005	6005
1548.208	6033
1550.411	6020
1552.612	6090
1554.814	6114
1557.013	6053
1559.212	6146
1561.414	6188
1563.612	6125
1565.811	6104
1568.007	6072
1570.203	6167
1572.403	6179
1574.598	6182
1576.792	6234
1578.988	6212
1581.181	6229
1583.376	6129
1585.568	6344
1587.761	6273
1589.952	6267
1592.143	6167
1594.333	6170
1596.524	6243
1598.715	6222
1600.903	6263
1603.091	6323
1605.278	6247
1607.466	6332
1609.652	6247
1611.838	6240
1614.023	6198
1616.207	6316
1618.391	6255
1620.576	6196
1622.759	6273
1624.941	6233
1627.123	6335
1629.304	6308
1631.484	6348
1633.664	6329
1635.844	6342
1638.022	6444
1640.201	6357
1642.38	6317
1644.556	6253
1646.732	6219
1648.908	6369
1651.084	6243
1653.257	6418
1655.433	6402
1657.607	6307
1659.779	6432
1661.951	6290
1664.122	6463
1666.295	6427
1668.467	6416
1670.635	6447
1672.805	6372
1674.973	6480
1677.142	6462
1679.31	6405
1681.478	6520
1683.644	6530
1685.81	6370
1687.975	6268
1690.142	6389
1692.305	6255
1694.468	6368
1696.632	6240
1698.794	6245
1700.957	6246
1703.119	6118
1705.279	6172
1707.439	6182
1709.598	6241
1711.758	6121
1713.917	6091
1716.075	6292
1718.231	6179
1720.388	6269
1722.543	6112
1724.702	6163
1726.856	6250
1729.01	6224
1731.164	6247
1733.317	6199
1735.471	6212
1737.623	6177
1739.774	6167
1741.925	6156
1744.075	6230
1746.225	6273
1748.376	6100
1750.524	6169
1752.672	6180
1754.82	6190
1756.965	6269
1759.113	6114
1761.259	6203
1763.405	6184
1765.549	6172
1767.694	6187
1769.836	6136
1771.981	6189
1774.123	6176
1776.264	6169
1778.405	6189
1780.546	6170
1782.687	6179
1784.827	6311
1786.966	6321
1789.103	6257
1791.242	6272
1793.381	6259
1795.517	6181
1797.653	6237
1799.788	6237
1801.923	6103
1804.057	6234
1806.193	6177
1808.326	6334
1810.457	6192
1812.59	6185
1814.721	6241
1816.855	6419
1818.984	6135
1821.113	6252
1823.244	6296
1825.372	6230
1827.499	6209
1829.63	6260
1831.756	6192
1833.882	6211
1836.007	6259
1838.132	6236
1840.26	6155
1842.384	6130
1844.507	6199
1846.63	6177
1848.752	6156
1850.875	6203
1852.996	6221
1855.118	6156
1857.238	6128
1859.358	6220
1861.477	6186
1863.597	6113
1865.715	6149
1867.832	6181
1869.948	6096
1872.064	6160
1874.181	6158
1876.297	6128
1878.411	6166
1880.526	6086
1882.639	6317
1884.752	6132
1886.865	6143
1888.977	6193
1891.089	6255
1893.2	6138
1895.308	6203
1897.42	6243
1899.53	6232
1901.639	6265
1903.745	6153
1905.853	6313
1907.962	6185
1910.067	6229
1912.174	6269
1914.278	6208
1916.383	6155
1918.486	6263
1920.592	6282
1922.694	6344
1924.797	6210
1926.898	6223
1929	6256
1931.102	6256
1933.203	6279
1935.301	6251
1937.401	6212
1939.499	6328
1941.598	6330
1943.697	6270
1945.793	6223
1947.888	6328
1949.985	6271
1952.08	6363
1954.176	6331
1956.269	6329
1958.364	6200
1960.457	6251
1962.549	6325
1964.642	6199
1966.733	6319
1968.823	6276
1970.913	6203
1973.005	6250
1975.093	6260
1977.184	6214
1979.271	6149
1981.359	6240
1983.446	6199
1985.532	6108
1987.619	6112
1989.705	6248
1991.789	6176
1993.874	6172
1995.956	6257
1998.041	6203
2000.123	6059
2002.206	6316
2004.287	6241
2006.368	6160
2008.449	6211
2010.529	6125
2012.609	6209
2014.688	6224
2016.766	6104
2018.843	6086
2020.922	6259
2022.999	6190
2025.074	6164
2027.15	6152
2029.225	6205
2031.299	6155
2033.375	6077
2035.447	6228
2037.52	6201
2039.592	6240
2041.664	6135
2043.736	6299
2045.807	6237
2047.876	6171
2049.947	6272
2052.015	6227
2054.086	6156
2056.153	6290
2058.221	6172
2060.288	6150
2062.353	6185
2064.42	6197
2066.486	6174
2068.55	6176
2070.614	6218
2072.678	6238
2074.741	6241
2076.805	6261
2078.866	6222
2080.929	6222
2082.99	6171
2085.049	6270
2087.109	6334
2089.17	6142
2091.228	6219
2093.286	6148
2095.344	6209
2097.4	6201
2099.46	6173
2101.516	6216
2103.572	6262
2105.626	6330
2107.679	6278
2109.735	6175
2111.788	6128
2113.841	6268
2115.894	6117
2117.945	6209
2119.997	6314
2122.049	6146
2124.1	6136
2126.148	6230
2128.197	6283
2130.246	6254
2132.296	6121
2134.342	6165
2136.39	6212
2138.437	6240
2140.483	6167
2142.527	6187
2144.574	6132
2146.619	6062
2148.661	6159
2150.705	6243
2152.747	6211
2154.792	6161
2156.832	6126
2158.874	6162
2160.915	6097
2162.954	6127
2164.995	6188
2167.034	6144
2169.072	6081
2171.111	6067
2173.148	6116
2175.186	6060
2177.223	6104
2179.258	6182
2181.294	6093
2183.328	6149
2185.362	6199
2187.398	6021
2189.431	6038
2191.463	6072
2193.495	6075
2195.528	6045
2197.56	6004
2199.59	6081
2201.62	6028
2203.649	6054
2205.678	6216
2207.708	6119
2209.737	6056
2211.764	6046
2213.791	5900
2215.817	5995
2217.843	5905
2219.87	5998
2221.895	6022
2223.919	6055
2225.942	6046
2227.966	5998
2229.988	6036
2232.012	6145
2234.032	6101
2236.054	6064
2238.074	6008
2240.095	6032
2242.116	6090
2244.135	5961
2246.153	5930
2248.171	6037
2250.188	5921
2252.208	5958
2254.223	6086
2256.239	6005
2258.255	5992
2260.269	6031
2262.283	6081
2264.3	5972
2266.312	5921
2268.325	5912
2270.336	5994
2272.349	6081
2274.362	6038
2276.372	6131
2278.383	6019
2280.392	6057
2282.402	6112
2284.409	6064
2286.418	6009
2288.427	6037
2290.433	6020
2292.441	6031
2294.446	5978
2296.453	5854
2298.459	6090
2300.463	5872
2302.466	5893
2304.471	5981
2306.475	5999
2308.477	6070
2310.478	6038
2312.481	6050
2314.481	5933
2316.481	5945
2318.482	6018
2320.482	5871
2322.48	6010
2324.48	5970
2326.478	5897
2328.476	5954
2330.473	5979
2332.469	5918
2334.465	5901
2336.46	5844
2338.454	5900
2340.45	5914
2342.444	5928
2344.437	5803
2346.43	5943
2348.421	5932
2350.414	5888
2352.405	5836
2354.396	5945
2356.386	5887
2358.376	5816
2360.366	5785
2362.355	5809
2364.343	5849
2366.331	5796
2368.317	5895
2370.304	5833
2372.292	5847
2374.278	5757
2376.262	5937
2378.247	5940
2380.23	5914
2382.216	5788
2384.199	5775
2386.181	5767
2388.163	5789
2390.144	5945
2392.127	5799
2394.107	5939
2396.087	5760
2398.066	5795
2400.046	5842
2402.023	5832
2404.004	5778
2405.981	5767
2407.957	5796
2409.934	5726
2411.91	5786
2413.886	5825
2415.862	5848
2417.836	5845
2419.809	5618
2421.784	5735
2423.756	5866
2425.73	5849
2427.701	5842
2429.672	5784
2431.644	5854
2433.615	5743
2435.586	5774
2437.555	5713
2439.523	5817
2441.491	5843
2443.459	5785
2445.428	5763
2447.395	5836
2449.361	5836
2451.327	5789
2453.292	5780
2455.257	5628
2457.223	5730
2459.187	5745
2461.15	5813
2463.113	5664
2465.076	5700
2467.039	5683
2468.999	5726
2470.96	5677
2472.921	5805
2474.881	5657
2476.841	5638
2478.8	5720
2480.759	5759
2482.717	5639
2484.675	5776
2486.63	5597
2488.589	5723
2490.545	5635
2492.5	5729
2494.455	5705
2496.408	5730
2498.364	5676
2500.318	5516
2502.27	5605
2504.223	5663
2506.174	5744
2508.126	5684
2510.078	5634
2512.03	5653
2513.979	5785
2515.927	5679
2517.877	5765
2519.826	5704
2521.775	5662
2523.722	5596
2525.668	5557
2527.616	5574
2529.561	5763
2531.508	5580
2533.452	5729
2535.398	5666
2537.342	5619
2539.284	5622
2541.229	5663
2543.173	5613
2545.114	5655
2547.055	5665
2548.996	5654
2550.938	5687
2552.878	5592
2554.817	5693
2556.756	5642
2558.695	5581
2560.633	5528
2562.572	5563
2564.509	5718
2566.445	5671
2568.382	5577
2570.317	5616
2572.254	5607
2574.189	5641
2576.123	5648
2578.057	5612
2579.99	5605
2581.923	5659
2583.855	5784
2585.788	5742
2587.719	5669
2589.65	5602
2591.579	5612
2593.511	5613
2595.44	5679
2597.37	5582
2599.297	5636
2601.225	5597
2603.153	5667
2605.08	5588
2607.007	5600
2608.932	5667
2610.858	5662
2612.782	5612
2614.709	5627
2616.632	5673
2618.556	5644
2620.478	5721
2622.401	5623
2624.324	5613
2626.247	5666
2628.167	5618
2630.088	5613
2632.008	5595
2633.928	5553
2635.848	5758
2637.766	5578
2639.684	5759
2641.603	5641
2643.519	5639
2645.437	5636
2647.353	5653
2649.27	5511
2651.184	5682
2653.099	5717
2655.014	5495
2656.928	5668
2658.842	5659
2660.755	5641
2662.667	5721
2664.579	5558
2666.491	5729
2668.402	5536
2670.312	5523
2672.222	5579
2674.132	5648
2676.042	5515
2677.951	5626
2679.859	5703
2681.766	5675
2683.674	5590
2685.582	5600
2687.488	5594
2689.392	5590
2691.298	5551
2693.202	5614
2695.107	5557
2697.012	5552
2698.914	5611
2700.817	5496
2702.72	5441
2704.622	5552
2706.524	5493
2708.425	5579
2710.326	5538
2712.225	5611
2714.125	5525
2716.024	5656
2717.923	5583
2719.822	5542
2721.719	5627
2723.616	5489
2725.512	5537
2727.41	5588
2729.305	5641
2731.201	5574
2733.095	5490
2734.99	5508
2736.884	5523
2738.778	5544
2740.67	5569
2742.562	5571
2744.455	5560
2746.346	5458
2748.238	5519
2750.129	5433
2752.018	5495
2753.907	5472
2755.797	5618
2757.687	5500
2759.575	5476
2761.462	5591
2763.349	5530
2765.237	5590
2767.124	5510
2769.009	5563
2770.894	5555
2772.779	5540
2774.663	5473
2776.547	5423
2778.431	5522
2780.314	5498
2782.197	5439
2784.078	5459
2785.96	5514
2787.842	5389
2789.723	5566
2791.603	5484
2793.483	5486
2795.362	5510
2797.241	5469
2799.121	5382
2800.997	5387
2802.874	5453
2804.751	5561
2806.628	5385
2808.506	5486
2810.38	5478
2812.255	5507
2814.13	5386
2816.003	5495
2817.878	5518
2819.752	5530
2821.623	5476
2823.496	5463
2825.368	5428
2827.238	5437
2829.111	5561
2830.98	5447
2832.851	5510
2834.719	5475
2836.589	5466
2838.458	5398
2840.327	5478
2842.193	5583
2844.061	5579
2845.927	5593
2847.794	5569
2849.66	5605
2851.525	5648
2853.39	5628
2855.254	5659
2857.117	5632
2858.983	5626
2860.845	5710
2862.707	5688
2864.569	5800
2866.431	5829
2868.293	5761
2870.154	5751
2872.013	5888
2873.873	5928
2875.733	5942
2877.592	6026
2879.451	6181
2881.309	6214
2883.166	6280
2885.022	6318
2886.879	6331
2888.736	6304
2890.591	6475
2892.446	6510
2894.301	6466
2896.155	6536
2898.009	6490
2899.863	6380
2901.716	6407
2903.568	6294
2905.419	6274
2907.27	6255
2909.123	6253
2910.973	6363
2912.824	6389
2914.673	6488
2916.521	6539
2918.372	6575
2920.22	6602
2922.067	6618
2923.914	6703
2925.761	6771
2927.607	6687
2929.455	6805
2931.301	6811
2933.144	6831
2934.99	6923
2936.833	7055
2938.678	6982
2940.522	7177
2942.364	7298
2944.207	7265
2946.048	7501
2947.891	7479
2949.731	7637
2951.571	7651
2953.412	7557
2955.25	7454
2957.09	7387
2958.93	7299
2960.767	7162
2962.606	7192
2964.443	7220
2966.279	7055
2968.116	6963
2969.953	6787
2971.788	6781
2973.623	6605
2975.457	6627
2977.292	6536
2979.127	6429
2980.959	6335
2982.792	6197
2984.624	6242
2986.455	6181
2988.288	6206
2990.119	6096
2991.949	6135
2993.779	6066
2995.608	6013
2997.439	5918
2999.268	5985
3001.096	5798
3002.923	5816
3004.751	5811
3006.578	5737
3008.406	5718
3010.232	5491
3012.057	5599
3013.883	5559
3015.706	5506
3017.532	5418
3019.356	5390
3021.179	5439
3023.002	5425
3024.823	5439
3026.646	5354
3028.469	5395
3030.289	5339
3032.11	5195
3033.93	5301
3035.749	5246
3037.57	5259
3039.39	5289
3041.207	5158
3043.026	5260
3044.842	5124
3046.661	5311
3048.477	5294
3050.294	5130
3052.109	5163
3053.925	5187
3055.739	5229
3057.555	5270
3059.368	5202
3061.181	5200
3062.995	5157
3064.807	5263
3066.62	5203
3068.433	5326
3070.243	5184
3072.054	5252
3073.865	5096
3075.675	5118
3077.485	5197
3079.293	5192
3081.102	5201
3082.911	5180
3084.719	5175
3086.527	5151
3088.333	5071
3090.139	5086
3091.945	5069
3093.75	5079
3095.557	5156
3097.361	5136
3099.165	5075
3100.969	5039
3102.772	5066
3104.575	5023
3106.379	5063
3108.181	4957
3109.982	4918
3111.783	5042
3113.584	5057
3115.386	4938
3117.186	4891
3118.985	5047
3120.783	4955
3122.582	4961
3124.381	4930
3126.179	4962
3127.975	4926
3129.772	4928
3131.569	4901
3133.365	4902
3135.161	4966
3136.956	4980
3138.751	4803
3140.544	4870
3142.338	4881
3144.132	4898
3145.925	4961
3147.717	4933
3149.509	4847
3151.301	4890
3153.091	4769
3154.884	4877
3156.673	4878
3158.462	4812
3160.252	4883
3162.041	4969
3163.831	4938
3165.618	4831
3167.405	4799
3169.193	4925
3170.979	4885
3172.767	4942
3174.553	4906
3176.338	4879
3178.123	4910
3179.907	4777
3181.692	4925
3183.477	4919
3185.259	4870
3187.042	4805
3188.824	4818
3190.607	4875
3192.389	4882
3194.17	4908
3195.951	4864
3197.73	4867
3199.51	4853
3201.289	4889
3203.07	4834
3204.848	4795
3206.626	4789
3208.403	4841
3210.18	4833
3211.959	4887
3213.735	4914
3215.511	4850
3217.285	4819
3219.06	4867
3220.836	4869
3222.611	4805
3224.384	4762
3226.158	4869
3227.929	4962
3229.702	4796
3231.476	4764
3233.248	4803
3235.018	4823
3236.789	4910
3238.56	4873
3240.33	4803
3242.1	4913
3243.869	4866
3245.637	4789
3247.405	4859
3249.172	4926
3250.941	4792
3252.707	4852
3254.474	4927
3256.24	4813
3258.006	4909
3259.772	4769
3261.537	4858
3263.301	4899
3265.065	4944
3266.828	4775
3268.592	4843
3270.355	4794
3272.117	4840
3273.878	4789
3275.64	4830
3277.401	4808
3279.162	4816
3280.922	4843
3282.682	4898
3284.441	4920
3286.199	4768
3287.959	4782
3289.716	4759
3291.475	4768
3293.232	4834
3294.988	4810
3296.744	4815
3298.501	4881
3300.256	4903
3302.011	4763
3303.766	4830
3305.52	4829
3307.275	4789
3309.028	4755
3310.781	4706
3312.533	4927
3314.285	4718
3316.038	4765
3317.789	4824
3319.54	4771
3321.289	4781
3323.039	4847
3324.789	4754
3326.539	4764
3328.288	4826
3330.035	4787
3331.783	4794
3333.531	4778
3335.28	4863
3337.025	4713
3338.771	4746
3340.518	4876
3342.262	4753
3344.009	4716
3345.753	4743
3347.497	4740
3349.24	4744
3350.983	4601
3352.726	4824
3354.469	4690
3356.212	4767
3357.952	4728
3359.694	4744
3361.434	4814
3363.176	4702
3364.916	4730
3366.654	4674
3368.394	4651
3370.132	4738
3371.871	4662
3373.61	4746
3375.346	4726
3377.083	4669
3378.82	4690
3380.556	4719
3382.292	4713
3384.027	4585
3385.763	4580
3387.497	4651
3389.231	4590
3390.965	4569
3392.698	4685
3394.431	4555
3396.164	4584
3397.896	4637
3399.627	4580
3401.36	4545
3403.09	4558
3404.82	4585
3406.55	4655
3408.279	4559
3410.01	4570
3411.738	4564
3413.467	4601
3415.194	4586
3416.92	4521
3418.647	4642
3420.375	4513
3422.102	4561
3423.827	4489
3425.553	4473
3427.277	4522
3429.003	4530
3430.727	4526
3432.451	4612
3434.173	4503
3435.896	4461
3437.62	4583
3439.343	4507
3441.063	4543
3442.785	4429
3444.505	4429
3446.226	4496
3447.948	4482
3449.666	4436
3451.386	4461
3453.104	4323
3454.823	4386
3456.541	4395
3458.259	4400
3459.976	4435
3461.693	4314
3463.408	4398
3465.125	4333
3466.841	4305
3468.556	4407
3470.271	4350
3471.985	4326
3473.698	4299
3475.414	4427
3477.126	4255
3478.838	4384
3480.55	4351
3482.263	4338
3483.975	4300
3485.686	4270
3487.396	4331
3489.106	4336
3490.817	4299
3492.526	4327
3494.236	4218
3495.944	4293
3497.652	4285
3499.359	4362
3501.066	4170
3502.775	4267
3504.481	4247
3506.187	4167
3507.893	4238
3509.598	4098
3511.304	4211
3513.009	4201
3514.713	4108
3516.417	4203
3518.12	4214
3519.821	4244
3521.525	4173
3523.228	4202
3524.929	4220
3526.631	4187
3528.33	4096
3530.032	4182
3531.733	4246
3533.433	4082
3535.131	4051
3536.83	4055
3538.529	4187
3540.227	4101
3541.925	4090
3543.623	4066
3545.319	4131
3547.016	4086
3548.712	4129
3550.408	4105
3552.103	4040
3553.798	4129
3555.491	4106
3557.188	4097
3558.88	4087
3560.574	4048
3562.266	4059
3563.959	4138
3565.651	3958
3567.343	4106
3569.035	4029
3570.725	4005
3572.415	4003
3574.106	3993
3575.797	4054
3577.485	4002
3579.174	4054
3580.863	3977
3582.551	3973
3584.238	3957
3585.926	3981
3587.613	4043
3589.3	3896
3590.986	3942
3592.671	3828
3594.357	3896
3596.042	3936
3597.726	3949
3599.41	3904
3601.094	3921
3602.778	3905
3604.461	3828
3606.143	3830
3607.825	3975
3609.507	3902
3611.188	3858
3612.87	3855
3614.551	3838
3616.229	3880
3617.909	3824
3619.589	3800
3621.269	3804
3622.948	3854
3624.625	3776
3626.302	3871
3627.98	3768
3629.657	3885
3631.334	3849
3633.01	3721
3634.686	3738
3636.361	3837
3638.036	3766
3639.712	3749
3641.385	3743
3643.06	3699
3644.732	3801
3646.405	3693
3648.08	3842
3649.751	3775
3651.424	3731
3653.094	3762
3654.766	3731
3656.436	3695
3658.106	3709
3659.777	3708
3661.446	3647
3663.115	3673
3664.783	3663
3666.452	3690
3668.121	3673
3669.788	3614
3671.454	3748
3673.121	3652
3674.789	3698
3676.455	3647
3678.12	3629
3679.784	3623
3681.45	3733
3683.114	3607
3684.779	3600
3686.442	3675
3688.105	3545
3689.768	3725
3691.43	3607
3693.093	3548
3694.754	3722
3696.415	3543
3698.076	3681
3699.736	3652
3701.396	3681
3703.057	3588
3704.716	3670
3706.375	3629
3708.034	3608
3709.692	3615
3711.351	3591
3713.008	3582
3714.665	3533
3716.321	3563
3717.977	3554
3719.634	3591
3721.29	3519
3722.945	3561
3724.598	3564
3726.253	3508
3727.907	3654
3729.561	3598
3731.214	3586
3732.867	3593
3734.518	3485
3736.171	3564
3737.824	3494
3739.474	3536
3741.125	3506
3742.775	3565
3744.425	3544
3746.074	3514
3747.725	3471
3749.373	3451
3751.022	3501
3752.669	3452
3754.318	3467
3755.966	3426
3757.612	3431
3759.259	3449
3760.905	3553
3762.55	3437
3764.197	3434
3765.842	3526
3767.486	3471
3769.131	3468
3770.774	3494
3772.417	3459
3774.061	3482
3775.705	3441
3777.347	3496
3778.988	3427
3780.629	3418
3782.271	3362
3783.912	3455
3785.552	3402
3787.192	3499
3788.831	3498
3790.472	3404
3792.112	3431
3793.75	3490
3795.388	3383
3797.024	3503
3798.661	3397
3800.3	3358
3801.936	3384
3803.572	3389
3805.208	3408
3806.844	3388
3808.48	3386
3810.115	3350
3811.748	3391
3813.382	3383
3815.016	3459
3816.649	3273
3818.283	3294
3819.914	3336
3821.547	3382
3823.178	3387
3824.809	3285
3826.441	3362
3828.072	3468
3829.701	3382
3831.331	3228
3832.96	3316
3834.591	3347
3836.219	3338
3837.847	3313
3839.475	3325
3841.102	3306
3842.729	3263
3844.357	3262
3845.984	3352
3847.609	3329
3849.234	3238
3850.86	3307
3852.485	3436
3854.11	3395
3855.734	3295
3857.357	3239
3858.981	3271
3860.603	3333
3862.227	3346
3863.848	3297
3865.471	3276
3867.092	3277
3868.713	3247
3870.334	3298
3871.954	3235
3873.575	3220
3875.194	3174
3876.813	3253
3878.433	3240
3880.051	3256
3881.669	3231
3883.286	3261
3884.904	3279
3886.52	3161
3888.138	3271
3889.754	3193
3891.37	3214
3892.985	3163
3894.6	3229
3896.216	3152
3897.831	3172
3899.444	3197
3901.058	3304
3902.67	3231
3904.283	3219
3905.897	3259
3907.509	3121
3909.121	3144
3910.731	3169
3912.342	3250
3913.954	3208
3915.563	3203
3917.174	3217
3918.783	3146
3920.391	3184
3922.002	3163
3923.611	3204
3925.218	3118
3926.826	3179
3928.432	3152
3930.039	3165
3931.647	3160
3933.253	3182
3934.859	3184
3936.464	3135
3938.068	3185
3939.675	3142
3941.278	3139
3942.883	3109
3944.486	3137
3946.089	3220
3947.692	3058
3949.295	3111
3950.898	3170
3952.499	3194
3954.1	3130
3955.7	3127
3957.303	3103
3958.903	3096
3960.502	3168
3962.101	3116
3963.7	3042
3965.301	3077
3966.899	3124
3968.497	3133
3970.094	3109
3971.691	3140
3973.288	3074
3974.885	3060
3976.481	3089
3978.077	3042
3979.672	3024
3981.267	3042
3982.863	3111
3984.457	3030
3986.051	3034
3987.645	3074
3989.238	3044
3990.831	3049
3992.425	3055
3994.017	3068
3995.607	3085
3997.199	3039
3998.79	3001
4000.382	2976
4001.973	3046
4003.561	2970
4005.151	2974
4006.741	2992
4008.331	3031
4009.918	3014
4011.507	2995
4013.095	3045
4014.681	2927
4016.269	3007
4017.856	2990
4019.443	3013
4021.028	2984
4022.614	2980
4024.199	2897
4025.785	2944
4027.37	2951
4028.953	2951
4030.536	2953
4032.12	3007
4033.704	2933
4035.287	2902
4036.869	2930
4038.45	2916
4040.032	2881
4041.613	2878
4043.195	2902
4044.776	2920
4046.356	2908
4047.935	2932
4049.515	2919
4051.095	2870
4052.674	2935
4054.251	2915
4055.829	2917
4057.406	2898
4058.985	2907
4060.562	2841
4062.139	2927
4063.715	2868
4065.29	2930
4066.865	2940
4068.442	2884
4070.016	2951
4071.59	2841
4073.164	2841
4074.738	2916
4076.312	2850
4077.885	2814
4079.458	2889
4081.03	2829
4082.602	2808
4084.173	2829
4085.745	2883
4087.315	2773
4088.886	2848
4090.456	2824
4092.026	2824
4093.596	2855
4095.165	2914
4096.734	2802
4098.301	2849
4099.869	2846
4101.437	2826
4103.006	2858
4104.572	2858
4106.139	2793
4107.704	2823
4109.27	2844
4110.837	2820
4112.401	2765
4113.966	2815
4115.53	2811
4117.094	2873
4118.659	2784
4120.223	2790
4121.785	2765
4123.347	2801
4124.909	2787
4126.471	2832
4128.034	2711
4129.595	2787
4131.155	2773
4132.716	2700
4134.275	2737
4135.836	2854
4137.395	2687
4138.955	2778
4140.513	2669
4142.071	2713
4143.628	2723
4145.188	2720
4146.745	2734
4148.302	2781
4149.858	2718
4151.414	2708
4152.971	2719
4154.526	2728
4156.081	2711
4157.635	2771
4159.189	2640
4160.745	2681
4162.298	2670
4163.852	2742
4165.405	2637
4166.957	2707
4168.51	2675
4170.063	2661
4171.614	2694
4173.166	2711
4174.717	2642
4176.267	2630
4177.817	2638
4179.368	2765
4180.917	2682
4182.466	2668
4184.016	2627
4185.564	2617
4187.112	2668
4188.66	2699
4190.207	2660
4191.754	2578
4193.301	2589
4194.848	2642
4196.394	2648
4197.94	2652
4199.484	2644
4201.03	2567
4202.575	2627
4204.12	2607
4205.663	2566
4207.207	2625
4208.75	2608
4210.292	2616
4211.836	2570
4213.378	2584
4214.92	2579
4216.46	2600
4218.002	2585
4219.544	2589
4221.083	2571
4222.625	2648
4224.164	2537
4225.703	2549
4227.244	2650
4228.782	2570
4230.32	2649
4231.857	2522
4233.395	2586
4234.933	2623
4236.471	2526
4238.007	2510
4239.542	2556
4241.078	2588
4242.614	2557
4244.15	2554
4245.685	2554
4247.219	2549
4248.753	2561
4250.287	2540
4251.82	2525
4253.354	2498
4254.887	2478
4256.419	2584
4257.951	2557
4259.483	2593
4261.016	2536
4262.547	2566
4264.078	2481
4265.608	2559
4267.137	2511
4268.668	2574
4270.197	2577
4271.727	2453
4273.254	2552
4274.783	2514
4276.311	2548
4277.84	2536
4279.366	2547
4280.894	2525
4282.42	2444
4283.946	2480
4285.473	2463
4286.998	2520
4288.523	2467
4290.047	2456
4291.572	2421
4293.096	2488
4294.622	2465
4296.144	2450
4297.668	2390
4299.19	2443
4300.713	2476
4302.236	2467
4303.758	2494
4305.279	2489
4306.799	2486
4308.321	2470
4309.842	2441
4311.361	2455
4312.882	2394
4314.401	2451
