400.0961	3517
402.6185	3633
405.1424	3601
407.6635	3624
410.1838	3574
412.7035	3609
415.2225	3665
417.7388	3733
420.2585	3680
422.7754	3734
425.2917	3704
427.8072	3823
430.3221	3769
432.8363	3802
435.3498	3812
437.8626	3781
440.3727	3892
442.8841	3771
445.3969	3832
447.907	3831
450.4142	3771
452.9229	3844
455.4289	3828
457.9362	3828
460.4449	3822
462.9488	3788
465.454	3815
467.9566	3822
470.4604	3870
472.9637	3817
475.4662	3844
477.966	3814
480.4671	3822
482.9656	3836
485.4633	3867
487.9645	3946
490.4608	3896
492.9566	3864
495.4536	3878
497.948	3970
500.4437	3898
502.9387	3911
505.431	4030
507.9226	3946
510.4136	3968
512.9079	3923
515.3975	3970
517.8864	3983
520.3746	3988
522.8622	3895
525.3491	4028
527.8394	4045
530.3249	4027
532.8098	3954
535.2939	3987
537.7774	4044
540.2623	3990
542.7444	3963
545.2259	4010
547.7067	3954
550.1868	4001
552.6683	4117
555.147	4033
557.6231	3989
560.1005	3944
562.5773	4012
565.0534	4045
567.5308	3991
570.0056	4126
572.4776	4096
574.951	4152
577.4237	4090
579.8978	4103
582.3671	4231
584.8378	4167
587.3079	4153
589.7773	4198
592.244	4219
594.714	4217
597.1793	4203
599.6461	4121
602.1121	4190
604.5754	4104
607.0421	4151
609.5042	4111
611.9675	4116
614.4282	4095
616.8902	4104
619.3515	4248
621.8122	4230
624.2702	4193
626.7296	4094
629.1863	4073
631.6423	4195
634.1017	4158
636.5563	4206
639.0104	4118
641.4658	4139
643.9185	4226
646.3725	4191
648.8239	4161
651.2766	4243
653.7266	4226
656.176	4230
658.6247	4178
661.0748	4263
663.5242	4230
665.9709	4212
668.417	4158
670.8624	4206
673.3092	4275
675.7533	4254
678.1968	4342
680.6395	4244
683.0817	4325
685.5251	4288
687.9659	4348
690.4061	4274
692.8456	4228
695.2844	4352
697.7226	4287
700.1621	4349
702.599	4270
705.0332	4354
707.4688	4366
709.9036	4342
712.3399	4356
714.7735	4443
717.2044	4387
719.6367	4380
722.0683	4384
724.4993	4376
726.9296	4396
729.3593	4339
731.7883	4419
734.2147	4448
736.6423	4385
739.0714	4562
741.4958	4445
743.9216	4439
746.3447	4505
748.7691	4574
751.1929	4487
753.616	4525
756.0366	4595
758.4584	4588
760.8776	4621
763.2982	4569
765.718	4621
768.1373	4562
770.5539	4574
772.9698	4635
775.3871	4509
777.8038	4602
780.2178	4649
782.6332	4673
785.0459	4609
787.458	4558
789.8714	4623
792.2842	4691
794.6943	4621
797.1038	4546
799.5127	4530
801.9209	4595
804.3324	4611
806.7393	4625
809.1456	4690
811.5513	4718
813.9562	4667
816.3625	4641
818.7663	4658
821.1693	4739
823.5718	4700
825.9735	4766
828.3746	4729
830.7771	4561
833.177	4688
835.5762	4717
837.9747	4714
840.3727	4709
842.772	4762
845.1666	4751
847.5626	4658
849.958	4721
852.3527	4753
854.7488	4688
857.1403	4811
859.5331	4795
861.9253	4723
864.3168	4721
866.7057	4766
869.098	4790
871.4876	4770
873.8746	4795
876.263	4882
878.6487	4760
881.0378	4748
883.4243	4778
885.8081	4701
888.1933	4790
890.5759	4736
892.9598	4712
895.343	4838
897.7256	4859
900.1057	4637
902.4871	4837
904.8659	4842
907.246	4818
909.6254	4822
912.0023	4835
914.3786	4906
916.7562	4886
919.1331	4998
921.5074	5030
923.8831	5071
926.2562	5007
928.6287	4978
931.0005	5009
933.3757	5046
935.7462	5004
938.1162	4967
940.4855	4995
942.8542	4954
945.2242	5129
947.5916	5160
949.9584	5198
952.3266	5325
954.6921	5445
957.0571	5569
959.4233	5676
961.787	5758
964.15	5730
966.5125	5585
968.8742	5573
971.2354	5411
973.5959	5261
975.9559	5099
978.3151	5054
980.6738	4974
983.0338	4946
985.3912	4905
987.7461	5008
990.1022	4949
992.4578	4981
994.8127	4883
997.1689	5009
999.5207	5038
1001.874	4977
1004.226	4945
1006.576	4936
1008.929	4898
1011.28	4842
1013.628	4949
1015.977	4962
1018.324	5025
1020.674	4951
1023.019	5004
1025.366	4991
1027.713	5072
1030.056	5051
1032.399	4986
1034.746	5073
1037.087	5026
1039.431	5087
1041.771	5048
1044.113	5099
1046.454	5109
1048.793	4967
1051.133	5015
1053.471	5078
1055.807	5138
1058.146	4999
1060.483	4995
1062.818	4965
1065.153	5117
1067.489	5025
1069.822	5154
1072.156	5117
1074.488	5204
1076.82	5122
1079.15	5122
1081.48	5087
1083.814	5102
1086.143	5139
1088.471	5056
1090.799	5047
1093.126	5166
1095.452	5086
1097.78	5161
1100.105	5005
1102.43	5093
1104.754	5039
1107.077	5090
1109.4	5086
1111.722	5064
1114.044	5099
1116.365	5020
1118.685	5087
1121.005	5055
1123.324	5203
1125.643	5286
1127.961	5146
1130.278	5129
1132.595	5082
1134.911	5136
1137.226	5050
1139.541	5169
1141.854	5157
1144.167	5144
1146.482	5183
1148.793	5118
1151.105	5179
1153.414	5075
1155.725	5155
1158.033	5114
1160.344	5126
1162.651	5142
1164.959	5115
1167.265	5084
1169.572	5085
1171.878	5140
1174.184	5089
1176.488	5113
1178.79	5209
1181.094	5233
1183.396	5144
1185.699	5147
1188.001	5083
1190.301	5077
1192.6	5080
1194.9	5039
1197.2	5178
1199.497	5088
1201.794	5034
1204.09	5143
1206.387	4999
1208.684	5194
1210.978	5164
1213.272	5169
1215.565	5146
1217.858	5199
1220.15	5169
1222.443	5180
1224.734	5133
1227.024	5200
1229.313	5212
1231.602	5289
1233.892	5160
1236.18	5269
1238.467	5136
1240.754	5221
1243.04	5329
1245.325	5288
1247.612	5448
1249.896	5287
1252.178	5302
1254.461	5500
1256.743	5325
1259.027	5345
1261.308	5418
1263.587	5386
1265.867	5373
1268.146	5397
1270.425	5332
1272.703	5376
1274.981	5432
1277.256	5340
1279.532	5354
1281.808	5309
1284.083	5379
1286.358	5275
1288.63	5335
1290.904	5273
1293.175	5254
1295.449	5224
1297.719	5337
1299.99	5203
1302.259	5155
1304.529	5277
1306.798	5256
1309.065	5351
1311.333	5256
1313.599	5271
1315.866	5250
1318.131	5319
1320.396	5297
1322.66	5214
1324.925	5336
1327.187	5197
1329.448	5297
1331.711	5225
1333.974	5404
1336.234	5270
1338.493	5354
1340.752	5289
1343.01	5317
1345.269	5234
1347.526	5321
1349.784	5384
1352.04	5237
1354.295	5277
1356.552	5202
1358.806	5297
1361.059	5325
1363.312	5247
1365.564	5294
1367.818	5375
1370.069	5201
1372.318	5317
1374.568	5343
1376.817	5385
1379.066	5359
1381.316	5346
1383.564	5256
1385.809	5374
1388.056	5280
1390.301	5356
1392.549	5364
1394.793	5460
1397.036	5404
1399.279	5437
1401.522	5452
1403.763	5484
1406.007	5456
1408.248	5477
1410.487	5343
1412.727	5484
1414.965	5417
1417.205	5497
1419.442	5571
1421.68	5432
1423.915	5366
1426.152	5440
1428.388	5447
1430.623	5469
1432.857	5404
1435.091	5574
1437.323	5540
1439.556	5507
1441.789	5526
1444.019	5473
1446.25	5585
1448.48	5547
1450.708	5582
1452.938	5521
1455.167	5541
1457.394	5521
1459.62	5682
1461.846	5546
1464.073	5523
1466.299	5578
1468.523	5547
1470.746	5496
1472.969	5428
1475.191	5436
1477.415	5432
1479.636	5378
1481.858	5434
1484.078	5496
1486.298	5354
1488.518	5354
1490.736	5321
1492.954	5415
1495.169	5298
1497.386	5314
1499.602	5261
1501.819	5286
1504.034	5325
1506.248	5300
1508.462	5289
1510.675	5307
1512.888	5346
1515.1	5287
1517.311	5252
1519.522	5239
1521.732	5237
1523.942	5314
1526.151	5205
1528.36	5349
1530.566	5361
1532.773	5269
1534.98	5281
1537.187	5352
1539.392	5386
1541.596	5372
1543.801	5325
1546.005	5371
1548.208	5459
1550.411	5290
1552.612	5384
1554.814	5400
1557.013	5396
1559.212	5294
1561.414	5299
1563.612	5463
1565.811	5367
1568.007	5389
1570.203	5439
1572.403	5379
1574.598	5456
1576.792	5357
1578.988	5419
1581.181	5444
1583.376	5454
1585.568	5461
1587.761	5431
1589.952	5569
1592.143	5520
1594.333	5484
1596.524	5429
1598.715	5448
1600.903	5430
1603.091	5441
1605.278	5498
1607.466	5437
1609.652	5489
1611.838	5613
1614.023	5479
1616.207	5350
1618.391	5445
1620.576	5605
1622.759	5512
1624.941	5518
1627.123	5520
1629.304	5562
1631.484	5543
1633.664	5574
1635.844	5578
1638.022	5476
1640.201	5507
1642.38	5555
1644.556	5562
1646.732	5585
1648.908	5537
1651.084	5528
1653.257	5473
1655.433	5550
1657.607	5614
1659.779	5680
1661.951	5687
1664.122	5517
1666.295	5600
1668.467	5560
1670.635	5591
1672.805	5603
1674.973	5646
1677.142	5737
1679.31	5617
1681.478	5511
1683.644	5621
1685.81	5519
1687.975	5559
1690.142	5581
1692.305	5511
1694.468	5611
1696.632	5591
1698.794	5476
1700.957	5500
1703.119	5453
1705.279	5575
1707.439	5489
1709.598	5609
1711.758	5479
1713.917	5518
1716.075	5504
1718.231	5554
1720.388	5438
1722.543	5335
1724.702	5442
1726.856	5479
1729.01	5556
1731.164	5554
1733.317	5409
1735.471	5505
1737.623	5416
1739.774	5440
1741.925	5610
1744.075	5385
1746.225	5369
1748.376	5483
1750.524	5525
1752.672	5623
1754.82	5432
1756.965	5502
1759.113	5469
1761.259	5483
1763.405	5440
1765.549	5415
1767.694	5473
1769.836	5477
1771.981	5556
1774.123	5586
1776.264	5509
1778.405	5567
1780.546	5582
1782.687	5590
1784.827	5505
1786.966	5586
1789.103	5587
1791.242	5563
1793.381	5454
1795.517	5544
1797.653	5611
1799.788	5580
1801.923	5488
1804.057	5561
1806.193	5403
1808.326	5603
1810.457	5547
1812.59	5625
1814.721	5652
1816.855	5548
1818.984	5614
1821.113	5486
1823.244	5493
1825.372	5553
1827.499	5491
1829.63	5535
1831.756	5506
1833.882	5516
1836.007	5545
1838.132	5411
1840.26	5401
1842.384	5449
1844.507	5452
1846.63	5498
1848.752	5550
1850.875	5437
1852.996	5528
1855.118	5501
1857.238	5554
1859.358	5476
1861.477	5486
1863.597	5453
1865.715	5496
1867.832	5458
1869.948	5462
1872.064	5514
1874.181	5558
1876.297	5575
1878.411	5411
1880.526	5586
1882.639	5521
1884.752	5437
1886.865	5440
1888.977	5446
1891.089	5525
1893.2	5544
1895.308	5482
1897.42	5518
1899.53	5502
1901.639	5583
1903.745	5425
1905.853	5586
1907.962	5388
1910.067	5612
1912.174	5564
1914.278	5546
1916.383	5484
1918.486	5625
1920.592	5579
1922.694	5535
1924.797	5677
1926.898	5471
1929	5615
1931.102	5541
1933.203	5589
1935.301	5608
1937.401	5630
1939.499	5624
1941.598	5671
1943.697	5494
1945.793	5603
1947.888	5619
1949.985	5584
1952.08	5550
1954.176	5543
1956.269	5592
1958.364	5473
1960.457	5595
1962.549	5562
1964.642	5577
1966.733	5464
1968.823	5513
1970.913	5495
1973.005	5542
1975.093	5539
1977.184	5625
1979.271	5616
1981.359	5569
1983.446	5524
1985.532	5476
1987.619	5572
1989.705	5508
1991.789	5570
1993.874	5500
1995.956	5468
1998.041	5667
2000.123	5436
2002.206	5526
2004.287	5547
2006.368	5410
2008.449	5432
2010.529	5477
2012.609	5580
2014.688	5546
2016.766	5485
2018.843	5565
2020.922	5464
2022.999	5383
2025.074	5452
2027.15	5516
2029.225	5435
2031.299	5551
2033.375	5509
2035.447	5506
2037.52	5475
2039.592	5519
2041.664	5565
2043.736	5468
2045.807	5551
2047.876	5505
2049.947	5616
2052.015	5432
2054.086	5536
2056.153	5550
2058.221	5450
2060.288	5477
2062.353	5582
2064.42	5560
2066.486	5515
2068.55	5547
2070.614	5516
2072.678	5632
2074.741	5403
2076.805	5474
2078.866	5494
2080.929	5474
2082.99	5601
2085.049	5429
2087.109	5473
2089.17	5552
2091.228	5584
2093.286	5346
2095.344	5572
2097.4	5596
2099.46	5461
2101.516	5529
2103.572	5524
2105.626	5564
2107.679	5597
2109.735	5587
2111.788	5603
2113.841	5465
2115.894	5546
2117.945	5508
2119.997	5548
2122.049	5549
2124.1	5506
2126.148	5456
2128.197	5569
2130.246	5480
2132.296	5612
2134.342	5494
2136.39	5436
2138.437	5568
2140.483	5501
2142.527	5504
2144.574	5523
2146.619	5516
2148.661	5436
2150.705	5478
2152.747	5557
2154.792	5461
2156.832	5514
2158.874	5514
2160.915	5454
2162.954	5489
2164.995	5417
2167.034	5477
2169.072	5375
2171.111	5506
2173.148	5418
2175.186	5408
2177.223	5457
2179.258	5453
2181.294	5493
2183.328	5338
2185.362	5486
2187.398	5394
2189.431	5402
2191.463	5392
2193.495	5306
2195.528	5383
2197.56	5454
2199.59	5373
2201.62	5370
2203.649	5293
2205.678	5446
2207.708	5431
2209.737	5370
2211.764	5349
2213.791	5414
2215.817	5417
2217.843	5262
2219.87	5379
2221.895	5251
2223.919	5324
2225.942	5355
2227.966	5298
2229.988	5321
2232.012	5281
2234.032	5408
2236.054	5325
2238.074	5310
2240.095	5269
2242.116	5358
2244.135	5368
2246.153	5299
2248.171	5298
2250.188	5332
2252.208	5268
2254.223	5319
2256.239	5330
2258.255	5282
2260.269	5355
2262.283	5288
2264.3	5356
2266.312	5322
2268.325	5461
2270.336	5372
2272.349	5331
2274.362	5428
2276.372	5350
2278.383	5320
2280.392	5315
2282.402	5324
2284.409	5310
2286.418	5277
2288.427	5325
2290.433	5309
2292.441	5286
2294.446	5279
2296.453	5278
2298.459	5358
2300.463	5251
2302.466	5382
2304.471	5286
2306.475	5345
2308.477	5240
2310.478	5326
2312.481	5467
2314.481	5310
2316.481	5355
2318.482	5308
2320.482	5367
2322.48	5220
2324.48	5210
2326.478	5277
2328.476	5225
2330.473	5300
2332.469	5228
2334.465	5396
2336.46	5227
2338.454	5259
2340.45	5256
2342.444	5237
2344.437	5246
2346.43	5230
2348.421	5251
2350.414	5307
2352.405	5165
2354.396	5184
2356.386	5237
2358.376	5146
2360.366	5232
2362.355	5268
2364.343	5288
2366.331	5154
2368.317	5202
2370.304	5166
2372.292	5259
2374.278	5157
2376.262	5228
2378.247	5172
2380.23	5186
2382.216	5150
2384.199	5152
2386.181	5196
2388.163	5132
2390.144	5088
2392.127	5141
2394.107	5151
2396.087	5144
2398.066	5127
2400.046	5136
2402.023	5189
2404.004	5088
2405.981	5215
2407.957	5130
2409.934	5145
2411.91	5061
2413.886	5141
2415.862	5124
2417.836	5146
2419.809	5198
2421.784	5129
2423.756	5050
2425.73	5157
2427.701	5157
2429.672	5142
2431.644	5230
2433.615	5196
2435.586	5159
2437.555	5039
2439.523	5066
2441.491	5095
2443.459	5061
2445.428	5125
2447.395	5050
2449.361	5047
2451.327	5112
2453.292	5126
2455.257	5124
2457.223	5066
2459.187	5101
2461.15	5095
2463.113	5010
2465.076	5141
2467.039	5123
2468.999	5027
2470.96	5114
2472.921	5110
2474.881	5109
2476.841	4989
2478.8	5092
2480.759	5136
2482.717	4998
2484.675	5100
2486.63	5068
2488.589	4996
2490.545	5116
2492.5	5041
2494.455	5075
2496.408	5105
2498.364	5025
2500.318	5022
2502.27	4923
2504.223	5063
2506.174	5076
2508.126	5026
2510.078	4996
2512.03	4943
2513.979	5022
2515.927	5005
2517.877	5026
2519.826	4938
2521.775	5064
2523.722	5039
2525.668	4965
2527.616	5065
2529.561	5052
2531.508	5023
2533.452	5034
2535.398	4982
2537.342	5046
2539.284	4982
2541.229	5040
2543.173	5011
2545.114	5006
2547.055	5058
2548.996	5015
2550.938	4916
2552.878	4949
2554.817	5028
2556.756	4989
2558.695	4985
2560.633	5034
2562.572	4978
2564.509	4946
2566.445	5019
2568.382	4959
2570.317	5013
2572.254	5011
2574.189	5026
2576.123	5036
2578.057	4985
2579.99	5036
2581.923	4955
2583.855	4953
2585.788	4939
2587.719	4992
2589.65	5005
2591.579	5075
2593.511	5033
2595.44	5038
2597.37	4930
2599.297	4871
2601.225	4999
2603.153	4905
2605.08	4865
2607.007	5002
2608.932	5032
2610.858	4953
2612.782	4995
2614.709	5005
2616.632	4979
2618.556	4960
2620.478	4914
2622.401	5027
2624.324	4936
2626.247	4968
2628.167	5020
2630.088	5006
2632.008	4996
2633.928	4947
2635.848	5059
2637.766	4907
2639.684	4927
2641.603	5075
2643.519	4959
2645.437	4928
2647.353	5033
2649.27	5039
2651.184	4926
2653.099	5024
2655.014	5008
2656.928	5015
2658.842	4960
2660.755	5036
2662.667	4931
2664.579	4861
2666.491	5045
2668.402	4986
2670.312	4955
2672.222	5009
2674.132	4932
2676.042	5014
2677.951	4911
2679.859	4989
2681.766	5004
2683.674	4909
2685.582	4845
2687.488	4953
2689.392	4873
2691.298	4837
2693.202	4935
2695.107	4866
2697.012	4975
2698.914	4844
2700.817	4954
2702.72	4996
2704.622	4931
2706.524	4927
2708.425	4903
2710.326	4966
2712.225	4824
2714.125	4792
2716.024	4886
2717.923	4879
2719.822	4782
2721.719	4884
2723.616	4843
2725.512	4802
2727.41	4862
2729.305	4834
2731.201	4907
2733.095	4782
2734.99	4852
2736.884	4843
2738.778	4841
2740.67	4887
2742.562	4923
2744.455	4829
2746.346	4856
2748.238	4840
2750.129	4827
2752.018	4860
2753.907	4836
2755.797	4820
2757.687	4758
2759.575	4836
2761.462	4911
2763.349	4748
2765.237	4817
2767.124	4770
2769.009	4928
2770.894	4780
2772.779	4807
2774.663	4906
2776.547	4786
2778.431	4824
2780.314	4784
2782.197	4884
2784.078	4872
2785.96	4803
2787.842	4829
2789.723	4911
2791.603	4908
2793.483	4737
2795.362	4821
2797.241	4742
2799.121	4774
2800.997	4842
2802.874	4819
2804.751	4657
2806.628	4739
2808.506	4706
2810.38	4701
2812.255	4871
2814.13	4780
2816.003	4717
2817.878	4764
2819.752	4810
2821.623	4788
2823.496	4829
2825.368	4780
2827.238	4812
2829.111	4770
2830.98	4753
2832.851	4733
2834.719	4797
2836.589	4788
2838.458	4752
2840.327	4782
2842.193	4809
2844.061	4774
2845.927	4748
2847.794	4875
2849.66	4777
2851.525	4740
2853.39	4798
2855.254	4898
2857.117	4830
2858.983	4879
2860.845	4805
2862.707	4939
2864.569	4847
2866.431	4899
2868.293	4911
2870.154	4974
2872.013	4903
2873.873	4923
2875.733	4981
2877.592	5021
2879.451	5042
2881.309	4959
2883.166	5016
2885.022	5121
2886.879	5087
2888.736	5129
2890.591	5143
2892.446	5101
2894.301	5142
2896.155	5216
2898.009	5227
2899.863	5170
2901.716	5094
2903.568	5103
2905.419	5111
2907.27	5180
2909.123	5091
2910.973	5151
2912.824	5192
2914.673	5074
2916.521	5113
2918.372	5220
2920.22	5167
2922.067	5229
2923.914	5324
2925.761	5346
2927.607	5390
2929.455	5401
2931.301	5363
2933.144	5372
2934.99	5509
2936.833	5509
2938.678	5455
2940.522	5546
2942.364	5639
2944.207	5568
2946.048	5687
2947.891	5783
2949.731	5610
2951.571	5710
2953.412	5666
2955.25	5673
2957.09	5605
2958.93	5579
2960.767	5582
2962.606	5622
2964.443	5525
2966.279	5469
2968.116	5301
2969.953	5326
2971.788	5273
2973.623	5192
2975.457	5185
2977.292	5119
2979.127	5063
2980.959	5206
2982.792	5091
2984.624	5067
2986.455	5075
2988.288	5053
2990.119	5012
2991.949	4979
2993.779	4972
2995.608	4876
2997.439	4917
2999.268	4912
3001.096	4877
3002.923	4739
3004.751	4869
3006.578	4741
3008.406	4708
3010.232	4786
3012.057	4711
3013.883	4720
3015.706	4740
3017.532	4566
3019.356	4623
3021.179	4679
3023.002	4542
3024.823	4540
3026.646	4609
3028.469	4555
3030.289	4599
3032.11	4461
3033.93	4565
3035.749	4573
3037.57	4487
3039.39	4510
3041.207	4490
3043.026	4500
3044.842	4584
3046.661	4547
3048.477	4417
3050.294	4501
3052.109	4451
3053.925	4466
3055.739	4497
3057.555	4432
3059.368	4455
3061.181	4549
3062.995	4537
3064.807	4510
3066.62	4435
3068.433	4544
3070.243	4456
3072.054	4453
3073.865	4457
3075.675	4452
3077.485	4400
3079.293	4405
3081.102	4446
3082.911	4475
3084.719	4406
3086.527	4421
3088.333	4447
3090.139	4420
3091.945	4364
3093.75	4363
3095.557	4327
3097.361	4344
3099.165	4420
3100.969	4344
3102.772	4327
3104.575	4357
3106.379	4318
3108.181	4313
3109.982	4370
3111.783	4322
3113.584	4367
3115.386	4281
3117.186	4252
3118.985	4219
3120.783	4318
3122.582	4144
3124.381	4274
3126.179	4247
3127.975	4234
3129.772	4288
3131.569	4284
3133.365	4238
3135.161	4267
3136.956	4314
3138.751	4283
3140.544	4251
3142.338	4214
3144.132	4302
3145.925	4233
3147.717	4237
3149.509	4331
3151.301	4110
3153.091	4202
3154.884	4263
3156.673	4199
3158.462	4308
3160.252	4232
3162.041	4199
3163.831	4195
3165.618	4168
3167.405	4229
3169.193	4187
3170.979	4307
3172.767	4214
3174.553	4158
3176.338	4141
3178.123	4167
3179.907	4143
3181.692	4150
3183.477	4210
3185.259	4154
3187.042	4100
3188.824	4216
3190.607	4200
3192.389	4139
3194.17	4185
3195.951	4184
3197.73	4131
3199.51	4157
3201.289	4125
3203.07	4210
3204.848	4171
3206.626	4060
3208.403	4129
3210.18	4065
3211.959	4167
3213.735	4144
3215.511	4097
3217.285	4185
3219.06	4162
3220.836	4140
3222.611	4062
3224.384	4137
3226.158	4143
3227.929	4151
3229.702	4172
3231.476	4125
3233.248	4140
3235.018	4181
3236.789	4171
3238.56	4070
3240.33	4085
3242.1	4170
3243.869	4083
3245.637	4084
3247.405	4095
3249.172	4108
3250.941	4161
3252.707	4132
3254.474	4121
3256.24	4146
3258.006	3970
3259.772	4124
3261.537	4052
3263.301	4150
3265.065	4038
3266.828	4169
3268.592	4134
3270.355	4091
3272.117	4134
3273.878	4128
3275.64	4126
3277.401	4174
3279.162	4071
3280.922	4019
3282.682	4050
3284.441	4108
3286.199	4073
3287.959	4118
3289.716	4124
3291.475	4075
3293.232	4091
3294.988	4065
3296.744	4063
3298.501	4229
3300.256	4120
3302.011	4072
3303.766	4055
3305.52	4065
3307.275	4113
3309.028	4054
3310.781	4092
3312.533	4140
3314.285	4042
3316.038	4075
3317.789	4061
3319.54	4061
3321.289	4065
3323.039	4010
3324.789	4089
3326.539	4040
3328.288	4091
3330.035	4064
3331.783	4055
3333.531	4061
3335.28	4063
3337.025	4105
3338.771	4102
3340.518	4048
3342.262	3952
3344.009	4040
3345.753	4016
3347.497	4031
3349.24	3994
3350.983	4031
3352.726	4030
3354.469	4061
3356.212	4022
3357.952	3973
3359.694	3995
3361.434	3944
3363.176	4027
3364.916	3993
3366.654	3923
3368.394	4072
3370.132	3961
3371.871	4028
3373.61	3963
3375.346	3903
3377.083	4014
3378.82	3997
3380.556	3977
3382.292	3977
3384.027	3945
3385.763	3939
3387.497	3860
3389.231	3932
3390.965	3939
3392.698	3860
3394.431	3899
3396.164	3929
3397.896	3924
3399.627	3952
3401.36	3899
3403.09	3979
3404.82	3989
3406.55	3843
3408.279	3906
3410.01	3936
3411.738	3849
3413.467	3931
3415.194	3881
3416.92	3847
3418.647	3915
3420.375	3849
3422.102	3760
3423.827	3859
3425.553	3840
3427.277	3827
3429.003	3870
3430.727	3814
3432.451	3933
3434.173	3841
3435.896	3879
3437.62	3811
3439.343	3897
3441.063	3768
3442.785	3766
3444.505	3778
3446.226	3734
3447.948	3851
3449.666	3731
3451.386	3791
3453.104	3834
3454.823	3788
3456.541	3786
3458.259	3825
3459.976	3707
3461.693	3698
3463.408	3805
3465.125	3766
3466.841	3742
3468.556	3774
3470.271	3761
3471.985	3713
3473.698	3649
3475.414	3731
3477.126	3679
3478.838	3670
3480.55	3721
3482.263	3603
3483.975	3695
3485.686	3747
3487.396	3689
3489.106	3747
3490.817	3686
3492.526	3677
3494.236	3636
3495.944	3700
3497.652	3635
3499.359	3711
3501.066	3633
3502.775	3618
3504.481	3630
3506.187	3604
3507.893	3700
3509.598	3547
3511.304	3583
3513.009	3633
3514.713	3567
3516.417	3641
3518.12	3646
3519.821	3632
3521.525	3536
3523.228	3675
3524.929	3681
3526.631	3508
3528.33	3664
3530.032	3556
3531.733	3557
3533.433	3622
3535.131	3676
3536.83	3551
3538.529	3524
3540.227	3567
3541.925	3660
3543.623	3569
3545.319	3549
3547.016	3582
3548.712	3555
3550.408	3666
3552.103	3586
3553.798	3573
3555.491	3506
3557.188	3531
3558.88	3548
3560.574	3533
3562.266	3464
3563.959	3506
3565.651	3514
3567.343	3458
3569.035	3535
3570.725	3467
3572.415	3456
3574.106	3536
3575.797	3486
3577.485	3438
3579.174	3460
3580.863	3438
3582.551	3442
3584.238	3511
3585.926	3505
3587.613	3496
3589.3	3513
3590.986	3440
3592.671	3488
3594.357	3478
3596.042	3454
3597.726	3448
3599.41	3329
3601.094	3367
3602.778	3421
3604.461	3331
3606.143	3412
3607.825	3425
3609.507	3387
3611.188	3303
3612.87	3338
3614.551	3423
3616.229	3310
3617.909	3367
3619.589	3362
3621.269	3366
3622.948	3334
3624.625	3232
3626.302	3322
3627.98	3316
3629.657	3318
3631.334	3364
3633.01	3326
3634.686	3318
3636.361	3308
3638.036	3314
3639.712	3216
3641.385	3311
3643.06	3321
3644.732	3230
3646.405	3272
3648.08	3277
3649.751	3343
3651.424	3283
3653.094	3307
3654.766	3301
3656.436	3231
3658.106	3251
3659.777	3258
3661.446	3272
3663.115	3291
3664.783	3275
3666.452	3295
3668.121	3269
3669.788	3314
3671.454	3321
3673.121	3226
3674.789	3209
3676.455	3232
3678.12	3208
3679.784	3193
3681.45	3233
3683.114	3233
3684.779	3299
3686.442	3254
3688.105	3267
3689.768	3257
3691.43	3289
3693.093	3237
3694.754	3248
3696.415	3161
3698.076	3163
3699.736	3141
3701.396	3182
3703.057	3198
3704.716	3201
3706.375	3167
3708.034	3128
3709.692	3183
3711.351	3115
3713.008	3223
3714.665	3161
3716.321	3117
3717.977	3157
3719.634	3112
3721.29	3234
3722.945	3189
3724.598	3141
3726.253	3189
3727.907	3145
3729.561	3215
3731.214	3121
3732.867	3068
3734.518	3150
3736.171	3133
3737.824	3109
3739.474	3122
3741.125	3092
3742.775	3080
3744.425	3097
3746.074	3061
3747.725	3100
3749.373	3120
3751.022	3107
3752.669	3108
3754.318	3138
3755.966	3119
3757.612	3107
3759.259	3086
3760.905	3060
3762.55	3145
3764.197	3099
3765.842	3057
3767.486	3060
3769.131	3086
3770.774	3065
3772.417	3036
3774.061	3079
3775.705	2992
3777.347	3105
3778.988	3105
3780.629	3029
3782.271	3021
3783.912	3044
3785.552	3079
3787.192	3004
3788.831	3058
3790.472	3049
3792.112	3159
3793.75	3043
3795.388	3038
3797.024	2939
3798.661	2964
3800.3	3033
3801.936	3075
3803.572	3006
3805.208	2983
3806.844	2960
3808.48	2951
3810.115	2987
3811.748	2995
3813.382	2958
3815.016	2985
3816.649	3021
3818.283	2988
3819.914	3022
3821.547	2941
3823.178	2940
3824.809	2952
3826.441	2999
3828.072	3044
3829.701	2970
3831.331	2944
3832.96	2883
3834.591	2900
3836.219	2886
3837.847	2906
3839.475	2923
3841.102	2914
3842.729	2943
3844.357	2906
3845.984	2894
3847.609	2898
3849.234	2948
3850.86	2897
3852.485	2959
3854.11	2900
3855.734	2814
3857.357	2912
3858.981	2902
3860.603	2946
3862.227	2938
3863.848	2933
3865.471	2918
3867.092	2874
3868.713	2884
3870.334	2935
3871.954	2900
3873.575	2822
3875.194	2890
3876.813	2890
3878.433	2829
3880.051	2856
3881.669	2909
3883.286	2862
3884.904	2945
3886.52	2865
3888.138	2839
3889.754	2861
3891.37	2870
3892.985	2873
3894.6	2887
3896.216	2864
3897.831	2835
3899.444	2898
3901.058	2836
3902.67	2870
3904.283	2848
3905.897	2838
3907.509	2827
3909.121	2799
3910.731	2814
3912.342	2836
3913.954	2834
3915.563	2820
3917.174	2798
3918.783	2830
3920.391	2850
3922.002	2779
3923.611	2817
3925.218	2850
3926.826	2810
3928.432	2823
3930.039	2858
3931.647	2845
3933.253	2800
3934.859	2781
3936.464	2823
3938.068	2817
3939.675	2785
3941.278	2744
3942.883	2819
3944.486	2770
3946.089	2868
3947.692	2801
3949.295	2786
3950.898	2818
3952.499	2819
3954.1	2773
3955.7	2741
3957.303	2843
3958.903	2784
3960.502	2811
3962.101	2759
3963.7	2785
3965.301	2763
3966.899	2745
3968.497	2773
3970.094	2681
3971.691	2693
3973.288	2805
3974.885	2712
3976.481	2742
3978.077	2701
3979.672	2665
3981.267	2700
3982.863	2768
3984.457	2667
3986.051	2668
3987.645	2705
3989.238	2760
3990.831	2661
3992.425	2769
3994.017	2758
3995.607	2680
3997.199	2703
3998.79	2652
4000.382	2668
4001.973	2691
4003.561	2709
4005.151	2686
4006.741	2647
4008.331	2690
4009.918	2707
4011.507	2599
4013.095	2650
4014.681	2660
4016.269	2648
4017.856	2655
4019.443	2609
4021.028	2659
4022.614	2580
4024.199	2632
4025.785	2641
4027.37	2583
4028.953	2658
4030.536	2550
4032.12	2615
4033.704	2569
4035.287	2542
4036.869	2604
4038.45	2649
4040.032	2630
4041.613	2597
4043.195	2600
4044.776	2595
4046.356	2551
4047.935	2591
4049.515	2610
4051.095	2601
4052.674	2606
4054.251	2551
4055.829	2568
4057.406	2540
4058.985	2589
4060.562	2561
4062.139	2514
4063.715	2534
4065.29	2602
4066.865	2572
4068.442	2497
4070.016	2559
4071.59	2531
4073.164	2511
4074.738	2492
4076.312	2493
4077.885	2554
4079.458	2563
4081.03	2504
4082.602	2504
4084.173	2604
4085.745	2537
4087.315	2555
4088.886	2590
4090.456	2487
4092.026	2605
4093.596	2568
4095.165	2550
4096.734	2507
4098.301	2480
4099.869	2472
4101.437	2537
4103.006	2489
4104.572	2519
4106.139	2437
4107.704	2532
4109.27	2467
4110.837	2503
4112.401	2561
4113.966	2477
4115.53	2496
4117.094	2431
4118.659	2459
4120.223	2390
4121.785	2491
4123.347	2439
4124.909	2464
4126.471	2475
4128.034	2438
4129.595	2443
4131.155	2391
4132.716	2479
4134.275	2466
4135.836	2447
4137.395	2438
4138.955	2453
4140.513	2465
4142.071	2359
4143.628	2447
4145.188	2438
4146.745	2404
4148.302	2459
4149.858	2377
4151.414	2371
4152.971	2405
4154.526	2362
4156.081	2353
4157.635	2376
4159.189	2387
4160.745	2443
4162.298	2497
4163.852	2360
4165.405	2384
4166.957	2376
4168.51	2440
4170.063	2344
4171.614	2351
4173.166	2360
4174.717	2389
4176.267	2376
4177.817	2332
4179.368	2371
4180.917	2351
4182.466	2362
4184.016	2353
4185.564	2385
4187.112	2370
4188.66	2329
4190.207	2321
4191.754	2345
4193.301	2331
4194.848	2349
4196.394	2307
4197.94	2405
4199.484	2312
4201.03	2362
4202.575	2308
4204.12	2298
4205.663	2354
4207.207	2354
4208.75	2331
4210.292	2340
4211.836	2307
4213.378	2338
4214.92	2318
4216.46	2272
4218.002	2297
4219.544	2313
4221.083	2306
4222.625	2281
4224.164	2315
4225.703	2286
4227.244	2310
4228.782	2282
4230.32	2269
4231.857	2267
4233.395	2286
4234.933	2272
4236.471	2316
4238.007	2215
4239.542	2222
4241.078	2217
4242.614	2270
4244.15	2291
4245.685	2242
4247.219	2238
4248.753	2277
4250.287	2215
4251.82	2224
4253.354	2259
4254.887	2198
4256.419	2221
4257.951	2261
4259.483	2264
4261.016	2285
4262.547	2261
4264.078	2170
4265.608	2231
4267.137	2274
4268.668	2251
4270.197	2260
4271.727	2206
4273.254	2235
4274.783	2276
4276.311	2192
4277.84	2208
4279.366	2212
4280.894	2186
4282.42	2234
4283.946	2219
4285.473	2263
4286.998	2174
4288.523	2186
4290.047	2257
4291.572	2237
4293.096	2251
4294.622	2223
4296.144	2229
4297.668	2210
4299.19	2222
4300.713	2222
4302.236	2234
4303.758	2134
4305.279	2206
4306.799	2197
4308.321	2187
4309.842	2195
4311.361	2195
4312.882	2170
4314.401	2188
