400.0961	6197
402.6185	6225
405.1424	6266
407.6635	6267
410.1838	6215
412.7035	6246
415.2225	6438
417.7388	6388
420.2585	6440
422.7754	6378
425.2917	6456
427.8072	6539
430.3221	6643
432.8363	6625
435.3498	6630
437.8626	6734
440.3727	6614
442.8841	6567
445.3969	6633
447.907	6689
450.4142	6700
452.9229	6631
455.4289	6653
457.9362	6736
460.4449	6896
462.9488	6710
465.454	6684
467.9566	6741
470.4604	6582
472.9637	6728
475.4662	6759
477.966	6723
480.4671	6817
482.9656	6815
485.4633	6734
487.9645	6950
490.4608	6787
492.9566	6830
495.4536	7012
497.948	7079
500.4437	6858
502.9387	7029
505.431	6881
507.9226	6907
510.4136	6847
512.9079	7089
515.3975	7098
517.8864	7154
520.3746	6972
522.8622	6943
525.3491	6906
527.8394	7004
530.3249	6889
532.8098	7100
535.2939	7104
537.7774	7089
540.2623	7066
542.7444	6999
545.2259	7032
547.7067	7008
550.1868	7183
552.6683	7035
555.147	7141
557.6231	7133
560.1005	7122
562.5773	7134
565.0534	7229
567.5308	7096
570.0056	7227
572.4776	7291
574.951	7193
577.4237	7159
579.8978	7255
582.3671	7251
584.8378	7285
587.3079	7392
589.7773	7417
592.244	7431
594.714	7475
597.1793	7420
599.6461	7245
602.1121	7213
604.5754	7383
607.0421	7351
609.5042	7318
611.9675	7425
614.4282	7154
616.8902	7376
619.3515	7359
621.8122	7290
624.2702	7407
626.7296	7298
629.1863	7328
631.6423	7419
634.1017	7405
636.5563	7372
639.0104	7265
641.4658	7332
643.9185	7373
646.3725	7417
648.8239	7385
651.2766	7519
653.7266	7465
656.176	7455
658.6247	7531
661.0748	7440
663.5242	7454
665.9709	7411
668.417	7537
670.8624	7502
673.3092	7530
675.7533	7496
678.1968	7576
680.6395	7681
683.0817	7596
685.5251	7665
687.9659	7609
690.4061	7595
692.8456	7575
695.2844	7617
697.7226	7587
700.1621	7685
702.599	7728
705.0332	7792
707.4688	7581
709.9036	7732
712.3399	7722
714.7735	7773
717.2044	7655
719.6367	7832
722.0683	7846
724.4993	7808
726.9296	7936
729.3593	7995
731.7883	7947
734.2147	7920
736.6423	7902
739.0714	7961
741.4958	7956
743.9216	8081
746.3447	7918
748.7691	7990
751.1929	8080
753.616	8123
756.0366	8116
758.4584	8131
760.8776	8111
763.2982	8134
765.718	8249
768.1373	8181
770.5539	8361
772.9698	8196
775.3871	8264
777.8038	8178
780.2178	8192
782.6332	8297
785.0459	8095
787.458	8290
789.8714	8134
792.2842	8194
794.6943	8230
797.1038	8147
799.5127	8321
801.9209	8123
804.3324	8250
806.7393	8236
809.1456	8205
811.5513	8418
813.9562	8273
816.3625	8173
818.7663	8304
821.1693	8321
823.5718	8446
825.9735	8216
828.3746	8325
830.7771	8382
833.177	8315
835.5762	8346
837.9747	8497
840.3727	8334
842.772	8404
845.1666	8388
847.5626	8429
849.958	8351
852.3527	8454
854.7488	8510
857.1403	8428
859.5331	8428
861.9253	8351
864.3168	8412
866.7057	8316
869.098	8555
871.4876	8429
873.8746	8390
876.263	8501
878.6487	8458
881.0378	8339
883.4243	8378
885.8081	8299
888.1933	8540
890.5759	8405
892.9598	8438
895.343	8438
897.7256	8527
900.1057	8319
902.4871	8532
904.8659	8429
907.246	8546
909.6254	8512
912.0023	8644
914.3786	8630
916.7562	8709
919.1331	8673
921.5074	8638
923.8831	8832
926.2562	8838
928.6287	8729
931.0005	8953
933.3757	8687
935.7462	8632
938.1162	8738
940.4855	8844
942.8542	8899
945.2242	9058
947.5916	8971
949.9584	9145
952.3266	9198
954.6921	9356
957.0571	9617
959.4233	9683
961.787	9716
964.15	9783
966.5125	9551
968.8742	9571
971.2354	9218
973.5959	9027
975.9559	9025
978.3151	8709
980.6738	8917
983.0338	8883
985.3912	8759
987.7461	8689
990.1022	8665
992.4578	8732
994.8127	8750
997.1689	8673
999.5207	8718
1001.874	8794
1004.226	8782
1006.576	8731
1008.929	8753
1011.28	8760
1013.628	8820
1015.977	8821
1018.324	8802
1020.674	8898
1023.019	8919
1025.366	8867
1027.713	8862
1030.056	8910
1032.399	8774
1034.746	8823
1037.087	8788
1039.431	8833
1041.771	8914
1044.113	8856
1046.454	8922
1048.793	8901
1051.133	8867
1053.471	8802
1055.807	8884
1058.146	8865
1060.483	8808
1062.818	8888
1065.153	9010
1067.489	8936
1069.822	9025
1072.156	8950
1074.488	8929
1076.82	8954
1079.15	9025
1081.48	8954
1083.814	8922
1086.143	8951
1088.471	9050
1090.799	9031
1093.126	9050
1095.452	8877
1097.78	8933
1100.105	8972
1102.43	8937
1104.754	8849
1107.077	9005
1109.4	9164
1111.722	9115
1114.044	8973
1116.365	9047
1118.685	9052
1121.005	8999
1123.324	9083
1125.643	9145
1127.961	9049
1130.278	9029
1132.595	9105
1134.911	9027
1137.226	9034
1139.541	9038
1141.854	9172
1144.167	9001
1146.482	9120
1148.793	9102
1151.105	8956
1153.414	9030
1155.725	9008
1158.033	9149
1160.344	8962
1162.651	9053
1164.959	9076
1167.265	9190
1169.572	9191
1171.878	9071
1174.184	9063
1176.488	8906
1178.79	9103
1181.094	8914
1183.396	9141
1185.699	9071
1188.001	9029
1190.301	9061
1192.6	9040
1194.9	9125
1197.2	9058
1199.497	9089
1201.794	9122
1204.09	9089
1206.387	9128
1208.684	9204
1210.978	9211
1213.272	9007
1215.565	9023
1217.858	9011
1220.15	9106
1222.443	9136
1224.734	9096
1227.024	9280
1229.313	9067
1231.602	9197
1233.892	9395
1236.18	9335
1238.467	9262
1240.754	9319
1243.04	9154
1245.325	9324
1247.612	9459
1249.896	9339
1252.178	9448
1254.461	9324
1256.743	9265
1259.027	9374
1261.308	9408
1263.587	9353
1265.867	9305
1268.146	9343
1270.425	9315
1272.703	9399
1274.981	9419
1277.256	9367
1279.532	9446
1281.808	9397
1284.083	9346
1286.358	9307
1288.63	9308
1290.904	9301
1293.175	9149
1295.449	9324
1297.719	9292
1299.99	9350
1302.259	9243
1304.529	9291
1306.798	9249
1309.065	9188
1311.333	9402
1313.599	9281
1315.866	9268
1318.131	9174
1320.396	9275
1322.66	9272
1324.925	9233
1327.187	9425
1329.448	9368
1331.711	9396
1333.974	9199
1336.234	9165
1338.493	9439
1340.752	9198
1343.01	9389
1345.269	9417
1347.526	9296
1349.784	9460
1352.04	9373
1354.295	9463
1356.552	9237
1358.806	9326
1361.059	9399
1363.312	9375
1365.564	9366
1367.818	9335
1370.069	9384
1372.318	9344
1374.568	9338
1376.817	9488
1379.066	9367
1381.316	9335
1383.564	9363
1385.809	9432
1388.056	9382
1390.301	9407
1392.549	9475
1394.793	9441
1397.036	9406
1399.279	9569
1401.522	9539
1403.763	9484
1406.007	9584
1408.248	9586
1410.487	9454
1412.727	9540
1414.965	9483
1417.205	9382
1419.442	9555
1421.68	9544
1423.915	9535
1426.152	9450
1428.388	9576
1430.623	9627
1432.857	9421
1435.091	9558
1437.323	9617
1439.556	9717
1441.789	9589
1444.019	9755
1446.25	9593
1448.48	9693
1450.708	9573
1452.938	9693
1455.167	9705
1457.394	9839
1459.62	9871
1461.846	9749
1464.073	9682
1466.299	9796
1468.523	9674
1470.746	9606
1472.969	9611
1475.191	9545
1477.415	9652
1479.636	9549
1481.858	9597
1484.078	9542
1486.298	9407
1488.518	9471
1490.736	9569
1492.954	9273
1495.169	9496
1497.386	9459
1499.602	9425
1501.819	9437
1504.034	9405
1506.248	9381
1508.462	9313
1510.675	9218
1512.888	9391
1515.1	9499
1517.311	9416
1519.522	9270
1521.732	9295
1523.942	9385
1526.151	9317
1528.36	9280
1530.566	9371
1532.773	9370
1534.98	9470
1537.187	9303
1539.392	9424
1541.596	9353
1543.801	9332
1546.005	9382
1548.208	9415
1550.411	9434
1552.612	9391
1554.814	9398
1557.013	9343
1559.212	9550
1561.414	9426
1563.612	9428
1565.811	9574
1568.007	9600
1570.203	9620
1572.403	9630
1574.598	9618
1576.792	9570
1578.988	9748
1581.181	9541
1583.376	9709
1585.568	9631
1587.761	9652
1589.952	9738
1592.143	9542
1594.333	9671
1596.524	9706
1598.715	9700
1600.903	9630
1603.091	9762
1605.278	9584
1607.466	9713
1609.652	9601
1611.838	9639
1614.023	9835
1616.207	9509
1618.391	9632
1620.576	9636
1622.759	9835
1624.941	9735
1627.123	9678
1629.304	9703
1631.484	9787
1633.664	9668
1635.844	9698
1638.022	9841
1640.201	9794
1642.38	9607
1644.556	9644
1646.732	9729
1648.908	9702
1651.084	9902
1653.257	9715
1655.433	9715
1657.607	9729
1659.779	9761
1661.951	9810
1664.122	9808
1666.295	9658
1668.467	9764
1670.635	9787
1672.805	9745
1674.973	9754
1677.142	9733
1679.31	9814
1681.478	9607
1683.644	9659
1685.81	9679
1687.975	9651
1690.142	9756
1692.305	9773
1694.468	9689
1696.632	9674
1698.794	9695
1700.957	9610
1703.119	9662
1705.279	9675
1707.439	9728
1709.598	9558
1711.758	9711
1713.917	9504
1716.075	9732
1718.231	9673
1720.388	9628
1722.543	9635
1724.702	9661
1726.856	9691
1729.01	9655
1731.164	9554
1733.317	9583
1735.471	9712
1737.623	9698
1739.774	9684
1741.925	9870
1744.075	9695
1746.225	9636
1748.376	9669
1750.524	9669
1752.672	9526
1754.82	9608
1756.965	9683
1759.113	9618
1761.259	9620
1763.405	9806
1765.549	9676
1767.694	9608
1769.836	9734
1771.981	9728
1774.123	9650
1776.264	9657
1778.405	9667
1780.546	9789
1782.687	9827
1784.827	9740
1786.966	9663
1789.103	9643
1791.242	9660
1793.381	9623
1795.517	9712
1797.653	9700
1799.788	9934
1801.923	9763
1804.057	9664
1806.193	9769
1808.326	9801
1810.457	9815
1812.59	9803
1814.721	9877
1816.855	9605
1818.984	9633
1821.113	9682
1823.244	9638
1825.372	9698
1827.499	9782
1829.63	9726
1831.756	9668
1833.882	9752
1836.007	9674
1838.132	9745
1840.26	9746
1842.384	9585
1844.507	9671
1846.63	9663
1848.752	9572
1850.875	9707
1852.996	9664
1855.118	9653
1857.238	9666
1859.358	9801
1861.477	9638
1863.597	9626
1865.715	9662
1867.832	9695
1869.948	9523
1872.064	9544
1874.181	9660
1876.297	9593
1878.411	9584
1880.526	9569
1882.639	9703
1884.752	9774
1886.865	9704
1888.977	9592
1891.089	9505
1893.2	9696
1895.308	9640
1897.42	9756
1899.53	9639
1901.639	9758
1903.745	9646
1905.853	9846
1907.962	9659
1910.067	9643
1912.174	9779
1914.278	9769
1916.383	9673
1918.486	9789
1920.592	9801
1922.694	9742
1924.797	9847
1926.898	9746
1929	9953
1931.102	9728
1933.203	9834
1935.301	9744
1937.401	9686
1939.499	9691
1941.598	9760
1943.697	9800
1945.793	9832
1947.888	9779
1949.985	9790
1952.08	9841
1954.176	9785
1956.269	9725
1958.364	9692
1960.457	9801
1962.549	9927
1964.642	9886
1966.733	9727
1968.823	9757
1970.913	9607
1973.005	9710
1975.093	9706
1977.184	9841
1979.271	9738
1981.359	9696
1983.446	9677
1985.532	9639
1987.619	9697
1989.705	9522
1991.789	9776
1993.874	9684
1995.956	9606
1998.041	9653
2000.123	9644
2002.206	9564
2004.287	9713
2006.368	9634
2008.449	9667
2010.529	9646
2012.609	9637
2014.688	9679
2016.766	9735
2018.843	9743
2020.922	9607
2022.999	9584
2025.074	9462
2027.15	9591
2029.225	9580
2031.299	9642
2033.375	9534
2035.447	9666
2037.52	9582
2039.592	9761
2041.664	9681
2043.736	9699
2045.807	9652
2047.876	9745
2049.947	9722
2052.015	9608
2054.086	9680
2056.153	9609
2058.221	9583
2060.288	9580
2062.353	9593
2064.42	9593
2066.486	9660
2068.55	9689
2070.614	9564
2072.678	9816
2074.741	9491
2076.805	9579
2078.866	9585
2080.929	9719
2082.99	9574
2085.049	9541
2087.109	9634
2089.17	9534
2091.228	9447
2093.286	9631
2095.344	9702
2097.4	9595
2099.46	9565
2101.516	9582
2103.572	9555
2105.626	9779
2107.679	9629
2109.735	9639
2111.788	9547
2113.841	9601
2115.894	9664
2117.945	9585
2119.997	9508
2122.049	9628
2124.1	9676
2126.148	9584
2128.197	9535
2130.246	9609
2132.296	9541
2134.342	9588
2136.39	9388
2138.437	9533
2140.483	9560
2142.527	9689
2144.574	9514
2146.619	9480
2148.661	9617
2150.705	9526
2152.747	9565
2154.792	9519
2156.832	9467
2158.874	9497
2160.915	9634
2162.954	9542
2164.995	9514
2167.034	9517
2169.072	9573
2171.111	9521
2173.148	9461
2175.186	9449
2177.223	9406
2179.258	9369
2181.294	9636
2183.328	9490
2185.362	9401
2187.398	9381
2189.431	9340
2191.463	9425
2193.495	9387
2195.528	9373
2197.56	9309
2199.59	9311
2201.62	9433
2203.649	9198
2205.678	9309
2207.708	9439
2209.737	9412
2211.764	9375
2213.791	9281
2215.817	9503
2217.843	9243
2219.87	9420
2221.895	9314
2223.919	9227
2225.942	9398
2227.966	9188
2229.988	9256
2232.012	9304
2234.032	9275
2236.054	9359
2238.074	9161
2240.095	9264
2242.116	9307
2244.135	9309
2246.153	9267
2248.171	9185
2250.188	9336
2252.208	9271
2254.223	9303
2256.239	9261
2258.255	9268
2260.269	9312
2262.283	9371
2264.3	9221
2266.312	9302
2268.325	9310
2270.336	9338
2272.349	9302
2274.362	9282
2276.372	9390
2278.383	9235
2280.392	9157
2282.402	9366
2284.409	9349
2286.418	9326
2288.427	9250
2290.433	9222
2292.441	9234
2294.446	9185
2296.453	9240
2298.459	9375
2300.463	9315
2302.466	9286
2304.471	9217
2306.475	9284
2308.477	9121
2310.478	9180
2312.481	9183
2314.481	9312
2316.481	9073
2318.482	9047
2320.482	9205
2322.48	9098
2324.48	9248
2326.478	9197
2328.476	9080
2330.473	9021
2332.469	9106
2334.465	9317
2336.46	9083
2338.454	9018
2340.45	8956
2342.444	9112
2344.437	9061
2346.43	9131
2348.421	8940
2350.414	9037
2352.405	8987
2354.396	9039
2356.386	9074
2358.376	9050
2360.366	8977
2362.355	8992
2364.343	9069
2366.331	9059
2368.317	9029
2370.304	9002
2372.292	8993
2374.278	8986
2376.262	9101
2378.247	9014
2380.23	9015
2382.216	8930
2384.199	8900
2386.181	9073
2388.163	8969
2390.144	8931
2392.127	8807
2394.107	8805
2396.087	8848
2398.066	8882
2400.046	8865
2402.023	8754
2404.004	8827
2405.981	8977
2407.957	8863
2409.934	8952
2411.91	8834
2413.886	8835
2415.862	8902
2417.836	8802
2419.809	8997
2421.784	8739
2423.756	8853
2425.73	8768
2427.701	8960
2429.672	8901
2431.644	8712
2433.615	8893
2435.586	8818
2437.555	8994
2439.523	8900
2441.491	8844
2443.459	8828
2445.428	8818
2447.395	8891
2449.361	8874
2451.327	8876
2453.292	8849
2455.257	8758
2457.223	8881
2459.187	8742
2461.15	8777
2463.113	8669
2465.076	8726
2467.039	8782
2468.999	8854
2470.96	8720
2472.921	8765
2474.881	8778
2476.841	8801
2478.8	8734
2480.759	8738
2482.717	8725
2484.675	8739
2486.63	8666
2488.589	8647
2490.545	8648
2492.5	8795
2494.455	8673
2496.408	8628
2498.364	8634
2500.318	8690
2502.27	8638
2504.223	8669
2506.174	8717
2508.126	8763
2510.078	8660
2512.03	8577
2513.979	8737
2515.927	8768
2517.877	8664
2519.826	8498
2521.775	8594
2523.722	8532
2525.668	8625
2527.616	8724
2529.561	8674
2531.508	8615
2533.452	8465
2535.398	8530
2537.342	8628
2539.284	8573
2541.229	8683
2543.173	8506
2545.114	8584
2547.055	8615
2548.996	8656
2550.938	8654
2552.878	8770
2554.817	8620
2556.756	8682
2558.695	8545
2560.633	8621
2562.572	8532
2564.509	8534
2566.445	8545
2568.382	8612
2570.317	8650
2572.254	8487
2574.189	8519
2576.123	8510
2578.057	8499
2579.99	8459
2581.923	8574
2583.855	8561
2585.788	8548
2587.719	8629
2589.65	8639
2591.579	8609
2593.511	8625
2595.44	8722
2597.37	8422
2599.297	8676
2601.225	8693
2603.153	8572
2605.08	8659
2607.007	8555
2608.932	8663
2610.858	8561
2612.782	8582
2614.709	8555
2616.632	8533
2618.556	8557
2620.478	8630
2622.401	8481
2624.324	8561
2626.247	8582
2628.167	8444
2630.088	8614
2632.008	8579
2633.928	8544
2635.848	8525
2637.766	8468
2639.684	8566
2641.603	8581
2643.519	8604
2645.437	8612
2647.353	8627
2649.27	8450
2651.184	8425
2653.099	8542
2655.014	8661
2656.928	8497
2658.842	8523
2660.755	8494
2662.667	8542
2664.579	8512
2666.491	8631
2668.402	8560
2670.312	8563
2672.222	8418
2674.132	8542
2676.042	8536
2677.951	8382
2679.859	8511
2681.766	8488
2683.674	8455
2685.582	8498
2687.488	8491
2689.392	8516
2691.298	8382
2693.202	8504
2695.107	8460
2697.012	8396
2698.914	8479
2700.817	8407
2702.72	8443
2704.622	8391
2706.524	8330
2708.425	8402
2710.326	8497
2712.225	8443
2714.125	8273
2716.024	8406
2717.923	8361
2719.822	8376
2721.719	8340
2723.616	8442
2725.512	8343
2727.41	8335
2729.305	8243
2731.201	8348
2733.095	8267
2734.99	8329
2736.884	8243
2738.778	8265
2740.67	8270
2742.562	8268
2744.455	8264
2746.346	8271
2748.238	8275
2750.129	8227
2752.018	8241
2753.907	8138
2755.797	8297
2757.687	8251
2759.575	8293
2761.462	8350
2763.349	8275
2765.237	8309
2767.124	8283
2769.009	8246
2770.894	8290
2772.779	8124
2774.663	8231
2776.547	8171
2778.431	8262
2780.314	8126
2782.197	8153
2784.078	8092
2785.96	8307
2787.842	8154
2789.723	8169
2791.603	8235
2793.483	8123
2795.362	8044
2797.241	8093
2799.121	8131
2800.997	8174
2802.874	8160
2804.751	8013
2806.628	8105
2808.506	8208
2810.38	8079
2812.255	8217
2814.13	8022
2816.003	8210
2817.878	8001
2819.752	8128
2821.623	8158
2823.496	8122
2825.368	8066
2827.238	8141
2829.111	8050
2830.98	8261
2832.851	8043
2834.719	8131
2836.589	8023
2838.458	8101
2840.327	7983
2842.193	7963
2844.061	8131
2845.927	8051
2847.794	8080
2849.66	8192
2851.525	8125
2853.39	8143
2855.254	8196
2857.117	8077
2858.983	8141
2860.845	8107
2862.707	8161
2864.569	8236
2866.431	8169
2868.293	8141
2870.154	8164
2872.013	8183
2873.873	8175
2875.733	8285
2877.592	8314
2879.451	8286
2881.309	8482
2883.166	8245
2885.022	8412
2886.879	8403
2888.736	8383
2890.591	8535
2892.446	8423
2894.301	8314
2896.155	8417
2898.009	8465
2899.863	8394
2901.716	8400
2903.568	8428
2905.419	8317
2907.27	8251
2909.123	8353
2910.973	8366
2912.824	8391
2914.673	8418
2916.521	8459
2918.372	8548
2920.22	8479
2922.067	8574
2923.914	8566
2925.761	8456
2927.607	8533
2929.455	8536
2931.301	8701
2933.144	8775
2934.99	8662
2936.833	8829
2938.678	8874
2940.522	8786
2942.364	8815
2944.207	8727
2946.048	8960
2947.891	9032
2949.731	8941
2951.571	8903
2953.412	8969
2955.25	8899
2957.09	8811
2958.93	8846
2960.767	8976
2962.606	8726
2964.443	8723
2966.279	8544
2968.116	8553
2969.953	8529
2971.788	8472
2973.623	8348
2975.457	8354
2977.292	8276
2979.127	8256
2980.959	8407
2982.792	8248
2984.624	8328
2986.455	8252
2988.288	8219
2990.119	8216
2991.949	8209
2993.779	8130
2995.608	8039
2997.439	8048
2999.268	7967
3001.096	8033
3002.923	7980
3004.751	8046
3006.578	7864
3008.406	7908
3010.232	7857
3012.057	7727
3013.883	7822
3015.706	7859
3017.532	7697
3019.356	7697
3021.179	7605
3023.002	7648
3024.823	7673
3026.646	7613
3028.469	7610
3030.289	7673
3032.11	7596
3033.93	7616
3035.749	7675
3037.57	7558
3039.39	7496
3041.207	7563
3043.026	7553
3044.842	7606
3046.661	7503
3048.477	7562
3050.294	7458
3052.109	7451
3053.925	7482
3055.739	7358
3057.555	7535
3059.368	7418
3061.181	7473
3062.995	7659
3064.807	7508
3066.62	7318
3068.433	7481
3070.243	7523
3072.054	7427
3073.865	7484
3075.675	7482
3077.485	7393
3079.293	7352
3081.102	7355
3082.911	7315
3084.719	7361
3086.527	7221
3088.333	7465
3090.139	7370
3091.945	7362
3093.75	7246
3095.557	7239
3097.361	7250
3099.165	7219
3100.969	7300
3102.772	7168
3104.575	7178
3106.379	7256
3108.181	7276
3109.982	7145
3111.783	7219
3113.584	7339
3115.386	7206
3117.186	7199
3118.985	7021
3120.783	7202
3122.582	7103
3124.381	7141
3126.179	7045
3127.975	7142
3129.772	7122
3131.569	7018
3133.365	7130
3135.161	6941
3136.956	7147
3138.751	6966
3140.544	7076
3142.338	7079
3144.132	7112
3145.925	7114
3147.717	7045
3149.509	7034
3151.301	7048
3153.091	6938
3154.884	7023
3156.673	7011
3158.462	7049
3160.252	6941
3162.041	6951
3163.831	6997
3165.618	6954
3167.405	6942
3169.193	7026
3170.979	6902
3172.767	7029
3174.553	6828
3176.338	6940
3178.123	6917
3179.907	6982
3181.692	7018
3183.477	6948
3185.259	6986
3187.042	6873
3188.824	6934
3190.607	6923
3192.389	6945
3194.17	7022
3195.951	6983
3197.73	6843
3199.51	6898
3201.289	6851
3203.07	6878
3204.848	6945
3206.626	6831
3208.403	6798
3210.18	6879
3211.959	6959
3213.735	6812
3215.511	6852
3217.285	6780
3219.06	6900
3220.836	6889
3222.611	6801
3224.384	6860
3226.158	6984
3227.929	6707
3229.702	6817
3231.476	6791
3233.248	6806
3235.018	6816
3236.789	6839
3238.56	6793
3240.33	6844
3242.1	6912
3243.869	6937
3245.637	6743
3247.405	6827
3249.172	6840
3250.941	6698
3252.707	6757
3254.474	6831
3256.24	6835
3258.006	6689
3259.772	6630
3261.537	6905
3263.301	6835
3265.065	6784
3266.828	6743
3268.592	6769
3270.355	6774
3272.117	6737
3273.878	6792
3275.64	6788
3277.401	6754
3279.162	6697
3280.922	6805
3282.682	6717
3284.441	6782
3286.199	6754
3287.959	6773
3289.716	6655
3291.475	6618
3293.232	6690
3294.988	6753
3296.744	6775
3298.501	6655
3300.256	6720
3302.011	6713
3303.766	6627
3305.52	6682
3307.275	6717
3309.028	6655
3310.781	6686
3312.533	6636
3314.285	6694
3316.038	6630
3317.789	6670
3319.54	6587
3321.289	6706
3323.039	6768
3324.789	6650
3326.539	6735
3328.288	6674
3330.035	6618
3331.783	6635
3333.531	6614
3335.28	6648
3337.025	6624
3338.771	6691
3340.518	6582
3342.262	6636
3344.009	6642
3345.753	6526
3347.497	6515
3349.24	6600
3350.983	6589
3352.726	6536
3354.469	6551
3356.212	6550
3357.952	6562
3359.694	6485
3361.434	6443
3363.176	6528
3364.916	6527
3366.654	6475
3368.394	6464
3370.132	6486
3371.871	6496
3373.61	6538
3375.346	6378
3377.083	6431
3378.82	6497
3380.556	6638
3382.292	6529
3384.027	6464
3385.763	6423
3387.497	6420
3389.231	6564
3390.965	6359
3392.698	6350
3394.431	6307
3396.164	6459
3397.896	6370
3399.627	6433
3401.36	6344
3403.09	6431
3404.82	6397
3406.55	6409
3408.279	6334
3410.01	6353
3411.738	6365
3413.467	6371
3415.194	6416
3416.92	6442
3418.647	6402
3420.375	6238
3422.102	6372
3423.827	6289
3425.553	6343
3427.277	6213
3429.003	6339
3430.727	6321
3432.451	6250
3434.173	6245
3435.896	6244
3437.62	6345
3439.343	6273
3441.063	6264
3442.785	6276
3444.505	6249
3446.226	6213
3447.948	6195
3449.666	6171
3451.386	6169
3453.104	6160
3454.823	6168
3456.541	6163
3458.259	6116
3459.976	6100
3461.693	6132
3463.408	6188
3465.125	6143
3466.841	6074
3468.556	6100
3470.271	6229
3471.985	6187
3473.698	6051
3475.414	6081
3477.126	6047
3478.838	6128
3480.55	5977
3482.263	6020
3483.975	6043
3485.686	6067
3487.396	6004
3489.106	6128
3490.817	6016
3492.526	6058
3494.236	5989
3495.944	6005
3497.652	5861
3499.359	6079
3501.066	6034
3502.775	6004
3504.481	5961
3506.187	5909
3507.893	5959
3509.598	5787
3511.304	6051
3513.009	6115
3514.713	5870
3516.417	5992
3518.12	5917
3519.821	5956
3521.525	5739
3523.228	5862
3524.929	5963
3526.631	5827
3528.33	5822
3530.032	5947
3531.733	5906
3533.433	5913
3535.131	5832
3536.83	5877
3538.529	5813
3540.227	5749
3541.925	5745
3543.623	5757
3545.319	5763
3547.016	5837
3548.712	5878
3550.408	5768
3552.103	5836
3553.798	5702
3555.491	5762
3557.188	5699
3558.88	5772
3560.574	5666
3562.266	5751
3563.959	5746
3565.651	5696
3567.343	5670
3569.035	5733
3570.725	5727
3572.415	5717
3574.106	5684
3575.797	5738
3577.485	5723
3579.174	5746
3580.863	5601
3582.551	5649
3584.238	5638
3585.926	5604
3587.613	5580
3589.3	5621
3590.986	5653
3592.671	5646
3594.357	5573
3596.042	5584
3597.726	5633
3599.41	5585
3601.094	5566
3602.778	5566
3604.461	5531
3606.143	5524
3607.825	5471
3609.507	5499
3611.188	5550
3612.87	5517
3614.551	5555
3616.229	5495
3617.909	5502
3619.589	5373
3621.269	5386
3622.948	5491
3624.625	5465
3626.302	5411
3627.98	5358
3629.657	5455
3631.334	5490
3633.01	5391
3634.686	5494
3636.361	5397
3638.036	5398
3639.712	5351
3641.385	5386
3643.06	5394
3644.732	5437
3646.405	5409
3648.08	5385
3649.751	5415
3651.424	5432
3653.094	5398
3654.766	5289
3656.436	5369
3658.106	5319
3659.777	5361
3661.446	5316
3663.115	5307
3664.783	5246
3666.452	5228
3668.121	5376
3669.788	5388
3671.454	5199
3673.121	5230
3674.789	5330
3676.455	5223
3678.12	5333
3679.784	5335
3681.45	5230
3683.114	5302
3684.779	5251
3686.442	5201
3688.105	5164
3689.768	5301
3691.43	5230
3693.093	5186
3694.754	5203
3696.415	5180
3698.076	5279
3699.736	5171
3701.396	5279
3703.057	5146
3704.716	5129
3706.375	5315
3708.034	5255
3709.692	5180
3711.351	5196
3713.008	5194
3714.665	5228
3716.321	5125
3717.977	5157
3719.634	5175
3721.29	5231
3722.945	5159
3724.598	5095
3726.253	5219
3727.907	5093
3729.561	5270
3731.214	5207
3732.867	5113
3734.518	5056
3736.171	5121
3737.824	5194
3739.474	5084
3741.125	5127
3742.775	5053
3744.425	5076
3746.074	5065
3747.725	5048
3749.373	5113
3751.022	5056
3752.669	5069
3754.318	5135
3755.966	5045
3757.612	4959
3759.259	5006
3760.905	5013
3762.55	5011
3764.197	5038
3765.842	5046
3767.486	4988
3769.131	4985
3770.774	4989
3772.417	4997
3774.061	4918
3775.705	5100
3777.347	5016
3778.988	4949
3780.629	5072
3782.271	5042
3783.912	4982
3785.552	4943
3787.192	4906
3788.831	4960
3790.472	5036
3792.112	4939
3793.75	4960
3795.388	4885
3797.024	4951
3798.661	4932
3800.3	4906
3801.936	4890
3803.572	4924
3805.208	4890
3806.844	4877
3808.48	4911
3810.115	4855
3811.748	4881
3813.382	4901
3815.016	4847
3816.649	4800
3818.283	4833
3819.914	4859
3821.547	4829
3823.178	4847
3824.809	4787
3826.441	4805
3828.072	4878
3829.701	4893
3831.331	4735
3832.96	4727
3834.591	4777
3836.219	4776
3837.847	4768
3839.475	4840
3841.102	4788
3842.729	4743
3844.357	4851
3845.984	4695
3847.609	4749
3849.234	4747
3850.86	4668
3852.485	4668
3854.11	4732
3855.734	4745
3857.357	4653
3858.981	4752
3860.603	4782
3862.227	4735
3863.848	4710
3865.471	4669
3867.092	4733
3868.713	4652
3870.334	4752
3871.954	4683
3873.575	4722
3875.194	4719
3876.813	4624
3878.433	4589
3880.051	4654
3881.669	4712
3883.286	4642
3884.904	4695
3886.52	4659
3888.138	4675
3889.754	4594
3891.37	4685
3892.985	4662
3894.6	4574
3896.216	4598
3897.831	4672
3899.444	4650
3901.058	4691
3902.67	4576
3904.283	4600
3905.897	4557
3907.509	4652
3909.121	4655
3910.731	4572
3912.342	4585
3913.954	4635
3915.563	4686
3917.174	4529
3918.783	4685
3920.391	4573
3922.002	4577
3923.611	4603
3925.218	4466
3926.826	4576
3928.432	4542
3930.039	4639
3931.647	4569
3933.253	4550
3934.859	4548
3936.464	4529
3938.068	4522
3939.675	4527
3941.278	4547
3942.883	4612
3944.486	4470
3946.089	4515
3947.692	4521
3949.295	4399
3950.898	4525
3952.499	4402
3954.1	4399
3955.7	4486
3957.303	4400
3958.903	4574
3960.502	4497
3962.101	4511
3963.7	4362
3965.301	4477
3966.899	4515
3968.497	4481
3970.094	4500
3971.691	4319
3973.288	4353
3974.885	4410
3976.481	4395
3978.077	4396
3979.672	4376
3981.267	4384
3982.863	4288
3984.457	4439
3986.051	4383
3987.645	4396
3989.238	4373
3990.831	4285
3992.425	4284
3994.017	4388
3995.607	4324
3997.199	4335
3998.79	4318
4000.382	4361
4001.973	4287
4003.561	4319
4005.151	4353
4006.741	4274
4008.331	4221
4009.918	4266
4011.507	4300
4013.095	4226
4014.681	4277
4016.269	4307
4017.856	4228
4019.443	4297
4021.028	4109
4022.614	4154
4024.199	4178
4025.785	4174
4027.37	4138
4028.953	4135
4030.536	4224
4032.12	4201
4033.704	4144
4035.287	4209
4036.869	4147
4038.45	4245
4040.032	4220
4041.613	4039
4043.195	4188
4044.776	4165
4046.356	4067
4047.935	4070
4049.515	4089
4051.095	4193
4052.674	4128
4054.251	4115
4055.829	4211
4057.406	4147
4058.985	4153
4060.562	4108
4062.139	4130
4063.715	4104
4065.29	4041
4066.865	4105
4068.442	4041
4070.016	4099
4071.59	4097
4073.164	4104
4074.738	4020
4076.312	4083
4077.885	4070
4079.458	4084
4081.03	4097
4082.602	4066
4084.173	4025
4085.745	3996
4087.315	4071
4088.886	4103
4090.456	3982
4092.026	4078
4093.596	3994
4095.165	4136
4096.734	4078
4098.301	3943
4099.869	3959
4101.437	4022
4103.006	3970
4104.572	3984
4106.139	3934
4107.704	3984
4109.27	4017
4110.837	3986
4112.401	3950
4113.966	3972
4115.53	3977
4117.094	3972
4118.659	4033
4120.223	3922
4121.785	3955
4123.347	3974
4124.909	3920
4126.471	3926
4128.034	3939
4129.595	3872
4131.155	3957
4132.716	3887
4134.275	3902
4135.836	4021
4137.395	3933
4138.955	3882
4140.513	3935
4142.071	3818
4143.628	3841
4145.188	3846
4146.745	3917
4148.302	3916
4149.858	3917
4151.414	3939
4152.971	3936
4154.526	3832
4156.081	3782
4157.635	3812
4159.189	3837
4160.745	3744
4162.298	3840
4163.852	3736
4165.405	3832
4166.957	3769
4168.51	3791
4170.063	3771
4171.614	3740
4173.166	3767
4174.717	3777
4176.267	3752
4177.817	3773
4179.368	3761
4180.917	3778
4182.466	3745
4184.016	3700
4185.564	3741
4187.112	3663
4188.66	3628
4190.207	3699
4191.754	3708
4193.301	3766
4194.848	3631
4196.394	3712
4197.94	3651
4199.484	3695
4201.03	3643
4202.575	3639
4204.12	3710
4205.663	3730
4207.207	3646
4208.75	3746
4210.292	3629
4211.836	3738
4213.378	3689
4214.92	3658
4216.46	3662
4218.002	3591
4219.544	3682
4221.083	3607
4222.625	3642
4224.164	3767
4225.703	3612
4227.244	3610
4228.782	3642
4230.32	3657
4231.857	3580
4233.395	3612
4234.933	3603
4236.471	3571
4238.007	3575
4239.542	3625
4241.078	3662
4242.614	3537
4244.15	3546
4245.685	3572
4247.219	3479
4248.753	3530
4250.287	3616
4251.82	3580
4253.354	3515
4254.887	3521
4256.419	3569
4257.951	3568
4259.483	3465
4261.016	3558
4262.547	3546
4264.078	3564
4265.608	3500
4267.137	3487
4268.668	3519
4270.197	3663
4271.727	3444
4273.254	3546
4274.783	3481
4276.311	3499
4277.84	3564
4279.366	3520
4280.894	3488
4282.42	3590
4283.946	3498
4285.473	3479
4286.998	3515
4288.523	3448
4290.047	3466
4291.572	3491
4293.096	3499
4294.622	3416
4296.144	3465
4297.668	3400
4299.19	3450
4300.713	3444
4302.236	3415
4303.758	3467
4305.279	3454
4306.799	3491
4308.321	3445
4309.842	3352
4311.361	3436
4312.882	3380
4314.401	3380
