400.0961	4525
402.6185	4566
405.1424	4457
407.6635	4550
410.1838	4537
412.7035	4574
415.2225	4535
417.7388	4591
420.2585	4680
422.7754	4753
425.2917	4674
427.8072	4759
430.3221	4830
432.8363	4751
435.3498	4834
437.8626	4826
440.3727	4736
442.8841	4749
445.3969	4830
447.907	4864
450.4142	4831
452.9229	4802
455.4289	4734
457.9362	4750
460.4449	4635
462.9488	4780
465.454	4849
467.9566	4732
470.4604	4774
472.9637	4737
475.4662	4683
477.966	4782
480.4671	4802
482.9656	4807
485.4633	4767
487.9645	4835
490.4608	4832
492.9566	4887
495.4536	4820
497.948	4854
500.4437	4849
502.9387	4868
505.431	4902
507.9226	4956
510.4136	4976
512.9079	5022
515.3975	4876
517.8864	4998
520.3746	5026
522.8622	4933
525.3491	4880
527.8394	4987
530.3249	4927
532.8098	4875
535.2939	4982
537.7774	4913
540.2623	5028
542.7444	4962
545.2259	4945
547.7067	4966
550.1868	5030
552.6683	5024
555.147	5065
557.6231	5080
560.1005	5077
562.5773	5050
565.0534	5004
567.5308	5036
570.0056	5192
572.4776	5213
574.951	5115
577.4237	5029
579.8978	5265
582.3671	5280
584.8378	5166
587.3079	5247
589.7773	5163
592.244	5224
594.714	5225
597.1793	5150
599.6461	5166
602.1121	5206
604.5754	5217
607.0421	5209
609.5042	5244
611.9675	5165
614.4282	5098
616.8902	5155
619.3515	5223
621.8122	5200
624.2702	5077
626.7296	5209
629.1863	5068
631.6423	5110
634.1017	5061
636.5563	5115
639.0104	5081
641.4658	5130
643.9185	5114
646.3725	5147
648.8239	5215
651.2766	5103
653.7266	5163
656.176	5273
658.6247	5273
661.0748	5172
663.5242	5341
665.9709	5144
668.417	5172
670.8624	5267
673.3092	5248
675.7533	5314
678.1968	5290
680.6395	5329
683.0817	5292
685.5251	5329
687.9659	5418
690.4061	5312
692.8456	5302
695.2844	5355
697.7226	5313
700.1621	5315
702.599	5395
705.0332	5324
707.4688	5321
709.9036	5326
712.3399	5420
714.7735	5363
717.2044	5436
719.6367	5404
722.0683	5483
724.4993	5531
726.9296	5428
729.3593	5536
731.7883	5513
734.2147	5570
736.6423	5600
739.0714	5577
741.4958	5596
743.9216	5597
746.3447	5612
748.7691	5545
751.1929	5602
753.616	5630
756.0366	5653
758.4584	5809
760.8776	5611
763.2982	5696
765.718	5641
768.1373	5702
770.5539	5711
772.9698	5585
775.3871	5727
777.8038	5637
780.2178	5738
782.6332	5794
785.0459	5629
787.458	5690
789.8714	5757
792.2842	5867
794.6943	5679
797.1038	5651
799.5127	5744
801.9209	5706
804.3324	5718
806.7393	5673
809.1456	5780
811.5513	5735
813.9562	5801
816.3625	5839
818.7663	5775
821.1693	5793
823.5718	5765
825.9735	5769
828.3746	5849
830.7771	5770
833.177	5799
835.5762	5934
837.9747	5754
840.3727	5868
842.772	5861
845.1666	5873
847.5626	5925
849.958	5879
852.3527	6015
854.7488	6040
857.1403	6060
859.5331	6026
861.9253	5900
864.3168	6034
866.7057	5917
869.098	5969
871.4876	6027
873.8746	5985
876.263	6111
878.6487	5928
881.0378	5940
883.4243	5895
885.8081	5842
888.1933	5948
890.5759	5922
892.9598	5903
895.343	6000
897.7256	5957
900.1057	5821
902.4871	5933
904.8659	5957
907.246	6102
909.6254	6077
912.0023	6046
914.3786	6266
916.7562	6214
919.1331	6373
921.5074	6439
923.8831	6531
926.2562	6493
928.6287	6426
931.0005	6381
933.3757	6456
935.7462	6399
938.1162	6376
940.4855	6467
942.8542	6473
945.2242	6463
947.5916	6696
949.9584	6727
952.3266	6870
954.6921	7215
957.0571	7391
959.4233	7588
961.787	7776
964.15	7790
966.5125	7590
968.8742	7332
971.2354	7010
973.5959	6833
975.9559	6540
978.3151	6507
980.6738	6297
983.0338	6413
985.3912	6341
987.7461	6230
990.1022	6169
992.4578	6208
994.8127	6217
997.1689	6275
999.5207	6136
1001.874	6375
1004.226	6252
1006.576	6132
1008.929	6328
1011.28	6168
1013.628	6185
1015.977	6191
1018.324	6198
1020.674	6305
1023.019	6201
1025.366	6251
1027.713	6161
1030.056	6309
1032.399	6256
1034.746	6377
1037.087	6342
1039.431	6316
1041.771	6284
1044.113	6269
1046.454	6273
1048.793	6249
1051.133	6277
1053.471	6325
1055.807	6380
1058.146	6275
1060.483	6337
1062.818	6393
1065.153	6315
1067.489	6450
1069.822	6481
1072.156	6550
1074.488	6421
1076.82	6454
1079.15	6443
1081.48	6368
1083.814	6415
1086.143	6498
1088.471	6321
1090.799	6241
1093.126	6307
1095.452	6234
1097.78	6311
1100.105	6413
1102.43	6335
1104.754	6275
1107.077	6424
1109.4	6352
1111.722	6304
1114.044	6396
1116.365	6272
1118.685	6341
1121.005	6458
1123.324	6352
1125.643	6399
1127.961	6482
1130.278	6457
1132.595	6393
1134.911	6477
1137.226	6349
1139.541	6290
1141.854	6285
1144.167	6268
1146.482	6370
1148.793	6397
1151.105	6300
1153.414	6205
1155.725	6381
1158.033	6407
1160.344	6403
1162.651	6320
1164.959	6424
1167.265	6354
1169.572	6320
1171.878	6341
1174.184	6405
1176.488	6451
1178.79	6576
1181.094	6402
1183.396	6468
1185.699	6376
1188.001	6380
1190.301	6407
1192.6	6447
1194.9	6367
1197.2	6404
1199.497	6278
1201.794	6294
1204.09	6283
1206.387	6440
1208.684	6327
1210.978	6440
1213.272	6441
1215.565	6359
1217.858	6348
1220.15	6507
1222.443	6485
1224.734	6425
1227.024	6447
1229.313	6473
1231.602	6549
1233.892	6593
1236.18	6533
1238.467	6665
1240.754	6577
1243.04	6755
1245.325	6712
1247.612	6766
1249.896	6829
1252.178	6786
1254.461	6710
1256.743	6630
1259.027	6769
1261.308	6750
1263.587	6745
1265.867	6737
1268.146	6711
1270.425	6758
1272.703	6910
1274.981	6761
1277.256	6675
1279.532	6754
1281.808	6525
1284.083	6605
1286.358	6736
1288.63	6593
1290.904	6522
1293.175	6520
1295.449	6657
1297.719	6577
1299.99	6581
1302.259	6670
1304.529	6419
1306.798	6670
1309.065	6528
1311.333	6555
1313.599	6672
1315.866	6699
1318.131	6687
1320.396	6566
1322.66	6555
1324.925	6662
1327.187	6565
1329.448	6711
1331.711	6562
1333.974	6738
1336.234	6579
1338.493	6508
1340.752	6522
1343.01	6576
1345.269	6603
1347.526	6533
1349.784	6585
1352.04	6580
1354.295	6442
1356.552	6516
1358.806	6519
1361.059	6617
1363.312	6457
1365.564	6592
1367.818	6497
1370.069	6614
1372.318	6489
1374.568	6588
1376.817	6618
1379.066	6653
1381.316	6712
1383.564	6630
1385.809	6735
1388.056	6728
1390.301	6759
1392.549	6866
1394.793	6925
1397.036	6887
1399.279	6950
1401.522	6971
1403.763	7063
1406.007	6954
1408.248	6972
1410.487	6898
1412.727	6981
1414.965	6995
1417.205	6834
1419.442	6881
1421.68	6952
1423.915	6861
1426.152	6924
1428.388	6912
1430.623	6951
1432.857	6886
1435.091	6939
1437.323	7048
1439.556	6951
1441.789	6990
1444.019	7037
1446.25	6972
1448.48	6954
1450.708	6979
1452.938	7194
1455.167	7093
1457.394	7125
1459.62	7064
1461.846	7077
1464.073	6976
1466.299	6915
1468.523	6888
1470.746	6960
1472.969	6908
1475.191	6791
1477.415	6906
1479.636	6760
1481.858	6625
1484.078	6734
1486.298	6698
1488.518	6576
1490.736	6582
1492.954	6585
1495.169	6560
1497.386	6659
1499.602	6619
1501.819	6592
1504.034	6561
1506.248	6555
1508.462	6660
1510.675	6590
1512.888	6588
1515.1	6615
1517.311	6559
1519.522	6641
1521.732	6422
1523.942	6552
1526.151	6533
1528.36	6532
1530.566	6654
1532.773	6516
1534.98	6482
1537.187	6524
1539.392	6582
1541.596	6666
1543.801	6574
1546.005	6496
1548.208	6630
1550.411	6545
1552.612	6538
1554.814	6635
1557.013	6675
1559.212	6691
1561.414	6731
1563.612	6627
1565.811	6705
1568.007	6732
1570.203	6758
1572.403	6659
1574.598	6740
1576.792	6759
1578.988	6752
1581.181	6778
1583.376	6807
1585.568	6701
1587.761	6718
1589.952	6676
1592.143	6778
1594.333	6828
1596.524	6731
1598.715	6911
1600.903	6752
1603.091	6781
1605.278	6845
1607.466	6746
1609.652	6791
1611.838	6871
1614.023	6801
1616.207	6797
1618.391	6903
1620.576	6834
1622.759	6738
1624.941	6802
1627.123	6900
1629.304	6888
1631.484	6847
1633.664	6846
1635.844	6903
1638.022	6888
1640.201	6958
1642.38	6983
1644.556	7032
1646.732	6887
1648.908	6847
1651.084	7033
1653.257	6960
1655.433	6976
1657.607	6815
1659.779	7060
1661.951	7009
1664.122	6970
1666.295	7089
1668.467	6975
1670.635	6943
1672.805	7078
1674.973	7052
1677.142	6995
1679.31	6996
1681.478	7009
1683.644	6933
1685.81	6943
1687.975	6935
1690.142	7102
1692.305	7003
1694.468	6979
1696.632	6824
1698.794	6837
1700.957	6864
1703.119	6866
1705.279	6924
1707.439	6774
1709.598	6808
1711.758	6907
1713.917	6700
1716.075	6697
1718.231	6726
1720.388	6763
1722.543	6753
1724.702	6806
1726.856	6792
1729.01	6818
1731.164	6876
1733.317	6804
1735.471	6762
1737.623	6769
1739.774	6743
1741.925	6774
1744.075	6701
1746.225	6797
1748.376	6804
1750.524	6743
1752.672	6763
1754.82	6731
1756.965	6778
1759.113	6775
1761.259	6669
1763.405	6760
1765.549	6839
1767.694	6839
1769.836	6897
1771.981	6745
1774.123	6848
1776.264	6772
1778.405	6842
1780.546	6865
1782.687	6801
1784.827	6880
1786.966	6894
1789.103	6777
1791.242	6874
1793.381	6783
1795.517	6764
1797.653	6701
1799.788	6776
1801.923	6707
1804.057	6768
1806.193	6731
1808.326	6810
1810.457	6878
1812.59	6777
1814.721	6895
1816.855	6725
1818.984	6902
1821.113	6782
1823.244	6710
1825.372	6838
1827.499	6774
1829.63	6921
1831.756	6719
1833.882	6769
1836.007	6797
1838.132	6713
1840.26	6708
1842.384	6755
1844.507	6733
1846.63	6801
1848.752	6793
1850.875	6751
1852.996	6835
1855.118	6707
1857.238	6630
1859.358	6692
1861.477	6732
1863.597	6668
1865.715	6773
1867.832	6805
1869.948	6725
1872.064	6787
1874.181	6794
1876.297	6781
1878.411	6746
1880.526	6811
1882.639	6800
1884.752	6776
1886.865	6745
1888.977	6737
1891.089	6702
1893.2	6687
1895.308	6806
1897.42	6801
1899.53	6810
1901.639	6810
1903.745	6911
1905.853	6889
1907.962	6767
1910.067	6723
1912.174	6898
1914.278	6909
1916.383	6798
1918.486	6810
1920.592	6753
1922.694	6895
1924.797	6949
1926.898	6756
1929	6919
1931.102	6836
1933.203	6843
1935.301	6878
1937.401	6821
1939.499	6765
1941.598	6911
1943.697	6845
1945.793	6808
1947.888	6987
1949.985	6811
1952.08	6850
1954.176	6869
1956.269	6738
1958.364	6843
1960.457	6825
1962.549	6826
1964.642	6831
1966.733	6841
1968.823	6918
1970.913	6935
1973.005	6790
1975.093	6860
1977.184	6868
1979.271	6747
1981.359	6810
1983.446	6788
1985.532	6851
1987.619	6889
1989.705	6740
1991.789	6791
1993.874	6960
1995.956	6815
1998.041	6799
2000.123	6795
2002.206	6780
2004.287	6823
2006.368	6785
2008.449	6898
2010.529	6734
2012.609	6819
2014.688	6686
2016.766	6803
2018.843	6838
2020.922	6787
2022.999	6729
2025.074	6810
2027.15	6811
2029.225	6857
2031.299	6737
2033.375	6819
2035.447	6919
2037.52	6732
2039.592	6791
2041.664	6863
2043.736	6708
2045.807	6844
2047.876	6781
2049.947	6803
2052.015	6847
2054.086	6718
2056.153	6801
2058.221	6798
2060.288	6792
2062.353	6800
2064.42	6764
2066.486	6742
2068.55	6877
2070.614	6722
2072.678	6763
2074.741	6754
2076.805	6768
2078.866	6758
2080.929	6800
2082.99	6715
2085.049	6781
2087.109	6817
2089.17	6676
2091.228	6817
2093.286	6784
2095.344	6815
2097.4	6788
2099.46	6777
2101.516	6824
2103.572	6833
2105.626	6771
2107.679	6834
2109.735	6781
2111.788	6868
2113.841	6757
2115.894	6741
2117.945	6723
2119.997	6854
2122.049	6727
2124.1	6842
2126.148	6812
2128.197	6818
2130.246	6771
2132.296	6765
2134.342	6828
2136.39	6731
2138.437	6801
2140.483	6715
2142.527	6799
2144.574	6725
2146.619	6711
2148.661	6768
2150.705	6692
2152.747	6861
2154.792	6644
2156.832	6745
2158.874	6848
2160.915	6625
2162.954	6750
2164.995	6751
2167.034	6652
2169.072	6767
2171.111	6557
2173.148	6739
2175.186	6695
2177.223	6646
2179.258	6635
2181.294	6662
2183.328	6736
2185.362	6708
2187.398	6608
2189.431	6600
2191.463	6656
2193.495	6583
2195.528	6723
2197.56	6568
2199.59	6573
2201.62	6545
2203.649	6676
2205.678	6603
2207.708	6503
2209.737	6627
2211.764	6621
2213.791	6582
2215.817	6586
2217.843	6613
2219.87	6600
2221.895	6642
2223.919	6616
2225.942	6650
2227.966	6509
2229.988	6567
2232.012	6472
2234.032	6580
2236.054	6456
2238.074	6555
2240.095	6604
2242.116	6538
2244.135	6581
2246.153	6642
2248.171	6562
2250.188	6662
2252.208	6556
2254.223	6496
2256.239	6676
2258.255	6570
2260.269	6604
2262.283	6566
2264.3	6484
2266.312	6575
2268.325	6456
2270.336	6573
2272.349	6483
2274.362	6599
2276.372	6457
2278.383	6472
2280.392	6531
2282.402	6504
2284.409	6551
2286.418	6595
2288.427	6540
2290.433	6537
2292.441	6572
2294.446	6507
2296.453	6589
2298.459	6498
2300.463	6534
2302.466	6554
2304.471	6589
2306.475	6620
2308.477	6467
2310.478	6605
2312.481	6579
2314.481	6497
2316.481	6455
2318.482	6448
2320.482	6494
2322.48	6579
2324.48	6439
2326.478	6527
2328.476	6478
2330.473	6581
2332.469	6410
2334.465	6505
2336.46	6563
2338.454	6384
2340.45	6446
2342.444	6486
2344.437	6462
2346.43	6535
2348.421	6434
2350.414	6411
2352.405	6450
2354.396	6415
2356.386	6350
2358.376	6361
2360.366	6371
2362.355	6385
2364.343	6448
2366.331	6510
2368.317	6436
2370.304	6418
2372.292	6412
2374.278	6309
2376.262	6505
2378.247	6268
2380.23	6396
2382.216	6462
2384.199	6403
2386.181	6361
2388.163	6360
2390.144	6269
2392.127	6391
2394.107	6254
2396.087	6263
2398.066	6278
2400.046	6288
2402.023	6308
2404.004	6210
2405.981	6360
2407.957	6242
2409.934	6440
2411.91	6371
2413.886	6283
2415.862	6325
2417.836	6253
2419.809	6463
2421.784	6207
2423.756	6270
2425.73	6313
2427.701	6387
2429.672	6430
2431.644	6279
2433.615	6265
2435.586	6260
2437.555	6240
2439.523	6279
2441.491	6318
2443.459	6307
2445.428	6366
2447.395	6325
2449.361	6217
2451.327	6332
2453.292	6322
2455.257	6354
2457.223	6351
2459.187	6294
2461.15	6169
2463.113	6247
2465.076	6314
2467.039	6262
2468.999	6272
2470.96	6310
2472.921	6295
2474.881	6378
2476.841	6189
2478.8	6246
2480.759	6159
2482.717	6231
2484.675	6282
2486.63	6256
2488.589	6214
2490.545	6191
2492.5	6272
2494.455	6336
2496.408	6274
2498.364	6151
2500.318	6096
2502.27	6215
2504.223	6146
2506.174	6120
2508.126	6197
2510.078	6062
2512.03	6222
2513.979	6187
2515.927	6149
2517.877	6146
2519.826	6192
2521.775	6145
2523.722	6181
2525.668	6136
2527.616	6206
2529.561	6223
2531.508	6111
2533.452	6137
2535.398	6187
2537.342	6180
2539.284	6188
2541.229	6150
2543.173	6026
2545.114	6195
2547.055	6182
2548.996	6247
2550.938	6015
2552.878	6159
2554.817	6129
2556.756	6032
2558.695	6061
2560.633	6047
2562.572	6220
2564.509	6266
2566.445	6173
2568.382	6190
2570.317	6031
2572.254	6163
2574.189	6207
2576.123	6116
2578.057	6161
2579.99	6308
2581.923	6085
2583.855	6135
2585.788	6168
2587.719	6157
2589.65	6190
2591.579	6149
2593.511	6176
2595.44	6188
2597.37	6140
2599.297	6127
2601.225	6201
2603.153	6182
2605.08	6254
2607.007	6167
2608.932	6119
2610.858	6203
2612.782	6046
2614.709	6201
2616.632	6145
2618.556	6194
2620.478	6146
2622.401	6197
2624.324	6061
2626.247	6107
2628.167	6190
2630.088	6192
2632.008	6246
2633.928	6173
2635.848	6195
2637.766	6136
2639.684	6238
2641.603	6147
2643.519	6165
2645.437	6229
2647.353	6209
2649.27	6167
2651.184	6094
2653.099	6135
2655.014	6136
2656.928	6124
2658.842	6115
2660.755	6182
2662.667	6129
2664.579	6104
2666.491	6144
2668.402	6299
2670.312	6049
2672.222	6030
2674.132	6146
2676.042	5982
2677.951	6161
2679.859	6119
2681.766	6096
2683.674	6066
2685.582	6000
2687.488	6082
2689.392	6097
2691.298	5935
2693.202	6094
2695.107	6042
2697.012	6037
2698.914	6049
2700.817	6105
2702.72	6030
2704.622	5989
2706.524	6125
2708.425	6076
2710.326	6059
2712.225	5992
2714.125	5977
2716.024	6089
2717.923	6059
2719.822	6067
2721.719	6018
2723.616	6096
2725.512	6046
2727.41	6056
2729.305	5956
2731.201	5971
2733.095	6065
2734.99	6075
2736.884	5976
2738.778	6118
2740.67	6090
2742.562	6096
2744.455	6028
2746.346	6004
2748.238	6111
2750.129	5930
2752.018	6008
2753.907	6041
2755.797	6024
2757.687	6081
2759.575	6021
2761.462	6020
2763.349	5895
2765.237	5990
2767.124	6072
2769.009	5840
2770.894	5856
2772.779	5987
2774.663	5926
2776.547	6029
2778.431	5840
2780.314	6026
2782.197	6000
2784.078	5952
2785.96	6039
2787.842	5943
2789.723	5943
2791.603	5936
2793.483	5983
2795.362	6017
2797.241	5960
2799.121	5968
2800.997	5852
2802.874	5946
2804.751	5842
2806.628	5830
2808.506	6070
2810.38	5896
2812.255	5982
2814.13	5928
2816.003	5922
2817.878	5853
2819.752	5910
2821.623	5854
2823.496	5878
2825.368	5906
2827.238	5886
2829.111	5961
2830.98	5913
2832.851	5982
2834.719	5895
2836.589	6046
2838.458	5892
2840.327	6020
2842.193	6011
2844.061	5955
2845.927	6038
2847.794	5940
2849.66	5900
2851.525	6070
2853.39	6125
2855.254	6158
2857.117	6130
2858.983	6090
2860.845	6148
2862.707	6110
2864.569	6143
2866.431	6166
2868.293	6309
2870.154	6269
2872.013	6484
2873.873	6451
2875.733	6438
2877.592	6608
2879.451	6539
2881.309	6631
2883.166	6648
2885.022	6791
2886.879	6795
2888.736	6841
2890.591	6749
2892.446	6774
2894.301	6876
2896.155	6722
2898.009	6884
2899.863	6795
2901.716	6775
2903.568	6722
2905.419	6843
2907.27	6714
2909.123	6877
2910.973	6760
2912.824	6937
2914.673	6827
2916.521	6962
2918.372	7191
2920.22	7090
2922.067	7178
2923.914	7333
2925.761	7119
2927.607	7270
2929.455	7362
2931.301	7456
2933.144	7421
2934.99	7420
2936.833	7539
2938.678	7578
2940.522	7591
2942.364	7857
2944.207	7943
2946.048	8124
2947.891	8098
2949.731	8005
2951.571	8048
2953.412	7933
2955.25	8012
2957.09	7853
2958.93	7862
2960.767	7854
2962.606	7576
2964.443	7700
2966.279	7452
2968.116	7320
2969.953	7261
2971.788	7273
2973.623	7061
2975.457	6963
2977.292	7056
2979.127	6936
2980.959	6933
2982.792	6826
2984.624	6835
2986.455	6778
2988.288	6673
2990.119	6741
2991.949	6542
2993.779	6584
2995.608	6660
2997.439	6443
2999.268	6413
3001.096	6342
3002.923	6309
3004.751	6250
3006.578	6192
3008.406	6188
3010.232	6132
3012.057	6202
3013.883	5964
3015.706	6095
3017.532	5903
3019.356	6015
3021.179	5974
3023.002	5900
3024.823	5857
3026.646	5772
3028.469	5802
3030.289	5807
3032.11	5815
3033.93	5751
3035.749	5700
3037.57	5711
3039.39	5700
3041.207	5704
3043.026	5614
3044.842	5655
3046.661	5690
3048.477	5718
3050.294	5696
3052.109	5668
3053.925	5770
3055.739	5667
3057.555	5764
3059.368	5643
3061.181	5601
3062.995	5660
3064.807	5678
3066.62	5602
3068.433	5704
3070.243	5547
3072.054	5652
3073.865	5769
3075.675	5632
3077.485	5507
3079.293	5573
3081.102	5575
3082.911	5600
3084.719	5571
3086.527	5461
3088.333	5603
3090.139	5513
3091.945	5568
3093.75	5523
3095.557	5501
3097.361	5594
3099.165	5463
3100.969	5500
3102.772	5420
3104.575	5467
3106.379	5523
3108.181	5385
3109.982	5458
3111.783	5372
3113.584	5412
3115.386	5324
3117.186	5334
3118.985	5463
3120.783	5356
3122.582	5492
3124.381	5367
3126.179	5418
3127.975	5452
3129.772	5347
3131.569	5413
3133.365	5383
3135.161	5424
3136.956	5332
3138.751	5357
3140.544	5428
3142.338	5303
3144.132	5224
3145.925	5341
3147.717	5280
3149.509	5287
3151.301	5349
3153.091	5394
3154.884	5246
3156.673	5280
3158.462	5316
3160.252	5383
3162.041	5378
3163.831	5209
3165.618	5254
3167.405	5203
3169.193	5264
3170.979	5293
3172.767	5286
3174.553	5321
3176.338	5213
3178.123	5210
3179.907	5285
3181.692	5276
3183.477	5356
3185.259	5333
3187.042	5335
3188.824	5206
3190.607	5298
3192.389	5269
3194.17	5280
3195.951	5221
3197.73	5178
3199.51	5330
3201.289	5270
3203.07	5338
3204.848	5124
3206.626	5266
3208.403	5200
3210.18	5337
3211.959	5235
3213.735	5253
3215.511	5293
3217.285	5228
3219.06	5340
3220.836	5225
3222.611	5272
3224.384	5320
3226.158	5282
3227.929	5219
3229.702	5242
3231.476	5331
3233.248	5150
3235.018	5221
3236.789	5276
3238.56	5309
3240.33	5259
3242.1	5221
3243.869	5304
3245.637	5287
3247.405	5215
3249.172	5315
3250.941	5221
3252.707	5244
3254.474	5227
3256.24	5287
3258.006	5332
3259.772	5282
3261.537	5210
3263.301	5263
3265.065	5085
3266.828	5219
3268.592	5151
3270.355	5270
3272.117	5186
3273.878	5292
3275.64	5148
3277.401	5347
3279.162	5232
3280.922	5275
3282.682	5204
3284.441	5275
3286.199	5212
3287.959	5226
3289.716	5208
3291.475	5307
3293.232	5342
3294.988	5202
3296.744	5344
3298.501	5285
3300.256	5258
3302.011	5205
3303.766	5222
3305.52	5285
3307.275	5200
3309.028	5165
3310.781	5283
3312.533	5203
3314.285	5238
3316.038	5190
3317.789	5230
3319.54	5315
3321.289	5303
3323.039	5142
3324.789	5091
3326.539	5239
3328.288	5254
3330.035	5238
3331.783	5259
3333.531	5271
3335.28	5201
3337.025	5133
3338.771	5236
3340.518	5238
3342.262	5194
3344.009	5174
3345.753	5226
3347.497	5191
3349.24	5155
3350.983	5154
3352.726	5198
3354.469	5170
3356.212	5061
3357.952	5041
3359.694	5107
3361.434	5131
3363.176	5060
3364.916	5110
3366.654	5107
3368.394	5150
3370.132	5187
3371.871	5024
3373.61	5097
3375.346	5001
3377.083	5061
3378.82	4981
3380.556	5036
3382.292	5101
3384.027	4934
3385.763	4998
3387.497	5047
3389.231	5088
3390.965	5018
3392.698	5047
3394.431	5034
3396.164	4984
3397.896	4915
3399.627	4987
3401.36	4893
3403.09	5014
3404.82	4997
3406.55	4934
3408.279	4942
3410.01	4883
3411.738	4984
3413.467	5034
3415.194	4932
3416.92	4952
3418.647	4989
3420.375	4808
3422.102	4910
3423.827	4809
3425.553	4946
3427.277	4949
3429.003	4844
3430.727	4992
3432.451	4787
3434.173	4837
3435.896	4928
3437.62	4860
3439.343	4789
3441.063	4796
3442.785	4878
3444.505	4819
3446.226	4866
3447.948	4869
3449.666	4778
3451.386	4737
3453.104	4871
3454.823	4842
3456.541	4857
3458.259	4664
3459.976	4762
3461.693	4796
3463.408	4723
3465.125	4778
3466.841	4716
3468.556	4687
3470.271	4650
3471.985	4649
3473.698	4773
3475.414	4719
3477.126	4714
3478.838	4720
3480.55	4637
3482.263	4621
3483.975	4768
3485.686	4621
3487.396	4676
3489.106	4580
3490.817	4625
3492.526	4741
3494.236	4764
3495.944	4652
3497.652	4619
3499.359	4559
3501.066	4568
3502.775	4689
3504.481	4648
3506.187	4538
3507.893	4553
3509.598	4530
3511.304	4611
3513.009	4518
3514.713	4641
3516.417	4491
3518.12	4590
3519.821	4520
3521.525	4543
3523.228	4616
3524.929	4510
3526.631	4518
3528.33	4485
3530.032	4461
3531.733	4425
3533.433	4414
3535.131	4428
3536.83	4511
3538.529	4558
3540.227	4513
3541.925	4434
3543.623	4436
3545.319	4482
3547.016	4548
3548.712	4351
3550.408	4429
3552.103	4451
3553.798	4477
3555.491	4443
3557.188	4443
3558.88	4461
3560.574	4329
3562.266	4383
3563.959	4348
3565.651	4385
3567.343	4409
3569.035	4388
3570.725	4297
3572.415	4403
3574.106	4357
3575.797	4322
3577.485	4319
3579.174	4295
3580.863	4360
3582.551	4302
3584.238	4290
3585.926	4292
3587.613	4333
3589.3	4282
3590.986	4277
3592.671	4288
3594.357	4250
3596.042	4283
3597.726	4206
3599.41	4226
3601.094	4238
3602.778	4257
3604.461	4263
3606.143	4151
3607.825	4163
3609.507	4174
3611.188	4171
3612.87	4179
3614.551	4202
3616.229	4215
3617.909	4171
3619.589	4152
3621.269	4176
3622.948	4142
3624.625	4122
3626.302	4138
3627.98	4055
3629.657	3969
3631.334	4148
3633.01	4027
3634.686	4135
3636.361	4036
3638.036	4056
3639.712	4047
3641.385	4162
3643.06	4063
3644.732	4090
3646.405	4064
3648.08	4065
3649.751	4062
3651.424	4029
3653.094	4098
3654.766	4006
3656.436	4131
3658.106	4006
3659.777	3981
3661.446	3935
3663.115	4020
3664.783	3968
3666.452	4025
3668.121	4047
3669.788	3952
3671.454	3968
3673.121	3871
3674.789	3919
3676.455	3881
3678.12	3964
3679.784	3936
3681.45	3992
3683.114	3951
3684.779	3985
3686.442	3920
3688.105	3877
3689.768	3856
3691.43	3902
3693.093	3911
3694.754	4026
3696.415	3885
3698.076	3871
3699.736	3959
3701.396	3904
3703.057	3975
3704.716	3890
3706.375	3987
3708.034	3926
3709.692	3848
3711.351	3915
3713.008	3831
3714.665	3881
3716.321	3909
3717.977	3914
3719.634	3962
3721.29	3889
3722.945	3891
3724.598	3869
3726.253	3893
3727.907	3794
3729.561	3836
3731.214	3833
3732.867	3827
3734.518	3878
3736.171	3774
3737.824	3852
3739.474	3801
3741.125	3813
3742.775	3825
3744.425	3824
3746.074	3917
3747.725	3761
3749.373	3820
3751.022	3800
3752.669	3788
3754.318	3759
3755.966	3717
3757.612	3824
3759.259	3844
3760.905	3762
3762.55	3818
3764.197	3776
3765.842	3768
3767.486	3788
3769.131	3782
3770.774	3784
3772.417	3769
3774.061	3743
3775.705	3790
3777.347	3733
3778.988	3708
3780.629	3708
3782.271	3704
3783.912	3720
3785.552	3648
3787.192	3663
3788.831	3650
3790.472	3721
3792.112	3681
3793.75	3788
3795.388	3726
3797.024	3637
3798.661	3617
3800.3	3681
3801.936	3775
3803.572	3744
3805.208	3606
3806.844	3665
3808.48	3708
3810.115	3638
3811.748	3672
3813.382	3642
3815.016	3646
3816.649	3656
3818.283	3676
3819.914	3691
3821.547	3625
3823.178	3613
3824.809	3583
3826.441	3630
3828.072	3557
3829.701	3594
3831.331	3637
3832.96	3554
3834.591	3619
3836.219	3679
3837.847	3629
3839.475	3648
3841.102	3542
3842.729	3619
3844.357	3618
3845.984	3492
3847.609	3614
3849.234	3498
3850.86	3529
3852.485	3584
3854.11	3519
3855.734	3593
3857.357	3588
3858.981	3603
3860.603	3517
3862.227	3584
3863.848	3512
3865.471	3556
3867.092	3530
3868.713	3476
3870.334	3520
3871.954	3553
3873.575	3553
3875.194	3503
3876.813	3535
3878.433	3499
3880.051	3558
3881.669	3544
3883.286	3483
3884.904	3525
3886.52	3497
3888.138	3476
3889.754	3459
3891.37	3528
3892.985	3516
3894.6	3460
3896.216	3503
3897.831	3470
3899.444	3480
3901.058	3468
3902.67	3500
3904.283	3491
3905.897	3444
3907.509	3503
3909.121	3488
3910.731	3429
3912.342	3412
3913.954	3517
3915.563	3502
3917.174	3469
3918.783	3458
3920.391	3408
3922.002	3419
3923.611	3462
3925.218	3398
3926.826	3468
3928.432	3394
3930.039	3310
3931.647	3372
3933.253	3334
3934.859	3411
3936.464	3355
3938.068	3440
3939.675	3444
3941.278	3463
3942.883	3401
3944.486	3438
3946.089	3346
3947.692	3404
3949.295	3389
3950.898	3358
3952.499	3333
3954.1	3387
3955.7	3413
3957.303	3420
3958.903	3388
3960.502	3363
3962.101	3322
3963.7	3340
3965.301	3343
3966.899	3380
3968.497	3304
3970.094	3332
3971.691	3277
3973.288	3440
3974.885	3346
3976.481	3292
3978.077	3303
3979.672	3270
3981.267	3373
3982.863	3317
3984.457	3330
3986.051	3254
3987.645	3314
3989.238	3276
3990.831	3261
3992.425	3325
3994.017	3255
3995.607	3306
3997.199	3189
3998.79	3293
4000.382	3229
4001.973	3326
4003.561	3251
4005.151	3273
4006.741	3232
4008.331	3264
4009.918	3249
4011.507	3216
4013.095	3267
4014.681	3284
4016.269	3214
4017.856	3197
4019.443	3243
4021.028	3123
4022.614	3166
4024.199	3125
4025.785	3192
4027.37	3233
4028.953	3175
4030.536	3208
4032.12	3197
4033.704	3188
4035.287	3092
4036.869	3172
4038.45	3243
4040.032	3186
4041.613	3096
4043.195	3157
4044.776	3128
4046.356	3158
4047.935	3192
4049.515	3166
4051.095	3136
4052.674	3213
4054.251	3123
4055.829	3170
4057.406	3144
4058.985	3072
4060.562	3116
4062.139	3162
4063.715	3058
4065.29	3133
4066.865	3164
4068.442	3091
4070.016	3152
4071.59	3148
4073.164	3085
4074.738	3106
4076.312	3154
4077.885	3023
4079.458	3053
4081.03	3104
4082.602	3067
4084.173	3112
4085.745	3065
4087.315	3086
4088.886	3090
4090.456	3063
4092.026	3053
4093.596	2971
4095.165	3127
4096.734	2993
4098.301	3008
4099.869	3018
4101.437	3011
4103.006	3041
4104.572	3052
4106.139	3070
4107.704	3020
4109.27	3007
4110.837	3004
4112.401	3027
4113.966	2991
4115.53	3027
4117.094	3062
4118.659	3011
4120.223	2994
4121.785	2981
4123.347	2962
4124.909	3017
4126.471	3019
4128.034	2941
4129.595	3016
4131.155	2879
4132.716	2902
4134.275	2930
4135.836	3049
4137.395	2968
4138.955	2972
4140.513	2951
4142.071	2999
4143.628	2952
4145.188	3030
4146.745	2953
4148.302	2878
4149.858	2941
4151.414	2923
4152.971	2946
4154.526	2961
4156.081	2890
4157.635	2944
4159.189	2982
4160.745	2880
4162.298	2941
4163.852	2862
4165.405	2893
4166.957	2962
4168.51	2890
4170.063	2945
4171.614	2892
4173.166	2873
4174.717	2876
4176.267	2911
4177.817	2837
4179.368	2870
4180.917	2887
4182.466	2863
4184.016	2862
4185.564	2842
4187.112	2839
4188.66	2808
4190.207	2905
4191.754	2769
4193.301	2907
4194.848	2874
4196.394	2737
4197.94	2863
4199.484	2876
4201.03	2792
4202.575	2779
4204.12	2851
4205.663	2816
4207.207	2764
4208.75	2784
4210.292	2775
4211.836	2850
4213.378	2778
4214.92	2804
4216.46	2767
4218.002	2782
4219.544	2826
4221.083	2793
4222.625	2791
4224.164	2755
4225.703	2780
4227.244	2765
4228.782	2784
4230.32	2824
4231.857	2805
4233.395	2706
4234.933	2775
4236.471	2757
4238.007	2744
4239.542	2764
4241.078	2786
4242.614	2785
4244.15	2744
4245.685	2769
4247.219	2814
4248.753	2720
4250.287	2758
4251.82	2757
4253.354	2779
4254.887	2720
4256.419	2748
4257.951	2739
4259.483	2653
4261.016	2767
4262.547	2718
4264.078	2721
4265.608	2758
4267.137	2662
4268.668	2671
4270.197	2743
4271.727	2680
4273.254	2639
4274.783	2752
4276.311	2679
4277.84	2672
4279.366	2657
4280.894	2723
4282.42	2662
4283.946	2723
4285.473	2612
4286.998	2691
4288.523	2640
4290.047	2677
4291.572	2618
4293.096	2666
4294.622	2667
4296.144	2739
4297.668	2663
4299.19	2656
4300.713	2654
4302.236	2632
4303.758	2730
4305.279	2643
4306.799	2599
4308.321	2688
4309.842	2633
4311.361	2667
4312.882	2618
4314.401	2640
