400.0961	5878
402.6185	5723
405.1424	5838
407.6635	5869
410.1838	5832
412.7035	5774
415.2225	5772
417.7388	5930
420.2585	5823
422.7754	5948
425.2917	5912
427.8072	5907
430.3221	5966
432.8363	5970
435.3498	6052
437.8626	6061
440.3727	6048
442.8841	6045
445.3969	6193
447.907	6151
450.4142	6197
452.9229	6098
455.4289	6160
457.9362	6167
460.4449	6177
462.9488	6154
465.454	6160
467.9566	6147
470.4604	6267
472.9637	6166
475.4662	6192
477.966	6328
480.4671	6291
482.9656	6274
485.4633	6200
487.9645	6391
490.4608	6318
492.9566	6290
495.4536	6333
497.948	6456
500.4437	6376
502.9387	6509
505.431	6363
507.9226	6547
510.4136	6437
512.9079	6460
515.3975	6564
517.8864	6407
520.3746	6361
522.8622	6528
525.3491	6413
527.8394	6447
530.3249	6454
532.8098	6430
535.2939	6331
537.7774	6552
540.2623	6463
542.7444	6457
545.2259	6570
547.7067	6588
550.1868	6498
552.6683	6504
555.147	6550
557.6231	6693
560.1005	6513
562.5773	6555
565.0534	6625
567.5308	6504
570.0056	6561
572.4776	6569
574.951	6683
577.4237	6601
579.8978	6687
582.3671	6797
584.8378	6751
587.3079	6877
589.7773	6653
592.244	6723
594.714	6712
597.1793	6703
599.6461	6657
602.1121	6681
604.5754	6721
607.0421	6760
609.5042	6745
611.9675	6666
614.4282	6667
616.8902	6767
619.3515	6659
621.8122	6738
624.2702	6723
626.7296	6715
629.1863	6694
631.6423	6780
634.1017	6680
636.5563	6786
639.0104	6779
641.4658	6884
643.9185	6929
646.3725	6791
648.8239	6919
651.2766	6960
653.7266	6872
656.176	6852
658.6247	6968
661.0748	6878
663.5242	6843
665.9709	6979
668.417	6968
670.8624	6870
673.3092	6951
675.7533	6908
678.1968	6931
680.6395	6967
683.0817	6963
685.5251	6981
687.9659	7114
690.4061	7094
692.8456	7063
695.2844	7064
697.7226	7036
700.1621	7083
702.599	7001
705.0332	7131
707.4688	6995
709.9036	7073
712.3399	7225
714.7735	7065
717.2044	7188
719.6367	7304
722.0683	7185
724.4993	7245
726.9296	7158
729.3593	7264
731.7883	7291
734.2147	7271
736.6423	7160
739.0714	7288
741.4958	7437
743.9216	7311
746.3447	7432
748.7691	7334
751.1929	7428
753.616	7420
756.0366	7419
758.4584	7527
760.8776	7484
763.2982	7545
765.718	7483
768.1373	7465
770.5539	7476
772.9698	7516
775.3871	7482
777.8038	7583
780.2178	7412
782.6332	7542
785.0459	7603
787.458	7595
789.8714	7541
792.2842	7621
794.6943	7490
797.1038	7550
799.5127	7617
801.9209	7532
804.3324	7598
806.7393	7695
809.1456	7532
811.5513	7607
813.9562	7632
816.3625	7734
818.7663	7621
821.1693	7631
823.5718	7712
825.9735	7800
828.3746	7700
830.7771	7716
833.177	7735
835.5762	7651
837.9747	7679
840.3727	7617
842.772	7760
845.1666	7687
847.5626	7804
849.958	7691
852.3527	7781
854.7488	7881
857.1403	7755
859.5331	7779
861.9253	7707
864.3168	7795
866.7057	7784
869.098	7859
871.4876	7666
873.8746	7732
876.263	7680
878.6487	7786
881.0378	7735
883.4243	7729
885.8081	7684
888.1933	7837
890.5759	7634
892.9598	7816
895.343	7687
897.7256	7834
900.1057	7729
902.4871	7909
904.8659	7753
907.246	7718
909.6254	7789
912.0023	7864
914.3786	7988
916.7562	7907
919.1331	8089
921.5074	8042
923.8831	8153
926.2562	8050
928.6287	8039
931.0005	8196
933.3757	8049
935.7462	8138
938.1162	7963
940.4855	8111
942.8542	8185
945.2242	8066
947.5916	8083
949.9584	8278
952.3266	8132
954.6921	8410
957.0571	8453
959.4233	8544
961.787	8585
964.15	8532
966.5125	8498
968.8742	8440
971.2354	8444
973.5959	8229
975.9559	8024
978.3151	8211
980.6738	8102
983.0338	7984
985.3912	8035
987.7461	8103
990.1022	8038
992.4578	7925
994.8127	8013
997.1689	8157
999.5207	7985
1001.874	8165
1004.226	8015
1006.576	7948
1008.929	8073
1011.28	7955
1013.628	8004
1015.977	8059
1018.324	8085
1020.674	7960
1023.019	8111
1025.366	8160
1027.713	7976
1030.056	8112
1032.399	8035
1034.746	8223
1037.087	8192
1039.431	8251
1041.771	8095
1044.113	8195
1046.454	8180
1048.793	8132
1051.133	8037
1053.471	8164
1055.807	8202
1058.146	8173
1060.483	8104
1062.818	8129
1065.153	8251
1067.489	8055
1069.822	8104
1072.156	8173
1074.488	8171
1076.82	8201
1079.15	8114
1081.48	8148
1083.814	8172
1086.143	8176
1088.471	8190
1090.799	8221
1093.126	8247
1095.452	8304
1097.78	8109
1100.105	8295
1102.43	8396
1104.754	8206
1107.077	8231
1109.4	8434
1111.722	8274
1114.044	8244
1116.365	8331
1118.685	8224
1121.005	8429
1123.324	8349
1125.643	8337
1127.961	8390
1130.278	8430
1132.595	8395
1134.911	8323
1137.226	8519
1139.541	8231
1141.854	8475
1144.167	8313
1146.482	8333
1148.793	8285
1151.105	8362
1153.414	8350
1155.725	8352
1158.033	8409
1160.344	8233
1162.651	8286
1164.959	8290
1167.265	8425
1169.572	8434
1171.878	8311
1174.184	8317
1176.488	8521
1178.79	8427
1181.094	8388
1183.396	8406
1185.699	8260
1188.001	8240
1190.301	8291
1192.6	8365
1194.9	8392
1197.2	8348
1199.497	8294
1201.794	8380
1204.09	8375
1206.387	8428
1208.684	8376
1210.978	8366
1213.272	8379
1215.565	8339
1217.858	8289
1220.15	8535
1222.443	8371
1224.734	8475
1227.024	8511
1229.313	8425
1231.602	8483
1233.892	8403
1236.18	8530
1238.467	8546
1240.754	8561
1243.04	8521
1245.325	8603
1247.612	8675
1249.896	8705
1252.178	8655
1254.461	8530
1256.743	8542
1259.027	8615
1261.308	8687
1263.587	8563
1265.867	8631
1268.146	8799
1270.425	8547
1272.703	8635
1274.981	8638
1277.256	8645
1279.532	8666
1281.808	8617
1284.083	8633
1286.358	8672
1288.63	8555
1290.904	8522
1293.175	8672
1295.449	8481
1297.719	8523
1299.99	8513
1302.259	8603
1304.529	8483
1306.798	8522
1309.065	8491
1311.333	8585
1313.599	8745
1315.866	8628
1318.131	8605
1320.396	8581
1322.66	8576
1324.925	8614
1327.187	8534
1329.448	8594
1331.711	8599
1333.974	8546
1336.234	8673
1338.493	8671
1340.752	8663
1343.01	8536
1345.269	8538
1347.526	8609
1349.784	8555
1352.04	8531
1354.295	8626
1356.552	8593
1358.806	8656
1361.059	8561
1363.312	8642
1365.564	8567
1367.818	8626
1370.069	8594
1372.318	8643
1374.568	8600
1376.817	8688
1379.066	8743
1381.316	8700
1383.564	8508
1385.809	8628
1388.056	8680
1390.301	8793
1392.549	8820
1394.793	8818
1397.036	8899
1399.279	8743
1401.522	8916
1403.763	8848
1406.007	8842
1408.248	8819
1410.487	8761
1412.727	8787
1414.965	8801
1417.205	8944
1419.442	8900
1421.68	8770
1423.915	8968
1426.152	8690
1428.388	8787
1430.623	8993
1432.857	8925
1435.091	8943
1437.323	8969
1439.556	8762
1441.789	8902
1444.019	9092
1446.25	8875
1448.48	8909
1450.708	8978
1452.938	8992
1455.167	8933
1457.394	9016
1459.62	9004
1461.846	8892
1464.073	8927
1466.299	8988
1468.523	8837
1470.746	8803
1472.969	8776
1475.191	8862
1477.415	8709
1479.636	8755
1481.858	8748
1484.078	8675
1486.298	8728
1488.518	8633
1490.736	8705
1492.954	8633
1495.169	8632
1497.386	8675
1499.602	8621
1501.819	8647
1504.034	8701
1506.248	8503
1508.462	8562
1510.675	8663
1512.888	8616
1515.1	8431
1517.311	8492
1519.522	8581
1521.732	8747
1523.942	8666
1526.151	8636
1528.36	8592
1530.566	8608
1532.773	8670
1534.98	8691
1537.187	8604
1539.392	8628
1541.596	8583
1543.801	8637
1546.005	8645
1548.208	8684
1550.411	8711
1552.612	8716
1554.814	8782
1557.013	8686
1559.212	8775
1561.414	8693
1563.612	8729
1565.811	8852
1568.007	8744
1570.203	8787
1572.403	8923
1574.598	8812
1576.792	8934
1578.988	8930
1581.181	8828
1583.376	8950
1585.568	8875
1587.761	8720
1589.952	8944
1592.143	8947
1594.333	8918
1596.524	8840
1598.715	8927
1600.903	9013
1603.091	8875
1605.278	9013
1607.466	8797
1609.652	8938
1611.838	8864
1614.023	8865
1616.207	8834
1618.391	8781
1620.576	8940
1622.759	8935
1624.941	8920
1627.123	8845
1629.304	8932
1631.484	8997
1633.664	9027
1635.844	9029
1638.022	8965
1640.201	8878
1642.38	8975
1644.556	8969
1646.732	9083
1648.908	9028
1651.084	8961
1653.257	8983
1655.433	8955
1657.607	8956
1659.779	8944
1661.951	8911
1664.122	8987
1666.295	9055
1668.467	9106
1670.635	9038
1672.805	9117
1674.973	8971
1677.142	8892
1679.31	8930
1681.478	8914
1683.644	8901
1685.81	8928
1687.975	8954
1690.142	9131
1692.305	8844
1694.468	8905
1696.632	8895
1698.794	8781
1700.957	8873
1703.119	8856
1705.279	8937
1707.439	8851
1709.598	8858
1711.758	8728
1713.917	8889
1716.075	8880
1718.231	8793
1720.388	8774
1722.543	8923
1724.702	8828
1726.856	8817
1729.01	9002
1731.164	8892
1733.317	8828
1735.471	8805
1737.623	8798
1739.774	8933
1741.925	8817
1744.075	8774
1746.225	8934
1748.376	8857
1750.524	8893
1752.672	8760
1754.82	8851
1756.965	9003
1759.113	8936
1761.259	8919
1763.405	8990
1765.549	8946
1767.694	8888
1769.836	8957
1771.981	8838
1774.123	8773
1776.264	9054
1778.405	8924
1780.546	8954
1782.687	8994
1784.827	8877
1786.966	8996
1789.103	8879
1791.242	8934
1793.381	8918
1795.517	8973
1797.653	8868
1799.788	8983
1801.923	8973
1804.057	9021
1806.193	8947
1808.326	8923
1810.457	9035
1812.59	8934
1814.721	8889
1816.855	8777
1818.984	8940
1821.113	8988
1823.244	8932
1825.372	9050
1827.499	8885
1829.63	8875
1831.756	8922
1833.882	8998
1836.007	8935
1838.132	8883
1840.26	8824
1842.384	8814
1844.507	8781
1846.63	9028
1848.752	8863
1850.875	8818
1852.996	8866
1855.118	8850
1857.238	8888
1859.358	8906
1861.477	8830
1863.597	8875
1865.715	8690
1867.832	8954
1869.948	8814
1872.064	8961
1874.181	8892
1876.297	8873
1878.411	8812
1880.526	8879
1882.639	8848
1884.752	8914
1886.865	8722
1888.977	8896
1891.089	8808
1893.2	8821
1895.308	8804
1897.42	8975
1899.53	9010
1901.639	8997
1903.745	8955
1905.853	8938
1907.962	8951
1910.067	8953
1912.174	8957
1914.278	8969
1916.383	9017
1918.486	8993
1920.592	9073
1922.694	9018
1924.797	8986
1926.898	8978
1929	9042
1931.102	8880
1933.203	9047
1935.301	8932
1937.401	8915
1939.499	8919
1941.598	9010
1943.697	9284
1945.793	8977
1947.888	9099
1949.985	8936
1952.08	9006
1954.176	8974
1956.269	8947
1958.364	8912
1960.457	8939
1962.549	9055
1964.642	9008
1966.733	8907
1968.823	9008
1970.913	8912
1973.005	8843
1975.093	8929
1977.184	8912
1979.271	8866
1981.359	8870
1983.446	9112
1985.532	8841
1987.619	9013
1989.705	8823
1991.789	8820
1993.874	8952
1995.956	8967
1998.041	8998
2000.123	8834
2002.206	8852
2004.287	8906
2006.368	8807
2008.449	8923
2010.529	8893
2012.609	8928
2014.688	8830
2016.766	8758
2018.843	8747
2020.922	9003
2022.999	8801
2025.074	8875
2027.15	8917
2029.225	8861
2031.299	8958
2033.375	8879
2035.447	8956
2037.52	8774
2039.592	8870
2041.664	8903
2043.736	8837
2045.807	8837
2047.876	8748
2049.947	8867
2052.015	8874
2054.086	8709
2056.153	8910
2058.221	8857
2060.288	8783
2062.353	8946
2064.42	8754
2066.486	8816
2068.55	8863
2070.614	8885
2072.678	8829
2074.741	8820
2076.805	8909
2078.866	8890
2080.929	8807
2082.99	8852
2085.049	8843
2087.109	8811
2089.17	8876
2091.228	8871
2093.286	8722
2095.344	8898
2097.4	8824
2099.46	8772
2101.516	8954
2103.572	8977
2105.626	8859
2107.679	8936
2109.735	8943
2111.788	8822
2113.841	8847
2115.894	8911
2117.945	8785
2119.997	8920
2122.049	8838
2124.1	8711
2126.148	8786
2128.197	8862
2130.246	8785
2132.296	8710
2134.342	8817
2136.39	8829
2138.437	8827
2140.483	8720
2142.527	8833
2144.574	8690
2146.619	8813
2148.661	8803
2150.705	8754
2152.747	8635
2154.792	8895
2156.832	8789
2158.874	8714
2160.915	8550
2162.954	8881
2164.995	8634
2167.034	8675
2169.072	8693
2171.111	8753
2173.148	8822
2175.186	8836
2177.223	8762
2179.258	8555
2181.294	8743
2183.328	8567
2185.362	8623
2187.398	8628
2189.431	8726
2191.463	8666
2193.495	8608
2195.528	8782
2197.56	8684
2199.59	8603
2201.62	8638
2203.649	8680
2205.678	8701
2207.708	8603
2209.737	8572
2211.764	8606
2213.791	8634
2215.817	8641
2217.843	8458
2219.87	8459
2221.895	8562
2223.919	8495
2225.942	8632
2227.966	8454
2229.988	8514
2232.012	8541
2234.032	8570
2236.054	8562
2238.074	8460
2240.095	8597
2242.116	8516
2244.135	8547
2246.153	8504
2248.171	8542
2250.188	8640
2252.208	8448
2254.223	8562
2256.239	8682
2258.255	8597
2260.269	8593
2262.283	8580
2264.3	8374
2266.312	8441
2268.325	8629
2270.336	8490
2272.349	8313
2274.362	8587
2276.372	8545
2278.383	8491
2280.392	8513
2282.402	8575
2284.409	8412
2286.418	8436
2288.427	8596
2290.433	8564
2292.441	8487
2294.446	8571
2296.453	8439
2298.459	8527
2300.463	8499
2302.466	8394
2304.471	8444
2306.475	8598
2308.477	8449
2310.478	8493
2312.481	8419
2314.481	8480
2316.481	8358
2318.482	8388
2320.482	8502
2322.48	8415
2324.48	8501
2326.478	8430
2328.476	8475
2330.473	8312
2332.469	8310
2334.465	8524
2336.46	8339
2338.454	8366
2340.45	8453
2342.444	8388
2344.437	8368
2346.43	8325
2348.421	8400
2350.414	8264
2352.405	8277
2354.396	8410
2356.386	8314
2358.376	8318
2360.366	8389
2362.355	8259
2364.343	8342
2366.331	8333
2368.317	8241
2370.304	8265
2372.292	8334
2374.278	8210
2376.262	8240
2378.247	8320
2380.23	8265
2382.216	8126
2384.199	8293
2386.181	8229
2388.163	8081
2390.144	8171
2392.127	8221
2394.107	8185
2396.087	8216
2398.066	8150
2400.046	8134
2402.023	8174
2404.004	8067
2405.981	8229
2407.957	8131
2409.934	8315
2411.91	8208
2413.886	8260
2415.862	8045
2417.836	8285
2419.809	8172
2421.784	8091
2423.756	8075
2425.73	8085
2427.701	8200
2429.672	8081
2431.644	8142
2433.615	8166
2435.586	8105
2437.555	8214
2439.523	8244
2441.491	8130
2443.459	8286
2445.428	8210
2447.395	8212
2449.361	8136
2451.327	8138
2453.292	8103
2455.257	8090
2457.223	8128
2459.187	7896
2461.15	8135
2463.113	7977
2465.076	8106
2467.039	8135
2468.999	8092
2470.96	8015
2472.921	7969
2474.881	8063
2476.841	7923
2478.8	7995
2480.759	8201
2482.717	7971
2484.675	7899
2486.63	7975
2488.589	7995
2490.545	8073
2492.5	7993
2494.455	7881
2496.408	8064
2498.364	8066
2500.318	7970
2502.27	7930
2504.223	7935
2506.174	8111
2508.126	7994
2510.078	7983
2512.03	8029
2513.979	7976
2515.927	7960
2517.877	7954
2519.826	7969
2521.775	7973
2523.722	7894
2525.668	7902
2527.616	7905
2529.561	7898
2531.508	7938
2533.452	7905
2535.398	7844
2537.342	8018
2539.284	8027
2541.229	8088
2543.173	7958
2545.114	7959
2547.055	7966
2548.996	7934
2550.938	7985
2552.878	7933
2554.817	7960
2556.756	7888
2558.695	7985
2560.633	8004
2562.572	7915
2564.509	7940
2566.445	7834
2568.382	7857
2570.317	7943
2572.254	7913
2574.189	7908
2576.123	7921
2578.057	7924
2579.99	7966
2581.923	7911
2583.855	8063
2585.788	7915
2587.719	7861
2589.65	7972
2591.579	7802
2593.511	7861
2595.44	8020
2597.37	7862
2599.297	7971
2601.225	7847
2603.153	7920
2605.08	7985
2607.007	8033
2608.932	8042
2610.858	7803
2612.782	7835
2614.709	7818
2616.632	7906
2618.556	7828
2620.478	8003
2622.401	7835
2624.324	7955
2626.247	7910
2628.167	7940
2630.088	7819
2632.008	7960
2633.928	7812
2635.848	7823
2637.766	7793
2639.684	7849
2641.603	7910
2643.519	7805
2645.437	7853
2647.353	7900
2649.27	7836
2651.184	7957
2653.099	7793
2655.014	7922
2656.928	7779
2658.842	7875
2660.755	7999
2662.667	7694
2664.579	7830
2666.491	7949
2668.402	7871
2670.312	7810
2672.222	7939
2674.132	7848
2676.042	7819
2677.951	7764
2679.859	7796
2681.766	7739
2683.674	7883
2685.582	7669
2687.488	7803
2689.392	7822
2691.298	7794
2693.202	7826
2695.107	7785
2697.012	7702
2698.914	7674
2700.817	7690
2702.72	7823
2704.622	7667
2706.524	7722
2708.425	7695
2710.326	7704
2712.225	7767
2714.125	7572
2716.024	7736
2717.923	7702
2719.822	7744
2721.719	7690
2723.616	7623
2725.512	7687
2727.41	7802
2729.305	7661
2731.201	7745
2733.095	7634
2734.99	7563
2736.884	7529
2738.778	7664
2740.67	7744
2742.562	7706
2744.455	7577
2746.346	7766
2748.238	7674
2750.129	7588
2752.018	7685
2753.907	7563
2755.797	7562
2757.687	7637
2759.575	7551
2761.462	7716
2763.349	7528
2765.237	7556
2767.124	7633
2769.009	7613
2770.894	7622
2772.779	7518
2774.663	7601
2776.547	7633
2778.431	7444
2780.314	7622
2782.197	7545
2784.078	7576
2785.96	7559
2787.842	7527
2789.723	7617
2791.603	7593
2793.483	7475
2795.362	7597
2797.241	7595
2799.121	7512
2800.997	7580
2802.874	7566
2804.751	7404
2806.628	7621
2808.506	7521
2810.38	7516
2812.255	7577
2814.13	7422
2816.003	7471
2817.878	7316
2819.752	7426
2821.623	7495
2823.496	7637
2825.368	7439
2827.238	7453
2829.111	7501
2830.98	7388
2832.851	7459
2834.719	7537
2836.589	7514
2838.458	7470
2840.327	7455
2842.193	7462
2844.061	7590
2845.927	7423
2847.794	7421
2849.66	7482
2851.525	7450
2853.39	7485
2855.254	7531
2857.117	7515
2858.983	7522
2860.845	7555
2862.707	7599
2864.569	7658
2866.431	7640
2868.293	7693
2870.154	7632
2872.013	7787
2873.873	7695
2875.733	7711
2877.592	7653
2879.451	7736
2881.309	7800
2883.166	7851
2885.022	7895
2886.879	7854
2888.736	7755
2890.591	7833
2892.446	7894
2894.301	7904
2896.155	7833
2898.009	7952
2899.863	8013
2901.716	7916
2903.568	7911
2905.419	7950
2907.27	7767
2909.123	7920
2910.973	7956
2912.824	7939
2914.673	7884
2916.521	7933
2918.372	8102
2920.22	8052
2922.067	7970
2923.914	8109
2925.761	7970
2927.607	8152
2929.455	8178
2931.301	8271
2933.144	8227
2934.99	8088
2936.833	8121
2938.678	8120
2940.522	8177
2942.364	8399
2944.207	8418
2946.048	8496
2947.891	8471
2949.731	8522
2951.571	8472
2953.412	8692
2955.25	8460
2957.09	8497
2958.93	8372
2960.767	8406
2962.606	8392
2964.443	8192
2966.279	8213
2968.116	8053
2969.953	8045
2971.788	8117
2973.623	7893
2975.457	7832
2977.292	7983
2979.127	7830
2980.959	7806
2982.792	7551
2984.624	7615
2986.455	7698
2988.288	7633
2990.119	7584
2991.949	7676
2993.779	7487
2995.608	7518
2997.439	7416
2999.268	7518
3001.096	7424
3002.923	7367
3004.751	7425
3006.578	7380
3008.406	7304
3010.232	7371
3012.057	7190
3013.883	7137
3015.706	7172
3017.532	7162
3019.356	7133
3021.179	7206
3023.002	7088
3024.823	7088
3026.646	7100
3028.469	7024
3030.289	7127
3032.11	7013
3033.93	7069
3035.749	7078
3037.57	6990
3039.39	7099
3041.207	7050
3043.026	7028
3044.842	6960
3046.661	7014
3048.477	7130
3050.294	6941
3052.109	6915
3053.925	6928
3055.739	7003
3057.555	7027
3059.368	6933
3061.181	6850
3062.995	6997
3064.807	6918
3066.62	6896
3068.433	7024
3070.243	6868
3072.054	6916
3073.865	6833
3075.675	6891
3077.485	6890
3079.293	6803
3081.102	6895
3082.911	6841
3084.719	6712
3086.527	6855
3088.333	6885
3090.139	6708
3091.945	6729
3093.75	6689
3095.557	6757
3097.361	6757
3099.165	6752
3100.969	6837
3102.772	6716
3104.575	6752
3106.379	6692
3108.181	6694
3109.982	6701
3111.783	6759
3113.584	6606
3115.386	6748
3117.186	6627
3118.985	6696
3120.783	6616
3122.582	6591
3124.381	6636
3126.179	6511
3127.975	6513
3129.772	6579
3131.569	6628
3133.365	6476
3135.161	6636
3136.956	6629
3138.751	6471
3140.544	6532
3142.338	6478
3144.132	6510
3145.925	6589
3147.717	6475
3149.509	6549
3151.301	6527
3153.091	6563
3154.884	6430
3156.673	6459
3158.462	6459
3160.252	6587
3162.041	6465
3163.831	6554
3165.618	6456
3167.405	6510
3169.193	6433
3170.979	6421
3172.767	6423
3174.553	6428
3176.338	6493
3178.123	6495
3179.907	6441
3181.692	6496
3183.477	6453
3185.259	6366
3187.042	6465
3188.824	6324
3190.607	6242
3192.389	6459
3194.17	6383
3195.951	6390
3197.73	6356
3199.51	6417
3201.289	6308
3203.07	6389
3204.848	6342
3206.626	6272
3208.403	6385
3210.18	6328
3211.959	6201
3213.735	6501
3215.511	6363
3217.285	6379
3219.06	6469
3220.836	6393
3222.611	6282
3224.384	6354
3226.158	6283
3227.929	6256
3229.702	6333
3231.476	6326
3233.248	6280
3235.018	6296
3236.789	6227
3238.56	6381
3240.33	6264
3242.1	6306
3243.869	6270
3245.637	6182
3247.405	6166
3249.172	6210
3250.941	6318
3252.707	6239
3254.474	6159
3256.24	6380
3258.006	6300
3259.772	6203
3261.537	6227
3263.301	6272
3265.065	6268
3266.828	6408
3268.592	6251
3270.355	6351
3272.117	6320
3273.878	6271
3275.64	6194
3277.401	6291
3279.162	6220
3280.922	6239
3282.682	6261
3284.441	6222
3286.199	6257
3287.959	6283
3289.716	6234
3291.475	6232
3293.232	6165
3294.988	6238
3296.744	6239
3298.501	6261
3300.256	6224
3302.011	6296
3303.766	6173
3305.52	6250
3307.275	6014
3309.028	6256
3310.781	6192
3312.533	6244
3314.285	6297
3316.038	6093
3317.789	6183
3319.54	6202
3321.289	6206
3323.039	6188
3324.789	6193
3326.539	6059
3328.288	6131
3330.035	6266
3331.783	6221
3333.531	6127
3335.28	6138
3337.025	6138
3338.771	6091
3340.518	6052
3342.262	6095
3344.009	6072
3345.753	6090
3347.497	6013
3349.24	6099
3350.983	6062
3352.726	6090
3354.469	6129
3356.212	6039
3357.952	5991
3359.694	5934
3361.434	6148
3363.176	6070
3364.916	6056
3366.654	5949
3368.394	6005
3370.132	6090
3371.871	5994
3373.61	6036
3375.346	5929
3377.083	6049
3378.82	6056
3380.556	5957
3382.292	5915
3384.027	5945
3385.763	6057
3387.497	5878
3389.231	5970
3390.965	5927
3392.698	5939
3394.431	5985
3396.164	6011
3397.896	6019
3399.627	5993
3401.36	5914
3403.09	5960
3404.82	5739
3406.55	5949
3408.279	5812
3410.01	6009
3411.738	5932
3413.467	5811
3415.194	6029
3416.92	5837
3418.647	5904
3420.375	5823
3422.102	5826
3423.827	5740
3425.553	5812
3427.277	5909
3429.003	5831
3430.727	5801
3432.451	5818
3434.173	5718
3435.896	5802
3437.62	5710
3439.343	5886
3441.063	5848
3442.785	5758
3444.505	5727
3446.226	5778
3447.948	5785
3449.666	5787
3451.386	5823
3453.104	5771
3454.823	5696
3456.541	5678
3458.259	5623
3459.976	5718
3461.693	5688
3463.408	5679
3465.125	5670
3466.841	5627
3468.556	5650
3470.271	5659
3471.985	5592
3473.698	5575
3475.414	5657
3477.126	5579
3478.838	5541
3480.55	5506
3482.263	5573
3483.975	5569
3485.686	5541
3487.396	5525
3489.106	5564
3490.817	5436
3492.526	5461
3494.236	5561
3495.944	5511
3497.652	5605
3499.359	5525
3501.066	5511
3502.775	5501
3504.481	5521
3506.187	5455
3507.893	5501
3509.598	5495
3511.304	5435
3513.009	5448
3514.713	5555
3516.417	5546
3518.12	5471
3519.821	5498
3521.525	5444
3523.228	5466
3524.929	5422
3526.631	5351
3528.33	5417
3530.032	5346
3531.733	5345
3533.433	5514
3535.131	5399
3536.83	5370
3538.529	5387
3540.227	5369
3541.925	5409
3543.623	5342
3545.319	5435
3547.016	5466
3548.712	5325
3550.408	5369
3552.103	5343
3553.798	5429
3555.491	5364
3557.188	5289
3558.88	5327
3560.574	5171
3562.266	5288
3563.959	5301
3565.651	5330
3567.343	5378
3569.035	5324
3570.725	5253
3572.415	5358
3574.106	5226
3575.797	5178
3577.485	5205
3579.174	5302
3580.863	5297
3582.551	5132
3584.238	5236
3585.926	5201
3587.613	5103
3589.3	5240
3590.986	5205
3592.671	5062
3594.357	5185
3596.042	5193
3597.726	5199
3599.41	5257
3601.094	5200
3602.778	5154
3604.461	5200
3606.143	5184
3607.825	5186
3609.507	5138
3611.188	5143
3612.87	5033
3614.551	5093
3616.229	5090
3617.909	5070
3619.589	5103
3621.269	5132
3622.948	5075
3624.625	5070
3626.302	5102
3627.98	4996
3629.657	4940
3631.334	5082
3633.01	5055
3634.686	4941
3636.361	4951
3638.036	5064
3639.712	5020
3641.385	5028
3643.06	5087
3644.732	4959
3646.405	4910
3648.08	4933
3649.751	5021
3651.424	4992
3653.094	5006
3654.766	4943
3656.436	4967
3658.106	4956
3659.777	4993
3661.446	4947
3663.115	5028
3664.783	4959
3666.452	4934
3668.121	4985
3669.788	4859
3671.454	4919
3673.121	4914
3674.789	4976
3676.455	4860
3678.12	4939
3679.784	4860
3681.45	4788
3683.114	4874
3684.779	4762
3686.442	4891
3688.105	4904
3689.768	4777
3691.43	4837
3693.093	4940
3694.754	4836
3696.415	4896
3698.076	4862
3699.736	4927
3701.396	4801
3703.057	4823
3704.716	4846
3706.375	4771
3708.034	4865
3709.692	4852
3711.351	4941
3713.008	4848
3714.665	4785
3716.321	4841
3717.977	4835
3719.634	4891
3721.29	4778
3722.945	4728
3724.598	4809
3726.253	4752
3727.907	4858
3729.561	4747
3731.214	4789
3732.867	4782
3734.518	4725
3736.171	4771
3737.824	4786
3739.474	4732
3741.125	4816
3742.775	4740
3744.425	4719
3746.074	4827
3747.725	4733
3749.373	4732
3751.022	4664
3752.669	4795
3754.318	4579
3755.966	4709
3757.612	4666
3759.259	4640
3760.905	4719
3762.55	4705
3764.197	4651
3765.842	4631
3767.486	4735
3769.131	4683
3770.774	4737
3772.417	4711
3774.061	4651
3775.705	4580
3777.347	4655
3778.988	4631
3780.629	4689
3782.271	4595
3783.912	4554
3785.552	4495
3787.192	4643
3788.831	4565
3790.472	4587
3792.112	4636
3793.75	4624
3795.388	4519
3797.024	4600
3798.661	4461
3800.3	4573
3801.936	4467
3803.572	4518
3805.208	4507
3806.844	4588
3808.48	4503
3810.115	4499
3811.748	4515
3813.382	4546
3815.016	4476
3816.649	4472
3818.283	4538
3819.914	4552
3821.547	4427
3823.178	4564
3824.809	4548
3826.441	4484
3828.072	4562
3829.701	4530
3831.331	4525
3832.96	4402
3834.591	4430
3836.219	4413
3837.847	4536
3839.475	4438
3841.102	4402
3842.729	4421
3844.357	4410
3845.984	4436
3847.609	4469
3849.234	4413
3850.86	4440
3852.485	4365
3854.11	4371
3855.734	4385
3857.357	4404
3858.981	4326
3860.603	4408
3862.227	4431
3863.848	4432
3865.471	4350
3867.092	4388
3868.713	4305
3870.334	4303
3871.954	4332
3873.575	4285
3875.194	4340
3876.813	4278
3878.433	4417
3880.051	4329
3881.669	4339
3883.286	4361
3884.904	4239
3886.52	4414
3888.138	4362
3889.754	4201
3891.37	4345
3892.985	4263
3894.6	4324
3896.216	4334
3897.831	4192
3899.444	4328
3901.058	4417
3902.67	4193
3904.283	4227
3905.897	4314
3907.509	4316
3909.121	4259
3910.731	4275
3912.342	4272
3913.954	4273
3915.563	4234
3917.174	4253
3918.783	4269
3920.391	4292
3922.002	4199
3923.611	4246
3925.218	4288
3926.826	4325
3928.432	4231
3930.039	4222
3931.647	4291
3933.253	4265
3934.859	4223
3936.464	4284
3938.068	4120
3939.675	4306
3941.278	4126
3942.883	4202
3944.486	4173
3946.089	4192
3947.692	4134
3949.295	4149
3950.898	4237
3952.499	4069
3954.1	4199
3955.7	4158
3957.303	4228
3958.903	4168
3960.502	4101
3962.101	4236
3963.7	4101
3965.301	4157
3966.899	4107
3968.497	4147
3970.094	4107
3971.691	4147
3973.288	4038
3974.885	4109
3976.481	4073
3978.077	4059
3979.672	4128
3981.267	4049
3982.863	4097
3984.457	4048
3986.051	4126
3987.645	4028
3989.238	4054
3990.831	4149
3992.425	3933
3994.017	4052
3995.607	4027
3997.199	4049
3998.79	3959
4000.382	3908
4001.973	4002
4003.561	4009
4005.151	3998
4006.741	4007
4008.331	3916
4009.918	3952
4011.507	3973
4013.095	3962
4014.681	3923
4016.269	3927
4017.856	3928
4019.443	3993
4021.028	3978
4022.614	3925
4024.199	3954
4025.785	3902
4027.37	3925
4028.953	3950
4030.536	3875
4032.12	3994
4033.704	3793
4035.287	3917
4036.869	3893
4038.45	3845
4040.032	3893
4041.613	3855
4043.195	3865
4044.776	3875
4046.356	3884
4047.935	3900
4049.515	3848
4051.095	3879
4052.674	3850
4054.251	3763
4055.829	3848
4057.406	3831
4058.985	3904
4060.562	3775
4062.139	3844
4063.715	3878
4065.29	3812
4066.865	3826
4068.442	3811
4070.016	3830
4071.59	3802
4073.164	3798
4074.738	3804
4076.312	3787
4077.885	3759
4079.458	3786
4081.03	3722
4082.602	3841
4084.173	3821
4085.745	3792
4087.315	3804
4088.886	3754
4090.456	3781
4092.026	3733
4093.596	3786
4095.165	3883
4096.734	3695
4098.301	3784
4099.869	3774
4101.437	3748
4103.006	3752
4104.572	3670
4106.139	3708
4107.704	3638
4109.27	3706
4110.837	3747
4112.401	3779
4113.966	3789
4115.53	3697
4117.094	3744
4118.659	3677
4120.223	3604
4121.785	3729
4123.347	3741
4124.909	3745
4126.471	3716
4128.034	3643
4129.595	3714
4131.155	3633
4132.716	3669
4134.275	3602
4135.836	3691
4137.395	3623
4138.955	3570
4140.513	3697
4142.071	3689
4143.628	3699
4145.188	3677
4146.745	3584
4148.302	3643
4149.858	3587
4151.414	3624
4152.971	3655
4154.526	3576
4156.081	3536
4157.635	3528
4159.189	3626
4160.745	3589
4162.298	3571
4163.852	3591
4165.405	3604
4166.957	3481
4168.51	3536
4170.063	3565
4171.614	3549
4173.166	3465
4174.717	3465
4176.267	3563
4177.817	3554
4179.368	3491
4180.917	3517
4182.466	3498
4184.016	3520
4185.564	3501
4187.112	3527
4188.66	3502
4190.207	3436
4191.754	3467
4193.301	3526
4194.848	3399
4196.394	3505
4197.94	3478
4199.484	3409
4201.03	3417
4202.575	3404
4204.12	3500
4205.663	3394
4207.207	3478
4208.75	3434
4210.292	3431
4211.836	3452
4213.378	3422
4214.92	3500
4216.46	3287
4218.002	3307
4219.544	3450
4221.083	3507
4222.625	3415
4224.164	3378
4225.703	3390
4227.244	3403
4228.782	3308
4230.32	3344
4231.857	3417
4233.395	3450
4234.933	3311
4236.471	3347
4238.007	3339
4239.542	3356
4241.078	3372
4242.614	3371
4244.15	3361
4245.685	3312
4247.219	3405
4248.753	3308
4250.287	3347
4251.82	3359
4253.354	3345
4254.887	3339
4256.419	3291
4257.951	3287
4259.483	3338
4261.016	3284
4262.547	3318
4264.078	3275
4265.608	3315
4267.137	3333
4268.668	3303
4270.197	3335
4271.727	3322
4273.254	3304
4274.783	3293
4276.311	3258
4277.84	3310
4279.366	3321
4280.894	3310
4282.42	3276
4283.946	3328
4285.473	3266
4286.998	3206
4288.523	3269
4290.047	3279
4291.572	3234
4293.096	3211
4294.622	3212
4296.144	3233
4297.668	3251
4299.19	3299
4300.713	3202
4302.236	3223
4303.758	3282
4305.279	3234
4306.799	3225
4308.321	3168
4309.842	3160
4311.361	3197
4312.882	3283
4314.401	3147
