400.0961	4377
402.6185	4344
405.1424	4347
407.6635	4385
410.1838	4361
412.7035	4401
415.2225	4399
417.7388	4407
420.2585	4388
422.7754	4556
425.2917	4624
427.8072	4576
430.3221	4524
432.8363	4513
435.3498	4595
437.8626	4614
440.3727	4537
442.8841	4701
445.3969	4682
447.907	4654
450.4142	4650
452.9229	4665
455.4289	4571
457.9362	4662
460.4449	4629
462.9488	4591
465.454	4673
467.9566	4673
470.4604	4627
472.9637	4635
475.4662	4622
477.966	4546
480.4671	4572
482.9656	4593
485.4633	4648
487.9645	4604
490.4608	4693
492.9566	4770
495.4536	4687
497.948	4785
500.4437	4781
502.9387	4782
505.431	4694
507.9226	4711
510.4136	4825
512.9079	4830
515.3975	4799
517.8864	4776
520.3746	4723
522.8622	4802
525.3491	4834
527.8394	4784
530.3249	4804
532.8098	4883
535.2939	4942
537.7774	4896
540.2623	4720
542.7444	4755
545.2259	4942
547.7067	4776
550.1868	4828
552.6683	4870
555.147	4888
557.6231	4846
560.1005	4816
562.5773	4911
565.0534	4982
567.5308	4974
570.0056	4784
572.4776	4944
574.951	5041
577.4237	5055
579.8978	4885
582.3671	4996
584.8378	4968
587.3079	5107
589.7773	4904
592.244	4939
594.714	4988
597.1793	5093
599.6461	4992
602.1121	4915
604.5754	4987
607.0421	4892
609.5042	5093
611.9675	5057
614.4282	4996
616.8902	4981
619.3515	4964
621.8122	4947
624.2702	5065
626.7296	4921
629.1863	5074
631.6423	5015
634.1017	4927
636.5563	4959
639.0104	4979
641.4658	5041
643.9185	5011
646.3725	5071
648.8239	5130
651.2766	5098
653.7266	5094
656.176	5141
658.6247	5063
661.0748	5063
663.5242	5122
665.9709	5180
668.417	5196
670.8624	5201
673.3092	5128
675.7533	5291
678.1968	5286
680.6395	5219
683.0817	5161
685.5251	5196
687.9659	5182
690.4061	5275
692.8456	5230
695.2844	5209
697.7226	5314
700.1621	5215
702.599	5263
705.0332	5291
707.4688	5306
709.9036	5310
712.3399	5448
714.7735	5292
717.2044	5245
719.6367	5354
722.0683	5338
724.4993	5325
726.9296	5385
729.3593	5427
731.7883	5402
734.2147	5373
736.6423	5294
739.0714	5444
741.4958	5492
743.9216	5362
746.3447	5464
748.7691	5376
751.1929	5502
753.616	5422
756.0366	5556
758.4584	5577
760.8776	5470
763.2982	5606
765.718	5615
768.1373	5566
770.5539	5619
772.9698	5480
775.3871	5646
777.8038	5663
780.2178	5631
782.6332	5564
785.0459	5534
787.458	5504
789.8714	5539
792.2842	5563
794.6943	5579
797.1038	5637
799.5127	5576
801.9209	5584
804.3324	5705
806.7393	5686
809.1456	5590
811.5513	5648
813.9562	5578
816.3625	5640
818.7663	5665
821.1693	5761
823.5718	5564
825.9735	5652
828.3746	5620
830.7771	5617
833.177	5659
835.5762	5563
837.9747	5714
840.3727	5723
842.772	5742
845.1666	5744
847.5626	5825
849.958	5876
852.3527	5862
854.7488	5863
857.1403	5773
859.5331	5900
861.9253	5894
864.3168	5755
866.7057	5851
869.098	5769
871.4876	5671
873.8746	5764
876.263	5856
878.6487	5763
881.0378	5779
883.4243	5687
885.8081	5700
888.1933	5796
890.5759	5690
892.9598	5724
895.343	5800
897.7256	5803
900.1057	5776
902.4871	5823
904.8659	5823
907.246	5884
909.6254	6009
912.0023	5932
914.3786	5995
916.7562	6008
919.1331	6138
921.5074	6264
923.8831	6205
926.2562	6178
928.6287	6252
931.0005	6253
933.3757	6066
935.7462	6134
938.1162	6099
940.4855	6113
942.8542	6195
945.2242	6069
947.5916	6081
949.9584	6262
952.3266	6374
954.6921	6305
957.0571	6373
959.4233	6561
961.787	6514
964.15	6631
966.5125	6505
968.8742	6396
971.2354	6246
973.5959	6202
975.9559	6167
978.3151	6054
980.6738	6075
983.0338	6117
985.3912	5994
987.7461	6005
990.1022	6002
992.4578	5956
994.8127	5952
997.1689	5894
999.5207	6020
1001.874	5998
1004.226	6058
1006.576	6090
1008.929	5964
1011.28	5917
1013.628	6064
1015.977	5953
1018.324	5948
1020.674	6026
1023.019	6026
1025.366	6054
1027.713	5936
1030.056	5970
1032.399	6010
1034.746	6109
1037.087	5960
1039.431	6083
1041.771	6141
1044.113	6057
1046.454	6001
1048.793	6069
1051.133	6043
1053.471	6152
1055.807	6083
1058.146	6168
1060.483	6109
1062.818	5954
1065.153	6030
1067.489	6178
1069.822	6064
1072.156	6163
1074.488	6179
1076.82	6084
1079.15	6177
1081.48	5996
1083.814	6201
1086.143	6190
1088.471	6077
1090.799	6077
1093.126	6052
1095.452	6110
1097.78	6170
1100.105	6221
1102.43	6116
1104.754	6192
1107.077	6122
1109.4	6256
1111.722	6185
1114.044	6200
1116.365	6196
1118.685	6232
1121.005	6293
1123.324	6253
1125.643	6176
1127.961	6237
1130.278	6290
1132.595	6220
1134.911	6273
1137.226	6138
1139.541	6134
1141.854	6135
1144.167	5999
1146.482	6163
1148.793	6228
1151.105	6136
1153.414	6147
1155.725	6233
1158.033	6285
1160.344	6245
1162.651	6176
1164.959	6174
1167.265	6230
1169.572	6262
1171.878	6164
1174.184	6230
1176.488	6224
1178.79	6285
1181.094	6274
1183.396	6303
1185.699	6183
1188.001	6218
1190.301	6213
1192.6	6194
1194.9	6253
1197.2	6310
1199.497	6223
1201.794	6264
1204.09	6253
1206.387	6227
1208.684	6294
1210.978	6211
1213.272	6294
1215.565	6201
1217.858	6240
1220.15	6255
1222.443	6238
1224.734	6225
1227.024	6233
1229.313	6246
1231.602	6238
1233.892	6476
1236.18	6431
1238.467	6467
1240.754	6478
1243.04	6400
1245.325	6533
1247.612	6616
1249.896	6457
1252.178	6526
1254.461	6535
1256.743	6515
1259.027	6591
1261.308	6676
1263.587	6501
1265.867	6498
1268.146	6494
1270.425	6691
1272.703	6607
1274.981	6611
1277.256	6408
1279.532	6640
1281.808	6435
1284.083	6464
1286.358	6503
1288.63	6556
1290.904	6356
1293.175	6433
1295.449	6435
1297.719	6379
1299.99	6532
1302.259	6480
1304.529	6347
1306.798	6352
1309.065	6511
1311.333	6465
1313.599	6558
1315.866	6430
1318.131	6540
1320.396	6543
1322.66	6431
1324.925	6521
1327.187	6396
1329.448	6575
1331.711	6545
1333.974	6502
1336.234	6582
1338.493	6511
1340.752	6562
1343.01	6384
1345.269	6446
1347.526	6343
1349.784	6325
1352.04	6412
1354.295	6285
1356.552	6404
1358.806	6431
1361.059	6429
1363.312	6499
1365.564	6398
1367.818	6500
1370.069	6386
1372.318	6623
1374.568	6574
1376.817	6585
1379.066	6559
1381.316	6491
1383.564	6562
1385.809	6510
1388.056	6573
1390.301	6616
1392.549	6751
1394.793	6735
1397.036	6786
1399.279	6878
1401.522	6902
1403.763	6959
1406.007	6789
1408.248	6830
1410.487	6769
1412.727	6745
1414.965	6743
1417.205	6753
1419.442	6767
1421.68	6757
1423.915	6775
1426.152	6766
1428.388	6758
1430.623	6683
1432.857	6793
1435.091	6758
1437.323	6884
1439.556	6843
1441.789	6891
1444.019	6828
1446.25	6830
1448.48	6808
1450.708	6818
1452.938	6845
1455.167	6929
1457.394	6980
1459.62	7006
1461.846	6858
1464.073	6929
1466.299	6810
1468.523	6788
1470.746	6785
1472.969	6636
1475.191	6638
1477.415	6676
1479.636	6590
1481.858	6543
1484.078	6562
1486.298	6582
1488.518	6504
1490.736	6471
1492.954	6515
1495.169	6341
1497.386	6383
1499.602	6413
1501.819	6275
1504.034	6464
1506.248	6441
1508.462	6379
1510.675	6390
1512.888	6449
1515.1	6421
1517.311	6375
1519.522	6431
1521.732	6298
1523.942	6415
1526.151	6377
1528.36	6308
1530.566	6457
1532.773	6515
1534.98	6449
1537.187	6397
1539.392	6477
1541.596	6408
1543.801	6487
1546.005	6469
1548.208	6382
1550.411	6417
1552.612	6431
1554.814	6545
1557.013	6447
1559.212	6495
1561.414	6487
1563.612	6518
1565.811	6586
1568.007	6590
1570.203	6515
1572.403	6539
1574.598	6704
1576.792	6621
1578.988	6574
1581.181	6564
1583.376	6612
1585.568	6612
1587.761	6595
1589.952	6698
1592.143	6573
1594.333	6665
1596.524	6566
1598.715	6573
1600.903	6625
1603.091	6618
1605.278	6741
1607.466	6719
1609.652	6523
1611.838	6690
1614.023	6703
1616.207	6577
1618.391	6498
1620.576	6739
1622.759	6737
1624.941	6558
1627.123	6669
1629.304	6750
1631.484	6761
1633.664	6628
1635.844	6687
1638.022	6671
1640.201	6779
1642.38	6650
1644.556	6771
1646.732	6820
1648.908	6771
1651.084	6793
1653.257	6688
1655.433	6659
1657.607	6838
1659.779	6932
1661.951	6802
1664.122	6747
1666.295	6819
1668.467	6886
1670.635	6898
1672.805	6886
1674.973	6946
1677.142	6723
1679.31	6622
1681.478	6683
1683.644	6764
1685.81	6903
1687.975	6874
1690.142	6774
1692.305	6696
1694.468	6660
1696.632	6783
1698.794	6693
1700.957	6728
1703.119	6613
1705.279	6687
1707.439	6617
1709.598	6757
1711.758	6470
1713.917	6582
1716.075	6639
1718.231	6553
1720.388	6613
1722.543	6518
1724.702	6688
1726.856	6605
1729.01	6645
1731.164	6662
1733.317	6558
1735.471	6627
1737.623	6542
1739.774	6692
1741.925	6599
1744.075	6549
1746.225	6647
1748.376	6532
1750.524	6586
1752.672	6495
1754.82	6525
1756.965	6745
1759.113	6530
1761.259	6712
1763.405	6538
1765.549	6663
1767.694	6644
1769.836	6613
1771.981	6615
1774.123	6674
1776.264	6704
1778.405	6649
1780.546	6642
1782.687	6741
1784.827	6581
1786.966	6811
1789.103	6647
1791.242	6611
1793.381	6637
1795.517	6699
1797.653	6683
1799.788	6693
1801.923	6625
1804.057	6842
1806.193	6773
1808.326	6726
1810.457	6672
1812.59	6615
1814.721	6639
1816.855	6643
1818.984	6679
1821.113	6697
1823.244	6702
1825.372	6626
1827.499	6496
1829.63	6791
1831.756	6682
1833.882	6680
1836.007	6690
1838.132	6731
1840.26	6552
1842.384	6633
1844.507	6649
1846.63	6635
1848.752	6632
1850.875	6631
1852.996	6625
1855.118	6640
1857.238	6632
1859.358	6498
1861.477	6581
1863.597	6639
1865.715	6591
1867.832	6617
1869.948	6611
1872.064	6505
1874.181	6483
1876.297	6566
1878.411	6616
1880.526	6606
1882.639	6617
1884.752	6593
1886.865	6666
1888.977	6656
1891.089	6567
1893.2	6749
1895.308	6661
1897.42	6564
1899.53	6606
1901.639	6556
1903.745	6500
1905.853	6594
1907.962	6732
1910.067	6647
1912.174	6599
1914.278	6607
1916.383	6782
1918.486	6682
1920.592	6696
1922.694	6795
1924.797	6700
1926.898	6663
1929	6776
1931.102	6752
1933.203	6670
1935.301	6693
1937.401	6679
1939.499	6631
1941.598	6755
1943.697	6803
1945.793	6723
1947.888	6682
1949.985	6607
1952.08	6607
1954.176	6680
1956.269	6782
1958.364	6631
1960.457	6693
1962.549	6737
1964.642	6692
1966.733	6645
1968.823	6569
1970.913	6680
1973.005	6645
1975.093	6679
1977.184	6667
1979.271	6675
1981.359	6676
1983.446	6493
1985.532	6706
1987.619	6542
1989.705	6645
1991.789	6751
1993.874	6593
1995.956	6596
1998.041	6647
2000.123	6537
2002.206	6628
2004.287	6542
2006.368	6568
2008.449	6584
2010.529	6736
2012.609	6667
2014.688	6596
2016.766	6573
2018.843	6567
2020.922	6574
2022.999	6641
2025.074	6620
2027.15	6537
2029.225	6765
2031.299	6598
2033.375	6641
2035.447	6610
2037.52	6721
2039.592	6530
2041.664	6608
2043.736	6647
2045.807	6616
2047.876	6536
2049.947	6684
2052.015	6533
2054.086	6540
2056.153	6479
2058.221	6697
2060.288	6601
2062.353	6633
2064.42	6587
2066.486	6569
2068.55	6499
2070.614	6665
2072.678	6736
2074.741	6590
2076.805	6621
2078.866	6608
2080.929	6572
2082.99	6632
2085.049	6791
2087.109	6620
2089.17	6590
2091.228	6579
2093.286	6673
2095.344	6696
2097.4	6704
2099.46	6514
2101.516	6606
2103.572	6486
2105.626	6680
2107.679	6547
2109.735	6538
2111.788	6550
2113.841	6612
2115.894	6618
2117.945	6656
2119.997	6628
2122.049	6590
2124.1	6529
2126.148	6595
2128.197	6686
2130.246	6690
2132.296	6600
2134.342	6624
2136.39	6576
2138.437	6498
2140.483	6650
2142.527	6632
2144.574	6623
2146.619	6647
2148.661	6474
2150.705	6517
2152.747	6563
2154.792	6487
2156.832	6402
2158.874	6529
2160.915	6593
2162.954	6576
2164.995	6412
2167.034	6603
2169.072	6624
2171.111	6537
2173.148	6553
2175.186	6446
2177.223	6585
2179.258	6520
2181.294	6456
2183.328	6598
2185.362	6468
2187.398	6427
2189.431	6440
2191.463	6499
2193.495	6434
2195.528	6449
2197.56	6418
2199.59	6452
2201.62	6304
2203.649	6458
2205.678	6501
2207.708	6479
2209.737	6444
2211.764	6501
2213.791	6515
2215.817	6398
2217.843	6478
2219.87	6417
2221.895	6349
2223.919	6362
2225.942	6427
2227.966	6321
2229.988	6350
2232.012	6340
2234.032	6470
2236.054	6330
2238.074	6332
2240.095	6491
2242.116	6397
2244.135	6455
2246.153	6440
2248.171	6301
2250.188	6496
2252.208	6447
2254.223	6451
2256.239	6349
2258.255	6395
2260.269	6363
2262.283	6355
2264.3	6349
2266.312	6380
2268.325	6521
2270.336	6347
2272.349	6368
2274.362	6475
2276.372	6361
2278.383	6403
2280.392	6375
2282.402	6331
2284.409	6283
2286.418	6333
2288.427	6415
2290.433	6414
2292.441	6369
2294.446	6318
2296.453	6390
2298.459	6366
2300.463	6425
2302.466	6176
2304.471	6483
2306.475	6405
2308.477	6363
2310.478	6250
2312.481	6445
2314.481	6388
2316.481	6446
2318.482	6278
2320.482	6284
2322.48	6382
2324.48	6441
2326.478	6359
2328.476	6348
2330.473	6293
2332.469	6281
2334.465	6281
2336.46	6317
2338.454	6269
2340.45	6360
2342.444	6310
2344.437	6253
2346.43	6244
2348.421	6318
2350.414	6204
2352.405	6395
2354.396	6240
2356.386	6197
2358.376	6285
2360.366	6279
2362.355	6249
2364.343	6260
2366.331	6267
2368.317	6245
2370.304	6224
2372.292	6394
2374.278	6145
2376.262	6199
2378.247	6134
2380.23	6322
2382.216	6162
2384.199	6181
2386.181	6152
2388.163	6224
2390.144	6170
2392.127	6221
2394.107	6061
2396.087	6263
2398.066	6122
2400.046	6184
2402.023	6130
2404.004	6080
2405.981	6210
2407.957	6141
2409.934	6115
2411.91	6159
2413.886	6116
2415.862	6027
2417.836	6027
2419.809	6234
2421.784	6195
2423.756	6165
2425.73	6072
2427.701	6100
2429.672	6240
2431.644	6116
2433.615	6064
2435.586	6165
2437.555	6127
2439.523	6242
2441.491	6272
2443.459	6128
2445.428	6167
2447.395	5990
2449.361	6088
2451.327	6169
2453.292	6078
2455.257	6179
2457.223	6171
2459.187	6071
2461.15	6107
2463.113	6169
2465.076	6141
2467.039	6077
2468.999	6126
2470.96	6098
2472.921	6096
2474.881	6091
2476.841	6075
2478.8	6066
2480.759	6171
2482.717	6085
2484.675	6087
2486.63	5972
2488.589	6086
2490.545	6077
2492.5	5989
2494.455	6091
2496.408	6077
2498.364	6008
2500.318	6053
2502.27	6017
2504.223	6155
2506.174	5965
2508.126	5908
2510.078	5964
2512.03	6090
2513.979	5959
2515.927	6037
2517.877	6032
2519.826	5998
2521.775	6038
2523.722	5922
2525.668	5989
2527.616	6007
2529.561	6126
2531.508	6150
2533.452	5985
2535.398	5948
2537.342	5991
2539.284	6001
2541.229	5948
2543.173	6009
2545.114	5883
2547.055	6042
2548.996	5839
2550.938	5986
2552.878	6017
2554.817	5984
2556.756	6083
2558.695	5935
2560.633	6021
2562.572	5987
2564.509	5884
2566.445	6076
2568.382	5996
2570.317	6030
2572.254	5871
2574.189	6024
2576.123	5961
2578.057	5950
2579.99	5992
2581.923	6063
2583.855	5966
2585.788	5994
2587.719	5958
2589.65	6039
2591.579	5943
2593.511	6004
2595.44	5990
2597.37	5828
2599.297	6038
2601.225	6035
2603.153	5971
2605.08	5908
2607.007	6009
2608.932	5955
2610.858	6090
2612.782	5993
2614.709	6025
2616.632	5936
2618.556	6007
2620.478	5901
2622.401	6109
2624.324	6023
2626.247	5898
2628.167	6024
2630.088	6129
2632.008	6072
2633.928	6003
2635.848	6000
2637.766	6002
2639.684	6072
2641.603	5889
2643.519	6148
2645.437	6107
2647.353	6001
2649.27	5942
2651.184	6100
2653.099	5949
2655.014	6004
2656.928	6021
2658.842	5962
2660.755	5980
2662.667	5925
2664.579	5959
2666.491	5910
2668.402	5947
2670.312	5896
2672.222	6010
2674.132	5889
2676.042	5994
2677.951	5915
2679.859	5934
2681.766	5862
2683.674	5936
2685.582	5868
2687.488	5871
2689.392	5883
2691.298	5898
2693.202	5824
2695.107	5921
2697.012	6032
2698.914	5862
2700.817	5821
2702.72	5847
2704.622	5823
2706.524	5856
2708.425	5929
2710.326	5879
2712.225	5941
2714.125	5704
2716.024	5887
2717.923	5900
2719.822	5701
2721.719	5765
2723.616	5787
2725.512	5828
2727.41	5842
2729.305	5806
2731.201	5822
2733.095	5911
2734.99	5922
2736.884	5769
2738.778	5901
2740.67	5863
2742.562	5849
2744.455	5878
2746.346	5763
2748.238	5749
2750.129	5765
2752.018	5956
2753.907	5795
2755.797	5844
2757.687	5801
2759.575	5764
2761.462	5780
2763.349	5901
2765.237	5785
2767.124	5784
2769.009	5800
2770.894	5784
2772.779	5770
2774.663	5763
2776.547	5799
2778.431	5749
2780.314	5740
2782.197	5798
2784.078	5770
2785.96	5764
2787.842	5814
2789.723	5776
2791.603	5778
2793.483	5839
2795.362	5678
2797.241	5738
2799.121	5793
2800.997	5727
2802.874	5794
2804.751	5743
2806.628	5803
2808.506	5879
2810.38	5756
2812.255	5786
2814.13	5720
2816.003	5769
2817.878	5721
2819.752	5733
2821.623	5715
2823.496	5710
2825.368	5817
2827.238	5752
2829.111	5773
2830.98	5829
2832.851	5778
2834.719	5822
2836.589	5718
2838.458	5967
2840.327	5677
2842.193	5910
2844.061	5941
2845.927	5747
2847.794	5829
2849.66	5880
2851.525	5853
2853.39	5962
2855.254	5958
2857.117	5903
2858.983	5944
2860.845	6010
2862.707	6080
2864.569	6149
2866.431	5974
2868.293	6004
2870.154	6221
2872.013	6208
2873.873	6238
2875.733	6148
2877.592	6178
2879.451	6319
2881.309	6507
2883.166	6381
2885.022	6483
2886.879	6495
2888.736	6462
2890.591	6602
2892.446	6565
2894.301	6713
2896.155	6696
2898.009	6736
2899.863	6673
2901.716	6513
2903.568	6647
2905.419	6551
2907.27	6518
2909.123	6562
2910.973	6533
2912.824	6496
2914.673	6582
2916.521	6677
2918.372	6742
2920.22	6753
2922.067	6651
2923.914	6810
2925.761	6896
2927.607	6925
2929.455	6957
2931.301	6860
2933.144	6994
2934.99	7134
2936.833	7144
2938.678	7110
2940.522	7166
2942.364	7332
2944.207	7346
2946.048	7514
2947.891	7627
2949.731	7659
2951.571	7656
2953.412	7731
2955.25	7678
2957.09	7641
2958.93	7496
2960.767	7600
2962.606	7512
2964.443	7392
2966.279	7410
2968.116	7172
2969.953	7068
2971.788	6949
2973.623	6826
2975.457	6759
2977.292	6709
2979.127	6692
2980.959	6606
2982.792	6527
2984.624	6316
2986.455	6458
2988.288	6492
2990.119	6289
2991.949	6242
2993.779	6197
2995.608	6112
2997.439	6121
2999.268	6087
3001.096	6037
3002.923	6026
3004.751	5879
3006.578	5889
3008.406	5804
3010.232	5836
3012.057	5774
3013.883	5574
3015.706	5636
3017.532	5697
3019.356	5752
3021.179	5567
3023.002	5574
3024.823	5514
3026.646	5539
3028.469	5551
3030.289	5596
3032.11	5495
3033.93	5560
3035.749	5518
3037.57	5462
3039.39	5539
3041.207	5352
3043.026	5482
3044.842	5489
3046.661	5475
3048.477	5426
3050.294	5405
3052.109	5400
3053.925	5416
3055.739	5362
3057.555	5376
3059.368	5462
3061.181	5483
3062.995	5455
3064.807	5437
3066.62	5388
3068.433	5415
3070.243	5412
3072.054	5465
3073.865	5431
3075.675	5382
3077.485	5403
3079.293	5346
3081.102	5413
3082.911	5231
3084.719	5291
3086.527	5357
3088.333	5266
3090.139	5356
3091.945	5274
3093.75	5333
3095.557	5200
3097.361	5293
3099.165	5347
3100.969	5303
3102.772	5257
3104.575	5244
3106.379	5404
3108.181	5267
3109.982	5207
3111.783	5227
3113.584	5185
3115.386	5169
3117.186	5322
3118.985	5133
3120.783	5197
3122.582	5118
3124.381	5103
3126.179	5252
3127.975	5100
3129.772	5115
3131.569	5145
3133.365	5203
3135.161	5154
3136.956	5052
3138.751	5146
3140.544	5083
3142.338	5118
3144.132	5061
3145.925	5016
3147.717	5051
3149.509	5146
3151.301	5148
3153.091	5070
3154.884	5142
3156.673	5154
3158.462	4975
3160.252	5094
3162.041	5138
3163.831	5065
3165.618	5012
3167.405	5179
3169.193	5036
3170.979	5134
3172.767	5045
3174.553	4975
3176.338	5057
3178.123	5094
3179.907	5116
3181.692	4988
3183.477	5077
3185.259	5169
3187.042	5134
3188.824	4955
3190.607	5061
3192.389	5048
3194.17	4995
3195.951	5107
3197.73	4982
3199.51	5032
3201.289	4991
3203.07	5154
3204.848	4986
3206.626	5027
3208.403	5050
3210.18	5075
3211.959	4950
3213.735	4987
3215.511	5001
3217.285	4984
3219.06	4917
3220.836	5034
3222.611	5026
3224.384	5064
3226.158	4924
3227.929	4975
3229.702	4994
3231.476	5003
3233.248	4939
3235.018	5047
3236.789	4853
3238.56	4962
3240.33	5103
3242.1	4978
3243.869	4981
3245.637	5012
3247.405	4930
3249.172	5048
3250.941	4965
3252.707	4985
3254.474	4876
3256.24	4949
3258.006	5039
3259.772	4967
3261.537	5025
3263.301	4951
3265.065	5092
3266.828	5012
3268.592	5069
3270.355	5074
3272.117	4913
3273.878	4929
3275.64	5046
3277.401	5010
3279.162	4925
3280.922	4921
3282.682	4965
3284.441	5025
3286.199	4907
3287.959	5060
3289.716	4978
3291.475	5022
3293.232	4971
3294.988	4919
3296.744	4983
3298.501	4934
3300.256	4986
3302.011	4980
3303.766	5038
3305.52	5085
3307.275	4986
3309.028	4823
3310.781	4930
3312.533	4902
3314.285	4906
3316.038	4895
3317.789	4971
3319.54	4932
3321.289	4932
3323.039	4955
3324.789	4941
3326.539	4890
3328.288	4943
3330.035	4923
3331.783	4900
3333.531	4953
3335.28	4956
3337.025	4852
3338.771	4846
3340.518	4880
3342.262	4916
3344.009	4892
3345.753	5015
3347.497	4859
3349.24	4927
3350.983	4862
3352.726	4887
3354.469	4853
3356.212	4962
3357.952	4727
3359.694	4769
3361.434	4792
3363.176	4811
3364.916	4890
3366.654	4836
3368.394	4726
3370.132	4827
3371.871	4759
3373.61	4841
3375.346	4713
3377.083	4832
3378.82	4745
3380.556	4966
3382.292	4726
3384.027	4794
3385.763	4668
3387.497	4764
3389.231	4797
3390.965	4691
3392.698	4768
3394.431	4721
3396.164	4783
3397.896	4693
3399.627	4770
3401.36	4717
3403.09	4731
3404.82	4701
3406.55	4768
3408.279	4638
3410.01	4681
3411.738	4661
3413.467	4704
3415.194	4679
3416.92	4700
3418.647	4669
3420.375	4640
3422.102	4605
3423.827	4636
3425.553	4761
3427.277	4665
3429.003	4562
3430.727	4541
3432.451	4615
3434.173	4640
3435.896	4581
3437.62	4591
3439.343	4666
3441.063	4594
3442.785	4589
3444.505	4540
3446.226	4523
3447.948	4528
3449.666	4565
3451.386	4541
3453.104	4662
3454.823	4501
3456.541	4589
3458.259	4570
3459.976	4445
3461.693	4534
3463.408	4600
3465.125	4625
3466.841	4454
3468.556	4470
3470.271	4481
3471.985	4431
3473.698	4484
3475.414	4405
3477.126	4509
3478.838	4466
3480.55	4454
3482.263	4405
3483.975	4369
3485.686	4498
3487.396	4392
3489.106	4441
3490.817	4484
3492.526	4388
3494.236	4386
3495.944	4324
3497.652	4374
3499.359	4301
3501.066	4317
3502.775	4288
3504.481	4290
3506.187	4298
3507.893	4398
3509.598	4282
3511.304	4408
3513.009	4413
3514.713	4281
3516.417	4208
3518.12	4351
3519.821	4267
3521.525	4316
3523.228	4306
3524.929	4300
3526.631	4244
3528.33	4284
3530.032	4294
3531.733	4267
3533.433	4259
3535.131	4155
3536.83	4274
3538.529	4215
3540.227	4209
3541.925	4173
3543.623	4205
3545.319	4238
3547.016	4209
3548.712	4231
3550.408	4153
3552.103	4235
3553.798	4105
3555.491	4108
3557.188	4222
3558.88	4150
3560.574	4145
3562.266	4166
3563.959	4141
3565.651	4181
3567.343	4182
3569.035	4227
3570.725	4115
3572.415	4032
3574.106	4090
3575.797	4120
3577.485	4152
3579.174	4163
3580.863	4121
3582.551	4088
3584.238	4075
3585.926	4111
3587.613	4131
3589.3	4069
3590.986	4044
3592.671	4151
3594.357	4102
3596.042	4061
3597.726	4050
3599.41	4054
3601.094	3981
3602.778	4035
3604.461	3925
3606.143	4037
3607.825	3988
3609.507	3950
3611.188	3961
3612.87	3962
3614.551	4029
3616.229	3963
3617.909	4034
3619.589	3883
3621.269	3983
3622.948	4010
3624.625	3934
3626.302	4000
3627.98	3889
3629.657	3893
3631.334	3937
3633.01	3949
3634.686	4022
3636.361	3830
3638.036	3905
3639.712	3883
3641.385	3932
3643.06	3839
3644.732	3815
3646.405	3854
3648.08	3882
3649.751	3948
3651.424	3818
3653.094	3867
3654.766	3871
3656.436	3840
3658.106	3834
3659.777	3891
3661.446	3880
3663.115	3841
3664.783	3891
3666.452	3841
3668.121	3828
3669.788	3797
3671.454	3761
3673.121	3843
3674.789	3832
3676.455	3814
3678.12	3830
3679.784	3851
3681.45	3839
3683.114	3839
3684.779	3799
3686.442	3848
3688.105	3740
3689.768	3757
3691.43	3791
3693.093	3796
3694.754	3781
3696.415	3741
3698.076	3776
3699.736	3749
3701.396	3753
3703.057	3753
3704.716	3707
3706.375	3784
3708.034	3845
3709.692	3785
3711.351	3846
3713.008	3721
3714.665	3736
3716.321	3689
3717.977	3675
3719.634	3726
3721.29	3799
3722.945	3770
3724.598	3615
3726.253	3760
3727.907	3617
3729.561	3783
3731.214	3711
3732.867	3713
3734.518	3640
3736.171	3737
3737.824	3709
3739.474	3701
3741.125	3763
3742.775	3694
3744.425	3656
3746.074	3687
3747.725	3684
3749.373	3644
3751.022	3547
3752.669	3756
3754.318	3644
3755.966	3724
3757.612	3646
3759.259	3615
3760.905	3633
3762.55	3673
3764.197	3660
3765.842	3612
3767.486	3578
3769.131	3702
3770.774	3660
3772.417	3579
3774.061	3607
3775.705	3690
3777.347	3625
3778.988	3565
3780.629	3584
3782.271	3506
3783.912	3570
3785.552	3516
3787.192	3533
3788.831	3541
3790.472	3576
3792.112	3549
3793.75	3596
3795.388	3553
3797.024	3566
3798.661	3556
3800.3	3551
3801.936	3562
3803.572	3558
3805.208	3436
3806.844	3545
3808.48	3525
3810.115	3592
3811.748	3491
3813.382	3549
3815.016	3518
3816.649	3474
3818.283	3490
3819.914	3488
3821.547	3511
3823.178	3464
3824.809	3521
3826.441	3568
3828.072	3506
3829.701	3443
3831.331	3463
3832.96	3446
3834.591	3464
3836.219	3444
3837.847	3501
3839.475	3415
3841.102	3428
3842.729	3400
3844.357	3516
3845.984	3463
3847.609	3353
3849.234	3400
3850.86	3451
3852.485	3424
3854.11	3480
3855.734	3442
3857.357	3466
3858.981	3447
3860.603	3471
3862.227	3474
3863.848	3394
3865.471	3442
3867.092	3401
3868.713	3412
3870.334	3402
3871.954	3333
3873.575	3323
3875.194	3453
3876.813	3381
3878.433	3380
3880.051	3402
3881.669	3335
3883.286	3335
3884.904	3363
3886.52	3408
3888.138	3384
3889.754	3326
3891.37	3386
3892.985	3329
3894.6	3358
3896.216	3407
3897.831	3273
3899.444	3328
3901.058	3398
3902.67	3311
3904.283	3367
3905.897	3360
3907.509	3317
3909.121	3373
3910.731	3306
3912.342	3352
3913.954	3362
3915.563	3372
3917.174	3254
3918.783	3284
3920.391	3359
3922.002	3268
3923.611	3323
3925.218	3319
3926.826	3379
3928.432	3254
3930.039	3324
3931.647	3246
3933.253	3351
3934.859	3363
3936.464	3325
3938.068	3347
3939.675	3268
3941.278	3372
3942.883	3247
3944.486	3279
3946.089	3343
3947.692	3244
3949.295	3311
3950.898	3280
3952.499	3234
3954.1	3336
3955.7	3212
3957.303	3199
3958.903	3289
3960.502	3257
3962.101	3309
3963.7	3187
3965.301	3281
3966.899	3210
3968.497	3224
3970.094	3197
3971.691	3115
3973.288	3244
3974.885	3237
3976.481	3261
3978.077	3186
3979.672	3190
3981.267	3224
3982.863	3169
3984.457	3178
3986.051	3193
3987.645	3262
3989.238	3277
3990.831	3165
3992.425	3121
3994.017	3177
3995.607	3111
3997.199	3156
3998.79	3105
4000.382	3097
4001.973	3170
4003.561	3081
4005.151	3219
4006.741	3080
4008.331	3140
4009.918	3132
4011.507	3150
4013.095	3062
4014.681	3106
4016.269	3154
4017.856	3154
4019.443	3069
4021.028	3074
4022.614	3127
4024.199	3183
4025.785	3130
4027.37	3067
4028.953	3093
4030.536	2999
4032.12	3025
4033.704	3091
4035.287	3043
4036.869	3023
4038.45	3030
4040.032	3000
4041.613	3047
4043.195	3056
4044.776	3071
4046.356	3037
4047.935	2974
4049.515	3009
4051.095	3043
4052.674	3028
4054.251	3008
4055.829	3012
4057.406	3040
4058.985	2999
4060.562	3053
4062.139	3042
4063.715	2923
4065.29	2976
4066.865	2993
4068.442	2972
4070.016	2948
4071.59	2976
4073.164	3005
4074.738	3030
4076.312	3064
4077.885	2898
4079.458	2978
4081.03	3001
4082.602	2953
4084.173	2939
4085.745	3000
4087.315	2987
4088.886	2988
4090.456	2986
4092.026	2970
4093.596	2937
4095.165	2874
4096.734	2926
4098.301	2976
4099.869	2983
4101.437	2883
4103.006	2886
4104.572	2915
4106.139	2885
4107.704	2896
4109.27	2950
4110.837	2916
4112.401	2884
4113.966	2935
4115.53	2924
4117.094	2880
4118.659	2952
4120.223	2888
4121.785	2870
4123.347	2802
4124.909	2927
4126.471	2903
4128.034	2836
4129.595	2828
4131.155	2896
4132.716	2918
4134.275	2832
4135.836	2833
4137.395	2875
4138.955	2880
4140.513	2841
4142.071	2840
4143.628	2886
4145.188	2808
4146.745	2816
4148.302	2754
4149.858	2846
4151.414	2859
4152.971	2823
4154.526	2813
4156.081	2806
4157.635	2845
4159.189	2764
4160.745	2833
4162.298	2844
4163.852	2845
4165.405	2785
4166.957	2764
4168.51	2793
4170.063	2780
4171.614	2786
4173.166	2792
4174.717	2761
4176.267	2710
4177.817	2770
4179.368	2768
4180.917	2784
4182.466	2712
4184.016	2688
4185.564	2760
4187.112	2719
4188.66	2716
4190.207	2788
4191.754	2707
4193.301	2650
4194.848	2758
4196.394	2673
4197.94	2730
4199.484	2687
4201.03	2724
4202.575	2631
4204.12	2701
4205.663	2698
4207.207	2740
4208.75	2663
4210.292	2697
4211.836	2665
4213.378	2729
4214.92	2690
4216.46	2781
4218.002	2763
4219.544	2692
4221.083	2632
4222.625	2776
4224.164	2692
4225.703	2674
4227.244	2633
4228.782	2746
4230.32	2707
4231.857	2640
4233.395	2689
4234.933	2622
4236.471	2739
4238.007	2705
4239.542	2692
4241.078	2669
4242.614	2640
4244.15	2620
4245.685	2711
4247.219	2640
4248.753	2637
4250.287	2668
4251.82	2635
4253.354	2652
4254.887	2684
4256.419	2619
4257.951	2620
4259.483	2664
4261.016	2642
4262.547	2602
4264.078	2609
4265.608	2673
4267.137	2582
4268.668	2598
4270.197	2632
4271.727	2605
4273.254	2595
4274.783	2625
4276.311	2623
4277.84	2535
4279.366	2589
4280.894	2569
4282.42	2537
4283.946	2583
4285.473	2529
4286.998	2543
4288.523	2541
4290.047	2598
4291.572	2560
4293.096	2582
4294.622	2527
4296.144	2547
4297.668	2540
4299.19	2609
4300.713	2584
4302.236	2577
4303.758	2549
4305.279	2504
4306.799	2460
4308.321	2552
4309.842	2541
4311.361	2546
4312.882	2480
4314.401	2553
