400.0961	4370
402.6185	4390
405.1424	4452
407.6635	4331
410.1838	4537
412.7035	4426
415.2225	4435
417.7388	4496
420.2585	4618
422.7754	4555
425.2917	4662
427.8072	4679
430.3221	4781
432.8363	4743
435.3498	4737
437.8626	4713
440.3727	4716
442.8841	4665
445.3969	4704
447.907	4744
450.4142	4651
452.9229	4793
455.4289	4769
457.9362	4561
460.4449	4626
462.9488	4621
465.454	4620
467.9566	4663
470.4604	4569
472.9637	4587
475.4662	4695
477.966	4641
480.4671	4669
482.9656	4619
485.4633	4702
487.9645	4622
490.4608	4651
492.9566	4601
495.4536	4643
497.948	4725
500.4437	4799
502.9387	4756
505.431	4678
507.9226	4804
510.4136	4752
512.9079	4716
515.3975	4812
517.8864	4818
520.3746	4793
522.8622	4800
525.3491	4821
527.8394	4793
530.3249	4841
532.8098	4774
535.2939	4806
537.7774	4834
540.2623	4881
542.7444	4881
545.2259	4733
547.7067	4940
550.1868	4943
552.6683	4871
555.147	4892
557.6231	4940
560.1005	4866
562.5773	4862
565.0534	4954
567.5308	4983
570.0056	4907
572.4776	5079
574.951	5089
577.4237	5003
579.8978	5140
582.3671	5115
584.8378	5110
587.3079	5273
589.7773	5065
592.244	5150
594.714	5122
597.1793	5089
599.6461	5125
602.1121	5037
604.5754	5040
607.0421	5040
609.5042	4969
611.9675	5152
614.4282	5053
616.8902	5010
619.3515	4866
621.8122	5079
624.2702	5009
626.7296	4967
629.1863	4955
631.6423	4923
634.1017	4930
636.5563	4962
639.0104	5055
641.4658	5000
643.9185	4922
646.3725	5000
648.8239	4928
651.2766	4938
653.7266	4961
656.176	5007
658.6247	5078
661.0748	5020
663.5242	5001
665.9709	5107
668.417	5207
670.8624	5057
673.3092	5026
675.7533	5020
678.1968	5179
680.6395	5170
683.0817	5234
685.5251	5280
687.9659	5081
690.4061	5181
692.8456	5210
695.2844	5180
697.7226	5154
700.1621	5142
702.599	5191
705.0332	5102
707.4688	5276
709.9036	5294
712.3399	5241
714.7735	5192
717.2044	5238
719.6367	5170
722.0683	5259
724.4993	5353
726.9296	5258
729.3593	5329
731.7883	5263
734.2147	5315
736.6423	5292
739.0714	5396
741.4958	5327
743.9216	5360
746.3447	5388
748.7691	5357
751.1929	5485
753.616	5518
756.0366	5560
758.4584	5530
760.8776	5617
763.2982	5572
765.718	5450
768.1373	5510
770.5539	5498
772.9698	5650
775.3871	5523
777.8038	5507
780.2178	5510
782.6332	5600
785.0459	5521
787.458	5520
789.8714	5671
792.2842	5413
794.6943	5505
797.1038	5563
799.5127	5535
801.9209	5594
804.3324	5565
806.7393	5581
809.1456	5668
811.5513	5591
813.9562	5595
816.3625	5730
818.7663	5573
821.1693	5654
823.5718	5620
825.9735	5649
828.3746	5710
830.7771	5566
833.177	5678
835.5762	5636
837.9747	5721
840.3727	5706
842.772	5660
845.1666	5616
847.5626	5836
849.958	5829
852.3527	5922
854.7488	5912
857.1403	5875
859.5331	5863
861.9253	5743
864.3168	5850
866.7057	5781
869.098	5814
871.4876	5854
873.8746	5854
876.263	5876
878.6487	5729
881.0378	5843
883.4243	5769
885.8081	5838
888.1933	5767
890.5759	5790
892.9598	5900
895.343	5707
897.7256	5826
900.1057	5702
902.4871	5862
904.8659	5759
907.246	5916
909.6254	5923
912.0023	6010
914.3786	5983
916.7562	5951
919.1331	6073
921.5074	6177
923.8831	6109
926.2562	6206
928.6287	6173
931.0005	6120
933.3757	6167
935.7462	6263
938.1162	6269
940.4855	6339
942.8542	6393
945.2242	6557
947.5916	6659
949.9584	6977
952.3266	7170
954.6921	7648
957.0571	7946
959.4233	8419
961.787	8567
964.15	8555
966.5125	8132
968.8742	7630
971.2354	7196
973.5959	6899
975.9559	6697
978.3151	6371
980.6738	6345
983.0338	6261
985.3912	6142
987.7461	6034
990.1022	5957
992.4578	6044
994.8127	6082
997.1689	5982
999.5207	6013
1001.874	6016
1004.226	6141
1006.576	6086
1008.929	6092
1011.28	6151
1013.628	5998
1015.977	6170
1018.324	6134
1020.674	6162
1023.019	6179
1025.366	6173
1027.713	6136
1030.056	6163
1032.399	6185
1034.746	6134
1037.087	6175
1039.431	6153
1041.771	6235
1044.113	6329
1046.454	6175
1048.793	6250
1051.133	6186
1053.471	6141
1055.807	6232
1058.146	6229
1060.483	6273
1062.818	6341
1065.153	6529
1067.489	6313
1069.822	6499
1072.156	6352
1074.488	6452
1076.82	6507
1079.15	6425
1081.48	6215
1083.814	6207
1086.143	6193
1088.471	6218
1090.799	6197
1093.126	6160
1095.452	6105
1097.78	6205
1100.105	6162
1102.43	6119
1104.754	6151
1107.077	6215
1109.4	6016
1111.722	6094
1114.044	6101
1116.365	6115
1118.685	6052
1121.005	6171
1123.324	6194
1125.643	6136
1127.961	6188
1130.278	6213
1132.595	6087
1134.911	6114
1137.226	6173
1139.541	6124
1141.854	6102
1144.167	6060
1146.482	6126
1148.793	6100
1151.105	6133
1153.414	6125
1155.725	6214
1158.033	6154
1160.344	6165
1162.651	6125
1164.959	6158
1167.265	6299
1169.572	6145
1171.878	6164
1174.184	6190
1176.488	6326
1178.79	6302
1181.094	6332
1183.396	6223
1185.699	6234
1188.001	6153
1190.301	6169
1192.6	6042
1194.9	6178
1197.2	6181
1199.497	6183
1201.794	6186
1204.09	6160
1206.387	6035
1208.684	6164
1210.978	6258
1213.272	6208
1215.565	6169
1217.858	6297
1220.15	6299
1222.443	6320
1224.734	6231
1227.024	6224
1229.313	6224
1231.602	6260
1233.892	6376
1236.18	6430
1238.467	6435
1240.754	6474
1243.04	6428
1245.325	6492
1247.612	6462
1249.896	6565
1252.178	6533
1254.461	6491
1256.743	6476
1259.027	6526
1261.308	6495
1263.587	6545
1265.867	6464
1268.146	6565
1270.425	6453
1272.703	6450
1274.981	6513
1277.256	6490
1279.532	6559
1281.808	6421
1284.083	6376
1286.358	6450
1288.63	6390
1290.904	6353
1293.175	6416
1295.449	6408
1297.719	6343
1299.99	6277
1302.259	6432
1304.529	6309
1306.798	6451
1309.065	6329
1311.333	6278
1313.599	6414
1315.866	6373
1318.131	6353
1320.396	6403
1322.66	6338
1324.925	6348
1327.187	6353
1329.448	6321
1331.711	6421
1333.974	6413
1336.234	6321
1338.493	6290
1340.752	6323
1343.01	6394
1345.269	6477
1347.526	6323
1349.784	6448
1352.04	6386
1354.295	6349
1356.552	6288
1358.806	6233
1361.059	6301
1363.312	6343
1365.564	6339
1367.818	6378
1370.069	6319
1372.318	6314
1374.568	6344
1376.817	6483
1379.066	6419
1381.316	6541
1383.564	6396
1385.809	6461
1388.056	6462
1390.301	6573
1392.549	6538
1394.793	6513
1397.036	6563
1399.279	6586
1401.522	6608
1403.763	6508
1406.007	6584
1408.248	6621
1410.487	6614
1412.727	6572
1414.965	6598
1417.205	6526
1419.442	6616
1421.68	6605
1423.915	6531
1426.152	6551
1428.388	6557
1430.623	6533
1432.857	6532
1435.091	6647
1437.323	6690
1439.556	6733
1441.789	6714
1444.019	6719
1446.25	6692
1448.48	6806
1450.708	6740
1452.938	6781
1455.167	6847
1457.394	6805
1459.62	6793
1461.846	6735
1464.073	6789
1466.299	6639
1468.523	6708
1470.746	6593
1472.969	6653
1475.191	6603
1477.415	6534
1479.636	6401
1481.858	6452
1484.078	6455
1486.298	6369
1488.518	6380
1490.736	6405
1492.954	6342
1495.169	6342
1497.386	6437
1499.602	6552
1501.819	6369
1504.034	6365
1506.248	6336
1508.462	6324
1510.675	6394
1512.888	6326
1515.1	6311
1517.311	6321
1519.522	6261
1521.732	6471
1523.942	6397
1526.151	6245
1528.36	6303
1530.566	6303
1532.773	6299
1534.98	6325
1537.187	6461
1539.392	6455
1541.596	6422
1543.801	6395
1546.005	6413
1548.208	6277
1550.411	6508
1552.612	6463
1554.814	6484
1557.013	6421
1559.212	6450
1561.414	6525
1563.612	6488
1565.811	6364
1568.007	6531
1570.203	6533
1572.403	6361
1574.598	6510
1576.792	6511
1578.988	6560
1581.181	6458
1583.376	6586
1585.568	6569
1587.761	6563
1589.952	6570
1592.143	6580
1594.333	6566
1596.524	6568
1598.715	6516
1600.903	6607
1603.091	6597
1605.278	6579
1607.466	6571
1609.652	6616
1611.838	6580
1614.023	6575
1616.207	6586
1618.391	6651
1620.576	6525
1622.759	6603
1624.941	6644
1627.123	6676
1629.304	6665
1631.484	6699
1633.664	6670
1635.844	6737
1638.022	6689
1640.201	6833
1642.38	6687
1644.556	6736
1646.732	6684
1648.908	6673
1651.084	6765
1653.257	6713
1655.433	6749
1657.607	6667
1659.779	6865
1661.951	6777
1664.122	6768
1666.295	6830
1668.467	6706
1670.635	6878
1672.805	6803
1674.973	6836
1677.142	6796
1679.31	6899
1681.478	6774
1683.644	6606
1685.81	6786
1687.975	6694
1690.142	6729
1692.305	6705
1694.468	6646
1696.632	6637
1698.794	6702
1700.957	6595
1703.119	6592
1705.279	6587
1707.439	6644
1709.598	6562
1711.758	6589
1713.917	6476
1716.075	6484
1718.231	6583
1720.388	6546
1722.543	6436
1724.702	6575
1726.856	6494
1729.01	6635
1731.164	6508
1733.317	6577
1735.471	6671
1737.623	6454
1739.774	6626
1741.925	6538
1744.075	6470
1746.225	6609
1748.376	6539
1750.524	6481
1752.672	6543
1754.82	6585
1756.965	6646
1759.113	6590
1761.259	6524
1763.405	6582
1765.549	6613
1767.694	6604
1769.836	6723
1771.981	6584
1774.123	6611
1776.264	6664
1778.405	6605
1780.546	6529
1782.687	6699
1784.827	6575
1786.966	6648
1789.103	6684
1791.242	6717
1793.381	6655
1795.517	6580
1797.653	6586
1799.788	6588
1801.923	6593
1804.057	6595
1806.193	6708
1808.326	6659
1810.457	6669
1812.59	6583
1814.721	6502
1816.855	6656
1818.984	6531
1821.113	6595
1823.244	6563
1825.372	6776
1827.499	6632
1829.63	6579
1831.756	6488
1833.882	6654
1836.007	6542
1838.132	6549
1840.26	6503
1842.384	6517
1844.507	6607
1846.63	6585
1848.752	6579
1850.875	6570
1852.996	6496
1855.118	6588
1857.238	6390
1859.358	6649
1861.477	6529
1863.597	6626
1865.715	6522
1867.832	6534
1869.948	6604
1872.064	6461
1874.181	6591
1876.297	6646
1878.411	6641
1880.526	6536
1882.639	6473
1884.752	6507
1886.865	6539
1888.977	6555
1891.089	6623
1893.2	6543
1895.308	6603
1897.42	6572
1899.53	6517
1901.639	6532
1903.745	6535
1905.853	6559
1907.962	6596
1910.067	6532
1912.174	6704
1914.278	6518
1916.383	6512
1918.486	6576
1920.592	6636
1922.694	6612
1924.797	6652
1926.898	6599
1929	6593
1931.102	6642
1933.203	6593
1935.301	6623
1937.401	6643
1939.499	6563
1941.598	6782
1943.697	6732
1945.793	6731
1947.888	6630
1949.985	6690
1952.08	6659
1954.176	6711
1956.269	6678
1958.364	6713
1960.457	6577
1962.549	6622
1964.642	6684
1966.733	6664
1968.823	6485
1970.913	6701
1973.005	6586
1975.093	6667
1977.184	6611
1979.271	6674
1981.359	6703
1983.446	6635
1985.532	6510
1987.619	6601
1989.705	6668
1991.789	6632
1993.874	6539
1995.956	6536
1998.041	6518
2000.123	6592
2002.206	6696
2004.287	6557
2006.368	6561
2008.449	6533
2010.529	6557
2012.609	6580
2014.688	6629
2016.766	6512
2018.843	6533
2020.922	6599
2022.999	6559
2025.074	6579
2027.15	6613
2029.225	6596
2031.299	6607
2033.375	6502
2035.447	6530
2037.52	6403
2039.592	6574
2041.664	6498
2043.736	6593
2045.807	6653
2047.876	6542
2049.947	6627
2052.015	6516
2054.086	6546
2056.153	6598
2058.221	6560
2060.288	6540
2062.353	6557
2064.42	6495
2066.486	6596
2068.55	6558
2070.614	6597
2072.678	6608
2074.741	6575
2076.805	6438
2078.866	6611
2080.929	6525
2082.99	6501
2085.049	6581
2087.109	6532
2089.17	6584
2091.228	6526
2093.286	6602
2095.344	6663
2097.4	6683
2099.46	6614
2101.516	6432
2103.572	6489
2105.626	6566
2107.679	6597
2109.735	6626
2111.788	6560
2113.841	6626
2115.894	6649
2117.945	6543
2119.997	6667
2122.049	6524
2124.1	6706
2126.148	6548
2128.197	6647
2130.246	6500
2132.296	6409
2134.342	6621
2136.39	6551
2138.437	6511
2140.483	6560
2142.527	6611
2144.574	6534
2146.619	6616
2148.661	6458
2150.705	6445
2152.747	6625
2154.792	6428
2156.832	6554
2158.874	6494
2160.915	6528
2162.954	6523
2164.995	6485
2167.034	6563
2169.072	6508
2171.111	6587
2173.148	6492
2175.186	6448
2177.223	6441
2179.258	6444
2181.294	6395
2183.328	6359
2185.362	6488
2187.398	6379
2189.431	6439
2191.463	6460
2193.495	6410
2195.528	6400
2197.56	6310
2199.59	6444
2201.62	6460
2203.649	6350
2205.678	6374
2207.708	6323
2209.737	6521
2211.764	6324
2213.791	6265
2215.817	6462
2217.843	6479
2219.87	6410
2221.895	6431
2223.919	6318
2225.942	6324
2227.966	6295
2229.988	6320
2232.012	6398
2234.032	6379
2236.054	6345
2238.074	6325
2240.095	6364
2242.116	6384
2244.135	6495
2246.153	6439
2248.171	6346
2250.188	6277
2252.208	6392
2254.223	6394
2256.239	6393
2258.255	6337
2260.269	6360
2262.283	6341
2264.3	6348
2266.312	6351
2268.325	6398
2270.336	6376
2272.349	6325
2274.362	6385
2276.372	6404
2278.383	6428
2280.392	6289
2282.402	6307
2284.409	6321
2286.418	6271
2288.427	6381
2290.433	6353
2292.441	6399
2294.446	6435
2296.453	6343
2298.459	6401
2300.463	6319
2302.466	6387
2304.471	6390
2306.475	6397
2308.477	6362
2310.478	6308
2312.481	6423
2314.481	6295
2316.481	6355
2318.482	6320
2320.482	6350
2322.48	6171
2324.48	6349
2326.478	6294
2328.476	6084
2330.473	6287
2332.469	6181
2334.465	6282
2336.46	6209
2338.454	6234
2340.45	6233
2342.444	6333
2344.437	6296
2346.43	6253
2348.421	6208
2350.414	6227
2352.405	6165
2354.396	6263
2356.386	6290
2358.376	6224
2360.366	6317
2362.355	6280
2364.343	6168
2366.331	6185
2368.317	6351
2370.304	6224
2372.292	6235
2374.278	6319
2376.262	6237
2378.247	6066
2380.23	6170
2382.216	6254
2384.199	6093
2386.181	6239
2388.163	6261
2390.144	6069
2392.127	6254
2394.107	6114
2396.087	6137
2398.066	6168
2400.046	6248
2402.023	6140
2404.004	6164
2405.981	6154
2407.957	6245
2409.934	6168
2411.91	6113
2413.886	6122
2415.862	6198
2417.836	6197
2419.809	6118
2421.784	6230
2423.756	6175
2425.73	6138
2427.701	5995
2429.672	6197
2431.644	6157
2433.615	6124
2435.586	6135
2437.555	6168
2439.523	6122
2441.491	6048
2443.459	6026
2445.428	6076
2447.395	6014
2449.361	6052
2451.327	6082
2453.292	6050
2455.257	6185
2457.223	6096
2459.187	6041
2461.15	6116
2463.113	6016
2465.076	6096
2467.039	6063
2468.999	6083
2470.96	6006
2472.921	6078
2474.881	6158
2476.841	6062
2478.8	6184
2480.759	6098
2482.717	6067
2484.675	6067
2486.63	6052
2488.589	6080
2490.545	6053
2492.5	6037
2494.455	6041
2496.408	5924
2498.364	6027
2500.318	5923
2502.27	5928
2504.223	5955
2506.174	6052
2508.126	6024
2510.078	6052
2512.03	6028
2513.979	5998
2515.927	6063
2517.877	5970
2519.826	6016
2521.775	6055
2523.722	6069
2525.668	6065
2527.616	5993
2529.561	5940
2531.508	5936
2533.452	6044
2535.398	6003
2537.342	6041
2539.284	5918
2541.229	5908
2543.173	5948
2545.114	6013
2547.055	5977
2548.996	5949
2550.938	5975
2552.878	5942
2554.817	5972
2556.756	6057
2558.695	5979
2560.633	5901
2562.572	6002
2564.509	5979
2566.445	5869
2568.382	5994
2570.317	6017
2572.254	6031
2574.189	5956
2576.123	5960
2578.057	5982
2579.99	5954
2581.923	5881
2583.855	5954
2585.788	6069
2587.719	5915
2589.65	5971
2591.579	5941
2593.511	6059
2595.44	5964
2597.37	5952
2599.297	5938
2601.225	5972
2603.153	6010
2605.08	5978
2607.007	6006
2608.932	5981
2610.858	5962
2612.782	5959
2614.709	5941
2616.632	6012
2618.556	6020
2620.478	5967
2622.401	5983
2624.324	5987
2626.247	6012
2628.167	5976
2630.088	5857
2632.008	6014
2633.928	5945
2635.848	6025
2637.766	5992
2639.684	5996
2641.603	5976
2643.519	5958
2645.437	6077
2647.353	5867
2649.27	5956
2651.184	5943
2653.099	5943
2655.014	5998
2656.928	5930
2658.842	6062
2660.755	5983
2662.667	5987
2664.579	5866
2666.491	5957
2668.402	5989
2670.312	5848
2672.222	6011
2674.132	5915
2676.042	5996
2677.951	5867
2679.859	5867
2681.766	5945
2683.674	5891
2685.582	5892
2687.488	5814
2689.392	5905
2691.298	5828
2693.202	5795
2695.107	5993
2697.012	5866
2698.914	5806
2700.817	5855
2702.72	5859
2704.622	5877
2706.524	5850
2708.425	5821
2710.326	5846
2712.225	5940
2714.125	5721
2716.024	5891
2717.923	5847
2719.822	5809
2721.719	5812
2723.616	5773
2725.512	5846
2727.41	5819
2729.305	5835
2731.201	5758
2733.095	5836
2734.99	5857
2736.884	5935
2738.778	5894
2740.67	5850
2742.562	5768
2744.455	5893
2746.346	5760
2748.238	5906
2750.129	5689
2752.018	5738
2753.907	5803
2755.797	5733
2757.687	5818
2759.575	5909
2761.462	5864
2763.349	5847
2765.237	5698
2767.124	5910
2769.009	5860
2770.894	5791
2772.779	5784
2774.663	5822
2776.547	5859
2778.431	5645
2780.314	5798
2782.197	5774
2784.078	5775
2785.96	5711
2787.842	5795
2789.723	5740
2791.603	5822
2793.483	5761
2795.362	5710
2797.241	5696
2799.121	5677
2800.997	5735
2802.874	5713
2804.751	5714
2806.628	5625
2808.506	5727
2810.38	5718
2812.255	5627
2814.13	5678
2816.003	5714
2817.878	5791
2819.752	5712
2821.623	5641
2823.496	5666
2825.368	5771
2827.238	5832
2829.111	5666
2830.98	5781
2832.851	5713
2834.719	5694
2836.589	5707
2838.458	5687
2840.327	5657
2842.193	5730
2844.061	5790
2845.927	5681
2847.794	5794
2849.66	5768
2851.525	5801
2853.39	5805
2855.254	5797
2857.117	5895
2858.983	5744
2860.845	5804
2862.707	5916
2864.569	5980
2866.431	6001
2868.293	5965
2870.154	6120
2872.013	6151
2873.873	6255
2875.733	6133
2877.592	6234
2879.451	6292
2881.309	6259
2883.166	6235
2885.022	6311
2886.879	6399
2888.736	6319
2890.591	6359
2892.446	6393
2894.301	6377
2896.155	6425
2898.009	6380
2899.863	6305
2901.716	6395
2903.568	6398
2905.419	6284
2907.27	6399
2909.123	6434
2910.973	6447
2912.824	6489
2914.673	6521
2916.521	6615
2918.372	6669
2920.22	6561
2922.067	6727
2923.914	6710
2925.761	6795
2927.607	7055
2929.455	6948
2931.301	7113
2933.144	7109
2934.99	7099
2936.833	7273
2938.678	7297
2940.522	7395
2942.364	7433
2944.207	7423
2946.048	7516
2947.891	7604
2949.731	7406
2951.571	7404
2953.412	7601
2955.25	7227
2957.09	7183
2958.93	7259
2960.767	7148
2962.606	6982
2964.443	6973
2966.279	6946
2968.116	6814
2969.953	6689
2971.788	6775
2973.623	6762
2975.457	6511
2977.292	6569
2979.127	6670
2980.959	6489
2982.792	6503
2984.624	6443
2986.455	6544
2988.288	6564
2990.119	6334
2991.949	6356
2993.779	6277
2995.608	6284
2997.439	6406
2999.268	6215
3001.096	6173
3002.923	6086
3004.751	6045
3006.578	6017
3008.406	5964
3010.232	5936
3012.057	5848
3013.883	5710
3015.706	5811
3017.532	5649
3019.356	5690
3021.179	5648
3023.002	5594
3024.823	5580
3026.646	5663
3028.469	5535
3030.289	5571
3032.11	5348
3033.93	5474
3035.749	5502
3037.57	5463
3039.39	5501
3041.207	5519
3043.026	5453
3044.842	5489
3046.661	5492
3048.477	5493
3050.294	5432
3052.109	5369
3053.925	5404
3055.739	5425
3057.555	5406
3059.368	5500
3061.181	5453
3062.995	5431
3064.807	5492
3066.62	5396
3068.433	5504
3070.243	5481
3072.054	5427
3073.865	5359
3075.675	5528
3077.485	5305
3079.293	5277
3081.102	5451
3082.911	5363
3084.719	5313
3086.527	5295
3088.333	5315
3090.139	5331
3091.945	5387
3093.75	5349
3095.557	5273
3097.361	5275
3099.165	5327
3100.969	5236
3102.772	5241
3104.575	5240
3106.379	5289
3108.181	5315
3109.982	5275
3111.783	5171
3113.584	5183
3115.386	5245
3117.186	5273
3118.985	5273
3120.783	5173
3122.582	5261
3124.381	5218
3126.179	5229
3127.975	5298
3129.772	5257
3131.569	5150
3133.365	5210
3135.161	5184
3136.956	5124
3138.751	5167
3140.544	5115
3142.338	5214
3144.132	5194
3145.925	5094
3147.717	5212
3149.509	5154
3151.301	5224
3153.091	5178
3154.884	5158
3156.673	5075
3158.462	5045
3160.252	5167
3162.041	5208
3163.831	5152
3165.618	5211
3167.405	5080
3169.193	5041
3170.979	5225
3172.767	5142
3174.553	5099
3176.338	5061
3178.123	5108
3179.907	5043
3181.692	5136
3183.477	5110
3185.259	5068
3187.042	5062
3188.824	5089
3190.607	5125
3192.389	5173
3194.17	5105
3195.951	5098
3197.73	5053
3199.51	5124
3201.289	5075
3203.07	5115
3204.848	5148
3206.626	5086
3208.403	5096
3210.18	5137
3211.959	5029
3213.735	5147
3215.511	5126
3217.285	5106
3219.06	5137
3220.836	5127
3222.611	5065
3224.384	5057
3226.158	5068
3227.929	5086
3229.702	5016
3231.476	4954
3233.248	5038
3235.018	5124
3236.789	5002
3238.56	5148
3240.33	5083
3242.1	5075
3243.869	5026
3245.637	5018
3247.405	5084
3249.172	5052
3250.941	4997
3252.707	5164
3254.474	5080
3256.24	4983
3258.006	4964
3259.772	5086
3261.537	5124
3263.301	5140
3265.065	5062
3266.828	5276
3268.592	5079
3270.355	5082
3272.117	5022
3273.878	5184
3275.64	5059
3277.401	5196
3279.162	5047
3280.922	5046
3282.682	5147
3284.441	5110
3286.199	5050
3287.959	5131
3289.716	5137
3291.475	5121
3293.232	5031
3294.988	5033
3296.744	5095
3298.501	5068
3300.256	5107
3302.011	5022
3303.766	5076
3305.52	5022
3307.275	5080
3309.028	5064
3310.781	5036
3312.533	5031
3314.285	5080
3316.038	5119
3317.789	5242
3319.54	5155
3321.289	5106
3323.039	5176
3324.789	5100
3326.539	5105
3328.288	5126
3330.035	5086
3331.783	5021
3333.531	5074
3335.28	5001
3337.025	5053
3338.771	4985
3340.518	5035
3342.262	4977
3344.009	5003
3345.753	5013
3347.497	4965
3349.24	4972
3350.983	5020
3352.726	4973
3354.469	4916
3356.212	4973
3357.952	4991
3359.694	4959
3361.434	4948
3363.176	5005
3364.916	4952
3366.654	4905
3368.394	4953
3370.132	4938
3371.871	4899
3373.61	4990
3375.346	4941
3377.083	4919
3378.82	4880
3380.556	4823
3382.292	4899
3384.027	4905
3385.763	4836
3387.497	4885
3389.231	4854
3390.965	4908
3392.698	4922
3394.431	4842
3396.164	4913
3397.896	4859
3399.627	4819
3401.36	4820
3403.09	4813
3404.82	4901
3406.55	4928
3408.279	4800
3410.01	4858
3411.738	4860
3413.467	4796
3415.194	4817
3416.92	4843
3418.647	4838
3420.375	4813
3422.102	4849
3423.827	4772
3425.553	4832
3427.277	4787
3429.003	4847
3430.727	4865
3432.451	4784
3434.173	4793
3435.896	4644
3437.62	4847
3439.343	4737
3441.063	4701
3442.785	4753
3444.505	4637
3446.226	4807
3447.948	4759
3449.666	4718
3451.386	4562
3453.104	4640
3454.823	4664
3456.541	4627
3458.259	4635
3459.976	4586
3461.693	4669
3463.408	4708
3465.125	4686
3466.841	4622
3468.556	4662
3470.271	4666
3471.985	4641
3473.698	4633
3475.414	4723
3477.126	4538
3478.838	4636
3480.55	4624
3482.263	4481
3483.975	4561
3485.686	4525
3487.396	4490
3489.106	4484
3490.817	4494
3492.526	4499
3494.236	4514
3495.944	4520
3497.652	4539
3499.359	4447
3501.066	4465
3502.775	4579
3504.481	4477
3506.187	4437
3507.893	4480
3509.598	4435
3511.304	4481
3513.009	4443
3514.713	4464
3516.417	4439
3518.12	4495
3519.821	4455
3521.525	4468
3523.228	4407
3524.929	4420
3526.631	4286
3528.33	4429
3530.032	4372
3531.733	4458
3533.433	4311
3535.131	4316
3536.83	4338
3538.529	4341
3540.227	4366
3541.925	4284
3543.623	4326
3545.319	4391
3547.016	4296
3548.712	4292
3550.408	4331
3552.103	4317
3553.798	4304
3555.491	4357
3557.188	4317
3558.88	4322
3560.574	4395
3562.266	4320
3563.959	4343
3565.651	4239
3567.343	4283
3569.035	4271
3570.725	4266
3572.415	4169
3574.106	4248
3575.797	4319
3577.485	4266
3579.174	4258
3580.863	4207
3582.551	4183
3584.238	4146
3585.926	4146
3587.613	4279
3589.3	4241
3590.986	4244
3592.671	4175
3594.357	4274
3596.042	4141
3597.726	4101
3599.41	4162
3601.094	4122
3602.778	4222
3604.461	4025
3606.143	4081
3607.825	4193
3609.507	4085
3611.188	4100
3612.87	4170
3614.551	4088
3616.229	4142
3617.909	4102
3619.589	4037
3621.269	4094
3622.948	3968
3624.625	4023
3626.302	3972
3627.98	3959
3629.657	3953
3631.334	4050
3633.01	4006
3634.686	3962
3636.361	3928
3638.036	3973
3639.712	3912
3641.385	3952
3643.06	3913
3644.732	3895
3646.405	3990
3648.08	3999
3649.751	3949
3651.424	3920
3653.094	3936
3654.766	3933
3656.436	3929
3658.106	3820
3659.777	3977
3661.446	3994
3663.115	3883
3664.783	3868
3666.452	3861
3668.121	3835
3669.788	3878
3671.454	3866
3673.121	3881
3674.789	3841
3676.455	3911
3678.12	3805
3679.784	3766
3681.45	3810
3683.114	3807
3684.779	3816
3686.442	3889
3688.105	3767
3689.768	3794
3691.43	3761
3693.093	3852
3694.754	3922
3696.415	3701
3698.076	3812
3699.736	3769
3701.396	3825
3703.057	3850
3704.716	3821
3706.375	3782
3708.034	3795
3709.692	3746
3711.351	3819
3713.008	3898
3714.665	3732
3716.321	3635
3717.977	3724
3719.634	3811
3721.29	3737
3722.945	3770
3724.598	3697
3726.253	3735
3727.907	3720
3729.561	3736
3731.214	3672
3732.867	3692
3734.518	3662
3736.171	3785
3737.824	3753
3739.474	3751
3741.125	3686
3742.775	3629
3744.425	3766
3746.074	3781
3747.725	3720
3749.373	3670
3751.022	3723
3752.669	3768
3754.318	3657
3755.966	3582
3757.612	3668
3759.259	3665
3760.905	3696
3762.55	3602
3764.197	3655
3765.842	3619
3767.486	3694
3769.131	3594
3770.774	3673
3772.417	3682
3774.061	3704
3775.705	3641
3777.347	3675
3778.988	3701
3780.629	3576
3782.271	3688
3783.912	3734
3785.552	3578
3787.192	3587
3788.831	3586
3790.472	3554
3792.112	3581
3793.75	3615
3795.388	3636
3797.024	3585
3798.661	3562
3800.3	3564
3801.936	3575
3803.572	3607
3805.208	3539
3806.844	3541
3808.48	3571
3810.115	3543
3811.748	3501
3813.382	3507
3815.016	3545
3816.649	3552
3818.283	3495
3819.914	3571
3821.547	3435
3823.178	3474
3824.809	3556
3826.441	3509
3828.072	3546
3829.701	3547
3831.331	3579
3832.96	3389
3834.591	3485
3836.219	3498
3837.847	3524
3839.475	3552
3841.102	3541
3842.729	3492
3844.357	3448
3845.984	3447
3847.609	3455
3849.234	3460
3850.86	3435
3852.485	3486
3854.11	3408
3855.734	3503
3857.357	3480
3858.981	3457
3860.603	3513
3862.227	3458
3863.848	3473
3865.471	3493
3867.092	3421
3868.713	3408
3870.334	3353
3871.954	3424
3873.575	3429
3875.194	3460
3876.813	3385
3878.433	3400
3880.051	3410
3881.669	3380
3883.286	3294
3884.904	3414
3886.52	3449
3888.138	3369
3889.754	3388
3891.37	3365
3892.985	3402
3894.6	3369
3896.216	3436
3897.831	3308
3899.444	3355
3901.058	3459
3902.67	3404
3904.283	3366
3905.897	3353
3907.509	3373
3909.121	3378
3910.731	3393
3912.342	3332
3913.954	3332
3915.563	3344
3917.174	3275
3918.783	3320
3920.391	3340
3922.002	3360
3923.611	3438
3925.218	3331
3926.826	3411
3928.432	3358
3930.039	3359
3931.647	3301
3933.253	3308
3934.859	3399
3936.464	3296
3938.068	3293
3939.675	3338
3941.278	3288
3942.883	3254
3944.486	3368
3946.089	3401
3947.692	3330
3949.295	3284
3950.898	3371
3952.499	3299
3954.1	3359
3955.7	3290
3957.303	3276
3958.903	3300
3960.502	3316
3962.101	3246
3963.7	3294
3965.301	3239
3966.899	3202
3968.497	3235
3970.094	3224
3971.691	3269
3973.288	3267
3974.885	3322
3976.481	3322
3978.077	3190
3979.672	3256
3981.267	3237
3982.863	3179
3984.457	3163
3986.051	3163
3987.645	3249
3989.238	3140
3990.831	3196
3992.425	3227
3994.017	3170
3995.607	3211
3997.199	3216
3998.79	3133
4000.382	3153
4001.973	3208
4003.561	3176
4005.151	3135
4006.741	3177
4008.331	3068
4009.918	3134
4011.507	3160
4013.095	3151
4014.681	3182
4016.269	3140
4017.856	3122
4019.443	3119
4021.028	3160
4022.614	3139
4024.199	3084
4025.785	3125
4027.37	3090
4028.953	3127
4030.536	3075
4032.12	3132
4033.704	3171
4035.287	3098
4036.869	3041
4038.45	3053
4040.032	3140
4041.613	3100
4043.195	3006
4044.776	3094
4046.356	3007
4047.935	3072
4049.515	3026
4051.095	3076
4052.674	3015
4054.251	3124
4055.829	3086
4057.406	3039
4058.985	3094
4060.562	3040
4062.139	3076
4063.715	3009
4065.29	3054
4066.865	3019
4068.442	2987
4070.016	2992
4071.59	2997
4073.164	3026
4074.738	2982
4076.312	2969
4077.885	3086
4079.458	3027
4081.03	3015
4082.602	2962
4084.173	3013
4085.745	2978
4087.315	2932
4088.886	3069
4090.456	2988
4092.026	2945
4093.596	3015
4095.165	2973
4096.734	2925
4098.301	3005
4099.869	2956
4101.437	2991
4103.006	3016
4104.572	2938
4106.139	2913
4107.704	2904
4109.27	3007
4110.837	3011
4112.401	2988
4113.966	2953
4115.53	2962
4117.094	2926
4118.659	2882
4120.223	2905
4121.785	2950
4123.347	2962
4124.909	2871
4126.471	2907
4128.034	2925
4129.595	2956
4131.155	2820
4132.716	2945
4134.275	2854
4135.836	2922
4137.395	2971
4138.955	2902
4140.513	2859
4142.071	2912
4143.628	2805
4145.188	2938
4146.745	2881
4148.302	2877
4149.858	2840
4151.414	2848
4152.971	2820
4154.526	2871
4156.081	2842
4157.635	2802
4159.189	2849
4160.745	2834
4162.298	2808
4163.852	2797
4165.405	2854
4166.957	2801
4168.51	2826
4170.063	2827
4171.614	2922
4173.166	2833
4174.717	2816
4176.267	2776
4177.817	2809
4179.368	2724
4180.917	2770
4182.466	2751
4184.016	2741
4185.564	2792
4187.112	2791
4188.66	2749
4190.207	2765
4191.754	2763
4193.301	2773
4194.848	2760
4196.394	2793
4197.94	2791
4199.484	2726
4201.03	2780
4202.575	2723
4204.12	2707
4205.663	2762
4207.207	2713
4208.75	2753
4210.292	2672
4211.836	2706
4213.378	2682
4214.92	2664
4216.46	2675
4218.002	2747
4219.544	2745
4221.083	2741
4222.625	2805
4224.164	2815
4225.703	2707
4227.244	2699
4228.782	2654
4230.32	2735
4231.857	2689
4233.395	2720
4234.933	2685
4236.471	2716
4238.007	2734
4239.542	2695
4241.078	2677
4242.614	2663
4244.15	2760
4245.685	2602
4247.219	2700
4248.753	2668
4250.287	2665
4251.82	2625
4253.354	2638
4254.887	2643
4256.419	2669
4257.951	2657
4259.483	2705
4261.016	2583
4262.547	2613
4264.078	2658
4265.608	2612
4267.137	2653
4268.668	2589
4270.197	2655
4271.727	2653
4273.254	2657
4274.783	2620
4276.311	2634
4277.84	2587
4279.366	2679
4280.894	2641
4282.42	2609
4283.946	2622
4285.473	2628
4286.998	2621
4288.523	2618
4290.047	2627
4291.572	2576
4293.096	2594
4294.622	2630
4296.144	2573
4297.668	2643
4299.19	2555
4300.713	2540
4302.236	2550
4303.758	2599
4305.279	2560
4306.799	2608
4308.321	2609
4309.842	2606
4311.361	2616
4312.882	2519
4314.401	2426
