400.0961	4700
402.6185	4726
405.1424	4734
407.6635	4756
410.1838	4778
412.7035	4741
415.2225	4812
417.7388	4819
420.2585	4868
422.7754	4992
425.2917	4917
427.8072	4974
430.3221	5003
432.8363	4988
435.3498	5047
437.8626	5023
440.3727	5155
442.8841	5010
445.3969	5082
447.907	5149
450.4142	5072
452.9229	5133
455.4289	5001
457.9362	5028
460.4449	4999
462.9488	5039
465.454	5159
467.9566	5154
470.4604	5045
472.9637	5093
475.4662	5129
477.966	5093
480.4671	5205
482.9656	5179
485.4633	5116
487.9645	5174
490.4608	5229
492.9566	5162
495.4536	5262
497.948	5293
500.4437	5144
502.9387	5252
505.431	5213
507.9226	5238
510.4136	5247
512.9079	5316
515.3975	5165
517.8864	5315
520.3746	5404
522.8622	5253
525.3491	5155
527.8394	5258
530.3249	5302
532.8098	5239
535.2939	5309
537.7774	5366
540.2623	5300
542.7444	5327
545.2259	5261
547.7067	5231
550.1868	5313
552.6683	5338
555.147	5383
557.6231	5428
560.1005	5327
562.5773	5433
565.0534	5421
567.5308	5325
570.0056	5307
572.4776	5496
574.951	5507
577.4237	5421
579.8978	5485
582.3671	5623
584.8378	5578
587.3079	5525
589.7773	5520
592.244	5491
594.714	5585
597.1793	5435
599.6461	5504
602.1121	5535
604.5754	5393
607.0421	5524
609.5042	5603
611.9675	5540
614.4282	5514
616.8902	5679
619.3515	5433
621.8122	5569
624.2702	5446
626.7296	5593
629.1863	5555
631.6423	5485
634.1017	5482
636.5563	5426
639.0104	5590
641.4658	5552
643.9185	5558
646.3725	5631
648.8239	5570
651.2766	5712
653.7266	5552
656.176	5611
658.6247	5637
661.0748	5584
663.5242	5679
665.9709	5734
668.417	5706
670.8624	5660
673.3092	5636
675.7533	5640
678.1968	5747
680.6395	5748
683.0817	5735
685.5251	5786
687.9659	5678
690.4061	5617
692.8456	5776
695.2844	5800
697.7226	5798
700.1621	5641
702.599	5720
705.0332	5776
707.4688	5729
709.9036	5831
712.3399	5902
714.7735	5783
717.2044	5873
719.6367	5864
722.0683	5916
724.4993	5918
726.9296	5984
729.3593	5902
731.7883	5866
734.2147	5905
736.6423	5876
739.0714	5999
741.4958	6048
743.9216	5985
746.3447	5980
748.7691	5953
751.1929	5918
753.616	6066
756.0366	6007
758.4584	6187
760.8776	6042
763.2982	6139
765.718	6055
768.1373	6160
770.5539	6094
772.9698	6253
775.3871	6241
777.8038	6096
780.2178	6092
782.6332	6213
785.0459	6223
787.458	6088
789.8714	6062
792.2842	6226
794.6943	6191
797.1038	6171
799.5127	6037
801.9209	6219
804.3324	6178
806.7393	6212
809.1456	6247
811.5513	6314
813.9562	6232
816.3625	6241
818.7663	6163
821.1693	6213
823.5718	6217
825.9735	6118
828.3746	6134
830.7771	6299
833.177	6318
835.5762	6250
837.9747	6273
840.3727	6321
842.772	6326
845.1666	6377
847.5626	6309
849.958	6321
852.3527	6405
854.7488	6405
857.1403	6374
859.5331	6448
861.9253	6389
864.3168	6361
866.7057	6431
869.098	6294
871.4876	6358
873.8746	6311
876.263	6334
878.6487	6287
881.0378	6278
883.4243	6237
885.8081	6395
888.1933	6314
890.5759	6415
892.9598	6363
895.343	6408
897.7256	6311
900.1057	6344
902.4871	6419
904.8659	6487
907.246	6439
909.6254	6397
912.0023	6438
914.3786	6551
916.7562	6565
919.1331	6550
921.5074	6601
923.8831	6728
926.2562	6642
928.6287	6707
931.0005	6713
933.3757	6796
935.7462	6710
938.1162	6650
940.4855	6780
942.8542	6754
945.2242	6736
947.5916	6723
949.9584	6824
952.3266	7021
954.6921	7208
957.0571	7274
959.4233	7339
961.787	7427
964.15	7404
966.5125	7350
968.8742	7184
971.2354	6964
973.5959	6906
975.9559	6834
978.3151	6786
980.6738	6714
983.0338	6660
985.3912	6688
987.7461	6710
990.1022	6542
992.4578	6555
994.8127	6626
997.1689	6663
999.5207	6576
1001.874	6656
1004.226	6606
1006.576	6618
1008.929	6597
1011.28	6548
1013.628	6632
1015.977	6707
1018.324	6596
1020.674	6649
1023.019	6602
1025.366	6670
1027.713	6698
1030.056	6644
1032.399	6683
1034.746	6784
1037.087	6594
1039.431	6640
1041.771	6765
1044.113	6637
1046.454	6655
1048.793	6750
1051.133	6750
1053.471	6662
1055.807	6750
1058.146	6749
1060.483	6721
1062.818	6750
1065.153	6768
1067.489	6775
1069.822	6724
1072.156	6791
1074.488	6734
1076.82	6716
1079.15	6666
1081.48	6722
1083.814	6758
1086.143	6753
1088.471	6649
1090.799	6776
1093.126	6777
1095.452	6816
1097.78	6819
1100.105	6788
1102.43	6698
1104.754	6748
1107.077	6815
1109.4	6865
1111.722	6866
1114.044	6771
1116.365	6795
1118.685	6834
1121.005	6708
1123.324	6879
1125.643	6817
1127.961	6887
1130.278	6919
1132.595	6879
1134.911	6788
1137.226	6715
1139.541	6756
1141.854	6837
1144.167	6939
1146.482	6893
1148.793	6779
1151.105	6841
1153.414	6804
1155.725	6844
1158.033	6862
1160.344	6825
1162.651	6823
1164.959	6751
1167.265	6869
1169.572	6791
1171.878	6798
1174.184	6862
1176.488	6784
1178.79	6758
1181.094	6835
1183.396	6855
1185.699	6783
1188.001	6854
1190.301	6903
1192.6	6771
1194.9	6754
1197.2	6753
1199.497	6874
1201.794	6893
1204.09	6773
1206.387	6828
1208.684	6800
1210.978	6710
1213.272	6769
1215.565	6781
1217.858	6829
1220.15	6844
1222.443	6844
1224.734	6888
1227.024	6837
1229.313	6991
1231.602	7006
1233.892	6913
1236.18	7081
1238.467	7036
1240.754	7084
1243.04	7140
1245.325	6948
1247.612	6967
1249.896	7105
1252.178	7130
1254.461	7051
1256.743	7141
1259.027	7074
1261.308	6977
1263.587	7250
1265.867	7061
1268.146	7141
1270.425	7118
1272.703	7032
1274.981	7217
1277.256	7100
1279.532	7090
1281.808	7073
1284.083	7033
1286.358	7020
1288.63	7016
1290.904	7035
1293.175	7072
1295.449	7022
1297.719	7011
1299.99	7041
1302.259	7082
1304.529	7045
1306.798	7015
1309.065	6961
1311.333	7095
1313.599	7079
1315.866	7049
1318.131	7057
1320.396	6968
1322.66	6988
1324.925	7198
1327.187	7022
1329.448	7098
1331.711	7034
1333.974	7091
1336.234	7135
1338.493	7134
1340.752	7124
1343.01	6984
1345.269	7053
1347.526	7003
1349.784	7183
1352.04	7057
1354.295	7126
1356.552	6979
1358.806	7059
1361.059	7059
1363.312	7015
1365.564	6986
1367.818	7015
1370.069	7015
1372.318	7123
1374.568	7081
1376.817	7064
1379.066	7009
1381.316	7067
1383.564	7186
1385.809	7140
1388.056	7078
1390.301	7210
1392.549	7162
1394.793	7269
1397.036	7316
1399.279	7239
1401.522	7378
1403.763	7357
1406.007	7228
1408.248	7364
1410.487	7303
1412.727	7295
1414.965	7316
1417.205	7347
1419.442	7332
1421.68	7277
1423.915	7157
1426.152	7360
1428.388	7324
1430.623	7242
1432.857	7258
1435.091	7298
1437.323	7324
1439.556	7345
1441.789	7347
1444.019	7403
1446.25	7444
1448.48	7367
1450.708	7398
1452.938	7406
1455.167	7446
1457.394	7576
1459.62	7523
1461.846	7320
1464.073	7459
1466.299	7384
1468.523	7274
1470.746	7319
1472.969	7287
1475.191	7305
1477.415	7270
1479.636	7315
1481.858	7086
1484.078	7197
1486.298	7065
1488.518	7151
1490.736	7197
1492.954	7092
1495.169	6996
1497.386	7172
1499.602	7135
1501.819	7050
1504.034	7176
1506.248	7028
1508.462	7000
1510.675	6991
1512.888	7145
1515.1	7116
1517.311	6961
1519.522	7016
1521.732	6984
1523.942	6987
1526.151	7043
1528.36	7078
1530.566	7006
1532.773	7138
1534.98	7134
1537.187	7041
1539.392	7063
1541.596	7023
1543.801	7091
1546.005	7163
1548.208	7025
1550.411	7060
1552.612	7054
1554.814	7198
1557.013	7092
1559.212	7104
1561.414	7218
1563.612	7140
1565.811	7302
1568.007	7170
1570.203	7275
1572.403	7238
1574.598	7319
1576.792	7198
1578.988	7230
1581.181	7212
1583.376	7321
1585.568	7204
1587.761	7261
1589.952	7217
1592.143	7287
1594.333	7195
1596.524	7235
1598.715	7324
1600.903	7312
1603.091	7260
1605.278	7448
1607.466	7270
1609.652	7424
1611.838	7455
1614.023	7328
1616.207	7357
1618.391	7365
1620.576	7402
1622.759	7349
1624.941	7360
1627.123	7339
1629.304	7392
1631.484	7296
1633.664	7261
1635.844	7452
1638.022	7427
1640.201	7382
1642.38	7366
1644.556	7371
1646.732	7410
1648.908	7393
1651.084	7380
1653.257	7435
1655.433	7360
1657.607	7377
1659.779	7431
1661.951	7377
1664.122	7512
1666.295	7343
1668.467	7347
1670.635	7319
1672.805	7458
1674.973	7341
1677.142	7477
1679.31	7441
1681.478	7421
1683.644	7350
1685.81	7418
1687.975	7421
1690.142	7362
1692.305	7383
1694.468	7299
1696.632	7360
1698.794	7349
1700.957	7348
1703.119	7407
1705.279	7457
1707.439	7189
1709.598	7328
1711.758	7239
1713.917	7336
1716.075	7260
1718.231	7377
1720.388	7256
1722.543	7188
1724.702	7202
1726.856	7320
1729.01	7276
1731.164	7333
1733.317	7191
1735.471	7385
1737.623	7319
1739.774	7362
1741.925	7249
1744.075	7307
1746.225	7224
1748.376	7206
1750.524	7250
1752.672	7290
1754.82	7309
1756.965	7300
1759.113	7294
1761.259	7285
1763.405	7281
1765.549	7380
1767.694	7281
1769.836	7217
1771.981	7260
1774.123	7318
1776.264	7351
1778.405	7283
1780.546	7360
1782.687	7290
1784.827	7324
1786.966	7239
1789.103	7410
1791.242	7333
1793.381	7417
1795.517	7371
1797.653	7275
1799.788	7332
1801.923	7311
1804.057	7417
1806.193	7433
1808.326	7334
1810.457	7206
1812.59	7355
1814.721	7337
1816.855	7270
1818.984	7342
1821.113	7312
1823.244	7410
1825.372	7363
1827.499	7254
1829.63	7230
1831.756	7332
1833.882	7212
1836.007	7303
1838.132	7391
1840.26	7190
1842.384	7284
1844.507	7322
1846.63	7380
1848.752	7382
1850.875	7280
1852.996	7334
1855.118	7184
1857.238	7338
1859.358	7280
1861.477	7421
1863.597	7136
1865.715	7265
1867.832	7321
1869.948	7274
1872.064	7246
1874.181	7337
1876.297	7222
1878.411	7274
1880.526	7361
1882.639	7328
1884.752	7296
1886.865	7312
1888.977	7309
1891.089	7294
1893.2	7461
1895.308	7297
1897.42	7361
1899.53	7238
1901.639	7347
1903.745	7313
1905.853	7336
1907.962	7236
1910.067	7350
1912.174	7304
1914.278	7320
1916.383	7332
1918.486	7241
1920.592	7381
1922.694	7336
1924.797	7384
1926.898	7440
1929	7394
1931.102	7442
1933.203	7395
1935.301	7390
1937.401	7276
1939.499	7356
1941.598	7278
1943.697	7516
1945.793	7325
1947.888	7297
1949.985	7403
1952.08	7402
1954.176	7329
1956.269	7449
1958.364	7475
1960.457	7368
1962.549	7381
1964.642	7261
1966.733	7366
1968.823	7426
1970.913	7349
1973.005	7329
1975.093	7296
1977.184	7350
1979.271	7277
1981.359	7352
1983.446	7219
1985.532	7404
1987.619	7233
1989.705	7364
1991.789	7250
1993.874	7317
1995.956	7278
1998.041	7240
2000.123	7338
2002.206	7197
2004.287	7334
2006.368	7236
2008.449	7303
2010.529	7284
2012.609	7246
2014.688	7246
2016.766	7161
2018.843	7225
2020.922	7174
2022.999	7207
2025.074	7271
2027.15	7199
2029.225	7220
2031.299	7261
2033.375	7167
2035.447	7263
2037.52	7229
2039.592	7167
2041.664	7347
2043.736	7235
2045.807	7210
2047.876	7266
2049.947	7159
2052.015	7320
2054.086	7289
2056.153	7135
2058.221	7170
2060.288	7218
2062.353	7260
2064.42	7346
2066.486	7342
2068.55	7286
2070.614	7289
2072.678	7343
2074.741	7195
2076.805	7308
2078.866	7239
2080.929	7291
2082.99	7331
2085.049	7310
2087.109	7197
2089.17	7202
2091.228	7267
2093.286	7258
2095.344	7273
2097.4	7181
2099.46	7328
2101.516	7208
2103.572	7230
2105.626	7260
2107.679	7246
2109.735	7332
2111.788	7305
2113.841	7183
2115.894	7337
2117.945	7207
2119.997	7190
2122.049	7346
2124.1	7318
2126.148	7415
2128.197	7313
2130.246	7281
2132.296	7199
2134.342	7215
2136.39	7212
2138.437	7228
2140.483	7225
2142.527	7200
2144.574	7254
2146.619	7209
2148.661	7313
2150.705	7216
2152.747	7196
2154.792	7259
2156.832	7276
2158.874	7229
2160.915	7165
2162.954	7146
2164.995	7119
2167.034	7083
2169.072	7115
2171.111	7169
2173.148	7164
2175.186	7300
2177.223	7110
2179.258	7150
2181.294	7212
2183.328	7170
2185.362	7031
2187.398	7117
2189.431	7179
2191.463	7170
2193.495	7067
2195.528	7039
2197.56	7193
2199.59	7128
2201.62	7009
2203.649	7117
2205.678	6985
2207.708	7039
2209.737	7012
2211.764	6964
2213.791	7159
2215.817	7092
2217.843	6963
2219.87	7020
2221.895	7101
2223.919	7037
2225.942	6996
2227.966	6976
2229.988	7040
2232.012	6903
2234.032	7080
2236.054	7063
2238.074	7026
2240.095	7082
2242.116	6983
2244.135	6963
2246.153	7058
2248.171	6959
2250.188	7104
2252.208	6940
2254.223	6975
2256.239	7147
2258.255	7059
2260.269	7049
2262.283	7146
2264.3	6991
2266.312	7040
2268.325	7060
2270.336	7088
2272.349	7099
2274.362	6998
2276.372	7031
2278.383	6852
2280.392	6927
2282.402	6979
2284.409	7128
2286.418	6905
2288.427	6991
2290.433	6816
2292.441	7116
2294.446	6859
2296.453	6894
2298.459	7084
2300.463	7092
2302.466	6963
2304.471	7006
2306.475	6943
2308.477	7007
2310.478	6956
2312.481	6951
2314.481	6899
2316.481	7002
2318.482	7030
2320.482	6913
2322.48	7007
2324.48	6986
2326.478	6963
2328.476	7098
2330.473	6893
2332.469	6793
2334.465	6928
2336.46	6926
2338.454	6842
2340.45	6859
2342.444	6837
2344.437	6881
2346.43	6884
2348.421	6872
2350.414	6893
2352.405	6791
2354.396	6856
2356.386	6957
2358.376	6796
2360.366	6861
2362.355	6786
2364.343	6901
2366.331	6853
2368.317	6783
2370.304	6828
2372.292	6884
2374.278	6747
2376.262	6825
2378.247	6984
2380.23	6730
2382.216	6917
2384.199	6870
2386.181	6773
2388.163	6883
2390.144	6866
2392.127	6851
2394.107	6705
2396.087	6856
2398.066	6782
2400.046	6778
2402.023	6734
2404.004	6652
2405.981	6678
2407.957	6791
2409.934	6749
2411.91	6695
2413.886	6696
2415.862	6791
2417.836	6674
2419.809	6777
2421.784	6706
2423.756	6699
2425.73	6850
2427.701	6638
2429.672	6742
2431.644	6687
2433.615	6707
2435.586	6673
2437.555	6773
2439.523	6703
2441.491	6803
2443.459	6818
2445.428	6838
2447.395	6666
2449.361	6766
2451.327	6666
2453.292	6695
2455.257	6617
2457.223	6611
2459.187	6613
2461.15	6709
2463.113	6603
2465.076	6686
2467.039	6766
2468.999	6652
2470.96	6671
2472.921	6712
2474.881	6620
2476.841	6645
2478.8	6560
2480.759	6783
2482.717	6610
2484.675	6690
2486.63	6677
2488.589	6633
2490.545	6580
2492.5	6605
2494.455	6689
2496.408	6704
2498.364	6538
2500.318	6600
2502.27	6526
2504.223	6558
2506.174	6470
2508.126	6572
2510.078	6604
2512.03	6658
2513.979	6645
2515.927	6558
2517.877	6601
2519.826	6626
2521.775	6582
2523.722	6659
2525.668	6421
2527.616	6544
2529.561	6565
2531.508	6604
2533.452	6589
2535.398	6620
2537.342	6497
2539.284	6498
2541.229	6636
2543.173	6522
2545.114	6551
2547.055	6597
2548.996	6596
2550.938	6522
2552.878	6628
2554.817	6566
2556.756	6595
2558.695	6572
2560.633	6602
2562.572	6555
2564.509	6507
2566.445	6627
2568.382	6545
2570.317	6657
2572.254	6589
2574.189	6650
2576.123	6521
2578.057	6516
2579.99	6567
2581.923	6561
2583.855	6593
2585.788	6569
2587.719	6588
2589.65	6582
2591.579	6514
2593.511	6539
2595.44	6543
2597.37	6520
2599.297	6619
2601.225	6588
2603.153	6571
2605.08	6485
2607.007	6474
2608.932	6547
2610.858	6562
2612.782	6545
2614.709	6594
2616.632	6596
2618.556	6517
2620.478	6597
2622.401	6560
2624.324	6554
2626.247	6422
2628.167	6632
2630.088	6511
2632.008	6466
2633.928	6631
2635.848	6497
2637.766	6480
2639.684	6527
2641.603	6505
2643.519	6544
2645.437	6485
2647.353	6562
2649.27	6441
2651.184	6494
2653.099	6542
2655.014	6564
2656.928	6543
2658.842	6582
2660.755	6478
2662.667	6549
2664.579	6517
2666.491	6510
2668.402	6504
2670.312	6560
2672.222	6445
2674.132	6488
2676.042	6452
2677.951	6621
2679.859	6472
2681.766	6505
2683.674	6364
2685.582	6560
2687.488	6545
2689.392	6382
2691.298	6492
2693.202	6518
2695.107	6484
2697.012	6517
2698.914	6443
2700.817	6463
2702.72	6346
2704.622	6397
2706.524	6378
2708.425	6301
2710.326	6313
2712.225	6478
2714.125	6371
2716.024	6385
2717.923	6417
2719.822	6326
2721.719	6337
2723.616	6425
2725.512	6433
2727.41	6412
2729.305	6491
2731.201	6435
2733.095	6419
2734.99	6462
2736.884	6275
2738.778	6311
2740.67	6372
2742.562	6416
2744.455	6336
2746.346	6237
2748.238	6300
2750.129	6339
2752.018	6339
2753.907	6262
2755.797	6377
2757.687	6293
2759.575	6306
2761.462	6341
2763.349	6312
2765.237	6256
2767.124	6387
2769.009	6309
2770.894	6433
2772.779	6374
2774.663	6280
2776.547	6379
2778.431	6235
2780.314	6229
2782.197	6310
2784.078	6330
2785.96	6340
2787.842	6308
2789.723	6379
2791.603	6264
2793.483	6274
2795.362	6212
2797.241	6292
2799.121	6237
2800.997	6275
2802.874	6171
2804.751	6325
2806.628	6267
2808.506	6165
2810.38	6189
2812.255	6309
2814.13	6291
2816.003	6297
2817.878	6199
2819.752	6249
2821.623	6249
2823.496	6278
2825.368	6276
2827.238	6156
2829.111	6260
2830.98	6110
2832.851	6124
2834.719	6290
2836.589	6205
2838.458	6202
2840.327	6300
2842.193	6256
2844.061	6168
2845.927	6311
2847.794	6251
2849.66	6244
2851.525	6252
2853.39	6275
2855.254	6314
2857.117	6212
2858.983	6449
2860.845	6303
2862.707	6328
2864.569	6411
2866.431	6373
2868.293	6435
2870.154	6358
2872.013	6436
2873.873	6509
2875.733	6591
2877.592	6703
2879.451	6628
2881.309	6754
2883.166	6648
2885.022	6761
2886.879	6776
2888.736	6722
2890.591	6794
2892.446	6871
2894.301	6820
2896.155	6898
2898.009	6642
2899.863	6850
2901.716	6818
2903.568	6687
2905.419	6755
2907.27	6766
2909.123	6671
2910.973	6700
2912.824	6758
2914.673	6843
2916.521	6850
2918.372	6931
2920.22	6891
2922.067	6902
2923.914	6952
2925.761	7053
2927.607	7121
2929.455	7014
2931.301	7083
2933.144	7112
2934.99	7081
2936.833	7117
2938.678	7233
2940.522	7297
2942.364	7373
2944.207	7406
2946.048	7502
2947.891	7658
2949.731	7540
2951.571	7665
2953.412	7688
2955.25	7446
2957.09	7554
2958.93	7446
2960.767	7405
2962.606	7309
2964.443	7346
2966.279	7324
2968.116	7212
2969.953	6917
2971.788	6965
2973.623	6884
2975.457	6977
2977.292	6823
2979.127	6922
2980.959	6747
2982.792	6736
2984.624	6617
2986.455	6736
2988.288	6603
2990.119	6599
2991.949	6508
2993.779	6367
2995.608	6467
2997.439	6450
2999.268	6515
3001.096	6356
3002.923	6269
3004.751	6283
3006.578	6305
3008.406	6312
3010.232	6136
3012.057	6219
3013.883	6155
3015.706	6064
3017.532	6017
3019.356	6058
3021.179	6034
3023.002	6052
3024.823	6023
3026.646	5968
3028.469	6019
3030.289	5983
3032.11	5926
3033.93	5832
3035.749	5882
3037.57	5915
3039.39	5861
3041.207	5795
3043.026	5846
3044.842	5892
3046.661	5758
3048.477	5791
3050.294	5813
3052.109	5831
3053.925	5894
3055.739	5785
3057.555	5878
3059.368	5810
3061.181	5889
3062.995	5782
3064.807	5766
3066.62	5782
3068.433	5832
3070.243	5855
3072.054	5769
3073.865	5810
3075.675	5817
3077.485	5817
3079.293	5764
3081.102	5690
3082.911	5715
3084.719	5724
3086.527	5884
3088.333	5818
3090.139	5702
3091.945	5748
3093.75	5705
3095.557	5672
3097.361	5723
3099.165	5590
3100.969	5685
3102.772	5668
3104.575	5603
3106.379	5667
3108.181	5627
3109.982	5616
3111.783	5530
3113.584	5636
3115.386	5598
3117.186	5636
3118.985	5540
3120.783	5612
3122.582	5533
3124.381	5514
3126.179	5573
3127.975	5616
3129.772	5556
3131.569	5499
3133.365	5570
3135.161	5582
3136.956	5609
3138.751	5527
3140.544	5445
3142.338	5554
3144.132	5564
3145.925	5552
3147.717	5560
3149.509	5455
3151.301	5513
3153.091	5452
3154.884	5394
3156.673	5404
3158.462	5417
3160.252	5431
3162.041	5428
3163.831	5519
3165.618	5477
3167.405	5475
3169.193	5385
3170.979	5410
3172.767	5449
3174.553	5427
3176.338	5423
3178.123	5492
3179.907	5393
3181.692	5400
3183.477	5443
3185.259	5460
3187.042	5392
3188.824	5320
3190.607	5464
3192.389	5334
3194.17	5347
3195.951	5369
3197.73	5256
3199.51	5337
3201.289	5493
3203.07	5420
3204.848	5432
3206.626	5381
3208.403	5394
3210.18	5391
3211.959	5412
3213.735	5400
3215.511	5391
3217.285	5344
3219.06	5353
3220.836	5279
3222.611	5367
3224.384	5316
3226.158	5394
3227.929	5332
3229.702	5334
3231.476	5305
3233.248	5317
3235.018	5349
3236.789	5364
3238.56	5339
3240.33	5439
3242.1	5276
3243.869	5332
3245.637	5414
3247.405	5334
3249.172	5366
3250.941	5463
3252.707	5283
3254.474	5315
3256.24	5333
3258.006	5332
3259.772	5307
3261.537	5285
3263.301	5264
3265.065	5398
3266.828	5311
3268.592	5339
3270.355	5348
3272.117	5279
3273.878	5168
3275.64	5289
3277.401	5361
3279.162	5322
3280.922	5295
3282.682	5314
3284.441	5239
3286.199	5339
3287.959	5219
3289.716	5203
3291.475	5271
3293.232	5320
3294.988	5288
3296.744	5156
3298.501	5223
3300.256	5252
3302.011	5358
3303.766	5326
3305.52	5184
3307.275	5320
3309.028	5280
3310.781	5284
3312.533	5390
3314.285	5285
3316.038	5293
3317.789	5306
3319.54	5283
3321.289	5233
3323.039	5254
3324.789	5299
3326.539	5204
3328.288	5200
3330.035	5281
3331.783	5126
3333.531	5311
3335.28	5278
3337.025	5248
3338.771	5271
3340.518	5149
3342.262	5215
3344.009	5230
3345.753	5127
3347.497	5136
3349.24	5115
3350.983	5135
3352.726	5149
3354.469	5095
3356.212	5210
3357.952	5223
3359.694	5043
3361.434	5238
3363.176	5057
3364.916	5139
3366.654	5063
3368.394	5076
3370.132	5218
3371.871	5119
3373.61	5174
3375.346	5181
3377.083	5046
3378.82	5156
3380.556	5156
3382.292	5067
3384.027	5081
3385.763	5075
3387.497	5029
3389.231	5126
3390.965	4986
3392.698	5112
3394.431	4992
3396.164	5035
3397.896	5061
3399.627	5060
3401.36	5071
3403.09	5052
3404.82	5082
3406.55	5092
3408.279	5032
3410.01	4964
3411.738	5094
3413.467	5087
3415.194	4967
3416.92	4966
3418.647	5018
3420.375	4947
3422.102	5039
3423.827	4937
3425.553	4941
3427.277	4918
3429.003	5026
3430.727	4944
3432.451	4973
3434.173	4979
3435.896	5005
3437.62	4962
3439.343	4906
3441.063	4970
3442.785	5027
3444.505	4894
3446.226	4925
3447.948	4895
3449.666	4826
3451.386	4881
3453.104	4915
3454.823	4858
3456.541	4799
3458.259	4830
3459.976	4833
3461.693	4765
3463.408	4835
3465.125	4744
3466.841	4873
3468.556	4863
3470.271	4851
3471.985	4822
3473.698	4852
3475.414	4829
3477.126	4822
3478.838	4892
3480.55	4728
3482.263	4788
3483.975	4698
3485.686	4772
3487.396	4711
3489.106	4758
3490.817	4672
3492.526	4739
3494.236	4820
3495.944	4753
3497.652	4795
3499.359	4618
3501.066	4652
3502.775	4682
3504.481	4680
3506.187	4629
3507.893	4686
3509.598	4583
3511.304	4642
3513.009	4612
3514.713	4621
3516.417	4609
3518.12	4623
3519.821	4602
3521.525	4625
3523.228	4758
3524.929	4633
3526.631	4644
3528.33	4507
3530.032	4632
3531.733	4573
3533.433	4598
3535.131	4521
3536.83	4597
3538.529	4513
3540.227	4603
3541.925	4518
3543.623	4542
3545.319	4644
3547.016	4672
3548.712	4488
3550.408	4575
3552.103	4501
3553.798	4523
3555.491	4524
3557.188	4510
3558.88	4579
3560.574	4487
3562.266	4517
3563.959	4586
3565.651	4483
3567.343	4457
3569.035	4490
3570.725	4527
3572.415	4481
3574.106	4441
3575.797	4527
3577.485	4486
3579.174	4376
3580.863	4501
3582.551	4427
3584.238	4437
3585.926	4385
3587.613	4363
3589.3	4383
3590.986	4401
3592.671	4343
3594.357	4403
3596.042	4364
3597.726	4368
3599.41	4366
3601.094	4282
3602.778	4440
3604.461	4356
3606.143	4271
3607.825	4308
3609.507	4351
3611.188	4275
3612.87	4211
3614.551	4344
3616.229	4283
3617.909	4352
3619.589	4267
3621.269	4341
3622.948	4320
3624.625	4203
3626.302	4229
3627.98	4349
3629.657	4307
3631.334	4219
3633.01	4158
3634.686	4284
3636.361	4212
3638.036	4269
3639.712	4265
3641.385	4217
3643.06	4170
3644.732	4168
3646.405	4078
3648.08	4201
3649.751	4274
3651.424	4133
3653.094	4200
3654.766	4147
3656.436	4160
3658.106	4170
3659.777	4182
3661.446	4136
3663.115	4204
3664.783	4093
3666.452	4089
3668.121	4165
3669.788	4142
3671.454	4187
3673.121	4104
3674.789	4114
3676.455	4110
3678.12	4164
3679.784	4138
3681.45	4125
3683.114	4144
3684.779	4114
3686.442	4121
3688.105	4142
3689.768	4149
3691.43	4029
3693.093	4031
3694.754	4115
3696.415	4048
3698.076	4108
3699.736	4032
3701.396	4149
3703.057	4025
3704.716	4077
3706.375	4050
3708.034	4076
3709.692	4040
3711.351	4040
3713.008	4114
3714.665	4065
3716.321	4043
3717.977	4062
3719.634	4054
3721.29	4016
3722.945	3999
3724.598	4030
3726.253	3990
3727.907	4112
3729.561	4008
3731.214	3964
3732.867	4020
3734.518	3953
3736.171	3953
3737.824	3977
3739.474	3979
3741.125	3978
3742.775	3970
3744.425	3951
3746.074	3961
3747.725	3961
3749.373	3979
3751.022	3955
3752.669	3907
3754.318	3936
3755.966	3984
3757.612	3975
3759.259	3927
3760.905	3982
3762.55	3921
3764.197	3903
3765.842	3987
3767.486	3844
3769.131	3978
3770.774	3891
3772.417	3855
3774.061	3920
3775.705	3885
3777.347	3912
3778.988	3926
3780.629	3891
3782.271	3837
3783.912	3877
3785.552	3897
3787.192	3893
3788.831	3915
3790.472	3859
3792.112	3834
3793.75	3837
3795.388	3866
3797.024	3922
3798.661	3765
3800.3	3864
3801.936	3864
3803.572	3832
3805.208	3874
3806.844	3906
3808.48	3799
3810.115	3807
3811.748	3854
3813.382	3791
3815.016	3809
3816.649	3827
3818.283	3776
3819.914	3788
3821.547	3738
3823.178	3797
3824.809	3813
3826.441	3797
3828.072	3847
3829.701	3776
3831.331	3700
3832.96	3764
3834.591	3711
3836.219	3814
3837.847	3706
3839.475	3721
3841.102	3693
3842.729	3640
3844.357	3757
3845.984	3764
3847.609	3697
3849.234	3714
3850.86	3808
3852.485	3692
3854.11	3662
3855.734	3702
3857.357	3753
3858.981	3719
3860.603	3685
3862.227	3659
3863.848	3636
3865.471	3727
3867.092	3597
3868.713	3629
3870.334	3634
3871.954	3608
3873.575	3608
3875.194	3676
3876.813	3576
3878.433	3640
3880.051	3631
3881.669	3608
3883.286	3689
3884.904	3630
3886.52	3662
3888.138	3693
3889.754	3623
3891.37	3688
3892.985	3662
3894.6	3523
3896.216	3668
3897.831	3634
3899.444	3674
3901.058	3613
3902.67	3603
3904.283	3712
3905.897	3639
3907.509	3587
3909.121	3581
3910.731	3587
3912.342	3699
3913.954	3618
3915.563	3611
3917.174	3624
3918.783	3577
3920.391	3708
3922.002	3585
3923.611	3634
3925.218	3624
3926.826	3512
3928.432	3515
3930.039	3567
3931.647	3541
3933.253	3543
3934.859	3566
3936.464	3538
3938.068	3564
3939.675	3565
3941.278	3536
3942.883	3524
3944.486	3571
3946.089	3522
3947.692	3529
3949.295	3646
3950.898	3541
3952.499	3493
3954.1	3491
3955.7	3489
3957.303	3526
3958.903	3489
3960.502	3466
3962.101	3458
3963.7	3498
3965.301	3483
3966.899	3484
3968.497	3450
3970.094	3474
3971.691	3505
3973.288	3470
3974.885	3509
3976.481	3511
3978.077	3443
3979.672	3411
3981.267	3417
3982.863	3468
3984.457	3407
3986.051	3445
3987.645	3403
3989.238	3485
3990.831	3468
3992.425	3425
3994.017	3447
3995.607	3428
3997.199	3373
3998.79	3333
4000.382	3353
4001.973	3322
4003.561	3394
4005.151	3327
4006.741	3388
4008.331	3472
4009.918	3339
4011.507	3260
4013.095	3373
4014.681	3279
4016.269	3354
4017.856	3315
4019.443	3323
4021.028	3335
4022.614	3286
4024.199	3329
4025.785	3290
4027.37	3323
4028.953	3358
4030.536	3225
4032.12	3253
4033.704	3265
4035.287	3347
4036.869	3257
4038.45	3264
4040.032	3232
4041.613	3271
4043.195	3319
4044.776	3272
4046.356	3332
4047.935	3277
4049.515	3212
4051.095	3219
4052.674	3270
4054.251	3212
4055.829	3228
4057.406	3287
4058.985	3281
4060.562	3212
4062.139	3216
4063.715	3239
4065.29	3232
4066.865	3230
4068.442	3248
4070.016	3267
4071.59	3238
4073.164	3186
4074.738	3209
4076.312	3189
4077.885	3248
4079.458	3221
4081.03	3208
4082.602	3149
4084.173	3187
4085.745	3181
4087.315	3220
4088.886	3208
4090.456	3164
4092.026	3195
4093.596	3117
4095.165	3186
4096.734	3164
4098.301	3165
4099.869	3183
4101.437	3072
4103.006	3212
4104.572	3154
4106.139	3184
4107.704	3137
4109.27	3105
4110.837	3156
4112.401	3086
4113.966	3132
4115.53	3127
4117.094	3093
4118.659	3117
4120.223	3145
4121.785	3104
4123.347	3114
4124.909	3108
4126.471	3080
4128.034	3150
4129.595	3074
4131.155	3076
4132.716	3045
4134.275	3090
4135.836	3083
4137.395	3047
4138.955	3081
4140.513	3063
4142.071	3133
4143.628	3029
4145.188	3016
4146.745	2980
4148.302	3029
4149.858	3055
4151.414	3038
4152.971	3041
4154.526	2995
4156.081	2970
4157.635	3030
4159.189	3017
4160.745	2961
4162.298	3038
4163.852	3021
4165.405	3001
4166.957	3006
4168.51	2986
4170.063	3108
4171.614	2959
4173.166	2986
4174.717	2924
4176.267	3034
4177.817	3020
4179.368	2989
4180.917	2920
4182.466	2931
4184.016	2924
4185.564	2928
4187.112	3038
4188.66	2909
4190.207	2886
4191.754	2960
4193.301	3020
4194.848	2956
4196.394	2925
4197.94	2932
4199.484	2940
4201.03	2937
4202.575	2930
4204.12	2900
4205.663	2940
4207.207	2898
4208.75	2889
4210.292	2877
4211.836	2877
4213.378	2896
4214.92	2911
4216.46	2971
4218.002	2909
4219.544	2796
4221.083	2820
4222.625	2875
4224.164	2877
4225.703	2863
4227.244	2836
4228.782	2798
4230.32	2890
4231.857	2921
4233.395	2898
4234.933	2848
4236.471	2926
4238.007	2782
4239.542	2859
4241.078	2832
4242.614	2807
4244.15	2793
4245.685	2818
4247.219	2851
4248.753	2904
4250.287	2816
4251.82	2810
4253.354	2850
4254.887	2861
4256.419	2807
4257.951	2749
4259.483	2851
4261.016	2832
4262.547	2814
4264.078	2834
4265.608	2828
4267.137	2774
4268.668	2838
4270.197	2882
4271.727	2819
4273.254	2868
4274.783	2799
4276.311	2803
4277.84	2796
4279.366	2830
4280.894	2721
4282.42	2795
4283.946	2800
4285.473	2810
4286.998	2844
4288.523	2760
4290.047	2796
4291.572	2789
4293.096	2721
4294.622	2734
4296.144	2686
4297.668	2729
4299.19	2707
4300.713	2781
4302.236	2740
4303.758	2683
4305.279	2690
4306.799	2733
4308.321	2714
4309.842	2749
4311.361	2684
4312.882	2696
4314.401	2682
