400.0961	3820
402.6185	3921
405.1424	3914
407.6635	3894
410.1838	3903
412.7035	3919
415.2225	4029
417.7388	4059
420.2585	4006
422.7754	3982
425.2917	4052
427.8072	4120
430.3221	4165
432.8363	4171
435.3498	4196
437.8626	4112
440.3727	4109
442.8841	4162
445.3969	4080
447.907	4114
450.4142	4145
452.9229	4141
455.4289	4152
457.9362	4183
460.4449	3987
462.9488	4093
465.454	4011
467.9566	4045
470.4604	4120
472.9637	4078
475.4662	4138
477.966	4088
480.4671	4011
482.9656	4102
485.4633	4236
487.9645	4196
490.4608	4174
492.9566	4183
495.4536	4171
497.948	4174
500.4437	4127
502.9387	4177
505.431	4172
507.9226	4195
510.4136	4157
512.9079	4170
515.3975	4188
517.8864	4181
520.3746	4202
522.8622	4299
525.3491	4232
527.8394	4236
530.3249	4226
532.8098	4242
535.2939	4398
537.7774	4357
540.2623	4220
542.7444	4293
545.2259	4276
547.7067	4312
550.1868	4293
552.6683	4315
555.147	4227
557.6231	4210
560.1005	4387
562.5773	4296
565.0534	4307
567.5308	4429
570.0056	4370
572.4776	4415
574.951	4450
577.4237	4455
579.8978	4480
582.3671	4402
584.8378	4443
587.3079	4461
589.7773	4351
592.244	4423
594.714	4506
597.1793	4469
599.6461	4491
602.1121	4414
604.5754	4434
607.0421	4442
609.5042	4406
611.9675	4442
614.4282	4425
616.8902	4504
619.3515	4438
621.8122	4424
624.2702	4414
626.7296	4365
629.1863	4296
631.6423	4404
634.1017	4426
636.5563	4360
639.0104	4424
641.4658	4409
643.9185	4335
646.3725	4374
648.8239	4406
651.2766	4500
653.7266	4414
656.176	4421
658.6247	4477
661.0748	4499
663.5242	4469
665.9709	4458
668.417	4491
670.8624	4404
673.3092	4499
675.7533	4563
678.1968	4506
680.6395	4466
683.0817	4509
685.5251	4549
687.9659	4376
690.4061	4628
692.8456	4590
695.2844	4578
697.7226	4543
700.1621	4651
702.599	4661
705.0332	4650
707.4688	4680
709.9036	4682
712.3399	4578
714.7735	4608
717.2044	4646
719.6367	4687
722.0683	4700
724.4993	4627
726.9296	4735
729.3593	4801
731.7883	4773
734.2147	4667
736.6423	4570
739.0714	4727
741.4958	4732
743.9216	4782
746.3447	4722
748.7691	4793
751.1929	4709
753.616	4822
756.0366	4823
758.4584	4820
760.8776	4754
763.2982	4744
765.718	4903
768.1373	4791
770.5539	4855
772.9698	4842
775.3871	4808
777.8038	4840
780.2178	4911
782.6332	4845
785.0459	4857
787.458	4960
789.8714	4930
792.2842	4828
794.6943	4984
797.1038	4923
799.5127	4865
801.9209	4955
804.3324	5006
806.7393	4876
809.1456	4957
811.5513	4993
813.9562	5038
816.3625	4923
818.7663	4821
821.1693	4961
823.5718	4893
825.9735	4925
828.3746	4879
830.7771	4949
833.177	4931
835.5762	4922
837.9747	4992
840.3727	4872
842.772	5028
845.1666	5040
847.5626	5052
849.958	5057
852.3527	5049
854.7488	5106
857.1403	5202
859.5331	5158
861.9253	5069
864.3168	5122
866.7057	5168
869.098	5017
871.4876	5054
873.8746	5032
876.263	5040
878.6487	5004
881.0378	5061
883.4243	5074
885.8081	4986
888.1933	5077
890.5759	5036
892.9598	5111
895.343	5097
897.7256	4942
900.1057	4996
902.4871	5047
904.8659	4989
907.246	5015
909.6254	5108
912.0023	5152
914.3786	5263
916.7562	5385
919.1331	5357
921.5074	5466
923.8831	5472
926.2562	5625
928.6287	5447
931.0005	5470
933.3757	5427
935.7462	5395
938.1162	5476
940.4855	5531
942.8542	5470
945.2242	5544
947.5916	5690
949.9584	5770
952.3266	5871
954.6921	6229
957.0571	6135
959.4233	6476
961.787	6506
964.15	6480
966.5125	6329
968.8742	6107
971.2354	5843
973.5959	5732
975.9559	5552
978.3151	5320
980.6738	5427
983.0338	5331
985.3912	5342
987.7461	5421
990.1022	5316
992.4578	5166
994.8127	5180
997.1689	5284
999.5207	5296
1001.874	5271
1004.226	5392
1006.576	5402
1008.929	5315
1011.28	5322
1013.628	5306
1015.977	5319
1018.324	5288
1020.674	5374
1023.019	5243
1025.366	5279
1027.713	5268
1030.056	5385
1032.399	5436
1034.746	5396
1037.087	5401
1039.431	5402
1041.771	5428
1044.113	5342
1046.454	5425
1048.793	5330
1051.133	5352
1053.471	5407
1055.807	5384
1058.146	5354
1060.483	5442
1062.818	5469
1065.153	5461
1067.489	5375
1069.822	5462
1072.156	5542
1074.488	5427
1076.82	5507
1079.15	5439
1081.48	5393
1083.814	5406
1086.143	5404
1088.471	5397
1090.799	5374
1093.126	5365
1095.452	5436
1097.78	5390
1100.105	5303
1102.43	5383
1104.754	5459
1107.077	5416
1109.4	5419
1111.722	5393
1114.044	5451
1116.365	5438
1118.685	5310
1121.005	5421
1123.324	5302
1125.643	5486
1127.961	5495
1130.278	5458
1132.595	5412
1134.911	5432
1137.226	5318
1139.541	5290
1141.854	5486
1144.167	5401
1146.482	5279
1148.793	5299
1151.105	5475
1153.414	5452
1155.725	5319
1158.033	5429
1160.344	5399
1162.651	5458
1164.959	5433
1167.265	5446
1169.572	5349
1171.878	5414
1174.184	5437
1176.488	5474
1178.79	5475
1181.094	5561
1183.396	5419
1185.699	5444
1188.001	5513
1190.301	5455
1192.6	5349
1194.9	5525
1197.2	5387
1199.497	5365
1201.794	5465
1204.09	5359
1206.387	5409
1208.684	5514
1210.978	5462
1213.272	5538
1215.565	5375
1217.858	5484
1220.15	5447
1222.443	5489
1224.734	5575
1227.024	5533
1229.313	5546
1231.602	5545
1233.892	5648
1236.18	5587
1238.467	5618
1240.754	5614
1243.04	5739
1245.325	5835
1247.612	5693
1249.896	5712
1252.178	5729
1254.461	5721
1256.743	5774
1259.027	5707
1261.308	5630
1263.587	5757
1265.867	5664
1268.146	5679
1270.425	5846
1272.703	5837
1274.981	5758
1277.256	5602
1279.532	5698
1281.808	5666
1284.083	5613
1286.358	5661
1288.63	5647
1290.904	5697
1293.175	5630
1295.449	5612
1297.719	5584
1299.99	5525
1302.259	5676
1304.529	5660
1306.798	5677
1309.065	5542
1311.333	5562
1313.599	5650
1315.866	5665
1318.131	5461
1320.396	5648
1322.66	5603
1324.925	5579
1327.187	5653
1329.448	5614
1331.711	5649
1333.974	5689
1336.234	5707
1338.493	5772
1340.752	5633
1343.01	5546
1345.269	5674
1347.526	5589
1349.784	5581
1352.04	5470
1354.295	5597
1356.552	5522
1358.806	5596
1361.059	5782
1363.312	5572
1365.564	5610
1367.818	5612
1370.069	5694
1372.318	5683
1374.568	5623
1376.817	5657
1379.066	5656
1381.316	5681
1383.564	5675
1385.809	5581
1388.056	5736
1390.301	5769
1392.549	5780
1394.793	5888
1397.036	6016
1399.279	5842
1401.522	5979
1403.763	6079
1406.007	5998
1408.248	6009
1410.487	6019
1412.727	5954
1414.965	6032
1417.205	5981
1419.442	5902
1421.68	5863
1423.915	5887
1426.152	5977
1428.388	5883
1430.623	5856
1432.857	5865
1435.091	5919
1437.323	6012
1439.556	6042
1441.789	6039
1444.019	5933
1446.25	5976
1448.48	5962
1450.708	5945
1452.938	6064
1455.167	6057
1457.394	6055
1459.62	6130
1461.846	6040
1464.073	5946
1466.299	5927
1468.523	6003
1470.746	5840
1472.969	5887
1475.191	5801
1477.415	5850
1479.636	5731
1481.858	5685
1484.078	5655
1486.298	5670
1488.518	5679
1490.736	5629
1492.954	5662
1495.169	5521
1497.386	5565
1499.602	5682
1501.819	5537
1504.034	5581
1506.248	5505
1508.462	5655
1510.675	5589
1512.888	5574
1515.1	5550
1517.311	5604
1519.522	5612
1521.732	5520
1523.942	5649
1526.151	5504
1528.36	5486
1530.566	5543
1532.773	5539
1534.98	5519
1537.187	5457
1539.392	5676
1541.596	5647
1543.801	5577
1546.005	5645
1548.208	5512
1550.411	5648
1552.612	5617
1554.814	5737
1557.013	5643
1559.212	5689
1561.414	5800
1563.612	5660
1565.811	5656
1568.007	5694
1570.203	5715
1572.403	5661
1574.598	5750
1576.792	5723
1578.988	5763
1581.181	5708
1583.376	5806
1585.568	5772
1587.761	5786
1589.952	5648
1592.143	5755
1594.333	5752
1596.524	5763
1598.715	5873
1600.903	5753
1603.091	5731
1605.278	5738
1607.466	5844
1609.652	5836
1611.838	5885
1614.023	5799
1616.207	5804
1618.391	5894
1620.576	5871
1622.759	5887
1624.941	5730
1627.123	5717
1629.304	5807
1631.484	6042
1633.664	5885
1635.844	5908
1638.022	5908
1640.201	5946
1642.38	5898
1644.556	5867
1646.732	5853
1648.908	5962
1651.084	6004
1653.257	5906
1655.433	5838
1657.607	5923
1659.779	5947
1661.951	5904
1664.122	6075
1666.295	6032
1668.467	6012
1670.635	6001
1672.805	5964
1674.973	6032
1677.142	6061
1679.31	6027
1681.478	5928
1683.644	5973
1685.81	6062
1687.975	5940
1690.142	5886
1692.305	5895
1694.468	5872
1696.632	5878
1698.794	5847
1700.957	5897
1703.119	5751
1705.279	5785
1707.439	5721
1709.598	5803
1711.758	5735
1713.917	5702
1716.075	5703
1718.231	5645
1720.388	5801
1722.543	5792
1724.702	5726
1726.856	5761
1729.01	5646
1731.164	5733
1733.317	5760
1735.471	5744
1737.623	5738
1739.774	5813
1741.925	5779
1744.075	5733
1746.225	5770
1748.376	5725
1750.524	5732
1752.672	5682
1754.82	5816
1756.965	5804
1759.113	5700
1761.259	5717
1763.405	5658
1765.549	5754
1767.694	5794
1769.836	5871
1771.981	5854
1774.123	5682
1776.264	5824
1778.405	5789
1780.546	5788
1782.687	5840
1784.827	5888
1786.966	5793
1789.103	5763
1791.242	5774
1793.381	5869
1795.517	5690
1797.653	5836
1799.788	5841
1801.923	5715
1804.057	5829
1806.193	5956
1808.326	5824
1810.457	5806
1812.59	5766
1814.721	5922
1816.855	5843
1818.984	5769
1821.113	5761
1823.244	5693
1825.372	5757
1827.499	5796
1829.63	5841
1831.756	5865
1833.882	5743
1836.007	5745
1838.132	5754
1840.26	5865
1842.384	5776
1844.507	5820
1846.63	5758
1848.752	5885
1850.875	5777
1852.996	5838
1855.118	5798
1857.238	5724
1859.358	5739
1861.477	5766
1863.597	5725
1865.715	5731
1867.832	5741
1869.948	5680
1872.064	5693
1874.181	5836
1876.297	5873
1878.411	5749
1880.526	5677
1882.639	5699
1884.752	5763
1886.865	5773
1888.977	5750
1891.089	5842
1893.2	5742
1895.308	5813
1897.42	5841
1899.53	5734
1901.639	5804
1903.745	5747
1905.853	5880
1907.962	5802
1910.067	5804
1912.174	5734
1914.278	5857
1916.383	5737
1918.486	5840
1920.592	5756
1922.694	5827
1924.797	5812
1926.898	5979
1929	5869
1931.102	5908
1933.203	5948
1935.301	5865
1937.401	5753
1939.499	5845
1941.598	5863
1943.697	5842
1945.793	5870
1947.888	5849
1949.985	5886
1952.08	5877
1954.176	5873
1956.269	5839
1958.364	5781
1960.457	5812
1962.549	5871
1964.642	5801
1966.733	5864
1968.823	5832
1970.913	5763
1973.005	5788
1975.093	5797
1977.184	5787
1979.271	5826
1981.359	5755
1983.446	5848
1985.532	5840
1987.619	5798
1989.705	5816
1991.789	5749
1993.874	5853
1995.956	5819
1998.041	5882
2000.123	5850
2002.206	5779
2004.287	5848
2006.368	5749
2008.449	5870
2010.529	5708
2012.609	5808
2014.688	5800
2016.766	5799
2018.843	5763
2020.922	5682
2022.999	5846
2025.074	5822
2027.15	5668
2029.225	5685
2031.299	5792
2033.375	5778
2035.447	5785
2037.52	5682
2039.592	5745
2041.664	5720
2043.736	5805
2045.807	5798
2047.876	5772
2049.947	5736
2052.015	5794
2054.086	5733
2056.153	5849
2058.221	5796
2060.288	5820
2062.353	5773
2064.42	5754
2066.486	5783
2068.55	5729
2070.614	5747
2072.678	5890
2074.741	5903
2076.805	5754
2078.866	5750
2080.929	5777
2082.99	5693
2085.049	5758
2087.109	5825
2089.17	5782
2091.228	5738
2093.286	5724
2095.344	5761
2097.4	5826
2099.46	5704
2101.516	5699
2103.572	5838
2105.626	5743
2107.679	5695
2109.735	5751
2111.788	5742
2113.841	5728
2115.894	5760
2117.945	5797
2119.997	5850
2122.049	5744
2124.1	5867
2126.148	5718
2128.197	5742
2130.246	5875
2132.296	5737
2134.342	5740
2136.39	5768
2138.437	5691
2140.483	5834
2142.527	5738
2144.574	5806
2146.619	5846
2148.661	5709
2150.705	5721
2152.747	5729
2154.792	5730
2156.832	5798
2158.874	5739
2160.915	5810
2162.954	5638
2164.995	5752
2167.034	5754
2169.072	5731
2171.111	5734
2173.148	5639
2175.186	5743
2177.223	5728
2179.258	5720
2181.294	5747
2183.328	5654
2185.362	5689
2187.398	5610
2189.431	5652
2191.463	5543
2193.495	5746
2195.528	5561
2197.56	5653
2199.59	5484
2201.62	5642
2203.649	5602
2205.678	5657
2207.708	5649
2209.737	5622
2211.764	5670
2213.791	5550
2215.817	5642
2217.843	5599
2219.87	5652
2221.895	5591
2223.919	5620
2225.942	5632
2227.966	5495
2229.988	5629
2232.012	5622
2234.032	5696
2236.054	5666
2238.074	5644
2240.095	5685
2242.116	5641
2244.135	5566
2246.153	5562
2248.171	5520
2250.188	5623
2252.208	5671
2254.223	5602
2256.239	5662
2258.255	5609
2260.269	5574
2262.283	5617
2264.3	5698
2266.312	5611
2268.325	5584
2270.336	5660
2272.349	5617
2274.362	5600
2276.372	5657
2278.383	5510
2280.392	5610
2282.402	5686
2284.409	5537
2286.418	5622
2288.427	5629
2290.433	5556
2292.441	5641
2294.446	5626
2296.453	5533
2298.459	5571
2300.463	5672
2302.466	5614
2304.471	5604
2306.475	5566
2308.477	5606
2310.478	5642
2312.481	5592
2314.481	5527
2316.481	5551
2318.482	5633
2320.482	5606
2322.48	5573
2324.48	5484
2326.478	5480
2328.476	5585
2330.473	5573
2332.469	5628
2334.465	5389
2336.46	5463
2338.454	5422
2340.45	5517
2342.444	5549
2344.437	5649
2346.43	5401
2348.421	5515
2350.414	5540
2352.405	5524
2354.396	5530
2356.386	5522
2358.376	5508
2360.366	5504
2362.355	5417
2364.343	5508
2366.331	5497
2368.317	5574
2370.304	5430
2372.292	5487
2374.278	5402
2376.262	5507
2378.247	5332
2380.23	5488
2382.216	5492
2384.199	5412
2386.181	5399
2388.163	5384
2390.144	5356
2392.127	5471
2394.107	5402
2396.087	5366
2398.066	5429
2400.046	5432
2402.023	5492
2404.004	5486
2405.981	5323
2407.957	5397
2409.934	5395
2411.91	5426
2413.886	5481
2415.862	5328
2417.836	5432
2419.809	5417
2421.784	5461
2423.756	5292
2425.73	5432
2427.701	5450
2429.672	5432
2431.644	5422
2433.615	5403
2435.586	5410
2437.555	5371
2439.523	5460
2441.491	5365
2443.459	5445
2445.428	5403
2447.395	5366
2449.361	5338
2451.327	5428
2453.292	5336
2455.257	5396
2457.223	5353
2459.187	5337
2461.15	5299
2463.113	5348
2465.076	5376
2467.039	5379
2468.999	5326
2470.96	5317
2472.921	5298
2474.881	5241
2476.841	5360
2478.8	5404
2480.759	5285
2482.717	5347
2484.675	5404
2486.63	5361
2488.589	5312
2490.545	5337
2492.5	5283
2494.455	5418
2496.408	5289
2498.364	5332
2500.318	5348
2502.27	5316
2504.223	5351
2506.174	5338
2508.126	5315
2510.078	5310
2512.03	5306
2513.979	5278
2515.927	5175
2517.877	5357
2519.826	5357
2521.775	5273
2523.722	5319
2525.668	5278
2527.616	5285
2529.561	5316
2531.508	5238
2533.452	5268
2535.398	5368
2537.342	5390
2539.284	5216
2541.229	5354
2543.173	5335
2545.114	5170
2547.055	5217
2548.996	5238
2550.938	5272
2552.878	5364
2554.817	5182
2556.756	5267
2558.695	5467
2560.633	5276
2562.572	5122
2564.509	5373
2566.445	5297
2568.382	5276
2570.317	5264
2572.254	5292
2574.189	5372
2576.123	5253
2578.057	5139
2579.99	5225
2581.923	5425
2583.855	5268
2585.788	5366
2587.719	5304
2589.65	5384
2591.579	5331
2593.511	5289
2595.44	5220
2597.37	5194
2599.297	5296
2601.225	5158
2603.153	5215
2605.08	5289
2607.007	5318
2608.932	5358
2610.858	5287
2612.782	5310
2614.709	5294
2616.632	5309
2618.556	5209
2620.478	5220
2622.401	5297
2624.324	5287
2626.247	5289
2628.167	5237
2630.088	5249
2632.008	5281
2633.928	5311
2635.848	5288
2637.766	5377
2639.684	5295
2641.603	5328
2643.519	5430
2645.437	5317
2647.353	5317
2649.27	5243
2651.184	5288
2653.099	5314
2655.014	5137
2656.928	5247
2658.842	5266
2660.755	5245
2662.667	5291
2664.579	5287
2666.491	5238
2668.402	5271
2670.312	5221
2672.222	5281
2674.132	5226
2676.042	5270
2677.951	5189
2679.859	5334
2681.766	5198
2683.674	5178
2685.582	5234
2687.488	5130
2689.392	5281
2691.298	5189
2693.202	5226
2695.107	5270
2697.012	5208
2698.914	5211
2700.817	5201
2702.72	5247
2704.622	5243
2706.524	5273
2708.425	5140
2710.326	5178
2712.225	5119
2714.125	5206
2716.024	5196
2717.923	5216
2719.822	5073
2721.719	5103
2723.616	5026
2725.512	5261
2727.41	5186
2729.305	5170
2731.201	5208
2733.095	5168
2734.99	5130
2736.884	5080
2738.778	5173
2740.67	5136
2742.562	5155
2744.455	5259
2746.346	5200
2748.238	5259
2750.129	5163
2752.018	5169
2753.907	5075
2755.797	5176
2757.687	5184
2759.575	5133
2761.462	5170
2763.349	5212
2765.237	4988
2767.124	5153
2769.009	5102
2770.894	5130
2772.779	5153
2774.663	5200
2776.547	5211
2778.431	5027
2780.314	5076
2782.197	5129
2784.078	5116
2785.96	5048
2787.842	5052
2789.723	5201
2791.603	4984
2793.483	5015
2795.362	5118
2797.241	5089
2799.121	5059
2800.997	5124
2802.874	5050
2804.751	5018
2806.628	5080
2808.506	5142
2810.38	5107
2812.255	5150
2814.13	5061
2816.003	5076
2817.878	5155
2819.752	4949
2821.623	5162
2823.496	5099
2825.368	5137
2827.238	5155
2829.111	5135
2830.98	5076
2832.851	5161
2834.719	5017
2836.589	4990
2838.458	5170
2840.327	5135
2842.193	5107
2844.061	5224
2845.927	5134
2847.794	5195
2849.66	5210
2851.525	5180
2853.39	5229
2855.254	5284
2857.117	5336
2858.983	5347
2860.845	5252
2862.707	5246
2864.569	5389
2866.431	5351
2868.293	5425
2870.154	5362
2872.013	5474
2873.873	5464
2875.733	5533
2877.592	5517
2879.451	5625
2881.309	5773
2883.166	5712
2885.022	5797
2886.879	6038
2888.736	5804
2890.591	5815
2892.446	5954
2894.301	5782
2896.155	5871
2898.009	5955
2899.863	5914
2901.716	5907
2903.568	5924
2905.419	5906
2907.27	5908
2909.123	6019
2910.973	5890
2912.824	6026
2914.673	6062
2916.521	6011
2918.372	6046
2920.22	6232
2922.067	6276
2923.914	6233
2925.761	6343
2927.607	6372
2929.455	6291
2931.301	6380
2933.144	6504
2934.99	6476
2936.833	6582
2938.678	6588
2940.522	6517
2942.364	6774
2944.207	6848
2946.048	6823
2947.891	7038
2949.731	7040
2951.571	6987
2953.412	7075
2955.25	6997
2957.09	6789
2958.93	6808
2960.767	6694
2962.606	6663
2964.443	6617
2966.279	6627
2968.116	6505
2969.953	6381
2971.788	6222
2973.623	6203
2975.457	6072
2977.292	6082
2979.127	5998
2980.959	5965
2982.792	5954
2984.624	5877
2986.455	5894
2988.288	5842
2990.119	5809
2991.949	5579
2993.779	5730
2995.608	5672
2997.439	5526
2999.268	5475
3001.096	5562
3002.923	5422
3004.751	5397
3006.578	5282
3008.406	5309
3010.232	5275
3012.057	5204
3013.883	5099
3015.706	5168
3017.532	5129
3019.356	5044
3021.179	5118
3023.002	5073
3024.823	5072
3026.646	5067
3028.469	5046
3030.289	4968
3032.11	4930
3033.93	4991
3035.749	5011
3037.57	4934
3039.39	4870
3041.207	4851
3043.026	4853
3044.842	4898
3046.661	4856
3048.477	4840
3050.294	4883
3052.109	4876
3053.925	4826
3055.739	4855
3057.555	4848
3059.368	4899
3061.181	4841
3062.995	4845
3064.807	4896
3066.62	4903
3068.433	4841
3070.243	4867
3072.054	4851
3073.865	4859
3075.675	4844
3077.485	4865
3079.293	4806
3081.102	4832
3082.911	4766
3084.719	4771
3086.527	4845
3088.333	4739
3090.139	4710
3091.945	4626
3093.75	4750
3095.557	4792
3097.361	4821
3099.165	4731
3100.969	4668
3102.772	4636
3104.575	4679
3106.379	4642
3108.181	4722
3109.982	4709
3111.783	4580
3113.584	4698
3115.386	4594
3117.186	4717
3118.985	4768
3120.783	4575
3122.582	4644
3124.381	4584
3126.179	4606
3127.975	4740
3129.772	4677
3131.569	4606
3133.365	4472
3135.161	4610
3136.956	4566
3138.751	4626
3140.544	4602
3142.338	4585
3144.132	4582
3145.925	4602
3147.717	4723
3149.509	4640
3151.301	4554
3153.091	4593
3154.884	4584
3156.673	4531
3158.462	4615
3160.252	4619
3162.041	4549
3163.831	4578
3165.618	4632
3167.405	4576
3169.193	4540
3170.979	4528
3172.767	4531
3174.553	4527
3176.338	4574
3178.123	4492
3179.907	4595
3181.692	4493
3183.477	4577
3185.259	4531
3187.042	4519
3188.824	4534
3190.607	4585
3192.389	4589
3194.17	4473
3195.951	4488
3197.73	4549
3199.51	4545
3201.289	4534
3203.07	4539
3204.848	4635
3206.626	4528
3208.403	4514
3210.18	4506
3211.959	4487
3213.735	4578
3215.511	4573
3217.285	4603
3219.06	4526
3220.836	4561
3222.611	4529
3224.384	4550
3226.158	4531
3227.929	4501
3229.702	4447
3231.476	4526
3233.248	4564
3235.018	4609
3236.789	4559
3238.56	4602
3240.33	4454
3242.1	4562
3243.869	4552
3245.637	4566
3247.405	4518
3249.172	4473
3250.941	4523
3252.707	4459
3254.474	4544
3256.24	4499
3258.006	4446
3259.772	4410
3261.537	4597
3263.301	4573
3265.065	4523
3266.828	4504
3268.592	4516
3270.355	4587
3272.117	4597
3273.878	4566
3275.64	4480
3277.401	4448
3279.162	4527
3280.922	4582
3282.682	4565
3284.441	4613
3286.199	4533
3287.959	4456
3289.716	4543
3291.475	4487
3293.232	4557
3294.988	4537
3296.744	4482
3298.501	4615
3300.256	4542
3302.011	4527
3303.766	4531
3305.52	4493
3307.275	4504
3309.028	4546
3310.781	4527
3312.533	4455
3314.285	4578
3316.038	4449
3317.789	4509
3319.54	4540
3321.289	4545
3323.039	4623
3324.789	4470
3326.539	4454
3328.288	4449
3330.035	4489
3331.783	4483
3333.531	4616
3335.28	4547
3337.025	4484
3338.771	4500
3340.518	4405
3342.262	4481
3344.009	4521
3345.753	4472
3347.497	4485
3349.24	4404
3350.983	4435
3352.726	4412
3354.469	4394
3356.212	4351
3357.952	4413
3359.694	4363
3361.434	4456
3363.176	4444
3364.916	4334
3366.654	4349
3368.394	4440
3370.132	4456
3371.871	4329
3373.61	4358
3375.346	4276
3377.083	4367
3378.82	4340
3380.556	4384
3382.292	4310
3384.027	4486
3385.763	4428
3387.497	4334
3389.231	4399
3390.965	4353
3392.698	4308
3394.431	4289
3396.164	4337
3397.896	4277
3399.627	4355
3401.36	4224
3403.09	4257
3404.82	4348
3406.55	4318
3408.279	4243
3410.01	4321
3411.738	4337
3413.467	4238
3415.194	4284
3416.92	4170
3418.647	4281
3420.375	4139
3422.102	4213
3423.827	4343
3425.553	4202
3427.277	4199
3429.003	4203
3430.727	4199
3432.451	4248
3434.173	4159
3435.896	4274
3437.62	4193
3439.343	4185
3441.063	4201
3442.785	4124
3444.505	4159
3446.226	4211
3447.948	4306
3449.666	4183
3451.386	4150
3453.104	4119
3454.823	4124
3456.541	4107
3458.259	4076
3459.976	4174
3461.693	4054
3463.408	4156
3465.125	4166
3466.841	4097
3468.556	4041
3470.271	4066
3471.985	4055
3473.698	4085
3475.414	4082
3477.126	4067
3478.838	4097
3480.55	3961
3482.263	4035
3483.975	4049
3485.686	4017
3487.396	4073
3489.106	4046
3490.817	3996
3492.526	4038
3494.236	3989
3495.944	4037
3497.652	3955
3499.359	3989
3501.066	3948
3502.775	4027
3504.481	4002
3506.187	3910
3507.893	3974
3509.598	3907
3511.304	3943
3513.009	3952
3514.713	3910
3516.417	3969
3518.12	3955
3519.821	4007
3521.525	3883
3523.228	3936
3524.929	3916
3526.631	3941
3528.33	3884
3530.032	3877
3531.733	3891
3533.433	3908
3535.131	3866
3536.83	3768
3538.529	3936
3540.227	3838
3541.925	3851
3543.623	3870
3545.319	3867
3547.016	3838
3548.712	3801
3550.408	3754
3552.103	3878
3553.798	3801
3555.491	3896
3557.188	3800
3558.88	3771
3560.574	3761
3562.266	3820
3563.959	3718
3565.651	3730
3567.343	3868
3569.035	3820
3570.725	3739
3572.415	3808
3574.106	3648
3575.797	3772
3577.485	3757
3579.174	3717
3580.863	3731
3582.551	3793
3584.238	3713
3585.926	3730
3587.613	3707
3589.3	3626
3590.986	3588
3592.671	3773
3594.357	3725
3596.042	3688
3597.726	3663
3599.41	3799
3601.094	3659
3602.778	3689
3604.461	3701
3606.143	3638
3607.825	3635
3609.507	3616
3611.188	3628
3612.87	3608
3614.551	3549
3616.229	3610
3617.909	3615
3619.589	3606
3621.269	3595
3622.948	3614
3624.625	3563
3626.302	3535
3627.98	3552
3629.657	3555
3631.334	3554
3633.01	3636
3634.686	3501
3636.361	3440
3638.036	3505
3639.712	3574
3641.385	3635
3643.06	3556
3644.732	3445
3646.405	3491
3648.08	3425
3649.751	3457
3651.424	3459
3653.094	3476
3654.766	3474
3656.436	3466
3658.106	3519
3659.777	3521
3661.446	3523
3663.115	3348
3664.783	3529
3666.452	3532
3668.121	3468
3669.788	3442
3671.454	3390
3673.121	3447
3674.789	3457
3676.455	3389
3678.12	3368
3679.784	3419
3681.45	3430
3683.114	3338
3684.779	3416
3686.442	3436
3688.105	3382
3689.768	3474
3691.43	3337
3693.093	3407
3694.754	3374
3696.415	3306
3698.076	3404
3699.736	3394
3701.396	3368
3703.057	3412
3704.716	3371
3706.375	3456
3708.034	3319
3709.692	3296
3711.351	3400
3713.008	3355
3714.665	3323
3716.321	3316
3717.977	3360
3719.634	3372
3721.29	3325
3722.945	3266
3724.598	3409
3726.253	3318
3727.907	3275
3729.561	3310
3731.214	3328
3732.867	3315
3734.518	3309
3736.171	3316
3737.824	3281
3739.474	3267
3741.125	3384
3742.775	3260
3744.425	3345
3746.074	3277
3747.725	3332
3749.373	3254
3751.022	3415
3752.669	3356
3754.318	3262
3755.966	3289
3757.612	3321
3759.259	3293
3760.905	3276
3762.55	3272
3764.197	3316
3765.842	3202
3767.486	3266
3769.131	3314
3770.774	3292
3772.417	3222
3774.061	3165
3775.705	3257
3777.347	3178
3778.988	3238
3780.629	3223
3782.271	3204
3783.912	3202
3785.552	3283
3787.192	3232
3788.831	3215
3790.472	3186
3792.112	3240
3793.75	3203
3795.388	3159
3797.024	3230
3798.661	3245
3800.3	3165
3801.936	3176
3803.572	3193
3805.208	3188
3806.844	3177
3808.48	3124
3810.115	3203
3811.748	3102
3813.382	3245
3815.016	3175
3816.649	3120
3818.283	3123
3819.914	3125
3821.547	3164
3823.178	3222
3824.809	3171
3826.441	3071
3828.072	3212
3829.701	3089
3831.331	3096
3832.96	3135
3834.591	3091
3836.219	3106
3837.847	3096
3839.475	3169
3841.102	3084
3842.729	3167
3844.357	3180
3845.984	3098
3847.609	3102
3849.234	3071
3850.86	3053
3852.485	3083
3854.11	3147
3855.734	3039
3857.357	3139
3858.981	3009
3860.603	3055
3862.227	3065
3863.848	3102
3865.471	3082
3867.092	3085
3868.713	3155
3870.334	3023
3871.954	3039
3873.575	3147
3875.194	3009
3876.813	3010
3878.433	2963
3880.051	3039
3881.669	3069
3883.286	3044
3884.904	3036
3886.52	2975
3888.138	3066
3889.754	3025
3891.37	3070
3892.985	3049
3894.6	2978
3896.216	3061
3897.831	3037
3899.444	2961
3901.058	2978
3902.67	2983
3904.283	3010
3905.897	2967
3907.509	3002
3909.121	3011
3910.731	2996
3912.342	2987
3913.954	3025
3915.563	2987
3917.174	2980
3918.783	2979
3920.391	2948
3922.002	3038
3923.611	3080
3925.218	2930
3926.826	2956
3928.432	2978
3930.039	2938
3931.647	3002
3933.253	2988
3934.859	3004
3936.464	3017
3938.068	2971
3939.675	3006
3941.278	2940
3942.883	2973
3944.486	2953
3946.089	3041
3947.692	2864
3949.295	2963
3950.898	2950
3952.499	2881
3954.1	2965
3955.7	2918
3957.303	2884
3958.903	2946
3960.502	2947
3962.101	2938
3963.7	2932
3965.301	2848
3966.899	2946
3968.497	2839
3970.094	2962
3971.691	2904
3973.288	3012
3974.885	2917
3976.481	2932
3978.077	2920
3979.672	2796
3981.267	2858
3982.863	2855
3984.457	2829
3986.051	2822
3987.645	2862
3989.238	2872
3990.831	2856
3992.425	2784
3994.017	2873
3995.607	2862
3997.199	2846
3998.79	2828
4000.382	2832
4001.973	2821
4003.561	2794
4005.151	2811
4006.741	2762
4008.331	2818
4009.918	2837
4011.507	2770
4013.095	2837
4014.681	2859
4016.269	2835
4017.856	2811
4019.443	2812
4021.028	2788
4022.614	2781
4024.199	2779
4025.785	2703
4027.37	2793
4028.953	2773
4030.536	2773
4032.12	2750
4033.704	2815
4035.287	2757
4036.869	2802
4038.45	2739
4040.032	2768
4041.613	2775
4043.195	2732
4044.776	2724
4046.356	2780
4047.935	2719
4049.515	2738
4051.095	2755
4052.674	2726
4054.251	2751
4055.829	2668
4057.406	2745
4058.985	2664
4060.562	2626
4062.139	2757
4063.715	2683
4065.29	2742
4066.865	2658
4068.442	2713
4070.016	2677
4071.59	2758
4073.164	2683
4074.738	2698
4076.312	2706
4077.885	2656
4079.458	2693
4081.03	2689
4082.602	2698
4084.173	2622
4085.745	2699
4087.315	2663
4088.886	2653
4090.456	2714
4092.026	2695
4093.596	2673
4095.165	2709
4096.734	2759
4098.301	2600
4099.869	2623
4101.437	2590
4103.006	2651
4104.572	2634
4106.139	2720
4107.704	2659
4109.27	2650
4110.837	2629
4112.401	2600
4113.966	2568
4115.53	2570
4117.094	2625
4118.659	2681
4120.223	2652
4121.785	2578
4123.347	2584
4124.909	2598
4126.471	2636
4128.034	2539
4129.595	2592
4131.155	2618
4132.716	2642
4134.275	2585
4135.836	2532
4137.395	2584
4138.955	2531
4140.513	2587
4142.071	2607
4143.628	2599
4145.188	2576
4146.745	2581
4148.302	2584
4149.858	2583
4151.414	2532
4152.971	2510
4154.526	2556
4156.081	2528
4157.635	2531
4159.189	2480
4160.745	2508
4162.298	2529
4163.852	2546
4165.405	2518
4166.957	2590
4168.51	2529
4170.063	2499
4171.614	2480
4173.166	2551
4174.717	2501
4176.267	2456
4177.817	2471
4179.368	2532
4180.917	2508
4182.466	2499
4184.016	2529
4185.564	2528
4187.112	2451
4188.66	2459
4190.207	2472
4191.754	2431
4193.301	2465
4194.848	2498
4196.394	2523
4197.94	2485
4199.484	2469
4201.03	2406
4202.575	2529
4204.12	2466
4205.663	2449
4207.207	2444
4208.75	2506
4210.292	2440
4211.836	2439
4213.378	2472
4214.92	2456
4216.46	2406
4218.002	2436
4219.544	2481
4221.083	2432
4222.625	2354
4224.164	2478
4225.703	2390
4227.244	2449
4228.782	2406
4230.32	2460
4231.857	2347
4233.395	2415
4234.933	2461
4236.471	2420
4238.007	2372
4239.542	2442
4241.078	2444
4242.614	2409
4244.15	2449
4245.685	2425
4247.219	2375
4248.753	2403
4250.287	2392
4251.82	2403
4253.354	2357
4254.887	2479
4256.419	2315
4257.951	2480
4259.483	2390
4261.016	2298
4262.547	2384
4264.078	2395
4265.608	2358
4267.137	2388
4268.668	2412
4270.197	2341
4271.727	2436
4273.254	2354
4274.783	2370
4276.311	2344
4277.84	2369
4279.366	2335
4280.894	2398
4282.42	2367
4283.946	2377
4285.473	2329
4286.998	2319
4288.523	2349
4290.047	2364
4291.572	2370
4293.096	2323
4294.622	2319
4296.144	2387
4297.668	2300
4299.19	2325
4300.713	2338
4302.236	2283
4303.758	2322
4305.279	2345
4306.799	2351
4308.321	2299
4309.842	2342
4311.361	2290
4312.882	2315
4314.401	2297
