400.0961	5649
402.6185	5692
405.1424	5676
407.6635	5617
410.1838	5710
412.7035	5762
415.2225	5730
417.7388	5774
420.2585	5796
422.7754	5920
425.2917	5907
427.8072	5970
430.3221	5978
432.8363	6056
435.3498	6115
437.8626	6084
440.3727	6006
442.8841	6057
445.3969	6226
447.907	6129
450.4142	6102
452.9229	6079
455.4289	6088
457.9362	6087
460.4449	6087
462.9488	6005
465.454	6098
467.9566	5969
470.4604	6181
472.9637	6112
475.4662	6085
477.966	6151
480.4671	6088
482.9656	6171
485.4633	6171
487.9645	6184
490.4608	6288
492.9566	6142
495.4536	6290
497.948	6178
500.4437	6301
502.9387	6236
505.431	6133
507.9226	6256
510.4136	6190
512.9079	6272
515.3975	6426
517.8864	6435
520.3746	6346
522.8622	6384
525.3491	6358
527.8394	6323
530.3249	6344
532.8098	6496
535.2939	6398
537.7774	6452
540.2623	6459
542.7444	6385
545.2259	6328
547.7067	6429
550.1868	6396
552.6683	6396
555.147	6426
557.6231	6319
560.1005	6433
562.5773	6445
565.0534	6465
567.5308	6410
570.0056	6525
572.4776	6424
574.951	6514
577.4237	6466
579.8978	6561
582.3671	6654
584.8378	6601
587.3079	6776
589.7773	6662
592.244	6683
594.714	6589
597.1793	6669
599.6461	6563
602.1121	6651
604.5754	6693
607.0421	6581
609.5042	6614
611.9675	6701
614.4282	6640
616.8902	6611
619.3515	6629
621.8122	6475
624.2702	6576
626.7296	6678
629.1863	6582
631.6423	6558
634.1017	6587
636.5563	6461
639.0104	6580
641.4658	6681
643.9185	6611
646.3725	6731
648.8239	6697
651.2766	6681
653.7266	6681
656.176	6776
658.6247	6690
661.0748	6648
663.5242	6786
665.9709	6769
668.417	6843
670.8624	6816
673.3092	6760
675.7533	6740
678.1968	6762
680.6395	6785
683.0817	6859
685.5251	6822
687.9659	6908
690.4061	6854
692.8456	6877
695.2844	6854
697.7226	6937
700.1621	6994
702.599	6824
705.0332	6784
707.4688	6980
709.9036	7032
712.3399	7026
714.7735	6930
717.2044	7022
719.6367	6983
722.0683	7093
724.4993	6953
726.9296	7011
729.3593	7116
731.7883	7032
734.2147	7128
736.6423	7050
739.0714	7260
741.4958	7117
743.9216	7196
746.3447	7054
748.7691	7200
751.1929	7242
753.616	7184
756.0366	7289
758.4584	7421
760.8776	7214
763.2982	7359
765.718	7353
768.1373	7296
770.5539	7428
772.9698	7348
775.3871	7440
777.8038	7431
780.2178	7406
782.6332	7483
785.0459	7301
787.458	7436
789.8714	7320
792.2842	7447
794.6943	7362
797.1038	7421
799.5127	7349
801.9209	7436
804.3324	7570
806.7393	7423
809.1456	7524
811.5513	7477
813.9562	7425
816.3625	7446
818.7663	7481
821.1693	7503
823.5718	7568
825.9735	7538
828.3746	7479
830.7771	7527
833.177	7478
835.5762	7434
837.9747	7504
840.3727	7627
842.772	7537
845.1666	7615
847.5626	7560
849.958	7741
852.3527	7755
854.7488	7815
857.1403	7755
859.5331	7748
861.9253	7705
864.3168	7662
866.7057	7719
869.098	7725
871.4876	7680
873.8746	7717
876.263	7628
878.6487	7651
881.0378	7571
883.4243	7611
885.8081	7513
888.1933	7552
890.5759	7670
892.9598	7631
895.343	7560
897.7256	7604
900.1057	7593
902.4871	7636
904.8659	7654
907.246	7665
909.6254	7784
912.0023	7698
914.3786	7884
916.7562	7969
919.1331	7948
921.5074	8129
923.8831	8057
926.2562	8130
928.6287	8184
931.0005	8197
933.3757	8163
935.7462	8199
938.1162	8181
940.4855	8084
942.8542	8420
945.2242	8203
947.5916	8208
949.9584	8385
952.3266	8377
954.6921	8744
957.0571	8901
959.4233	9232
961.787	9193
964.15	9295
966.5125	9062
968.8742	8758
971.2354	8623
973.5959	8379
975.9559	8282
978.3151	8341
980.6738	8144
983.0338	7987
985.3912	8058
987.7461	8011
990.1022	7843
992.4578	7866
994.8127	7724
997.1689	7980
999.5207	7910
1001.874	7934
1004.226	8010
1006.576	7725
1008.929	8047
1011.28	7905
1013.628	7832
1015.977	7904
1018.324	7972
1020.674	7954
1023.019	8033
1025.366	7949
1027.713	7999
1030.056	7910
1032.399	8002
1034.746	7944
1037.087	8047
1039.431	7993
1041.771	8032
1044.113	7986
1046.454	8052
1048.793	8027
1051.133	8096
1053.471	8085
1055.807	7981
1058.146	8015
1060.483	8106
1062.818	8041
1065.153	8199
1067.489	8003
1069.822	8080
1072.156	8166
1074.488	8073
1076.82	8238
1079.15	8157
1081.48	8189
1083.814	8029
1086.143	8201
1088.471	8079
1090.799	8064
1093.126	8125
1095.452	8287
1097.78	8024
1100.105	8150
1102.43	8105
1104.754	8107
1107.077	8109
1109.4	8160
1111.722	8049
1114.044	8178
1116.365	8143
1118.685	8200
1121.005	8239
1123.324	8150
1125.643	8212
1127.961	8192
1130.278	8169
1132.595	8132
1134.911	8167
1137.226	8117
1139.541	8015
1141.854	8084
1144.167	8126
1146.482	8078
1148.793	8169
1151.105	8225
1153.414	8052
1155.725	8103
1158.033	8100
1160.344	8068
1162.651	8259
1164.959	8145
1167.265	8132
1169.572	8179
1171.878	8119
1174.184	8206
1176.488	8225
1178.79	8246
1181.094	8287
1183.396	8274
1185.699	8323
1188.001	8269
1190.301	8121
1192.6	8043
1194.9	8147
1197.2	8126
1199.497	8276
1201.794	8185
1204.09	8124
1206.387	8202
1208.684	8161
1210.978	8204
1213.272	8282
1215.565	8056
1217.858	8225
1220.15	8213
1222.443	8238
1224.734	8186
1227.024	8225
1229.313	8264
1231.602	8276
1233.892	8300
1236.18	8399
1238.467	8323
1240.754	8366
1243.04	8355
1245.325	8522
1247.612	8552
1249.896	8529
1252.178	8496
1254.461	8508
1256.743	8462
1259.027	8609
1261.308	8453
1263.587	8424
1265.867	8604
1268.146	8565
1270.425	8655
1272.703	8556
1274.981	8651
1277.256	8573
1279.532	8371
1281.808	8524
1284.083	8461
1286.358	8476
1288.63	8459
1290.904	8386
1293.175	8344
1295.449	8381
1297.719	8463
1299.99	8376
1302.259	8420
1304.529	8477
1306.798	8368
1309.065	8409
1311.333	8412
1313.599	8369
1315.866	8373
1318.131	8445
1320.396	8462
1322.66	8363
1324.925	8373
1327.187	8368
1329.448	8428
1331.711	8559
1333.974	8466
1336.234	8485
1338.493	8490
1340.752	8445
1343.01	8410
1345.269	8352
1347.526	8339
1349.784	8370
1352.04	8297
1354.295	8341
1356.552	8410
1358.806	8473
1361.059	8279
1363.312	8369
1365.564	8436
1367.818	8413
1370.069	8508
1372.318	8463
1374.568	8446
1376.817	8588
1379.066	8549
1381.316	8545
1383.564	8460
1385.809	8467
1388.056	8492
1390.301	8497
1392.549	8602
1394.793	8730
1397.036	8722
1399.279	8760
1401.522	8709
1403.763	8819
1406.007	8863
1408.248	8753
1410.487	8726
1412.727	8873
1414.965	8840
1417.205	8820
1419.442	8776
1421.68	8721
1423.915	8809
1426.152	8699
1428.388	8774
1430.623	8663
1432.857	8802
1435.091	8839
1437.323	8722
1439.556	8776
1441.789	8769
1444.019	8890
1446.25	8892
1448.48	8865
1450.708	8777
1452.938	8861
1455.167	8864
1457.394	8866
1459.62	8832
1461.846	8748
1464.073	8781
1466.299	8785
1468.523	8794
1470.746	8789
1472.969	8667
1475.191	8528
1477.415	8583
1479.636	8647
1481.858	8476
1484.078	8583
1486.298	8385
1488.518	8513
1490.736	8416
1492.954	8497
1495.169	8422
1497.386	8390
1499.602	8471
1501.819	8478
1504.034	8390
1506.248	8392
1508.462	8372
1510.675	8227
1512.888	8348
1515.1	8441
1517.311	8385
1519.522	8403
1521.732	8331
1523.942	8510
1526.151	8311
1528.36	8385
1530.566	8314
1532.773	8508
1534.98	8291
1537.187	8439
1539.392	8385
1541.596	8460
1543.801	8327
1546.005	8479
1548.208	8480
1550.411	8492
1552.612	8467
1554.814	8408
1557.013	8505
1559.212	8532
1561.414	8703
1563.612	8405
1565.811	8589
1568.007	8741
1570.203	8657
1572.403	8369
1574.598	8645
1576.792	8552
1578.988	8490
1581.181	8707
1583.376	8467
1585.568	8591
1587.761	8644
1589.952	8719
1592.143	8687
1594.333	8723
1596.524	8851
1598.715	8688
1600.903	8673
1603.091	8762
1605.278	8772
1607.466	8754
1609.652	8778
1611.838	8628
1614.023	8756
1616.207	8760
1618.391	8680
1620.576	8692
1622.759	8744
1624.941	8797
1627.123	8700
1629.304	8837
1631.484	8729
1633.664	8815
1635.844	8821
1638.022	8772
1640.201	8844
1642.38	8818
1644.556	8801
1646.732	8770
1648.908	8813
1651.084	8809
1653.257	8734
1655.433	8819
1657.607	8950
1659.779	8889
1661.951	8736
1664.122	8874
1666.295	8877
1668.467	8990
1670.635	8874
1672.805	8991
1674.973	8824
1677.142	8822
1679.31	8854
1681.478	8904
1683.644	8838
1685.81	8873
1687.975	8746
1690.142	8887
1692.305	8768
1694.468	8811
1696.632	8885
1698.794	8827
1700.957	8699
1703.119	8737
1705.279	8660
1707.439	8721
1709.598	8753
1711.758	8610
1713.917	8742
1716.075	8648
1718.231	8748
1720.388	8731
1722.543	8726
1724.702	8690
1726.856	8499
1729.01	8625
1731.164	8718
1733.317	8590
1735.471	8696
1737.623	8616
1739.774	8660
1741.925	8598
1744.075	8697
1746.225	8741
1748.376	8636
1750.524	8763
1752.672	8674
1754.82	8721
1756.965	8641
1759.113	8623
1761.259	8730
1763.405	8702
1765.549	8697
1767.694	8750
1769.836	8696
1771.981	8635
1774.123	8767
1776.264	8664
1778.405	8860
1780.546	8842
1782.687	8660
1784.827	8689
1786.966	8669
1789.103	8658
1791.242	8674
1793.381	8835
1795.517	8820
1797.653	8737
1799.788	8847
1801.923	8709
1804.057	8839
1806.193	8689
1808.326	8708
1810.457	8742
1812.59	8690
1814.721	8831
1816.855	8773
1818.984	8781
1821.113	8640
1823.244	8630
1825.372	8656
1827.499	8636
1829.63	8565
1831.756	8673
1833.882	8817
1836.007	8632
1838.132	8705
1840.26	8803
1842.384	8657
1844.507	8721
1846.63	8748
1848.752	8666
1850.875	8596
1852.996	8632
1855.118	8604
1857.238	8701
1859.358	8617
1861.477	8553
1863.597	8791
1865.715	8514
1867.832	8742
1869.948	8615
1872.064	8643
1874.181	8627
1876.297	8614
1878.411	8593
1880.526	8671
1882.639	8607
1884.752	8638
1886.865	8561
1888.977	8668
1891.089	8590
1893.2	8692
1895.308	8648
1897.42	8723
1899.53	8745
1901.639	8759
1903.745	8684
1905.853	8721
1907.962	8745
1910.067	8706
1912.174	8836
1914.278	8763
1916.383	8857
1918.486	8720
1920.592	8731
1922.694	8656
1924.797	8660
1926.898	8606
1929	8983
1931.102	8768
1933.203	8789
1935.301	8874
1937.401	8666
1939.499	8751
1941.598	8813
1943.697	8808
1945.793	8782
1947.888	8750
1949.985	8798
1952.08	8737
1954.176	8706
1956.269	8757
1958.364	8877
1960.457	8747
1962.549	8871
1964.642	8761
1966.733	8741
1968.823	8814
1970.913	8779
1973.005	8899
1975.093	8701
1977.184	8673
1979.271	8680
1981.359	8642
1983.446	8708
1985.532	8602
1987.619	8647
1989.705	8749
1991.789	8735
1993.874	8657
1995.956	8661
1998.041	8621
2000.123	8647
2002.206	8727
2004.287	8631
2006.368	8486
2008.449	8690
2010.529	8590
2012.609	8743
2014.688	8711
2016.766	8546
2018.843	8655
2020.922	8587
2022.999	8640
2025.074	8664
2027.15	8590
2029.225	8618
2031.299	8789
2033.375	8705
2035.447	8598
2037.52	8689
2039.592	8576
2041.664	8668
2043.736	8619
2045.807	8701
2047.876	8673
2049.947	8758
2052.015	8583
2054.086	8702
2056.153	8476
2058.221	8762
2060.288	8665
2062.353	8584
2064.42	8620
2066.486	8716
2068.55	8674
2070.614	8546
2072.678	8674
2074.741	8591
2076.805	8592
2078.866	8721
2080.929	8584
2082.99	8575
2085.049	8720
2087.109	8690
2089.17	8685
2091.228	8726
2093.286	8639
2095.344	8647
2097.4	8839
2099.46	8730
2101.516	8721
2103.572	8699
2105.626	8720
2107.679	8540
2109.735	8672
2111.788	8670
2113.841	8558
2115.894	8644
2117.945	8698
2119.997	8647
2122.049	8817
2124.1	8657
2126.148	8509
2128.197	8668
2130.246	8634
2132.296	8570
2134.342	8675
2136.39	8630
2138.437	8600
2140.483	8579
2142.527	8523
2144.574	8484
2146.619	8612
2148.661	8679
2150.705	8517
2152.747	8692
2154.792	8485
2156.832	8672
2158.874	8496
2160.915	8500
2162.954	8503
2164.995	8514
2167.034	8580
2169.072	8525
2171.111	8496
2173.148	8497
2175.186	8659
2177.223	8531
2179.258	8516
2181.294	8484
2183.328	8488
2185.362	8607
2187.398	8339
2189.431	8411
2191.463	8524
2193.495	8620
2195.528	8347
2197.56	8494
2199.59	8396
2201.62	8414
2203.649	8409
2205.678	8385
2207.708	8337
2209.737	8403
2211.764	8454
2213.791	8375
2215.817	8395
2217.843	8373
2219.87	8452
2221.895	8342
2223.919	8306
2225.942	8395
2227.966	8464
2229.988	8415
2232.012	8325
2234.032	8356
2236.054	8368
2238.074	8163
2240.095	8297
2242.116	8338
2244.135	8422
2246.153	8366
2248.171	8219
2250.188	8381
2252.208	8399
2254.223	8433
2256.239	8326
2258.255	8346
2260.269	8176
2262.283	8408
2264.3	8410
2266.312	8365
2268.325	8248
2270.336	8256
2272.349	8254
2274.362	8468
2276.372	8362
2278.383	8296
2280.392	8245
2282.402	8357
2284.409	8331
2286.418	8355
2288.427	8371
2290.433	8364
2292.441	8342
2294.446	8346
2296.453	8372
2298.459	8382
2300.463	8356
2302.466	8457
2304.471	8266
2306.475	8319
2308.477	8333
2310.478	8097
2312.481	8294
2314.481	8193
2316.481	8291
2318.482	8237
2320.482	8190
2322.48	8335
2324.48	8221
2326.478	8231
2328.476	8327
2330.473	8272
2332.469	8194
2334.465	8179
2336.46	8243
2338.454	8162
2340.45	8133
2342.444	8244
2344.437	8103
2346.43	8129
2348.421	8052
2350.414	8168
2352.405	8122
2354.396	8094
2356.386	8229
2358.376	8146
2360.366	8107
2362.355	8049
2364.343	8142
2366.331	8075
2368.317	8146
2370.304	8067
2372.292	8147
2374.278	7937
2376.262	8108
2378.247	8146
2380.23	8129
2382.216	8147
2384.199	8088
2386.181	7972
2388.163	8022
2390.144	7970
2392.127	7974
2394.107	7993
2396.087	8048
2398.066	8127
2400.046	8147
2402.023	7974
2404.004	8008
2405.981	8026
2407.957	8038
2409.934	8072
2411.91	7906
2413.886	8045
2415.862	7978
2417.836	7912
2419.809	8027
2421.784	7978
2423.756	7876
2425.73	7948
2427.701	7872
2429.672	7996
2431.644	7928
2433.615	7927
2435.586	7969
2437.555	8202
2439.523	8029
2441.491	7994
2443.459	8089
2445.428	7899
2447.395	7882
2449.361	7949
2451.327	7874
2453.292	7887
2455.257	8050
2457.223	7880
2459.187	7894
2461.15	7914
2463.113	7807
2465.076	7978
2467.039	7863
2468.999	7963
2470.96	7853
2472.921	7835
2474.881	7918
2476.841	7887
2478.8	7846
2480.759	7864
2482.717	7846
2484.675	7893
2486.63	7992
2488.589	7763
2490.545	7792
2492.5	7715
2494.455	7880
2496.408	7787
2498.364	7881
2500.318	7800
2502.27	7868
2504.223	7795
2506.174	7940
2508.126	7877
2510.078	7640
2512.03	7953
2513.979	7780
2515.927	7699
2517.877	7763
2519.826	7804
2521.775	7855
2523.722	7864
2525.668	7783
2527.616	7701
2529.561	7780
2531.508	7748
2533.452	7910
2535.398	7702
2537.342	7782
2539.284	7662
2541.229	7986
2543.173	7777
2545.114	7730
2547.055	7841
2548.996	7776
2550.938	7687
2552.878	7586
2554.817	7695
2556.756	7670
2558.695	7674
2560.633	7797
2562.572	7673
2564.509	7733
2566.445	7706
2568.382	7746
2570.317	7748
2572.254	7719
2574.189	7639
2576.123	7771
2578.057	7679
2579.99	7626
2581.923	7774
2583.855	7709
2585.788	7749
2587.719	7796
2589.65	7665
2591.579	7794
2593.511	7790
2595.44	7794
2597.37	7757
2599.297	7950
2601.225	7670
2603.153	7611
2605.08	7759
2607.007	7944
2608.932	7792
2610.858	7691
2612.782	7755
2614.709	7834
2616.632	7661
2618.556	7688
2620.478	7852
2622.401	7695
2624.324	7789
2626.247	7763
2628.167	7811
2630.088	7697
2632.008	7764
2633.928	7830
2635.848	7614
2637.766	7916
2639.684	7762
2641.603	7758
2643.519	7781
2645.437	7731
2647.353	7729
2649.27	7809
2651.184	7823
2653.099	7803
2655.014	7614
2656.928	7857
2658.842	7755
2660.755	7598
2662.667	7712
2664.579	7940
2666.491	7806
2668.402	7747
2670.312	7673
2672.222	7570
2674.132	7719
2676.042	7796
2677.951	7701
2679.859	7647
2681.766	7686
2683.674	7589
2685.582	7725
2687.488	7572
2689.392	7664
2691.298	7465
2693.202	7699
2695.107	7510
2697.012	7688
2698.914	7748
2700.817	7638
2702.72	7695
2704.622	7558
2706.524	7645
2708.425	7548
2710.326	7560
2712.225	7581
2714.125	7589
2716.024	7520
2717.923	7508
2719.822	7500
2721.719	7502
2723.616	7505
2725.512	7608
2727.41	7591
2729.305	7638
2731.201	7453
2733.095	7548
2734.99	7533
2736.884	7514
2738.778	7550
2740.67	7509
2742.562	7567
2744.455	7636
2746.346	7497
2748.238	7526
2750.129	7439
2752.018	7523
2753.907	7446
2755.797	7422
2757.687	7476
2759.575	7575
2761.462	7550
2763.349	7460
2765.237	7423
2767.124	7439
2769.009	7461
2770.894	7473
2772.779	7405
2774.663	7360
2776.547	7488
2778.431	7454
2780.314	7539
2782.197	7405
2784.078	7378
2785.96	7361
2787.842	7408
2789.723	7520
2791.603	7414
2793.483	7474
2795.362	7406
2797.241	7434
2799.121	7389
2800.997	7415
2802.874	7380
2804.751	7372
2806.628	7410
2808.506	7457
2810.38	7210
2812.255	7461
2814.13	7510
2816.003	7384
2817.878	7341
2819.752	7273
2821.623	7469
2823.496	7258
2825.368	7353
2827.238	7446
2829.111	7395
2830.98	7391
2832.851	7384
2834.719	7476
2836.589	7316
2838.458	7355
2840.327	7389
2842.193	7356
2844.061	7276
2845.927	7450
2847.794	7457
2849.66	7408
2851.525	7460
2853.39	7481
2855.254	7433
2857.117	7573
2858.983	7320
2860.845	7523
2862.707	7419
2864.569	7638
2866.431	7567
2868.293	7587
2870.154	7837
2872.013	7821
2873.873	7727
2875.733	7839
2877.592	7886
2879.451	7902
2881.309	8082
2883.166	7933
2885.022	8018
2886.879	8045
2888.736	8057
2890.591	8157
2892.446	8182
2894.301	8195
2896.155	8181
2898.009	7974
2899.863	8206
2901.716	7947
2903.568	8311
2905.419	8054
2907.27	8093
2909.123	8026
2910.973	8072
2912.824	8158
2914.673	8132
2916.521	8255
2918.372	8336
2920.22	8397
2922.067	8331
2923.914	8334
2925.761	8431
2927.607	8446
2929.455	8470
2931.301	8543
2933.144	8642
2934.99	8545
2936.833	8785
2938.678	8577
2940.522	8819
2942.364	8972
2944.207	8946
2946.048	9110
2947.891	9111
2949.731	9209
2951.571	9110
2953.412	9156
2955.25	9006
2957.09	9024
2958.93	9078
2960.767	8930
2962.606	8796
2964.443	8773
2966.279	8743
2968.116	8550
2969.953	8389
2971.788	8342
2973.623	8285
2975.457	8182
2977.292	8127
2979.127	8101
2980.959	7957
2982.792	8014
2984.624	7951
2986.455	7997
2988.288	7912
2990.119	7803
2991.949	7709
2993.779	7719
2995.608	7750
2997.439	7738
2999.268	7585
3001.096	7551
3002.923	7503
3004.751	7580
3006.578	7498
3008.406	7339
3010.232	7379
3012.057	7315
3013.883	7237
3015.706	7176
3017.532	7231
3019.356	7128
3021.179	7113
3023.002	7204
3024.823	7085
3026.646	7047
3028.469	7012
3030.289	6993
3032.11	7017
3033.93	7046
3035.749	6996
3037.57	6970
3039.39	6886
3041.207	6894
3043.026	7059
3044.842	7056
3046.661	6995
3048.477	7117
3050.294	6988
3052.109	6936
3053.925	6946
3055.739	6945
3057.555	6914
3059.368	6935
3061.181	6956
3062.995	6965
3064.807	6849
3066.62	6928
3068.433	7073
3070.243	6863
3072.054	6796
3073.865	6808
3075.675	6879
3077.485	6753
3079.293	6833
3081.102	6741
3082.911	6813
3084.719	6815
3086.527	6725
3088.333	6871
3090.139	6775
3091.945	6768
3093.75	6807
3095.557	6732
3097.361	6761
3099.165	6600
3100.969	6873
3102.772	6642
3104.575	6704
3106.379	6627
3108.181	6675
3109.982	6679
3111.783	6729
3113.584	6598
3115.386	6664
3117.186	6724
3118.985	6625
3120.783	6698
3122.582	6534
3124.381	6624
3126.179	6654
3127.975	6682
3129.772	6700
3131.569	6654
3133.365	6449
3135.161	6601
3136.956	6590
3138.751	6565
3140.544	6597
3142.338	6561
3144.132	6541
3145.925	6535
3147.717	6485
3149.509	6623
3151.301	6399
3153.091	6371
3154.884	6487
3156.673	6563
3158.462	6487
3160.252	6485
3162.041	6512
3163.831	6459
3165.618	6517
3167.405	6525
3169.193	6530
3170.979	6435
3172.767	6424
3174.553	6508
3176.338	6498
3178.123	6440
3179.907	6392
3181.692	6487
3183.477	6481
3185.259	6368
3187.042	6380
3188.824	6342
3190.607	6364
3192.389	6389
3194.17	6538
3195.951	6401
3197.73	6360
3199.51	6462
3201.289	6438
3203.07	6399
3204.848	6395
3206.626	6335
3208.403	6367
3210.18	6451
3211.959	6257
3213.735	6521
3215.511	6312
3217.285	6324
3219.06	6315
3220.836	6393
3222.611	6341
3224.384	6385
3226.158	6505
3227.929	6370
3229.702	6322
3231.476	6421
3233.248	6380
3235.018	6316
3236.789	6219
3238.56	6324
3240.33	6418
3242.1	6376
3243.869	6322
3245.637	6314
3247.405	6240
3249.172	6375
3250.941	6401
3252.707	6321
3254.474	6458
3256.24	6398
3258.006	6279
3259.772	6417
3261.537	6412
3263.301	6394
3265.065	6313
3266.828	6309
3268.592	6231
3270.355	6271
3272.117	6324
3273.878	6339
3275.64	6283
3277.401	6396
3279.162	6334
3280.922	6228
3282.682	6428
3284.441	6334
3286.199	6353
3287.959	6369
3289.716	6223
3291.475	6295
3293.232	6311
3294.988	6327
3296.744	6373
3298.501	6267
3300.256	6242
3302.011	6363
3303.766	6291
3305.52	6329
3307.275	6286
3309.028	6111
3310.781	6337
3312.533	6279
3314.285	6232
3316.038	6267
3317.789	6214
3319.54	6347
3321.289	6107
3323.039	6262
3324.789	6287
3326.539	6185
3328.288	6098
3330.035	6386
3331.783	6199
3333.531	6272
3335.28	6062
3337.025	6097
3338.771	6149
3340.518	6056
3342.262	6089
3344.009	6237
3345.753	6289
3347.497	6143
3349.24	6158
3350.983	6070
3352.726	6099
3354.469	6053
3356.212	6107
3357.952	6216
3359.694	6090
3361.434	6191
3363.176	6093
3364.916	6089
3366.654	6050
3368.394	6128
3370.132	6068
3371.871	6055
3373.61	6081
3375.346	5989
3377.083	5954
3378.82	6037
3380.556	6116
3382.292	6007
3384.027	6017
3385.763	5953
3387.497	5936
3389.231	5903
3390.965	5978
3392.698	6086
3394.431	5984
3396.164	5972
3397.896	6012
3399.627	6002
3401.36	5973
3403.09	5891
3404.82	5980
3406.55	5986
3408.279	6012
3410.01	5950
3411.738	5937
3413.467	5956
3415.194	5940
3416.92	5842
3418.647	5947
3420.375	5959
3422.102	5971
3423.827	5895
3425.553	5913
3427.277	5928
3429.003	5927
3430.727	5882
3432.451	5881
3434.173	5869
3435.896	5825
3437.62	5873
3439.343	5797
3441.063	5920
3442.785	5787
3444.505	5814
3446.226	5901
3447.948	5965
3449.666	5873
3451.386	5752
3453.104	5732
3454.823	5784
3456.541	5688
3458.259	5740
3459.976	5767
3461.693	5619
3463.408	5723
3465.125	5694
3466.841	5729
3468.556	5675
3470.271	5656
3471.985	5721
3473.698	5537
3475.414	5684
3477.126	5648
3478.838	5657
3480.55	5582
3482.263	5630
3483.975	5649
3485.686	5632
3487.396	5647
3489.106	5668
3490.817	5573
3492.526	5595
3494.236	5511
3495.944	5561
3497.652	5584
3499.359	5691
3501.066	5459
3502.775	5488
3504.481	5473
3506.187	5558
3507.893	5528
3509.598	5434
3511.304	5481
3513.009	5445
3514.713	5559
3516.417	5500
3518.12	5469
3519.821	5539
3521.525	5394
3523.228	5539
3524.929	5430
3526.631	5455
3528.33	5387
3530.032	5355
3531.733	5476
3533.433	5433
3535.131	5413
3536.83	5317
3538.529	5570
3540.227	5373
3541.925	5390
3543.623	5404
3545.319	5361
3547.016	5307
3548.712	5345
3550.408	5330
3552.103	5242
3553.798	5325
3555.491	5289
3557.188	5297
3558.88	5373
3560.574	5257
3562.266	5262
3563.959	5251
3565.651	5199
3567.343	5199
3569.035	5329
3570.725	5294
3572.415	5204
3574.106	5259
3575.797	5222
3577.485	5305
3579.174	5223
3580.863	5220
3582.551	5239
3584.238	5204
3585.926	5170
3587.613	5199
3589.3	5187
3590.986	5168
3592.671	5156
3594.357	5180
3596.042	5209
3597.726	5147
3599.41	5188
3601.094	5018
3602.778	5130
3604.461	5124
3606.143	5156
3607.825	5088
3609.507	5053
3611.188	5061
3612.87	5046
3614.551	5028
3616.229	5091
3617.909	5071
3619.589	5161
3621.269	5045
3622.948	4997
3624.625	5006
3626.302	4993
3627.98	4947
3629.657	4992
3631.334	5078
3633.01	5017
3634.686	4936
3636.361	4921
3638.036	4924
3639.712	4933
3641.385	4959
3643.06	5014
3644.732	5021
3646.405	4917
3648.08	4997
3649.751	4944
3651.424	4866
3653.094	4925
3654.766	4975
3656.436	4915
3658.106	4924
3659.777	4831
3661.446	4955
3663.115	4851
3664.783	4875
3666.452	4825
3668.121	4807
3669.788	4859
3671.454	4873
3673.121	4771
3674.789	4833
3676.455	4820
3678.12	4857
3679.784	4841
3681.45	4851
3683.114	4731
3684.779	4844
3686.442	4860
3688.105	4743
3689.768	4883
3691.43	4754
3693.093	4710
3694.754	4834
3696.415	4683
3698.076	4782
3699.736	4760
3701.396	4755
3703.057	4801
3704.716	4656
3706.375	4761
3708.034	4688
3709.692	4769
3711.351	4671
3713.008	4741
3714.665	4707
3716.321	4730
3717.977	4732
3719.634	4573
3721.29	4651
3722.945	4736
3724.598	4585
3726.253	4647
3727.907	4709
3729.561	4615
3731.214	4671
3732.867	4659
3734.518	4610
3736.171	4624
3737.824	4649
3739.474	4629
3741.125	4609
3742.775	4624
3744.425	4746
3746.074	4605
3747.725	4590
3749.373	4610
3751.022	4663
3752.669	4617
3754.318	4587
3755.966	4561
3757.612	4645
3759.259	4659
3760.905	4671
3762.55	4666
3764.197	4602
3765.842	4553
3767.486	4590
3769.131	4532
3770.774	4627
3772.417	4589
3774.061	4563
3775.705	4511
3777.347	4538
3778.988	4523
3780.629	4521
3782.271	4498
3783.912	4477
3785.552	4471
3787.192	4616
3788.831	4567
3790.472	4506
3792.112	4495
3793.75	4542
3795.388	4451
3797.024	4496
3798.661	4439
3800.3	4532
3801.936	4459
3803.572	4487
3805.208	4507
3806.844	4499
3808.48	4496
3810.115	4525
3811.748	4438
3813.382	4463
3815.016	4497
3816.649	4424
3818.283	4436
3819.914	4388
3821.547	4362
3823.178	4477
3824.809	4419
3826.441	4461
3828.072	4277
3829.701	4307
3831.331	4348
3832.96	4435
3834.591	4459
3836.219	4348
3837.847	4386
3839.475	4371
3841.102	4378
3842.729	4332
3844.357	4379
3845.984	4298
3847.609	4351
3849.234	4323
3850.86	4317
3852.485	4330
3854.11	4350
3855.734	4314
3857.357	4332
3858.981	4289
3860.603	4412
3862.227	4307
3863.848	4300
3865.471	4319
3867.092	4308
3868.713	4224
3870.334	4173
3871.954	4314
3873.575	4267
3875.194	4309
3876.813	4328
3878.433	4246
3880.051	4212
3881.669	4205
3883.286	4280
3884.904	4212
3886.52	4190
3888.138	4257
3889.754	4263
3891.37	4236
3892.985	4278
3894.6	4153
3896.216	4142
3897.831	4191
3899.444	4241
3901.058	4254
3902.67	4163
3904.283	4147
3905.897	4236
3907.509	4213
3909.121	4274
3910.731	4237
3912.342	4223
3913.954	4229
3915.563	4223
3917.174	4180
3918.783	4122
3920.391	4235
3922.002	4209
3923.611	4125
3925.218	4228
3926.826	4146
3928.432	4203
3930.039	4127
3931.647	4102
3933.253	4161
3934.859	4199
3936.464	4132
3938.068	4153
3939.675	4174
3941.278	4172
3942.883	4090
3944.486	4159
3946.089	4062
3947.692	4165
3949.295	4145
3950.898	4096
3952.499	4087
3954.1	4118
3955.7	4091
3957.303	4108
3958.903	4095
3960.502	4088
3962.101	4179
3963.7	4168
3965.301	4019
3966.899	4116
3968.497	4091
3970.094	4115
3971.691	4011
3973.288	4048
3974.885	3958
3976.481	3986
3978.077	4037
3979.672	4054
3981.267	3955
3982.863	3968
3984.457	4067
3986.051	3922
3987.645	4057
3989.238	4006
3990.831	4046
3992.425	3943
3994.017	4007
3995.607	3950
3997.199	3906
3998.79	3887
4000.382	3962
4001.973	3933
4003.561	3848
4005.151	4003
4006.741	3907
4008.331	3941
4009.918	3943
4011.507	3864
4013.095	3983
4014.681	3792
4016.269	3929
4017.856	3882
4019.443	3822
4021.028	3813
4022.614	3883
4024.199	3898
4025.785	3852
4027.37	3884
4028.953	3828
4030.536	3786
4032.12	3802
4033.704	3851
4035.287	3814
4036.869	3870
4038.45	3859
4040.032	3876
4041.613	3809
4043.195	3792
4044.776	3792
4046.356	3743
4047.935	3869
4049.515	3840
4051.095	3756
4052.674	3696
4054.251	3786
4055.829	3805
4057.406	3776
4058.985	3797
4060.562	3785
4062.139	3781
4063.715	3734
4065.29	3734
4066.865	3717
4068.442	3746
4070.016	3697
4071.59	3767
4073.164	3769
4074.738	3707
4076.312	3731
4077.885	3698
4079.458	3810
4081.03	3634
4082.602	3779
4084.173	3675
4085.745	3742
4087.315	3699
4088.886	3660
4090.456	3698
4092.026	3660
4093.596	3733
4095.165	3672
4096.734	3672
4098.301	3682
4099.869	3682
4101.437	3661
4103.006	3651
4104.572	3713
4106.139	3675
4107.704	3690
4109.27	3668
4110.837	3666
4112.401	3629
4113.966	3651
4115.53	3668
4117.094	3641
4118.659	3611
4120.223	3616
4121.785	3576
4123.347	3610
4124.909	3642
4126.471	3552
4128.034	3697
4129.595	3556
4131.155	3599
4132.716	3643
4134.275	3539
4135.836	3643
4137.395	3596
4138.955	3569
4140.513	3548
4142.071	3555
4143.628	3577
4145.188	3565
4146.745	3397
4148.302	3597
4149.858	3539
4151.414	3495
4152.971	3500
4154.526	3541
4156.081	3537
4157.635	3516
4159.189	3576
4160.745	3491
4162.298	3526
4163.852	3511
4165.405	3470
4166.957	3500
4168.51	3464
4170.063	3550
4171.614	3488
4173.166	3419
4174.717	3556
4176.267	3420
4177.817	3467
4179.368	3462
4180.917	3541
4182.466	3351
4184.016	3409
4185.564	3434
4187.112	3358
4188.66	3371
4190.207	3403
4191.754	3401
4193.301	3285
4194.848	3394
4196.394	3367
4197.94	3443
4199.484	3305
4201.03	3410
4202.575	3431
4204.12	3333
4205.663	3343
4207.207	3375
4208.75	3396
4210.292	3338
4211.836	3422
4213.378	3401
4214.92	3429
4216.46	3333
4218.002	3366
4219.544	3278
4221.083	3378
4222.625	3387
4224.164	3390
4225.703	3403
4227.244	3354
4228.782	3293
4230.32	3352
4231.857	3297
4233.395	3268
4234.933	3237
4236.471	3274
4238.007	3308
4239.542	3330
4241.078	3301
4242.614	3370
4244.15	3274
4245.685	3297
4247.219	3286
4248.753	3271
4250.287	3297
4251.82	3270
4253.354	3252
4254.887	3288
4256.419	3267
4257.951	3316
4259.483	3210
4261.016	3237
4262.547	3226
4264.078	3262
4265.608	3296
4267.137	3238
4268.668	3232
4270.197	3232
4271.727	3194
4273.254	3324
4274.783	3274
4276.311	3215
4277.84	3224
4279.366	3242
4280.894	3214
4282.42	3213
4283.946	3234
4285.473	3217
4286.998	3286
4288.523	3212
4290.047	3197
4291.572	3192
4293.096	3247
4294.622	3158
4296.144	3140
4297.668	3195
4299.19	3226
4300.713	3238
4302.236	3158
4303.758	3172
4305.279	3162
4306.799	3211
4308.321	3143
4309.842	3142
4311.361	3108
4312.882	3150
4314.401	3079
