400.0961	5460
402.6185	5465
405.1424	5451
407.6635	5371
410.1838	5523
412.7035	5578
415.2225	5508
417.7388	5572
420.2585	5533
422.7754	5606
425.2917	5686
427.8072	5650
430.3221	5770
432.8363	5863
435.3498	5858
437.8626	5883
440.3727	5804
442.8841	5876
445.3969	5909
447.907	5860
450.4142	5853
452.9229	5876
455.4289	5889
457.9362	5904
460.4449	5835
462.9488	5778
465.454	5852
467.9566	5727
470.4604	5841
472.9637	5792
475.4662	5876
477.966	5949
480.4671	5988
482.9656	5822
485.4633	5863
487.9645	5899
490.4608	5856
492.9566	5940
495.4536	5932
497.948	5928
500.4437	5975
502.9387	5950
505.431	5945
507.9226	5961
510.4136	5967
512.9079	6091
515.3975	6031
517.8864	5988
520.3746	5988
522.8622	6000
525.3491	5997
527.8394	6071
530.3249	6038
532.8098	6047
535.2939	6055
537.7774	6125
540.2623	6040
542.7444	6010
545.2259	6085
547.7067	6107
550.1868	6077
552.6683	6186
555.147	6032
557.6231	6159
560.1005	6157
562.5773	6143
565.0534	6164
567.5308	6086
570.0056	6209
572.4776	6160
574.951	6195
577.4237	6433
579.8978	6319
582.3671	6416
584.8378	6336
587.3079	6339
589.7773	6205
592.244	6353
594.714	6283
597.1793	6410
599.6461	6340
602.1121	6313
604.5754	6345
607.0421	6247
609.5042	6301
611.9675	6299
614.4282	6348
616.8902	6461
619.3515	6250
621.8122	6332
624.2702	6326
626.7296	6338
629.1863	6258
631.6423	6358
634.1017	6262
636.5563	6316
639.0104	6223
641.4658	6262
643.9185	6208
646.3725	6316
648.8239	6351
651.2766	6373
653.7266	6458
656.176	6382
658.6247	6466
661.0748	6326
663.5242	6443
665.9709	6372
668.417	6423
670.8624	6274
673.3092	6494
675.7533	6442
678.1968	6539
680.6395	6443
683.0817	6448
685.5251	6467
687.9659	6542
690.4061	6452
692.8456	6535
695.2844	6591
697.7226	6526
700.1621	6542
702.599	6620
705.0332	6614
707.4688	6515
709.9036	6502
712.3399	6827
714.7735	6683
717.2044	6623
719.6367	6707
722.0683	6732
724.4993	6662
726.9296	6776
729.3593	6740
731.7883	6755
734.2147	6782
736.6423	6821
739.0714	6752
741.4958	6792
743.9216	6916
746.3447	6726
748.7691	6923
751.1929	6918
753.616	6793
756.0366	6999
758.4584	6860
760.8776	6965
763.2982	7128
765.718	6998
768.1373	7128
770.5539	7094
772.9698	7007
775.3871	6969
777.8038	6997
780.2178	7026
782.6332	7058
785.0459	6961
787.458	6969
789.8714	6981
792.2842	6963
794.6943	7008
797.1038	7038
799.5127	7037
801.9209	7030
804.3324	6901
806.7393	7032
809.1456	7141
811.5513	7025
813.9562	7150
816.3625	7158
818.7663	7064
821.1693	7097
823.5718	7140
825.9735	7190
828.3746	7114
830.7771	7149
833.177	7144
835.5762	7189
837.9747	7217
840.3727	7217
842.772	7218
845.1666	7215
847.5626	7295
849.958	7289
852.3527	7305
854.7488	7444
857.1403	7296
859.5331	7337
861.9253	7272
864.3168	7314
866.7057	7313
869.098	7234
871.4876	7270
873.8746	7252
876.263	7283
878.6487	7282
881.0378	7237
883.4243	7281
885.8081	7315
888.1933	7281
890.5759	7161
892.9598	7238
895.343	7149
897.7256	7268
900.1057	7209
902.4871	7308
904.8659	7275
907.246	7271
909.6254	7374
912.0023	7528
914.3786	7536
916.7562	7670
919.1331	7691
921.5074	7720
923.8831	7854
926.2562	7832
928.6287	7729
931.0005	7644
933.3757	7653
935.7462	7725
938.1162	7752
940.4855	7689
942.8542	7827
945.2242	7930
947.5916	7989
949.9584	8117
952.3266	8326
954.6921	8446
957.0571	8737
959.4233	9116
961.787	9314
964.15	9208
966.5125	8971
968.8742	8661
971.2354	8306
973.5959	8224
975.9559	7988
978.3151	7857
980.6738	7786
983.0338	7674
985.3912	7567
987.7461	7616
990.1022	7637
992.4578	7631
994.8127	7574
997.1689	7558
999.5207	7597
1001.874	7555
1004.226	7556
1006.576	7580
1008.929	7518
1011.28	7611
1013.628	7484
1015.977	7571
1018.324	7573
1020.674	7512
1023.019	7500
1025.366	7606
1027.713	7613
1030.056	7665
1032.399	7703
1034.746	7738
1037.087	7696
1039.431	7713
1041.771	7568
1044.113	7739
1046.454	7721
1048.793	7616
1051.133	7675
1053.471	7597
1055.807	7695
1058.146	7672
1060.483	7677
1062.818	7698
1065.153	7846
1067.489	7679
1069.822	7715
1072.156	7870
1074.488	7911
1076.82	7819
1079.15	7673
1081.48	7778
1083.814	7801
1086.143	7724
1088.471	7682
1090.799	7807
1093.126	7674
1095.452	7770
1097.78	7785
1100.105	7825
1102.43	7762
1104.754	7660
1107.077	7712
1109.4	7784
1111.722	7733
1114.044	7860
1116.365	7684
1118.685	7713
1121.005	7805
1123.324	7752
1125.643	7817
1127.961	7875
1130.278	7929
1132.595	7637
1134.911	7849
1137.226	7869
1139.541	7848
1141.854	7642
1144.167	7790
1146.482	7804
1148.793	7776
1151.105	7738
1153.414	7819
1155.725	7720
1158.033	7710
1160.344	7780
1162.651	7736
1164.959	7803
1167.265	7900
1169.572	7721
1171.878	7822
1174.184	7763
1176.488	7787
1178.79	7824
1181.094	7840
1183.396	7794
1185.699	7832
1188.001	7812
1190.301	7835
1192.6	7804
1194.9	7750
1197.2	7793
1199.497	7826
1201.794	7792
1204.09	7816
1206.387	7817
1208.684	7809
1210.978	7894
1213.272	7753
1215.565	7786
1217.858	7860
1220.15	8025
1222.443	7815
1224.734	7915
1227.024	7959
1229.313	7817
1231.602	7756
1233.892	7924
1236.18	7906
1238.467	8019
1240.754	7988
1243.04	7994
1245.325	8081
1247.612	8162
1249.896	8164
1252.178	8236
1254.461	8145
1256.743	8006
1259.027	8186
1261.308	8141
1263.587	8118
1265.867	8185
1268.146	8114
1270.425	8150
1272.703	8168
1274.981	8194
1277.256	8167
1279.532	8180
1281.808	8183
1284.083	8189
1286.358	8064
1288.63	8016
1290.904	8115
1293.175	8013
1295.449	7964
1297.719	8193
1299.99	7883
1302.259	7919
1304.529	8027
1306.798	8046
1309.065	8026
1311.333	8047
1313.599	8001
1315.866	7940
1318.131	7984
1320.396	8118
1322.66	8118
1324.925	8031
1327.187	8096
1329.448	8047
1331.711	8089
1333.974	8202
1336.234	8064
1338.493	8017
1340.752	8020
1343.01	8082
1345.269	8001
1347.526	8003
1349.784	8165
1352.04	7957
1354.295	7942
1356.552	8019
1358.806	7970
1361.059	8089
1363.312	8112
1365.564	7947
1367.818	8050
1370.069	8123
1372.318	8083
1374.568	8092
1376.817	8157
1379.066	8101
1381.316	8271
1383.564	8185
1385.809	8138
1388.056	8200
1390.301	8377
1392.549	8298
1394.793	8444
1397.036	8387
1399.279	8312
1401.522	8344
1403.763	8458
1406.007	8533
1408.248	8442
1410.487	8395
1412.727	8549
1414.965	8322
1417.205	8386
1419.442	8304
1421.68	8373
1423.915	8369
1426.152	8378
1428.388	8392
1430.623	8235
1432.857	8332
1435.091	8406
1437.323	8354
1439.556	8385
1441.789	8460
1444.019	8453
1446.25	8485
1448.48	8486
1450.708	8447
1452.938	8710
1455.167	8529
1457.394	8575
1459.62	8604
1461.846	8436
1464.073	8653
1466.299	8344
1468.523	8520
1470.746	8301
1472.969	8500
1475.191	8147
1477.415	8312
1479.636	8165
1481.858	8169
1484.078	8210
1486.298	8070
1488.518	8086
1490.736	8085
1492.954	8084
1495.169	8007
1497.386	8097
1499.602	8036
1501.819	8055
1504.034	8014
1506.248	7986
1508.462	7991
1510.675	8079
1512.888	8041
1515.1	8084
1517.311	7938
1519.522	7939
1521.732	8088
1523.942	7998
1526.151	8000
1528.36	7978
1530.566	7879
1532.773	8234
1534.98	8117
1537.187	8034
1539.392	8048
1541.596	8017
1543.801	8071
1546.005	8191
1548.208	8138
1550.411	8145
1552.612	8072
1554.814	8226
1557.013	8122
1559.212	8124
1561.414	8157
1563.612	8216
1565.811	8088
1568.007	8244
1570.203	8162
1572.403	8326
1574.598	8103
1576.792	8159
1578.988	8251
1581.181	8282
1583.376	8180
1585.568	8280
1587.761	8227
1589.952	8312
1592.143	8367
1594.333	8362
1596.524	8283
1598.715	8450
1600.903	8313
1603.091	8327
1605.278	8461
1607.466	8471
1609.652	8431
1611.838	8314
1614.023	8405
1616.207	8422
1618.391	8277
1620.576	8285
1622.759	8460
1624.941	8342
1627.123	8420
1629.304	8447
1631.484	8273
1633.664	8433
1635.844	8399
1638.022	8415
1640.201	8529
1642.38	8560
1644.556	8487
1646.732	8413
1648.908	8344
1651.084	8428
1653.257	8404
1655.433	8461
1657.607	8443
1659.779	8473
1661.951	8527
1664.122	8378
1666.295	8560
1668.467	8477
1670.635	8641
1672.805	8484
1674.973	8472
1677.142	8611
1679.31	8507
1681.478	8591
1683.644	8549
1685.81	8479
1687.975	8488
1690.142	8331
1692.305	8523
1694.468	8501
1696.632	8374
1698.794	8405
1700.957	8400
1703.119	8450
1705.279	8389
1707.439	8344
1709.598	8321
1711.758	8401
1713.917	8217
1716.075	8328
1718.231	8378
1720.388	8369
1722.543	8272
1724.702	8289
1726.856	8357
1729.01	8308
1731.164	8201
1733.317	8225
1735.471	8298
1737.623	8187
1739.774	8378
1741.925	8295
1744.075	8258
1746.225	8339
1748.376	8345
1750.524	8283
1752.672	8266
1754.82	8329
1756.965	8293
1759.113	8220
1761.259	8277
1763.405	8370
1765.549	8340
1767.694	8234
1769.836	8338
1771.981	8358
1774.123	8251
1776.264	8411
1778.405	8345
1780.546	8418
1782.687	8264
1784.827	8363
1786.966	8253
1789.103	8400
1791.242	8467
1793.381	8357
1795.517	8419
1797.653	8458
1799.788	8388
1801.923	8377
1804.057	8375
1806.193	8462
1808.326	8380
1810.457	8364
1812.59	8291
1814.721	8323
1816.855	8366
1818.984	8335
1821.113	8424
1823.244	8246
1825.372	8351
1827.499	8333
1829.63	8307
1831.756	8193
1833.882	8320
1836.007	8292
1838.132	8312
1840.26	8386
1842.384	8244
1844.507	8202
1846.63	8232
1848.752	8360
1850.875	8203
1852.996	8278
1855.118	8197
1857.238	8095
1859.358	8337
1861.477	8321
1863.597	8389
1865.715	8212
1867.832	8222
1869.948	8241
1872.064	8159
1874.181	8245
1876.297	8175
1878.411	8261
1880.526	8332
1882.639	8354
1884.752	8300
1886.865	8383
1888.977	8250
1891.089	8182
1893.2	8257
1895.308	8219
1897.42	8315
1899.53	8395
1901.639	8366
1903.745	8253
1905.853	8516
1907.962	8400
1910.067	8384
1912.174	8361
1914.278	8522
1916.383	8396
1918.486	8282
1920.592	8358
1922.694	8333
1924.797	8329
1926.898	8454
1929	8360
1931.102	8450
1933.203	8381
1935.301	8297
1937.401	8411
1939.499	8380
1941.598	8413
1943.697	8357
1945.793	8286
1947.888	8452
1949.985	8360
1952.08	8457
1954.176	8344
1956.269	8251
1958.364	8325
1960.457	8303
1962.549	8383
1964.642	8315
1966.733	8408
1968.823	8338
1970.913	8342
1973.005	8370
1975.093	8369
1977.184	8241
1979.271	8350
1981.359	8302
1983.446	8231
1985.532	8312
1987.619	8336
1989.705	8289
1991.789	8373
1993.874	8336
1995.956	8259
1998.041	8311
2000.123	8221
2002.206	8448
2004.287	8278
2006.368	8120
2008.449	8239
2010.529	8232
2012.609	8240
2014.688	8290
2016.766	8300
2018.843	8357
2020.922	8306
2022.999	8344
2025.074	8335
2027.15	8260
2029.225	8263
2031.299	8390
2033.375	8415
2035.447	8263
2037.52	8248
2039.592	8350
2041.664	8319
2043.736	8252
2045.807	8209
2047.876	8351
2049.947	8263
2052.015	8254
2054.086	8216
2056.153	8315
2058.221	8262
2060.288	8291
2062.353	8339
2064.42	8422
2066.486	8279
2068.55	8343
2070.614	8181
2072.678	8245
2074.741	8348
2076.805	8406
2078.866	8292
2080.929	8319
2082.99	8204
2085.049	8153
2087.109	8289
2089.17	8392
2091.228	8253
2093.286	8255
2095.344	8413
2097.4	8309
2099.46	8415
2101.516	8134
2103.572	8286
2105.626	8381
2107.679	8298
2109.735	8462
2111.788	8214
2113.841	8351
2115.894	8267
2117.945	8293
2119.997	8148
2122.049	8217
2124.1	8308
2126.148	8199
2128.197	8363
2130.246	8268
2132.296	8221
2134.342	8332
2136.39	8172
2138.437	8307
2140.483	8340
2142.527	8201
2144.574	8320
2146.619	8121
2148.661	8231
2150.705	8195
2152.747	8347
2154.792	8277
2156.832	8250
2158.874	8234
2160.915	8086
2162.954	8139
2164.995	8030
2167.034	8243
2169.072	8125
2171.111	8010
2173.148	8044
2175.186	8160
2177.223	8167
2179.258	8081
2181.294	8170
2183.328	8006
2185.362	8109
2187.398	8089
2189.431	7988
2191.463	8163
2193.495	8213
2195.528	8018
2197.56	8046
2199.59	8111
2201.62	8065
2203.649	7906
2205.678	8047
2207.708	8097
2209.737	7981
2211.764	8157
2213.791	8075
2215.817	8080
2217.843	7901
2219.87	8136
2221.895	8070
2223.919	7968
2225.942	7967
2227.966	7918
2229.988	8017
2232.012	7905
2234.032	7967
2236.054	7965
2238.074	7898
2240.095	8074
2242.116	8010
2244.135	8083
2246.153	7893
2248.171	8024
2250.188	7984
2252.208	7917
2254.223	7992
2256.239	8031
2258.255	8046
2260.269	7932
2262.283	7987
2264.3	7986
2266.312	7978
2268.325	8110
2270.336	8043
2272.349	8039
2274.362	8041
2276.372	8002
2278.383	8119
2280.392	7970
2282.402	8020
2284.409	7874
2286.418	8008
2288.427	8037
2290.433	7986
2292.441	7999
2294.446	8020
2296.453	7982
2298.459	7856
2300.463	8092
2302.466	7914
2304.471	7966
2306.475	8008
2308.477	7894
2310.478	7964
2312.481	8050
2314.481	7965
2316.481	7819
2318.482	8023
2320.482	7875
2322.48	7902
2324.48	7852
2326.478	7879
2328.476	7761
2330.473	7895
2332.469	7899
2334.465	7845
2336.46	7902
2338.454	7834
2340.45	7822
2342.444	7748
2344.437	7789
2346.43	7795
2348.421	7757
2350.414	7977
2352.405	7757
2354.396	7790
2356.386	7827
2358.376	7677
2360.366	7875
2362.355	7676
2364.343	7860
2366.331	7596
2368.317	7751
2370.304	7678
2372.292	7669
2374.278	7734
2376.262	7799
2378.247	7783
2380.23	7672
2382.216	7771
2384.199	7777
2386.181	7746
2388.163	7779
2390.144	7799
2392.127	7736
2394.107	7604
2396.087	7652
2398.066	7567
2400.046	7791
2402.023	7579
2404.004	7734
2405.981	7724
2407.957	7737
2409.934	7715
2411.91	7616
2413.886	7565
2415.862	7631
2417.836	7668
2419.809	7689
2421.784	7446
2423.756	7688
2425.73	7636
2427.701	7681
2429.672	7707
2431.644	7738
2433.615	7744
2435.586	7638
2437.555	7588
2439.523	7729
2441.491	7541
2443.459	7768
2445.428	7608
2447.395	7666
2449.361	7673
2451.327	7610
2453.292	7604
2455.257	7613
2457.223	7651
2459.187	7553
2461.15	7565
2463.113	7584
2465.076	7536
2467.039	7647
2468.999	7646
2470.96	7599
2472.921	7613
2474.881	7607
2476.841	7591
2478.8	7474
2480.759	7617
2482.717	7477
2484.675	7728
2486.63	7580
2488.589	7505
2490.545	7570
2492.5	7430
2494.455	7588
2496.408	7474
2498.364	7536
2500.318	7574
2502.27	7573
2504.223	7538
2506.174	7559
2508.126	7507
2510.078	7493
2512.03	7536
2513.979	7545
2515.927	7431
2517.877	7605
2519.826	7449
2521.775	7483
2523.722	7466
2525.668	7521
2527.616	7391
2529.561	7431
2531.508	7427
2533.452	7429
2535.398	7474
2537.342	7420
2539.284	7443
2541.229	7503
2543.173	7512
2545.114	7490
2547.055	7447
2548.996	7490
2550.938	7493
2552.878	7418
2554.817	7461
2556.756	7437
2558.695	7455
2560.633	7482
2562.572	7463
2564.509	7368
2566.445	7481
2568.382	7413
2570.317	7531
2572.254	7579
2574.189	7479
2576.123	7449
2578.057	7362
2579.99	7341
2581.923	7480
2583.855	7476
2585.788	7339
2587.719	7428
2589.65	7476
2591.579	7280
2593.511	7408
2595.44	7376
2597.37	7402
2599.297	7401
2601.225	7508
2603.153	7463
2605.08	7473
2607.007	7470
2608.932	7367
2610.858	7350
2612.782	7409
2614.709	7395
2616.632	7316
2618.556	7363
2620.478	7368
2622.401	7543
2624.324	7414
2626.247	7376
2628.167	7512
2630.088	7447
2632.008	7454
2633.928	7469
2635.848	7436
2637.766	7384
2639.684	7443
2641.603	7555
2643.519	7521
2645.437	7415
2647.353	7481
2649.27	7500
2651.184	7439
2653.099	7498
2655.014	7395
2656.928	7369
2658.842	7393
2660.755	7467
2662.667	7289
2664.579	7548
2666.491	7478
2668.402	7365
2670.312	7392
2672.222	7403
2674.132	7442
2676.042	7450
2677.951	7304
2679.859	7235
2681.766	7398
2683.674	7350
2685.582	7415
2687.488	7327
2689.392	7312
2691.298	7437
2693.202	7343
2695.107	7328
2697.012	7257
2698.914	7331
2700.817	7250
2702.72	7317
2704.622	7336
2706.524	7320
2708.425	7317
2710.326	7393
2712.225	7248
2714.125	7220
2716.024	7277
2717.923	7282
2719.822	7332
2721.719	7243
2723.616	7100
2725.512	7359
2727.41	7361
2729.305	7301
2731.201	7141
2733.095	7205
2734.99	7438
2736.884	7190
2738.778	7352
2740.67	7330
2742.562	7230
2744.455	7303
2746.346	7274
2748.238	7241
2750.129	7177
2752.018	7371
2753.907	7299
2755.797	7280
2757.687	7338
2759.575	7159
2761.462	7241
2763.349	7245
2765.237	7177
2767.124	7261
2769.009	7211
2770.894	7257
2772.779	7324
2774.663	7228
2776.547	7218
2778.431	7135
2780.314	7142
2782.197	7180
2784.078	7304
2785.96	7144
2787.842	7215
2789.723	7249
2791.603	6992
2793.483	7286
2795.362	7067
2797.241	7263
2799.121	7161
2800.997	7151
2802.874	7107
2804.751	7124
2806.628	7312
2808.506	7071
2810.38	7130
2812.255	7168
2814.13	7053
2816.003	7118
2817.878	7150
2819.752	7234
2821.623	7031
2823.496	7132
2825.368	7058
2827.238	7102
2829.111	7254
2830.98	7098
2832.851	7222
2834.719	7105
2836.589	7132
2838.458	7263
2840.327	7009
2842.193	7233
2844.061	7160
2845.927	7070
2847.794	7280
2849.66	7154
2851.525	7302
2853.39	7205
2855.254	7268
2857.117	7245
2858.983	7347
2860.845	7416
2862.707	7368
2864.569	7490
2866.431	7405
2868.293	7432
2870.154	7441
2872.013	7523
2873.873	7452
2875.733	7714
2877.592	7718
2879.451	7735
2881.309	7740
2883.166	7684
2885.022	7881
2886.879	7921
2888.736	7857
2890.591	7975
2892.446	7961
2894.301	8007
2896.155	7921
2898.009	8011
2899.863	7967
2901.716	7917
2903.568	7881
2905.419	7901
2907.27	8012
2909.123	7868
2910.973	7956
2912.824	8053
2914.673	7892
2916.521	8041
2918.372	8182
2920.22	8264
2922.067	8161
2923.914	8332
2925.761	8364
2927.607	8364
2929.455	8306
2931.301	8398
2933.144	8509
2934.99	8393
2936.833	8399
2938.678	8523
2940.522	8706
2942.364	8794
2944.207	8877
2946.048	9092
2947.891	9267
2949.731	9032
2951.571	9060
2953.412	8977
2955.25	9077
2957.09	8887
2958.93	8875
2960.767	8868
2962.606	8865
2964.443	8880
2966.279	8747
2968.116	8419
2969.953	8325
2971.788	8274
2973.623	8215
2975.457	8086
2977.292	8199
2979.127	7949
2980.959	7801
2982.792	7891
2984.624	7775
2986.455	7776
2988.288	7721
2990.119	7644
2991.949	7546
2993.779	7613
2995.608	7596
2997.439	7474
2999.268	7348
3001.096	7434
3002.923	7368
3004.751	7342
3006.578	7218
3008.406	7206
3010.232	7218
3012.057	7107
3013.883	7061
3015.706	7054
3017.532	6946
3019.356	6973
3021.179	6934
3023.002	6889
3024.823	6930
3026.646	6866
3028.469	6884
3030.289	6808
3032.11	6808
3033.93	6927
3035.749	6900
3037.57	6866
3039.39	6811
3041.207	6781
3043.026	6800
3044.842	6735
3046.661	6824
3048.477	6768
3050.294	6848
3052.109	6839
3053.925	6721
3055.739	6647
3057.555	6770
3059.368	6660
3061.181	6821
3062.995	6759
3064.807	6736
3066.62	6664
3068.433	6718
3070.243	6679
3072.054	6650
3073.865	6658
3075.675	6663
3077.485	6681
3079.293	6516
3081.102	6565
3082.911	6666
3084.719	6543
3086.527	6669
3088.333	6497
3090.139	6663
3091.945	6585
3093.75	6631
3095.557	6451
3097.361	6535
3099.165	6623
3100.969	6483
3102.772	6519
3104.575	6548
3106.379	6501
3108.181	6477
3109.982	6449
3111.783	6491
3113.584	6468
3115.386	6475
3117.186	6525
3118.985	6482
3120.783	6367
3122.582	6606
3124.381	6402
3126.179	6396
3127.975	6376
3129.772	6530
3131.569	7760
3133.365	6696
3135.161	6399
3136.956	6361
3138.751	6323
3140.544	6355
3142.338	6364
3144.132	6321
3145.925	6195
3147.717	6319
3149.509	6257
3151.301	6269
3153.091	6391
3154.884	6384
3156.673	6250
3158.462	6144
3160.252	6325
3162.041	6269
3163.831	6209
3165.618	6310
3167.405	6177
3169.193	6264
3170.979	6287
3172.767	6337
3174.553	6252
3176.338	6415
3178.123	6272
3179.907	6226
3181.692	6085
3183.477	6188
3185.259	6167
3187.042	6302
3188.824	6212
3190.607	6323
3192.389	6218
3194.17	6278
3195.951	6240
3197.73	6257
3199.51	6183
3201.289	6191
3203.07	6185
3204.848	6186
3206.626	6207
3208.403	6207
3210.18	6224
3211.959	6198
3213.735	6200
3215.511	6240
3217.285	6321
3219.06	6243
3220.836	6173
3222.611	6130
3224.384	6245
3226.158	6194
3227.929	6267
3229.702	6131
3231.476	6256
3233.248	6147
3235.018	6184
3236.789	6160
3238.56	6157
3240.33	6115
3242.1	6259
3243.869	6099
3245.637	6207
3247.405	6231
3249.172	6165
3250.941	6124
3252.707	5897
3254.474	6189
3256.24	6159
3258.006	6171
3259.772	6237
3261.537	6210
3263.301	6072
3265.065	6125
3266.828	6163
3268.592	6185
3270.355	6160
3272.117	6073
3273.878	6163
3275.64	6176
3277.401	6211
3279.162	6138
3280.922	6222
3282.682	6211
3284.441	6145
3286.199	6182
3287.959	6064
3289.716	6011
3291.475	6039
3293.232	6161
3294.988	6180
3296.744	6174
3298.501	6152
3300.256	6110
3302.011	6136
3303.766	6115
3305.52	6096
3307.275	6111
3309.028	6098
3310.781	6045
3312.533	6165
3314.285	6188
3316.038	6085
3317.789	6090
3319.54	6087
3321.289	6095
3323.039	6131
3324.789	6036
3326.539	6185
3328.288	6155
3330.035	6152
3331.783	6181
3333.531	6074
3335.28	5948
3337.025	6076
3338.771	6040
3340.518	6000
3342.262	5981
3344.009	6125
3345.753	5989
3347.497	5934
3349.24	5980
3350.983	5998
3352.726	5987
3354.469	5942
3356.212	5988
3357.952	6003
3359.694	6037
3361.434	5911
3363.176	5884
3364.916	5877
3366.654	5828
3368.394	5910
3370.132	6006
3371.871	5873
3373.61	5971
3375.346	5976
3377.083	5975
3378.82	5880
3380.556	5862
3382.292	5821
3384.027	5863
3385.763	5795
3387.497	5872
3389.231	5879
3390.965	5816
3392.698	5839
3394.431	5933
3396.164	5795
3397.896	5813
3399.627	5842
3401.36	5872
3403.09	5860
3404.82	5821
3406.55	5742
3408.279	5955
3410.01	5890
3411.738	5786
3413.467	5871
3415.194	5866
3416.92	5722
3418.647	5733
3420.375	5869
3422.102	5767
3423.827	5742
3425.553	5686
3427.277	5721
3429.003	5792
3430.727	5666
3432.451	5680
3434.173	5744
3435.896	5724
3437.62	5762
3439.343	5612
3441.063	5725
3442.785	5732
3444.505	5606
3446.226	5677
3447.948	5620
3449.666	5590
3451.386	5572
3453.104	5623
3454.823	5691
3456.541	5604
3458.259	5638
3459.976	5552
3461.693	5568
3463.408	5582
3465.125	5526
3466.841	5594
3468.556	5575
3470.271	5626
3471.985	5516
3473.698	5496
3475.414	5563
3477.126	5457
3478.838	5436
3480.55	5515
3482.263	5596
3483.975	5451
3485.686	5489
3487.396	5453
3489.106	5444
3490.817	5408
3492.526	5446
3494.236	5501
3495.944	5435
3497.652	5442
3499.359	5340
3501.066	5330
3502.775	5296
3504.481	5319
3506.187	5367
3507.893	5395
3509.598	5336
3511.304	5327
3513.009	5248
3514.713	5417
3516.417	5209
3518.12	5347
3519.821	5368
3521.525	5364
3523.228	5269
3524.929	5226
3526.631	5309
3528.33	5139
3530.032	5376
3531.733	5298
3533.433	5248
3535.131	5231
3536.83	5230
3538.529	5207
3540.227	5147
3541.925	5156
3543.623	5240
3545.319	5278
3547.016	5255
3548.712	5259
3550.408	5238
3552.103	5274
3553.798	5126
3555.491	5186
3557.188	5166
3558.88	5133
3560.574	5093
3562.266	5188
3563.959	5182
3565.651	5112
3567.343	5138
3569.035	5055
3570.725	5137
3572.415	5119
3574.106	5058
3575.797	5169
3577.485	5137
3579.174	5115
3580.863	5068
3582.551	5129
3584.238	5031
3585.926	5077
3587.613	5016
3589.3	5010
3590.986	5099
3592.671	4967
3594.357	5087
3596.042	4926
3597.726	4978
3599.41	5029
3601.094	4927
3602.778	4909
3604.461	4982
3606.143	5004
3607.825	4958
3609.507	4969
3611.188	4941
3612.87	5014
3614.551	4981
3616.229	4901
3617.909	5028
3619.589	4960
3621.269	4928
3622.948	4854
3624.625	4970
3626.302	4903
3627.98	4835
3629.657	4910
3631.334	4884
3633.01	4805
3634.686	4869
3636.361	4805
3638.036	4847
3639.712	4802
3641.385	4825
3643.06	4810
3644.732	4807
3646.405	4834
3648.08	4775
3649.751	4734
3651.424	4756
3653.094	4772
3654.766	4693
3656.436	4795
3658.106	4666
3659.777	4761
3661.446	4783
3663.115	4640
3664.783	4744
3666.452	4755
3668.121	4686
3669.788	4678
3671.454	4713
3673.121	4756
3674.789	4738
3676.455	4806
3678.12	4703
3679.784	4676
3681.45	4662
3683.114	4602
3684.779	4661
3686.442	4722
3688.105	4715
3689.768	4764
3691.43	4704
3693.093	4670
3694.754	4628
3696.415	4578
3698.076	4650
3699.736	4598
3701.396	4605
3703.057	4653
3704.716	4677
3706.375	4636
3708.034	4583
3709.692	4569
3711.351	4639
3713.008	4576
3714.665	4653
3716.321	4565
3717.977	4585
3719.634	4570
3721.29	4546
3722.945	4575
3724.598	4611
3726.253	4654
3727.907	4588
3729.561	4504
3731.214	4621
3732.867	4500
3734.518	4491
3736.171	4445
3737.824	4474
3739.474	4474
3741.125	4525
3742.775	4424
3744.425	4597
3746.074	4537
3747.725	4477
3749.373	4588
3751.022	4581
3752.669	4524
3754.318	4505
3755.966	4534
3757.612	4530
3759.259	4449
3760.905	4518
3762.55	4484
3764.197	4543
3765.842	4413
3767.486	4436
3769.131	4421
3770.774	4537
3772.417	4511
3774.061	4436
3775.705	4435
3777.347	4428
3778.988	4398
3780.629	4427
3782.271	4467
3783.912	4393
3785.552	4406
3787.192	4360
3788.831	4300
3790.472	4354
3792.112	4417
3793.75	4349
3795.388	4401
3797.024	4353
3798.661	4280
3800.3	4334
3801.936	4366
3803.572	4285
3805.208	4376
3806.844	4247
3808.48	4396
3810.115	4258
3811.748	4290
3813.382	4284
3815.016	4278
3816.649	4348
3818.283	4299
3819.914	4286
3821.547	4268
3823.178	4189
3824.809	4275
3826.441	4293
3828.072	4302
3829.701	4301
3831.331	4198
3832.96	4405
3834.591	4192
3836.219	4325
3837.847	4200
3839.475	4232
3841.102	4309
3842.729	4279
3844.357	4177
3845.984	4242
3847.609	4203
3849.234	4237
3850.86	4239
3852.485	4200
3854.11	4186
3855.734	4228
3857.357	4250
3858.981	4237
3860.603	4173
3862.227	4271
3863.848	4225
3865.471	4203
3867.092	4122
3868.713	4270
3870.334	4122
3871.954	4236
3873.575	4149
3875.194	4168
3876.813	4171
3878.433	4104
3880.051	4104
3881.669	4192
3883.286	4195
3884.904	4167
3886.52	4146
3888.138	4171
3889.754	4155
3891.37	4129
3892.985	4134
3894.6	4109
3896.216	4119
3897.831	4133
3899.444	4098
3901.058	4006
3902.67	4095
3904.283	4007
3905.897	4028
3907.509	4134
3909.121	4095
3910.731	4062
3912.342	4044
3913.954	4071
3915.563	4021
3917.174	4100
3918.783	4024
3920.391	4123
3922.002	4060
3923.611	4078
3925.218	4033
3926.826	4106
3928.432	4020
3930.039	4070
3931.647	4057
3933.253	4034
3934.859	4013
3936.464	4088
3938.068	4056
3939.675	4045
3941.278	4109
3942.883	3992
3944.486	4044
3946.089	4083
3947.692	4001
3949.295	3985
3950.898	3981
3952.499	3958
3954.1	3993
3955.7	3897
3957.303	4012
3958.903	4086
3960.502	4044
3962.101	4054
3963.7	3989
3965.301	4021
3966.899	3959
3968.497	3954
3970.094	3892
3971.691	3939
3973.288	3930
3974.885	3943
3976.481	3856
3978.077	3879
3979.672	3930
3981.267	3990
3982.863	3881
3984.457	3929
3986.051	3854
3987.645	3930
3989.238	3830
3990.831	3826
3992.425	3808
3994.017	3814
3995.607	3771
3997.199	3846
3998.79	3929
4000.382	3843
4001.973	3823
4003.561	3862
4005.151	3776
4006.741	3826
4008.331	3862
4009.918	3787
4011.507	3821
4013.095	3834
4014.681	3840
4016.269	3747
4017.856	3748
4019.443	3784
4021.028	3745
4022.614	3765
4024.199	3820
4025.785	3848
4027.37	3786
4028.953	3828
4030.536	3798
4032.12	3808
4033.704	3744
4035.287	3676
4036.869	3694
4038.45	3752
4040.032	3691
4041.613	3733
4043.195	3743
4044.776	3627
4046.356	3735
4047.935	3689
4049.515	3708
4051.095	3670
4052.674	3711
4054.251	3706
4055.829	3732
4057.406	3713
4058.985	3775
4060.562	3687
4062.139	3679
4063.715	3635
4065.29	3701
4066.865	3727
4068.442	3641
4070.016	3654
4071.59	3561
4073.164	3700
4074.738	3657
4076.312	3716
4077.885	3600
4079.458	3677
4081.03	3642
4082.602	3539
4084.173	3707
4085.745	3659
4087.315	3577
4088.886	3594
4090.456	3594
4092.026	3573
4093.596	3547
4095.165	3607
4096.734	3560
4098.301	3624
4099.869	3545
4101.437	3618
4103.006	3616
4104.572	3557
4106.139	3626
4107.704	3446
4109.27	3588
4110.837	3614
4112.401	3520
4113.966	3521
4115.53	3609
4117.094	3645
4118.659	3522
4120.223	3510
4121.785	3544
4123.347	3523
4124.909	3527
4126.471	3551
4128.034	3466
4129.595	3519
4131.155	3465
4132.716	3522
4134.275	3499
4135.836	3557
4137.395	3493
4138.955	3509
4140.513	3509
4142.071	3393
4143.628	3541
4145.188	3443
4146.745	3488
4148.302	3455
4149.858	3382
4151.414	3451
4152.971	3421
4154.526	3485
4156.081	3354
4157.635	3416
4159.189	3396
4160.745	3431
4162.298	3519
4163.852	3389
4165.405	3413
4166.957	3422
4168.51	3445
4170.063	3449
4171.614	3368
4173.166	3378
4174.717	3427
4176.267	3458
4177.817	3378
4179.368	3362
4180.917	3338
4182.466	3376
4184.016	3367
4185.564	3418
4187.112	3377
4188.66	3313
4190.207	3278
4191.754	3386
4193.301	3314
4194.848	3429
4196.394	3371
4197.94	3337
4199.484	3332
4201.03	3342
4202.575	3346
4204.12	3326
4205.663	3274
4207.207	3337
4208.75	3357
4210.292	3238
4211.836	3266
4213.378	3245
4214.92	3204
4216.46	3348
4218.002	3225
4219.544	3288
4221.083	3236
4222.625	3227
4224.164	3275
4225.703	3259
4227.244	3258
4228.782	3181
4230.32	3257
4231.857	3138
4233.395	3207
4234.933	3295
4236.471	3164
4238.007	3230
4239.542	3200
4241.078	3195
4242.614	3306
4244.15	3224
4245.685	3194
4247.219	3251
4248.753	3174
4250.287	3289
4251.82	3216
4253.354	3227
4254.887	3232
4256.419	3227
4257.951	3222
4259.483	3265
4261.016	3186
4262.547	3199
4264.078	3255
4265.608	3186
4267.137	3187
4268.668	3201
4270.197	3194
4271.727	3183
4273.254	3140
4274.783	3174
4276.311	3175
4277.84	3240
4279.366	3204
4280.894	3164
4282.42	3208
4283.946	3130
4285.473	3123
4286.998	3194
4288.523	3085
4290.047	3140
4291.572	3083
4293.096	3172
4294.622	3131
4296.144	3179
4297.668	3083
4299.19	3082
4300.713	3139
4302.236	3097
4303.758	3106
4305.279	3082
4306.799	3115
4308.321	3055
4309.842	3141
4311.361	3116
4312.882	3072
4314.401	3092
