400.0961	3819
402.6185	3814
405.1424	3825
407.6635	3765
410.1838	3790
412.7035	3865
415.2225	3854
417.7388	3820
420.2585	3979
422.7754	3881
425.2917	3932
427.8072	3980
430.3221	4005
432.8363	4135
435.3498	4024
437.8626	4134
440.3727	4056
442.8841	4037
445.3969	4045
447.907	4044
450.4142	4080
452.9229	3958
455.4289	3917
457.9362	4056
460.4449	4038
462.9488	4030
465.454	4069
467.9566	3954
470.4604	4070
472.9637	4044
475.4662	4034
477.966	4157
480.4671	4045
482.9656	4028
485.4633	4067
487.9645	4094
490.4608	4074
492.9566	4054
495.4536	4114
497.948	4142
500.4437	4107
502.9387	4192
505.431	4213
507.9226	4114
510.4136	4147
512.9079	4217
515.3975	4141
517.8864	4270
520.3746	4201
522.8622	4193
525.3491	4187
527.8394	4234
530.3249	4185
532.8098	4243
535.2939	4203
537.7774	4221
540.2623	4307
542.7444	4194
545.2259	4222
547.7067	4180
550.1868	4257
552.6683	4307
555.147	4264
557.6231	4273
560.1005	4241
562.5773	4238
565.0534	4223
567.5308	4306
570.0056	4299
572.4776	4373
574.951	4335
577.4237	4333
579.8978	4256
582.3671	4224
584.8378	4426
587.3079	4335
589.7773	4333
592.244	4404
594.714	4406
597.1793	4324
599.6461	4335
602.1121	4402
604.5754	4419
607.0421	4420
609.5042	4305
611.9675	4421
614.4282	4261
616.8902	4323
619.3515	4364
621.8122	4344
624.2702	4393
626.7296	4366
629.1863	4348
631.6423	4323
634.1017	4398
636.5563	4376
639.0104	4366
641.4658	4372
643.9185	4331
646.3725	4335
648.8239	4375
651.2766	4343
653.7266	4328
656.176	4476
658.6247	4387
661.0748	4448
663.5242	4452
665.9709	4438
668.417	4469
670.8624	4372
673.3092	4448
675.7533	4475
678.1968	4424
680.6395	4576
683.0817	4410
685.5251	4550
687.9659	4430
690.4061	4478
692.8456	4457
695.2844	4534
697.7226	4581
700.1621	4593
702.599	4530
705.0332	4492
707.4688	4551
709.9036	4618
712.3399	4539
714.7735	4649
717.2044	4553
719.6367	4709
722.0683	4569
724.4993	4646
726.9296	4648
729.3593	4696
731.7883	4777
734.2147	4698
736.6423	4702
739.0714	4646
741.4958	4674
743.9216	4626
746.3447	4674
748.7691	4748
751.1929	4700
753.616	4853
756.0366	4689
758.4584	4758
760.8776	4914
763.2982	4753
765.718	4847
768.1373	4893
770.5539	4775
772.9698	4828
775.3871	4854
777.8038	4826
780.2178	4810
782.6332	4765
785.0459	4809
787.458	4792
789.8714	4853
792.2842	4774
794.6943	4824
797.1038	4852
799.5127	4870
801.9209	4773
804.3324	4798
806.7393	4810
809.1456	4843
811.5513	4913
813.9562	4921
816.3625	5054
818.7663	4983
821.1693	4905
823.5718	4843
825.9735	4914
828.3746	4863
830.7771	4845
833.177	4951
835.5762	4927
837.9747	5035
840.3727	4910
842.772	4907
845.1666	4980
847.5626	4992
849.958	4926
852.3527	4877
854.7488	5028
857.1403	5094
859.5331	5068
861.9253	5131
864.3168	5066
866.7057	5063
869.098	4948
871.4876	4919
873.8746	5108
876.263	5098
878.6487	4935
881.0378	4915
883.4243	4983
885.8081	4952
888.1933	4993
890.5759	4992
892.9598	5109
895.343	4846
897.7256	4992
900.1057	4880
902.4871	5045
904.8659	4969
907.246	4949
909.6254	5064
912.0023	5093
914.3786	5106
916.7562	5266
919.1331	5273
921.5074	5403
923.8831	5325
926.2562	5337
928.6287	5385
931.0005	5367
933.3757	5441
935.7462	5321
938.1162	5390
940.4855	5336
942.8542	5331
945.2242	5293
947.5916	5432
949.9584	5404
952.3266	5632
954.6921	5738
957.0571	5788
959.4233	5905
961.787	6060
964.15	5982
966.5125	6010
968.8742	5820
971.2354	5545
973.5959	5520
975.9559	5366
978.3151	5354
980.6738	5367
983.0338	5270
985.3912	5171
987.7461	5318
990.1022	5143
992.4578	5235
994.8127	5153
997.1689	5170
999.5207	5212
1001.874	5228
1004.226	5243
1006.576	5307
1008.929	5181
1011.28	5312
1013.628	5156
1015.977	5251
1018.324	5191
1020.674	5143
1023.019	5188
1025.366	5204
1027.713	5221
1030.056	5160
1032.399	5346
1034.746	5220
1037.087	5239
1039.431	5327
1041.771	5353
1044.113	5314
1046.454	5315
1048.793	5282
1051.133	5335
1053.471	5291
1055.807	5205
1058.146	5301
1060.483	5312
1062.818	5339
1065.153	5381
1067.489	5406
1069.822	5386
1072.156	5308
1074.488	5382
1076.82	5345
1079.15	5347
1081.48	5361
1083.814	5325
1086.143	5307
1088.471	5324
1090.799	5286
1093.126	5279
1095.452	5269
1097.78	5238
1100.105	5334
1102.43	5305
1104.754	5292
1107.077	5334
1109.4	5441
1111.722	5425
1114.044	5377
1116.365	5277
1118.685	5366
1121.005	5400
1123.324	5345
1125.643	5518
1127.961	5424
1130.278	5237
1132.595	5391
1134.911	5348
1137.226	5243
1139.541	5455
1141.854	5301
1144.167	5328
1146.482	5384
1148.793	5324
1151.105	5330
1153.414	5313
1155.725	5327
1158.033	5329
1160.344	5335
1162.651	5360
1164.959	5445
1167.265	5408
1169.572	5415
1171.878	5342
1174.184	5334
1176.488	5444
1178.79	5411
1181.094	5494
1183.396	5456
1185.699	5398
1188.001	5382
1190.301	5355
1192.6	5371
1194.9	5432
1197.2	5369
1199.497	5358
1201.794	5448
1204.09	5447
1206.387	5273
1208.684	5319
1210.978	5375
1213.272	5389
1215.565	5331
1217.858	5359
1220.15	5352
1222.443	5365
1224.734	5410
1227.024	5430
1229.313	5436
1231.602	5581
1233.892	5514
1236.18	5572
1238.467	5554
1240.754	5477
1243.04	5635
1245.325	5606
1247.612	5667
1249.896	5665
1252.178	5606
1254.461	5728
1256.743	5613
1259.027	5588
1261.308	5623
1263.587	5678
1265.867	5557
1268.146	5692
1270.425	5701
1272.703	5680
1274.981	5636
1277.256	5673
1279.532	5695
1281.808	5579
1284.083	5608
1286.358	5659
1288.63	5577
1290.904	5470
1293.175	5544
1295.449	5595
1297.719	5556
1299.99	5450
1302.259	5582
1304.529	5636
1306.798	5587
1309.065	5549
1311.333	5520
1313.599	5512
1315.866	5598
1318.131	5578
1320.396	5539
1322.66	5581
1324.925	5571
1327.187	5570
1329.448	5666
1331.711	5629
1333.974	5664
1336.234	5724
1338.493	5601
1340.752	5621
1343.01	5459
1345.269	5548
1347.526	5522
1349.784	5508
1352.04	5579
1354.295	5657
1356.552	5493
1358.806	5446
1361.059	5531
1363.312	5393
1365.564	5432
1367.818	5634
1370.069	5529
1372.318	5608
1374.568	5605
1376.817	5621
1379.066	5515
1381.316	5626
1383.564	5620
1385.809	5683
1388.056	5710
1390.301	5731
1392.549	5757
1394.793	5789
1397.036	5829
1399.279	5978
1401.522	5964
1403.763	5940
1406.007	5889
1408.248	5974
1410.487	5879
1412.727	5845
1414.965	5784
1417.205	5814
1419.442	5843
1421.68	5735
1423.915	5908
1426.152	5781
1428.388	5895
1430.623	5807
1432.857	5880
1435.091	5774
1437.323	5880
1439.556	5940
1441.789	5957
1444.019	5919
1446.25	5864
1448.48	5812
1450.708	5976
1452.938	5945
1455.167	5883
1457.394	6078
1459.62	5951
1461.846	6049
1464.073	5967
1466.299	5883
1468.523	5794
1470.746	5740
1472.969	5839
1475.191	5700
1477.415	5689
1479.636	5772
1481.858	5668
1484.078	5688
1486.298	5630
1488.518	5657
1490.736	5601
1492.954	5644
1495.169	5535
1497.386	5636
1499.602	5677
1501.819	5602
1504.034	5546
1506.248	5608
1508.462	5503
1510.675	5435
1512.888	5528
1515.1	5554
1517.311	5644
1519.522	5575
1521.732	5569
1523.942	5592
1526.151	5565
1528.36	5582
1530.566	5539
1532.773	5571
1534.98	5519
1537.187	5528
1539.392	5515
1541.596	5557
1543.801	5582
1546.005	5536
1548.208	5612
1550.411	5508
1552.612	5660
1554.814	5578
1557.013	5783
1559.212	5519
1561.414	5590
1563.612	5623
1565.811	5682
1568.007	5715
1570.203	5695
1572.403	5605
1574.598	5771
1576.792	5710
1578.988	5677
1581.181	5794
1583.376	5823
1585.568	5691
1587.761	5707
1589.952	5806
1592.143	5785
1594.333	5719
1596.524	5794
1598.715	5706
1600.903	5726
1603.091	5717
1605.278	5725
1607.466	5751
1609.652	5761
1611.838	5777
1614.023	5775
1616.207	5783
1618.391	5772
1620.576	5789
1622.759	5807
1624.941	5834
1627.123	5964
1629.304	5814
1631.484	5803
1633.664	5792
1635.844	5797
1638.022	5886
1640.201	5814
1642.38	5895
1644.556	5883
1646.732	5864
1648.908	5692
1651.084	5800
1653.257	5894
1655.433	5837
1657.607	5886
1659.779	5971
1661.951	5817
1664.122	5930
1666.295	5860
1668.467	5903
1670.635	5867
1672.805	5975
1674.973	5882
1677.142	5901
1679.31	5967
1681.478	5780
1683.644	5773
1685.81	5846
1687.975	5902
1690.142	5863
1692.305	5829
1694.468	5765
1696.632	5902
1698.794	5899
1700.957	5673
1703.119	5763
1705.279	5741
1707.439	5854
1709.598	5685
1711.758	5737
1713.917	5757
1716.075	5749
1718.231	5790
1720.388	5752
1722.543	5701
1724.702	5695
1726.856	5632
1729.01	5730
1731.164	5716
1733.317	5684
1735.471	5802
1737.623	5682
1739.774	5735
1741.925	5829
1744.075	5755
1746.225	5637
1748.376	5659
1750.524	5599
1752.672	5661
1754.82	5759
1756.965	5783
1759.113	5779
1761.259	5627
1763.405	5642
1765.549	5843
1767.694	5697
1769.836	5825
1771.981	5754
1774.123	5773
1776.264	5703
1778.405	5930
1780.546	5762
1782.687	5830
1784.827	5728
1786.966	5775
1789.103	5767
1791.242	5766
1793.381	5859
1795.517	5770
1797.653	5800
1799.788	5734
1801.923	5868
1804.057	5736
1806.193	5642
1808.326	5826
1810.457	5692
1812.59	5794
1814.721	5853
1816.855	5745
1818.984	5741
1821.113	5782
1823.244	5710
1825.372	5803
1827.499	5684
1829.63	5806
1831.756	5708
1833.882	5639
1836.007	5848
1838.132	5737
1840.26	5811
1842.384	5777
1844.507	5738
1846.63	5712
1848.752	5682
1850.875	5736
1852.996	5740
1855.118	5701
1857.238	5754
1859.358	5751
1861.477	5646
1863.597	5741
1865.715	5726
1867.832	5777
1869.948	5765
1872.064	5715
1874.181	5675
1876.297	5797
1878.411	5729
1880.526	5715
1882.639	5761
1884.752	5712
1886.865	5746
1888.977	5713
1891.089	5729
1893.2	5764
1895.308	5748
1897.42	5837
1899.53	5701
1901.639	5753
1903.745	5685
1905.853	5750
1907.962	5761
1910.067	5764
1912.174	5804
1914.278	5746
1916.383	5850
1918.486	5807
1920.592	5701
1922.694	5820
1924.797	5751
1926.898	5931
1929	5972
1931.102	5763
1933.203	5904
1935.301	5747
1937.401	5769
1939.499	5841
1941.598	5826
1943.697	5867
1945.793	5920
1947.888	5834
1949.985	5894
1952.08	5914
1954.176	5828
1956.269	5960
1958.364	5849
1960.457	5792
1962.549	5833
1964.642	5776
1966.733	5758
1968.823	5665
1970.913	5754
1973.005	5826
1975.093	5766
1977.184	5802
1979.271	5811
1981.359	5821
1983.446	5816
1985.532	5750
1987.619	5824
1989.705	5672
1991.789	5806
1993.874	5823
1995.956	5674
1998.041	5696
2000.123	5921
2002.206	5720
2004.287	5733
2006.368	5785
2008.449	5745
2010.529	5674
2012.609	5741
2014.688	5686
2016.766	5698
2018.843	5734
2020.922	5717
2022.999	5816
2025.074	5698
2027.15	5702
2029.225	5769
2031.299	5748
2033.375	5728
2035.447	5741
2037.52	5730
2039.592	5784
2041.664	5791
2043.736	5718
2045.807	5785
2047.876	5724
2049.947	5653
2052.015	5789
2054.086	5834
2056.153	5723
2058.221	5731
2060.288	5797
2062.353	5638
2064.42	5791
2066.486	5733
2068.55	5855
2070.614	5818
2072.678	5734
2074.741	5751
2076.805	5727
2078.866	5728
2080.929	5840
2082.99	5653
2085.049	5778
2087.109	5771
2089.17	5774
2091.228	5709
2093.286	5805
2095.344	5722
2097.4	5768
2099.46	5839
2101.516	5664
2103.572	5734
2105.626	5719
2107.679	5707
2109.735	5856
2111.788	5860
2113.841	5708
2115.894	5723
2117.945	5850
2119.997	5718
2122.049	5612
2124.1	5645
2126.148	5690
2128.197	5817
2130.246	5846
2132.296	5679
2134.342	5745
2136.39	5763
2138.437	5704
2140.483	5856
2142.527	5704
2144.574	5723
2146.619	5760
2148.661	5663
2150.705	5719
2152.747	5740
2154.792	5747
2156.832	5790
2158.874	5705
2160.915	5708
2162.954	5721
2164.995	5812
2167.034	5761
2169.072	5644
2171.111	5683
2173.148	5726
2175.186	5589
2177.223	5699
2179.258	5619
2181.294	5738
2183.328	5642
2185.362	5626
2187.398	5702
2189.431	5533
2191.463	5508
2193.495	5682
2195.528	5686
2197.56	5651
2199.59	5606
2201.62	5592
2203.649	5671
2205.678	5529
2207.708	5631
2209.737	5560
2211.764	5636
2213.791	5636
2215.817	5465
2217.843	5624
2219.87	5626
2221.895	5644
2223.919	5630
2225.942	5694
2227.966	5575
2229.988	5457
2232.012	5516
2234.032	5667
2236.054	5522
2238.074	5573
2240.095	5542
2242.116	5603
2244.135	5595
2246.153	5527
2248.171	5637
2250.188	5587
2252.208	5495
2254.223	5497
2256.239	5612
2258.255	5672
2260.269	5491
2262.283	5676
2264.3	5494
2266.312	5577
2268.325	5509
2270.336	5556
2272.349	5638
2274.362	5578
2276.372	5510
2278.383	5588
2280.392	5502
2282.402	5512
2284.409	5575
2286.418	5547
2288.427	5607
2290.433	5566
2292.441	5624
2294.446	5559
2296.453	5588
2298.459	5538
2300.463	5582
2302.466	5618
2304.471	5537
2306.475	5626
2308.477	5553
2310.478	5459
2312.481	5588
2314.481	5492
2316.481	5592
2318.482	5676
2320.482	5473
2322.48	5567
2324.48	5507
2326.478	5526
2328.476	5481
2330.473	5457
2332.469	5597
2334.465	5530
2336.46	5462
2338.454	5411
2340.45	5525
2342.444	5441
2344.437	5492
2346.43	5514
2348.421	5433
2350.414	5453
2352.405	5480
2354.396	5468
2356.386	5471
2358.376	5363
2360.366	5487
2362.355	5547
2364.343	5376
2366.331	5480
2368.317	5462
2370.304	5423
2372.292	5391
2374.278	5334
2376.262	5532
2378.247	5412
2380.23	5395
2382.216	5336
2384.199	5382
2386.181	5436
2388.163	5511
2390.144	5328
2392.127	5346
2394.107	5366
2396.087	5473
2398.066	5320
2400.046	5517
2402.023	5426
2404.004	5263
2405.981	5415
2407.957	5371
2409.934	5316
2411.91	5298
2413.886	5315
2415.862	5388
2417.836	5345
2419.809	5334
2421.784	5382
2423.756	5289
2425.73	5456
2427.701	5340
2429.672	5451
2431.644	5391
2433.615	5426
2435.586	5431
2437.555	5376
2439.523	5386
2441.491	5274
2443.459	5489
2445.428	5457
2447.395	5314
2449.361	5396
2451.327	5363
2453.292	5353
2455.257	5299
2457.223	5357
2459.187	5320
2461.15	5311
2463.113	5350
2465.076	5349
2467.039	5240
2468.999	5315
2470.96	5256
2472.921	5294
2474.881	5173
2476.841	5259
2478.8	5283
2480.759	5405
2482.717	5271
2484.675	5355
2486.63	5226
2488.589	5301
2490.545	5266
2492.5	5217
2494.455	5289
2496.408	5386
2498.364	5314
2500.318	5292
2502.27	5314
2504.223	5246
2506.174	5321
2508.126	5200
2510.078	5327
2512.03	5231
2513.979	5279
2515.927	5259
2517.877	5368
2519.826	5148
2521.775	5257
2523.722	5160
2525.668	5250
2527.616	5215
2529.561	5214
2531.508	5183
2533.452	5273
2535.398	5312
2537.342	5309
2539.284	5214
2541.229	5254
2543.173	5286
2545.114	5133
2547.055	5305
2548.996	5296
2550.938	5272
2552.878	5245
2554.817	5105
2556.756	5243
2558.695	5116
2560.633	5259
2562.572	5196
2564.509	5295
2566.445	5309
2568.382	5213
2570.317	5196
2572.254	5159
2574.189	5226
2576.123	5177
2578.057	5295
2579.99	5253
2581.923	5282
2583.855	5291
2585.788	5238
2587.719	5272
2589.65	5244
2591.579	5206
2593.511	5267
2595.44	5187
2597.37	5153
2599.297	5251
2601.225	5190
2603.153	5162
2605.08	5201
2607.007	5223
2608.932	5200
2610.858	5128
2612.782	5227
2614.709	5255
2616.632	5177
2618.556	5263
2620.478	5209
2622.401	5270
2624.324	5274
2626.247	5157
2628.167	5385
2630.088	5313
2632.008	5226
2633.928	5243
2635.848	5200
2637.766	5174
2639.684	5289
2641.603	5305
2643.519	5144
2645.437	5292
2647.353	5145
2649.27	5162
2651.184	5144
2653.099	5254
2655.014	5148
2656.928	5234
2658.842	5283
2660.755	5212
2662.667	5225
2664.579	5217
2666.491	5278
2668.402	5263
2670.312	5169
2672.222	5262
2674.132	5145
2676.042	5237
2677.951	5208
2679.859	5246
2681.766	5212
2683.674	5124
2685.582	5198
2687.488	5229
2689.392	5198
2691.298	5263
2693.202	5199
2695.107	5167
2697.012	5204
2698.914	5144
2700.817	5136
2702.72	5254
2704.622	5151
2706.524	5184
2708.425	5132
2710.326	5147
2712.225	5186
2714.125	5090
2716.024	5092
2717.923	5071
2719.822	5237
2721.719	5107
2723.616	5079
2725.512	5226
2727.41	5161
2729.305	5088
2731.201	5192
2733.095	5191
2734.99	5155
2736.884	5107
2738.778	5055
2740.67	5174
2742.562	5045
2744.455	5152
2746.346	5128
2748.238	5067
2750.129	5144
2752.018	5200
2753.907	5159
2755.797	5071
2757.687	5116
2759.575	5036
2761.462	5034
2763.349	5134
2765.237	5168
2767.124	5163
2769.009	5028
2770.894	5026
2772.779	5034
2774.663	5126
2776.547	5062
2778.431	5051
2780.314	5135
2782.197	5116
2784.078	5033
2785.96	5134
2787.842	5128
2789.723	5050
2791.603	5036
2793.483	5117
2795.362	5008
2797.241	5048
2799.121	5044
2800.997	5083
2802.874	5034
2804.751	5097
2806.628	5014
2808.506	5045
2810.38	5085
2812.255	5073
2814.13	5083
2816.003	5110
2817.878	5115
2819.752	5080
2821.623	5092
2823.496	4983
2825.368	5076
2827.238	5007
2829.111	5044
2830.98	5065
2832.851	5099
2834.719	4981
2836.589	5033
2838.458	5105
2840.327	5099
2842.193	5065
2844.061	5158
2845.927	5099
2847.794	5123
2849.66	5112
2851.525	5197
2853.39	5042
2855.254	5192
2857.117	5240
2858.983	5064
2860.845	5267
2862.707	5275
2864.569	5320
2866.431	5235
2868.293	5297
2870.154	5276
2872.013	5317
2873.873	5369
2875.733	5441
2877.592	5421
2879.451	5556
2881.309	5574
2883.166	5658
2885.022	5686
2886.879	5624
2888.736	5627
2890.591	5709
2892.446	5701
2894.301	5910
2896.155	5776
2898.009	5680
2899.863	5654
2901.716	5669
2903.568	5699
2905.419	5738
2907.27	5658
2909.123	5607
2910.973	5558
2912.824	5784
2914.673	5678
2916.521	5746
2918.372	5836
2920.22	5910
2922.067	5967
2923.914	6018
2925.761	6065
2927.607	6151
2929.455	6113
2931.301	6126
2933.144	6089
2934.99	6183
2936.833	6041
2938.678	6362
2940.522	6273
2942.364	6353
2944.207	6434
2946.048	6424
2947.891	6660
2949.731	6581
2951.571	6715
2953.412	6733
2955.25	6598
2957.09	6546
2958.93	6438
2960.767	6611
2962.606	6403
2964.443	6480
2966.279	6457
2968.116	6230
2969.953	6099
2971.788	5941
2973.623	5998
2975.457	5858
2977.292	5938
2979.127	5832
2980.959	5770
2982.792	5661
2984.624	5632
2986.455	5595
2988.288	5715
2990.119	5576
2991.949	5589
2993.779	5517
2995.608	5451
2997.439	5350
2999.268	5426
3001.096	5316
3002.923	5269
3004.751	5269
3006.578	5310
3008.406	5228
3010.232	5164
3012.057	5108
3013.883	5063
3015.706	5045
3017.532	5028
3019.356	4947
3021.179	5002
3023.002	4966
3024.823	4973
3026.646	4906
3028.469	4899
3030.289	4890
3032.11	4876
3033.93	4768
3035.749	4900
3037.57	4804
3039.39	4790
3041.207	4826
3043.026	4797
3044.842	4814
3046.661	4681
3048.477	4797
3050.294	4793
3052.109	4754
3053.925	4837
3055.739	4881
3057.555	4854
3059.368	4786
3061.181	4765
3062.995	4752
3064.807	4708
3066.62	4740
3068.433	4838
3070.243	4814
3072.054	4715
3073.865	4814
3075.675	4745
3077.485	4782
3079.293	4750
3081.102	4743
3082.911	4740
3084.719	4568
3086.527	4733
3088.333	4665
3090.139	4755
3091.945	4659
3093.75	4681
3095.557	4657
3097.361	4670
3099.165	4634
3100.969	4624
3102.772	4627
3104.575	4607
3106.379	4545
3108.181	4581
3109.982	4675
3111.783	4587
3113.584	4558
3115.386	4497
3117.186	4577
3118.985	4570
3120.783	4553
3122.582	4506
3124.381	4637
3126.179	4526
3127.975	4602
3129.772	4551
3131.569	4590
3133.365	4475
3135.161	4627
3136.956	4467
3138.751	4423
3140.544	4486
3142.338	4552
3144.132	4576
3145.925	4498
3147.717	4570
3149.509	4521
3151.301	4527
3153.091	4508
3154.884	4542
3156.673	4519
3158.462	4467
3160.252	4552
3162.041	4453
3163.831	4335
3165.618	4425
3167.405	4539
3169.193	4478
3170.979	4497
3172.767	4458
3174.553	4516
3176.338	4467
3178.123	4510
3179.907	4485
3181.692	4418
3183.477	4492
3185.259	4415
3187.042	4448
3188.824	4483
3190.607	4453
3192.389	4513
3194.17	4455
3195.951	4482
3197.73	4437
3199.51	4466
3201.289	4408
3203.07	4518
3204.848	4359
3206.626	4447
3208.403	4461
3210.18	4459
3211.959	4415
3213.735	4446
3215.511	4513
3217.285	4416
3219.06	4482
3220.836	4427
3222.611	4404
3224.384	4429
3226.158	4503
3227.929	4464
3229.702	4427
3231.476	4492
3233.248	4385
3235.018	4348
3236.789	4457
3238.56	4395
3240.33	4376
3242.1	4394
3243.869	4366
3245.637	4482
3247.405	4368
3249.172	4382
3250.941	4369
3252.707	4451
3254.474	4390
3256.24	4342
3258.006	4384
3259.772	4377
3261.537	4373
3263.301	4404
3265.065	4400
3266.828	4392
3268.592	4414
3270.355	4422
3272.117	4304
3273.878	4356
3275.64	4406
3277.401	4400
3279.162	4330
3280.922	4377
3282.682	4410
3284.441	4391
3286.199	4410
3287.959	4372
3289.716	4424
3291.475	4408
3293.232	4414
3294.988	4235
3296.744	4413
3298.501	4564
3300.256	4394
3302.011	4352
3303.766	4382
3305.52	4413
3307.275	4443
3309.028	4370
3310.781	4397
3312.533	4405
3314.285	4373
3316.038	4380
3317.789	4432
3319.54	4400
3321.289	4381
3323.039	4428
3324.789	4384
3326.539	4403
3328.288	4341
3330.035	4437
3331.783	4400
3333.531	4318
3335.28	4433
3337.025	4385
3338.771	4423
3340.518	4465
3342.262	4304
3344.009	4452
3345.753	4403
3347.497	4354
3349.24	4288
3350.983	4259
3352.726	4289
3354.469	4268
3356.212	4332
3357.952	4384
3359.694	4293
3361.434	4333
3363.176	4326
3364.916	4311
3366.654	4268
3368.394	4254
3370.132	4283
3371.871	4275
3373.61	4278
3375.346	4195
3377.083	4225
3378.82	4225
3380.556	4280
3382.292	4241
3384.027	4190
3385.763	4170
3387.497	4195
3389.231	4186
3390.965	4200
3392.698	4207
3394.431	4178
3396.164	4270
3397.896	4192
3399.627	4221
3401.36	4193
3403.09	4277
3404.82	4145
3406.55	4270
3408.279	4185
3410.01	4100
3411.738	4141
3413.467	4090
3415.194	4098
3416.92	4101
3418.647	4210
3420.375	4100
3422.102	4130
3423.827	4179
3425.553	4119
3427.277	4127
3429.003	4095
3430.727	4119
3432.451	4113
3434.173	4104
3435.896	4135
3437.62	4051
3439.343	4138
3441.063	4061
3442.785	4174
3444.505	4067
3446.226	4123
3447.948	4167
3449.666	4143
3451.386	4090
3453.104	4118
3454.823	4069
3456.541	3993
3458.259	4032
3459.976	4034
3461.693	3974
3463.408	4066
3465.125	3984
3466.841	3958
3468.556	3983
3470.271	4056
3471.985	4042
3473.698	3999
3475.414	4008
3477.126	3908
3478.838	3946
3480.55	3947
3482.263	3897
3483.975	3919
3485.686	3970
3487.396	3881
3489.106	3939
3490.817	3914
3492.526	3928
3494.236	3893
3495.944	3993
3497.652	3951
3499.359	3921
3501.066	3917
3502.775	3924
3504.481	3897
3506.187	3819
3507.893	3893
3509.598	3873
3511.304	3827
3513.009	3788
3514.713	3820
3516.417	3756
3518.12	3778
3519.821	3829
3521.525	3816
3523.228	3787
3524.929	3755
3526.631	3809
3528.33	3788
3530.032	3819
3531.733	3819
3533.433	3801
3535.131	3782
3536.83	3776
3538.529	3790
3540.227	3813
3541.925	3744
3543.623	3835
3545.319	3729
3547.016	3804
3548.712	3825
3550.408	3670
3552.103	3700
3553.798	3720
3555.491	3713
3557.188	3717
3558.88	3740
3560.574	3730
3562.266	3684
3563.959	3682
3565.651	3702
3567.343	3756
3569.035	3727
3570.725	3668
3572.415	3720
3574.106	3715
3575.797	3761
3577.485	3662
3579.174	3587
3580.863	3681
3582.551	3730
3584.238	3661
3585.926	3659
3587.613	3673
3589.3	3553
3590.986	3669
3592.671	3534
3594.357	3560
3596.042	3621
3597.726	3581
3599.41	3542
3601.094	3651
3602.778	3605
3604.461	3589
3606.143	3511
3607.825	3591
3609.507	3529
3611.188	3544
3612.87	3559
3614.551	3561
3616.229	3569
3617.909	3598
3619.589	3545
3621.269	3557
3622.948	3581
3624.625	3558
3626.302	3533
3627.98	3440
3629.657	3546
3631.334	3529
3633.01	3572
3634.686	3485
3636.361	3552
3638.036	3421
3639.712	3504
3641.385	3431
3643.06	3463
3644.732	3480
3646.405	3548
3648.08	3452
3649.751	3445
3651.424	3458
3653.094	3434
3654.766	3442
3656.436	3436
3658.106	3439
3659.777	3473
3661.446	3449
3663.115	3393
3664.783	3373
3666.452	3420
3668.121	3446
3669.788	3423
3671.454	3420
3673.121	3416
3674.789	3390
3676.455	3398
3678.12	3442
3679.784	3467
3681.45	3431
3683.114	3382
3684.779	3373
3686.442	3379
3688.105	3367
3689.768	3342
3691.43	3380
3693.093	3360
3694.754	3401
3696.415	3375
3698.076	3392
3699.736	3371
3701.396	3276
3703.057	3380
3704.716	3317
3706.375	3384
3708.034	3352
3709.692	3288
3711.351	3307
3713.008	3360
3714.665	3256
3716.321	3337
3717.977	3349
3719.634	3368
3721.29	3272
3722.945	3334
3724.598	3369
3726.253	3326
3727.907	3313
3729.561	3292
3731.214	3252
3732.867	3414
3734.518	3299
3736.171	3346
3737.824	3324
3739.474	3234
3741.125	3250
3742.775	3232
3744.425	3231
3746.074	3257
3747.725	3239
3749.373	3201
3751.022	3311
3752.669	3250
3754.318	3311
3755.966	3234
3757.612	3233
3759.259	3233
3760.905	3210
3762.55	3260
3764.197	3283
3765.842	3218
3767.486	3187
3769.131	3197
3770.774	3201
3772.417	3236
3774.061	3149
3775.705	3274
3777.347	3190
3778.988	3159
3780.629	3167
3782.271	3219
3783.912	3190
3785.552	3131
3787.192	3102
3788.831	3193
3790.472	3149
3792.112	3224
3793.75	3170
3795.388	3206
3797.024	3172
3798.661	3188
3800.3	3183
3801.936	3076
3803.572	3232
3805.208	3101
3806.844	3156
3808.48	3133
3810.115	3135
3811.748	3252
3813.382	3087
3815.016	3098
3816.649	3109
3818.283	3099
3819.914	3163
3821.547	3150
3823.178	3119
3824.809	3092
3826.441	3092
3828.072	3101
3829.701	3093
3831.331	3167
3832.96	3053
3834.591	3071
3836.219	3106
3837.847	3176
3839.475	3139
3841.102	3146
3842.729	3092
3844.357	3081
3845.984	3077
3847.609	3143
3849.234	3059
3850.86	3034
3852.485	3045
3854.11	3002
3855.734	3060
3857.357	3027
3858.981	3016
3860.603	3071
3862.227	3039
3863.848	3069
3865.471	3075
3867.092	3044
3868.713	3128
3870.334	3033
3871.954	3027
3873.575	3029
3875.194	3057
3876.813	3028
3878.433	2971
3880.051	3085
3881.669	3003
3883.286	3063
3884.904	3007
3886.52	3075
3888.138	3030
3889.754	3061
3891.37	3015
3892.985	2986
3894.6	2970
3896.216	3019
3897.831	2957
3899.444	3014
3901.058	3011
3902.67	2974
3904.283	3019
3905.897	2949
3907.509	2953
3909.121	2929
3910.731	2935
3912.342	3016
3913.954	2986
3915.563	2971
3917.174	2978
3918.783	3015
3920.391	2966
3922.002	2869
3923.611	2926
3925.218	2980
3926.826	2968
3928.432	2929
3930.039	2966
3931.647	2945
3933.253	2980
3934.859	2849
3936.464	2956
3938.068	2918
3939.675	2942
3941.278	2882
3942.883	2933
3944.486	2962
3946.089	2892
3947.692	2919
3949.295	2902
3950.898	2916
3952.499	2919
3954.1	2929
3955.7	2832
3957.303	2970
3958.903	2933
3960.502	2904
3962.101	2905
3963.7	2866
3965.301	2892
3966.899	2867
3968.497	2873
3970.094	2882
3971.691	2854
3973.288	2871
3974.885	2891
3976.481	2885
3978.077	2884
3979.672	2806
3981.267	2888
3982.863	2895
3984.457	2854
3986.051	2824
3987.645	2823
3989.238	2863
3990.831	2802
3992.425	2857
3994.017	2814
3995.607	2835
3997.199	2833
3998.79	2882
4000.382	2832
4001.973	2793
4003.561	2863
4005.151	2807
4006.741	2706
4008.331	2784
4009.918	2763
4011.507	2753
4013.095	2817
4014.681	2740
4016.269	2781
4017.856	2751
4019.443	2809
4021.028	2700
4022.614	2756
4024.199	2723
4025.785	2767
4027.37	2736
4028.953	2818
4030.536	2673
4032.12	2717
4033.704	2749
4035.287	2700
4036.869	2709
4038.45	2787
4040.032	2708
4041.613	2793
4043.195	2747
4044.776	2689
4046.356	2708
4047.935	2756
4049.515	2688
4051.095	2698
4052.674	2722
4054.251	2673
4055.829	2761
4057.406	2747
4058.985	2743
4060.562	2658
4062.139	2655
4063.715	2634
4065.29	2622
4066.865	2668
4068.442	2594
4070.016	2676
4071.59	2640
4073.164	2658
4074.738	2660
4076.312	2623
4077.885	2620
4079.458	2672
4081.03	2640
4082.602	2709
4084.173	2645
4085.745	2609
4087.315	2657
4088.886	2600
4090.456	2707
4092.026	2633
4093.596	2644
4095.165	2707
4096.734	2598
4098.301	2619
4099.869	2622
4101.437	2571
4103.006	2633
4104.572	2539
4106.139	2630
4107.704	2618
4109.27	2672
4110.837	2625
4112.401	2589
4113.966	2591
4115.53	2514
4117.094	2563
4118.659	2564
4120.223	2672
4121.785	2630
4123.347	2654
4124.909	2563
4126.471	2562
4128.034	2545
4129.595	2628
4131.155	2545
4132.716	2561
4134.275	2551
4135.836	2556
4137.395	2547
4138.955	2574
4140.513	2570
4142.071	2523
4143.628	2583
4145.188	2505
4146.745	2514
4148.302	2608
4149.858	2551
4151.414	2495
4152.971	2467
4154.526	2556
4156.081	2506
4157.635	2537
4159.189	2592
4160.745	2485
4162.298	2496
4163.852	2550
4165.405	2511
4166.957	2489
4168.51	2437
4170.063	2450
4171.614	2470
4173.166	2518
4174.717	2493
4176.267	2502
4177.817	2509
4179.368	2492
4180.917	2453
4182.466	2481
4184.016	2512
4185.564	2469
4187.112	2394
4188.66	2502
4190.207	2438
4191.754	2445
4193.301	2475
4194.848	2470
4196.394	2430
4197.94	2398
4199.484	2438
4201.03	2462
4202.575	2461
4204.12	2479
4205.663	2486
4207.207	2394
4208.75	2475
4210.292	2386
4211.836	2439
4213.378	2418
4214.92	2440
4216.46	2446
4218.002	2431
4219.544	2415
4221.083	2404
4222.625	2472
4224.164	2427
4225.703	2441
4227.244	2394
4228.782	2413
4230.32	2413
4231.857	2415
4233.395	2425
4234.933	2422
4236.471	2490
4238.007	2358
4239.542	2419
4241.078	2385
4242.614	2397
4244.15	2366
4245.685	2402
4247.219	2455
4248.753	2331
4250.287	2364
4251.82	2446
4253.354	2415
4254.887	2366
4256.419	2352
4257.951	2381
4259.483	2384
4261.016	2355
4262.547	2370
4264.078	2352
4265.608	2383
4267.137	2390
4268.668	2335
4270.197	2389
4271.727	2297
4273.254	2415
4274.783	2329
4276.311	2352
4277.84	2351
4279.366	2323
4280.894	2338
4282.42	2341
4283.946	2326
4285.473	2333
4286.998	2367
4288.523	2277
4290.047	2347
4291.572	2341
4293.096	2324
4294.622	2262
4296.144	2309
4297.668	2346
4299.19	2329
4300.713	2297
4302.236	2304
4303.758	2292
4305.279	2334
4306.799	2271
4308.321	2318
4309.842	2292
4311.361	2259
4312.882	2240
4314.401	2261
