400.0961	4278
402.6185	4258
405.1424	4355
407.6635	4345
410.1838	4406
412.7035	4410
415.2225	4330
417.7388	4345
420.2585	4527
422.7754	4544
425.2917	4631
427.8072	4634
430.3221	4536
432.8363	4554
435.3498	4634
437.8626	4650
440.3727	4601
442.8841	4698
445.3969	4618
447.907	4710
450.4142	4600
452.9229	4582
455.4289	4655
457.9362	4560
460.4449	4548
462.9488	4531
465.454	4584
467.9566	4630
470.4604	4607
472.9637	4602
475.4662	4568
477.966	4649
480.4671	4590
482.9656	4574
485.4633	4584
487.9645	4671
490.4608	4762
492.9566	4682
495.4536	4784
497.948	4684
500.4437	4668
502.9387	4688
505.431	4751
507.9226	4703
510.4136	4686
512.9079	4764
515.3975	4750
517.8864	4715
520.3746	4736
522.8622	4693
525.3491	4723
527.8394	4826
530.3249	4735
532.8098	4729
535.2939	4789
537.7774	4804
540.2623	4735
542.7444	4749
545.2259	4807
547.7067	4852
550.1868	4878
552.6683	4860
555.147	4725
557.6231	4812
560.1005	4677
562.5773	4839
565.0534	4820
567.5308	4934
570.0056	4960
572.4776	4868
574.951	4961
577.4237	4917
579.8978	4903
582.3671	4874
584.8378	4973
587.3079	5065
589.7773	5050
592.244	5008
594.714	5100
597.1793	5012
599.6461	4971
602.1121	5028
604.5754	5030
607.0421	5080
609.5042	4972
611.9675	4987
614.4282	4987
616.8902	5001
619.3515	4871
621.8122	4973
624.2702	4960
626.7296	4991
629.1863	4860
631.6423	4895
634.1017	4918
636.5563	5009
639.0104	4896
641.4658	4996
643.9185	4997
646.3725	4951
648.8239	4941
651.2766	5079
653.7266	5000
656.176	5003
658.6247	5051
661.0748	5051
663.5242	5013
665.9709	5073
668.417	4960
670.8624	5027
673.3092	5105
675.7533	5002
678.1968	5142
680.6395	5135
683.0817	5059
685.5251	5120
687.9659	5108
690.4061	5161
692.8456	5167
695.2844	5155
697.7226	5164
700.1621	5246
702.599	5119
705.0332	5162
707.4688	5044
709.9036	5202
712.3399	5212
714.7735	5164
717.2044	5106
719.6367	5358
722.0683	5246
724.4993	5291
726.9296	5263
729.3593	5223
731.7883	5346
734.2147	5361
736.6423	5335
739.0714	5300
741.4958	5251
743.9216	5445
746.3447	5348
748.7691	5378
751.1929	5391
753.616	5403
756.0366	5384
758.4584	5470
760.8776	5461
763.2982	5420
765.718	5448
768.1373	5481
770.5539	5512
772.9698	5419
775.3871	5595
777.8038	5445
780.2178	5430
782.6332	5374
785.0459	5478
787.458	5468
789.8714	5452
792.2842	5467
794.6943	5438
797.1038	5442
799.5127	5339
801.9209	5613
804.3324	5473
806.7393	5618
809.1456	5430
811.5513	5570
813.9562	5593
816.3625	5622
818.7663	5691
821.1693	5546
823.5718	5583
825.9735	5734
828.3746	5636
830.7771	5532
833.177	5627
835.5762	5592
837.9747	5553
840.3727	5695
842.772	5674
845.1666	5684
847.5626	5676
849.958	5636
852.3527	5829
854.7488	5740
857.1403	5805
859.5331	5777
861.9253	5810
864.3168	5743
866.7057	5712
869.098	5755
871.4876	5789
873.8746	5638
876.263	5646
878.6487	5722
881.0378	5667
883.4243	5718
885.8081	5730
888.1933	5705
890.5759	5723
892.9598	5701
895.343	5653
897.7256	5782
900.1057	5658
902.4871	5695
904.8659	5686
907.246	5739
909.6254	5800
912.0023	5778
914.3786	5965
916.7562	6001
919.1331	5967
921.5074	6218
923.8831	6171
926.2562	6072
928.6287	6140
931.0005	6024
933.3757	6142
935.7462	6135
938.1162	6114
940.4855	6254
942.8542	6078
945.2242	6246
947.5916	6450
949.9584	6595
952.3266	6613
954.6921	6906
957.0571	7128
959.4233	7410
961.787	7550
964.15	7450
966.5125	7321
968.8742	6946
971.2354	6708
973.5959	6662
975.9559	6296
978.3151	6312
980.6738	6141
983.0338	6075
985.3912	5903
987.7461	5950
990.1022	5934
992.4578	5838
994.8127	5970
997.1689	5860
999.5207	5882
1001.874	5986
1004.226	5991
1006.576	5951
1008.929	5994
1011.28	5974
1013.628	6093
1015.977	5996
1018.324	5998
1020.674	5864
1023.019	5977
1025.366	6013
1027.713	5987
1030.056	6022
1032.399	5901
1034.746	5983
1037.087	6077
1039.431	6166
1041.771	6068
1044.113	6093
1046.454	6069
1048.793	6063
1051.133	6054
1053.471	6076
1055.807	6047
1058.146	6079
1060.483	6158
1062.818	6060
1065.153	6098
1067.489	6167
1069.822	6131
1072.156	6250
1074.488	6179
1076.82	6298
1079.15	6222
1081.48	6115
1083.814	6113
1086.143	6054
1088.471	6034
1090.799	6113
1093.126	5872
1095.452	6090
1097.78	6087
1100.105	6127
1102.43	6114
1104.754	6156
1107.077	5976
1109.4	6061
1111.722	6125
1114.044	6117
1116.365	6109
1118.685	6134
1121.005	6160
1123.324	6090
1125.643	6174
1127.961	6105
1130.278	6121
1132.595	6037
1134.911	6057
1137.226	6122
1139.541	6101
1141.854	6086
1144.167	6033
1146.482	6078
1148.793	6099
1151.105	6103
1153.414	6060
1155.725	6127
1158.033	6061
1160.344	6110
1162.651	6144
1164.959	6019
1167.265	6096
1169.572	6078
1171.878	6214
1174.184	6127
1176.488	6158
1178.79	6128
1181.094	6134
1183.396	6231
1185.699	6121
1188.001	6093
1190.301	6185
1192.6	6003
1194.9	6120
1197.2	6142
1199.497	6212
1201.794	6159
1204.09	6167
1206.387	6232
1208.684	6031
1210.978	6124
1213.272	6129
1215.565	6161
1217.858	6092
1220.15	6040
1222.443	6067
1224.734	6298
1227.024	6247
1229.313	6172
1231.602	6246
1233.892	6343
1236.18	6379
1238.467	6389
1240.754	6279
1243.04	6309
1245.325	6376
1247.612	6408
1249.896	6458
1252.178	6385
1254.461	6413
1256.743	6324
1259.027	6498
1261.308	6368
1263.587	6437
1265.867	6331
1268.146	6448
1270.425	6391
1272.703	6333
1274.981	6438
1277.256	6459
1279.532	6396
1281.808	6271
1284.083	6323
1286.358	6396
1288.63	6368
1290.904	6281
1293.175	6317
1295.449	6202
1297.719	6337
1299.99	6300
1302.259	6343
1304.529	6227
1306.798	6206
1309.065	6219
1311.333	6305
1313.599	6290
1315.866	6302
1318.131	6299
1320.396	6306
1322.66	6214
1324.925	6292
1327.187	6254
1329.448	6251
1331.711	6333
1333.974	6403
1336.234	6275
1338.493	6394
1340.752	6299
1343.01	6230
1345.269	6214
1347.526	6289
1349.784	6249
1352.04	6452
1354.295	6217
1356.552	6367
1358.806	6234
1361.059	6328
1363.312	6215
1365.564	6224
1367.818	6347
1370.069	6339
1372.318	6251
1374.568	6329
1376.817	6375
1379.066	6377
1381.316	6264
1383.564	6338
1385.809	6478
1388.056	6317
1390.301	6417
1392.549	6544
1394.793	6573
1397.036	6512
1399.279	6492
1401.522	6633
1403.763	6636
1406.007	6701
1408.248	6637
1410.487	6517
1412.727	6583
1414.965	6600
1417.205	6678
1419.442	6551
1421.68	6632
1423.915	6556
1426.152	6633
1428.388	6690
1430.623	6559
1432.857	6521
1435.091	6524
1437.323	6746
1439.556	6689
1441.789	6715
1444.019	6657
1446.25	6715
1448.48	6677
1450.708	6717
1452.938	6721
1455.167	6789
1457.394	6655
1459.62	6724
1461.846	6765
1464.073	6687
1466.299	6643
1468.523	6597
1470.746	6494
1472.969	6576
1475.191	6442
1477.415	6527
1479.636	6382
1481.858	6367
1484.078	6218
1486.298	6481
1488.518	6397
1490.736	6246
1492.954	6302
1495.169	6357
1497.386	6332
1499.602	6302
1501.819	6278
1504.034	6301
1506.248	6378
1508.462	6331
1510.675	6291
1512.888	6330
1515.1	6326
1517.311	6246
1519.522	6249
1521.732	6210
1523.942	6283
1526.151	6330
1528.36	6260
1530.566	6291
1532.773	6281
1534.98	6230
1537.187	6248
1539.392	6193
1541.596	6406
1543.801	6361
1546.005	6293
1548.208	6332
1550.411	6371
1552.612	6320
1554.814	6444
1557.013	6492
1559.212	6483
1561.414	6464
1563.612	6444
1565.811	6483
1568.007	6417
1570.203	6434
1572.403	6383
1574.598	6471
1576.792	6365
1578.988	6440
1581.181	6334
1583.376	6456
1585.568	6507
1587.761	6530
1589.952	6644
1592.143	6525
1594.333	6522
1596.524	6549
1598.715	6604
1600.903	6548
1603.091	6578
1605.278	6524
1607.466	6491
1609.652	6547
1611.838	6551
1614.023	6524
1616.207	6566
1618.391	6626
1620.576	6476
1622.759	6600
1624.941	6479
1627.123	6509
1629.304	6549
1631.484	6548
1633.664	6621
1635.844	6499
1638.022	6613
1640.201	6677
1642.38	6659
1644.556	6587
1646.732	6600
1648.908	6655
1651.084	6723
1653.257	6557
1655.433	6593
1657.607	6614
1659.779	6562
1661.951	6626
1664.122	6790
1666.295	6773
1668.467	6614
1670.635	6664
1672.805	6745
1674.973	6649
1677.142	6827
1679.31	6743
1681.478	6708
1683.644	6600
1685.81	6709
1687.975	6613
1690.142	6702
1692.305	6617
1694.468	6604
1696.632	6722
1698.794	6599
1700.957	6538
1703.119	6473
1705.279	6489
1707.439	6528
1709.598	6457
1711.758	6503
1713.917	6446
1716.075	6615
1718.231	6386
1720.388	6499
1722.543	6518
1724.702	6543
1726.856	6569
1729.01	6344
1731.164	6433
1733.317	6396
1735.471	6529
1737.623	6424
1739.774	6523
1741.925	6470
1744.075	6359
1746.225	6405
1748.376	6491
1750.524	6619
1752.672	6570
1754.82	6615
1756.965	6588
1759.113	6529
1761.259	6509
1763.405	6599
1765.549	6579
1767.694	6581
1769.836	6369
1771.981	6517
1774.123	6518
1776.264	6556
1778.405	6455
1780.546	6535
1782.687	6587
1784.827	6604
1786.966	6597
1789.103	6600
1791.242	6558
1793.381	6517
1795.517	6544
1797.653	6484
1799.788	6553
1801.923	6591
1804.057	6552
1806.193	6660
1808.326	6578
1810.457	6460
1812.59	6492
1814.721	6498
1816.855	6604
1818.984	6625
1821.113	6624
1823.244	6477
1825.372	6515
1827.499	6554
1829.63	6498
1831.756	6531
1833.882	6477
1836.007	6602
1838.132	6489
1840.26	6407
1842.384	6443
1844.507	6511
1846.63	6536
1848.752	6455
1850.875	6576
1852.996	6475
1855.118	6497
1857.238	6528
1859.358	6573
1861.477	6352
1863.597	6463
1865.715	6503
1867.832	6439
1869.948	6562
1872.064	6464
1874.181	6442
1876.297	6497
1878.411	6514
1880.526	6505
1882.639	6548
1884.752	6410
1886.865	6585
1888.977	6486
1891.089	6566
1893.2	6543
1895.308	6485
1897.42	6535
1899.53	6593
1901.639	6492
1903.745	6539
1905.853	6599
1907.962	6531
1910.067	6644
1912.174	6407
1914.278	6506
1916.383	6566
1918.486	6555
1920.592	6540
1922.694	6619
1924.797	6609
1926.898	6629
1929	6669
1931.102	6585
1933.203	6663
1935.301	6584
1937.401	6517
1939.499	6593
1941.598	6586
1943.697	6662
1945.793	6663
1947.888	6631
1949.985	6598
1952.08	6654
1954.176	6626
1956.269	6489
1958.364	6652
1960.457	6626
1962.549	6693
1964.642	6584
1966.733	6617
1968.823	6627
1970.913	6584
1973.005	6599
1975.093	6661
1977.184	6571
1979.271	6547
1981.359	6488
1983.446	6505
1985.532	6480
1987.619	6539
1989.705	6535
1991.789	6577
1993.874	6515
1995.956	6511
1998.041	6476
2000.123	6468
2002.206	6484
2004.287	6573
2006.368	6529
2008.449	6536
2010.529	6564
2012.609	6556
2014.688	6550
2016.766	6554
2018.843	6459
2020.922	6502
2022.999	6456
2025.074	6430
2027.15	6534
2029.225	6485
2031.299	6526
2033.375	6546
2035.447	6487
2037.52	6447
2039.592	6582
2041.664	6522
2043.736	6612
2045.807	6449
2047.876	6544
2049.947	6535
2052.015	6362
2054.086	6461
2056.153	6557
2058.221	6659
2060.288	6469
2062.353	6615
2064.42	6467
2066.486	6539
2068.55	6562
2070.614	6559
2072.678	6492
2074.741	6464
2076.805	6517
2078.866	6644
2080.929	6594
2082.99	6555
2085.049	6576
2087.109	6526
2089.17	6455
2091.228	6512
2093.286	6660
2095.344	6508
2097.4	6630
2099.46	6515
2101.516	6487
2103.572	6590
2105.626	6554
2107.679	6503
2109.735	6550
2111.788	6538
2113.841	6634
2115.894	6502
2117.945	6520
2119.997	6481
2122.049	6633
2124.1	6546
2126.148	6515
2128.197	6467
2130.246	6481
2132.296	6477
2134.342	6452
2136.39	6540
2138.437	6435
2140.483	6391
2142.527	6499
2144.574	6549
2146.619	6464
2148.661	6481
2150.705	6490
2152.747	6387
2154.792	6538
2156.832	6468
2158.874	6462
2160.915	6398
2162.954	6538
2164.995	6443
2167.034	6464
2169.072	6429
2171.111	6382
2173.148	6409
2175.186	6436
2177.223	6423
2179.258	6495
2181.294	6536
2183.328	6420
2185.362	6422
2187.398	6383
2189.431	6417
2191.463	6460
2193.495	6400
2195.528	6302
2197.56	6314
2199.59	6315
2201.62	6449
2203.649	6291
2205.678	6406
2207.708	6401
2209.737	6387
2211.764	6408
2213.791	6362
2215.817	6253
2217.843	6383
2219.87	6360
2221.895	6399
2223.919	6339
2225.942	6266
2227.966	6335
2229.988	6291
2232.012	6366
2234.032	6479
2236.054	6386
2238.074	6308
2240.095	6375
2242.116	6432
2244.135	6326
2246.153	6355
2248.171	6419
2250.188	6403
2252.208	6356
2254.223	6341
2256.239	6344
2258.255	6310
2260.269	6337
2262.283	6328
2264.3	6331
2266.312	6390
2268.325	6291
2270.336	6316
2272.349	6306
2274.362	6268
2276.372	6338
2278.383	6327
2280.392	6289
2282.402	6290
2284.409	6315
2286.418	6247
2288.427	6314
2290.433	6255
2292.441	6286
2294.446	6332
2296.453	6169
2298.459	6301
2300.463	6373
2302.466	6307
2304.471	6281
2306.475	6304
2308.477	6266
2310.478	6220
2312.481	6308
2314.481	6393
2316.481	6269
2318.482	6248
2320.482	6266
2322.48	6369
2324.48	6273
2326.478	6206
2328.476	6302
2330.473	6307
2332.469	6173
2334.465	6260
2336.46	6225
2338.454	6296
2340.45	6208
2342.444	6133
2344.437	6204
2346.43	6244
2348.421	6212
2350.414	6226
2352.405	6199
2354.396	6160
2356.386	6142
2358.376	6130
2360.366	6139
2362.355	6251
2364.343	6232
2366.331	6086
2368.317	6251
2370.304	6230
2372.292	6110
2374.278	6162
2376.262	6277
2378.247	6063
2380.23	6105
2382.216	6192
2384.199	6012
2386.181	6131
2388.163	6078
2390.144	6132
2392.127	6170
2394.107	6096
2396.087	6118
2398.066	6076
2400.046	6157
2402.023	6144
2404.004	6122
2405.981	6167
2407.957	6121
2409.934	6108
2411.91	6073
2413.886	6157
2415.862	6134
2417.836	6045
2419.809	6091
2421.784	6053
2423.756	6037
2425.73	6149
2427.701	6030
2429.672	5972
2431.644	6046
2433.615	6175
2435.586	6086
2437.555	6078
2439.523	6044
2441.491	6137
2443.459	6134
2445.428	6171
2447.395	5967
2449.361	6134
2451.327	6192
2453.292	6056
2455.257	6005
2457.223	6000
2459.187	6168
2461.15	6072
2463.113	6123
2465.076	6106
2467.039	6098
2468.999	6120
2470.96	5910
2472.921	6043
2474.881	6051
2476.841	6013
2478.8	6128
2480.759	5980
2482.717	5958
2484.675	5989
2486.63	5991
2488.589	6025
2490.545	6109
2492.5	5949
2494.455	6104
2496.408	6036
2498.364	5989
2500.318	6039
2502.27	5903
2504.223	5947
2506.174	5983
2508.126	6013
2510.078	5961
2512.03	6004
2513.979	6029
2515.927	5937
2517.877	5876
2519.826	6037
2521.775	6030
2523.722	5962
2525.668	5882
2527.616	5931
2529.561	5922
2531.508	5876
2533.452	5947
2535.398	5876
2537.342	5792
2539.284	5851
2541.229	5983
2543.173	5903
2545.114	5857
2547.055	5919
2548.996	6051
2550.938	5970
2552.878	6050
2554.817	5938
2556.756	5996
2558.695	5936
2560.633	5879
2562.572	5838
2564.509	6060
2566.445	5890
2568.382	5942
2570.317	5957
2572.254	5909
2574.189	5895
2576.123	5873
2578.057	5870
2579.99	5931
2581.923	5937
2583.855	5948
2585.788	6028
2587.719	5823
2589.65	6018
2591.579	5871
2593.511	5950
2595.44	5945
2597.37	5937
2599.297	5982
2601.225	5901
2603.153	5999
2605.08	5937
2607.007	5962
2608.932	5894
2610.858	5952
2612.782	5807
2614.709	5929
2616.632	6029
2618.556	5978
2620.478	5902
2622.401	5918
2624.324	5917
2626.247	5770
2628.167	5807
2630.088	6013
2632.008	5996
2633.928	5929
2635.848	5896
2637.766	5868
2639.684	5809
2641.603	6030
2643.519	5894
2645.437	5894
2647.353	5879
2649.27	5814
2651.184	5979
2653.099	5944
2655.014	5877
2656.928	6048
2658.842	5942
2660.755	5873
2662.667	6011
2664.579	5898
2666.491	5943
2668.402	5996
2670.312	5875
2672.222	5886
2674.132	5916
2676.042	5908
2677.951	5954
2679.859	5894
2681.766	5804
2683.674	5952
2685.582	5872
2687.488	5868
2689.392	5863
2691.298	5896
2693.202	5857
2695.107	5899
2697.012	5782
2698.914	5863
2700.817	5880
2702.72	5820
2704.622	5860
2706.524	5856
2708.425	5770
2710.326	5830
2712.225	5777
2714.125	5754
2716.024	5747
2717.923	5802
2719.822	5777
2721.719	5882
2723.616	5778
2725.512	5958
2727.41	5764
2729.305	5691
2731.201	5802
2733.095	5862
2734.99	5876
2736.884	5852
2738.778	5724
2740.67	5792
2742.562	5831
2744.455	5815
2746.346	5799
2748.238	5798
2750.129	5815
2752.018	5774
2753.907	5762
2755.797	5729
2757.687	5815
2759.575	5783
2761.462	5809
2763.349	5686
2765.237	5802
2767.124	5881
2769.009	5694
2770.894	5683
2772.779	5757
2774.663	5716
2776.547	5766
2778.431	5810
2780.314	5610
2782.197	5728
2784.078	5805
2785.96	5747
2787.842	5751
2789.723	5779
2791.603	5714
2793.483	5695
2795.362	5641
2797.241	5775
2799.121	5677
2800.997	5719
2802.874	5666
2804.751	5747
2806.628	5707
2808.506	5824
2810.38	5678
2812.255	5710
2814.13	5638
2816.003	5718
2817.878	5692
2819.752	5683
2821.623	5694
2823.496	5671
2825.368	5787
2827.238	5691
2829.111	5693
2830.98	5715
2832.851	5736
2834.719	5581
2836.589	5739
2838.458	5658
2840.327	5731
2842.193	5695
2844.061	5795
2845.927	5788
2847.794	5767
2849.66	5812
2851.525	5748
2853.39	5821
2855.254	5729
2857.117	5948
2858.983	5732
2860.845	5861
2862.707	5888
2864.569	5957
2866.431	5895
2868.293	5967
2870.154	5993
2872.013	6003
2873.873	5990
2875.733	6223
2877.592	6134
2879.451	6252
2881.309	6375
2883.166	6234
2885.022	6481
2886.879	6359
2888.736	6389
2890.591	6275
2892.446	6325
2894.301	6457
2896.155	6322
2898.009	6370
2899.863	6355
2901.716	6290
2903.568	6276
2905.419	6318
2907.27	6237
2909.123	6317
2910.973	6337
2912.824	6440
2914.673	6491
2916.521	6449
2918.372	6568
2920.22	6554
2922.067	6701
2923.914	6696
2925.761	6775
2927.607	6824
2929.455	6824
2931.301	6908
2933.144	6987
2934.99	6899
2936.833	7086
2938.678	7046
2940.522	7025
2942.364	7208
2944.207	7275
2946.048	7362
2947.891	7534
2949.731	7406
2951.571	7297
2953.412	7306
2955.25	7286
2957.09	7146
2958.93	7042
2960.767	7053
2962.606	7014
2964.443	6956
2966.279	6846
2968.116	6650
2969.953	6666
2971.788	6615
2973.623	6549
2975.457	6582
2977.292	6563
2979.127	6394
2980.959	6433
2982.792	6354
2984.624	6399
2986.455	6268
2988.288	6275
2990.119	6360
2991.949	6285
2993.779	6233
2995.608	6136
2997.439	6131
2999.268	6176
3001.096	6011
3002.923	6006
3004.751	5934
3006.578	5872
3008.406	5846
3010.232	5747
3012.057	5717
3013.883	5701
3015.706	5710
3017.532	5656
3019.356	5630
3021.179	5638
3023.002	5616
3024.823	5524
3026.646	5424
3028.469	5414
3030.289	5529
3032.11	5410
3033.93	5516
3035.749	5428
3037.57	5413
3039.39	5539
3041.207	5443
3043.026	5520
3044.842	5423
3046.661	5377
3048.477	5468
3050.294	5400
3052.109	5403
3053.925	5442
3055.739	5440
3057.555	5489
3059.368	5372
3061.181	5463
3062.995	5354
3064.807	5403
3066.62	5366
3068.433	5461
3070.243	5390
3072.054	5319
3073.865	5342
3075.675	5278
3077.485	5240
3079.293	5401
3081.102	5348
3082.911	5406
3084.719	5176
3086.527	5279
3088.333	5228
3090.139	5316
3091.945	5244
3093.75	5171
3095.557	5233
3097.361	5158
3099.165	5318
3100.969	5205
3102.772	5279
3104.575	5332
3106.379	5262
3108.181	5142
3109.982	5274
3111.783	5199
3113.584	5202
3115.386	5121
3117.186	5201
3118.985	5062
3120.783	5146
3122.582	5279
3124.381	5139
3126.179	5202
3127.975	5181
3129.772	5156
3131.569	5255
3133.365	5105
3135.161	5109
3136.956	5130
3138.751	5128
3140.544	5074
3142.338	5117
3144.132	5072
3145.925	5129
3147.717	5149
3149.509	5021
3151.301	5075
3153.091	5074
3154.884	5048
3156.673	5033
3158.462	5080
3160.252	5047
3162.041	5133
3163.831	5060
3165.618	5026
3167.405	5096
3169.193	4973
3170.979	5071
3172.767	5059
3174.553	5110
3176.338	5064
3178.123	5076
3179.907	5003
3181.692	5032
3183.477	5020
3185.259	5120
3187.042	5033
3188.824	4946
3190.607	5117
3192.389	4963
3194.17	5076
3195.951	5053
3197.73	4892
3199.51	5010
3201.289	5010
3203.07	5087
3204.848	5056
3206.626	5010
3208.403	4928
3210.18	5046
3211.959	4966
3213.735	5094
3215.511	5012
3217.285	4899
3219.06	5001
3220.836	4987
3222.611	5036
3224.384	4958
3226.158	5039
3227.929	5064
3229.702	5033
3231.476	4926
3233.248	4970
3235.018	4991
3236.789	4987
3238.56	5017
3240.33	4953
3242.1	4979
3243.869	5005
3245.637	4974
3247.405	4909
3249.172	4893
3250.941	4986
3252.707	4940
3254.474	5032
3256.24	5071
3258.006	4876
3259.772	5013
3261.537	5028
3263.301	4990
3265.065	5031
3266.828	4967
3268.592	5049
3270.355	5010
3272.117	4943
3273.878	5018
3275.64	5064
3277.401	5051
3279.162	5030
3280.922	4976
3282.682	4928
3284.441	4936
3286.199	4951
3287.959	4968
3289.716	4937
3291.475	5047
3293.232	4987
3294.988	4998
3296.744	4980
3298.501	5032
3300.256	5065
3302.011	4985
3303.766	5020
3305.52	5038
3307.275	4938
3309.028	5066
3310.781	4819
3312.533	4874
3314.285	4948
3316.038	5035
3317.789	4964
3319.54	4899
3321.289	4974
3323.039	4925
3324.789	5010
3326.539	4909
3328.288	4898
3330.035	4929
3331.783	4949
3333.531	4930
3335.28	4847
3337.025	4819
3338.771	4883
3340.518	4889
3342.262	4882
3344.009	4924
3345.753	4945
3347.497	4873
3349.24	5019
3350.983	4938
3352.726	4891
3354.469	4967
3356.212	4954
3357.952	4903
3359.694	4936
3361.434	4823
3363.176	4887
3364.916	4892
3366.654	4823
3368.394	4789
3370.132	4887
3371.871	4763
3373.61	4808
3375.346	4881
3377.083	4809
3378.82	4713
3380.556	4897
3382.292	4810
3384.027	4749
3385.763	4928
3387.497	4807
3389.231	4873
3390.965	4823
3392.698	4826
3394.431	4730
3396.164	4624
3397.896	4740
3399.627	4819
3401.36	4776
3403.09	4766
3404.82	4683
3406.55	4640
3408.279	4762
3410.01	4753
3411.738	4790
3413.467	4821
3415.194	4752
3416.92	4651
3418.647	4717
3420.375	4714
3422.102	4732
3423.827	4715
3425.553	4616
3427.277	4639
3429.003	4631
3430.727	4691
3432.451	4638
3434.173	4745
3435.896	4646
3437.62	4680
3439.343	4744
3441.063	4714
3442.785	4587
3444.505	4600
3446.226	4600
3447.948	4608
3449.666	4596
3451.386	4606
3453.104	4531
3454.823	4530
3456.541	4558
3458.259	4566
3459.976	4650
3461.693	4579
3463.408	4565
3465.125	4561
3466.841	4518
3468.556	4607
3470.271	4455
3471.985	4534
3473.698	4593
3475.414	4510
3477.126	4446
3478.838	4536
3480.55	4457
3482.263	4448
3483.975	4553
3485.686	4496
3487.396	4442
3489.106	4488
3490.817	4436
3492.526	4351
3494.236	4408
3495.944	4431
3497.652	4444
3499.359	4428
3501.066	4434
3502.775	4349
3504.481	4380
3506.187	4411
3507.893	4400
3509.598	4374
3511.304	4397
3513.009	4415
3514.713	4330
3516.417	4315
3518.12	4318
3519.821	4294
3521.525	4301
3523.228	4373
3524.929	4485
3526.631	4266
3528.33	4307
3530.032	4301
3531.733	4341
3533.433	4261
3535.131	4362
3536.83	4270
3538.529	4378
3540.227	4246
3541.925	4195
3543.623	4241
3545.319	4322
3547.016	4234
3548.712	4361
3550.408	4147
3552.103	4290
3553.798	4254
3555.491	4152
3557.188	4242
3558.88	4127
3560.574	4246
3562.266	4203
3563.959	4282
3565.651	4157
3567.343	4242
3569.035	4162
3570.725	4248
3572.415	4189
3574.106	4259
3575.797	4154
3577.485	4252
3579.174	4232
3580.863	4109
3582.551	4156
3584.238	4083
3585.926	4153
3587.613	4123
3589.3	4188
3590.986	4172
3592.671	4115
3594.357	4077
3596.042	4152
3597.726	4026
3599.41	4013
3601.094	4130
3602.778	4087
3604.461	4043
3606.143	4110
3607.825	4040
3609.507	4002
3611.188	3952
3612.87	4049
3614.551	4003
3616.229	3978
3617.909	4038
3619.589	4097
3621.269	4010
3622.948	3963
3624.625	3946
3626.302	3979
3627.98	3929
3629.657	3966
3631.334	4051
3633.01	3942
3634.686	3980
3636.361	3972
3638.036	3972
3639.712	3958
3641.385	3928
3643.06	3917
3644.732	3939
3646.405	3875
3648.08	3999
3649.751	4001
3651.424	3877
3653.094	3885
3654.766	3869
3656.436	3828
3658.106	3967
3659.777	3883
3661.446	3937
3663.115	3908
3664.783	3825
3666.452	3896
3668.121	3910
3669.788	3779
3671.454	3872
3673.121	3928
3674.789	3798
3676.455	3798
3678.12	3729
3679.784	3897
3681.45	3806
3683.114	3812
3684.779	3836
3686.442	3758
3688.105	3830
3689.768	3811
3691.43	3773
3693.093	3714
3694.754	3758
3696.415	3747
3698.076	3829
3699.736	3777
3701.396	3744
3703.057	3778
3704.716	3777
3706.375	3771
3708.034	3779
3709.692	3779
3711.351	3733
3713.008	3678
3714.665	3775
3716.321	3764
3717.977	3715
3719.634	3776
3721.29	3818
3722.945	3618
3724.598	3675
3726.253	3663
3727.907	3668
3729.561	3755
3731.214	3699
3732.867	3707
3734.518	3750
3736.171	3743
3737.824	3779
3739.474	3640
3741.125	3715
3742.775	3672
3744.425	3677
3746.074	3645
3747.725	3695
3749.373	3636
3751.022	3669
3752.669	3529
3754.318	3681
3755.966	3652
3757.612	3728
3759.259	3640
3760.905	3680
3762.55	3722
3764.197	3707
3765.842	3664
3767.486	3730
3769.131	3585
3770.774	3560
3772.417	3594
3774.061	3661
3775.705	3630
3777.347	3618
3778.988	3615
3780.629	3628
3782.271	3634
3783.912	3557
3785.552	3582
3787.192	3700
3788.831	3625
3790.472	3561
3792.112	3555
3793.75	3499
3795.388	3615
3797.024	3609
3798.661	3590
3800.3	3562
3801.936	3496
3803.572	3571
3805.208	3599
3806.844	3498
3808.48	3623
3810.115	3550
3811.748	3541
3813.382	3519
3815.016	3453
3816.649	3530
3818.283	3475
3819.914	3465
3821.547	3541
3823.178	3493
3824.809	3561
3826.441	3462
3828.072	3504
3829.701	3485
3831.331	3516
3832.96	3555
3834.591	3560
3836.219	3509
3837.847	3650
3839.475	3483
3841.102	3446
3842.729	3477
3844.357	3488
3845.984	3488
3847.609	3486
3849.234	3383
3850.86	3450
3852.485	3446
3854.11	3418
3855.734	3412
3857.357	3455
3858.981	3406
3860.603	3397
3862.227	3410
3863.848	3413
3865.471	3384
3867.092	3447
3868.713	3390
3870.334	3395
3871.954	3315
3873.575	3421
3875.194	3390
3876.813	3437
3878.433	3377
3880.051	3425
3881.669	3380
3883.286	3331
3884.904	3394
3886.52	3358
3888.138	3427
3889.754	3419
3891.37	3389
3892.985	3324
3894.6	3330
3896.216	3417
3897.831	3333
3899.444	3339
3901.058	3400
3902.67	3293
3904.283	3424
3905.897	3375
3907.509	3362
3909.121	3372
3910.731	3285
3912.342	3362
3913.954	3357
3915.563	3297
3917.174	3337
3918.783	3359
3920.391	3327
3922.002	3299
3923.611	3358
3925.218	3350
3926.826	3345
3928.432	3359
3930.039	3351
3931.647	3333
3933.253	3315
3934.859	3282
3936.464	3298
3938.068	3315
3939.675	3323
3941.278	3243
3942.883	3314
3944.486	3266
3946.089	3326
3947.692	3264
3949.295	3293
3950.898	3314
3952.499	3357
3954.1	3277
3955.7	3383
3957.303	3262
3958.903	3233
3960.502	3276
3962.101	3252
3963.7	3251
3965.301	3262
3966.899	3272
3968.497	3264
3970.094	3173
3971.691	3268
3973.288	3258
3974.885	3272
3976.481	3239
3978.077	3209
3979.672	3251
3981.267	3131
3982.863	3209
3984.457	3202
3986.051	3227
3987.645	3147
3989.238	3161
3990.831	3204
3992.425	3216
3994.017	3168
3995.607	3218
3997.199	3186
3998.79	3165
4000.382	3106
4001.973	3165
4003.561	3062
4005.151	3235
4006.741	3133
4008.331	3113
4009.918	3142
4011.507	3196
4013.095	3133
4014.681	3095
4016.269	3164
4017.856	3077
4019.443	3112
4021.028	3074
4022.614	3132
4024.199	3083
4025.785	3021
4027.37	3096
4028.953	3160
4030.536	3068
4032.12	3129
4033.704	3019
4035.287	3089
4036.869	3037
4038.45	2994
4040.032	3024
4041.613	3062
4043.195	3049
4044.776	3032
4046.356	3082
4047.935	3072
4049.515	3027
4051.095	3003
4052.674	3163
4054.251	3001
4055.829	3033
4057.406	2992
4058.985	3002
4060.562	3065
4062.139	2999
4063.715	2960
4065.29	3031
4066.865	3020
4068.442	3006
4070.016	3048
4071.59	3096
4073.164	3085
4074.738	3027
4076.312	2907
4077.885	2954
4079.458	3066
4081.03	2979
4082.602	3037
4084.173	2989
4085.745	2954
4087.315	2942
4088.886	3008
4090.456	2979
4092.026	3004
4093.596	2927
4095.165	2916
4096.734	2963
4098.301	2910
4099.869	2908
4101.437	2911
4103.006	2990
4104.572	2836
4106.139	2948
4107.704	2945
4109.27	2855
4110.837	2949
4112.401	2962
4113.966	2920
4115.53	2968
4117.094	2902
4118.659	2973
4120.223	2938
4121.785	2925
4123.347	2918
4124.909	2942
4126.471	2896
4128.034	2811
4129.595	2874
4131.155	2891
4132.716	2860
4134.275	2936
4135.836	2907
4137.395	2855
4138.955	2915
4140.513	2898
4142.071	2811
4143.628	2844
4145.188	2858
4146.745	2860
4148.302	2891
4149.858	2883
4151.414	2807
4152.971	2909
4154.526	2789
4156.081	2793
4157.635	2832
4159.189	2873
4160.745	2816
4162.298	2828
4163.852	2793
4165.405	2864
4166.957	2784
4168.51	2822
4170.063	2803
4171.614	2778
4173.166	2688
4174.717	2841
4176.267	2752
4177.817	2808
4179.368	2789
4180.917	2753
4182.466	2770
4184.016	2747
4185.564	2758
4187.112	2718
4188.66	2786
4190.207	2723
4191.754	2781
4193.301	2757
4194.848	2715
4196.394	2742
4197.94	2760
4199.484	2679
4201.03	2711
4202.575	2700
4204.12	2764
4205.663	2795
4207.207	2716
4208.75	2739
4210.292	2747
4211.836	2741
4213.378	2736
4214.92	2713
4216.46	2693
4218.002	2795
4219.544	2654
4221.083	2655
4222.625	2679
4224.164	2737
4225.703	2750
4227.244	2683
4228.782	2663
4230.32	2662
4231.857	2681
4233.395	2663
4234.933	2631
4236.471	2714
4238.007	2677
4239.542	2715
4241.078	2645
4242.614	2702
4244.15	2663
4245.685	2714
4247.219	2585
4248.753	2656
4250.287	2629
4251.82	2676
4253.354	2569
4254.887	2633
4256.419	2654
4257.951	2654
4259.483	2659
4261.016	2692
4262.547	2659
4264.078	2572
4265.608	2556
4267.137	2652
4268.668	2592
4270.197	2703
4271.727	2619
4273.254	2642
4274.783	2628
4276.311	2646
4277.84	2663
4279.366	2623
4280.894	2601
4282.42	2621
4283.946	2565
4285.473	2621
4286.998	2581
4288.523	2569
4290.047	2598
4291.572	2543
4293.096	2573
4294.622	2548
4296.144	2624
4297.668	2561
4299.19	2556
4300.713	2583
4302.236	2542
4303.758	2562
4305.279	2582
4306.799	2598
4308.321	2504
4309.842	2550
4311.361	2507
4312.882	2544
4314.401	2560
