400.0961	4256
402.6185	4203
405.1424	4077
407.6635	4192
410.1838	4128
412.7035	4140
415.2225	4215
417.7388	4202
420.2585	4314
422.7754	4299
425.2917	4357
427.8072	4405
430.3221	4524
432.8363	4562
435.3498	4500
437.8626	4521
440.3727	4405
442.8841	4445
445.3969	4444
447.907	4483
450.4142	4515
452.9229	4483
455.4289	4455
457.9362	4407
460.4449	4410
462.9488	4449
465.454	4499
467.9566	4377
470.4604	4433
472.9637	4499
475.4662	4522
477.966	4444
480.4671	4409
482.9656	4428
485.4633	4517
487.9645	4419
490.4608	4484
492.9566	4480
495.4536	4458
497.948	4454
500.4437	4497
502.9387	4626
505.431	4496
507.9226	4554
510.4136	4605
512.9079	4472
515.3975	4610
517.8864	4563
520.3746	4596
522.8622	4505
525.3491	4557
527.8394	4573
530.3249	4585
532.8098	4605
535.2939	4578
537.7774	4636
540.2623	4641
542.7444	4652
545.2259	4728
547.7067	4618
550.1868	4680
552.6683	4663
555.147	4666
557.6231	4653
560.1005	4628
562.5773	4684
565.0534	4654
567.5308	4692
570.0056	4739
572.4776	4867
574.951	4740
577.4237	4768
579.8978	4762
582.3671	4794
584.8378	4931
587.3079	4795
589.7773	4896
592.244	4816
594.714	4794
597.1793	4898
599.6461	4851
602.1121	4749
604.5754	4871
607.0421	4871
609.5042	4740
611.9675	4898
614.4282	4726
616.8902	4862
619.3515	4822
621.8122	4815
624.2702	4837
626.7296	4757
629.1863	4740
631.6423	4734
634.1017	4799
636.5563	4699
639.0104	4796
641.4658	4728
643.9185	4743
646.3725	4785
648.8239	4784
651.2766	4820
653.7266	4803
656.176	4843
658.6247	4807
661.0748	4861
663.5242	4809
665.9709	4863
668.417	4884
670.8624	4825
673.3092	4848
675.7533	4843
678.1968	4899
680.6395	4934
683.0817	4870
685.5251	4814
687.9659	4944
690.4061	4850
692.8456	4948
695.2844	4980
697.7226	4955
700.1621	4979
702.599	5024
705.0332	5062
707.4688	5008
709.9036	5044
712.3399	4998
714.7735	5024
717.2044	5139
719.6367	5084
722.0683	5061
724.4993	5111
726.9296	5147
729.3593	5108
731.7883	5144
734.2147	5180
736.6423	5158
739.0714	5173
741.4958	5173
743.9216	5164
746.3447	5245
748.7691	5106
751.1929	5250
753.616	5250
756.0366	5352
758.4584	5277
760.8776	5241
763.2982	5333
765.718	5291
768.1373	5275
770.5539	5302
772.9698	5327
775.3871	5362
777.8038	5401
780.2178	5381
782.6332	5360
785.0459	5327
787.458	5244
789.8714	5354
792.2842	5191
794.6943	5264
797.1038	5291
799.5127	5354
801.9209	5333
804.3324	5270
806.7393	5332
809.1456	5439
811.5513	5334
813.9562	5400
816.3625	5502
818.7663	5361
821.1693	5447
823.5718	5256
825.9735	5400
828.3746	5518
830.7771	5346
833.177	5358
835.5762	5503
837.9747	5443
840.3727	5392
842.772	5435
845.1666	5606
847.5626	5505
849.958	5551
852.3527	5528
854.7488	5581
857.1403	5499
859.5331	5510
861.9253	5528
864.3168	5507
866.7057	5548
869.098	5513
871.4876	5505
873.8746	5492
876.263	5489
878.6487	5502
881.0378	5502
883.4243	5493
885.8081	5480
888.1933	5497
890.5759	5399
892.9598	5489
895.343	5509
897.7256	5520
900.1057	5393
902.4871	5591
904.8659	5510
907.246	5534
909.6254	5524
912.0023	5655
914.3786	5515
916.7562	5726
919.1331	5870
921.5074	5918
923.8831	6018
926.2562	6062
928.6287	5925
931.0005	5900
933.3757	5904
935.7462	5872
938.1162	5870
940.4855	5949
942.8542	5911
945.2242	5954
947.5916	6001
949.9584	6176
952.3266	6302
954.6921	6392
957.0571	6603
959.4233	6730
961.787	6823
964.15	6890
966.5125	6654
968.8742	6575
971.2354	6173
973.5959	6082
975.9559	6008
978.3151	5989
980.6738	5948
983.0338	5787
985.3912	5869
987.7461	5888
990.1022	5617
992.4578	5675
994.8127	5785
997.1689	5711
999.5207	5809
1001.874	5755
1004.226	5704
1006.576	5744
1008.929	5696
1011.28	5789
1013.628	5699
1015.977	5750
1018.324	5748
1020.674	5694
1023.019	5781
1025.366	5840
1027.713	5798
1030.056	5849
1032.399	5804
1034.746	5772
1037.087	5830
1039.431	5833
1041.771	5706
1044.113	5878
1046.454	5867
1048.793	5815
1051.133	5641
1053.471	5802
1055.807	5878
1058.146	5825
1060.483	5796
1062.818	5934
1065.153	5781
1067.489	5904
1069.822	5886
1072.156	5912
1074.488	5995
1076.82	5901
1079.15	5855
1081.48	5910
1083.814	5927
1086.143	5855
1088.471	5942
1090.799	5852
1093.126	5892
1095.452	5934
1097.78	5896
1100.105	5805
1102.43	5934
1104.754	5792
1107.077	5840
1109.4	5858
1111.722	5804
1114.044	5887
1116.365	5837
1118.685	5831
1121.005	5875
1123.324	5794
1125.643	6038
1127.961	5929
1130.278	5900
1132.595	5945
1134.911	5823
1137.226	5953
1139.541	5785
1141.854	5853
1144.167	5911
1146.482	5843
1148.793	5755
1151.105	5812
1153.414	5936
1155.725	5788
1158.033	5900
1160.344	6014
1162.651	5787
1164.959	5828
1167.265	5885
1169.572	5822
1171.878	5821
1174.184	6012
1176.488	5939
1178.79	5996
1181.094	6014
1183.396	5883
1185.699	5921
1188.001	5910
1190.301	5849
1192.6	5950
1194.9	5865
1197.2	5860
1199.497	5802
1201.794	5864
1204.09	5884
1206.387	5910
1208.684	5907
1210.978	5858
1213.272	6002
1215.565	5836
1217.858	5735
1220.15	6041
1222.443	5931
1224.734	5941
1227.024	6020
1229.313	6106
1231.602	6068
1233.892	6021
1236.18	6073
1238.467	6192
1240.754	6140
1243.04	6286
1245.325	6260
1247.612	6097
1249.896	6247
1252.178	6189
1254.461	6120
1256.743	6229
1259.027	6252
1261.308	6294
1263.587	6268
1265.867	6141
1268.146	6298
1270.425	6129
1272.703	6178
1274.981	6154
1277.256	6204
1279.532	6211
1281.808	6049
1284.083	6065
1286.358	6141
1288.63	5982
1290.904	5999
1293.175	6135
1295.449	6075
1297.719	6091
1299.99	6088
1302.259	6176
1304.529	5994
1306.798	6145
1309.065	6172
1311.333	6142
1313.599	6089
1315.866	6096
1318.131	6201
1320.396	6048
1322.66	6101
1324.925	6121
1327.187	6193
1329.448	6126
1331.711	6175
1333.974	6272
1336.234	6243
1338.493	6144
1340.752	6116
1343.01	5985
1345.269	6045
1347.526	6080
1349.784	6115
1352.04	6022
1354.295	5976
1356.552	6000
1358.806	6082
1361.059	5982
1363.312	6135
1365.564	5991
1367.818	6239
1370.069	6134
1372.318	6120
1374.568	6081
1376.817	6262
1379.066	6225
1381.316	6061
1383.564	6213
1385.809	6245
1388.056	6113
1390.301	6351
1392.549	6283
1394.793	6411
1397.036	6453
1399.279	6502
1401.522	6554
1403.763	6616
1406.007	6460
1408.248	6449
1410.487	6471
1412.727	6424
1414.965	6539
1417.205	6478
1419.442	6449
1421.68	6357
1423.915	6387
1426.152	6364
1428.388	6382
1430.623	6319
1432.857	6387
1435.091	6490
1437.323	6467
1439.556	6437
1441.789	6558
1444.019	6376
1446.25	6428
1448.48	6460
1450.708	6463
1452.938	6437
1455.167	6493
1457.394	6548
1459.62	6570
1461.846	6540
1464.073	6414
1466.299	6535
1468.523	6417
1470.746	6276
1472.969	6305
1475.191	6379
1477.415	6238
1479.636	6349
1481.858	6172
1484.078	6186
1486.298	6119
1488.518	6090
1490.736	6113
1492.954	6121
1495.169	6022
1497.386	6202
1499.602	6066
1501.819	6157
1504.034	6032
1506.248	6047
1508.462	6047
1510.675	6038
1512.888	6073
1515.1	5953
1517.311	6011
1519.522	6132
1521.732	6055
1523.942	6169
1526.151	6150
1528.36	5992
1530.566	6065
1532.773	6085
1534.98	6068
1537.187	6060
1539.392	6082
1541.596	6135
1543.801	6092
1546.005	6075
1548.208	6207
1550.411	6164
1552.612	6194
1554.814	6166
1557.013	6137
1559.212	6035
1561.414	6303
1563.612	6136
1565.811	6193
1568.007	6403
1570.203	6322
1572.403	6321
1574.598	6260
1576.792	6207
1578.988	6300
1581.181	6285
1583.376	6271
1585.568	6233
1587.761	6288
1589.952	6275
1592.143	6319
1594.333	6252
1596.524	6381
1598.715	6294
1600.903	6273
1603.091	6317
1605.278	6368
1607.466	6257
1609.652	6224
1611.838	6294
1614.023	6307
1616.207	6402
1618.391	6236
1620.576	6386
1622.759	6404
1624.941	6280
1627.123	6335
1629.304	6304
1631.484	6396
1633.664	6340
1635.844	6377
1638.022	6455
1640.201	6414
1642.38	6394
1644.556	6315
1646.732	6461
1648.908	6286
1651.084	6520
1653.257	6351
1655.433	6476
1657.607	6373
1659.779	6481
1661.951	6432
1664.122	6504
1666.295	6512
1668.467	6436
1670.635	6520
1672.805	6482
1674.973	6519
1677.142	6307
1679.31	6433
1681.478	6319
1683.644	6463
1685.81	6427
1687.975	6414
1690.142	6444
1692.305	6404
1694.468	6471
1696.632	6302
1698.794	6389
1700.957	6377
1703.119	6439
1705.279	6389
1707.439	6347
1709.598	6304
1711.758	6255
1713.917	6275
1716.075	6333
1718.231	6381
1720.388	6272
1722.543	6154
1724.702	6292
1726.856	6225
1729.01	6217
1731.164	6294
1733.317	6228
1735.471	6242
1737.623	6235
1739.774	6228
1741.925	6185
1744.075	6364
1746.225	6258
1748.376	6242
1750.524	6277
1752.672	6222
1754.82	6235
1756.965	6331
1759.113	6251
1761.259	6305
1763.405	6294
1765.549	6356
1767.694	6292
1769.836	6288
1771.981	6338
1774.123	6365
1776.264	6231
1778.405	6317
1780.546	6334
1782.687	6293
1784.827	6359
1786.966	6305
1789.103	6233
1791.242	6348
1793.381	6388
1795.517	6375
1797.653	6280
1799.788	6324
1801.923	6318
1804.057	6425
1806.193	6390
1808.326	6410
1810.457	6436
1812.59	6314
1814.721	6445
1816.855	6348
1818.984	6285
1821.113	6278
1823.244	6228
1825.372	6359
1827.499	6280
1829.63	6320
1831.756	6271
1833.882	6289
1836.007	6359
1838.132	6213
1840.26	6367
1842.384	6183
1844.507	6251
1846.63	6375
1848.752	6185
1850.875	6388
1852.996	6251
1855.118	6282
1857.238	6278
1859.358	6212
1861.477	6387
1863.597	6212
1865.715	6203
1867.832	6204
1869.948	6293
1872.064	6223
1874.181	6091
1876.297	6249
1878.411	6274
1880.526	6204
1882.639	6372
1884.752	6214
1886.865	6277
1888.977	6362
1891.089	6327
1893.2	6242
1895.308	6246
1897.42	6287
1899.53	6340
1901.639	6282
1903.745	6257
1905.853	6315
1907.962	6242
1910.067	6336
1912.174	6249
1914.278	6332
1916.383	6291
1918.486	6370
1920.592	6333
1922.694	6418
1924.797	6359
1926.898	6399
1929	6374
1931.102	6330
1933.203	6319
1935.301	6395
1937.401	6293
1939.499	6310
1941.598	6358
1943.697	6433
1945.793	6234
1947.888	6361
1949.985	6584
1952.08	6335
1954.176	6332
1956.269	6314
1958.364	6342
1960.457	6400
1962.549	6368
1964.642	6290
1966.733	6329
1968.823	6265
1970.913	6362
1973.005	6417
1975.093	6250
1977.184	6367
1979.271	6299
1981.359	6440
1983.446	6292
1985.532	6256
1987.619	6271
1989.705	6324
1991.789	6309
1993.874	6352
1995.956	6275
1998.041	6222
2000.123	6418
2002.206	6243
2004.287	6208
2006.368	6280
2008.449	6276
2010.529	6228
2012.609	6298
2014.688	6228
2016.766	6300
2018.843	6373
2020.922	6334
2022.999	6295
2025.074	6224
2027.15	6318
2029.225	6373
2031.299	6297
2033.375	6421
2035.447	6276
2037.52	6357
2039.592	6260
2041.664	6198
2043.736	6195
2045.807	6297
2047.876	6262
2049.947	6338
2052.015	6257
2054.086	6309
2056.153	6299
2058.221	6319
2060.288	6274
2062.353	6255
2064.42	6234
2066.486	6275
2068.55	6351
2070.614	6286
2072.678	6188
2074.741	6254
2076.805	6340
2078.866	6310
2080.929	6295
2082.99	6205
2085.049	6305
2087.109	6300
2089.17	6317
2091.228	6298
2093.286	6258
2095.344	6289
2097.4	6250
2099.46	6263
2101.516	6217
2103.572	6241
2105.626	6268
2107.679	6247
2109.735	6286
2111.788	6273
2113.841	6233
2115.894	6284
2117.945	6319
2119.997	6210
2122.049	6364
2124.1	6270
2126.148	6221
2128.197	6289
2130.246	6322
2132.296	6153
2134.342	6259
2136.39	6241
2138.437	6247
2140.483	6229
2142.527	6197
2144.574	6134
2146.619	6265
2148.661	6245
2150.705	6184
2152.747	6334
2154.792	6214
2156.832	6238
2158.874	6245
2160.915	6261
2162.954	6290
2164.995	6308
2167.034	6265
2169.072	6282
2171.111	6167
2173.148	6188
2175.186	6260
2177.223	6081
2179.258	6131
2181.294	6253
2183.328	6205
2185.362	6307
2187.398	6098
2189.431	6141
2191.463	6161
2193.495	6124
2195.528	6135
2197.56	6174
2199.59	6186
2201.62	6195
2203.649	6055
2205.678	6178
2207.708	6104
2209.737	6223
2211.764	6166
2213.791	6186
2215.817	6079
2217.843	6081
2219.87	6084
2221.895	6160
2223.919	6113
2225.942	6159
2227.966	6153
2229.988	6075
2232.012	6016
2234.032	6089
2236.054	6047
2238.074	6064
2240.095	6131
2242.116	6004
2244.135	6143
2246.153	6029
2248.171	6148
2250.188	6141
2252.208	6049
2254.223	6030
2256.239	6015
2258.255	6036
2260.269	6034
2262.283	6081
2264.3	6026
2266.312	6082
2268.325	6010
2270.336	6032
2272.349	6156
2274.362	6094
2276.372	6016
2278.383	6129
2280.392	6049
2282.402	6161
2284.409	6122
2286.418	6195
2288.427	6093
2290.433	6139
2292.441	6106
2294.446	6072
2296.453	6065
2298.459	6158
2300.463	6036
2302.466	6038
2304.471	5939
2306.475	6041
2308.477	6038
2310.478	6050
2312.481	6075
2314.481	6075
2316.481	6098
2318.482	6032
2320.482	6100
2322.48	6093
2324.48	6084
2326.478	5988
2328.476	5989
2330.473	6062
2332.469	6088
2334.465	5956
2336.46	5924
2338.454	6014
2340.45	5897
2342.444	5889
2344.437	5872
2346.43	6038
2348.421	5984
2350.414	5951
2352.405	5982
2354.396	5935
2356.386	5918
2358.376	5961
2360.366	5932
2362.355	6049
2364.343	5987
2366.331	5934
2368.317	5984
2370.304	5831
2372.292	5851
2374.278	5911
2376.262	5975
2378.247	5908
2380.23	5945
2382.216	5914
2384.199	5983
2386.181	5869
2388.163	5912
2390.144	5926
2392.127	5918
2394.107	5910
2396.087	5896
2398.066	5877
2400.046	5857
2402.023	5959
2404.004	5857
2405.981	5935
2407.957	5857
2409.934	5792
2411.91	5931
2413.886	5801
2415.862	5841
2417.836	5854
2419.809	5867
2421.784	5840
2423.756	5870
2425.73	5824
2427.701	5834
2429.672	5911
2431.644	5855
2433.615	5921
2435.586	5678
2437.555	5892
2439.523	5815
2441.491	5837
2443.459	5859
2445.428	5922
2447.395	5781
2449.361	5920
2451.327	5754
2453.292	5870
2455.257	5773
2457.223	5829
2459.187	5733
2461.15	5810
2463.113	5689
2465.076	5782
2467.039	5786
2468.999	5816
2470.96	5853
2472.921	5780
2474.881	5866
2476.841	5756
2478.8	5766
2480.759	5762
2482.717	5766
2484.675	5746
2486.63	5629
2488.589	5782
2490.545	5726
2492.5	5745
2494.455	5827
2496.408	5767
2498.364	5751
2500.318	5794
2502.27	5728
2504.223	5725
2506.174	5824
2508.126	5734
2510.078	5755
2512.03	5722
2513.979	5798
2515.927	5766
2517.877	5784
2519.826	5759
2521.775	5690
2523.722	5677
2525.668	5580
2527.616	5792
2529.561	5694
2531.508	5650
2533.452	5725
2535.398	5804
2537.342	5713
2539.284	5771
2541.229	5619
2543.173	5711
2545.114	5687
2547.055	5742
2548.996	5685
2550.938	5720
2552.878	5745
2554.817	5735
2556.756	5694
2558.695	5791
2560.633	5741
2562.572	5665
2564.509	5689
2566.445	5693
2568.382	5777
2570.317	5654
2572.254	5734
2574.189	5705
2576.123	5728
2578.057	5733
2579.99	5706
2581.923	5698
2583.855	5687
2585.788	5685
2587.719	5658
2589.65	5709
2591.579	5672
2593.511	5750
2595.44	5763
2597.37	5664
2599.297	5686
2601.225	5656
2603.153	5676
2605.08	5593
2607.007	5757
2608.932	5712
2610.858	5730
2612.782	5705
2614.709	5756
2616.632	5728
2618.556	5738
2620.478	5715
2622.401	5753
2624.324	5700
2626.247	5703
2628.167	5701
2630.088	5719
2632.008	5712
2633.928	5733
2635.848	5630
2637.766	5728
2639.684	5653
2641.603	5731
2643.519	5783
2645.437	5796
2647.353	5715
2649.27	5665
2651.184	5611
2653.099	5718
2655.014	5601
2656.928	5671
2658.842	5700
2660.755	5739
2662.667	5657
2664.579	5691
2666.491	5741
2668.402	5585
2670.312	5713
2672.222	5623
2674.132	5641
2676.042	5602
2677.951	5781
2679.859	5686
2681.766	5693
2683.674	5665
2685.582	5564
2687.488	5635
2689.392	5673
2691.298	5626
2693.202	5577
2695.107	5687
2697.012	5589
2698.914	5579
2700.817	5583
2702.72	5606
2704.622	5622
2706.524	5616
2708.425	5595
2710.326	5637
2712.225	5554
2714.125	5584
2716.024	5644
2717.923	5523
2719.822	5641
2721.719	5605
2723.616	5546
2725.512	5615
2727.41	5518
2729.305	5592
2731.201	5639
2733.095	5549
2734.99	5634
2736.884	5678
2738.778	5610
2740.67	5590
2742.562	5533
2744.455	5550
2746.346	5549
2748.238	5594
2750.129	5477
2752.018	5539
2753.907	5575
2755.797	5463
2757.687	5629
2759.575	5583
2761.462	5525
2763.349	5489
2765.237	5555
2767.124	5549
2769.009	5561
2770.894	5657
2772.779	5541
2774.663	5529
2776.547	5564
2778.431	5496
2780.314	5479
2782.197	5587
2784.078	5514
2785.96	5561
2787.842	5557
2789.723	5596
2791.603	5462
2793.483	5445
2795.362	5485
2797.241	5549
2799.121	5376
2800.997	5490
2802.874	5539
2804.751	5444
2806.628	5561
2808.506	5503
2810.38	5457
2812.255	5473
2814.13	5448
2816.003	5541
2817.878	5453
2819.752	5525
2821.623	5503
2823.496	5542
2825.368	5522
2827.238	5484
2829.111	5594
2830.98	5454
2832.851	5527
2834.719	5577
2836.589	5450
2838.458	5534
2840.327	5518
2842.193	5471
2844.061	5478
2845.927	5613
2847.794	5600
2849.66	5647
2851.525	5590
2853.39	5577
2855.254	5605
2857.117	5621
2858.983	5693
2860.845	5613
2862.707	5651
2864.569	5747
2866.431	5753
2868.293	5803
2870.154	5734
2872.013	5850
2873.873	5919
2875.733	5905
2877.592	6012
2879.451	5961
2881.309	6056
2883.166	6044
2885.022	6273
2886.879	6309
2888.736	6327
2890.591	6193
2892.446	6281
2894.301	6220
2896.155	6299
2898.009	6210
2899.863	6357
2901.716	6350
2903.568	6126
2905.419	6226
2907.27	6174
2909.123	6294
2910.973	6180
2912.824	6266
2914.673	6250
2916.521	6256
2918.372	6467
2920.22	6400
2922.067	6405
2923.914	6532
2925.761	6548
2927.607	6536
2929.455	6685
2931.301	6611
2933.144	6629
2934.99	6773
2936.833	6942
2938.678	6876
2940.522	6625
2942.364	7063
2944.207	7048
2946.048	7257
2947.891	7282
2949.731	7320
2951.571	7281
2953.412	7312
2955.25	7145
2957.09	7191
2958.93	7110
2960.767	7093
2962.606	7003
2964.443	6877
2966.279	6956
2968.116	6582
2969.953	6586
2971.788	6564
2973.623	6409
2975.457	6361
2977.292	6168
2979.127	6267
2980.959	6185
2982.792	6140
2984.624	6143
2986.455	6062
2988.288	6121
2990.119	6157
2991.949	5968
2993.779	6012
2995.608	5995
2997.439	5847
2999.268	5823
3001.096	5847
3002.923	5793
3004.751	5655
3006.578	5564
3008.406	5684
3010.232	5568
3012.057	5543
3013.883	5494
3015.706	5450
3017.532	5501
3019.356	5479
3021.179	5474
3023.002	5418
3024.823	5413
3026.646	5365
3028.469	5187
3030.289	5335
3032.11	5283
3033.93	5193
3035.749	5278
3037.57	5260
3039.39	5293
3041.207	5263
3043.026	5226
3044.842	5236
3046.661	5253
3048.477	5270
3050.294	5216
3052.109	5172
3053.925	5263
3055.739	5103
3057.555	5260
3059.368	5206
3061.181	5116
3062.995	5295
3064.807	5195
3066.62	5174
3068.433	5221
3070.243	5235
3072.054	5162
3073.865	5142
3075.675	5184
3077.485	5196
3079.293	5189
3081.102	5167
3082.911	5093
3084.719	5128
3086.527	5213
3088.333	5131
3090.139	5189
3091.945	5146
3093.75	5158
3095.557	5117
3097.361	5001
3099.165	5096
3100.969	5066
3102.772	5077
3104.575	5076
3106.379	5120
3108.181	5039
3109.982	5036
3111.783	4988
3113.584	4935
3115.386	5119
3117.186	5113
3118.985	4939
3120.783	5010
3122.582	5011
3124.381	5035
3126.179	4922
3127.975	5000
3129.772	4884
3131.569	4943
3133.365	4957
3135.161	4886
3136.956	5018
3138.751	4864
3140.544	4942
3142.338	4868
3144.132	4870
3145.925	4926
3147.717	4910
3149.509	4972
3151.301	4941
3153.091	4881
3154.884	4830
3156.673	4944
3158.462	4933
3160.252	4884
3162.041	4898
3163.831	4804
3165.618	4932
3167.405	4890
3169.193	4951
3170.979	4892
3172.767	4862
3174.553	4828
3176.338	4939
3178.123	4905
3179.907	4868
3181.692	4798
3183.477	4982
3185.259	4811
3187.042	4846
3188.824	4827
3190.607	4870
3192.389	4810
3194.17	4885
3195.951	4828
3197.73	4845
3199.51	4841
3201.289	4877
3203.07	4827
3204.848	4935
3206.626	4875
3208.403	4880
3210.18	4737
3211.959	4856
3213.735	4834
3215.511	4809
3217.285	4932
3219.06	4836
3220.836	4771
3222.611	4765
3224.384	4794
3226.158	4818
3227.929	4758
3229.702	4770
3231.476	4862
3233.248	4873
3235.018	4807
3236.789	4852
3238.56	4935
3240.33	4863
3242.1	4827
3243.869	4813
3245.637	4855
3247.405	4745
3249.172	4861
3250.941	4745
3252.707	4835
3254.474	4881
3256.24	4808
3258.006	4798
3259.772	4845
3261.537	4837
3263.301	4804
3265.065	4857
3266.828	4802
3268.592	4786
3270.355	4815
3272.117	4814
3273.878	4778
3275.64	4814
3277.401	4808
3279.162	4806
3280.922	4734
3282.682	4858
3284.441	4748
3286.199	4828
3287.959	4845
3289.716	4777
3291.475	4777
3293.232	4784
3294.988	4788
3296.744	4790
3298.501	4749
3300.256	4867
3302.011	4828
3303.766	4675
3305.52	4829
3307.275	4832
3309.028	4814
3310.781	4763
3312.533	4700
3314.285	4891
3316.038	4842
3317.789	4775
3319.54	4788
3321.289	4784
3323.039	4836
3324.789	4798
3326.539	4840
3328.288	4739
3330.035	4653
3331.783	4808
3333.531	4776
3335.28	4672
3337.025	4669
3338.771	4824
3340.518	4817
3342.262	4743
3344.009	4692
3345.753	4717
3347.497	4615
3349.24	4750
3350.983	4720
3352.726	4698
3354.469	4667
3356.212	4651
3357.952	4583
3359.694	4773
3361.434	4630
3363.176	4588
3364.916	4705
3366.654	4608
3368.394	4572
3370.132	4670
3371.871	4665
3373.61	4750
3375.346	4601
3377.083	4624
3378.82	4580
3380.556	4606
3382.292	4560
3384.027	4612
3385.763	4649
3387.497	4598
3389.231	4604
3390.965	4619
3392.698	4579
3394.431	4551
3396.164	4590
3397.896	4556
3399.627	4567
3401.36	4585
3403.09	4594
3404.82	4575
3406.55	4609
3408.279	4498
3410.01	4492
3411.738	4507
3413.467	4497
3415.194	4518
3416.92	4614
3418.647	4608
3420.375	4524
3422.102	4577
3423.827	4498
3425.553	4534
3427.277	4592
3429.003	4482
3430.727	4463
3432.451	4431
3434.173	4423
3435.896	4482
3437.62	4462
3439.343	4511
3441.063	4524
3442.785	4392
3444.505	4383
3446.226	4394
3447.948	4441
3449.666	4385
3451.386	4440
3453.104	4410
3454.823	4385
3456.541	4403
3458.259	4366
3459.976	4326
3461.693	4335
3463.408	4423
3465.125	4389
3466.841	4344
3468.556	4332
3470.271	4319
3471.985	4286
3473.698	4336
3475.414	4335
3477.126	4360
3478.838	4308
3480.55	4317
3482.263	4410
3483.975	4286
3485.686	4312
3487.396	4186
3489.106	4347
3490.817	4305
3492.526	4217
3494.236	4268
3495.944	4283
3497.652	4158
3499.359	4265
3501.066	4222
3502.775	4225
3504.481	4284
3506.187	4269
3507.893	4277
3509.598	4187
3511.304	4325
3513.009	4165
3514.713	4188
3516.417	4205
3518.12	4255
3519.821	4236
3521.525	4120
3523.228	4120
3524.929	4227
3526.631	4118
3528.33	4122
3530.032	4025
3531.733	4131
3533.433	4072
3535.131	4044
3536.83	4117
3538.529	4173
3540.227	4137
3541.925	4105
3543.623	4187
3545.319	4109
3547.016	4121
3548.712	4074
3550.408	4055
3552.103	4063
3553.798	3990
3555.491	4136
3557.188	4126
3558.88	4094
3560.574	4033
3562.266	4155
3563.959	4061
3565.651	4053
3567.343	4078
3569.035	4044
3570.725	3975
3572.415	4043
3574.106	3996
3575.797	3968
3577.485	4075
3579.174	4045
3580.863	4026
3582.551	3996
3584.238	3923
3585.926	4035
3587.613	3917
3589.3	3982
3590.986	4005
3592.671	3854
3594.357	3871
3596.042	3966
3597.726	3981
3599.41	3924
3601.094	3893
3602.778	3817
3604.461	3962
3606.143	3898
3607.825	3888
3609.507	3814
3611.188	3822
3612.87	3853
3614.551	3922
3616.229	3868
3617.909	3819
3619.589	3809
3621.269	3848
3622.948	3833
3624.625	3772
3626.302	3731
3627.98	3810
3629.657	3831
3631.334	3725
3633.01	3828
3634.686	3806
3636.361	3791
3638.036	3893
3639.712	3757
3641.385	3742
3643.06	3789
3644.732	3782
3646.405	3737
3648.08	3802
3649.751	3692
3651.424	3707
3653.094	3730
3654.766	3693
3656.436	3677
3658.106	3683
3659.777	3660
3661.446	3786
3663.115	3719
3664.783	3718
3666.452	3701
3668.121	3663
3669.788	3628
3671.454	3665
3673.121	3707
3674.789	3648
3676.455	3621
3678.12	3672
3679.784	3663
3681.45	3658
3683.114	3695
3684.779	3639
3686.442	3639
3688.105	3644
3689.768	3694
3691.43	3591
3693.093	3662
3694.754	3616
3696.415	3583
3698.076	3636
3699.736	3606
3701.396	3659
3703.057	3630
3704.716	3602
3706.375	3613
3708.034	3580
3709.692	3643
3711.351	3552
3713.008	3674
3714.665	3655
3716.321	3564
3717.977	3551
3719.634	3546
3721.29	3569
3722.945	3566
3724.598	3643
3726.253	3544
3727.907	3557
3729.561	3601
3731.214	3570
3732.867	3552
3734.518	3500
3736.171	3548
3737.824	3585
3739.474	3456
3741.125	3482
3742.775	3567
3744.425	3501
3746.074	3550
3747.725	3536
3749.373	3499
3751.022	3458
3752.669	3529
3754.318	3577
3755.966	3591
3757.612	3469
3759.259	3579
3760.905	3573
3762.55	3507
3764.197	3509
3765.842	3465
3767.486	3390
3769.131	3468
3770.774	3461
3772.417	3424
3774.061	3387
3775.705	3485
3777.347	3461
3778.988	3547
3780.629	3433
3782.271	3505
3783.912	3434
3785.552	3519
3787.192	3439
3788.831	3484
3790.472	3436
3792.112	3512
3793.75	3414
3795.388	3465
3797.024	3414
3798.661	3354
3800.3	3445
3801.936	3429
3803.572	3462
3805.208	3388
3806.844	3476
3808.48	3403
3810.115	3387
3811.748	3419
3813.382	3424
3815.016	3384
3816.649	3381
3818.283	3314
3819.914	3365
3821.547	3423
3823.178	3360
3824.809	3362
3826.441	3282
3828.072	3388
3829.701	3325
3831.331	3298
3832.96	3402
3834.591	3333
3836.219	3366
3837.847	3362
3839.475	3304
3841.102	3345
3842.729	3296
3844.357	3310
3845.984	3262
3847.609	3287
3849.234	3348
3850.86	3423
3852.485	3314
3854.11	3259
3855.734	3364
3857.357	3309
3858.981	3246
3860.603	3210
3862.227	3275
3863.848	3321
3865.471	3217
3867.092	3247
3868.713	3285
3870.334	3362
3871.954	3298
3873.575	3327
3875.194	3256
3876.813	3267
3878.433	3301
3880.051	3273
3881.669	3269
3883.286	3288
3884.904	3202
3886.52	3296
3888.138	3256
3889.754	3226
3891.37	3237
3892.985	3202
3894.6	3262
3896.216	3173
3897.831	3253
3899.444	3269
3901.058	3234
3902.67	3200
3904.283	3175
3905.897	3235
3907.509	3218
3909.121	3263
3910.731	3245
3912.342	3215
3913.954	3199
3915.563	3284
3917.174	3202
3918.783	3244
3920.391	3261
3922.002	3173
3923.611	3234
3925.218	3137
3926.826	3295
3928.432	3178
3930.039	3210
3931.647	3149
3933.253	3184
3934.859	3118
3936.464	3145
3938.068	3232
3939.675	3185
3941.278	3161
3942.883	3170
3944.486	3173
3946.089	3177
3947.692	3105
3949.295	3199
3950.898	3182
3952.499	3150
3954.1	3193
3955.7	3155
3957.303	3128
3958.903	3148
3960.502	3178
3962.101	3079
3963.7	3145
3965.301	3174
3966.899	3038
3968.497	3166
3970.094	3151
3971.691	3061
3973.288	3113
3974.885	3107
3976.481	3073
3978.077	3064
3979.672	3151
3981.267	3150
3982.863	3098
3984.457	2999
3986.051	3055
3987.645	3111
3989.238	3077
3990.831	3082
3992.425	2998
3994.017	3051
3995.607	3050
3997.199	3052
3998.79	3103
4000.382	3067
4001.973	3024
4003.561	2986
4005.151	3041
4006.741	3014
4008.331	2949
4009.918	3028
4011.507	3039
4013.095	3048
4014.681	3039
4016.269	3015
4017.856	2994
4019.443	3009
4021.028	3074
4022.614	2952
4024.199	2975
4025.785	2964
4027.37	2925
4028.953	2967
4030.536	3025
4032.12	2968
4033.704	2958
4035.287	3002
4036.869	2934
4038.45	2937
4040.032	2935
4041.613	2878
4043.195	2897
4044.776	2912
4046.356	2950
4047.935	2922
4049.515	2888
4051.095	2824
4052.674	2894
4054.251	2913
4055.829	2839
4057.406	2893
4058.985	2911
4060.562	2925
4062.139	2923
4063.715	2879
4065.29	2880
4066.865	2842
4068.442	2831
4070.016	2869
4071.59	2889
4073.164	2979
4074.738	2861
4076.312	2859
4077.885	2892
4079.458	2833
4081.03	2910
4082.602	2901
4084.173	2833
4085.745	2865
4087.315	2876
4088.886	2845
4090.456	2859
4092.026	2882
4093.596	2922
4095.165	2863
4096.734	2877
4098.301	2893
4099.869	2865
4101.437	2895
4103.006	2865
4104.572	2796
4106.139	2847
4107.704	2868
4109.27	2845
4110.837	2817
4112.401	2827
4113.966	2821
4115.53	2770
4117.094	2779
4118.659	2914
4120.223	2821
4121.785	2738
4123.347	2800
4124.909	2768
4126.471	2825
4128.034	2785
4129.595	2770
4131.155	2759
4132.716	2787
4134.275	2751
4135.836	2761
4137.395	2816
4138.955	2684
4140.513	2768
4142.071	2726
4143.628	2699
4145.188	2728
4146.745	2716
4148.302	2755
4149.858	2733
4151.414	2694
4152.971	2691
4154.526	2712
4156.081	2700
4157.635	2643
4159.189	2719
4160.745	2734
4162.298	2712
4163.852	2728
4165.405	2733
4166.957	2698
4168.51	2670
4170.063	2665
4171.614	2714
4173.166	2688
4174.717	2664
4176.267	2705
4177.817	2686
4179.368	2664
4180.917	2679
4182.466	2615
4184.016	2715
4185.564	2603
4187.112	2710
4188.66	2673
4190.207	2722
4191.754	2724
4193.301	2681
4194.848	2645
4196.394	2668
4197.94	2631
4199.484	2666
4201.03	2703
4202.575	2653
4204.12	2567
4205.663	2626
4207.207	2650
4208.75	2545
4210.292	2639
4211.836	2624
4213.378	2587
4214.92	2595
4216.46	2646
4218.002	2678
4219.544	2625
4221.083	2667
4222.625	2544
4224.164	2624
4225.703	2569
4227.244	2604
4228.782	2517
4230.32	2584
4231.857	2572
4233.395	2650
4234.933	2565
4236.471	2564
4238.007	2593
4239.542	2571
4241.078	2599
4242.614	2522
4244.15	2573
4245.685	2622
4247.219	2606
4248.753	2570
4250.287	2590
4251.82	2600
4253.354	2550
4254.887	2596
4256.419	2504
4257.951	2522
4259.483	2501
4261.016	2543
4262.547	2564
4264.078	2555
4265.608	2468
4267.137	2584
4268.668	2509
4270.197	2535
4271.727	2551
4273.254	2538
4274.783	2533
4276.311	2502
4277.84	2526
4279.366	2528
4280.894	2503
4282.42	2486
4283.946	2461
4285.473	2511
4286.998	2464
4288.523	2543
4290.047	2493
4291.572	2508
4293.096	2499
4294.622	2501
4296.144	2464
4297.668	2484
4299.19	2456
4300.713	2509
4302.236	2473
4303.758	2430
4305.279	2444
4306.799	2488
4308.321	2397
4309.842	2424
4311.361	2477
4312.882	2448
4314.401	2396
