400.0961	3669
402.6185	3760
405.1424	3701
407.6635	3646
410.1838	3674
412.7035	3708
415.2225	3807
417.7388	3667
420.2585	3726
422.7754	3742
425.2917	3743
427.8072	3763
430.3221	3852
432.8363	3881
435.3498	3867
437.8626	3893
440.3727	3991
442.8841	3958
445.3969	3846
447.907	3906
450.4142	3858
452.9229	3893
455.4289	3852
457.9362	3869
460.4449	3815
462.9488	3907
465.454	3880
467.9566	3895
470.4604	3875
472.9637	3893
475.4662	3893
477.966	3798
480.4671	3874
482.9656	3900
485.4633	3961
487.9645	3887
490.4608	3949
492.9566	3939
495.4536	3965
497.948	3967
500.4437	3962
502.9387	3987
505.431	3992
507.9226	4016
510.4136	3956
512.9079	3950
515.3975	4004
517.8864	4010
520.3746	4003
522.8622	4022
525.3491	4057
527.8394	3983
530.3249	4059
532.8098	4073
535.2939	3996
537.7774	4112
540.2623	4040
542.7444	4113
545.2259	4096
547.7067	4066
550.1868	4059
552.6683	3933
555.147	4056
557.6231	4038
560.1005	4097
562.5773	4064
565.0534	4030
567.5308	4145
570.0056	4164
572.4776	4155
574.951	4125
577.4237	4185
579.8978	4128
582.3671	4131
584.8378	4191
587.3079	4177
589.7773	4122
592.244	4168
594.714	4210
597.1793	4101
599.6461	4179
602.1121	4184
604.5754	4177
607.0421	4251
609.5042	4065
611.9675	4205
614.4282	4132
616.8902	4302
619.3515	4106
621.8122	4178
624.2702	4140
626.7296	4180
629.1863	4145
631.6423	4071
634.1017	4133
636.5563	4166
639.0104	4118
641.4658	4204
643.9185	4090
646.3725	4123
648.8239	4193
651.2766	4294
653.7266	4224
656.176	4207
658.6247	4333
661.0748	4185
663.5242	4270
665.9709	4244
668.417	4262
670.8624	4242
673.3092	4265
675.7533	4309
678.1968	4355
680.6395	4276
683.0817	4346
685.5251	4378
687.9659	4389
690.4061	4295
692.8456	4313
695.2844	4293
697.7226	4410
700.1621	4298
702.599	4279
705.0332	4371
707.4688	4388
709.9036	4403
712.3399	4463
714.7735	4402
717.2044	4388
719.6367	4466
722.0683	4407
724.4993	4438
726.9296	4479
729.3593	4404
731.7883	4515
734.2147	4442
736.6423	4405
739.0714	4464
741.4958	4462
743.9216	4541
746.3447	4529
748.7691	4510
751.1929	4601
753.616	4596
756.0366	4530
758.4584	4636
760.8776	4640
763.2982	4516
765.718	4659
768.1373	4663
770.5539	4600
772.9698	4674
775.3871	4588
777.8038	4657
780.2178	4671
782.6332	4710
785.0459	4562
787.458	4632
789.8714	4610
792.2842	4577
794.6943	4615
797.1038	4626
799.5127	4625
801.9209	4642
804.3324	4670
806.7393	4714
809.1456	4746
811.5513	4757
813.9562	4796
816.3625	4767
818.7663	4648
821.1693	4686
823.5718	4742
825.9735	4684
828.3746	4778
830.7771	4753
833.177	4684
835.5762	4734
837.9747	4667
840.3727	4778
842.772	4816
845.1666	4764
847.5626	4800
849.958	4795
852.3527	4787
854.7488	4750
857.1403	4841
859.5331	4856
861.9253	4832
864.3168	4788
866.7057	4812
869.098	4805
871.4876	4830
873.8746	4776
876.263	4776
878.6487	4841
881.0378	4726
883.4243	4844
885.8081	4767
888.1933	4665
890.5759	4812
892.9598	4784
895.343	4832
897.7256	4793
900.1057	4679
902.4871	4749
904.8659	4837
907.246	4878
909.6254	4833
912.0023	4916
914.3786	5001
916.7562	5086
919.1331	5089
921.5074	5192
923.8831	5210
926.2562	5198
928.6287	5167
931.0005	5116
933.3757	5063
935.7462	5087
938.1162	5155
940.4855	5094
942.8542	5076
945.2242	5113
947.5916	5052
949.9584	5118
952.3266	5134
954.6921	5340
957.0571	5286
959.4233	5486
961.787	5480
964.15	5545
966.5125	5457
968.8742	5370
971.2354	5211
973.5959	5147
975.9559	5072
978.3151	5097
980.6738	5011
983.0338	5025
985.3912	5023
987.7461	5048
990.1022	4980
992.4578	4874
994.8127	4980
997.1689	5018
999.5207	4921
1001.874	5011
1004.226	4974
1006.576	4960
1008.929	5020
1011.28	4976
1013.628	4935
1015.977	5025
1018.324	4871
1020.674	4976
1023.019	4920
1025.366	5132
1027.713	4993
1030.056	4997
1032.399	5003
1034.746	5106
1037.087	5023
1039.431	5087
1041.771	5042
1044.113	5082
1046.454	5092
1048.793	4982
1051.133	4945
1053.471	5014
1055.807	4970
1058.146	5003
1060.483	5029
1062.818	5084
1065.153	5019
1067.489	5183
1069.822	5049
1072.156	5114
1074.488	5112
1076.82	5159
1079.15	4990
1081.48	5106
1083.814	5146
1086.143	5182
1088.471	5061
1090.799	4995
1093.126	5085
1095.452	5065
1097.78	4995
1100.105	5009
1102.43	5113
1104.754	5146
1107.077	5120
1109.4	5165
1111.722	5115
1114.044	5124
1116.365	5193
1118.685	5066
1121.005	5070
1123.324	5024
1125.643	5162
1127.961	5170
1130.278	5247
1132.595	5155
1134.911	5147
1137.226	5142
1139.541	5074
1141.854	5195
1144.167	5114
1146.482	5122
1148.793	5143
1151.105	5142
1153.414	5165
1155.725	5096
1158.033	5133
1160.344	5087
1162.651	5138
1164.959	5172
1167.265	5182
1169.572	5027
1171.878	5198
1174.184	5248
1176.488	5222
1178.79	5185
1181.094	5282
1183.396	5155
1185.699	5139
1188.001	5151
1190.301	5084
1192.6	5238
1194.9	5163
1197.2	5057
1199.497	5116
1201.794	5106
1204.09	5224
1206.387	5186
1208.684	5194
1210.978	5117
1213.272	5234
1215.565	5171
1217.858	5238
1220.15	5150
1222.443	5254
1224.734	5238
1227.024	5130
1229.313	5233
1231.602	5286
1233.892	5289
1236.18	5255
1238.467	5193
1240.754	5327
1243.04	5341
1245.325	5353
1247.612	5372
1249.896	5354
1252.178	5386
1254.461	5386
1256.743	5416
1259.027	5399
1261.308	5408
1263.587	5333
1265.867	5444
1268.146	5434
1270.425	5363
1272.703	5436
1274.981	5544
1277.256	5350
1279.532	5415
1281.808	5429
1284.083	5447
1286.358	5387
1288.63	5298
1290.904	5357
1293.175	5352
1295.449	5308
1297.719	5349
1299.99	5267
1302.259	5433
1304.529	5298
1306.798	5271
1309.065	5275
1311.333	5310
1313.599	5323
1315.866	5315
1318.131	5344
1320.396	5290
1322.66	5383
1324.925	5317
1327.187	5335
1329.448	5416
1331.711	5365
1333.974	5370
1336.234	5306
1338.493	5388
1340.752	5417
1343.01	5283
1345.269	5395
1347.526	5339
1349.784	5329
1352.04	5274
1354.295	5286
1356.552	5420
1358.806	5260
1361.059	5246
1363.312	5291
1365.564	5316
1367.818	5408
1370.069	5352
1372.318	5372
1374.568	5296
1376.817	5323
1379.066	5417
1381.316	5344
1383.564	5372
1385.809	5358
1388.056	5433
1390.301	5438
1392.549	5511
1394.793	5500
1397.036	5681
1399.279	5597
1401.522	5696
1403.763	5649
1406.007	5657
1408.248	5596
1410.487	5611
1412.727	5678
1414.965	5615
1417.205	5722
1419.442	5579
1421.68	5515
1423.915	5634
1426.152	5586
1428.388	5587
1430.623	5595
1432.857	5611
1435.091	5558
1437.323	5568
1439.556	5677
1441.789	5619
1444.019	5564
1446.25	5620
1448.48	5619
1450.708	5715
1452.938	5627
1455.167	5641
1457.394	5792
1459.62	5662
1461.846	5648
1464.073	5674
1466.299	5706
1468.523	5602
1470.746	5552
1472.969	5532
1475.191	5560
1477.415	5507
1479.636	5425
1481.858	5443
1484.078	5354
1486.298	5368
1488.518	5354
1490.736	5377
1492.954	5326
1495.169	5236
1497.386	5351
1499.602	5347
1501.819	5325
1504.034	5225
1506.248	5304
1508.462	5304
1510.675	5322
1512.888	5481
1515.1	5369
1517.311	5238
1519.522	5365
1521.732	5300
1523.942	5389
1526.151	5279
1528.36	5293
1530.566	5325
1532.773	5331
1534.98	5380
1537.187	5376
1539.392	5271
1541.596	5383
1543.801	5423
1546.005	5310
1548.208	5375
1550.411	5466
1552.612	5482
1554.814	5456
1557.013	5440
1559.212	5403
1561.414	5434
1563.612	5386
1565.811	5504
1568.007	5422
1570.203	5552
1572.403	5455
1574.598	5508
1576.792	5394
1578.988	5459
1581.181	5516
1583.376	5558
1585.568	5557
1587.761	5450
1589.952	5504
1592.143	5583
1594.333	5554
1596.524	5491
1598.715	5456
1600.903	5522
1603.091	5574
1605.278	5502
1607.466	5468
1609.652	5585
1611.838	5502
1614.023	5530
1616.207	5605
1618.391	5523
1620.576	5521
1622.759	5484
1624.941	5533
1627.123	5463
1629.304	5558
1631.484	5671
1633.664	5600
1635.844	5569
1638.022	5500
1640.201	5569
1642.38	5578
1644.556	5559
1646.732	5631
1648.908	5621
1651.084	5653
1653.257	5565
1655.433	5696
1657.607	5599
1659.779	5632
1661.951	5567
1664.122	5606
1666.295	5720
1668.467	5690
1670.635	5649
1672.805	5617
1674.973	5707
1677.142	5607
1679.31	5741
1681.478	5736
1683.644	5611
1685.81	5690
1687.975	5602
1690.142	5599
1692.305	5583
1694.468	5589
1696.632	5561
1698.794	5565
1700.957	5546
1703.119	5540
1705.279	5484
1707.439	5556
1709.598	5491
1711.758	5527
1713.917	5336
1716.075	5613
1718.231	5500
1720.388	5469
1722.543	5562
1724.702	5589
1726.856	5450
1729.01	5447
1731.164	5491
1733.317	5428
1735.471	5510
1737.623	5510
1739.774	5427
1741.925	5510
1744.075	5524
1746.225	5539
1748.376	5385
1750.524	5525
1752.672	5473
1754.82	5557
1756.965	5500
1759.113	5499
1761.259	5519
1763.405	5520
1765.549	5480
1767.694	5550
1769.836	5588
1771.981	5500
1774.123	5604
1776.264	5451
1778.405	5511
1780.546	5539
1782.687	5514
1784.827	5513
1786.966	5556
1789.103	5516
1791.242	5604
1793.381	5590
1795.517	5444
1797.653	5554
1799.788	5416
1801.923	5559
1804.057	5542
1806.193	5509
1808.326	5449
1810.457	5643
1812.59	5542
1814.721	5574
1816.855	5595
1818.984	5520
1821.113	5587
1823.244	5535
1825.372	5625
1827.499	5550
1829.63	5557
1831.756	5511
1833.882	5547
1836.007	5456
1838.132	5568
1840.26	5562
1842.384	5430
1844.507	5443
1846.63	5449
1848.752	5417
1850.875	5464
1852.996	5440
1855.118	5450
1857.238	5476
1859.358	5455
1861.477	5474
1863.597	5525
1865.715	5470
1867.832	5410
1869.948	5570
1872.064	5503
1874.181	5457
1876.297	5418
1878.411	5418
1880.526	5411
1882.639	5527
1884.752	5522
1886.865	5452
1888.977	5505
1891.089	5390
1893.2	5514
1895.308	5499
1897.42	5533
1899.53	5553
1901.639	5552
1903.745	5501
1905.853	5518
1907.962	5521
1910.067	5417
1912.174	5526
1914.278	5560
1916.383	5555
1918.486	5477
1920.592	5614
1922.694	5535
1924.797	5485
1926.898	5630
1929	5653
1931.102	5600
1933.203	5523
1935.301	5563
1937.401	5529
1939.499	5613
1941.598	5534
1943.697	5537
1945.793	5526
1947.888	5495
1949.985	5568
1952.08	5654
1954.176	5527
1956.269	5636
1958.364	5603
1960.457	5542
1962.549	5566
1964.642	5496
1966.733	5504
1968.823	5547
1970.913	5577
1973.005	5564
1975.093	5570
1977.184	5590
1979.271	5580
1981.359	5507
1983.446	5551
1985.532	5601
1987.619	5456
1989.705	5593
1991.789	5483
1993.874	5535
1995.956	5379
1998.041	5488
2000.123	5496
2002.206	5557
2004.287	5483
2006.368	5518
2008.449	5488
2010.529	5456
2012.609	5537
2014.688	5515
2016.766	5382
2018.843	5569
2020.922	5480
2022.999	5487
2025.074	5536
2027.15	5445
2029.225	5455
2031.299	5432
2033.375	5459
2035.447	5416
2037.52	5527
2039.592	5394
2041.664	5481
2043.736	5568
2045.807	5535
2047.876	5511
2049.947	5435
2052.015	5524
2054.086	5574
2056.153	5456
2058.221	5482
2060.288	5479
2062.353	5479
2064.42	5513
2066.486	5468
2068.55	5477
2070.614	5547
2072.678	5467
2074.741	5509
2076.805	5430
2078.866	5567
2080.929	5528
2082.99	5530
2085.049	5463
2087.109	5476
2089.17	5619
2091.228	5475
2093.286	5461
2095.344	5571
2097.4	5473
2099.46	5529
2101.516	5511
2103.572	5518
2105.626	5573
2107.679	5620
2109.735	5431
2111.788	5484
2113.841	5473
2115.894	5475
2117.945	5577
2119.997	5451
2122.049	5488
2124.1	5591
2126.148	5445
2128.197	5520
2130.246	5489
2132.296	5478
2134.342	5593
2136.39	5430
2138.437	5469
2140.483	5491
2142.527	5525
2144.574	5525
2146.619	5473
2148.661	5540
2150.705	5489
2152.747	5516
2154.792	5523
2156.832	5495
2158.874	5501
2160.915	5567
2162.954	5374
2164.995	5513
2167.034	5497
2169.072	5397
2171.111	5441
2173.148	5442
2175.186	5477
2177.223	5496
2179.258	5455
2181.294	5389
2183.328	5480
2185.362	5492
2187.398	5369
2189.431	5393
2191.463	5370
2193.495	5517
2195.528	5416
2197.56	5436
2199.59	5462
2201.62	5358
2203.649	5362
2205.678	5307
2207.708	5407
2209.737	5363
2211.764	5397
2213.791	5343
2215.817	5441
2217.843	5307
2219.87	5422
2221.895	5311
2223.919	5331
2225.942	5339
2227.966	5303
2229.988	5253
2232.012	5365
2234.032	5392
2236.054	5358
2238.074	5434
2240.095	5337
2242.116	5337
2244.135	5402
2246.153	5368
2248.171	5379
2250.188	5287
2252.208	5372
2254.223	5266
2256.239	5468
2258.255	5330
2260.269	5253
2262.283	5433
2264.3	5250
2266.312	5326
2268.325	5423
2270.336	5313
2272.349	5360
2274.362	5348
2276.372	5313
2278.383	5265
2280.392	5271
2282.402	5399
2284.409	5265
2286.418	5435
2288.427	5255
2290.433	5296
2292.441	5308
2294.446	5229
2296.453	5293
2298.459	5352
2300.463	5299
2302.466	5296
2304.471	5407
2306.475	5403
2308.477	5287
2310.478	5400
2312.481	5325
2314.481	5306
2316.481	5315
2318.482	5341
2320.482	5354
2322.48	5318
2324.48	5334
2326.478	5254
2328.476	5379
2330.473	5236
2332.469	5317
2334.465	5320
2336.46	5287
2338.454	5180
2340.45	5238
2342.444	5224
2344.437	5254
2346.43	5133
2348.421	5208
2350.414	5273
2352.405	5181
2354.396	5232
2356.386	5248
2358.376	5222
2360.366	5322
2362.355	5230
2364.343	5224
2366.331	5194
2368.317	5207
2370.304	5139
2372.292	5197
2374.278	5264
2376.262	5227
2378.247	5176
2380.23	5162
2382.216	5295
2384.199	5234
2386.181	5092
2388.163	5151
2390.144	5150
2392.127	5169
2394.107	5133
2396.087	5134
2398.066	5183
2400.046	5221
2402.023	5161
2404.004	5244
2405.981	5164
2407.957	5089
2409.934	5171
2411.91	5136
2413.886	5143
2415.862	5220
2417.836	5094
2419.809	5140
2421.784	5031
2423.756	5092
2425.73	5083
2427.701	5131
2429.672	5242
2431.644	5112
2433.615	5132
2435.586	5151
2437.555	5132
2439.523	5157
2441.491	5180
2443.459	5204
2445.428	5146
2447.395	5059
2449.361	5160
2451.327	5150
2453.292	5062
2455.257	5120
2457.223	5199
2459.187	5114
2461.15	5072
2463.113	5023
2465.076	5134
2467.039	5036
2468.999	5156
2470.96	5130
2472.921	5108
2474.881	5163
2476.841	5088
2478.8	5130
2480.759	5196
2482.717	5120
2484.675	5076
2486.63	5144
2488.589	4998
2490.545	5106
2492.5	5094
2494.455	5093
2496.408	5132
2498.364	4956
2500.318	5119
2502.27	5064
2504.223	5052
2506.174	5060
2508.126	5151
2510.078	5075
2512.03	5082
2513.979	5105
2515.927	5031
2517.877	5077
2519.826	5065
2521.775	5025
2523.722	5080
2525.668	5068
2527.616	4958
2529.561	4956
2531.508	4974
2533.452	5046
2535.398	5090
2537.342	4992
2539.284	4961
2541.229	5097
2543.173	5050
2545.114	5061
2547.055	5037
2548.996	5114
2550.938	4951
2552.878	4879
2554.817	5146
2556.756	5015
2558.695	4949
2560.633	5052
2562.572	4937
2564.509	5086
2566.445	5005
2568.382	5114
2570.317	4996
2572.254	5005
2574.189	5068
2576.123	5086
2578.057	4988
2579.99	4943
2581.923	4998
2583.855	4991
2585.788	5034
2587.719	4923
2589.65	5020
2591.579	5051
2593.511	5034
2595.44	5029
2597.37	4970
2599.297	4984
2601.225	5087
2603.153	4992
2605.08	5042
2607.007	4939
2608.932	4994
2610.858	5054
2612.782	4951
2614.709	5026
2616.632	5013
2618.556	5005
2620.478	4963
2622.401	4959
2624.324	5028
2626.247	5038
2628.167	4990
2630.088	4984
2632.008	5016
2633.928	4929
2635.848	5042
2637.766	5033
2639.684	5066
2641.603	5058
2643.519	5032
2645.437	4977
2647.353	4952
2649.27	4892
2651.184	5081
2653.099	5091
2655.014	4998
2656.928	5011
2658.842	5071
2660.755	5005
2662.667	5025
2664.579	4973
2666.491	5049
2668.402	4954
2670.312	4974
2672.222	4947
2674.132	4945
2676.042	4945
2677.951	4951
2679.859	4987
2681.766	5013
2683.674	4978
2685.582	4951
2687.488	4912
2689.392	4849
2691.298	4981
2693.202	4910
2695.107	4973
2697.012	4904
2698.914	4974
2700.817	4906
2702.72	4907
2704.622	4910
2706.524	4920
2708.425	4852
2710.326	4860
2712.225	4969
2714.125	4905
2716.024	4962
2717.923	4914
2719.822	4865
2721.719	4884
2723.616	4953
2725.512	4946
2727.41	4904
2729.305	4863
2731.201	4899
2733.095	4997
2734.99	4888
2736.884	4897
2738.778	4788
2740.67	4992
2742.562	5013
2744.455	4944
2746.346	4851
2748.238	4858
2750.129	4866
2752.018	4880
2753.907	4870
2755.797	4861
2757.687	4852
2759.575	4886
2761.462	4943
2763.349	4771
2765.237	4848
2767.124	4843
2769.009	4848
2770.894	4850
2772.779	4741
2774.663	4916
2776.547	4878
2778.431	4874
2780.314	4840
2782.197	4875
2784.078	4830
2785.96	4879
2787.842	4853
2789.723	4866
2791.603	4834
2793.483	4876
2795.362	4842
2797.241	4864
2799.121	4891
2800.997	4751
2802.874	4839
2804.751	4835
2806.628	4813
2808.506	4827
2810.38	4857
2812.255	4788
2814.13	4885
2816.003	4870
2817.878	4829
2819.752	4791
2821.623	4838
2823.496	4800
2825.368	4829
2827.238	4844
2829.111	4878
2830.98	4872
2832.851	4771
2834.719	4908
2836.589	4902
2838.458	4892
2840.327	4830
2842.193	4873
2844.061	4876
2845.927	4866
2847.794	4844
2849.66	4985
2851.525	4953
2853.39	4972
2855.254	5053
2857.117	4925
2858.983	4939
2860.845	4940
2862.707	5024
2864.569	5011
2866.431	5116
2868.293	4989
2870.154	5123
2872.013	5232
2873.873	5083
2875.733	5255
2877.592	5221
2879.451	5236
2881.309	5324
2883.166	5299
2885.022	5447
2886.879	5377
2888.736	5353
2890.591	5522
2892.446	5475
2894.301	5486
2896.155	5535
2898.009	5502
2899.863	5463
2901.716	5432
2903.568	5496
2905.419	5370
2907.27	5477
2909.123	5494
2910.973	5410
2912.824	5450
2914.673	5430
2916.521	5517
2918.372	5484
2920.22	5514
2922.067	5576
2923.914	5729
2925.761	5713
2927.607	5750
2929.455	5813
2931.301	5795
2933.144	5773
2934.99	5862
2936.833	5862
2938.678	5849
2940.522	5917
2942.364	6032
2944.207	5995
2946.048	6151
2947.891	6209
2949.731	6295
2951.571	6266
2953.412	6365
2955.25	6128
2957.09	6201
2958.93	6071
2960.767	6071
2962.606	6062
2964.443	5977
2966.279	5912
2968.116	5834
2969.953	5758
2971.788	5797
2973.623	5584
2975.457	5609
2977.292	5588
2979.127	5530
2980.959	5407
2982.792	5357
2984.624	5399
2986.455	5324
2988.288	5314
2990.119	5368
2991.949	5203
2993.779	5155
2995.608	5197
2997.439	5076
2999.268	5125
3001.096	5096
3002.923	5105
3004.751	4972
3006.578	5019
3008.406	4946
3010.232	4818
3012.057	4785
3013.883	4797
3015.706	4794
3017.532	4754
3019.356	4784
3021.179	4753
3023.002	4780
3024.823	4677
3026.646	4615
3028.469	4730
3030.289	4630
3032.11	4665
3033.93	4713
3035.749	4620
3037.57	4643
3039.39	4624
3041.207	4632
3043.026	4617
3044.842	4530
3046.661	4535
3048.477	4719
3050.294	4537
3052.109	4608
3053.925	4639
3055.739	4535
3057.555	4546
3059.368	4603
3061.181	4598
3062.995	4631
3064.807	4546
3066.62	4605
3068.433	4624
3070.243	4614
3072.054	4543
3073.865	4555
3075.675	4545
3077.485	4617
3079.293	4588
3081.102	4432
3082.911	4551
3084.719	4523
3086.527	4410
3088.333	4507
3090.139	4432
3091.945	4523
3093.75	4522
3095.557	4441
3097.361	4454
3099.165	4387
3100.969	4473
3102.772	4389
3104.575	4527
3106.379	4454
3108.181	4324
3109.982	4437
3111.783	4389
3113.584	4511
3115.386	4374
3117.186	4495
3118.985	4457
3120.783	4431
3122.582	4350
3124.381	4349
3126.179	4287
3127.975	4369
3129.772	4291
3131.569	4422
3133.365	4297
3135.161	4355
3136.956	4443
3138.751	4385
3140.544	4307
3142.338	4364
3144.132	4310
3145.925	4296
3147.717	4346
3149.509	4168
3151.301	4284
3153.091	4301
3154.884	4316
3156.673	4377
3158.462	4244
3160.252	4362
3162.041	4282
3163.831	4264
3165.618	4230
3167.405	4210
3169.193	4356
3170.979	4268
3172.767	4356
3174.553	4249
3176.338	4289
3178.123	4208
3179.907	4244
3181.692	4305
3183.477	4336
3185.259	4266
3187.042	4318
3188.824	4236
3190.607	4253
3192.389	4304
3194.17	4179
3195.951	4261
3197.73	4228
3199.51	4273
3201.289	4293
3203.07	4249
3204.848	4275
3206.626	4195
3208.403	4253
3210.18	4260
3211.959	4300
3213.735	4254
3215.511	4190
3217.285	4233
3219.06	4186
3220.836	4243
3222.611	4236
3224.384	4141
3226.158	4217
3227.929	4235
3229.702	4207
3231.476	4256
3233.248	4275
3235.018	4231
3236.789	4227
3238.56	4155
3240.33	4312
3242.1	4215
3243.869	4259
3245.637	4224
3247.405	4225
3249.172	4143
3250.941	4172
3252.707	4223
3254.474	4246
3256.24	4256
3258.006	4200
3259.772	4216
3261.537	4223
3263.301	4217
3265.065	4181
3266.828	4211
3268.592	4149
3270.355	4249
3272.117	4169
3273.878	4170
3275.64	4220
3277.401	4237
3279.162	4130
3280.922	4216
3282.682	4250
3284.441	4268
3286.199	4180
3287.959	4197
3289.716	4123
3291.475	4272
3293.232	4213
3294.988	4093
3296.744	4173
3298.501	4275
3300.256	4174
3302.011	4186
3303.766	4087
3305.52	4218
3307.275	4198
3309.028	4184
3310.781	4235
3312.533	4180
3314.285	4142
3316.038	4221
3317.789	4123
3319.54	4210
3321.289	4206
3323.039	4196
3324.789	4158
3326.539	4150
3328.288	4134
3330.035	4152
3331.783	4152
3333.531	4093
3335.28	4138
3337.025	4084
3338.771	4045
3340.518	4071
3342.262	4058
3344.009	4142
3345.753	4103
3347.497	4197
3349.24	4086
3350.983	4049
3352.726	3989
3354.469	4134
3356.212	4097
3357.952	4093
3359.694	4088
3361.434	4099
3363.176	4027
3364.916	4090
3366.654	4154
3368.394	3976
3370.132	4131
3371.871	4083
3373.61	4096
3375.346	4012
3377.083	4095
3378.82	4006
3380.556	4069
3382.292	4012
3384.027	3930
3385.763	4040
3387.497	4098
3389.231	4001
3390.965	4036
3392.698	4011
3394.431	3949
3396.164	4018
3397.896	4062
3399.627	3963
3401.36	3998
3403.09	4033
3404.82	3956
3406.55	3985
3408.279	4002
3410.01	4040
3411.738	4103
3413.467	3984
3415.194	3963
3416.92	4002
3418.647	3918
3420.375	3882
3422.102	3924
3423.827	3934
3425.553	3960
3427.277	3957
3429.003	3976
3430.727	3933
3432.451	3868
3434.173	3884
3435.896	3932
3437.62	3891
3439.343	3931
3441.063	3924
3442.785	3911
3444.505	3877
3446.226	3898
3447.948	3852
3449.666	3884
3451.386	3891
3453.104	3852
3454.823	3829
3456.541	3762
3458.259	3861
3459.976	3817
3461.693	3733
3463.408	3805
3465.125	3805
3466.841	3718
3468.556	3825
3470.271	3858
3471.985	3854
3473.698	3722
3475.414	3818
3477.126	3735
3478.838	3791
3480.55	3745
3482.263	3808
3483.975	3713
3485.686	3795
3487.396	3791
3489.106	3682
3490.817	3671
3492.526	3746
3494.236	3744
3495.944	3692
3497.652	3747
3499.359	3688
3501.066	3703
3502.775	3764
3504.481	3662
3506.187	3766
3507.893	3736
3509.598	3681
3511.304	3743
3513.009	3678
3514.713	3682
3516.417	3672
3518.12	3692
3519.821	3669
3521.525	3692
3523.228	3670
3524.929	3693
3526.631	3566
3528.33	3621
3530.032	3669
3531.733	3611
3533.433	3621
3535.131	3576
3536.83	3649
3538.529	3634
3540.227	3702
3541.925	3605
3543.623	3658
3545.319	3609
3547.016	3564
3548.712	3534
3550.408	3606
3552.103	3618
3553.798	3613
3555.491	3659
3557.188	3513
3558.88	3512
3560.574	3567
3562.266	3540
3563.959	3603
3565.651	3540
3567.343	3572
3569.035	3564
3570.725	3549
3572.415	3479
3574.106	3500
3575.797	3549
3577.485	3552
3579.174	3493
3580.863	3482
3582.551	3511
3584.238	3463
3585.926	3544
3587.613	3546
3589.3	3495
3590.986	3544
3592.671	3495
3594.357	3428
3596.042	3496
3597.726	3469
3599.41	3556
3601.094	3459
3602.778	3463
3604.461	3444
3606.143	3416
3607.825	3431
3609.507	3459
3611.188	3427
3612.87	3439
3614.551	3351
3616.229	3392
3617.909	3394
3619.589	3434
3621.269	3456
3622.948	3360
3624.625	3333
3626.302	3461
3627.98	3288
3629.657	3364
3631.334	3319
3633.01	3342
3634.686	3341
3636.361	3307
3638.036	3312
3639.712	3368
3641.385	3342
3643.06	3332
3644.732	3326
3646.405	3333
3648.08	3353
3649.751	3330
3651.424	3261
3653.094	3310
3654.766	3278
3656.436	3252
3658.106	3311
3659.777	3253
3661.446	3308
3663.115	3332
3664.783	3298
3666.452	3290
3668.121	3266
3669.788	3314
3671.454	3283
3673.121	3315
3674.789	3287
3676.455	3342
3678.12	3272
3679.784	3286
3681.45	3210
3683.114	3228
3684.779	3215
3686.442	3288
3688.105	3185
3689.768	3244
3691.43	3200
3693.093	3278
3694.754	3223
3696.415	3250
3698.076	3253
3699.736	3241
3701.396	3158
3703.057	3213
3704.716	3193
3706.375	3188
3708.034	3241
3709.692	3195
3711.351	3211
3713.008	3163
3714.665	3213
3716.321	3091
3717.977	3219
3719.634	3260
3721.29	3279
3722.945	3204
3724.598	3252
3726.253	3186
3727.907	3190
3729.561	3138
3731.214	3204
3732.867	3177
3734.518	3109
3736.171	3197
3737.824	3151
3739.474	3209
3741.125	3178
3742.775	3162
3744.425	3168
3746.074	3248
3747.725	3093
3749.373	3217
3751.022	3159
3752.669	3136
3754.318	3136
3755.966	3201
3757.612	3091
3759.259	3122
3760.905	3085
3762.55	3093
3764.197	3085
3765.842	3134
3767.486	3103
3769.131	3115
3770.774	3092
3772.417	3106
3774.061	3140
3775.705	3036
3777.347	3180
3778.988	3103
3780.629	3071
3782.271	3100
3783.912	3069
3785.552	3100
3787.192	3006
3788.831	3095
3790.472	3150
3792.112	3001
3793.75	3106
3795.388	3101
3797.024	3103
3798.661	3032
3800.3	3043
3801.936	3085
3803.572	3069
3805.208	3113
3806.844	3084
3808.48	3029
3810.115	3090
3811.748	2930
3813.382	3026
3815.016	2948
3816.649	3041
3818.283	3045
3819.914	3002
3821.547	3098
3823.178	3026
3824.809	3047
3826.441	3023
3828.072	3014
3829.701	3017
3831.331	2983
3832.96	2965
3834.591	2957
3836.219	2932
3837.847	2900
3839.475	3003
3841.102	3003
3842.729	3035
3844.357	2948
3845.984	2964
3847.609	2947
3849.234	2985
3850.86	3014
3852.485	2974
3854.11	2893
3855.734	3013
3857.357	2901
3858.981	2948
3860.603	2964
3862.227	2954
3863.848	2905
3865.471	3005
3867.092	2929
3868.713	2948
3870.334	2981
3871.954	2950
3873.575	2975
3875.194	2917
3876.813	2873
3878.433	2922
3880.051	2888
3881.669	2904
3883.286	2958
3884.904	2842
3886.52	2870
3888.138	2928
3889.754	2917
3891.37	2914
3892.985	2876
3894.6	2946
3896.216	2949
3897.831	2877
3899.444	2910
3901.058	2983
3902.67	2953
3904.283	2843
3905.897	2890
3907.509	2868
3909.121	2961
3910.731	2880
3912.342	2881
3913.954	2862
3915.563	2894
3917.174	2878
3918.783	2889
3920.391	2893
3922.002	2880
3923.611	2897
3925.218	2838
3926.826	2855
3928.432	2805
3930.039	2917
3931.647	2855
3933.253	2851
3934.859	2934
3936.464	2884
3938.068	2932
3939.675	2903
3941.278	2792
3942.883	2909
3944.486	2899
3946.089	2815
3947.692	2879
3949.295	2784
3950.898	2813
3952.499	2839
3954.1	2869
3955.7	2828
3957.303	2839
3958.903	2726
3960.502	2754
3962.101	2859
3963.7	2820
3965.301	2828
3966.899	2788
3968.497	2812
3970.094	2789
3971.691	2784
3973.288	2734
3974.885	2753
3976.481	2715
3978.077	2813
3979.672	2769
3981.267	2765
3982.863	2871
3984.457	2794
3986.051	2702
3987.645	2769
3989.238	2792
3990.831	2837
3992.425	2715
3994.017	2779
3995.607	2839
3997.199	2778
3998.79	2708
4000.382	2722
4001.973	2693
4003.561	2782
4005.151	2679
4006.741	2705
4008.331	2693
4009.918	2656
4011.507	2737
4013.095	2665
4014.681	2686
4016.269	2728
4017.856	2623
4019.443	2759
4021.028	2707
4022.614	2700
4024.199	2637
4025.785	2652
4027.37	2685
4028.953	2636
4030.536	2646
4032.12	2701
4033.704	2609
4035.287	2700
4036.869	2583
4038.45	2668
4040.032	2675
4041.613	2688
4043.195	2662
4044.776	2708
4046.356	2645
4047.935	2614
4049.515	2647
4051.095	2626
4052.674	2573
4054.251	2648
4055.829	2631
4057.406	2662
4058.985	2582
4060.562	2595
4062.139	2651
4063.715	2626
4065.29	2619
4066.865	2581
4068.442	2618
4070.016	2571
4071.59	2600
4073.164	2534
4074.738	2632
4076.312	2556
4077.885	2576
4079.458	2618
4081.03	2548
4082.602	2625
4084.173	2631
4085.745	2617
4087.315	2654
4088.886	2538
4090.456	2521
4092.026	2583
4093.596	2556
4095.165	2612
4096.734	2531
4098.301	2585
4099.869	2554
4101.437	2569
4103.006	2553
4104.572	2514
4106.139	2596
4107.704	2522
4109.27	2482
4110.837	2533
4112.401	2545
4113.966	2576
4115.53	2501
4117.094	2533
4118.659	2456
4120.223	2488
4121.785	2461
4123.347	2515
4124.909	2551
4126.471	2504
4128.034	2483
4129.595	2558
4131.155	2487
4132.716	2526
4134.275	2495
4135.836	2484
4137.395	2491
4138.955	2481
4140.513	2544
4142.071	2463
4143.628	2452
4145.188	2479
4146.745	2489
4148.302	2495
4149.858	2434
4151.414	2461
4152.971	2441
4154.526	2459
4156.081	2407
4157.635	2465
4159.189	2498
4160.745	2451
4162.298	2484
4163.852	2383
4165.405	2461
4166.957	2466
4168.51	2427
4170.063	2428
4171.614	2400
4173.166	2449
4174.717	2450
4176.267	2387
4177.817	2457
4179.368	2435
4180.917	2409
4182.466	2428
4184.016	2407
4185.564	2359
4187.112	2380
4188.66	2375
4190.207	2442
4191.754	2453
4193.301	2333
4194.848	2382
4196.394	2462
4197.94	2404
4199.484	2407
4201.03	2424
4202.575	2277
4204.12	2348
4205.663	2426
4207.207	2348
4208.75	2364
4210.292	2374
4211.836	2418
4213.378	2358
4214.92	2357
4216.46	2333
4218.002	2323
4219.544	2290
4221.083	2365
4222.625	2361
4224.164	2416
4225.703	2380
4227.244	2314
4228.782	2347
4230.32	2316
4231.857	2323
4233.395	2327
4234.933	2284
4236.471	2269
4238.007	2379
4239.542	2298
4241.078	2279
4242.614	2373
4244.15	2307
4245.685	2324
4247.219	2321
4248.753	2280
4250.287	2387
4251.82	2286
4253.354	2300
4254.887	2346
4256.419	2270
4257.951	2298
4259.483	2269
4261.016	2340
4262.547	2231
4264.078	2329
4265.608	2335
4267.137	2279
4268.668	2321
4270.197	2333
4271.727	2314
4273.254	2288
4274.783	2321
4276.311	2252
4277.84	2330
4279.366	2196
4280.894	2254
4282.42	2254
4283.946	2313
4285.473	2314
4286.998	2250
4288.523	2193
4290.047	2255
4291.572	2325
4293.096	2239
4294.622	2267
4296.144	2231
4297.668	2221
4299.19	2282
4300.713	2248
4302.236	2237
4303.758	2192
4305.279	2277
4306.799	2274
4308.321	2261
4309.842	2240
4311.361	2268
4312.882	2245
4314.401	2257
