400.0961	3752
402.6185	3853
405.1424	3755
407.6635	3739
410.1838	3851
412.7035	3861
415.2225	3879
417.7388	3813
420.2585	3948
422.7754	3838
425.2917	3900
427.8072	3949
430.3221	3991
432.8363	4013
435.3498	4010
437.8626	4042
440.3727	4028
442.8841	3974
445.3969	4024
447.907	3975
450.4142	4045
452.9229	4036
455.4289	3900
457.9362	4030
460.4449	4163
462.9488	4046
465.454	4007
467.9566	4057
470.4604	4027
472.9637	4088
475.4662	4109
477.966	4078
480.4671	4071
482.9656	4237
485.4633	4162
487.9645	4084
490.4608	4132
492.9566	4101
495.4536	4164
497.948	4107
500.4437	4201
502.9387	4208
505.431	4152
507.9226	4279
510.4136	4216
512.9079	4153
515.3975	4259
517.8864	4221
520.3746	4231
522.8622	4191
525.3491	4219
527.8394	4223
530.3249	4294
532.8098	4146
535.2939	4300
537.7774	4312
540.2623	4225
542.7444	4286
545.2259	4199
547.7067	4236
550.1868	4231
552.6683	4367
555.147	4226
557.6231	4162
560.1005	4286
562.5773	4292
565.0534	4216
567.5308	4263
570.0056	4232
572.4776	4434
574.951	4327
577.4237	4310
579.8978	4293
582.3671	4348
584.8378	4328
587.3079	4354
589.7773	4357
592.244	4333
594.714	4295
597.1793	4389
599.6461	4365
602.1121	4382
604.5754	4315
607.0421	4403
609.5042	4419
611.9675	4434
614.4282	4332
616.8902	4260
619.3515	4337
621.8122	4431
624.2702	4339
626.7296	4397
629.1863	4336
631.6423	4317
634.1017	4360
636.5563	4337
639.0104	4340
641.4658	4404
643.9185	4445
646.3725	4390
648.8239	4370
651.2766	4377
653.7266	4438
656.176	4452
658.6247	4486
661.0748	4366
663.5242	4542
665.9709	4505
668.417	4540
670.8624	4462
673.3092	4488
675.7533	4407
678.1968	4461
680.6395	4628
683.0817	4499
685.5251	4480
687.9659	4468
690.4061	4533
692.8456	4514
695.2844	4517
697.7226	4528
700.1621	4477
702.599	4625
705.0332	4628
707.4688	4624
709.9036	4532
712.3399	4673
714.7735	4560
717.2044	4578
719.6367	4665
722.0683	4522
724.4993	4694
726.9296	4679
729.3593	4708
731.7883	4777
734.2147	4738
736.6423	4720
739.0714	4761
741.4958	4670
743.9216	4749
746.3447	4721
748.7691	4671
751.1929	4797
753.616	4776
756.0366	4731
758.4584	4731
760.8776	4881
763.2982	4816
765.718	4844
768.1373	4851
770.5539	4801
772.9698	4858
775.3871	4900
777.8038	4807
780.2178	4902
782.6332	4858
785.0459	4720
787.458	4881
789.8714	4801
792.2842	4829
794.6943	4970
797.1038	4865
799.5127	4874
801.9209	4920
804.3324	4763
806.7393	4820
809.1456	4845
811.5513	4944
813.9562	4910
816.3625	5042
818.7663	4986
821.1693	4929
823.5718	4903
825.9735	4887
828.3746	4930
830.7771	4904
833.177	4930
835.5762	5002
837.9747	4971
840.3727	4971
842.772	5034
845.1666	5007
847.5626	5009
849.958	5114
852.3527	5043
854.7488	4996
857.1403	5034
859.5331	5090
861.9253	5014
864.3168	5125
866.7057	4998
869.098	5064
871.4876	4993
873.8746	5017
876.263	5104
878.6487	5094
881.0378	4944
883.4243	5059
885.8081	4978
888.1933	5046
890.5759	5068
892.9598	4981
895.343	4899
897.7256	5041
900.1057	4981
902.4871	5061
904.8659	4968
907.246	5012
909.6254	5137
912.0023	5109
914.3786	5227
916.7562	5206
919.1331	5301
921.5074	5374
923.8831	5349
926.2562	5384
928.6287	5287
931.0005	5377
933.3757	5184
935.7462	5185
938.1162	5248
940.4855	5254
942.8542	5252
945.2242	5266
947.5916	5288
949.9584	5247
952.3266	5248
954.6921	5376
957.0571	5403
959.4233	5587
961.787	5604
964.15	5538
966.5125	5430
968.8742	5416
971.2354	5270
973.5959	5314
975.9559	5226
978.3151	5266
980.6738	5168
983.0338	5162
985.3912	5206
987.7461	5248
990.1022	5119
992.4578	5247
994.8127	5171
997.1689	5191
999.5207	5202
1001.874	5242
1004.226	5135
1006.576	5192
1008.929	5178
1011.28	5301
1013.628	5108
1015.977	5190
1018.324	5159
1020.674	5204
1023.019	5276
1025.366	5196
1027.713	5231
1030.056	5215
1032.399	5238
1034.746	5172
1037.087	5339
1039.431	5321
1041.771	5160
1044.113	5208
1046.454	5286
1048.793	5273
1051.133	5177
1053.471	5233
1055.807	5310
1058.146	5238
1060.483	5205
1062.818	5334
1065.153	5355
1067.489	5292
1069.822	5300
1072.156	5330
1074.488	5339
1076.82	5319
1079.15	5277
1081.48	5255
1083.814	5321
1086.143	5365
1088.471	5296
1090.799	5360
1093.126	5349
1095.452	5370
1097.78	5179
1100.105	5327
1102.43	5293
1104.754	5260
1107.077	5293
1109.4	5380
1111.722	5346
1114.044	5375
1116.365	5409
1118.685	5378
1121.005	5487
1123.324	5463
1125.643	5503
1127.961	5451
1130.278	5381
1132.595	5463
1134.911	5381
1137.226	5423
1139.541	5346
1141.854	5450
1144.167	5265
1146.482	5384
1148.793	5292
1151.105	5356
1153.414	5421
1155.725	5356
1158.033	5385
1160.344	5379
1162.651	5286
1164.959	5376
1167.265	5450
1169.572	5363
1171.878	5479
1174.184	5487
1176.488	5439
1178.79	5394
1181.094	5513
1183.396	5411
1185.699	5317
1188.001	5351
1190.301	5371
1192.6	5361
1194.9	5447
1197.2	5395
1199.497	5409
1201.794	5380
1204.09	5378
1206.387	5350
1208.684	5429
1210.978	5367
1213.272	5475
1215.565	5383
1217.858	5464
1220.15	5509
1222.443	5468
1224.734	5362
1227.024	5393
1229.313	5588
1231.602	5483
1233.892	5563
1236.18	5563
1238.467	5675
1240.754	5636
1243.04	5617
1245.325	5703
1247.612	5630
1249.896	5712
1252.178	5636
1254.461	5574
1256.743	5604
1259.027	5631
1261.308	5575
1263.587	5655
1265.867	5645
1268.146	5639
1270.425	5715
1272.703	5725
1274.981	5652
1277.256	5684
1279.532	5672
1281.808	5609
1284.083	5651
1286.358	5513
1288.63	5625
1290.904	5487
1293.175	5506
1295.449	5624
1297.719	5527
1299.99	5549
1302.259	5623
1304.529	5499
1306.798	5672
1309.065	5572
1311.333	5557
1313.599	5612
1315.866	5619
1318.131	5559
1320.396	5565
1322.66	5633
1324.925	5661
1327.187	5653
1329.448	5579
1331.711	5550
1333.974	5640
1336.234	5670
1338.493	5658
1340.752	5602
1343.01	5536
1345.269	5608
1347.526	5648
1349.784	5581
1352.04	5598
1354.295	5537
1356.552	5534
1358.806	5488
1361.059	5565
1363.312	5472
1365.564	5520
1367.818	5563
1370.069	5578
1372.318	5627
1374.568	5513
1376.817	5636
1379.066	5577
1381.316	5713
1383.564	5621
1385.809	5748
1388.056	5683
1390.301	5558
1392.549	5821
1394.793	5895
1397.036	5916
1399.279	5875
1401.522	5911
1403.763	5973
1406.007	5778
1408.248	5831
1410.487	5805
1412.727	5770
1414.965	5832
1417.205	5905
1419.442	5866
1421.68	5806
1423.915	5840
1426.152	5874
1428.388	5796
1430.623	5875
1432.857	5874
1435.091	5825
1437.323	5827
1439.556	5978
1441.789	5948
1444.019	5972
1446.25	5877
1448.48	5866
1450.708	5945
1452.938	6051
1455.167	6103
1457.394	6047
1459.62	6157
1461.846	6005
1464.073	5926
1466.299	5956
1468.523	5851
1470.746	5753
1472.969	5866
1475.191	5752
1477.415	5717
1479.636	5764
1481.858	5727
1484.078	5793
1486.298	5634
1488.518	5734
1490.736	5737
1492.954	5527
1495.169	5622
1497.386	5658
1499.602	5638
1501.819	5676
1504.034	5702
1506.248	5550
1508.462	5508
1510.675	5664
1512.888	5578
1515.1	5605
1517.311	5613
1519.522	5529
1521.732	5575
1523.942	5646
1526.151	5583
1528.36	5557
1530.566	5496
1532.773	5509
1534.98	5541
1537.187	5510
1539.392	5614
1541.596	5624
1543.801	5559
1546.005	5673
1548.208	5705
1550.411	5666
1552.612	5728
1554.814	5753
1557.013	5788
1559.212	5653
1561.414	5664
1563.612	5642
1565.811	5756
1568.007	5612
1570.203	5746
1572.403	5743
1574.598	5811
1576.792	5757
1578.988	5716
1581.181	5685
1583.376	5800
1585.568	5791
1587.761	5851
1589.952	5700
1592.143	5759
1594.333	5762
1596.524	5778
1598.715	5821
1600.903	5809
1603.091	5851
1605.278	5899
1607.466	5865
1609.652	5895
1611.838	5783
1614.023	5860
1616.207	5707
1618.391	5824
1620.576	5787
1622.759	5774
1624.941	5783
1627.123	5808
1629.304	5803
1631.484	5859
1633.664	5802
1635.844	5822
1638.022	5901
1640.201	5777
1642.38	5774
1644.556	5886
1646.732	5871
1648.908	5929
1651.084	5902
1653.257	5950
1655.433	5941
1657.607	5845
1659.779	5901
1661.951	5831
1664.122	5915
1666.295	5972
1668.467	5929
1670.635	5969
1672.805	6024
1674.973	5915
1677.142	5961
1679.31	5994
1681.478	5872
1683.644	5894
1685.81	5939
1687.975	5926
1690.142	5940
1692.305	5869
1694.468	5828
1696.632	5848
1698.794	5839
1700.957	5857
1703.119	5824
1705.279	5852
1707.439	5818
1709.598	5841
1711.758	5818
1713.917	5794
1716.075	5773
1718.231	5801
1720.388	5760
1722.543	5744
1724.702	5808
1726.856	5799
1729.01	5788
1731.164	5783
1733.317	5809
1735.471	5763
1737.623	5701
1739.774	5788
1741.925	5718
1744.075	5814
1746.225	5779
1748.376	5817
1750.524	5742
1752.672	5823
1754.82	5829
1756.965	5749
1759.113	5745
1761.259	5828
1763.405	5833
1765.549	5857
1767.694	5831
1769.836	5777
1771.981	5904
1774.123	5855
1776.264	5830
1778.405	5855
1780.546	5768
1782.687	5864
1784.827	5845
1786.966	5718
1789.103	5912
1791.242	5820
1793.381	5822
1795.517	5795
1797.653	5825
1799.788	5800
1801.923	5776
1804.057	5810
1806.193	5871
1808.326	5847
1810.457	5754
1812.59	5952
1814.721	5857
1816.855	5838
1818.984	5856
1821.113	5830
1823.244	5708
1825.372	5983
1827.499	5886
1829.63	5769
1831.756	5919
1833.882	5821
1836.007	5865
1838.132	5859
1840.26	6004
1842.384	5806
1844.507	5807
1846.63	5701
1848.752	5867
1850.875	5804
1852.996	5748
1855.118	5634
1857.238	5779
1859.358	5745
1861.477	5810
1863.597	5785
1865.715	5772
1867.832	5721
1869.948	5788
1872.064	5682
1874.181	5835
1876.297	5771
1878.411	5815
1880.526	5851
1882.639	5763
1884.752	5965
1886.865	5838
1888.977	5829
1891.089	5800
1893.2	5654
1895.308	5807
1897.42	5849
1899.53	5864
1901.639	5979
1903.745	5818
1905.853	5845
1907.962	5865
1910.067	5851
1912.174	5758
1914.278	5843
1916.383	5829
1918.486	5999
1920.592	5896
1922.694	5853
1924.797	5912
1926.898	5883
1929	5820
1931.102	5774
1933.203	5901
1935.301	5808
1937.401	5792
1939.499	5994
1941.598	5804
1943.697	5862
1945.793	5807
1947.888	5793
1949.985	5924
1952.08	5946
1954.176	5893
1956.269	5893
1958.364	5865
1960.457	5925
1962.549	5914
1964.642	5820
1966.733	5865
1968.823	5770
1970.913	5761
1973.005	5819
1975.093	5862
1977.184	5916
1979.271	5846
1981.359	5827
1983.446	5817
1985.532	5832
1987.619	5776
1989.705	5800
1991.789	5744
1993.874	5864
1995.956	5838
1998.041	5816
2000.123	5745
2002.206	5872
2004.287	5790
2006.368	5856
2008.449	5659
2010.529	5838
2012.609	5770
2014.688	5777
2016.766	5831
2018.843	5677
2020.922	5724
2022.999	5809
2025.074	5780
2027.15	5724
2029.225	5764
2031.299	5846
2033.375	5844
2035.447	5804
2037.52	5840
2039.592	5799
2041.664	5881
2043.736	5851
2045.807	5744
2047.876	5906
2049.947	5762
2052.015	5784
2054.086	5685
2056.153	5862
2058.221	5836
2060.288	5778
2062.353	5807
2064.42	5841
2066.486	5766
2068.55	5872
2070.614	5862
2072.678	5830
2074.741	5874
2076.805	5880
2078.866	5729
2080.929	5801
2082.99	5821
2085.049	5776
2087.109	5818
2089.17	5700
2091.228	5852
2093.286	5749
2095.344	5821
2097.4	5766
2099.46	5807
2101.516	5848
2103.572	5830
2105.626	5837
2107.679	5816
2109.735	5885
2111.788	5814
2113.841	5821
2115.894	5801
2117.945	5762
2119.997	5823
2122.049	5761
2124.1	5902
2126.148	5740
2128.197	5759
2130.246	5760
2132.296	5731
2134.342	5852
2136.39	5795
2138.437	5841
2140.483	5788
2142.527	5773
2144.574	5824
2146.619	5890
2148.661	5781
2150.705	5785
2152.747	5727
2154.792	5801
2156.832	5876
2158.874	5728
2160.915	5696
2162.954	5762
2164.995	5686
2167.034	5765
2169.072	5718
2171.111	5714
2173.148	5756
2175.186	5721
2177.223	5698
2179.258	5715
2181.294	5755
2183.328	5685
2185.362	5743
2187.398	5638
2189.431	5685
2191.463	5728
2193.495	5709
2195.528	5686
2197.56	5607
2199.59	5723
2201.62	5707
2203.649	5692
2205.678	5627
2207.708	5754
2209.737	5661
2211.764	5595
2213.791	5652
2215.817	5624
2217.843	5671
2219.87	5760
2221.895	5681
2223.919	5548
2225.942	5611
2227.966	5649
2229.988	5564
2232.012	5549
2234.032	5712
2236.054	5674
2238.074	5631
2240.095	5612
2242.116	5633
2244.135	5651
2246.153	5662
2248.171	5647
2250.188	5605
2252.208	5632
2254.223	5549
2256.239	5680
2258.255	5677
2260.269	5594
2262.283	5637
2264.3	5627
2266.312	5619
2268.325	5636
2270.336	5736
2272.349	5623
2274.362	5607
2276.372	5667
2278.383	5548
2280.392	5652
2282.402	5536
2284.409	5616
2286.418	5650
2288.427	5692
2290.433	5628
2292.441	5486
2294.446	5668
2296.453	5550
2298.459	5595
2300.463	5609
2302.466	5648
2304.471	5538
2306.475	5575
2308.477	5597
2310.478	5578
2312.481	5679
2314.481	5606
2316.481	5595
2318.482	5689
2320.482	5549
2322.48	5561
2324.48	5608
2326.478	5537
2328.476	5598
2330.473	5538
2332.469	5464
2334.465	5479
2336.46	5561
2338.454	5575
2340.45	5519
2342.444	5420
2344.437	5513
2346.43	5545
2348.421	5530
2350.414	5506
2352.405	5592
2354.396	5506
2356.386	5445
2358.376	5299
2360.366	5491
2362.355	5508
2364.343	5418
2366.331	5482
2368.317	5528
2370.304	5494
2372.292	5451
2374.278	5603
2376.262	5545
2378.247	5398
2380.23	5435
2382.216	5527
2384.199	5500
2386.181	5538
2388.163	5429
2390.144	5495
2392.127	5401
2394.107	5415
2396.087	5409
2398.066	5477
2400.046	5548
2402.023	5489
2404.004	5488
2405.981	5462
2407.957	5415
2409.934	5431
2411.91	5414
2413.886	5294
2415.862	5442
2417.836	5283
2419.809	5407
2421.784	5447
2423.756	5480
2425.73	5460
2427.701	5479
2429.672	5363
2431.644	5404
2433.615	5390
2435.586	5437
2437.555	5423
2439.523	5419
2441.491	5373
2443.459	5487
2445.428	5365
2447.395	5376
2449.361	5329
2451.327	5404
2453.292	5327
2455.257	5324
2457.223	5537
2459.187	5431
2461.15	5326
2463.113	5393
2465.076	5377
2467.039	5356
2468.999	5381
2470.96	5372
2472.921	5395
2474.881	5399
2476.841	5333
2478.8	5432
2480.759	5395
2482.717	5336
2484.675	5464
2486.63	5346
2488.589	5304
2490.545	5391
2492.5	5258
2494.455	5352
2496.408	5281
2498.364	5328
2500.318	5333
2502.27	5319
2504.223	5282
2506.174	5324
2508.126	5291
2510.078	5294
2512.03	5324
2513.979	5285
2515.927	5237
2517.877	5405
2519.826	5375
2521.775	5321
2523.722	5315
2525.668	5336
2527.616	5311
2529.561	5401
2531.508	5300
2533.452	5357
2535.398	5216
2537.342	5329
2539.284	5188
2541.229	5337
2543.173	5250
2545.114	5261
2547.055	5243
2548.996	5277
2550.938	5292
2552.878	5294
2554.817	5325
2556.756	5358
2558.695	5232
2560.633	5231
2562.572	5231
2564.509	5238
2566.445	5302
2568.382	5208
2570.317	5277
2572.254	5283
2574.189	5315
2576.123	5341
2578.057	5307
2579.99	5320
2581.923	5330
2583.855	5302
2585.788	5232
2587.719	5297
2589.65	5297
2591.579	5279
2593.511	5285
2595.44	5228
2597.37	5286
2599.297	5328
2601.225	5256
2603.153	5211
2605.08	5329
2607.007	5310
2608.932	5221
2610.858	5321
2612.782	5287
2614.709	5279
2616.632	5380
2618.556	5252
2620.478	5363
2622.401	5172
2624.324	5265
2626.247	5186
2628.167	5298
2630.088	5364
2632.008	5265
2633.928	5272
2635.848	5315
2637.766	5241
2639.684	5304
2641.603	5226
2643.519	5294
2645.437	5325
2647.353	5224
2649.27	5340
2651.184	5295
2653.099	5210
2655.014	5405
2656.928	5221
2658.842	5226
2660.755	5221
2662.667	5268
2664.579	5204
2666.491	5290
2668.402	5251
2670.312	5096
2672.222	5169
2674.132	5316
2676.042	5170
2677.951	5145
2679.859	5243
2681.766	5169
2683.674	5145
2685.582	5194
2687.488	5136
2689.392	5268
2691.298	5156
2693.202	5135
2695.107	5286
2697.012	5239
2698.914	5132
2700.817	5156
2702.72	5150
2704.622	5214
2706.524	5201
2708.425	5153
2710.326	5184
2712.225	5071
2714.125	5161
2716.024	5120
2717.923	5215
2719.822	5097
2721.719	5259
2723.616	5181
2725.512	5131
2727.41	5048
2729.305	5116
2731.201	5066
2733.095	5212
2734.99	5119
2736.884	5210
2738.778	5155
2740.67	5045
2742.562	5073
2744.455	5104
2746.346	5179
2748.238	5173
2750.129	5105
2752.018	5070
2753.907	5107
2755.797	5163
2757.687	5152
2759.575	5062
2761.462	5135
2763.349	5153
2765.237	5134
2767.124	5092
2769.009	5209
2770.894	5149
2772.779	5103
2774.663	5092
2776.547	5030
2778.431	5130
2780.314	5053
2782.197	5094
2784.078	5033
2785.96	5020
2787.842	5136
2789.723	5089
2791.603	5059
2793.483	5088
2795.362	5103
2797.241	5150
2799.121	5059
2800.997	4977
2802.874	5087
2804.751	5164
2806.628	5066
2808.506	5047
2810.38	5142
2812.255	5043
2814.13	5013
2816.003	5020
2817.878	5081
2819.752	5107
2821.623	5141
2823.496	5060
2825.368	5151
2827.238	5120
2829.111	5104
2830.98	5018
2832.851	5031
2834.719	5119
2836.589	5115
2838.458	5120
2840.327	4997
2842.193	5025
2844.061	5089
2845.927	5188
2847.794	5113
2849.66	5132
2851.525	5288
2853.39	5204
2855.254	5178
2857.117	5228
2858.983	5180
2860.845	5214
2862.707	5178
2864.569	5271
2866.431	5324
2868.293	5268
2870.154	5268
2872.013	5355
2873.873	5310
2875.733	5345
2877.592	5410
2879.451	5444
2881.309	5487
2883.166	5443
2885.022	5493
2886.879	5664
2888.736	5612
2890.591	5567
2892.446	5600
2894.301	5633
2896.155	5580
2898.009	5637
2899.863	5598
2901.716	5517
2903.568	5520
2905.419	5556
2907.27	5505
2909.123	5540
2910.973	5548
2912.824	5737
2914.673	5539
2916.521	5600
2918.372	5654
2920.22	5732
2922.067	5703
2923.914	5744
2925.761	5625
2927.607	5843
2929.455	5851
2931.301	5900
2933.144	5692
2934.99	5791
2936.833	5855
2938.678	5862
2940.522	5878
2942.364	5952
2944.207	6056
2946.048	6205
2947.891	6252
2949.731	6392
2951.571	6232
2953.412	6213
2955.25	6149
2957.09	6240
2958.93	6142
2960.767	6217
2962.606	6139
2964.443	6102
2966.279	5994
2968.116	5896
2969.953	5716
2971.788	5727
2973.623	5680
2975.457	5729
2977.292	5671
2979.127	5475
2980.959	5552
2982.792	5407
2984.624	5362
2986.455	5342
2988.288	5303
2990.119	5280
2991.949	5291
2993.779	5289
2995.608	5200
2997.439	5272
2999.268	5177
3001.096	5155
3002.923	5094
3004.751	5072
3006.578	5086
3008.406	4935
3010.232	5016
3012.057	4992
3013.883	4928
3015.706	4902
3017.532	4852
3019.356	4870
3021.179	4804
3023.002	4867
3024.823	4883
3026.646	4847
3028.469	4801
3030.289	4843
3032.11	4774
3033.93	4790
3035.749	4893
3037.57	4846
3039.39	4814
3041.207	4838
3043.026	4746
3044.842	4748
3046.661	4740
3048.477	4856
3050.294	4795
3052.109	4831
3053.925	4731
3055.739	4736
3057.555	4853
3059.368	4646
3061.181	4818
3062.995	4731
3064.807	4770
3066.62	4771
3068.433	4780
3070.243	4752
3072.054	4732
3073.865	4715
3075.675	4705
3077.485	4648
3079.293	4644
3081.102	4719
3082.911	4690
3084.719	4664
3086.527	4637
3088.333	4641
3090.139	4666
3091.945	4705
3093.75	4596
3095.557	4655
3097.361	4584
3099.165	4539
3100.969	4502
3102.772	4601
3104.575	4696
3106.379	4514
3108.181	4631
3109.982	4561
3111.783	4556
3113.584	4593
3115.386	4665
3117.186	4594
3118.985	4546
3120.783	4545
3122.582	4530
3124.381	4499
3126.179	4514
3127.975	4500
3129.772	4486
3131.569	4525
3133.365	4434
3135.161	4588
3136.956	4540
3138.751	4589
3140.544	4432
3142.338	4497
3144.132	4484
3145.925	4425
3147.717	4451
3149.509	4436
3151.301	4497
3153.091	4464
3154.884	4492
3156.673	4503
3158.462	4466
3160.252	4447
3162.041	4488
3163.831	4450
3165.618	4444
3167.405	4407
3169.193	4435
3170.979	4439
3172.767	4515
3174.553	4396
3176.338	4487
3178.123	4470
3179.907	4417
3181.692	4481
3183.477	4476
3185.259	4465
3187.042	4380
3188.824	4436
3190.607	4471
3192.389	4399
3194.17	4383
3195.951	4447
3197.73	4382
3199.51	4475
3201.289	4448
3203.07	4374
3204.848	4346
3206.626	4407
3208.403	4376
3210.18	4304
3211.959	4447
3213.735	4287
3215.511	4365
3217.285	4325
3219.06	4438
3220.836	4349
3222.611	4440
3224.384	4340
3226.158	4379
3227.929	4300
3229.702	4266
3231.476	4334
3233.248	4354
3235.018	4336
3236.789	4379
3238.56	4359
3240.33	4353
3242.1	4366
3243.869	4315
3245.637	4361
3247.405	4293
3249.172	4363
3250.941	4428
3252.707	4362
3254.474	4399
3256.24	4364
3258.006	4280
3259.772	4372
3261.537	4404
3263.301	4372
3265.065	4322
3266.828	4254
3268.592	4290
3270.355	4286
3272.117	4224
3273.878	4370
3275.64	4414
3277.401	4337
3279.162	4357
3280.922	4294
3282.682	4286
3284.441	4337
3286.199	4390
3287.959	4356
3289.716	4273
3291.475	4341
3293.232	4384
3294.988	4279
3296.744	4341
3298.501	4369
3300.256	4315
3302.011	4286
3303.766	4385
3305.52	4346
3307.275	4265
3309.028	4287
3310.781	4311
3312.533	4281
3314.285	4320
3316.038	4310
3317.789	4295
3319.54	4226
3321.289	4339
3323.039	4227
3324.789	4259
3326.539	4291
3328.288	4232
3330.035	4354
3331.783	4335
3333.531	4297
3335.28	4245
3337.025	4310
3338.771	4322
3340.518	4200
3342.262	4346
3344.009	4299
3345.753	4229
3347.497	4260
3349.24	4225
3350.983	4229
3352.726	4162
3354.469	4269
3356.212	4253
3357.952	4223
3359.694	4227
3361.434	4181
3363.176	4229
3364.916	4194
3366.654	4180
3368.394	4194
3370.132	4147
3371.871	4299
3373.61	4095
3375.346	4077
3377.083	4281
3378.82	4150
3380.556	4099
3382.292	4156
3384.027	4134
3385.763	4093
3387.497	4235
3389.231	4100
3390.965	4155
3392.698	4190
3394.431	4102
3396.164	4141
3397.896	4190
3399.627	4015
3401.36	4027
3403.09	4100
3404.82	4146
3406.55	4044
3408.279	4046
3410.01	4106
3411.738	4063
3413.467	4164
3415.194	4052
3416.92	4051
3418.647	4139
3420.375	4128
3422.102	4115
3423.827	4095
3425.553	4083
3427.277	4102
3429.003	4041
3430.727	4023
3432.451	4054
3434.173	4026
3435.896	4019
3437.62	3978
3439.343	3953
3441.063	4022
3442.785	4027
3444.505	3985
3446.226	3959
3447.948	3915
3449.666	3953
3451.386	4018
3453.104	3879
3454.823	4030
3456.541	4014
3458.259	3933
3459.976	3927
3461.693	4022
3463.408	3946
3465.125	3907
3466.841	4000
3468.556	3981
3470.271	3949
3471.985	3998
3473.698	3868
3475.414	3965
3477.126	3903
3478.838	3872
3480.55	3903
3482.263	3917
3483.975	3907
3485.686	3831
3487.396	3817
3489.106	3781
3490.817	3900
3492.526	3934
3494.236	3853
3495.944	3814
3497.652	3884
3499.359	3813
3501.066	3815
3502.775	3827
3504.481	3881
3506.187	3783
3507.893	3847
3509.598	3715
3511.304	3839
3513.009	3789
3514.713	3758
3516.417	3752
3518.12	3830
3519.821	3747
3521.525	3818
3523.228	3826
3524.929	3849
3526.631	3747
3528.33	3698
3530.032	3742
3531.733	3807
3533.433	3835
3535.131	3747
3536.83	3766
3538.529	3797
3540.227	3811
3541.925	3790
3543.623	3745
3545.319	3765
3547.016	3662
3548.712	3734
3550.408	3728
3552.103	3741
3553.798	3753
3555.491	3697
3557.188	3750
3558.88	3660
3560.574	3730
3562.266	3695
3563.959	3745
3565.651	3689
3567.343	3679
3569.035	3705
3570.725	3694
3572.415	3654
3574.106	3722
3575.797	3723
3577.485	3645
3579.174	3680
3580.863	3608
3582.551	3663
3584.238	3594
3585.926	3568
3587.613	3679
3589.3	3654
3590.986	3657
3592.671	3622
3594.357	3578
3596.042	3601
3597.726	3610
3599.41	3589
3601.094	3602
3602.778	3645
3604.461	3572
3606.143	3615
3607.825	3606
3609.507	3617
3611.188	3659
3612.87	3547
3614.551	3507
3616.229	3543
3617.909	3548
3619.589	3526
3621.269	3519
3622.948	3553
3624.625	3483
3626.302	3565
3627.98	3407
3629.657	3495
3631.334	3473
3633.01	3399
3634.686	3461
3636.361	3509
3638.036	3535
3639.712	3425
3641.385	3440
3643.06	3508
3644.732	3486
3646.405	3445
3648.08	3509
3649.751	3490
3651.424	3454
3653.094	3487
3654.766	3415
3656.436	3452
3658.106	3431
3659.777	3429
3661.446	3520
3663.115	3425
3664.783	3457
3666.452	3499
3668.121	3391
3669.788	3444
3671.454	3425
3673.121	3395
3674.789	3397
3676.455	3475
3678.12	3473
3679.784	3380
3681.45	3312
3683.114	3443
3684.779	3393
3686.442	3457
3688.105	3320
3689.768	3374
3691.43	3401
3693.093	3339
3694.754	3445
3696.415	3385
3698.076	3410
3699.736	3367
3701.396	3440
3703.057	3332
3704.716	3313
3706.375	3405
3708.034	3404
3709.692	3344
3711.351	3271
3713.008	3362
3714.665	3363
3716.321	3359
3717.977	3268
3719.634	3358
3721.29	3295
3722.945	3381
3724.598	3342
3726.253	3335
3727.907	3409
3729.561	3316
3731.214	3295
3732.867	3296
3734.518	3314
3736.171	3359
3737.824	3287
3739.474	3275
3741.125	3307
3742.775	3254
3744.425	3314
3746.074	3258
3747.725	3269
3749.373	3294
3751.022	3236
3752.669	3292
3754.318	3329
3755.966	3244
3757.612	3307
3759.259	3273
3760.905	3266
3762.55	3284
3764.197	3296
3765.842	3271
3767.486	3216
3769.131	3208
3770.774	3194
3772.417	3255
3774.061	3187
3775.705	3194
3777.347	3300
3778.988	3205
3780.629	3258
3782.271	3280
3783.912	3138
3785.552	3244
3787.192	3246
3788.831	3291
3790.472	3225
3792.112	3198
3793.75	3119
3795.388	3228
3797.024	3208
3798.661	3202
3800.3	3198
3801.936	3213
3803.572	3325
3805.208	3125
3806.844	3148
3808.48	3111
3810.115	3166
3811.748	3199
3813.382	3175
3815.016	3138
3816.649	3216
3818.283	3109
3819.914	3164
3821.547	3104
3823.178	3156
3824.809	3180
3826.441	3189
3828.072	3190
3829.701	3111
3831.331	3138
3832.96	3179
3834.591	3136
3836.219	3099
3837.847	3103
3839.475	3092
3841.102	3082
3842.729	3116
3844.357	3084
3845.984	3090
3847.609	3036
3849.234	3087
3850.86	3089
3852.485	3050
3854.11	3081
3855.734	3079
3857.357	3111
3858.981	3119
3860.603	3033
3862.227	3118
3863.848	3035
3865.471	3071
3867.092	3062
3868.713	3048
3870.334	3059
3871.954	3050
3873.575	3092
3875.194	3055
3876.813	3134
3878.433	2955
3880.051	3039
3881.669	3009
3883.286	3049
3884.904	3009
3886.52	3007
3888.138	3022
3889.754	3100
3891.37	3009
3892.985	3070
3894.6	2999
3896.216	3071
3897.831	2982
3899.444	2957
3901.058	2968
3902.67	3026
3904.283	3015
3905.897	3051
3907.509	2954
3909.121	2958
3910.731	3047
3912.342	3021
3913.954	3056
3915.563	3035
3917.174	2974
3918.783	2999
3920.391	2977
3922.002	2984
3923.611	3073
3925.218	2943
3926.826	3005
3928.432	2926
3930.039	2989
3931.647	3025
3933.253	3004
3934.859	2934
3936.464	2840
3938.068	2962
3939.675	3026
3941.278	2913
3942.883	3005
3944.486	2948
3946.089	2953
3947.692	2890
3949.295	3015
3950.898	2974
3952.499	2938
3954.1	2919
3955.7	2921
3957.303	2970
3958.903	2921
3960.502	2926
3962.101	2881
3963.7	2987
3965.301	2903
3966.899	2892
3968.497	2845
3970.094	2915
3971.691	2860
3973.288	2932
3974.885	2924
3976.481	2814
3978.077	2853
3979.672	2867
3981.267	2854
3982.863	2906
3984.457	2914
3986.051	2876
3987.645	2876
3989.238	2864
3990.831	2880
3992.425	2794
3994.017	2909
3995.607	2754
3997.199	2801
3998.79	2869
4000.382	2858
4001.973	2788
4003.561	2754
4005.151	2775
4006.741	2802
4008.331	2887
4009.918	2808
4011.507	2815
4013.095	2740
4014.681	2785
4016.269	2790
4017.856	2738
4019.443	2750
4021.028	2766
4022.614	2790
4024.199	2815
4025.785	2757
4027.37	2787
4028.953	2812
4030.536	2739
4032.12	2758
4033.704	2727
4035.287	2812
4036.869	2722
4038.45	2702
4040.032	2737
4041.613	2684
4043.195	2695
4044.776	2765
4046.356	2694
4047.935	2840
4049.515	2675
4051.095	2734
4052.674	2777
4054.251	2728
4055.829	2765
4057.406	2728
4058.985	2708
4060.562	2719
4062.139	2738
4063.715	2696
4065.29	2702
4066.865	2723
4068.442	2703
4070.016	2682
4071.59	2685
4073.164	2721
4074.738	2718
4076.312	2691
4077.885	2716
4079.458	2717
4081.03	2708
4082.602	2654
4084.173	2669
4085.745	2665
4087.315	2597
4088.886	2647
4090.456	2683
4092.026	2609
4093.596	2651
4095.165	2655
4096.734	2630
4098.301	2665
4099.869	2631
4101.437	2650
4103.006	2693
4104.572	2585
4106.139	2649
4107.704	2596
4109.27	2647
4110.837	2637
4112.401	2621
4113.966	2653
4115.53	2617
4117.094	2609
4118.659	2626
4120.223	2617
4121.785	2528
4123.347	2624
4124.909	2623
4126.471	2630
4128.034	2633
4129.595	2607
4131.155	2599
4132.716	2625
4134.275	2600
4135.836	2588
4137.395	2608
4138.955	2562
4140.513	2586
4142.071	2596
4143.628	2535
4145.188	2594
4146.745	2571
4148.302	2541
4149.858	2540
4151.414	2580
4152.971	2562
4154.526	2595
4156.081	2524
4157.635	2516
4159.189	2543
4160.745	2493
4162.298	2540
4163.852	2571
4165.405	2549
4166.957	2464
4168.51	2496
4170.063	2552
4171.614	2570
4173.166	2520
4174.717	2482
4176.267	2445
4177.817	2562
4179.368	2491
4180.917	2476
4182.466	2420
4184.016	2489
4185.564	2512
4187.112	2496
4188.66	2467
4190.207	2524
4191.754	2467
4193.301	2504
4194.848	2483
4196.394	2497
4197.94	2455
4199.484	2481
4201.03	2441
4202.575	2409
4204.12	2450
4205.663	2463
4207.207	2398
4208.75	2445
4210.292	2453
4211.836	2435
4213.378	2447
4214.92	2437
4216.46	2457
4218.002	2444
4219.544	2448
4221.083	2427
4222.625	2412
4224.164	2423
4225.703	2404
4227.244	2407
4228.782	2423
4230.32	2396
4231.857	2426
4233.395	2421
4234.933	2501
4236.471	2428
4238.007	2426
4239.542	2451
4241.078	2411
4242.614	2400
4244.15	2400
4245.685	2437
4247.219	2466
4248.753	2372
4250.287	2406
4251.82	2429
4253.354	2330
4254.887	2386
4256.419	2359
4257.951	2371
4259.483	2379
4261.016	2389
4262.547	2332
4264.078	2387
4265.608	2366
4267.137	2386
4268.668	2387
4270.197	2350
4271.727	2365
4273.254	2376
4274.783	2347
4276.311	2404
4277.84	2373
4279.366	2344
4280.894	2394
4282.42	2372
4283.946	2314
4285.473	2337
4286.998	2341
4288.523	2308
4290.047	2312
4291.572	2329
4293.096	2302
4294.622	2353
4296.144	2346
4297.668	2277
4299.19	2348
4300.713	2312
4302.236	2312
4303.758	2278
4305.279	2304
4306.799	2325
4308.321	2277
4309.842	2300
4311.361	2334
4312.882	2270
4314.401	2277
