200.151048	16014.333333
201.758777	16084.333333
203.365815	15975.333333
204.972162	15830.000000
206.577820	15821.666667
208.182787	15701.666667
209.787065	15657.666667
211.390653	15722.333333
212.993553	15585.000000
214.595765	15641.000000
216.197289	15580.333333
217.798125	15404.333333
219.398274	15466.666667
220.997737	15469.666667
222.596513	15446.000000
224.194603	15479.666667
225.792008	15238.666667
227.388728	15182.333333
228.984763	15366.000000
230.580114	15235.666667
232.174781	15215.000000
233.768765	15092.333333
235.362065	15111.000000
236.954683	15054.333333
238.546619	14978.000000
240.137872	14976.666667
241.728445	14868.666667
243.318336	14935.000000
244.907546	14901.666667
246.496076	14724.666667
248.083926	14672.000000
249.671097	14647.666667
251.257589	14756.000000
252.843402	14621.000000
254.428536	14567.666667
256.012993	14508.666667
257.596772	14496.333333
259.179874	14408.333333
260.762300	14433.000000
262.344049	14317.333333
263.925122	14416.333333
265.505519	14363.666667
267.085241	14326.666667
268.664289	14244.333333
270.242662	14275.000000
271.820361	14239.333333
273.397387	14128.333333
274.973740	14148.333333
276.549419	14241.666667
278.124426	14176.000000
279.698762	14214.333333
281.272425	14183.333333
282.845417	14133.333333
284.417739	14197.666667
285.989390	14266.000000
287.560371	14187.666667
289.130682	14163.333333
290.700324	14161.000000
292.269297	14200.000000
293.837602	14162.000000
295.405238	14140.333333
296.972207	14102.000000
298.538508	14191.666667
300.104142	13957.666667
301.669110	14032.666667
303.233411	13917.333333
304.797047	13976.000000
306.360017	13896.666667
307.922322	13840.666667
309.483963	13731.666667
311.044939	13692.333333
312.605252	13686.000000
314.164900	13651.333333
315.723886	13644.666667
317.282209	13533.666667
318.839870	13466.333333
320.396868	13409.000000
321.953205	13402.333333
323.508881	13363.000000
325.063896	13447.666667
326.618251	13374.333333
328.171945	13360.333333
329.724980	13229.000000
331.277356	13323.333333
332.829072	13230.666667
334.380131	13282.666667
335.930530	13170.000000
337.480273	13120.666667
339.029357	13151.333333
340.577785	13227.333333
342.125556	13185.000000
343.672671	13026.666667
345.219130	13155.000000
346.764933	13081.666667
348.310081	13033.000000
349.854575	13020.666667
351.398414	12930.666667
352.941599	12978.666667
354.484130	12901.333333
356.026008	12965.000000
357.567234	12889.666667
359.107807	12903.333333
360.647727	12786.000000
362.186996	12844.666667
363.725614	12744.000000
365.263580	12721.333333
366.800896	12728.000000
368.337562	12676.333333
369.873578	12658.000000
371.408944	12606.333333
372.943661	12690.333333
374.477730	12748.666667
376.011150	12732.333333
377.543922	12748.333333
379.076046	12798.000000
380.607523	12767.000000
382.138353	12757.666667
383.668537	12726.666667
385.198075	12823.333333
386.726966	12730.666667
388.255213	12710.000000
389.782814	12806.000000
391.309770	12848.666667
392.836083	12845.333333
394.361751	12844.333333
395.886776	12831.333333
397.411157	12926.666667
398.934896	12882.000000
400.457992	12802.666667
401.980446	12770.000000
403.502258	12922.000000
405.023429	12874.666667
406.543959	12942.333333
408.063849	12986.666667
409.583098	13015.333333
411.101707	13107.666667
412.619677	13179.333333
414.137007	13148.000000
415.653699	13346.333333
417.169752	13378.000000
418.685167	13474.666667
420.199945	13731.666667
421.714085	13846.666667
423.227588	13827.666667
424.740454	13964.666667
426.252684	13933.333333
427.764279	14059.333333
429.275238	14046.333333
430.785561	13998.000000
432.295250	13945.000000
433.804304	13807.333333
435.312725	13715.000000
436.820511	13584.666667
438.327664	13504.666667
439.834185	13322.333333
441.340072	13309.000000
442.845327	13235.666667
444.349951	13150.666667
445.853942	13096.333333
447.357303	13071.666667
448.860033	12987.666667
450.362132	13025.000000
451.863601	12947.333333
453.364440	12812.000000
454.864650	12655.666667
456.364231	12627.666667
457.863183	12494.333333
459.361507	12448.000000
460.859203	12223.666667
462.356271	12288.000000
463.852712	12117.333333
465.348526	12098.666667
466.843714	11999.666667
468.338275	11951.333333
469.832210	11895.333333
471.325520	11843.000000
472.818205	11865.666667
474.310265	11717.333333
475.801700	11782.666667
477.292512	11742.666667
478.782700	11696.666667
480.272264	11635.666667
481.761205	11620.666667
483.249524	11473.000000
484.737221	11462.333333
486.224295	11479.333333
487.710748	11443.333333
489.196579	11345.333333
490.681790	11318.666667
492.166380	11286.333333
493.650350	11410.000000
495.133700	11410.000000
496.616431	11242.666667
498.098542	11260.000000
499.580035	11362.000000
501.060909	11385.666667
502.541165	11371.333333
504.020804	11277.000000
505.499825	11303.000000
506.978228	11273.666667
508.456016	11181.333333
509.933186	11100.666667
511.409741	11168.000000
512.885680	11149.666667
514.361004	11110.333333
515.835713	11154.666667
517.309807	11145.000000
518.783287	11106.333333
520.256153	11150.000000
521.728406	11268.333333
523.200045	11139.000000
524.671071	11188.333333
526.141485	11128.333333
527.611287	11254.666667
529.080476	11181.666667
530.549054	11235.000000
532.017021	11210.666667
533.484378	11065.333333
534.951123	11108.000000
536.417259	11166.333333
537.882785	11077.666667
539.347701	11147.333333
540.812008	11163.000000
542.275707	11118.000000
543.738797	11053.666667
545.201279	11061.333333
546.663153	11122.666667
548.124420	11222.666667
549.585080	11165.000000
551.045133	11268.000000
552.504579	11321.333333
553.963420	11290.333333
555.421655	11348.666667
556.879285	11283.666667
558.336309	11358.333333
559.792729	11288.333333
561.248545	11391.000000
562.703756	11471.000000
564.158364	11443.666667
565.612369	11444.666667
567.065770	11403.333333
568.518569	11497.333333
569.970766	11664.333333
571.422361	11667.666667
572.873354	11819.666667
574.323745	11812.666667
575.773536	11999.666667
577.222726	11905.666667
578.671316	11962.666667
580.119306	12144.000000
581.566696	11845.333333
583.013487	11865.000000
584.459679	11731.000000
585.905273	11722.666667
587.350268	11623.333333
588.794665	11717.333333
590.238465	11714.000000
591.681667	11624.666667
593.124272	11676.666667
594.566281	11557.666667
596.007694	11379.333333
597.448510	11309.000000
598.888731	11241.333333
600.328357	11177.000000
601.767388	11144.333333
603.205824	11107.666667
604.643666	11108.333333
606.080914	11065.333333
607.517568	11140.000000
608.953629	11042.666667
610.389097	11057.333333
611.823972	11062.000000
613.258255	10992.666667
614.691946	10973.000000
616.125046	10926.000000
617.557554	10904.000000
618.989471	10767.000000
620.420798	10622.333333
621.851534	10537.666667
623.281680	10422.000000
624.711237	10375.000000
626.140204	10313.333333
627.568582	10320.333333
628.996372	10227.666667
630.423573	10189.333333
631.850186	10212.000000
633.276211	10264.333333
634.701650	10192.666667
636.126501	10187.333333
637.550765	10237.666667
638.974443	10253.333333
640.397535	10191.000000
641.820041	10131.333333
643.241961	10278.000000
644.663297	10106.666667
646.084048	10154.000000
647.504214	10103.000000
648.923796	10110.666667
650.342795	10028.333333
651.761210	9946.333333
653.179041	9941.000000
654.596290	9826.000000
656.012957	9875.000000
657.429041	9977.333333
658.844543	9918.000000
660.259464	9896.333333
661.673804	9867.666667
663.087563	9804.333333
664.500741	9895.666667
665.913339	9913.000000
667.325357	9941.000000
668.736795	10005.666667
670.147654	9945.000000
671.557934	9888.000000
672.967636	9792.333333
674.376759	9805.666667
675.785304	9851.000000
677.193271	9889.000000
678.600661	9876.000000
680.007474	9870.333333
681.413711	9838.000000
682.819370	9823.000000
684.224454	9838.666667
685.628962	9799.666667
687.032895	9909.666667
688.436252	9788.333333
689.839034	9825.000000
691.241242	9856.333333
692.642876	9806.000000
694.043936	9710.000000
695.444422	9769.000000
696.844336	9696.666667
698.243676	9744.333333
699.642443	9713.666667
701.040639	9764.333333
702.438262	9702.000000
703.835313	9757.333333
705.231794	9669.000000
706.627703	9621.333333
708.023041	9669.000000
709.417810	9653.333333
710.812008	9576.666667
712.205636	9571.333333
713.598694	9666.000000
714.991184	9579.000000
716.383105	9625.000000
717.774457	9672.000000
719.165241	9633.000000
720.555457	9639.000000
721.945105	9580.666667
723.334187	9594.666667
724.722701	9652.333333
726.110648	9589.333333
727.498030	9456.333333
728.884845	9532.000000
730.271094	9540.000000
731.656778	9524.000000
733.041897	9543.000000
734.426451	9466.666667
735.810441	9500.333333
737.193866	9374.000000
738.576728	9455.666667
739.959026	9428.666667
741.340760	9356.666667
742.721932	9493.333333
744.102541	9411.000000
745.482588	9474.333333
746.862073	9405.666667
748.240996	9420.333333
749.619358	9537.333333
750.997158	9447.666667
752.374398	9441.333333
753.751077	9513.000000
755.127197	9536.333333
756.502756	9418.000000
757.877756	9457.666667
759.252196	9444.000000
760.626078	9419.000000
761.999400	9409.666667
763.372165	9331.000000
764.744371	9471.000000
766.116020	9373.666667
767.487111	9333.333333
768.857646	9317.000000
770.227623	9283.000000
771.597044	9321.333333
772.965908	9293.666667
774.334217	9260.666667
775.701970	9219.000000
777.069168	9214.000000
778.435811	9219.666667
779.801899	9173.666667
781.167433	9201.666667
782.532412	9273.333333
783.896838	9149.000000
785.260710	9133.333333
786.624029	9119.333333
787.986796	9114.666667
789.349009	9088.000000
790.710671	9138.000000
792.071780	9054.333333
793.432338	9106.000000
794.792344	9157.000000
796.151799	9040.000000
797.510704	9126.666667
798.869058	9012.333333
800.226862	8988.666667
801.584116	8948.333333
802.940820	9098.333333
804.296975	9183.333333
805.652581	9016.666667
807.007638	9094.666667
808.362147	9103.666667
809.716108	9152.666667
811.069521	9229.333333
812.422387	9168.333333
813.774705	9165.000000
815.126476	9099.000000
816.477701	9119.666667
817.828380	9046.666667
819.178512	9103.333333
820.528099	9094.000000
821.877140	9076.000000
823.225637	8952.000000
824.573588	8930.000000
825.920995	8988.000000
827.267857	8996.666667
828.614176	8901.000000
829.959951	8889.333333
831.305183	8969.666667
832.649871	8971.333333
833.994017	8953.333333
835.337620	8862.666667
836.680681	9020.333333
838.023201	8963.666667
839.365178	8983.666667
840.706614	8991.000000
842.047510	9051.666667
843.387864	9016.666667
844.727678	9060.333333
846.066952	9186.666667
847.405687	9201.000000
848.743881	9236.000000
850.081537	9249.333333
851.418653	9268.666667
852.755231	9321.000000
854.091270	9337.666667
855.426771	9286.333333
856.761735	9280.000000
858.096160	9238.666667
859.430049	9285.000000
860.763401	9081.333333
862.096216	9153.000000
863.428495	9161.000000
864.760237	9066.333333
866.091444	9146.666667
867.422115	9123.333333
868.752252	9026.000000
870.081853	9027.666667
871.410919	9057.666667
872.739452	9029.000000
874.067450	9049.666667
875.394914	9022.666667
876.721845	8991.666667
878.048243	8959.666667
879.374108	8975.666667
880.699440	8873.666667
882.024240	8844.666667
883.348508	8844.000000
884.672244	8796.333333
885.995449	8759.666667
887.318122	8776.666667
888.640265	8779.000000
889.961877	8707.000000
891.282959	8699.333333
892.603510	8673.333333
893.923532	8619.000000
895.243024	8616.333333
896.561987	8644.666667
897.880422	8625.666667
899.198327	8538.666667
900.515705	8609.666667
901.832554	8558.333333
903.148875	8603.666667
904.464669	8628.333333
905.779936	8676.666667
907.094676	8615.666667
908.408889	8655.000000
909.722576	8622.000000
911.035737	8716.000000
912.348371	8818.333333
913.660481	8732.333333
914.972065	8806.000000
916.283124	8921.000000
917.593659	8945.666667
918.903669	8975.333333
920.213155	8987.666667
921.522117	8935.333333
922.830556	8902.000000
924.138471	8951.333333
925.445864	9003.000000
926.752733	8977.000000
928.059081	9013.666667
929.364906	9000.000000
930.670209	9102.666667
931.974991	9105.000000
933.279251	9150.333333
934.582990	9233.333333
935.886209	9382.333333
937.188907	9501.666667
938.491085	9635.000000
939.792743	9810.000000
941.093881	10011.333333
942.394500	10185.000000
943.694600	10423.333333
944.994181	10706.666667
946.293243	11100.000000
947.591787	11441.333333
948.889813	11998.666667
950.187322	12567.000000
951.484313	13127.666667
952.780787	13838.333333
954.076744	14588.666667
955.372184	15072.000000
956.667108	15744.666667
957.961516	16070.333333
959.255409	15994.666667
960.548785	15651.666667
961.841647	15271.000000
963.133993	14447.666667
964.425825	13577.000000
965.717142	12820.666667
967.007946	12040.000000
968.298235	11224.666667
969.588011	10628.333333
970.877273	10070.333333
972.166023	9562.333333
973.454259	9317.333333
974.741984	8985.333333
976.029196	8861.666667
977.315895	8598.666667
978.602084	8483.000000
979.887761	8362.000000
981.172926	8327.333333
982.457581	8147.666667
983.741725	8058.333333
985.025359	8135.666667
986.308483	8039.000000
987.591097	8026.666667
988.873202	8054.000000
990.154797	8005.333333
991.435883	7957.333333
992.716461	7917.333333
993.996530	7970.333333
995.276091	8006.000000
996.555144	8035.000000
997.833690	8107.000000
999.111728	8100.000000
1000.389259	8250.333333
1001.666283	8193.666667
1002.942800	8286.333333
1004.218812	8140.666667
1005.494317	8114.333333
1006.769317	8104.666667
1008.043811	8112.333333
1009.317799	8059.000000
1010.591283	8072.000000
1011.864263	8143.333333
1013.136737	8094.666667
1014.408708	8065.000000
1015.680175	8152.666667
1016.951138	8118.666667
1018.221598	8083.333333
1019.491554	8126.000000
1020.761008	8173.666667
1022.029959	8140.333333
1023.298408	8200.000000
1024.566355	8135.000000
1025.833800	8220.666667
1027.100744	8221.000000
1028.367187	8264.000000
1029.633128	8222.000000
1030.898569	8249.333333
1032.163509	8264.333333
1033.427949	8237.000000
1034.691890	8214.666667
1035.955330	8318.000000
1037.218271	8281.333333
1038.480714	8336.666667
1039.742657	8323.000000
1041.004101	8339.333333
1042.265048	8327.666667
1043.525496	8375.333333
1044.785446	8359.333333
1046.044899	8280.333333
1047.303855	8341.666667
1048.562313	8333.666667
1049.820275	8296.333333
1051.077740	8240.666667
1052.334709	8259.000000
1053.591182	8151.666667
1054.847160	8209.333333
1056.102641	8200.000000
1057.357628	8300.333333
1058.612120	8296.666667
1059.866117	8302.333333
1061.119619	8390.000000
1062.372628	8431.333333
1063.625142	8467.000000
1064.877163	8476.666667
1066.128691	8506.000000
1067.379725	8549.666667
1068.630267	8542.000000
1069.880316	8559.333333
1071.129872	8553.333333
1072.378937	8478.000000
1073.627509	8366.666667
1074.875590	8408.000000
1076.123180	8246.000000
1077.370279	8131.666667
1078.616887	8090.666667
1079.863004	8045.333333
1081.108631	7924.000000
1082.353768	7862.666667
1083.598415	7835.333333
1084.842573	7754.333333
1086.086241	7750.666667
1087.329421	7628.666667
1088.572111	7584.666667
1089.814314	7520.000000
1091.056028	7537.666667
1092.297253	7502.666667
1093.537992	7478.333333
1094.778242	7495.333333
1096.018006	7395.000000
1097.257282	7405.666667
1098.496072	7431.333333
1099.734376	7365.000000
1100.972193	7334.000000
1102.209524	7379.666667
1103.446370	7297.666667
1104.682730	7259.000000
1105.918604	7282.000000
1107.153994	7251.000000
1108.388900	7178.333333
1109.623320	7083.000000
1110.857257	7118.000000
1112.090710	7068.666667
1113.323679	7043.000000
1114.556164	6965.333333
1115.788167	6973.333333
1117.019686	7011.000000
1118.250723	6936.333333
1119.481278	6922.000000
1120.711350	6947.666667
1121.940940	6894.666667
1123.170049	6982.000000
1124.398676	6907.000000
1125.626823	6899.333333
1126.854488	6886.000000
1128.081672	6835.666667
1129.308376	6832.000000
1130.534600	6807.000000
1131.760345	6780.333333
1132.985609	6903.666667
1134.210394	6749.000000
1135.434700	6791.666667
1136.658527	6755.333333
1137.881875	6736.000000
1139.104745	6812.000000
1140.327136	6786.000000
1141.549050	6723.000000
1142.770486	6772.666667
1143.991445	6706.666667
1145.211926	6700.666667
1146.431931	6732.666667
1147.651459	6690.000000
1148.870510	6775.666667
1150.089086	6721.333333
1151.307185	6709.000000
1152.524808	6673.333333
1153.741957	6699.333333
1154.958630	6769.000000
1156.174828	6725.666667
1157.390551	6701.666667
1158.605800	6670.000000
1159.820574	6717.666667
1161.034875	6718.666667
1162.248702	6732.000000
1163.462055	6706.000000
1164.674936	6683.666667
1165.887343	6702.333333
1167.099277	6721.333333
1168.310739	6600.666667
1169.521729	6670.333333
1170.732247	6657.000000
1171.942293	6622.333333
1173.151867	6655.666667
1174.360970	6630.000000
1175.569602	6638.333333
1176.777764	6650.333333
1177.985454	6623.666667
1179.192675	6600.333333
1180.399425	6633.000000
1181.605706	6579.333333
1182.811517	6557.000000
1184.016859	6547.666667
1185.221731	6510.666667
1186.426135	6526.333333
1187.630070	6489.666667
1188.833537	6462.666667
1190.036535	6443.333333
1191.239066	6375.000000
1192.441129	6439.000000
1193.642725	6409.333333
1194.843853	6428.333333
1196.044515	6423.666667
1197.244710	6422.666667
1198.444438	6402.333333
1199.643701	6719.000000
1200.842497	6879.333333
1202.040827	6550.333333
1203.238693	6512.333333
1204.436092	6400.333333
1205.633027	6416.000000
1206.829497	6449.666667
1208.025503	6394.333333
1209.221044	6351.000000
1210.416122	6379.333333
1211.610735	6393.333333
1212.804885	6354.333333
1213.998572	6348.666667
1215.191795	6358.666667
1216.384556	6283.333333
1217.576854	6299.333333
1218.768689	6345.000000
1219.960063	6308.333333
1221.150974	6264.333333
1222.341424	6316.333333
1223.531413	6296.666667
1224.720940	6352.000000
1225.910006	6414.666667
1227.098612	6376.333333
1228.286757	6502.333333
1229.474442	6475.666667
1230.661667	6512.666667
1231.848432	6530.666667
1233.034738	6489.666667
1234.220584	6589.666667
1235.405971	6704.000000
1236.590900	6705.666667
1237.775369	6721.000000
1238.959381	6750.333333
1240.142934	6773.333333
1241.326029	6784.666667
1242.508667	6763.333333
1243.690848	6772.333333
1244.872571	6841.000000
1246.053837	6717.333333
1247.234646	6774.666667
1248.414999	6742.333333
1249.594896	6661.666667
1250.774337	6697.333333
1251.953322	6591.666667
1253.131851	6584.000000
1254.309925	6543.000000
1255.487544	6609.333333
1256.664708	6600.666667
1257.841417	6633.666667
1259.017673	6516.333333
1260.193473	6540.000000
1261.368820	6635.000000
1262.543714	6567.333333
1263.718154	6620.666667
1264.892140	6588.666667
1266.065674	6526.000000
1267.238755	6683.666667
1268.411383	6637.000000
1269.583559	6651.333333
1270.755283	6572.666667
1271.926555	6623.000000
1273.097375	6596.000000
1274.267744	6640.666667
1275.437662	6593.666667
1276.607129	6530.666667
1277.776145	6499.000000
1278.944711	6486.333333
1280.112827	6493.333333
1281.280492	6481.000000
1282.447708	6371.000000
1283.614474	6440.000000
1284.780791	6328.666667
1285.946659	6334.666667
1287.112078	6323.000000
1288.277048	6396.333333
1289.441570	6317.666667
1290.605644	6206.666667
1291.769270	6195.333333
1292.932448	6159.666667
1294.095178	6089.666667
1295.257461	6117.333333
1296.419298	6046.000000
1297.580687	6087.333333
1298.741630	6082.000000
1299.902126	6079.000000
1301.062177	6000.666667
1302.221781	6073.333333
1303.380940	6068.333333
1304.539653	6029.333333
1305.697921	6037.333333
1306.855744	6094.666667
1308.013123	6064.000000
1309.170056	6022.333333
1310.326546	6099.000000
1311.482591	6006.333333
1312.638193	6052.000000
1313.793350	6011.000000
1314.948065	6060.666667
1316.102336	6015.333333
1317.256164	6038.333333
1318.409550	6093.333333
1319.562493	6016.000000
1320.714993	6010.000000
1321.867052	6031.666667
1323.018668	5947.333333
1324.169843	5915.333333
1325.320577	5915.333333
1326.470870	5915.666667
1327.620721	5930.000000
1328.770132	5927.000000
1329.919102	5858.666667
1331.067632	5904.000000
1332.215722	5832.333333
1333.363372	5843.666667
1334.510582	5885.000000
1335.657353	5813.333333
1336.803685	5872.333333
1337.949578	5874.333333
1339.095032	5893.000000
1340.240048	5882.000000
1341.384625	5847.000000
1342.528764	5845.333333
1343.672466	5827.000000
1344.815729	5772.333333
1345.958556	5877.666667
1347.100945	5827.000000
1348.242897	5824.000000
1349.384413	5783.333333
1350.525492	5717.666667
1351.666134	5730.666667
1352.806341	5671.333333
1353.946111	5654.333333
1355.085446	5683.000000
1356.224346	5718.000000
1357.362810	5649.333333
1358.500840	5558.333333
1359.638434	5629.666667
1360.775594	5578.666667
1361.912320	5623.666667
1363.048612	5562.333333
1364.184469	5575.333333
1365.319893	5640.666667
1366.454884	5624.666667
1367.589441	5542.333333
1368.723566	5582.000000
1369.857257	5595.666667
1370.990516	5667.333333
1372.123343	5682.333333
1373.255737	5634.666667
1374.387699	5667.666667
1375.519230	5685.000000
1376.650329	5675.333333
1377.780997	5665.333333
1378.911234	5689.666667
1380.041040	5679.333333
1381.170416	5623.333333
1382.299361	5619.666667
1383.427875	5608.666667
1384.555960	5652.000000
1385.683615	5634.000000
1386.810841	5620.333333
1387.937637	5635.333333
1389.064004	5591.000000
1390.189942	5666.666667
1391.315451	5610.333333
1392.440532	5625.000000
1393.565185	5594.333333
1394.689409	5589.666667
1395.813206	5576.666667
1396.936575	5527.333333
1398.059517	5604.333333
1399.182032	5505.666667
1400.304119	5524.333333
1401.425780	5538.333333
1402.547014	5531.666667
1403.667822	5515.333333
1404.788204	5500.666667
1405.908160	5568.666667
1407.027690	5517.000000
1408.146795	5556.000000
1409.265474	5456.666667
1410.383728	5651.666667
1411.501558	5514.000000
1412.618963	5542.333333
1413.735943	5596.000000
1414.852499	5521.333333
1415.968632	5600.333333
1417.084340	5549.666667
1418.199625	5579.000000
1419.314486	5654.666667
1420.428925	5594.666667
1421.542940	5598.000000
1422.656533	5571.333333
1423.769703	5592.666667
1424.882451	5638.666667
1425.994777	5564.000000
1427.106680	5467.333333
1428.218163	5574.000000
1429.329223	5539.000000
1430.439863	5525.666667
1431.550081	5460.333333
1432.659879	5444.333333
1433.769256	5526.000000
1434.878212	5514.000000
1435.986749	5524.666667
1437.094865	5532.666667
1438.202562	5496.000000
1439.309839	5573.000000
1440.416696	5523.333333
1441.523135	5646.000000
1442.629154	5643.666667
1443.734755	5665.666667
1444.839937	5724.333333
1445.944701	5714.333333
1447.049047	5725.000000
1448.152975	5809.333333
1449.256485	5763.666667
1450.359577	5741.666667
1451.462253	5744.000000
1452.564511	5722.666667
1453.666352	5626.666667
1454.767777	5624.333333
1455.868785	5695.333333
1456.969377	5685.000000
1458.069553	5637.666667
1459.169313	5528.666667
1460.268658	5511.000000
1461.367587	5579.666667
1462.466101	5501.666667
1463.564200	5472.333333
1464.661884	5421.000000
1465.759153	5440.666667
1466.856008	5316.000000
1467.952449	5426.666667
1469.048476	5294.333333
1470.144089	5194.000000
1471.239288	5155.666667
1472.334074	5137.666667
1473.428447	5086.666667
1474.522407	5050.000000
1475.615955	5018.333333
1476.709089	4972.000000
1477.801812	4977.333333
1478.894122	4900.000000
1479.986020	4936.666667
1481.077506	4900.333333
1482.168581	4853.333333
1483.259245	4899.666667
1484.349498	4811.333333
1485.439339	4800.333333
1486.528770	4817.000000
1487.617790	4780.000000
1488.706400	4763.666667
1489.794600	4823.333333
1490.882390	4727.333333
1491.969771	4778.333333
1493.056742	4788.333333
1494.143303	4777.000000
1495.229456	4774.000000
1496.315199	4724.000000
1497.400534	4672.000000
1498.485460	4690.000000
1499.569978	4700.333333
1500.654088	4693.000000
1501.737790	4682.000000
1502.821085	4678.333333
1503.903972	4558.333333
1504.986451	4632.333333
1506.068524	4649.333333
1507.150189	4594.666667
1508.231448	4641.000000
1509.312301	4598.000000
1510.392747	4555.333333
1511.472787	4539.666667
1512.552422	4581.666667
1513.631650	4554.666667
1514.710473	4517.333333
1515.788891	4555.000000
1516.866904	4508.000000
1517.944512	4582.333333
1519.021715	4577.000000
1520.098513	4538.666667
1521.174908	4560.000000
1522.250898	4502.000000
1523.326485	4557.000000
1524.401667	4538.000000
1525.476447	4530.333333
1526.550823	4555.000000
1527.624796	4548.000000
1528.698365	4541.000000
1529.771533	4557.666667
1530.844298	4531.666667
1531.916660	4539.333333
1532.988620	4533.333333
1534.060179	4512.666667
1535.131336	4535.666667
1536.202091	4496.666667
1537.272445	4462.666667
1538.342398	4467.666667
1539.411950	4392.666667
1540.481101	4394.666667
1541.549851	4434.666667
1542.618202	4459.000000
1543.686152	4391.333333
1544.753702	4357.333333
1545.820853	4387.000000
1546.887604	4375.000000
1547.953955	4418.000000
1549.019908	4411.666667
1550.085461	4409.333333
1551.150616	4460.666667
1552.215372	4404.666667
1553.279730	4393.666667
1554.343690	4368.666667
1555.407252	4397.666667
1556.470415	4374.666667
1557.533182	4351.000000
1558.595551	4387.333333
1559.657522	4335.000000
1560.719097	4325.333333
1561.780275	4305.000000
1562.841056	4268.000000
1563.901441	4327.000000
1564.961429	4298.666667
1566.021022	4312.333333
1567.080219	4258.000000
1568.139020	4291.000000
1569.197425	4310.666667
1570.255436	4247.000000
1571.313051	4258.666667
1572.370271	4317.000000
1573.427097	4274.000000
1574.483528	4296.000000
1575.539565	4330.000000
1576.595208	4251.000000
1577.650457	4246.666667
1578.705312	4259.333333
1579.759774	4209.333333
1580.813842	4221.666667
1581.867517	4192.666667
1582.920799	4172.000000
1583.973689	4122.666667
1585.026186	4181.333333
1586.078290	4165.666667
1587.130002	4205.000000
1588.181323	4215.333333
1589.232251	4113.333333
1590.282788	4149.333333
1591.332933	4124.333333
1592.382688	4124.000000
1593.432051	4094.666667
1594.481023	4123.333333
1595.529605	4143.666667
1596.577796	4160.666667
1597.625597	4139.333333
1598.673007	4196.333333
1599.720028	4196.333333
1600.766660	4181.000000
1601.812901	4225.666667
1602.858753	4199.666667
1603.904217	4147.666667
1604.949291	4204.666667
1605.993976	4154.666667
1607.038273	4185.000000
1608.082182	4195.333333
1609.125702	4222.000000
1610.168834	4168.333333
1611.211579	4108.666667
1612.253935	4094.666667
1613.295905	4103.666667
1614.337487	4063.333333
1615.378682	4073.333333
1616.419490	4087.333333
1617.459912	4014.333333
1618.499946	4117.333333
1619.539595	4069.666667
1620.578858	4164.666667
1621.617734	4147.666667
1622.656225	4160.000000
1623.694330	4162.000000
1624.732050	4164.333333
1625.769385	4155.333333
1626.806334	4087.666667
1627.842899	4164.000000
1628.879079	4214.333333
1629.914875	4103.000000
1630.950286	4170.666667
1631.985314	4115.333333
1633.019957	4166.666667
1634.054217	4221.000000
1635.088093	4200.000000
1636.121586	4143.666667
1637.154696	4144.333333
1638.187423	4166.333333
1639.219767	4145.666667
1640.251728	4147.333333
1641.283307	4114.666667
1642.314504	4223.666667
1643.345319	4181.666667
1644.375751	4128.666667
1645.405803	4178.000000
1646.435472	4182.333333
1647.464761	4158.666667
1648.493668	4132.666667
1649.522194	4151.333333
1650.550340	4157.666667
1651.578105	4187.000000
1652.605490	4161.666667
1653.632494	4165.333333
1654.659119	4155.666667
1655.685363	4135.666667
1656.711228	4149.333333
1657.736714	4163.666667
1658.761820	4172.333333
1659.786547	4131.333333
1660.810895	4100.000000
1661.834865	4142.000000
1662.858456	4126.000000
1663.881668	4115.000000
1664.904503	4068.333333
1665.926959	4054.000000
1666.949038	4049.333333
1667.970739	4101.666667
1668.992062	4098.000000
1670.013008	4072.000000
1671.033577	3996.000000
1672.053770	4008.666667
1673.073585	4057.000000
1674.093024	3998.333333
1675.112086	4018.333333
1676.130773	3983.666667
1677.149083	3939.000000
1678.167017	3913.333333
1679.184576	3899.333333
1680.201760	3859.000000
1681.218568	3901.000000
1682.235001	3926.666667
1683.251059	3977.000000
1684.266742	3864.333333
1685.282051	3861.666667
1686.296985	3879.666667
1687.311546	3818.000000
1688.325732	3820.666667
1689.339544	3765.333333
1690.352983	3807.666667
1691.366048	3708.333333
1692.378740	3682.666667
1693.391058	3665.333333
1694.403004	3711.333333
1695.414577	3648.333333
1696.425778	3637.000000
1697.436606	3644.333333
1698.447061	3595.000000
1699.457145	3506.333333
1700.466857	3531.000000
1701.476197	3484.333333
1702.485166	3491.000000
1703.493763	3455.333333
1704.501989	3468.666667
1705.509844	3421.333333
1706.517328	3417.000000
1707.524442	3408.000000
1708.531185	3402.000000
1709.537558	3389.333333
1710.543561	3377.000000
1711.549194	3362.000000
1712.554457	3389.000000
1713.559351	3370.333333
1714.563875	3390.333333
1715.568030	3327.666667
1716.571816	3337.000000
1717.575233	3415.333333
1718.578282	3431.666667
1719.580962	3396.666667
1720.583273	3462.333333
1721.585217	3425.000000
1722.586792	3393.000000
1723.588000	3377.000000
1724.588840	3358.000000
1725.589312	3391.333333
1726.589418	3389.666667
1727.589156	3392.000000
1728.588527	3397.000000
1729.587532	3385.666667
1730.586170	3380.000000
1731.584441	3369.000000
1732.582346	3353.000000
1733.579886	3383.000000
1734.577059	3333.000000
1735.573867	3368.666667
1736.570309	3311.333333
1737.566386	3337.666667
1738.562097	3266.000000
1739.557444	3279.000000
1740.552426	3294.000000
1741.547043	3263.666667
1742.541295	3260.666667
1743.535184	3262.666667
1744.528708	3243.666667
1745.521868	3239.000000
1746.514664	3184.333333
1747.507097	3195.333333
1748.499166	3183.333333
1749.490873	3156.000000
1750.482216	3165.000000
1751.473196	3222.333333
1752.463813	3191.000000
1753.454068	3227.333333
1754.443960	3210.666667
1755.433490	3205.000000
1756.422658	3173.333333
1757.411464	3115.333333
1758.399908	3164.333333
1759.387991	3155.666667
1760.375713	3184.333333
1761.363073	3199.666667
1762.350072	3159.666667
1763.336711	3203.666667
1764.322988	3146.333333
1765.308905	3203.000000
1766.294462	3106.666667
1767.279659	3132.333333
1768.264496	3131.666667
1769.248972	3115.333333
1770.233089	3111.000000
1771.216847	3067.666667
1772.200245	3096.333333
1773.183284	3089.333333
1774.165965	3077.333333
1775.148286	3086.333333
1776.130249	3050.333333
1777.111853	3067.666667
1778.093099	3007.666667
1779.073987	3078.000000
1780.054517	2998.333333
1781.034689	2986.333333
1782.014503	2979.666667
1782.993960	2993.000000
1783.973060	2919.333333
1784.951802	2926.666667
1785.930188	2907.666667
1786.908217	2934.000000
1787.885889	2925.000000
1788.863205	2896.666667
1789.840164	2891.333333
1790.816768	2906.666667
1791.793015	2879.000000
1792.768907	2862.666667
1793.744443	2895.333333
1794.719624	2861.666667
1795.694449	2926.333333
1796.668919	2904.666667
1797.643035	2900.000000
1798.616795	2891.333333
1799.590201	2879.666667
1800.563253	2887.000000
1801.535950	2890.000000
1802.508294	2871.666667
1803.480283	2948.666667
1804.451919	2895.666667
1805.423201	2910.000000
1806.394129	2892.333333
1807.364705	2966.000000
1808.334927	2923.666667
1809.304796	2900.000000
1810.274313	2866.333333
1811.243477	2880.666667
1812.212288	2861.000000
1813.180747	2870.333333
1814.148855	2863.333333
1815.116610	2826.666667
1816.084013	2857.000000
1817.051065	2845.000000
1818.017766	2866.000000
1818.984115	2890.333333
1819.950113	2847.333333
1820.915760	2837.666667
1821.881057	2820.333333
1822.846003	2861.333333
1823.810598	2844.000000
1824.774843	2846.333333
1825.738738	2842.666667
1826.702283	2837.333333
1827.665479	2800.000000
1828.628324	2808.333333
1829.590821	2783.000000
1830.552968	2760.666667
1831.514765	2809.000000
1832.476214	2772.333333
1833.437314	2771.666667
1834.398066	2735.666667
1835.358469	2775.333333
1836.318524	2716.000000
1837.278230	2695.000000
1838.237589	2724.333333
1839.196600	2708.666667
1840.155263	2752.666667
1841.113578	2736.666667
1842.071547	2712.000000
1843.029168	2729.000000
1843.986442	2791.666667
1844.943369	2771.000000
1845.899950	2781.666667
1846.856184	2762.000000
1847.812072	2770.666667
1848.767614	2768.333333
1849.722809	2767.000000
1850.677659	2767.666667
1851.632163	2746.666667
1852.586322	2757.000000
1853.540135	2769.666667
1854.493603	2750.666667
1855.446726	2735.000000
1856.399504	2760.000000
1857.351937	2709.000000
1858.304026	2713.000000
1859.255770	2701.333333
1860.207170	2737.666667
1861.158227	2693.333333
1862.108939	2669.666667
1863.059307	2692.666667
1864.009332	2667.333333
1864.959013	2675.333333
1865.908351	2635.000000
1866.857346	2654.666667
1867.805998	2626.666667
1868.754307	2659.000000
1869.702274	2637.666667
1870.649898	2589.666667
1871.597180	2618.000000
1872.544119	2619.333333
1873.490717	2637.666667
1874.436973	2569.000000
1875.382887	2552.666667
1876.328459	2570.333333
1877.273691	2606.666667
1878.218581	2597.000000
1879.163130	2598.666667
1880.107338	2579.333333
1881.051205	2593.333333
1881.994732	2569.333333
1882.937919	2566.666667
1883.880765	2530.666667
1884.823271	2595.666667
1885.765437	2603.000000
1886.707264	2599.333333
1887.648750	2579.333333
1888.589898	2586.000000
1889.530706	2557.000000
1890.471175	2594.333333
1891.411305	2601.666667
1892.351096	2592.333333
1893.290548	2596.333333
1894.229662	2613.666667
1895.168438	2607.666667
1896.106876	2565.000000
1897.044975	2557.666667
1897.982737	2558.000000
1898.920160	2569.666667
1899.857247	2560.000000
1900.793996	2547.333333
1901.730407	2524.333333
1902.666482	2548.666667
1903.602219	2539.666667
1904.537620	2512.666667
1905.472685	2533.000000
1906.407412	2478.333333
1907.341804	2483.333333
1908.275859	2458.000000
1909.209579	2470.333333
1910.142962	2468.000000
1911.076010	2435.333333
1912.008722	2428.666667
1912.941099	2426.666667
1913.873141	2407.000000
1914.804848	2386.000000
1915.736219	2438.666667
1916.667256	2392.000000
1917.597959	2380.000000
1918.528327	2410.333333
1919.458360	2390.666667
1920.388060	2399.333333
1921.317426	2368.000000
1922.246457	2335.333333
1923.175156	2401.666667
1924.103520	2369.666667
1925.031552	2381.666667
1925.959250	2379.666667
1926.886615	2404.000000
1927.813647	2386.666667
1928.740346	2384.333333
1929.666713	2379.333333
1930.592748	2370.333333
1931.518450	2391.333333
1932.443820	2358.666667
1933.368858	2377.666667
1934.293564	2409.666667
1935.217939	2350.333333
1936.141982	2331.000000
1937.065694	2361.333333
1937.989074	2328.333333
1938.912124	2315.666667
1939.834842	2329.000000
1940.757230	2351.000000
1941.679287	2298.666667
1942.601014	2319.333333
1943.522411	2302.666667
1944.443477	2314.000000
1945.364214	2270.333333
1946.284621	2301.666667
1947.204698	2289.000000
1948.124445	2269.666667
1949.043863	2269.666667
1949.962952	2272.666667
1950.881712	2267.333333
1951.800143	2264.666667
1952.718245	2229.333333
1953.636019	2207.000000
1954.553464	2213.666667
1955.470581	2199.000000
1956.387369	2224.666667
1957.303830	2195.000000
1958.219963	2194.333333
1959.135768	2205.000000
1960.051246	2196.333333
1960.966396	2197.333333
1961.881219	2176.333333
1962.795715	2168.666667
1963.709883	2242.000000
1964.623726	2218.000000
1965.537241	2214.000000
1966.450430	2229.666667
1967.363293	2206.666667
1968.275829	2219.333333
1969.188040	2211.666667
1970.099924	2203.333333
1971.011483	2246.666667
1971.922716	2226.333333
1972.833624	2240.000000
1973.744206	2245.666667
1974.654464	2215.333333
1975.564396	2209.333333
1976.474004	2225.666667
1977.383286	2185.333333
1978.292245	2152.666667
1979.200878	2207.000000
1980.109188	2200.333333
1981.017174	2160.333333
1981.924835	2184.333333
1982.832173	2170.666667
1983.739187	2184.000000
1984.645878	2119.333333
1985.552245	2155.666667
1986.458289	2146.333333
1987.364010	2111.333333
1988.269408	2149.000000
1989.174484	2133.333333
1990.079236	2086.333333
1990.983667	2070.333333
1991.887775	2099.000000
1992.791561	2090.333333
1993.695024	2090.000000
1994.598166	2080.666667
1995.500986	2054.333333
1996.403485	2029.666667
1997.305662	2072.000000
1998.207518	2083.333333
1999.109053	2063.666667
