200.151048	14133.333333
201.758777	14243.666667
203.365815	14112.666667
204.972162	14035.333333
206.577820	14119.000000
208.182787	13982.000000
209.787065	13935.000000
211.390653	13824.666667
212.993553	13844.666667
214.595765	13872.000000
216.197289	13808.000000
217.798125	13721.000000
219.398274	13812.000000
220.997737	13817.333333
222.596513	13764.333333
224.194603	13780.333333
225.792008	13595.000000
227.388728	13570.666667
228.984763	13682.333333
230.580114	13596.000000
232.174781	13651.333333
233.768765	13442.000000
235.362065	13462.666667
236.954683	13432.666667
238.546619	13347.666667
240.137872	13435.333333
241.728445	13419.666667
243.318336	13212.000000
244.907546	13320.333333
246.496076	13205.666667
248.083926	13130.666667
249.671097	13197.666667
251.257589	13045.000000
252.843402	13120.000000
254.428536	12977.666667
256.012993	12922.333333
257.596772	13051.000000
259.179874	12916.333333
260.762300	12908.666667
262.344049	12856.000000
263.925122	12920.666667
265.505519	12820.000000
267.085241	12826.333333
268.664289	12814.666667
270.242662	12860.000000
271.820361	12833.666667
273.397387	12768.000000
274.973740	12787.333333
276.549419	12859.666667
278.124426	12743.000000
279.698762	12767.000000
281.272425	12753.666667
282.845417	12741.000000
284.417739	12789.666667
285.989390	12843.333333
287.560371	12806.333333
289.130682	12786.333333
290.700324	12646.000000
292.269297	12697.333333
293.837602	12709.333333
295.405238	12678.000000
296.972207	12820.333333
298.538508	12673.000000
300.104142	12656.666667
301.669110	12627.333333
303.233411	12581.000000
304.797047	12579.333333
306.360017	12533.333333
307.922322	12358.333333
309.483963	12363.666667
311.044939	12384.666667
312.605252	12261.000000
314.164900	12239.333333
315.723886	12297.000000
317.282209	12189.666667
318.839870	12121.000000
320.396868	12125.666667
321.953205	12092.333333
323.508881	12045.333333
325.063896	12061.333333
326.618251	12110.666667
328.171945	12078.666667
329.724980	12172.333333
331.277356	11976.666667
332.829072	11915.333333
334.380131	11996.000000
335.930530	11982.666667
337.480273	12003.666667
339.029357	11874.000000
340.577785	11945.666667
342.125556	11917.666667
343.672671	11957.000000
345.219130	11908.333333
346.764933	11759.000000
348.310081	11778.333333
349.854575	11889.000000
351.398414	11828.666667
352.941599	11788.000000
354.484130	11832.000000
356.026008	11766.666667
357.567234	11783.333333
359.107807	11798.000000
360.647727	11683.333333
362.186996	11583.666667
363.725614	11615.333333
365.263580	11634.666667
366.800896	11570.333333
368.337562	11653.333333
369.873578	11523.000000
371.408944	11597.333333
372.943661	11607.333333
374.477730	11577.666667
376.011150	11595.666667
377.543922	11538.666667
379.076046	11650.666667
380.607523	11627.000000
382.138353	11593.333333
383.668537	11533.666667
385.198075	11562.000000
386.726966	11596.333333
388.255213	11661.666667
389.782814	11553.333333
391.309770	11546.333333
392.836083	11709.000000
394.361751	11633.333333
395.886776	11640.666667
397.411157	11721.000000
398.934896	11617.666667
400.457992	11650.333333
401.980446	11695.666667
403.502258	11668.333333
405.023429	11706.666667
406.543959	11774.333333
408.063849	11782.666667
409.583098	11868.666667
411.101707	11841.000000
412.619677	11963.333333
414.137007	11909.000000
415.653699	12043.666667
417.169752	12129.666667
418.685167	12290.666667
420.199945	12372.000000
421.714085	12485.000000
423.227588	12625.333333
424.740454	12632.333333
426.252684	12815.333333
427.764279	12873.333333
429.275238	12703.000000
430.785561	12767.000000
432.295250	12738.333333
433.804304	12576.000000
435.312725	12524.000000
436.820511	12476.666667
438.327664	12325.333333
439.834185	12175.666667
441.340072	12141.333333
442.845327	12087.333333
444.349951	11996.333333
445.853942	11999.666667
447.357303	12028.000000
448.860033	11914.333333
450.362132	11880.666667
451.863601	11666.333333
453.364440	11627.333333
454.864650	11580.666667
456.364231	11467.666667
457.863183	11404.000000
459.361507	11332.000000
460.859203	11175.333333
462.356271	11174.666667
463.852712	11127.666667
465.348526	10978.333333
466.843714	10973.000000
468.338275	10878.333333
469.832210	10924.000000
471.325520	10827.333333
472.818205	10817.333333
474.310265	10783.000000
475.801700	10735.666667
477.292512	10720.666667
478.782700	10604.666667
480.272264	10639.666667
481.761205	10661.333333
483.249524	10529.000000
484.737221	10595.333333
486.224295	10494.666667
487.710748	10394.000000
489.196579	10397.333333
490.681790	10468.333333
492.166380	10531.666667
493.650350	10421.000000
495.133700	10365.333333
496.616431	10335.333333
498.098542	10421.333333
499.580035	10474.333333
501.060909	10440.000000
502.541165	10347.000000
504.020804	10377.333333
505.499825	10348.666667
506.978228	10287.000000
508.456016	10281.000000
509.933186	10260.000000
511.409741	10269.000000
512.885680	10209.000000
514.361004	10268.666667
515.835713	10239.666667
517.309807	10254.333333
518.783287	10262.333333
520.256153	10286.000000
521.728406	10292.666667
523.200045	10187.333333
524.671071	10344.666667
526.141485	10200.666667
527.611287	10321.666667
529.080476	10193.666667
530.549054	10206.000000
532.017021	10334.666667
533.484378	10184.333333
534.951123	10162.000000
536.417259	10152.666667
537.882785	10246.666667
539.347701	10226.333333
540.812008	10145.000000
542.275707	10136.333333
543.738797	10142.666667
545.201279	10209.000000
546.663153	10196.666667
548.124420	10260.666667
549.585080	10333.000000
551.045133	10350.000000
552.504579	10397.666667
553.963420	10339.333333
555.421655	10369.000000
556.879285	10351.333333
558.336309	10323.333333
559.792729	10398.666667
561.248545	10364.000000
562.703756	10499.666667
564.158364	10461.333333
565.612369	10541.000000
567.065770	10553.000000
568.518569	10608.666667
569.970766	10517.666667
571.422361	10658.666667
572.873354	10714.000000
574.323745	10681.000000
575.773536	10798.666667
577.222726	10883.666667
578.671316	10894.333333
580.119306	11043.666667
581.566696	10862.000000
583.013487	10821.666667
584.459679	10931.333333
585.905273	10781.000000
587.350268	10770.333333
588.794665	10705.000000
590.238465	10651.000000
591.681667	10680.333333
593.124272	10721.666667
594.566281	10576.666667
596.007694	10464.333333
597.448510	10401.000000
598.888731	10340.000000
600.328357	10264.000000
601.767388	10105.666667
603.205824	10212.333333
604.643666	10287.666667
606.080914	10202.000000
607.517568	10091.000000
608.953629	10235.666667
610.389097	10156.000000
611.823972	10120.666667
613.258255	10090.666667
614.691946	10126.333333
616.125046	10003.333333
617.557554	9906.333333
618.989471	9876.666667
620.420798	9869.000000
621.851534	9738.333333
623.281680	9671.000000
624.711237	9620.333333
626.140204	9509.333333
627.568582	9533.000000
628.996372	9440.666667
630.423573	9432.333333
631.850186	9412.333333
633.276211	9432.333333
634.701650	9376.000000
636.126501	9307.666667
637.550765	9328.666667
638.974443	9371.333333
640.397535	9438.000000
641.820041	9335.000000
643.241961	9406.333333
644.663297	9369.666667
646.084048	9309.666667
647.504214	9339.333333
648.923796	9234.000000
650.342795	9242.333333
651.761210	9132.333333
653.179041	9256.000000
654.596290	9136.333333
656.012957	9063.000000
657.429041	9161.666667
658.844543	9131.666667
660.259464	9069.333333
661.673804	9131.000000
663.087563	9074.000000
664.500741	9165.000000
665.913339	9177.000000
667.325357	9204.000000
668.736795	9188.333333
670.147654	9224.666667
671.557934	9121.333333
672.967636	9101.000000
674.376759	9018.666667
675.785304	9133.000000
677.193271	9095.000000
678.600661	9091.000000
680.007474	9017.333333
681.413711	9054.000000
682.819370	9003.666667
684.224454	9044.666667
685.628962	9004.000000
687.032895	9158.000000
688.436252	9030.000000
689.839034	9016.000000
691.241242	8982.333333
692.642876	9039.000000
694.043936	9022.000000
695.444422	8968.333333
696.844336	8912.000000
698.243676	8910.333333
699.642443	8945.000000
701.040639	9005.333333
702.438262	9011.666667
703.835313	8997.666667
705.231794	9044.333333
706.627703	8890.000000
708.023041	8933.000000
709.417810	8855.333333
710.812008	8866.000000
712.205636	8889.000000
713.598694	8988.666667
714.991184	8851.333333
716.383105	8855.333333
717.774457	8854.000000
719.165241	8828.666667
720.555457	8815.666667
721.945105	8749.000000
723.334187	8826.000000
724.722701	8843.000000
726.110648	8865.333333
727.498030	8798.000000
728.884845	8863.333333
730.271094	8688.666667
731.656778	8766.666667
733.041897	8733.666667
734.426451	8743.333333
735.810441	8757.333333
737.193866	8797.666667
738.576728	8702.666667
739.959026	8694.666667
741.340760	8615.666667
742.721932	8727.333333
744.102541	8750.666667
745.482588	8679.000000
746.862073	8720.666667
748.240996	8724.000000
749.619358	8728.333333
750.997158	8794.000000
752.374398	8714.000000
753.751077	8693.333333
755.127197	8776.333333
756.502756	8647.333333
757.877756	8822.333333
759.252196	8742.000000
760.626078	8722.666667
761.999400	8652.000000
763.372165	8658.000000
764.744371	8652.666667
766.116020	8672.333333
767.487111	8611.333333
768.857646	8609.666667
770.227623	8583.666667
771.597044	8620.333333
772.965908	8587.333333
774.334217	8525.333333
775.701970	8565.000000
777.069168	8499.000000
778.435811	8549.000000
779.801899	8553.666667
781.167433	8467.333333
782.532412	8464.666667
783.896838	8528.666667
785.260710	8478.333333
786.624029	8432.000000
787.986796	8423.000000
789.349009	8443.000000
790.710671	8416.333333
792.071780	8415.333333
793.432338	8383.000000
794.792344	8395.333333
796.151799	8383.000000
797.510704	8394.000000
798.869058	8353.000000
800.226862	8318.333333
801.584116	8301.000000
802.940820	8317.000000
804.296975	8377.333333
805.652581	8327.000000
807.007638	8335.000000
808.362147	8427.666667
809.716108	8388.666667
811.069521	8308.000000
812.422387	8376.666667
813.774705	8414.333333
815.126476	8418.666667
816.477701	8357.000000
817.828380	8394.666667
819.178512	8371.000000
820.528099	8361.333333
821.877140	8309.333333
823.225637	8340.666667
824.573588	8244.333333
825.920995	8223.333333
827.267857	8169.333333
828.614176	8195.666667
829.959951	8206.333333
831.305183	8226.000000
832.649871	8269.333333
833.994017	8252.333333
835.337620	8239.000000
836.680681	8331.333333
838.023201	8161.000000
839.365178	8236.000000
840.706614	8270.000000
842.047510	8253.333333
843.387864	8287.000000
844.727678	8338.000000
846.066952	8356.666667
847.405687	8360.333333
848.743881	8439.666667
850.081537	8466.666667
851.418653	8520.000000
852.755231	8449.333333
854.091270	8464.333333
855.426771	8487.000000
856.761735	8386.333333
858.096160	8410.666667
859.430049	8459.333333
860.763401	8430.666667
862.096216	8335.666667
863.428495	8288.000000
864.760237	8364.333333
866.091444	8279.666667
867.422115	8285.333333
868.752252	8334.000000
870.081853	8221.000000
871.410919	8240.000000
872.739452	8257.666667
874.067450	8238.000000
875.394914	8237.000000
876.721845	8143.333333
878.048243	8175.333333
879.374108	8158.666667
880.699440	8151.000000
882.024240	8229.000000
883.348508	8084.666667
884.672244	8008.666667
885.995449	8043.333333
887.318122	8039.000000
888.640265	8100.333333
889.961877	8086.000000
891.282959	7999.666667
892.603510	7894.333333
893.923532	8013.333333
895.243024	7962.666667
896.561987	8003.333333
897.880422	7912.000000
899.198327	7944.000000
900.515705	7864.333333
901.832554	7844.666667
903.148875	7947.666667
904.464669	7913.000000
905.779936	7881.333333
907.094676	7961.666667
908.408889	7971.666667
909.722576	7993.666667
911.035737	7962.000000
912.348371	7974.333333
913.660481	8052.333333
914.972065	8064.666667
916.283124	8103.666667
917.593659	8074.333333
918.903669	8149.666667
920.213155	8156.000000
921.522117	8132.000000
922.830556	8093.333333
924.138471	8182.333333
925.445864	8070.333333
926.752733	8140.000000
928.059081	8174.333333
929.364906	8170.333333
930.670209	8233.333333
931.974991	8370.666667
933.279251	8382.000000
934.582990	8558.000000
935.886209	8624.333333
937.188907	8743.000000
938.491085	8818.333333
939.792743	8898.666667
941.093881	9157.333333
942.394500	9253.666667
943.694600	9619.333333
944.994181	9800.000000
946.293243	10116.666667
947.591787	10516.000000
948.889813	10886.000000
950.187322	11451.333333
951.484313	12018.333333
952.780787	12639.000000
954.076744	13230.666667
955.372184	13687.000000
956.667108	14257.333333
957.961516	14544.666667
959.255409	14492.000000
960.548785	14270.666667
961.841647	13800.333333
963.133993	13178.333333
964.425825	12338.666667
965.717142	11639.333333
967.007946	10876.666667
968.298235	10330.000000
969.588011	9728.666667
970.877273	9259.666667
972.166023	8770.666667
973.454259	8547.333333
974.741984	8183.666667
976.029196	8040.000000
977.315895	7845.333333
978.602084	7773.666667
979.887761	7704.333333
981.172926	7611.333333
982.457581	7543.000000
983.741725	7422.666667
985.025359	7409.333333
986.308483	7458.333333
987.591097	7507.333333
988.873202	7421.333333
990.154797	7301.333333
991.435883	7328.000000
992.716461	7362.666667
993.996530	7367.333333
995.276091	7379.000000
996.555144	7368.333333
997.833690	7428.333333
999.111728	7482.000000
1000.389259	7515.000000
1001.666283	7540.666667
1002.942800	7571.666667
1004.218812	7490.333333
1005.494317	7446.666667
1006.769317	7460.333333
1008.043811	7421.333333
1009.317799	7366.333333
1010.591283	7390.666667
1011.864263	7422.333333
1013.136737	7475.000000
1014.408708	7421.666667
1015.680175	7443.333333
1016.951138	7405.333333
1018.221598	7430.666667
1019.491554	7390.333333
1020.761008	7447.333333
1022.029959	7468.000000
1023.298408	7477.666667
1024.566355	7498.333333
1025.833800	7491.333333
1027.100744	7512.333333
1028.367187	7604.333333
1029.633128	7492.333333
1030.898569	7541.666667
1032.163509	7544.333333
1033.427949	7498.000000
1034.691890	7520.666667
1035.955330	7544.000000
1037.218271	7542.666667
1038.480714	7577.000000
1039.742657	7610.000000
1041.004101	7614.333333
1042.265048	7578.000000
1043.525496	7500.666667
1044.785446	7588.000000
1046.044899	7573.000000
1047.303855	7531.000000
1048.562313	7571.666667
1049.820275	7502.333333
1051.077740	7492.333333
1052.334709	7496.666667
1053.591182	7497.333333
1054.847160	7408.666667
1056.102641	7489.666667
1057.357628	7525.666667
1058.612120	7519.333333
1059.866117	7526.000000
1061.119619	7692.666667
1062.372628	7691.666667
1063.625142	7716.666667
1064.877163	7722.000000
1066.128691	7747.000000
1067.379725	7772.666667
1068.630267	7892.000000
1069.880316	7790.666667
1071.129872	7768.333333
1072.378937	7737.000000
1073.627509	7713.666667
1074.875590	7662.666667
1076.123180	7538.333333
1077.370279	7480.666667
1078.616887	7402.000000
1079.863004	7372.666667
1081.108631	7226.666667
1082.353768	7261.000000
1083.598415	7118.333333
1084.842573	7173.333333
1086.086241	7065.333333
1087.329421	7013.000000
1088.572111	6981.666667
1089.814314	6989.000000
1091.056028	6930.000000
1092.297253	6935.333333
1093.537992	6887.333333
1094.778242	6848.666667
1096.018006	6857.666667
1097.257282	6820.666667
1098.496072	6844.666667
1099.734376	6730.333333
1100.972193	6763.666667
1102.209524	6705.333333
1103.446370	6688.000000
1104.682730	6632.000000
1105.918604	6672.000000
1107.153994	6679.000000
1108.388900	6573.000000
1109.623320	6555.333333
1110.857257	6552.333333
1112.090710	6553.333333
1113.323679	6546.666667
1114.556164	6475.000000
1115.788167	6517.666667
1117.019686	6433.666667
1118.250723	6446.666667
1119.481278	6397.333333
1120.711350	6436.666667
1121.940940	6422.000000
1123.170049	6439.666667
1124.398676	6380.333333
1125.626823	6360.000000
1126.854488	6368.333333
1128.081672	6374.000000
1129.308376	6363.000000
1130.534600	6273.666667
1131.760345	6239.666667
1132.985609	6258.333333
1134.210394	6276.000000
1135.434700	6208.000000
1136.658527	6204.666667
1137.881875	6212.666667
1139.104745	6175.000000
1140.327136	6186.333333
1141.549050	6220.333333
1142.770486	6174.666667
1143.991445	6217.000000
1145.211926	6206.333333
1146.431931	6219.333333
1147.651459	6194.666667
1148.870510	6186.000000
1150.089086	6167.000000
1151.307185	6166.000000
1152.524808	6204.000000
1153.741957	6138.666667
1154.958630	6190.333333
1156.174828	6164.000000
1157.390551	6215.666667
1158.605800	6132.000000
1159.820574	6142.000000
1161.034875	6164.333333
1162.248702	6094.333333
1163.462055	6104.000000
1164.674936	6165.000000
1165.887343	6143.666667
1167.099277	6115.000000
1168.310739	6124.333333
1169.521729	6128.000000
1170.732247	6127.000000
1171.942293	6090.333333
1173.151867	6075.666667
1174.360970	6059.333333
1175.569602	6062.333333
1176.777764	6047.666667
1177.985454	6025.000000
1179.192675	6014.666667
1180.399425	6090.666667
1181.605706	5975.000000
1182.811517	6025.333333
1184.016859	5949.000000
1185.221731	5913.666667
1186.426135	6007.000000
1187.630070	5882.333333
1188.833537	5944.000000
1190.036535	5818.000000
1191.239066	5917.666667
1192.441129	5872.666667
1193.642725	5840.666667
1194.843853	5813.666667
1196.044515	5816.333333
1197.244710	5852.000000
1198.444438	5861.666667
1199.643701	5907.000000
1200.842497	5866.333333
1202.040827	5898.000000
1203.238693	5866.666667
1204.436092	5879.666667
1205.633027	5845.666667
1206.829497	5831.666667
1208.025503	5856.333333
1209.221044	5811.333333
1210.416122	5803.000000
1211.610735	5792.666667
1212.804885	5698.333333
1213.998572	5785.000000
1215.191795	5655.000000
1216.384556	5687.333333
1217.576854	5774.333333
1218.768689	5753.000000
1219.960063	5711.000000
1221.150974	5703.333333
1222.341424	5769.333333
1223.531413	5746.666667
1224.720940	5764.000000
1225.910006	5778.333333
1227.098612	5808.000000
1228.286757	5840.333333
1229.474442	5812.666667
1230.661667	5856.000000
1231.848432	5821.666667
1233.034738	5936.000000
1234.220584	5946.333333
1235.405971	5961.666667
1236.590900	5984.666667
1237.775369	5977.333333
1238.959381	6038.333333
1240.142934	5982.666667
1241.326029	6069.000000
1242.508667	6010.333333
1243.690848	5989.333333
1244.872571	5959.000000
1246.053837	5957.333333
1247.234646	5940.333333
1248.414999	5997.333333
1249.594896	5914.000000
1250.774337	5895.333333
1251.953322	5940.666667
1253.131851	5920.000000
1254.309925	5891.666667
1255.487544	5888.333333
1256.664708	5875.000000
1257.841417	5902.666667
1259.017673	5896.666667
1260.193473	5884.000000
1261.368820	5868.666667
1262.543714	5869.000000
1263.718154	5912.333333
1264.892140	5915.666667
1266.065674	5894.000000
1267.238755	5929.000000
1268.411383	5895.666667
1269.583559	5931.000000
1270.755283	5889.666667
1271.926555	5860.333333
1273.097375	5892.333333
1274.267744	5901.666667
1275.437662	5850.666667
1276.607129	5778.333333
1277.776145	5823.666667
1278.944711	5797.000000
1280.112827	5783.666667
1281.280492	5777.333333
1282.447708	5736.666667
1283.614474	5711.666667
1284.780791	5642.000000
1285.946659	5739.666667
1287.112078	5735.333333
1288.277048	5646.000000
1289.441570	5617.000000
1290.605644	5651.000000
1291.769270	5590.000000
1292.932448	5549.666667
1294.095178	5561.666667
1295.257461	5550.000000
1296.419298	5492.333333
1297.580687	5542.666667
1298.741630	5501.666667
1299.902126	5466.000000
1301.062177	5565.666667
1302.221781	5504.000000
1303.380940	5509.666667
1304.539653	5491.000000
1305.697921	5447.000000
1306.855744	5492.333333
1308.013123	5465.666667
1309.170056	5430.666667
1310.326546	5475.333333
1311.482591	5457.333333
1312.638193	5507.000000
1313.793350	5447.333333
1314.948065	5509.666667
1316.102336	5467.666667
1317.256164	5433.333333
1318.409550	5397.666667
1319.562493	5374.666667
1320.714993	5409.333333
1321.867052	5355.000000
1323.018668	5379.666667
1324.169843	5378.666667
1325.320577	5434.666667
1326.470870	5342.000000
1327.620721	5337.000000
1328.770132	5280.000000
1329.919102	5314.333333
1331.067632	5298.666667
1332.215722	5301.000000
1333.363372	5242.666667
1334.510582	5262.666667
1335.657353	5225.333333
1336.803685	5307.333333
1337.949578	5278.666667
1339.095032	5278.000000
1340.240048	5302.666667
1341.384625	5311.333333
1342.528764	5253.666667
1343.672466	5265.333333
1344.815729	5285.333333
1345.958556	5210.333333
1347.100945	5215.333333
1348.242897	5216.000000
1349.384413	5247.000000
1350.525492	5168.666667
1351.666134	5131.666667
1352.806341	5160.666667
1353.946111	5173.000000
1355.085446	5125.666667
1356.224346	5140.666667
1357.362810	5109.000000
1358.500840	5071.666667
1359.638434	5129.666667
1360.775594	5078.000000
1361.912320	5070.333333
1363.048612	5043.666667
1364.184469	5129.000000
1365.319893	5122.666667
1366.454884	5074.333333
1367.589441	5071.666667
1368.723566	5082.333333
1369.857257	5110.333333
1370.990516	5082.333333
1372.123343	5064.333333
1373.255737	5117.333333
1374.387699	5067.666667
1375.519230	5092.333333
1376.650329	5170.666667
1377.780997	5193.000000
1378.911234	5130.333333
1380.041040	5180.333333
1381.170416	5144.333333
1382.299361	5041.666667
1383.427875	5090.000000
1384.555960	5093.000000
1385.683615	5139.666667
1386.810841	5051.666667
1387.937637	4999.000000
1389.064004	5072.666667
1390.189942	5078.000000
1391.315451	5066.333333
1392.440532	5064.666667
1393.565185	5038.000000
1394.689409	4986.333333
1395.813206	5062.333333
1396.936575	5048.333333
1398.059517	4995.000000
1399.182032	4992.666667
1400.304119	4982.666667
1401.425780	4946.333333
1402.547014	4952.666667
1403.667822	4957.333333
1404.788204	4969.000000
1405.908160	5008.666667
1407.027690	4984.000000
1408.146795	5000.333333
1409.265474	4963.000000
1410.383728	4974.333333
1411.501558	4943.000000
1412.618963	5028.666667
1413.735943	5025.333333
1414.852499	5005.000000
1415.968632	5009.666667
1417.084340	4967.666667
1418.199625	4965.666667
1419.314486	4966.666667
1420.428925	4988.000000
1421.542940	4987.000000
1422.656533	5031.666667
1423.769703	4929.000000
1424.882451	5017.000000
1425.994777	4977.666667
1427.106680	5012.000000
1428.218163	4961.000000
1429.329223	4894.000000
1430.439863	4886.000000
1431.550081	4908.000000
1432.659879	4897.666667
1433.769256	4915.666667
1434.878212	4885.333333
1435.986749	4940.666667
1437.094865	4912.000000
1438.202562	4939.333333
1439.309839	4883.666667
1440.416696	4935.000000
1441.523135	4990.666667
1442.629154	5004.666667
1443.734755	4990.666667
1444.839937	5008.333333
1445.944701	5025.333333
1447.049047	5031.333333
1448.152975	5057.000000
1449.256485	5076.000000
1450.359577	5093.000000
1451.462253	5049.333333
1452.564511	4951.000000
1453.666352	5068.333333
1454.767777	5020.333333
1455.868785	4996.000000
1456.969377	4953.666667
1458.069553	4963.666667
1459.169313	4937.666667
1460.268658	4849.000000
1461.367587	4963.333333
1462.466101	4874.000000
1463.564200	4789.000000
1464.661884	4818.000000
1465.759153	4797.000000
1466.856008	4685.333333
1467.952449	4671.333333
1469.048476	4746.000000
1470.144089	4622.666667
1471.239288	4619.333333
1472.334074	4611.000000
1473.428447	4569.666667
1474.522407	4548.333333
1475.615955	4505.333333
1476.709089	4446.333333
1477.801812	4444.666667
1478.894122	4374.000000
1479.986020	4368.666667
1481.077506	4398.000000
1482.168581	4380.000000
1483.259245	4342.333333
1484.349498	4372.333333
1485.439339	4365.666667
1486.528770	4338.666667
1487.617790	4321.333333
1488.706400	4308.666667
1489.794600	4320.333333
1490.882390	4330.000000
1491.969771	4224.333333
1493.056742	4263.666667
1494.143303	4293.000000
1495.229456	4249.333333
1496.315199	4302.000000
1497.400534	4211.333333
1498.485460	4232.333333
1499.569978	4259.333333
1500.654088	4235.666667
1501.737790	4175.000000
1502.821085	4196.666667
1503.903972	4165.000000
1504.986451	4183.000000
1506.068524	4177.666667
1507.150189	4208.666667
1508.231448	4166.666667
1509.312301	4125.000000
1510.392747	4138.000000
1511.472787	4107.000000
1512.552422	4112.000000
1513.631650	4043.000000
1514.710473	4048.333333
1515.788891	4128.333333
1516.866904	4119.333333
1517.944512	4130.666667
1519.021715	4088.333333
1520.098513	4082.000000
1521.174908	4121.333333
1522.250898	4081.333333
1523.326485	4057.666667
1524.401667	4101.333333
1525.476447	4082.000000
1526.550823	4074.333333
1527.624796	4044.666667
1528.698365	4051.000000
1529.771533	4049.333333
1530.844298	4044.666667
1531.916660	4041.333333
1532.988620	4070.000000
1534.060179	4046.333333
1535.131336	4036.000000
1536.202091	4035.000000
1537.272445	3979.000000
1538.342398	4015.000000
1539.411950	3989.666667
1540.481101	4035.000000
1541.549851	3997.666667
1542.618202	3996.000000
1543.686152	3947.666667
1544.753702	3967.000000
1545.820853	3951.333333
1546.887604	3960.000000
1547.953955	3961.666667
1549.019908	3931.666667
1550.085461	3967.000000
1551.150616	3951.000000
1552.215372	3961.000000
1553.279730	3978.333333
1554.343690	3949.333333
1555.407252	3918.333333
1556.470415	3918.666667
1557.533182	3909.333333
1558.595551	3848.000000
1559.657522	3891.666667
1560.719097	3850.000000
1561.780275	3859.333333
1562.841056	3889.666667
1563.901441	3904.333333
1564.961429	3861.666667
1566.021022	3846.333333
1567.080219	3902.666667
1568.139020	3864.666667
1569.197425	3885.333333
1570.255436	3858.666667
1571.313051	3895.333333
1572.370271	3830.333333
1573.427097	3854.333333
1574.483528	3880.333333
1575.539565	3824.333333
1576.595208	3793.333333
1577.650457	3773.000000
1578.705312	3783.333333
1579.759774	3775.000000
1580.813842	3755.333333
1581.867517	3786.000000
1582.920799	3761.333333
1583.973689	3776.666667
1585.026186	3735.333333
1586.078290	3740.000000
1587.130002	3752.333333
1588.181323	3707.000000
1589.232251	3723.000000
1590.282788	3740.000000
1591.332933	3660.666667
1592.382688	3732.333333
1593.432051	3686.666667
1594.481023	3674.666667
1595.529605	3679.333333
1596.577796	3702.333333
1597.625597	3693.000000
1598.673007	3753.000000
1599.720028	3717.000000
1600.766660	3690.666667
1601.812901	3734.333333
1602.858753	3700.666667
1603.904217	3773.666667
1604.949291	3739.666667
1605.993976	3748.000000
1607.038273	3742.666667
1608.082182	3749.000000
1609.125702	3705.000000
1610.168834	3694.000000
1611.211579	3672.333333
1612.253935	3684.666667
1613.295905	3618.333333
1614.337487	3629.333333
1615.378682	3654.666667
1616.419490	3603.000000
1617.459912	3652.666667
1618.499946	3671.666667
1619.539595	3617.000000
1620.578858	3667.333333
1621.617734	3694.666667
1622.656225	3707.000000
1623.694330	3718.000000
1624.732050	3655.000000
1625.769385	3639.333333
1626.806334	3672.666667
1627.842899	3650.333333
1628.879079	3692.000000
1629.914875	3651.333333
1630.950286	3641.666667
1631.985314	3658.666667
1633.019957	3674.000000
1634.054217	3649.333333
1635.088093	3660.666667
1636.121586	3681.333333
1637.154696	3695.000000
1638.187423	3641.333333
1639.219767	3669.000000
1640.251728	3660.000000
1641.283307	3630.000000
1642.314504	3634.666667
1643.345319	3652.666667
1644.375751	3679.333333
1645.405803	3653.666667
1646.435472	3648.666667
1647.464761	3608.000000
1648.493668	3699.000000
1649.522194	3651.333333
1650.550340	3680.333333
1651.578105	3674.333333
1652.605490	3671.000000
1653.632494	3733.666667
1654.659119	3660.333333
1655.685363	3633.333333
1656.711228	3556.000000
1657.736714	3647.000000
1658.761820	3620.000000
1659.786547	3663.000000
1660.810895	3578.666667
1661.834865	3649.333333
1662.858456	3604.000000
1663.881668	3638.000000
1664.904503	3566.000000
1665.926959	3564.666667
1666.949038	3589.000000
1667.970739	3605.666667
1668.992062	3552.000000
1670.013008	3559.000000
1671.033577	3573.000000
1672.053770	3547.333333
1673.073585	3565.666667
1674.093024	3514.333333
1675.112086	3475.333333
1676.130773	3512.333333
1677.149083	3464.000000
1678.167017	3467.666667
1679.184576	3447.666667
1680.201760	3443.000000
1681.218568	3415.333333
1682.235001	3464.333333
1683.251059	3451.333333
1684.266742	3407.333333
1685.282051	3432.333333
1686.296985	3440.666667
1687.311546	3460.333333
1688.325732	3357.000000
1689.339544	3402.000000
1690.352983	3319.666667
1691.366048	3329.666667
1692.378740	3280.666667
1693.391058	3236.666667
1694.403004	3294.333333
1695.414577	3229.666667
1696.425778	3246.333333
1697.436606	3217.000000
1698.447061	3207.666667
1699.457145	3193.666667
1700.466857	3181.000000
1701.476197	3092.000000
1702.485166	3090.333333
1703.493763	3043.000000
1704.501989	3079.000000
1705.509844	3099.666667
1706.517328	3107.000000
1707.524442	3053.000000
1708.531185	3081.000000
1709.537558	3131.333333
1710.543561	3055.000000
1711.549194	3044.333333
1712.554457	2988.000000
1713.559351	3022.000000
1714.563875	3030.666667
1715.568030	2991.333333
1716.571816	3020.000000
1717.575233	3010.000000
1718.578282	3030.000000
1719.580962	3042.666667
1720.583273	3093.666667
1721.585217	3057.333333
1722.586792	3033.666667
1723.588000	3033.666667
1724.588840	3024.666667
1725.589312	3008.000000
1726.589418	3030.333333
1727.589156	3001.666667
1728.588527	3077.333333
1729.587532	3060.333333
1730.586170	3019.333333
1731.584441	3003.000000
1732.582346	2991.666667
1733.579886	2996.666667
1734.577059	2980.666667
1735.573867	2995.666667
1736.570309	3003.000000
1737.566386	2974.333333
1738.562097	2945.000000
1739.557444	2961.000000
1740.552426	2932.000000
1741.547043	2916.000000
1742.541295	2920.333333
1743.535184	2863.000000
1744.528708	2924.666667
1745.521868	2909.666667
1746.514664	2872.666667
1747.507097	2923.000000
1748.499166	2887.666667
1749.490873	2851.000000
1750.482216	2886.000000
1751.473196	2851.666667
1752.463813	2886.333333
1753.454068	2918.666667
1754.443960	2914.000000
1755.433490	2852.333333
1756.422658	2836.000000
1757.411464	2809.333333
1758.399908	2821.000000
1759.387991	2887.000000
1760.375713	2859.000000
1761.363073	2892.333333
1762.350072	2858.666667
1763.336711	2828.333333
1764.322988	2853.666667
1765.308905	2822.666667
1766.294462	2824.666667
1767.279659	2828.666667
1768.264496	2823.000000
1769.248972	2775.333333
1770.233089	2810.666667
1771.216847	2766.333333
1772.200245	2760.666667
1773.183284	2773.666667
1774.165965	2791.333333
1775.148286	2811.666667
1776.130249	2782.000000
1777.111853	2730.666667
1778.093099	2742.333333
1779.073987	2752.333333
1780.054517	2745.000000
1781.034689	2701.333333
1782.014503	2689.666667
1782.993960	2633.666667
1783.973060	2621.666667
1784.951802	2663.666667
1785.930188	2604.333333
1786.908217	2629.000000
1787.885889	2609.333333
1788.863205	2583.666667
1789.840164	2573.666667
1790.816768	2592.000000
1791.793015	2591.333333
1792.768907	2588.333333
1793.744443	2600.666667
1794.719624	2584.333333
1795.694449	2580.333333
1796.668919	2570.666667
1797.643035	2648.333333
1798.616795	2649.333333
1799.590201	2626.000000
1800.563253	2630.000000
1801.535950	2600.333333
1802.508294	2605.666667
1803.480283	2584.333333
1804.451919	2611.666667
1805.423201	2576.000000
1806.394129	2590.000000
1807.364705	2635.666667
1808.334927	2597.000000
1809.304796	2653.666667
1810.274313	2582.666667
1811.243477	2563.000000
1812.212288	2566.000000
1813.180747	2552.333333
1814.148855	2606.666667
1815.116610	2573.666667
1816.084013	2563.333333
1817.051065	2552.333333
1818.017766	2529.000000
1818.984115	2607.000000
1819.950113	2565.666667
1820.915760	2552.666667
1821.881057	2538.666667
1822.846003	2539.000000
1823.810598	2536.333333
1824.774843	2554.000000
1825.738738	2501.666667
1826.702283	2541.333333
1827.665479	2520.333333
1828.628324	2516.333333
1829.590821	2524.000000
1830.552968	2533.333333
1831.514765	2504.000000
1832.476214	2452.333333
1833.437314	2500.666667
1834.398066	2458.000000
1835.358469	2493.333333
1836.318524	2440.000000
1837.278230	2461.666667
1838.237589	2463.000000
1839.196600	2436.333333
1840.155263	2445.666667
1841.113578	2493.000000
1842.071547	2437.333333
1843.029168	2484.666667
1843.986442	2481.333333
1844.943369	2481.333333
1845.899950	2460.333333
1846.856184	2468.000000
1847.812072	2481.333333
1848.767614	2477.666667
1849.722809	2465.666667
1850.677659	2487.333333
1851.632163	2507.666667
1852.586322	2516.333333
1853.540135	2493.666667
1854.493603	2473.333333
1855.446726	2479.333333
1856.399504	2436.333333
1857.351937	2451.000000
1858.304026	2424.000000
1859.255770	2445.333333
1860.207170	2428.333333
1861.158227	2410.666667
1862.108939	2402.666667
1863.059307	2422.666667
1864.009332	2426.666667
1864.959013	2396.000000
1865.908351	2387.333333
1866.857346	2396.000000
1867.805998	2359.666667
1868.754307	2369.666667
1869.702274	2377.333333
1870.649898	2384.333333
1871.597180	2362.333333
1872.544119	2340.000000
1873.490717	2336.000000
1874.436973	2330.666667
1875.382887	2324.333333
1876.328459	2347.000000
1877.273691	2310.000000
1878.218581	2361.000000
1879.163130	2284.666667
1880.107338	2291.333333
1881.051205	2307.000000
1881.994732	2361.666667
1882.937919	2348.333333
1883.880765	2316.000000
1884.823271	2338.333333
1885.765437	2305.333333
1886.707264	2320.000000
1887.648750	2342.666667
1888.589898	2322.333333
1889.530706	2301.333333
1890.471175	2340.333333
1891.411305	2369.000000
1892.351096	2367.333333
1893.290548	2327.666667
1894.229662	2343.000000
1895.168438	2332.666667
1896.106876	2356.666667
1897.044975	2339.666667
1897.982737	2358.000000
1898.920160	2309.000000
1899.857247	2270.666667
1900.793996	2302.666667
1901.730407	2306.333333
1902.666482	2288.666667
1903.602219	2268.333333
1904.537620	2286.000000
1905.472685	2258.333333
1906.407412	2248.333333
1907.341804	2203.333333
1908.275859	2230.000000
1909.209579	2290.000000
1910.142962	2212.000000
1911.076010	2229.333333
1912.008722	2203.666667
1912.941099	2173.000000
1913.873141	2189.000000
1914.804848	2130.666667
1915.736219	2204.000000
1916.667256	2177.333333
1917.597959	2177.333333
1918.528327	2139.666667
1919.458360	2147.666667
1920.388060	2146.000000
1921.317426	2153.000000
1922.246457	2131.333333
1923.175156	2164.000000
1924.103520	2123.000000
1925.031552	2141.666667
1925.959250	2161.000000
1926.886615	2088.333333
1927.813647	2164.666667
1928.740346	2166.333333
1929.666713	2142.000000
1930.592748	2171.000000
1931.518450	2120.000000
1932.443820	2122.666667
1933.368858	2134.000000
1934.293564	2118.000000
1935.217939	2138.000000
1936.141982	2156.333333
1937.065694	2118.666667
1937.989074	2123.000000
1938.912124	2108.000000
1939.834842	2126.666667
1940.757230	2110.666667
1941.679287	2075.000000
1942.601014	2101.666667
1943.522411	2107.666667
1944.443477	2084.000000
1945.364214	2078.333333
1946.284621	2078.666667
1947.204698	2073.666667
1948.124445	2069.666667
1949.043863	2021.333333
1949.962952	2057.333333
1950.881712	2041.666667
1951.800143	2062.666667
1952.718245	2044.333333
1953.636019	2005.666667
1954.553464	1999.333333
1955.470581	2013.666667
1956.387369	2027.000000
1957.303830	1980.000000
1958.219963	1984.000000
1959.135768	2000.000000
1960.051246	1998.333333
1960.966396	1986.666667
1961.881219	1969.333333
1962.795715	2000.000000
1963.709883	1984.000000
1964.623726	2001.000000
1965.537241	1997.000000
1966.450430	1986.666667
1967.363293	1966.666667
1968.275829	1997.000000
1969.188040	1997.000000
1970.099924	2048.000000
1971.011483	1986.666667
1971.922716	2003.333333
1972.833624	2030.666667
1973.744206	2016.666667
1974.654464	2023.000000
1975.564396	2039.666667
1976.474004	2021.333333
1977.383286	1979.000000
1978.292245	1987.333333
1979.200878	1998.000000
1980.109188	1995.666667
1981.017174	1973.666667
1981.924835	1982.000000
1982.832173	1967.000000
1983.739187	1925.333333
1984.645878	1955.000000
1985.552245	1952.333333
1986.458289	1917.000000
1987.364010	1919.333333
1988.269408	1919.000000
1989.174484	1932.333333
1990.079236	1911.333333
1990.983667	1900.666667
1991.887775	1898.666667
1992.791561	1908.666667
1993.695024	1886.333333
1994.598166	1886.333333
1995.500986	1874.666667
1996.403485	1843.666667
1997.305662	1891.666667
1998.207518	1872.333333
1999.109053	1867.666667
